3.992094e+002;0.000000e+000
4.011380e+002;0.000000e+000
4.030665e+002;0.000000e+000
4.049951e+002;0.000000e+000
4.069236e+002;0.000000e+000
4.088522e+002;0.000000e+000
4.107807e+002;0.000000e+000
4.127093e+002;0.000000e+000
4.146378e+002;0.000000e+000
4.165664e+002;0.000000e+000
4.184949e+002;0.000000e+000
4.204235e+002;0.000000e+000
4.223520e+002;0.000000e+000
4.242806e+002;0.000000e+000
4.262091e+002;0.000000e+000
4.281377e+002;0.000000e+000
4.300662e+002;0.000000e+000
4.319948e+002;0.000000e+000
4.339233e+002;0.000000e+000
4.358519e+002;0.000000e+000
4.377804e+002;0.000000e+000
4.397090e+002;0.000000e+000
4.416375e+002;0.000000e+000
4.435660e+002;0.000000e+000
4.454946e+002;0.000000e+000
4.474232e+002;0.000000e+000
4.493517e+002;0.000000e+000
4.512802e+002;0.000000e+000
4.532088e+002;0.000000e+000
4.551373e+002;0.000000e+000
4.570659e+002;0.000000e+000
4.589944e+002;0.000000e+000
4.609230e+002;0.000000e+000
4.628515e+002;0.000000e+000
4.647801e+002;0.000000e+000
4.667086e+002;0.000000e+000
4.686372e+002;0.000000e+000
4.705657e+002;0.000000e+000
4.724943e+002;0.000000e+000
4.744228e+002;0.000000e+000
4.763513e+002;0.000000e+000
4.782799e+002;0.000000e+000
4.802085e+002;0.000000e+000
4.821370e+002;0.000000e+000
4.840656e+002;0.000000e+000
4.859941e+002;0.000000e+000
4.879226e+002;0.000000e+000
4.898512e+002;0.000000e+000
4.917798e+002;0.000000e+000
4.937083e+002;0.000000e+000
4.956368e+002;0.000000e+000
4.975654e+002;0.000000e+000
4.994939e+002;0.000000e+000
5.014225e+002;0.000000e+000
5.033510e+002;0.000000e+000
5.052796e+002;0.000000e+000
5.072081e+002;0.000000e+000
5.091367e+002;0.000000e+000
5.110652e+002;0.000000e+000
5.129938e+002;0.000000e+000
5.149223e+002;0.000000e+000
5.168509e+002;0.000000e+000
5.187794e+002;0.000000e+000
5.207079e+002;0.000000e+000
5.226365e+002;0.000000e+000
5.245651e+002;0.000000e+000
5.264936e+002;0.000000e+000
5.284222e+002;0.000000e+000
5.303507e+002;0.000000e+000
5.322792e+002;0.000000e+000
5.342078e+002;0.000000e+000
5.361364e+002;0.000000e+000
5.380649e+002;0.000000e+000
5.399935e+002;0.000000e+000
5.419220e+002;0.000000e+000
5.438505e+002;0.000000e+000
5.457791e+002;0.000000e+000
5.477076e+002;0.000000e+000
5.496362e+002;0.000000e+000
5.515648e+002;0.000000e+000
5.534933e+002;0.000000e+000
5.554218e+002;0.000000e+000
5.573504e+002;0.000000e+000
5.592789e+002;0.000000e+000
5.612075e+002;0.000000e+000
5.631360e+002;0.000000e+000
5.650646e+002;0.000000e+000
5.669931e+002;0.000000e+000
5.689217e+002;0.000000e+000
5.708502e+002;0.000000e+000
5.727787e+002;0.000000e+000
5.747073e+002;0.000000e+000
5.766359e+002;0.000000e+000
5.785644e+002;0.000000e+000
5.804930e+002;0.000000e+000
5.824215e+002;0.000000e+000
5.843500e+002;0.000000e+000
5.862786e+002;0.000000e+000
5.882072e+002;0.000000e+000
5.901357e+002;0.000000e+000
5.920643e+002;0.000000e+000
5.939928e+002;0.000000e+000
5.959213e+002;0.000000e+000
5.978499e+002;0.000000e+000
5.997784e+002;3.053817e-002
6.017070e+002;2.956951e-002
6.036355e+002;2.896147e-002
6.055641e+002;3.208494e-002
6.074926e+002;3.635320e-002
6.094211e+002;3.722643e-002
6.113497e+002;3.056594e-002
6.132783e+002;2.477514e-002
6.152068e+002;2.595453e-002
6.171354e+002;2.803134e-002
6.190639e+002;2.746745e-002
6.209924e+002;2.750187e-002
6.229210e+002;2.834654e-002
6.248495e+002;2.964595e-002
6.267781e+002;3.020110e-002
6.287067e+002;3.033393e-002
6.306352e+002;3.182762e-002
6.325637e+002;3.445979e-002
6.344923e+002;3.255285e-002
6.364208e+002;3.011731e-002
6.383494e+002;3.171551e-002
6.402780e+002;3.375340e-002
6.422065e+002;3.371691e-002
6.441350e+002;3.269805e-002
6.460636e+002;3.368346e-002
6.479921e+002;2.992402e-002
6.499207e+002;3.096698e-002
6.518492e+002;3.163229e-002
6.537778e+002;2.784925e-002
6.557063e+002;2.780630e-002
6.576349e+002;2.854518e-002
6.595634e+002;3.060213e-002
6.614919e+002;3.083684e-002
6.634205e+002;2.910111e-002
6.653491e+002;2.939007e-002
6.672776e+002;3.115846e-002
6.692062e+002;3.113415e-002
6.711347e+002;3.101947e-002
6.730632e+002;3.045646e-002
6.749918e+002;2.946102e-002
6.769203e+002;2.923187e-002
6.788489e+002;3.122404e-002
6.807775e+002;3.308126e-002
6.827060e+002;3.377019e-002
6.846345e+002;3.529522e-002
6.865631e+002;3.700906e-002
6.884916e+002;3.957904e-002
6.904202e+002;4.118900e-002
6.923488e+002;4.136311e-002
6.942773e+002;4.274291e-002
6.962058e+002;4.650785e-002
6.981344e+002;5.098021e-002
7.000629e+002;5.537013e-002
7.019915e+002;5.955243e-002
7.039200e+002;6.500621e-002
7.058486e+002;7.426903e-002
7.077771e+002;8.665670e-002
7.097057e+002;1.030388e-001
7.116342e+002;1.286146e-001
7.135627e+002;1.613815e-001
7.154913e+002;1.862389e-001
7.174199e+002;1.857957e-001
7.193484e+002;1.619177e-001
7.212770e+002;1.312541e-001
7.232055e+002;1.076421e-001
7.251340e+002;9.351190e-002
7.270626e+002;8.616316e-002
7.289911e+002;8.721805e-002
7.309197e+002;9.227072e-002
7.328483e+002;8.563469e-002
7.347768e+002;6.605605e-002
7.367053e+002;5.074255e-002
7.386339e+002;4.333575e-002
7.405624e+002;3.875124e-002
7.424910e+002;3.563962e-002
7.444196e+002;3.402106e-002
7.463481e+002;3.337532e-002
7.482766e+002;3.248939e-002
7.502052e+002;3.135259e-002
7.521337e+002;3.013954e-002
7.540623e+002;2.943542e-002
7.559908e+002;2.959554e-002
7.579194e+002;2.851839e-002
7.598479e+002;2.712231e-002
7.617765e+002;2.654171e-002
7.637050e+002;2.672948e-002
7.656335e+002;2.686739e-002
7.675621e+002;2.645359e-002
7.694907e+002;2.555608e-002
7.714192e+002;2.457303e-002
7.733478e+002;2.427496e-002
7.752763e+002;2.481342e-002
7.772048e+002;2.571646e-002
7.791334e+002;2.547255e-002
7.810620e+002;2.491745e-002
7.829905e+002;2.518938e-002
7.849191e+002;2.501603e-002
7.868476e+002;2.449243e-002
7.887761e+002;2.476339e-002
7.907047e+002;2.575422e-002
7.926332e+002;2.666211e-002
7.945618e+002;2.626213e-002
7.964903e+002;2.528897e-002
7.984189e+002;2.446985e-002
8.003474e+002;2.464891e-002
8.022759e+002;2.532504e-002
8.042045e+002;2.608392e-002
8.061331e+002;2.650642e-002
8.080616e+002;2.574420e-002
8.099902e+002;2.520262e-002
8.119187e+002;2.536178e-002
8.138472e+002;2.597556e-002
8.157758e+002;2.659095e-002
8.177043e+002;2.635870e-002
8.196329e+002;2.701376e-002
8.215615e+002;2.760612e-002
8.234900e+002;2.771065e-002
8.254185e+002;2.826247e-002
8.273471e+002;2.833069e-002
8.292756e+002;2.811981e-002
8.312042e+002;2.858071e-002
8.331328e+002;2.879199e-002
8.350613e+002;2.862020e-002
8.369898e+002;2.876144e-002
8.389184e+002;2.916805e-002
8.408469e+002;2.899569e-002
8.427755e+002;2.802537e-002
8.447040e+002;2.787275e-002
8.466326e+002;2.803816e-002
8.485611e+002;2.734160e-002
8.504897e+002;2.605975e-002
8.524182e+002;2.545038e-002
8.543467e+002;2.591981e-002
8.562753e+002;2.595277e-002
8.582039e+002;2.571608e-002
8.601324e+002;2.585767e-002
8.620610e+002;2.555576e-002
8.639895e+002;2.525607e-002
8.659180e+002;2.563371e-002
8.678466e+002;2.603371e-002
8.697751e+002;2.640162e-002
8.717037e+002;2.677293e-002
8.736323e+002;2.712651e-002
8.755608e+002;2.709949e-002
8.774893e+002;2.677885e-002
8.794179e+002;2.663460e-002
8.813464e+002;2.691949e-002
8.832750e+002;2.731655e-002
8.852036e+002;2.780188e-002
8.871321e+002;2.838704e-002
8.890606e+002;2.857738e-002
8.909892e+002;2.836847e-002
8.929177e+002;2.854408e-002
8.948463e+002;2.877744e-002
8.967748e+002;2.891536e-002
8.987034e+002;2.891770e-002
9.006319e+002;2.883625e-002
9.025605e+002;2.859327e-002
9.044890e+002;2.896923e-002
9.064175e+002;2.967767e-002
9.083461e+002;3.020095e-002
9.102747e+002;3.005602e-002
9.122032e+002;2.961867e-002
9.141318e+002;2.928341e-002
9.160603e+002;2.900376e-002
9.179888e+002;2.867251e-002
9.199174e+002;2.839546e-002
9.218459e+002;2.790370e-002
9.237745e+002;2.773855e-002
9.257031e+002;2.799685e-002
9.276316e+002;2.821520e-002
9.295601e+002;2.834679e-002
9.314887e+002;2.866827e-002
9.334172e+002;2.851609e-002
9.353458e+002;2.819731e-002
9.372744e+002;2.797861e-002
9.392029e+002;2.761887e-002
9.411314e+002;2.801978e-002
9.430600e+002;2.865666e-002
9.449885e+002;2.863737e-002
9.469171e+002;2.839199e-002
9.488456e+002;2.828097e-002
9.507742e+002;2.865428e-002
9.527027e+002;2.876384e-002
9.546313e+002;2.839783e-002
9.565598e+002;2.837919e-002
9.584883e+002;2.853081e-002
9.604169e+002;2.860060e-002
9.623455e+002;2.861539e-002
9.642740e+002;2.888157e-002
9.662026e+002;2.946049e-002
9.681311e+002;2.949053e-002
9.700596e+002;2.948539e-002
9.719882e+002;2.983184e-002
9.739167e+002;2.986261e-002
9.758453e+002;2.968224e-002
9.777739e+002;3.001806e-002
9.797024e+002;2.989449e-002
9.816309e+002;2.961211e-002
9.835595e+002;2.957653e-002
9.854880e+002;2.927561e-002
9.874166e+002;2.885912e-002
9.893452e+002;2.842276e-002
9.912737e+002;2.839676e-002
9.932022e+002;2.862636e-002
9.951307e+002;2.861157e-002
9.970593e+002;2.926519e-002
9.989879e+002;2.980512e-002
1.000916e+003;3.011994e-002
1.002845e+003;3.034267e-002
1.004773e+003;3.069322e-002
1.006702e+003;3.111621e-002
1.008631e+003;3.102118e-002
1.010559e+003;3.066069e-002
1.012488e+003;3.092439e-002
1.014416e+003;3.166166e-002
1.016345e+003;3.193788e-002
1.018273e+003;3.180744e-002
1.020202e+003;3.259135e-002
1.022130e+003;3.369933e-002
1.024059e+003;3.441083e-002
1.025988e+003;3.528358e-002
1.027916e+003;3.653020e-002
1.029845e+003;3.759903e-002
1.031773e+003;3.818246e-002
1.033702e+003;3.825037e-002
1.035630e+003;3.833045e-002
1.037559e+003;3.797965e-002
1.039487e+003;3.733001e-002
1.041416e+003;3.691583e-002
1.043344e+003;3.667446e-002
1.045273e+003;3.669851e-002
1.047202e+003;3.724946e-002
1.049130e+003;3.795119e-002
1.051059e+003;3.820818e-002
1.052987e+003;3.851597e-002
1.054916e+003;3.892190e-002
1.056844e+003;3.899645e-002
1.058773e+003;3.942514e-002
1.060701e+003;3.992409e-002
1.062630e+003;4.053412e-002
1.064558e+003;4.125255e-002
1.066487e+003;4.196537e-002
1.068416e+003;4.306543e-002
1.070344e+003;4.321572e-002
1.072273e+003;4.272474e-002
1.074201e+003;4.327289e-002
1.076130e+003;4.385781e-002
1.078058e+003;4.349423e-002
1.079987e+003;4.233151e-002
1.081915e+003;4.113928e-002
1.083844e+003;3.988595e-002
1.085773e+003;3.884218e-002
1.087701e+003;3.835293e-002
1.089630e+003;3.795028e-002
1.091558e+003;3.729156e-002
1.093487e+003;3.600499e-002
1.095415e+003;3.511146e-002
1.097344e+003;3.455640e-002
1.099272e+003;3.418870e-002
1.101201e+003;3.450969e-002
1.103129e+003;3.469735e-002
1.105058e+003;3.374591e-002
1.106987e+003;3.267311e-002
1.108915e+003;3.247157e-002
1.110844e+003;3.225575e-002
1.112772e+003;3.215580e-002
1.114701e+003;3.182406e-002
1.116629e+003;3.140505e-002
1.118558e+003;3.103210e-002
1.120486e+003;3.077175e-002
1.122415e+003;3.099826e-002
1.124344e+003;3.138140e-002
1.126272e+003;3.133240e-002
1.128201e+003;3.079771e-002
1.130129e+003;3.042255e-002
1.132058e+003;3.023992e-002
1.133986e+003;3.043879e-002
1.135915e+003;3.091126e-002
1.137843e+003;3.088060e-002
1.139772e+003;3.050199e-002
1.141700e+003;3.059985e-002
1.143629e+003;3.162245e-002
1.145557e+003;3.292668e-002
1.147486e+003;3.358755e-002
1.149415e+003;3.340999e-002
1.151343e+003;3.334304e-002
1.153272e+003;3.317642e-002
1.155200e+003;3.234423e-002
1.157129e+003;3.164412e-002
1.159057e+003;3.121247e-002
1.160986e+003;3.112368e-002
1.162914e+003;3.114892e-002
1.164843e+003;3.090696e-002
1.166771e+003;3.077833e-002
1.168700e+003;3.065333e-002
1.170629e+003;3.052047e-002
1.172557e+003;3.001838e-002
1.174486e+003;3.006653e-002
1.176414e+003;3.040699e-002
1.178343e+003;2.983674e-002
1.180271e+003;2.942493e-002
1.182200e+003;2.936934e-002
1.184128e+003;2.895694e-002
1.186057e+003;2.817592e-002
1.187986e+003;2.771047e-002
1.189914e+003;2.730825e-002
1.191843e+003;2.720030e-002
1.193771e+003;2.736948e-002
1.195700e+003;2.732971e-002
1.197628e+003;2.700833e-002
1.199557e+003;2.664129e-002
1.201485e+003;2.644655e-002
1.203414e+003;2.651473e-002
1.205343e+003;2.678273e-002
1.207271e+003;2.695735e-002
1.209200e+003;2.666838e-002
1.211128e+003;2.631913e-002
1.213057e+003;2.628537e-002
1.214985e+003;2.644743e-002
1.216914e+003;2.677734e-002
1.218842e+003;2.699261e-002
1.220771e+003;2.713338e-002
1.222699e+003;2.739153e-002
1.224628e+003;2.778655e-002
1.226557e+003;2.773883e-002
1.228485e+003;2.782601e-002
1.230414e+003;2.807987e-002
1.232342e+003;2.832270e-002
1.234271e+003;2.847495e-002
1.236199e+003;2.869297e-002
1.238128e+003;2.861836e-002
1.240056e+003;2.804442e-002
1.241985e+003;2.782170e-002
1.243913e+003;2.811232e-002
1.245842e+003;2.842022e-002
1.247771e+003;2.896179e-002
1.249699e+003;2.949166e-002
1.251628e+003;2.982986e-002
1.253556e+003;3.046356e-002
1.255485e+003;3.099089e-002
1.257413e+003;3.089483e-002
1.259342e+003;3.036836e-002
1.261270e+003;2.997560e-002
1.263199e+003;2.989577e-002
1.265127e+003;3.035717e-002
1.267056e+003;3.104872e-002
1.268985e+003;3.097912e-002
1.270913e+003;3.061550e-002
1.272842e+003;3.083108e-002
1.274770e+003;3.092873e-002
1.276699e+003;3.069866e-002
1.278627e+003;3.056323e-002
1.280556e+003;3.044025e-002
1.282484e+003;3.029580e-002
1.284413e+003;3.066403e-002
1.286342e+003;3.088732e-002
1.288270e+003;3.074586e-002
1.290199e+003;3.088792e-002
1.292127e+003;3.149204e-002
1.294056e+003;3.199466e-002
1.295984e+003;3.203325e-002
1.297913e+003;3.228480e-002
1.299841e+003;3.252618e-002
1.301770e+003;3.243301e-002
1.303698e+003;3.235997e-002
1.305627e+003;3.246558e-002
1.307556e+003;3.212554e-002
1.309484e+003;3.131071e-002
1.311413e+003;3.083414e-002
1.313341e+003;3.018433e-002
1.315270e+003;2.912716e-002
1.317198e+003;2.830831e-002
1.319127e+003;2.751920e-002
1.321055e+003;2.667110e-002
1.322984e+003;2.593940e-002
1.324912e+003;2.552659e-002
1.326841e+003;2.531138e-002
1.328770e+003;2.514233e-002
1.330698e+003;2.502326e-002
1.332627e+003;2.500466e-002
1.334555e+003;2.525427e-002
1.336484e+003;2.554490e-002
1.338412e+003;2.594303e-002
1.340341e+003;2.694942e-002
1.342269e+003;2.833543e-002
1.344198e+003;2.941496e-002
1.346126e+003;3.017478e-002
1.348055e+003;3.094649e-002
1.349984e+003;3.182438e-002
1.351912e+003;3.215490e-002
1.353841e+003;3.198100e-002
1.355769e+003;3.177465e-002
1.357698e+003;3.154153e-002
1.359626e+003;3.152275e-002
1.361555e+003;3.209989e-002
1.363483e+003;3.361529e-002
1.365412e+003;3.559668e-002
1.367341e+003;3.639600e-002
1.369269e+003;3.639913e-002
1.371198e+003;3.565293e-002
1.373126e+003;3.363692e-002
1.375055e+003;3.219986e-002
1.376983e+003;3.186535e-002
1.378912e+003;3.098314e-002
1.380840e+003;2.983986e-002
1.382769e+003;2.897390e-002
1.384698e+003;2.829200e-002
1.386626e+003;2.717719e-002
1.388555e+003;2.690849e-002
1.390483e+003;2.733384e-002
1.392412e+003;2.674516e-002
1.394340e+003;2.553099e-002
1.396269e+003;2.567976e-002
1.398197e+003;2.628963e-002
1.400126e+003;2.730395e-002
1.402054e+003;2.808764e-002
1.403983e+003;2.776038e-002
1.405911e+003;2.798653e-002
1.407840e+003;2.882612e-002
1.409769e+003;2.940348e-002
1.411697e+003;2.994621e-002
1.413626e+003;3.055268e-002
1.415554e+003;3.084709e-002
1.417483e+003;2.949620e-002
1.419411e+003;2.923503e-002
1.421340e+003;3.263754e-002
1.423268e+003;3.528771e-002
1.425197e+003;3.758591e-002
1.427125e+003;4.041119e-002
1.429054e+003;4.281165e-002
1.430983e+003;4.582789e-002
1.432911e+003;4.883422e-002
1.434840e+003;4.964456e-002
1.436768e+003;5.065664e-002
1.438697e+003;5.503437e-002
1.440625e+003;5.817632e-002
1.442554e+003;5.986793e-002
1.444482e+003;6.143358e-002
1.446411e+003;6.273544e-002
1.448340e+003;6.481145e-002
1.450268e+003;6.900512e-002
1.452197e+003;7.415637e-002
1.454125e+003;7.866044e-002
1.456054e+003;8.177301e-002
1.457982e+003;9.290585e-002
1.459911e+003;1.149034e-001
1.461839e+003;1.327327e-001
1.463768e+003;1.348922e-001
1.465697e+003;1.378325e-001
1.467625e+003;1.519604e-001
1.469554e+003;1.746116e-001
1.471482e+003;1.915468e-001
1.473411e+003;1.711873e-001
1.475339e+003;1.227941e-001
1.477268e+003;8.493343e-002
1.479196e+003;6.617249e-002
1.481125e+003;5.661001e-002
1.483053e+003;5.087265e-002
1.484982e+003;4.599233e-002
1.486911e+003;4.171888e-002
1.488839e+003;3.862776e-002
1.490768e+003;3.732499e-002
1.492696e+003;3.709721e-002
1.494625e+003;3.439619e-002
1.496553e+003;3.143974e-002
1.498482e+003;3.154723e-002
1.500410e+003;3.209568e-002
1.502339e+003;3.175116e-002
1.504267e+003;2.735776e-002
1.506196e+003;2.211456e-002
1.508125e+003;2.379698e-002
1.510053e+003;2.726750e-002
1.511982e+003;2.820671e-002
1.513910e+003;2.798614e-002
1.515839e+003;2.671669e-002
1.517767e+003;2.623091e-002
1.519696e+003;2.421816e-002
1.521624e+003;2.262664e-002
1.523553e+003;2.493177e-002
1.525481e+003;2.611175e-002
1.527410e+003;2.693546e-002
1.529339e+003;2.791137e-002
1.531267e+003;2.764916e-002
1.533196e+003;2.646250e-002
1.535124e+003;2.744200e-002
1.537053e+003;2.570208e-002
1.538981e+003;2.023804e-002
1.540910e+003;1.982277e-002
1.542838e+003;2.297626e-002
1.544767e+003;2.514756e-002
1.546695e+003;2.697015e-002
1.548624e+003;2.745746e-002
1.550553e+003;2.727191e-002
1.552481e+003;2.623236e-002
1.554410e+003;2.438405e-002
1.556338e+003;2.118344e-002
1.558267e+003;1.559566e-002
1.560195e+003;1.772556e-002
1.562124e+003;2.434844e-002
1.564052e+003;2.609233e-002
1.565981e+003;2.553531e-002
1.567910e+003;2.396953e-002
1.569838e+003;2.321304e-002
1.571767e+003;2.518517e-002
1.573695e+003;2.441100e-002
1.575624e+003;2.083474e-002
1.577552e+003;2.285334e-002
1.579481e+003;2.647725e-002
1.581409e+003;2.724524e-002
1.583338e+003;2.728987e-002
1.585266e+003;2.713652e-002
1.587195e+003;2.700315e-002
1.589124e+003;2.687352e-002
1.591052e+003;2.675436e-002
1.592981e+003;2.649071e-002
1.594909e+003;2.658151e-002
1.596838e+003;2.675013e-002
1.598766e+003;2.679267e-002
1.600695e+003;2.658214e-002
1.602623e+003;2.669935e-002
1.604552e+003;2.694346e-002
1.606480e+003;2.678918e-002
1.608409e+003;2.654917e-002
1.610338e+003;2.683856e-002
1.612266e+003;2.721106e-002
1.614195e+003;2.572901e-002
1.616123e+003;2.244478e-002
1.618052e+003;2.378819e-002
1.619980e+003;2.660867e-002
1.621909e+003;2.627083e-002
1.623837e+003;2.581972e-002
1.625766e+003;2.673519e-002
1.627694e+003;2.731722e-002
1.629623e+003;2.831962e-002
1.631552e+003;2.872225e-002
1.633480e+003;2.631860e-002
1.635409e+003;2.381427e-002
1.637337e+003;2.631036e-002
1.639266e+003;2.944315e-002
1.641194e+003;3.057863e-002
1.643123e+003;3.020919e-002
1.645051e+003;2.758924e-002
1.646980e+003;2.680469e-002
1.648909e+003;2.902952e-002
1.650837e+003;2.538824e-002
1.652766e+003;1.909739e-002
1.654694e+003;2.371221e-002
1.656623e+003;2.977744e-002
1.658551e+003;3.106360e-002
1.660480e+003;3.011355e-002
1.662408e+003;2.861316e-002
1.664337e+003;2.921763e-002
1.666266e+003;2.950737e-002
1.668194e+003;2.723804e-002
1.670123e+003;2.626896e-002
1.672051e+003;2.730465e-002
1.673980e+003;2.643334e-002
1.675908e+003;2.656175e-002
1.677837e+003;2.886412e-002
1.679765e+003;2.872189e-002
1.681694e+003;2.594616e-002
1.683622e+003;2.112287e-002
1.685551e+003;2.239255e-002
1.687479e+003;2.665676e-002
1.689408e+003;2.766792e-002
1.691337e+003;2.774476e-002
1.693265e+003;2.578590e-002
1.695194e+003;2.158037e-002
1.697122e+003;2.160241e-002
1.699051e+003;2.008733e-002
1.700979e+003;1.970816e-002
1.702908e+003;2.361526e-002
1.704836e+003;2.376852e-002
1.706765e+003;2.379701e-002
1.708693e+003;2.432640e-002
1.710622e+003;2.442467e-002
1.712551e+003;2.312255e-002
1.714479e+003;2.033459e-002
1.716408e+003;1.677049e-002
1.718336e+003;1.694279e-002
1.720265e+003;2.014838e-002
1.722193e+003;2.097885e-002
1.724122e+003;2.057483e-002
1.726050e+003;2.041519e-002
1.727979e+003;1.994185e-002
1.729908e+003;1.927761e-002
1.731836e+003;1.649022e-002
1.733765e+003;1.324060e-002
1.735693e+003;1.618601e-002
1.737622e+003;1.923785e-002
1.739550e+003;1.875458e-002
1.741479e+003;1.890185e-002
1.743407e+003;1.901662e-002
1.745336e+003;1.880077e-002
1.747265e+003;1.777188e-002
1.749193e+003;1.599460e-002
1.751122e+003;1.481157e-002
1.753050e+003;1.571458e-002
1.754979e+003;1.511869e-002
1.756907e+003;1.398198e-002
1.758836e+003;1.390312e-002
1.760764e+003;1.280528e-002
1.762693e+003;1.252527e-002
1.764621e+003;1.303630e-002
1.766550e+003;1.185112e-002
1.768479e+003;1.107202e-002
1.770407e+003;1.011332e-002
1.772336e+003;8.776494e-003
1.774264e+003;1.029931e-002
1.776193e+003;1.169710e-002
1.778121e+003;1.156338e-002
1.780050e+003;1.129325e-002
1.781978e+003;1.133529e-002
1.783907e+003;1.106550e-002
1.785835e+003;1.095111e-002
1.787764e+003;1.106580e-002
1.789693e+003;1.019068e-002
1.791621e+003;8.640192e-003
1.793550e+003;8.996453e-003
1.795478e+003;1.050327e-002
1.797407e+003;1.066852e-002
1.799335e+003;1.024849e-002
1.801264e+003;1.015307e-002
1.803192e+003;1.071436e-002
1.805121e+003;1.105112e-002
1.807049e+003;1.107858e-002
1.808978e+003;1.079601e-002
1.810907e+003;1.065334e-002
1.812835e+003;1.070974e-002
1.814764e+003;1.089450e-002
1.816692e+003;1.096171e-002
1.818621e+003;1.112322e-002
1.820549e+003;1.116622e-002
1.822478e+003;1.075940e-002
1.824406e+003;9.767492e-003
1.826335e+003;9.581590e-003
1.828264e+003;9.143188e-003
1.830192e+003;8.947135e-003
1.832121e+003;9.810532e-003
1.834049e+003;1.016796e-002
1.835978e+003;9.929879e-003
1.837906e+003;9.782539e-003
1.839835e+003;9.763460e-003
1.841763e+003;8.776494e-003
1.843692e+003;7.283256e-003
1.845620e+003;8.089064e-003
1.847549e+003;9.312348e-003
1.849478e+003;9.731946e-003
1.851406e+003;9.972561e-003
1.853335e+003;1.003607e-002
1.855263e+003;9.871066e-003
1.857192e+003;9.592430e-003
1.859120e+003;9.616549e-003
1.861049e+003;9.796162e-003
1.862977e+003;9.908658e-003
1.864906e+003;9.906556e-003
1.866834e+003;9.259440e-003
1.868763e+003;8.733151e-003
1.870692e+003;9.609638e-003
1.872620e+003;1.034648e-002
1.874549e+003;1.053600e-002
1.876477e+003;1.084843e-002
1.878406e+003;1.106186e-002
1.880334e+003;1.117112e-002
1.882263e+003;1.135392e-002
1.884191e+003;1.184012e-002
1.886120e+003;1.277467e-002
1.888048e+003;1.342780e-002
1.889977e+003;1.364544e-002
1.891906e+003;1.444948e-002
1.893834e+003;1.501657e-002
1.895763e+003;1.498601e-002
1.897691e+003;1.486376e-002
1.899620e+003;1.509183e-002
1.901548e+003;1.521377e-002
1.903477e+003;1.501489e-002
1.905405e+003;1.476985e-002
1.907334e+003;1.412867e-002
1.909262e+003;1.361406e-002
1.911191e+003;1.354309e-002
1.913120e+003;1.327879e-002
1.915048e+003;1.255603e-002
1.916977e+003;1.184295e-002
1.918905e+003;1.210630e-002
1.920834e+003;1.246395e-002
1.922762e+003;1.220665e-002
1.924691e+003;1.222342e-002
1.926619e+003;1.221398e-002
1.928548e+003;1.230852e-002
1.930477e+003;1.234633e-002
1.932405e+003;1.238352e-002
1.934334e+003;1.245246e-002
1.936262e+003;1.217152e-002
1.938191e+003;1.202556e-002
1.940119e+003;1.172872e-002
1.942048e+003;1.139450e-002
1.943976e+003;1.149329e-002
1.945905e+003;1.166259e-002
1.947833e+003;1.162879e-002
1.949762e+003;1.160858e-002
1.951691e+003;1.184690e-002
1.953619e+003;1.213996e-002
1.955548e+003;1.219319e-002
1.957476e+003;1.198993e-002
1.959405e+003;1.197086e-002
1.961333e+003;1.210579e-002
1.963262e+003;1.224414e-002
1.965190e+003;1.202696e-002
1.967119e+003;1.150680e-002
1.969047e+003;1.153109e-002
1.970976e+003;1.159023e-002
1.972905e+003;1.141318e-002
1.974833e+003;1.163012e-002
1.976762e+003;1.176900e-002
1.978690e+003;1.153538e-002
1.980619e+003;1.127380e-002
1.982547e+003;1.115636e-002
1.984476e+003;1.145964e-002
1.986404e+003;1.147887e-002
1.988333e+003;1.153504e-002
1.990261e+003;1.157407e-002
1.992190e+003;1.149642e-002
1.994119e+003;1.179954e-002
1.996047e+003;1.201146e-002
1.997976e+003;1.197801e-002
1.999904e+003;1.224745e-002
2.001833e+003;1.252162e-002
2.003761e+003;1.274457e-002
2.005690e+003;1.311023e-002
2.007618e+003;1.355286e-002
2.009547e+003;1.428896e-002
2.011476e+003;1.522743e-002
2.013404e+003;1.608684e-002
2.015333e+003;1.666306e-002
2.017261e+003;1.696260e-002
2.019190e+003;1.705270e-002
2.021118e+003;1.719805e-002
2.023047e+003;1.728727e-002
2.024975e+003;1.686686e-002
2.026904e+003;1.616228e-002
2.028833e+003;1.569479e-002
2.030761e+003;1.541988e-002
2.032690e+003;1.511780e-002
2.034618e+003;1.493621e-002
2.036547e+003;1.482309e-002
2.038475e+003;1.437646e-002
2.040404e+003;1.384086e-002
2.042332e+003;1.368695e-002
2.044261e+003;1.350193e-002
2.046189e+003;1.330937e-002
2.048118e+003;1.339684e-002
2.050047e+003;1.346765e-002
2.051975e+003;1.333591e-002
2.053904e+003;1.325734e-002
2.055832e+003;1.324548e-002
2.057761e+003;1.316962e-002
2.059689e+003;1.304303e-002
2.061618e+003;1.286951e-002
2.063546e+003;1.285510e-002
2.065475e+003;1.290193e-002
2.067404e+003;1.291204e-002
2.069332e+003;1.258396e-002
2.071260e+003;1.253713e-002
2.073189e+003;1.273761e-002
2.075118e+003;1.275798e-002
2.077046e+003;1.265839e-002
2.078975e+003;1.256063e-002
2.080903e+003;1.249522e-002
2.082832e+003;1.228443e-002
2.084760e+003;1.217629e-002
2.086689e+003;1.216998e-002
2.088617e+003;1.202342e-002
2.090546e+003;1.216760e-002
2.092475e+003;1.251483e-002
2.094403e+003;1.236566e-002
2.096332e+003;1.208876e-002
2.098260e+003;1.210191e-002
2.100189e+003;1.225828e-002
2.102117e+003;1.234224e-002
2.104046e+003;1.239225e-002
2.105974e+003;1.261981e-002
2.107903e+003;1.252714e-002
2.109832e+003;1.206549e-002
2.111760e+003;1.187574e-002
2.113688e+003;1.187240e-002
2.115617e+003;1.172301e-002
2.117546e+003;1.165384e-002
2.119474e+003;1.190560e-002
2.121403e+003;1.193513e-002
2.123331e+003;1.210811e-002
2.125260e+003;1.222649e-002
2.127188e+003;1.209782e-002
2.129117e+003;1.204559e-002
2.131045e+003;1.208232e-002
2.132974e+003;1.236361e-002
2.134903e+003;1.284012e-002
2.136831e+003;1.316152e-002
2.138760e+003;1.335454e-002
2.140688e+003;1.337124e-002
2.142617e+003;1.353433e-002
2.144545e+003;1.381175e-002
2.146474e+003;1.390740e-002
2.148402e+003;1.402685e-002
2.150331e+003;1.396337e-002
2.152260e+003;1.384188e-002
2.154188e+003;1.376999e-002
2.156117e+003;1.351605e-002
2.158045e+003;1.341362e-002
2.159974e+003;1.362226e-002
2.161902e+003;1.348600e-002
2.163831e+003;1.313898e-002
2.165759e+003;1.320658e-002
2.167688e+003;1.359412e-002
2.169616e+003;1.373346e-002
2.171545e+003;1.354626e-002
2.173474e+003;1.367560e-002
2.175402e+003;1.367109e-002
2.177331e+003;1.342353e-002
2.179259e+003;1.343484e-002
2.181188e+003;1.363655e-002
2.183116e+003;1.367088e-002
2.185045e+003;1.358708e-002
2.186973e+003;1.350808e-002
2.188902e+003;1.349014e-002
2.190831e+003;1.338860e-002
2.192759e+003;1.320203e-002
2.194688e+003;1.332071e-002
2.196616e+003;1.344065e-002
2.198545e+003;1.331036e-002
2.200473e+003;1.327920e-002
2.202402e+003;1.354196e-002
2.204330e+003;1.390189e-002
2.206259e+003;1.390401e-002
2.208188e+003;1.384647e-002
2.210116e+003;1.367167e-002
2.212044e+003;1.376085e-002
2.213973e+003;1.409324e-002
2.215902e+003;1.419902e-002
2.217830e+003;1.422832e-002
2.219759e+003;1.410724e-002
2.221687e+003;1.412552e-002
2.223616e+003;1.436975e-002
2.225544e+003;1.440454e-002
2.227473e+003;1.434331e-002
2.229401e+003;1.420740e-002
2.231330e+003;1.389241e-002
2.233259e+003;1.347783e-002
2.235187e+003;1.332556e-002
2.237116e+003;1.354455e-002
2.239044e+003;1.391109e-002
2.240973e+003;1.443753e-002
2.242901e+003;1.478154e-002
2.244830e+003;1.482930e-002
2.246758e+003;1.479512e-002
2.248687e+003;1.467878e-002
2.250615e+003;1.471703e-002
2.252544e+003;1.507776e-002
2.254473e+003;1.556036e-002
2.256401e+003;1.571255e-002
2.258330e+003;1.571973e-002
2.260258e+003;1.566381e-002
2.262187e+003;1.567933e-002
2.264115e+003;1.593289e-002
2.266044e+003;1.612618e-002
2.267972e+003;1.625615e-002
2.269901e+003;1.665249e-002
2.271830e+003;1.687833e-002
2.273758e+003;1.709771e-002
2.275687e+003;1.748464e-002
2.277615e+003;1.800767e-002
2.279544e+003;1.832763e-002
2.281472e+003;1.831080e-002
2.283401e+003;1.829715e-002
2.285329e+003;1.829559e-002
2.287258e+003;1.804528e-002
2.289187e+003;1.819583e-002
2.291115e+003;1.841536e-002
2.293043e+003;1.823062e-002
2.294972e+003;1.836551e-002
2.296901e+003;1.879060e-002
2.298829e+003;1.907350e-002
2.300758e+003;1.911003e-002
2.302686e+003;1.907544e-002
2.304615e+003;1.916716e-002
2.306543e+003;1.924758e-002
2.308472e+003;1.924709e-002
2.310400e+003;1.956579e-002
2.312329e+003;2.016688e-002
2.314258e+003;2.047642e-002
2.316186e+003;2.060912e-002
2.318115e+003;2.103585e-002
2.320043e+003;2.136164e-002
2.321972e+003;2.153688e-002
2.323900e+003;2.188291e-002
2.325829e+003;2.187639e-002
2.327757e+003;2.188716e-002
2.329686e+003;2.187876e-002
2.331615e+003;2.184447e-002
2.333543e+003;2.175681e-002
2.335472e+003;2.170422e-002
2.337400e+003;2.190113e-002
2.339329e+003;2.215905e-002
2.341257e+003;2.225843e-002
2.343186e+003;2.255610e-002
2.345114e+003;2.290105e-002
2.347043e+003;2.269793e-002
2.348971e+003;2.231483e-002
2.350900e+003;2.181684e-002
2.352829e+003;2.090410e-002
2.354757e+003;1.980384e-002
2.356686e+003;1.886973e-002
2.358614e+003;1.818536e-002
2.360543e+003;1.751493e-002
2.362471e+003;1.706897e-002
2.364400e+003;1.690379e-002
2.366328e+003;1.684878e-002
2.368257e+003;1.692122e-002
2.370186e+003;1.699857e-002
2.372114e+003;1.715286e-002
2.374042e+003;1.718099e-002
2.375971e+003;1.699412e-002
2.377900e+003;1.696701e-002
2.379828e+003;1.719581e-002
2.381757e+003;1.733227e-002
2.383685e+003;1.731317e-002
2.385614e+003;1.723266e-002
2.387542e+003;1.733296e-002
2.389471e+003;1.750089e-002
2.391399e+003;1.775138e-002
2.393328e+003;1.790296e-002
2.395257e+003;1.789450e-002
2.397185e+003;1.798487e-002
2.399114e+003;1.815865e-002
2.401042e+003;1.830195e-002
2.402971e+003;1.837498e-002
2.404899e+003;1.845349e-002
2.406828e+003;1.841193e-002
2.408756e+003;1.855670e-002
2.410685e+003;1.878710e-002
2.412614e+003;1.900980e-002
2.414542e+003;1.923282e-002
2.416471e+003;1.958184e-002
2.418399e+003;1.950420e-002
2.420328e+003;1.930314e-002
2.422256e+003;1.922389e-002
2.424185e+003;1.886720e-002
2.426113e+003;1.854114e-002
2.428042e+003;1.852824e-002
2.429970e+003;1.818978e-002
2.431899e+003;1.816425e-002
2.433828e+003;1.858744e-002
2.435756e+003;1.840941e-002
2.437685e+003;1.794502e-002
2.439613e+003;1.765774e-002
2.441542e+003;1.775869e-002
2.443470e+003;1.790106e-002
2.445399e+003;1.782687e-002
2.447327e+003;1.779100e-002
2.449256e+003;1.778965e-002
2.451185e+003;1.782124e-002
2.453113e+003;1.775148e-002
2.455042e+003;1.773964e-002
2.456970e+003;1.780978e-002
2.458899e+003;1.782614e-002
2.460827e+003;1.817396e-002
2.462756e+003;1.828982e-002
2.464684e+003;1.830468e-002
2.466613e+003;1.847192e-002
2.468542e+003;1.868944e-002
2.470470e+003;1.938632e-002
2.472398e+003;1.994667e-002
2.474327e+003;2.018597e-002
2.476256e+003;2.053477e-002
2.478184e+003;2.055423e-002
2.480113e+003;2.018649e-002
2.482041e+003;1.970449e-002
2.483970e+003;1.971988e-002
2.485898e+003;2.009861e-002
2.487827e+003;2.000364e-002
2.489755e+003;2.006200e-002
2.491684e+003;2.038240e-002
2.493613e+003;2.054763e-002
2.495541e+003;2.044026e-002
2.497470e+003;2.043453e-002
2.499398e+003;2.045520e-002
2.501327e+003;2.031452e-002
2.503255e+003;2.027473e-002
2.505184e+003;2.037667e-002
2.507112e+003;2.044530e-002
2.509041e+003;2.068550e-002
2.510969e+003;2.107985e-002
2.512898e+003;2.126660e-002
2.514827e+003;2.145792e-002
2.516755e+003;2.177019e-002
2.518684e+003;2.193103e-002
2.520612e+003;2.212111e-002
2.522541e+003;2.266378e-002
2.524469e+003;2.296728e-002
2.526398e+003;2.304917e-002
2.528326e+003;2.324432e-002
2.530255e+003;2.369906e-002
2.532184e+003;2.351622e-002
2.534112e+003;2.300302e-002
2.536041e+003;2.275456e-002
2.537969e+003;2.255481e-002
2.539898e+003;2.259128e-002
2.541826e+003;2.278253e-002
2.543755e+003;2.301577e-002
2.545683e+003;2.359812e-002
2.547612e+003;2.406628e-002
2.549541e+003;2.426431e-002
2.551469e+003;2.450347e-002
2.553397e+003;2.477581e-002
2.555326e+003;2.473158e-002
2.557255e+003;2.444619e-002
2.559183e+003;2.456111e-002
2.561112e+003;2.484769e-002
2.563040e+003;2.489359e-002
2.564969e+003;2.513619e-002
2.566897e+003;2.527422e-002
2.568826e+003;2.563593e-002
2.570754e+003;2.613983e-002
2.572683e+003;2.617999e-002
2.574612e+003;2.620462e-002
2.576540e+003;2.656499e-002
2.578469e+003;2.702068e-002
2.580397e+003;2.749820e-002
2.582326e+003;2.774339e-002
2.584254e+003;2.809910e-002
2.586183e+003;2.837243e-002
2.588111e+003;2.866112e-002
2.590040e+003;2.892035e-002
2.591969e+003;2.922425e-002
2.593897e+003;2.979181e-002
2.595826e+003;3.056210e-002
2.597754e+003;3.141467e-002
2.599683e+003;3.189933e-002
2.601611e+003;3.202615e-002
2.603540e+003;3.201606e-002
2.605468e+003;3.249479e-002
2.607397e+003;3.324989e-002
2.609325e+003;3.391960e-002
2.611254e+003;3.434430e-002
2.613183e+003;3.468368e-002
2.615111e+003;3.518731e-002
2.617040e+003;3.581914e-002
2.618968e+003;3.675252e-002
2.620897e+003;3.776710e-002
2.622825e+003;3.852876e-002
2.624754e+003;3.911913e-002
2.626682e+003;3.971800e-002
2.628611e+003;4.021141e-002
2.630540e+003;4.053910e-002
2.632468e+003;4.103529e-002
2.634396e+003;4.139456e-002
2.636325e+003;4.126092e-002
2.638254e+003;4.095431e-002
2.640182e+003;4.079301e-002
2.642111e+003;4.043799e-002
2.644039e+003;3.994444e-002
2.645968e+003;3.985250e-002
2.647896e+003;3.987168e-002
2.649825e+003;3.978499e-002
2.651753e+003;3.968743e-002
2.653682e+003;4.000979e-002
2.655611e+003;4.036551e-002
2.657539e+003;4.017829e-002
2.659468e+003;3.999886e-002
2.661396e+003;4.011855e-002
2.663325e+003;4.019872e-002
2.665253e+003;4.000627e-002
2.667182e+003;3.967483e-002
2.669110e+003;3.916982e-002
2.671039e+003;3.871139e-002
2.672968e+003;3.843050e-002
2.674896e+003;3.832868e-002
2.676825e+003;3.800033e-002
2.678753e+003;3.747154e-002
2.680682e+003;3.728769e-002
2.682610e+003;3.716008e-002
2.684539e+003;3.718023e-002
2.686467e+003;3.726838e-002
2.688396e+003;3.708620e-002
2.690324e+003;3.684156e-002
2.692253e+003;3.684773e-002
2.694182e+003;3.701302e-002
2.696110e+003;3.718405e-002
2.698039e+003;3.754809e-002
2.699967e+003;3.800818e-002
2.701896e+003;3.834171e-002
2.703824e+003;3.863982e-002
2.705753e+003;3.870694e-002
2.707681e+003;3.903038e-002
2.709610e+003;3.943729e-002
2.711539e+003;3.959109e-002
2.713467e+003;4.004220e-002
2.715396e+003;4.067873e-002
2.717324e+003;4.107641e-002
2.719253e+003;4.119440e-002
2.721181e+003;4.149651e-002
2.723110e+003;4.185930e-002
2.725038e+003;4.219970e-002
2.726967e+003;4.258361e-002
2.728896e+003;4.306019e-002
2.730824e+003;4.370322e-002
2.732752e+003;4.409646e-002
2.734681e+003;4.453954e-002
2.736610e+003;4.477280e-002
2.738538e+003;4.485997e-002
2.740467e+003;4.542642e-002
2.742395e+003;4.589793e-002
2.744324e+003;4.589045e-002
2.746252e+003;4.587178e-002
2.748181e+003;4.594463e-002
2.750109e+003;4.606317e-002
2.752038e+003;4.623960e-002
2.753967e+003;4.660600e-002
2.755895e+003;4.695517e-002
2.757824e+003;4.739282e-002
2.759752e+003;4.778194e-002
2.761681e+003;4.824638e-002
2.763609e+003;4.906794e-002
2.765538e+003;5.032647e-002
2.767466e+003;5.125144e-002
2.769395e+003;5.185960e-002
2.771323e+003;5.251640e-002
2.773252e+003;5.331851e-002
2.775181e+003;5.454499e-002
2.777109e+003;5.570936e-002
2.779038e+003;5.669786e-002
2.780966e+003;5.762638e-002
2.782895e+003;5.857072e-002
2.784823e+003;5.948991e-002
2.786752e+003;6.043608e-002
2.788680e+003;6.139335e-002
2.790609e+003;6.260308e-002
2.792538e+003;6.376622e-002
2.794466e+003;6.487781e-002
2.796395e+003;6.586810e-002
2.798323e+003;6.668574e-002
2.800252e+003;6.774674e-002
2.802180e+003;6.924845e-002
2.804109e+003;7.061709e-002
2.806037e+003;7.215917e-002
2.807966e+003;7.367254e-002
2.809895e+003;7.459487e-002
2.811823e+003;7.620178e-002
2.813751e+003;7.805417e-002
2.815680e+003;7.950433e-002
2.817609e+003;8.143171e-002
2.819537e+003;8.395011e-002
2.821466e+003;8.660335e-002
2.823394e+003;8.921894e-002
2.825323e+003;9.240216e-002
2.827251e+003;9.605058e-002
2.829180e+003;1.000986e-001
2.831108e+003;1.054981e-001
2.833037e+003;1.120825e-001
2.834966e+003;1.199641e-001
2.836894e+003;1.301962e-001
2.838823e+003;1.437615e-001
2.840751e+003;1.623926e-001
2.842680e+003;1.883891e-001
2.844608e+003;2.220768e-001
2.846537e+003;2.594524e-001
2.848465e+003;2.844831e-001
2.850394e+003;2.746092e-001
2.852323e+003;2.354852e-001
2.854251e+003;1.926123e-001
2.856180e+003;1.586706e-001
2.858108e+003;1.348042e-001
2.860037e+003;1.195270e-001
2.861965e+003;1.099955e-001
2.863894e+003;1.041459e-001
2.865822e+003;1.012988e-001
2.867751e+003;1.007324e-001
2.869679e+003;1.014431e-001
2.871608e+003;1.033252e-001
2.873536e+003;1.067295e-001
2.875465e+003;1.111667e-001
2.877394e+003;1.167101e-001
2.879322e+003;1.229309e-001
2.881251e+003;1.285336e-001
2.883179e+003;1.337909e-001
2.885108e+003;1.397076e-001
2.887036e+003;1.454357e-001
2.888965e+003;1.511914e-001
2.890893e+003;1.574974e-001
2.892822e+003;1.638584e-001
2.894750e+003;1.700257e-001
2.896679e+003;1.762147e-001
2.898608e+003;1.828076e-001
2.900536e+003;1.900014e-001
2.902465e+003;1.989146e-001
2.904393e+003;2.094886e-001
2.906322e+003;2.228444e-001
2.908250e+003;2.404112e-001
2.910179e+003;2.626232e-001
2.912107e+003;2.881114e-001
2.914036e+003;3.107344e-001
2.915965e+003;3.205448e-001
2.917893e+003;3.105194e-001
2.919822e+003;2.844604e-001
2.921750e+003;2.528389e-001
2.923679e+003;2.216222e-001
2.925607e+003;1.937635e-001
2.927536e+003;1.702260e-001
2.929464e+003;1.504323e-001
2.931393e+003;1.344285e-001
2.933322e+003;1.212946e-001
2.935250e+003;1.097202e-001
2.937178e+003;1.002686e-001
2.939107e+003;9.274128e-002
2.941036e+003;8.590181e-002
2.942964e+003;8.013786e-002
2.944893e+003;7.561166e-002
2.946821e+003;7.218616e-002
2.948750e+003;6.920772e-002
2.950678e+003;6.656236e-002
2.952607e+003;6.417709e-002
2.954535e+003;6.223131e-002
2.956464e+003;6.084088e-002
2.958393e+003;5.957584e-002
2.960321e+003;5.866773e-002
2.962250e+003;5.783963e-002
2.964178e+003;5.655487e-002
2.966107e+003;5.545912e-002
2.968035e+003;5.498412e-002
2.969964e+003;5.442239e-002
2.971892e+003;5.330293e-002
2.973821e+003;5.245261e-002
2.975750e+003;5.176388e-002
2.977678e+003;5.061375e-002
2.979607e+003;4.954145e-002
2.981535e+003;4.883804e-002
2.983464e+003;4.820651e-002
2.985392e+003;4.766086e-002
2.987321e+003;4.675276e-002
2.989249e+003;4.561658e-002
2.991178e+003;4.460184e-002
2.993106e+003;4.397138e-002
2.995035e+003;4.376149e-002
2.996964e+003;4.317509e-002
2.998892e+003;4.260302e-002
3.000821e+003;4.186261e-002
3.002749e+003;4.102007e-002
3.004678e+003;4.059152e-002
3.006606e+003;4.025114e-002
3.008535e+003;4.025579e-002
3.010463e+003;4.047261e-002
3.012392e+003;3.993455e-002
3.014321e+003;3.906431e-002
3.016249e+003;3.868618e-002
3.018177e+003;3.838529e-002
3.020106e+003;3.820217e-002
3.022035e+003;3.813170e-002
3.023963e+003;3.755777e-002
3.025892e+003;3.707181e-002
3.027820e+003;3.688109e-002
3.029749e+003;3.645574e-002
3.031677e+003;3.594704e-002
3.033606e+003;3.569840e-002
3.035534e+003;3.575487e-002
3.037463e+003;3.587851e-002
3.039392e+003;3.558139e-002
3.041320e+003;3.503722e-002
3.043249e+003;3.481871e-002
3.045177e+003;3.455095e-002
3.047106e+003;3.372833e-002
3.049034e+003;3.322439e-002
3.050963e+003;3.349752e-002
3.052891e+003;3.369736e-002
3.054820e+003;3.316401e-002
3.056749e+003;3.240845e-002
3.058677e+003;3.228094e-002
3.060606e+003;3.251500e-002
3.062534e+003;3.245411e-002
3.064463e+003;3.207563e-002
3.066391e+003;3.152913e-002
3.068320e+003;3.102559e-002
3.070248e+003;3.087234e-002
3.072177e+003;3.057603e-002
3.074105e+003;3.029662e-002
3.076034e+003;3.041587e-002
3.077963e+003;3.063373e-002
3.079891e+003;3.028866e-002
3.081820e+003;2.958235e-002
3.083748e+003;2.919725e-002
3.085677e+003;2.914448e-002
3.087605e+003;2.927866e-002
3.089534e+003;2.914161e-002
3.091462e+003;2.854012e-002
3.093391e+003;2.835442e-002
3.095320e+003;2.778627e-002
3.097248e+003;2.710503e-002
3.099177e+003;2.664862e-002
3.101105e+003;2.636972e-002
3.103034e+003;2.602717e-002
3.104962e+003;2.528146e-002
3.106891e+003;2.476904e-002
3.108819e+003;2.463313e-002
3.110748e+003;2.414964e-002
3.112677e+003;2.308150e-002
3.114605e+003;2.219353e-002
3.116533e+003;2.194501e-002
3.118462e+003;2.168307e-002
3.120391e+003;2.131351e-002
3.122319e+003;2.136077e-002
3.124248e+003;2.123351e-002
3.126176e+003;2.098383e-002
3.128105e+003;2.059703e-002
3.130033e+003;2.020437e-002
3.131962e+003;1.972682e-002
3.133890e+003;1.968271e-002
3.135819e+003;1.959206e-002
3.137748e+003;1.931221e-002
3.139676e+003;1.942945e-002
3.141605e+003;1.951699e-002
3.143533e+003;1.925194e-002
3.145462e+003;1.944324e-002
3.147390e+003;1.977151e-002
3.149319e+003;1.980429e-002
3.151247e+003;1.945246e-002
3.153176e+003;1.878409e-002
3.155104e+003;1.859100e-002
3.157033e+003;1.886897e-002
3.158962e+003;1.902572e-002
3.160890e+003;1.867429e-002
3.162819e+003;1.871618e-002
3.164747e+003;1.859249e-002
3.166676e+003;1.804673e-002
3.168604e+003;1.805277e-002
3.170533e+003;1.821331e-002
3.172461e+003;1.822278e-002
3.174390e+003;1.834380e-002
3.176319e+003;1.854463e-002
3.178247e+003;1.837896e-002
3.180176e+003;1.779721e-002
3.182104e+003;1.763938e-002
3.184033e+003;1.813243e-002
3.185961e+003;1.842193e-002
3.187890e+003;1.822527e-002
3.189818e+003;1.792479e-002
3.191747e+003;1.801236e-002
3.193676e+003;1.829072e-002
3.195604e+003;1.818667e-002
3.197532e+003;1.794340e-002
3.199461e+003;1.824351e-002
3.201390e+003;1.866516e-002
3.203318e+003;1.842593e-002
3.205247e+003;1.798781e-002
3.207175e+003;1.799717e-002
3.209104e+003;1.797828e-002
3.211032e+003;1.772728e-002
3.212961e+003;1.754495e-002
3.214889e+003;1.802248e-002
3.216818e+003;1.854311e-002
3.218747e+003;1.859190e-002
3.220675e+003;1.870445e-002
3.222604e+003;1.863296e-002
3.224532e+003;1.880817e-002
3.226461e+003;1.876153e-002
3.228389e+003;1.832486e-002
3.230318e+003;1.870379e-002
3.232246e+003;1.883464e-002
3.234175e+003;1.837025e-002
3.236104e+003;1.850780e-002
3.238032e+003;1.832998e-002
3.239961e+003;1.750162e-002
3.241889e+003;1.783443e-002
3.243818e+003;1.837719e-002
3.245746e+003;1.840723e-002
3.247675e+003;1.839880e-002
3.249603e+003;1.855777e-002
3.251532e+003;1.858129e-002
3.253460e+003;1.804110e-002
3.255389e+003;1.790755e-002
3.257318e+003;1.843703e-002
3.259246e+003;1.875593e-002
3.261175e+003;1.866761e-002
3.263103e+003;1.845542e-002
3.265032e+003;1.822119e-002
3.266960e+003;1.804369e-002
3.268889e+003;1.857935e-002
3.270817e+003;1.894054e-002
3.272746e+003;1.881845e-002
3.274675e+003;1.896207e-002
3.276603e+003;1.937918e-002
3.278531e+003;1.910227e-002
3.280460e+003;1.877056e-002
3.282389e+003;1.876790e-002
3.284317e+003;1.856327e-002
3.286246e+003;1.879132e-002
3.288174e+003;1.938230e-002
3.290103e+003;1.897262e-002
3.292031e+003;1.813820e-002
3.293960e+003;1.817230e-002
3.295888e+003;1.839952e-002
3.297817e+003;1.884329e-002
3.299746e+003;1.900942e-002
3.301674e+003;1.887627e-002
3.303603e+003;1.906509e-002
3.305531e+003;1.899568e-002
3.307460e+003;1.881436e-002
3.309388e+003;1.872514e-002
3.311317e+003;1.887454e-002
3.313245e+003;1.910449e-002
3.315174e+003;1.892399e-002
3.317103e+003;1.888344e-002
3.319031e+003;1.891313e-002
3.320960e+003;1.891251e-002
3.322888e+003;1.909486e-002
3.324817e+003;1.905242e-002
3.326745e+003;1.888814e-002
3.328674e+003;1.875496e-002
3.330602e+003;1.894268e-002
3.332531e+003;1.921270e-002
3.334459e+003;1.916173e-002
3.336388e+003;1.908247e-002
3.338317e+003;1.882108e-002
3.340245e+003;1.866820e-002
3.342174e+003;1.875762e-002
3.344102e+003;1.877125e-002
3.346031e+003;1.912498e-002
3.347959e+003;1.907450e-002
3.349888e+003;1.839268e-002
3.351816e+003;1.859951e-002
3.353745e+003;1.859159e-002
3.355674e+003;1.863534e-002
3.357602e+003;1.911242e-002
3.359531e+003;1.906990e-002
3.361459e+003;1.878862e-002
3.363388e+003;1.916841e-002
3.365316e+003;1.931821e-002
3.367245e+003;1.911166e-002
3.369173e+003;1.913949e-002
3.371102e+003;1.940981e-002
3.373031e+003;1.919715e-002
3.374959e+003;1.860909e-002
3.376887e+003;1.809747e-002
3.378816e+003;1.805668e-002
3.380745e+003;1.822409e-002
3.382673e+003;1.837536e-002
3.384602e+003;1.825851e-002
3.386530e+003;1.794333e-002
3.388459e+003;1.778092e-002
3.390387e+003;1.819669e-002
3.392316e+003;1.820654e-002
3.394244e+003;1.792941e-002
3.396173e+003;1.746916e-002
3.398102e+003;1.745415e-002
3.400030e+003;1.752946e-002
3.401959e+003;1.715734e-002
3.403887e+003;1.730465e-002
3.405816e+003;1.765705e-002
3.407744e+003;1.737034e-002
3.409673e+003;1.699154e-002
3.411601e+003;1.718778e-002
3.413530e+003;1.704560e-002
3.415458e+003;1.670613e-002
3.417387e+003;1.699709e-002
3.419316e+003;1.724531e-002
3.421244e+003;1.710195e-002
3.423173e+003;1.697011e-002
3.425101e+003;1.711732e-002
3.427030e+003;1.692980e-002
3.428958e+003;1.692150e-002
3.430887e+003;1.683824e-002
3.432815e+003;1.619004e-002
3.434744e+003;1.575309e-002
3.436673e+003;1.586687e-002
3.438601e+003;1.622319e-002
3.440530e+003;1.662377e-002
3.442458e+003;1.605538e-002
3.444387e+003;1.544120e-002
3.446315e+003;1.549906e-002
3.448244e+003;1.561005e-002
3.450172e+003;1.555592e-002
3.452101e+003;1.544831e-002
3.454030e+003;1.531491e-002
3.455958e+003;1.573344e-002
3.457886e+003;1.583127e-002
3.459815e+003;1.551262e-002
3.461744e+003;1.535672e-002
3.463672e+003;1.538603e-002
3.465601e+003;1.535301e-002
3.467529e+003;1.535991e-002
3.469458e+003;1.490991e-002
3.471386e+003;1.478442e-002
3.473315e+003;1.504871e-002
3.475243e+003;1.505433e-002
3.477172e+003;1.514339e-002
3.479101e+003;1.498639e-002
3.481029e+003;1.493148e-002
3.482958e+003;1.489170e-002
3.484886e+003;1.454239e-002
3.486815e+003;1.427838e-002
3.488743e+003;1.482861e-002
3.490672e+003;1.521367e-002
3.492600e+003;1.459266e-002
3.494529e+003;1.405594e-002
3.496458e+003;1.388174e-002
3.498386e+003;1.399115e-002
3.500315e+003;1.379294e-002
3.502243e+003;1.358428e-002
3.504172e+003;1.390001e-002
3.506100e+003;1.457813e-002
3.508029e+003;1.520389e-002
3.509957e+003;1.503386e-002
3.511886e+003;1.458197e-002
3.513814e+003;1.435800e-002
3.515743e+003;1.398920e-002
3.517672e+003;1.398068e-002
3.519600e+003;1.392371e-002
3.521529e+003;1.329392e-002
3.523457e+003;1.322246e-002
3.525386e+003;1.371092e-002
3.527314e+003;1.369321e-002
3.529243e+003;1.305952e-002
3.531171e+003;1.309616e-002
3.533100e+003;1.352466e-002
3.535029e+003;1.322434e-002
3.536957e+003;1.316692e-002
3.538885e+003;1.336649e-002
3.540814e+003;1.322089e-002
3.542743e+003;1.270639e-002
3.544671e+003;1.233740e-002
3.546600e+003;1.267337e-002
3.548528e+003;1.363450e-002
3.550457e+003;1.383764e-002
3.552385e+003;1.344348e-002
3.554314e+003;1.330841e-002
3.556242e+003;1.369006e-002
3.558171e+003;1.383891e-002
3.560100e+003;1.354866e-002
3.562028e+003;1.368658e-002
3.563957e+003;1.363628e-002
3.565885e+003;1.271363e-002
3.567814e+003;1.271991e-002
3.569742e+003;1.391383e-002
3.571671e+003;1.430769e-002
3.573599e+003;1.414431e-002
3.575528e+003;1.420360e-002
3.577457e+003;1.418820e-002
3.579385e+003;1.416153e-002
3.581314e+003;1.444373e-002
3.583242e+003;1.473742e-002
3.585171e+003;1.352408e-002
3.587099e+003;1.242859e-002
3.589028e+003;1.387568e-002
3.590956e+003;1.572630e-002
3.592885e+003;1.606095e-002
3.594813e+003;1.589498e-002
3.596742e+003;1.636740e-002
3.598671e+003;1.765754e-002
3.600599e+003;1.870438e-002
3.602528e+003;1.946272e-002
3.604456e+003;1.957886e-002
3.606385e+003;1.866907e-002
3.608313e+003;1.740911e-002
3.610242e+003;1.740069e-002
3.612170e+003;1.754809e-002
3.614099e+003;1.754088e-002
3.616028e+003;1.699791e-002
3.617956e+003;1.572959e-002
3.619885e+003;1.540807e-002
3.621813e+003;1.625346e-002
3.623742e+003;1.652969e-002
3.625670e+003;1.549902e-002
3.627599e+003;1.225372e-002
3.629527e+003;1.147972e-002
3.631456e+003;1.383200e-002
3.633385e+003;1.503063e-002
3.635313e+003;1.551729e-002
3.637241e+003;1.594661e-002
3.639170e+003;1.650299e-002
3.641099e+003;1.705205e-002
3.643027e+003;1.756347e-002
3.644956e+003;1.650268e-002
3.646884e+003;1.369861e-002
3.648813e+003;1.248564e-002
3.650741e+003;1.424250e-002
3.652670e+003;1.636365e-002
3.654598e+003;1.538988e-002
3.656527e+003;1.462275e-002
3.658456e+003;1.630833e-002
3.660384e+003;1.713180e-002
3.662313e+003;1.695795e-002
3.664241e+003;1.658560e-002
3.666170e+003;1.545600e-002
3.668098e+003;1.279951e-002
3.670027e+003;1.123782e-002
3.671955e+003;1.272564e-002
3.673884e+003;1.116054e-002
3.675813e+003;1.037535e-002
3.677741e+003;1.396878e-002
3.679669e+003;1.547382e-002
3.681598e+003;1.567604e-002
3.683527e+003;1.544937e-002
3.685455e+003;1.447117e-002
3.687384e+003;1.198234e-002
3.689312e+003;1.160493e-002
3.691241e+003;1.370320e-002
3.693169e+003;1.560562e-002
3.695098e+003;1.593729e-002
3.697026e+003;1.567854e-002
3.698955e+003;1.542167e-002
3.700884e+003;1.502117e-002
3.702812e+003;1.522012e-002
3.704741e+003;1.520999e-002
3.706669e+003;1.421559e-002
3.708598e+003;1.313482e-002
3.710526e+003;1.169959e-002
3.712455e+003;1.186042e-002
3.714383e+003;1.425469e-002
3.716312e+003;1.506469e-002
3.718240e+003;1.429221e-002
3.720169e+003;1.340507e-002
3.722098e+003;1.326109e-002
3.724026e+003;1.371581e-002
3.725955e+003;1.391930e-002
3.727883e+003;1.424537e-002
3.729812e+003;1.341054e-002
3.731740e+003;1.123153e-002
3.733669e+003;1.038981e-002
3.735597e+003;1.019360e-002
3.737526e+003;1.185786e-002
3.739455e+003;1.339961e-002
3.741383e+003;1.212150e-002
3.743312e+003;6.908264e-003
3.745240e+003;7.108148e-003
3.747169e+003;9.454144e-003
3.749097e+003;7.983012e-003
3.751026e+003;8.277840e-003
3.752954e+003;1.068451e-002
3.754883e+003;1.282279e-002
3.756812e+003;1.285603e-002
3.758740e+003;1.285159e-002
3.760668e+003;1.387281e-002
3.762597e+003;1.473030e-002
3.764526e+003;1.390213e-002
3.766454e+003;1.417351e-002
3.768383e+003;1.373657e-002
3.770311e+003;1.358106e-002
3.772240e+003;1.490641e-002
3.774168e+003;1.554617e-002
3.776097e+003;1.483280e-002
3.778025e+003;1.390989e-002
3.779954e+003;1.413028e-002
3.781883e+003;1.511132e-002
3.783811e+003;1.536798e-002
3.785740e+003;1.568435e-002
3.787668e+003;1.563214e-002
3.789597e+003;1.569950e-002
3.791525e+003;1.634607e-002
3.793454e+003;1.658033e-002
3.795382e+003;1.537999e-002
3.797311e+003;1.478703e-002
3.799240e+003;1.292736e-002
3.801168e+003;1.116588e-002
3.803097e+003;1.397114e-002
3.805025e+003;1.489331e-002
3.806954e+003;1.381558e-002
3.808882e+003;1.565546e-002
3.810811e+003;1.667335e-002
3.812739e+003;1.643471e-002
3.814668e+003;1.355984e-002
3.816596e+003;1.325512e-002
3.818525e+003;1.481318e-002
3.820454e+003;1.370138e-002
3.822382e+003;1.509783e-002
3.824311e+003;1.683672e-002
3.826239e+003;1.665789e-002
3.828168e+003;1.687378e-002
3.830096e+003;1.655035e-002
3.832025e+003;1.608117e-002
3.833953e+003;1.576887e-002
3.835882e+003;1.339171e-002
3.837811e+003;1.184826e-002
3.839739e+003;1.435783e-002
3.841667e+003;1.635877e-002
3.843596e+003;1.665675e-002
3.845525e+003;1.671491e-002
3.847453e+003;1.667762e-002
3.849382e+003;1.581542e-002
3.851310e+003;1.158826e-002
3.853239e+003;7.362378e-003
3.855167e+003;1.111271e-002
3.857096e+003;1.582233e-002
3.859024e+003;1.670289e-002
3.860953e+003;1.625284e-002
3.862882e+003;1.586766e-002
3.864810e+003;1.596988e-002
3.866739e+003;1.614653e-002
3.868667e+003;1.416728e-002
3.870596e+003;1.489445e-002
3.872524e+003;1.740559e-002
3.874453e+003;1.847032e-002
3.876381e+003;1.930033e-002
3.878310e+003;1.849404e-002
3.880239e+003;1.782849e-002
3.882167e+003;1.811032e-002
3.884096e+003;1.677421e-002
3.886024e+003;1.621721e-002
3.887953e+003;1.792095e-002
3.889881e+003;1.776929e-002
3.891810e+003;1.734351e-002
3.893738e+003;1.811277e-002
3.895667e+003;1.835476e-002
3.897595e+003;1.797990e-002
3.899524e+003;1.706687e-002
3.901453e+003;1.607477e-002
3.903381e+003;1.572331e-002
3.905310e+003;1.717737e-002
3.907238e+003;1.863590e-002
3.909167e+003;1.917028e-002
3.911095e+003;1.963570e-002
3.913024e+003;1.925852e-002
3.914952e+003;1.840668e-002
3.916881e+003;1.806428e-002
3.918810e+003;1.816487e-002
3.920738e+003;1.844052e-002
3.922667e+003;1.876738e-002
3.924595e+003;1.911103e-002
3.926524e+003;1.955847e-002
3.928452e+003;1.944345e-002
3.930381e+003;1.875752e-002
3.932309e+003;1.832514e-002
3.934238e+003;1.906800e-002
3.936167e+003;1.969367e-002
3.938095e+003;1.963799e-002
3.940023e+003;1.891347e-002
3.941952e+003;1.826504e-002
3.943881e+003;1.833765e-002
3.945809e+003;1.819631e-002
3.947738e+003;1.791567e-002
3.949666e+003;1.780332e-002
3.951595e+003;1.821887e-002
3.953523e+003;1.851576e-002
3.955452e+003;1.873316e-002
3.957380e+003;1.880599e-002
3.959309e+003;1.864440e-002
3.961238e+003;1.869788e-002
3.963166e+003;1.833319e-002
3.965095e+003;1.836406e-002
3.967023e+003;1.878350e-002
3.968952e+003;1.918867e-002
3.970880e+003;1.946691e-002
3.972809e+003;1.907911e-002
3.974737e+003;1.852492e-002
3.976666e+003;1.894324e-002
3.978594e+003;1.910532e-002
3.980523e+003;1.879087e-002
3.982452e+003;1.877631e-002
3.984380e+003;1.844972e-002
3.986309e+003;1.756893e-002
3.988237e+003;1.766934e-002
3.990166e+003;1.818785e-002
3.992094e+003;1.836275e-002
3.994023e+003;1.874475e-002
3.995951e+003;1.873538e-002
3.997880e+003;1.844450e-002
3.999809e+003;1.836862e-002
4.001737e+003;0.000000e+000
