3.992094e+002;0.000000e+000
4.011380e+002;0.000000e+000
4.030665e+002;0.000000e+000
4.049951e+002;0.000000e+000
4.069236e+002;0.000000e+000
4.088522e+002;0.000000e+000
4.107807e+002;0.000000e+000
4.127093e+002;0.000000e+000
4.146378e+002;0.000000e+000
4.165664e+002;0.000000e+000
4.184949e+002;0.000000e+000
4.204235e+002;0.000000e+000
4.223520e+002;0.000000e+000
4.242806e+002;0.000000e+000
4.262091e+002;0.000000e+000
4.281377e+002;0.000000e+000
4.300662e+002;0.000000e+000
4.319948e+002;0.000000e+000
4.339233e+002;0.000000e+000
4.358519e+002;0.000000e+000
4.377804e+002;0.000000e+000
4.397090e+002;0.000000e+000
4.416375e+002;0.000000e+000
4.435660e+002;0.000000e+000
4.454946e+002;0.000000e+000
4.474232e+002;0.000000e+000
4.493517e+002;0.000000e+000
4.512802e+002;0.000000e+000
4.532088e+002;0.000000e+000
4.551373e+002;0.000000e+000
4.570659e+002;0.000000e+000
4.589944e+002;0.000000e+000
4.609230e+002;0.000000e+000
4.628515e+002;0.000000e+000
4.647801e+002;0.000000e+000
4.667086e+002;0.000000e+000
4.686372e+002;0.000000e+000
4.705657e+002;0.000000e+000
4.724943e+002;0.000000e+000
4.744228e+002;0.000000e+000
4.763513e+002;0.000000e+000
4.782799e+002;0.000000e+000
4.802085e+002;0.000000e+000
4.821370e+002;0.000000e+000
4.840656e+002;0.000000e+000
4.859941e+002;0.000000e+000
4.879226e+002;0.000000e+000
4.898512e+002;0.000000e+000
4.917798e+002;0.000000e+000
4.937083e+002;0.000000e+000
4.956368e+002;0.000000e+000
4.975654e+002;0.000000e+000
4.994939e+002;0.000000e+000
5.014225e+002;0.000000e+000
5.033510e+002;0.000000e+000
5.052796e+002;0.000000e+000
5.072081e+002;0.000000e+000
5.091367e+002;0.000000e+000
5.110652e+002;0.000000e+000
5.129938e+002;0.000000e+000
5.149223e+002;0.000000e+000
5.168509e+002;0.000000e+000
5.187794e+002;0.000000e+000
5.207079e+002;0.000000e+000
5.226365e+002;0.000000e+000
5.245651e+002;0.000000e+000
5.264936e+002;0.000000e+000
5.284222e+002;0.000000e+000
5.303507e+002;0.000000e+000
5.322792e+002;0.000000e+000
5.342078e+002;0.000000e+000
5.361364e+002;0.000000e+000
5.380649e+002;0.000000e+000
5.399935e+002;0.000000e+000
5.419220e+002;0.000000e+000
5.438505e+002;0.000000e+000
5.457791e+002;0.000000e+000
5.477076e+002;0.000000e+000
5.496362e+002;0.000000e+000
5.515648e+002;0.000000e+000
5.534933e+002;0.000000e+000
5.554218e+002;0.000000e+000
5.573504e+002;0.000000e+000
5.592789e+002;0.000000e+000
5.612075e+002;0.000000e+000
5.631360e+002;0.000000e+000
5.650646e+002;0.000000e+000
5.669931e+002;0.000000e+000
5.689217e+002;0.000000e+000
5.708502e+002;0.000000e+000
5.727787e+002;0.000000e+000
5.747073e+002;0.000000e+000
5.766359e+002;0.000000e+000
5.785644e+002;0.000000e+000
5.804930e+002;0.000000e+000
5.824215e+002;0.000000e+000
5.843500e+002;0.000000e+000
5.862786e+002;0.000000e+000
5.882072e+002;0.000000e+000
5.901357e+002;0.000000e+000
5.920643e+002;0.000000e+000
5.939928e+002;0.000000e+000
5.959213e+002;0.000000e+000
5.978499e+002;0.000000e+000
5.997784e+002;3.286367e-002
6.017070e+002;3.226870e-002
6.036355e+002;3.049008e-002
6.055641e+002;2.939139e-002
6.074926e+002;3.195550e-002
6.094211e+002;3.348976e-002
6.113497e+002;3.198667e-002
6.132783e+002;2.848121e-002
6.152068e+002;2.483910e-002
6.171354e+002;2.487004e-002
6.190639e+002;2.867404e-002
6.209924e+002;3.456372e-002
6.229210e+002;3.460552e-002
6.248495e+002;3.278830e-002
6.267781e+002;3.278841e-002
6.287067e+002;3.044729e-002
6.306352e+002;2.764902e-002
6.325637e+002;3.145781e-002
6.344923e+002;3.458112e-002
6.364208e+002;3.292274e-002
6.383494e+002;3.131726e-002
6.402780e+002;3.088060e-002
6.422065e+002;3.113917e-002
6.441350e+002;3.048677e-002
6.460636e+002;3.273653e-002
6.479921e+002;3.317542e-002
6.499207e+002;3.274085e-002
6.518492e+002;3.236076e-002
6.537778e+002;3.239253e-002
6.557063e+002;3.408256e-002
6.576349e+002;3.539338e-002
6.595634e+002;3.493712e-002
6.614919e+002;3.422057e-002
6.634205e+002;3.399405e-002
6.653491e+002;3.343847e-002
6.672776e+002;3.508438e-002
6.692062e+002;3.673875e-002
6.711347e+002;3.590072e-002
6.730632e+002;3.504799e-002
6.749918e+002;3.444874e-002
6.769203e+002;3.496402e-002
6.788489e+002;3.716521e-002
6.807775e+002;3.930470e-002
6.827060e+002;4.119356e-002
6.846345e+002;4.181584e-002
6.865631e+002;4.283992e-002
6.884916e+002;4.605790e-002
6.904202e+002;4.837159e-002
6.923488e+002;4.949930e-002
6.942773e+002;5.241609e-002
6.962058e+002;5.669042e-002
6.981344e+002;6.106110e-002
7.000629e+002;6.509781e-002
7.019915e+002;6.908599e-002
7.039200e+002;7.600754e-002
7.058486e+002;8.682060e-002
7.077771e+002;9.985211e-002
7.097057e+002;1.184802e-001
7.116342e+002;1.467036e-001
7.135627e+002;1.814691e-001
7.154913e+002;2.068164e-001
7.174199e+002;2.062260e-001
7.193484e+002;1.810530e-001
7.212770e+002;1.449744e-001
7.232055e+002;1.169825e-001
7.251340e+002;1.020253e-001
7.270626e+002;9.487757e-002
7.289911e+002;9.619553e-002
7.309197e+002;1.031786e-001
7.328483e+002;9.999704e-002
7.347768e+002;8.119129e-002
7.367053e+002;6.204268e-002
7.386339e+002;5.136010e-002
7.405624e+002;4.692217e-002
7.424910e+002;4.401560e-002
7.444196e+002;4.207604e-002
7.463481e+002;4.173785e-002
7.482766e+002;4.090501e-002
7.502052e+002;3.865087e-002
7.521337e+002;3.655056e-002
7.540623e+002;3.632236e-002
7.559908e+002;3.608628e-002
7.579194e+002;3.395546e-002
7.598479e+002;3.322417e-002
7.617765e+002;3.325418e-002
7.637050e+002;3.352040e-002
7.656335e+002;3.393855e-002
7.675621e+002;3.363237e-002
7.694907e+002;3.324513e-002
7.714192e+002;3.284230e-002
7.733478e+002;3.174595e-002
7.752763e+002;3.144755e-002
7.772048e+002;3.153572e-002
7.791334e+002;3.107848e-002
7.810620e+002;3.095410e-002
7.829905e+002;3.154399e-002
7.849191e+002;3.115579e-002
7.868476e+002;3.052431e-002
7.887761e+002;3.055307e-002
7.907047e+002;3.103506e-002
7.926332e+002;3.138706e-002
7.945618e+002;3.050785e-002
7.964903e+002;2.955334e-002
7.984189e+002;2.975569e-002
8.003474e+002;3.038854e-002
8.022759e+002;3.060337e-002
8.042045e+002;3.098933e-002
8.061331e+002;3.111646e-002
8.080616e+002;3.097239e-002
8.099902e+002;3.180502e-002
8.119187e+002;3.262139e-002
8.138472e+002;3.246536e-002
8.157758e+002;3.239157e-002
8.177043e+002;3.186791e-002
8.196329e+002;3.225761e-002
8.215615e+002;3.220490e-002
8.234900e+002;3.233770e-002
8.254185e+002;3.262196e-002
8.273471e+002;3.256928e-002
8.292756e+002;3.274328e-002
8.312042e+002;3.395274e-002
8.331328e+002;3.454363e-002
8.350613e+002;3.418117e-002
8.369898e+002;3.426832e-002
8.389184e+002;3.475044e-002
8.408469e+002;3.464754e-002
8.427755e+002;3.352727e-002
8.447040e+002;3.332272e-002
8.466326e+002;3.366517e-002
8.485611e+002;3.348926e-002
8.504897e+002;3.293050e-002
8.524182e+002;3.279534e-002
8.543467e+002;3.290209e-002
8.562753e+002;3.326663e-002
8.582039e+002;3.347723e-002
8.601324e+002;3.360036e-002
8.620610e+002;3.323086e-002
8.639895e+002;3.323733e-002
8.659180e+002;3.372912e-002
8.678466e+002;3.363921e-002
8.697751e+002;3.326026e-002
8.717037e+002;3.364082e-002
8.736323e+002;3.421257e-002
8.755608e+002;3.373402e-002
8.774893e+002;3.330766e-002
8.794179e+002;3.302005e-002
8.813464e+002;3.336558e-002
8.832750e+002;3.407988e-002
8.852036e+002;3.422669e-002
8.871321e+002;3.440645e-002
8.890606e+002;3.437156e-002
8.909892e+002;3.390315e-002
8.929177e+002;3.348711e-002
8.948463e+002;3.361110e-002
8.967748e+002;3.415209e-002
8.987034e+002;3.427524e-002
9.006319e+002;3.432756e-002
9.025605e+002;3.429127e-002
9.044890e+002;3.431049e-002
9.064175e+002;3.497785e-002
9.083461e+002;3.530992e-002
9.102747e+002;3.520290e-002
9.122032e+002;3.486168e-002
9.141318e+002;3.441503e-002
9.160603e+002;3.420831e-002
9.179888e+002;3.417690e-002
9.199174e+002;3.383108e-002
9.218459e+002;3.336322e-002
9.237745e+002;3.343844e-002
9.257031e+002;3.339786e-002
9.276316e+002;3.339875e-002
9.295601e+002;3.358433e-002
9.314887e+002;3.322127e-002
9.334172e+002;3.295381e-002
9.353458e+002;3.315768e-002
9.372744e+002;3.291799e-002
9.392029e+002;3.261510e-002
9.411314e+002;3.261989e-002
9.430600e+002;3.282739e-002
9.449885e+002;3.266544e-002
9.469171e+002;3.215308e-002
9.488456e+002;3.189141e-002
9.507742e+002;3.224875e-002
9.527027e+002;3.218017e-002
9.546313e+002;3.160998e-002
9.565598e+002;3.135765e-002
9.584883e+002;3.146005e-002
9.604169e+002;3.144673e-002
9.623455e+002;3.140431e-002
9.642740e+002;3.147020e-002
9.662026e+002;3.161165e-002
9.681311e+002;3.153109e-002
9.700596e+002;3.124451e-002
9.719882e+002;3.106171e-002
9.739167e+002;3.089693e-002
9.758453e+002;3.063672e-002
9.777739e+002;3.060049e-002
9.797024e+002;3.026703e-002
9.816309e+002;2.991234e-002
9.835595e+002;2.977116e-002
9.854880e+002;2.946794e-002
9.874166e+002;2.899636e-002
9.893452e+002;2.863234e-002
9.912737e+002;2.886373e-002
9.932022e+002;2.913669e-002
9.951307e+002;2.874066e-002
9.970593e+002;2.845782e-002
9.989879e+002;2.843253e-002
1.000916e+003;2.847434e-002
1.002845e+003;2.844593e-002
1.004773e+003;2.830162e-002
1.006702e+003;2.792705e-002
1.008631e+003;2.729470e-002
1.010559e+003;2.730250e-002
1.012488e+003;2.784795e-002
1.014416e+003;2.771951e-002
1.016345e+003;2.723984e-002
1.018273e+003;2.708528e-002
1.020202e+003;2.735194e-002
1.022130e+003;2.780997e-002
1.024059e+003;2.815138e-002
1.025988e+003;2.886274e-002
1.027916e+003;2.955475e-002
1.029845e+003;3.021935e-002
1.031773e+003;3.089187e-002
1.033702e+003;3.103093e-002
1.035630e+003;3.118530e-002
1.037559e+003;3.144338e-002
1.039487e+003;3.152183e-002
1.041416e+003;3.154067e-002
1.043344e+003;3.138015e-002
1.045273e+003;3.106901e-002
1.047202e+003;3.073348e-002
1.049130e+003;3.070290e-002
1.051059e+003;3.097474e-002
1.052987e+003;3.122696e-002
1.054916e+003;3.117153e-002
1.056844e+003;3.116960e-002
1.058773e+003;3.177632e-002
1.060701e+003;3.222488e-002
1.062630e+003;3.233127e-002
1.064558e+003;3.261007e-002
1.066487e+003;3.301283e-002
1.068416e+003;3.344714e-002
1.070344e+003;3.353228e-002
1.072273e+003;3.352029e-002
1.074201e+003;3.400344e-002
1.076130e+003;3.442184e-002
1.078058e+003;3.484862e-002
1.079987e+003;3.465723e-002
1.081915e+003;3.343933e-002
1.083844e+003;3.279981e-002
1.085773e+003;3.335864e-002
1.087701e+003;3.349821e-002
1.089630e+003;3.318615e-002
1.091558e+003;3.229747e-002
1.093487e+003;3.111614e-002
1.095415e+003;3.048588e-002
1.097344e+003;3.016330e-002
1.099272e+003;2.995735e-002
1.101201e+003;3.012974e-002
1.103129e+003;3.055925e-002
1.105058e+003;3.010421e-002
1.106987e+003;2.926388e-002
1.108915e+003;2.895750e-002
1.110844e+003;2.885080e-002
1.112772e+003;2.921373e-002
1.114701e+003;2.943067e-002
1.116629e+003;2.888692e-002
1.118558e+003;2.855774e-002
1.120486e+003;2.882435e-002
1.122415e+003;2.885887e-002
1.124344e+003;2.889404e-002
1.126272e+003;2.899562e-002
1.128201e+003;2.860665e-002
1.130129e+003;2.830983e-002
1.132058e+003;2.825462e-002
1.133986e+003;2.835000e-002
1.135915e+003;2.832001e-002
1.137843e+003;2.817044e-002
1.139772e+003;2.817125e-002
1.141700e+003;2.811511e-002
1.143629e+003;2.848751e-002
1.145557e+003;2.917000e-002
1.147486e+003;2.982439e-002
1.149415e+003;2.983667e-002
1.151343e+003;2.962151e-002
1.153272e+003;2.964354e-002
1.155200e+003;2.935998e-002
1.157129e+003;2.908361e-002
1.159057e+003;2.877599e-002
1.160986e+003;2.878034e-002
1.162914e+003;2.910962e-002
1.164843e+003;2.879142e-002
1.166771e+003;2.844898e-002
1.168700e+003;2.836150e-002
1.170629e+003;2.875099e-002
1.172557e+003;2.889407e-002
1.174486e+003;2.908000e-002
1.176414e+003;2.906002e-002
1.178343e+003;2.815732e-002
1.180271e+003;2.745245e-002
1.182200e+003;2.723773e-002
1.184128e+003;2.672508e-002
1.186057e+003;2.579237e-002
1.187986e+003;2.510308e-002
1.189914e+003;2.494693e-002
1.191843e+003;2.529319e-002
1.193771e+003;2.530281e-002
1.195700e+003;2.520701e-002
1.197628e+003;2.486338e-002
1.199557e+003;2.445783e-002
1.201485e+003;2.428386e-002
1.203414e+003;2.409104e-002
1.205343e+003;2.393161e-002
1.207271e+003;2.349157e-002
1.209200e+003;2.334864e-002
1.211128e+003;2.365892e-002
1.213057e+003;2.380433e-002
1.214985e+003;2.366669e-002
1.216914e+003;2.348538e-002
1.218842e+003;2.335431e-002
1.220771e+003;2.321748e-002
1.222699e+003;2.295775e-002
1.224628e+003;2.271629e-002
1.226557e+003;2.249517e-002
1.228485e+003;2.259390e-002
1.230414e+003;2.285705e-002
1.232342e+003;2.302213e-002
1.234271e+003;2.337864e-002
1.236199e+003;2.374857e-002
1.238128e+003;2.402601e-002
1.240056e+003;2.396484e-002
1.241985e+003;2.374318e-002
1.243913e+003;2.383068e-002
1.245842e+003;2.440949e-002
1.247771e+003;2.513854e-002
1.249699e+003;2.532125e-002
1.251628e+003;2.551595e-002
1.253556e+003;2.642947e-002
1.255485e+003;2.699688e-002
1.257413e+003;2.692569e-002
1.259342e+003;2.648095e-002
1.261270e+003;2.604216e-002
1.263199e+003;2.618854e-002
1.265127e+003;2.692562e-002
1.267056e+003;2.789755e-002
1.268985e+003;2.859203e-002
1.270913e+003;2.883703e-002
1.272842e+003;2.903161e-002
1.274770e+003;2.949443e-002
1.276699e+003;2.952510e-002
1.278627e+003;2.926554e-002
1.280556e+003;2.932343e-002
1.282484e+003;2.950904e-002
1.284413e+003;2.999420e-002
1.286342e+003;3.039206e-002
1.288270e+003;3.053259e-002
1.290199e+003;3.093087e-002
1.292127e+003;3.162217e-002
1.294056e+003;3.212147e-002
1.295984e+003;3.230986e-002
1.297913e+003;3.258617e-002
1.299841e+003;3.277097e-002
1.301770e+003;3.271459e-002
1.303698e+003;3.289983e-002
1.305627e+003;3.332326e-002
1.307556e+003;3.301247e-002
1.309484e+003;3.236922e-002
1.311413e+003;3.170717e-002
1.313341e+003;3.080419e-002
1.315270e+003;3.008315e-002
1.317198e+003;2.954585e-002
1.319127e+003;2.885912e-002
1.321055e+003;2.842393e-002
1.322984e+003;2.803417e-002
1.324912e+003;2.754483e-002
1.326841e+003;2.729185e-002
1.328770e+003;2.696306e-002
1.330698e+003;2.672240e-002
1.332627e+003;2.676617e-002
1.334555e+003;2.688039e-002
1.336484e+003;2.697445e-002
1.338412e+003;2.747755e-002
1.340341e+003;2.863323e-002
1.342269e+003;2.995267e-002
1.344198e+003;3.094535e-002
1.346126e+003;3.178185e-002
1.348055e+003;3.249096e-002
1.349984e+003;3.325897e-002
1.351912e+003;3.333406e-002
1.353841e+003;3.304958e-002
1.355769e+003;3.297240e-002
1.357698e+003;3.288254e-002
1.359626e+003;3.284047e-002
1.361555e+003;3.328949e-002
1.363483e+003;3.431705e-002
1.365412e+003;3.577377e-002
1.367341e+003;3.675898e-002
1.369269e+003;3.712421e-002
1.371198e+003;3.635186e-002
1.373126e+003;3.404665e-002
1.375055e+003;3.236558e-002
1.376983e+003;3.184702e-002
1.378912e+003;3.090774e-002
1.380840e+003;2.969147e-002
1.382769e+003;2.880502e-002
1.384698e+003;2.806135e-002
1.386626e+003;2.689552e-002
1.388555e+003;2.661977e-002
1.390483e+003;2.694413e-002
1.392412e+003;2.663731e-002
1.394340e+003;2.596255e-002
1.396269e+003;2.603938e-002
1.398197e+003;2.640169e-002
1.400126e+003;2.713695e-002
1.402054e+003;2.792624e-002
1.403983e+003;2.798112e-002
1.405911e+003;2.827683e-002
1.407840e+003;2.876413e-002
1.409769e+003;2.930705e-002
1.411697e+003;2.993698e-002
1.413626e+003;3.042621e-002
1.415554e+003;3.087423e-002
1.417483e+003;3.045933e-002
1.419411e+003;3.069169e-002
1.421340e+003;3.325196e-002
1.423268e+003;3.564969e-002
1.425197e+003;3.815236e-002
1.427125e+003;4.094445e-002
1.429054e+003;4.353599e-002
1.430983e+003;4.673365e-002
1.432911e+003;4.971741e-002
1.434840e+003;5.084870e-002
1.436768e+003;5.212851e-002
1.438697e+003;5.571919e-002
1.440625e+003;5.858763e-002
1.442554e+003;6.036594e-002
1.444482e+003;6.165918e-002
1.446411e+003;6.310821e-002
1.448340e+003;6.561221e-002
1.450268e+003;6.978410e-002
1.452197e+003;7.517572e-002
1.454125e+003;8.110678e-002
1.456054e+003;8.665043e-002
1.457982e+003;9.930478e-002
1.459911e+003;1.223978e-001
1.461839e+003;1.399465e-001
1.463768e+003;1.414087e-001
1.465697e+003;1.462701e-001
1.467625e+003;1.639339e-001
1.469554e+003;1.915348e-001
1.471482e+003;2.110655e-001
1.473411e+003;1.866733e-001
1.475339e+003;1.335229e-001
1.477268e+003;9.276643e-002
1.479196e+003;7.206489e-002
1.481125e+003;6.154355e-002
1.483053e+003;5.525527e-002
1.484982e+003;5.009036e-002
1.486911e+003;4.570926e-002
1.488839e+003;4.262257e-002
1.490768e+003;4.100023e-002
1.492696e+003;4.015474e-002
1.494625e+003;3.784876e-002
1.496553e+003;3.554165e-002
1.498482e+003;3.541502e-002
1.500410e+003;3.549994e-002
1.502339e+003;3.497939e-002
1.504267e+003;3.174563e-002
1.506196e+003;2.814608e-002
1.508125e+003;2.911451e-002
1.510053e+003;3.108659e-002
1.511982e+003;3.137207e-002
1.513910e+003;3.110834e-002
1.515839e+003;3.019897e-002
1.517767e+003;2.970353e-002
1.519696e+003;2.832295e-002
1.521624e+003;2.729830e-002
1.523553e+003;2.865202e-002
1.525481e+003;2.894727e-002
1.527410e+003;2.909757e-002
1.529339e+003;2.984022e-002
1.531267e+003;2.975608e-002
1.533196e+003;2.907596e-002
1.535124e+003;2.982883e-002
1.537053e+003;2.847908e-002
1.538981e+003;2.461511e-002
1.540910e+003;2.417826e-002
1.542838e+003;2.626305e-002
1.544767e+003;2.764934e-002
1.546695e+003;2.884577e-002
1.548624e+003;2.911252e-002
1.550553e+003;2.889209e-002
1.552481e+003;2.810751e-002
1.554410e+003;2.670154e-002
1.556338e+003;2.456093e-002
1.558267e+003;2.087465e-002
1.560195e+003;2.208363e-002
1.562124e+003;2.628244e-002
1.564052e+003;2.739520e-002
1.565981e+003;2.722072e-002
1.567910e+003;2.652547e-002
1.569838e+003;2.583453e-002
1.571767e+003;2.695340e-002
1.573695e+003;2.665352e-002
1.575624e+003;2.458092e-002
1.577552e+003;2.594267e-002
1.579481e+003;2.837310e-002
1.581409e+003;2.881826e-002
1.583338e+003;2.876593e-002
1.585266e+003;2.855165e-002
1.587195e+003;2.841420e-002
1.589124e+003;2.842368e-002
1.591052e+003;2.831842e-002
1.592981e+003;2.797557e-002
1.594909e+003;2.801045e-002
1.596838e+003;2.800367e-002
1.598766e+003;2.788593e-002
1.600695e+003;2.790204e-002
1.602623e+003;2.779510e-002
1.604552e+003;2.777606e-002
1.606480e+003;2.787759e-002
1.608409e+003;2.779100e-002
1.610338e+003;2.777112e-002
1.612266e+003;2.785653e-002
1.614195e+003;2.683327e-002
1.616123e+003;2.459971e-002
1.618052e+003;2.541160e-002
1.619980e+003;2.726496e-002
1.621909e+003;2.691068e-002
1.623837e+003;2.655481e-002
1.625766e+003;2.702956e-002
1.627694e+003;2.743004e-002
1.629623e+003;2.858241e-002
1.631552e+003;2.885827e-002
1.633480e+003;2.691424e-002
1.635409e+003;2.505022e-002
1.637337e+003;2.668022e-002
1.639266e+003;2.877616e-002
1.641194e+003;2.962020e-002
1.643123e+003;2.930716e-002
1.645051e+003;2.724065e-002
1.646980e+003;2.654174e-002
1.648909e+003;2.794278e-002
1.650837e+003;2.557256e-002
1.652766e+003;2.152271e-002
1.654694e+003;2.458429e-002
1.656623e+003;2.841427e-002
1.658551e+003;2.922574e-002
1.660480e+003;2.856139e-002
1.662408e+003;2.747628e-002
1.664337e+003;2.785636e-002
1.666266e+003;2.783979e-002
1.668194e+003;2.602566e-002
1.670123e+003;2.543369e-002
1.672051e+003;2.639531e-002
1.673980e+003;2.553387e-002
1.675908e+003;2.534837e-002
1.677837e+003;2.698929e-002
1.679765e+003;2.704247e-002
1.681694e+003;2.516252e-002
1.683622e+003;2.199352e-002
1.685551e+003;2.297486e-002
1.687479e+003;2.594285e-002
1.689408e+003;2.646954e-002
1.691337e+003;2.647370e-002
1.693265e+003;2.560623e-002
1.695194e+003;2.303590e-002
1.697122e+003;2.292568e-002
1.699051e+003;2.191939e-002
1.700979e+003;2.149531e-002
1.702908e+003;2.380433e-002
1.704836e+003;2.392177e-002
1.706765e+003;2.423516e-002
1.708693e+003;2.471632e-002
1.710622e+003;2.461009e-002
1.712551e+003;2.373318e-002
1.714479e+003;2.194818e-002
1.716408e+003;1.967124e-002
1.718336e+003;1.987917e-002
1.720265e+003;2.189657e-002
1.722193e+003;2.244799e-002
1.724122e+003;2.245256e-002
1.726050e+003;2.264661e-002
1.727979e+003;2.238027e-002
1.729908e+003;2.196006e-002
1.731836e+003;2.019850e-002
1.733765e+003;1.813284e-002
1.735693e+003;2.011579e-002
1.737622e+003;2.211919e-002
1.739550e+003;2.184545e-002
1.741479e+003;2.205689e-002
1.743407e+003;2.260242e-002
1.745336e+003;2.271646e-002
1.747265e+003;2.186322e-002
1.749193e+003;2.036417e-002
1.751122e+003;1.937849e-002
1.753050e+003;2.008178e-002
1.754979e+003;1.979974e-002
1.756907e+003;1.904432e-002
1.758836e+003;1.879336e-002
1.760764e+003;1.780491e-002
1.762693e+003;1.756689e-002
1.764621e+003;1.787924e-002
1.766550e+003;1.713331e-002
1.768479e+003;1.662876e-002
1.770407e+003;1.590165e-002
1.772336e+003;1.504233e-002
1.774264e+003;1.601364e-002
1.776193e+003;1.678420e-002
1.778121e+003;1.679859e-002
1.780050e+003;1.672466e-002
1.781978e+003;1.660794e-002
1.783907e+003;1.631889e-002
1.785835e+003;1.635061e-002
1.787764e+003;1.654188e-002
1.789693e+003;1.572887e-002
1.791621e+003;1.453952e-002
1.793550e+003;1.480928e-002
1.795478e+003;1.606875e-002
1.797407e+003;1.632753e-002
1.799335e+003;1.577539e-002
1.801264e+003;1.552794e-002
1.803192e+003;1.602928e-002
1.805121e+003;1.661248e-002
1.807049e+003;1.668458e-002
1.808978e+003;1.635629e-002
1.810907e+003;1.624239e-002
1.812835e+003;1.630788e-002
1.814764e+003;1.640074e-002
1.816692e+003;1.646072e-002
1.818621e+003;1.663613e-002
1.820549e+003;1.665008e-002
1.822478e+003;1.621497e-002
1.824406e+003;1.549851e-002
1.826335e+003;1.529754e-002
1.828264e+003;1.484325e-002
1.830192e+003;1.478799e-002
1.832121e+003;1.520447e-002
1.834049e+003;1.509619e-002
1.835978e+003;1.489911e-002
1.837906e+003;1.481884e-002
1.839835e+003;1.487223e-002
1.841763e+003;1.442633e-002
1.843692e+003;1.347865e-002
1.845620e+003;1.404009e-002
1.847549e+003;1.486355e-002
1.849478e+003;1.495936e-002
1.851406e+003;1.516793e-002
1.853335e+003;1.536880e-002
1.855263e+003;1.538655e-002
1.857192e+003;1.516535e-002
1.859120e+003;1.495943e-002
1.861049e+003;1.506332e-002
1.862977e+003;1.542805e-002
1.864906e+003;1.537814e-002
1.866834e+003;1.481264e-002
1.868763e+003;1.441568e-002
1.870692e+003;1.489016e-002
1.872620e+003;1.555067e-002
1.874549e+003;1.596005e-002
1.876477e+003;1.615293e-002
1.878406e+003;1.631008e-002
1.880334e+003;1.653458e-002
1.882263e+003;1.649893e-002
1.884191e+003;1.702197e-002
1.886120e+003;1.825319e-002
1.888048e+003;1.897543e-002
1.889977e+003;1.932801e-002
1.891906e+003;2.021801e-002
1.893834e+003;2.070659e-002
1.895763e+003;2.080724e-002
1.897691e+003;2.065464e-002
1.899620e+003;2.050747e-002
1.901548e+003;2.046996e-002
1.903477e+003;2.030667e-002
1.905405e+003;2.005520e-002
1.907334e+003;1.955667e-002
1.909262e+003;1.896840e-002
1.911191e+003;1.876074e-002
1.913120e+003;1.848267e-002
1.915048e+003;1.807488e-002
1.916977e+003;1.771010e-002
1.918905e+003;1.787807e-002
1.920834e+003;1.795735e-002
1.922762e+003;1.772321e-002
1.924691e+003;1.784579e-002
1.926619e+003;1.784244e-002
1.928548e+003;1.762644e-002
1.930477e+003;1.739507e-002
1.932405e+003;1.740504e-002
1.934334e+003;1.750703e-002
1.936262e+003;1.732382e-002
1.938191e+003;1.719050e-002
1.940119e+003;1.706780e-002
1.942048e+003;1.677418e-002
1.943976e+003;1.672414e-002
1.945905e+003;1.679725e-002
1.947833e+003;1.678778e-002
1.949762e+003;1.701821e-002
1.951691e+003;1.725952e-002
1.953619e+003;1.745139e-002
1.955548e+003;1.743511e-002
1.957476e+003;1.716620e-002
1.959405e+003;1.707410e-002
1.961333e+003;1.711039e-002
1.963262e+003;1.727365e-002
1.965190e+003;1.727352e-002
1.967119e+003;1.710350e-002
1.969047e+003;1.709371e-002
1.970976e+003;1.687702e-002
1.972905e+003;1.662253e-002
1.974833e+003;1.701363e-002
1.976762e+003;1.735141e-002
1.978690e+003;1.723731e-002
1.980619e+003;1.724828e-002
1.982547e+003;1.724252e-002
1.984476e+003;1.703409e-002
1.986404e+003;1.677889e-002
1.988333e+003;1.683555e-002
1.990261e+003;1.675210e-002
1.992190e+003;1.672407e-002
1.994119e+003;1.695030e-002
1.996047e+003;1.721622e-002
1.997976e+003;1.739021e-002
1.999904e+003;1.762347e-002
2.001833e+003;1.781458e-002
2.003761e+003;1.801471e-002
2.005690e+003;1.838871e-002
2.007618e+003;1.897629e-002
2.009547e+003;1.964704e-002
2.011476e+003;2.054245e-002
2.013404e+003;2.146391e-002
2.015333e+003;2.217774e-002
2.017261e+003;2.278703e-002
2.019190e+003;2.295188e-002
2.021118e+003;2.302189e-002
2.023047e+003;2.309995e-002
2.024975e+003;2.260046e-002
2.026904e+003;2.190981e-002
2.028833e+003;2.122707e-002
2.030761e+003;2.074120e-002
2.032690e+003;2.069689e-002
2.034618e+003;2.051539e-002
2.036547e+003;2.011319e-002
2.038475e+003;1.998594e-002
2.040404e+003;1.964856e-002
2.042332e+003;1.939875e-002
2.044261e+003;1.926528e-002
2.046189e+003;1.925672e-002
2.048118e+003;1.917111e-002
2.050047e+003;1.894511e-002
2.051975e+003;1.880378e-002
2.053904e+003;1.877146e-002
2.055832e+003;1.872912e-002
2.057761e+003;1.866422e-002
2.059689e+003;1.843534e-002
2.061618e+003;1.815461e-002
2.063546e+003;1.792589e-002
2.065475e+003;1.792116e-002
2.067404e+003;1.820958e-002
2.069332e+003;1.824061e-002
2.071260e+003;1.804690e-002
2.073189e+003;1.809685e-002
2.075118e+003;1.816608e-002
2.077046e+003;1.826957e-002
2.078975e+003;1.809267e-002
2.080903e+003;1.781879e-002
2.082832e+003;1.757655e-002
2.084760e+003;1.756013e-002
2.086689e+003;1.749651e-002
2.088617e+003;1.729862e-002
2.090546e+003;1.751062e-002
2.092475e+003;1.760615e-002
2.094403e+003;1.731300e-002
2.096332e+003;1.722487e-002
2.098260e+003;1.739745e-002
2.100189e+003;1.746747e-002
2.102117e+003;1.752342e-002
2.104046e+003;1.760933e-002
2.105974e+003;1.752825e-002
2.107903e+003;1.733155e-002
2.109832e+003;1.722935e-002
2.111760e+003;1.721635e-002
2.113688e+003;1.722522e-002
2.115617e+003;1.692790e-002
2.117546e+003;1.690871e-002
2.119474e+003;1.733662e-002
2.121403e+003;1.739679e-002
2.123331e+003;1.741597e-002
2.125260e+003;1.736969e-002
2.127188e+003;1.730438e-002
2.129117e+003;1.743915e-002
2.131045e+003;1.759618e-002
2.132974e+003;1.795835e-002
2.134903e+003;1.823937e-002
2.136831e+003;1.827541e-002
2.138760e+003;1.836689e-002
2.140688e+003;1.852125e-002
2.142617e+003;1.888596e-002
2.144545e+003;1.921790e-002
2.146474e+003;1.921502e-002
2.148402e+003;1.920539e-002
2.150331e+003;1.916737e-002
2.152260e+003;1.902611e-002
2.154188e+003;1.887676e-002
2.156117e+003;1.888333e-002
2.158045e+003;1.898059e-002
2.159974e+003;1.919902e-002
2.161902e+003;1.902770e-002
2.163831e+003;1.871926e-002
2.165759e+003;1.869674e-002
2.167688e+003;1.903504e-002
2.169616e+003;1.898872e-002
2.171545e+003;1.878312e-002
2.173474e+003;1.914424e-002
2.175402e+003;1.936359e-002
2.177331e+003;1.938108e-002
2.179259e+003;1.932500e-002
2.181188e+003;1.910501e-002
2.183116e+003;1.904044e-002
2.185045e+003;1.930005e-002
2.186973e+003;1.930064e-002
2.188902e+003;1.899557e-002
2.190831e+003;1.882236e-002
2.192759e+003;1.880966e-002
2.194688e+003;1.891905e-002
2.196616e+003;1.903805e-002
2.198545e+003;1.900523e-002
2.200473e+003;1.906647e-002
2.202402e+003;1.930774e-002
2.204330e+003;1.950805e-002
2.206259e+003;1.952607e-002
2.208188e+003;1.958132e-002
2.210116e+003;1.932060e-002
2.212044e+003;1.905439e-002
2.213973e+003;1.929018e-002
2.215902e+003;1.944137e-002
2.217830e+003;1.936920e-002
2.219759e+003;1.939331e-002
2.221687e+003;1.968712e-002
2.223616e+003;1.986488e-002
2.225544e+003;1.968854e-002
2.227473e+003;1.951051e-002
2.229401e+003;1.926926e-002
2.231330e+003;1.912305e-002
2.233259e+003;1.889655e-002
2.235187e+003;1.880288e-002
2.237116e+003;1.911186e-002
2.239044e+003;1.939276e-002
2.240973e+003;1.959386e-002
2.242901e+003;1.984542e-002
2.244830e+003;2.013321e-002
2.246758e+003;2.016775e-002
2.248687e+003;1.996874e-002
2.250615e+003;2.005076e-002
2.252544e+003;2.038275e-002
2.254473e+003;2.068289e-002
2.256401e+003;2.072866e-002
2.258330e+003;2.084989e-002
2.260258e+003;2.094655e-002
2.262187e+003;2.103126e-002
2.264115e+003;2.114469e-002
2.266044e+003;2.125574e-002
2.267972e+003;2.157341e-002
2.269901e+003;2.204884e-002
2.271830e+003;2.222534e-002
2.273758e+003;2.250435e-002
2.275687e+003;2.315306e-002
2.277615e+003;2.369325e-002
2.279544e+003;2.374157e-002
2.281472e+003;2.332214e-002
2.283401e+003;2.305096e-002
2.285329e+003;2.329760e-002
2.287258e+003;2.343047e-002
2.289187e+003;2.361764e-002
2.291115e+003;2.370917e-002
2.293043e+003;2.342012e-002
2.294972e+003;2.356866e-002
2.296901e+003;2.393175e-002
2.298829e+003;2.410285e-002
2.300758e+003;2.416898e-002
2.302686e+003;2.414561e-002
2.304615e+003;2.425516e-002
2.306543e+003;2.449849e-002
2.308472e+003;2.478904e-002
2.310400e+003;2.510466e-002
2.312329e+003;2.557203e-002
2.314258e+003;2.595133e-002
2.316186e+003;2.616732e-002
2.318115e+003;2.644644e-002
2.320043e+003;2.680254e-002
2.321972e+003;2.717003e-002
2.323900e+003;2.761636e-002
2.325829e+003;2.775172e-002
2.327757e+003;2.783071e-002
2.329686e+003;2.809694e-002
2.331615e+003;2.791748e-002
2.333543e+003;2.747638e-002
2.335472e+003;2.755846e-002
2.337400e+003;2.806629e-002
2.339329e+003;2.812589e-002
2.341257e+003;2.802855e-002
2.343186e+003;2.850930e-002
2.345114e+003;2.869046e-002
2.347043e+003;2.826598e-002
2.348971e+003;2.775925e-002
2.350900e+003;2.732180e-002
2.352829e+003;2.656781e-002
2.354757e+003;2.566844e-002
2.356686e+003;2.490338e-002
2.358614e+003;2.426679e-002
2.360543e+003;2.382459e-002
2.362471e+003;2.340015e-002
2.364400e+003;2.297839e-002
2.366328e+003;2.290273e-002
2.368257e+003;2.302185e-002
2.370186e+003;2.287584e-002
2.372114e+003;2.254190e-002
2.374042e+003;2.228808e-002
2.375971e+003;2.202245e-002
2.377900e+003;2.215371e-002
2.379828e+003;2.241492e-002
2.381757e+003;2.242765e-002
2.383685e+003;2.244063e-002
2.385614e+003;2.243843e-002
2.387542e+003;2.260416e-002
2.389471e+003;2.278092e-002
2.391399e+003;2.298258e-002
2.393328e+003;2.307245e-002
2.395257e+003;2.285834e-002
2.397185e+003;2.275033e-002
2.399114e+003;2.288796e-002
2.401042e+003;2.311930e-002
2.402971e+003;2.318375e-002
2.404899e+003;2.330910e-002
2.406828e+003;2.337067e-002
2.408756e+003;2.349251e-002
2.410685e+003;2.385074e-002
2.412614e+003;2.413335e-002
2.414542e+003;2.398217e-002
2.416471e+003;2.415220e-002
2.418399e+003;2.447911e-002
2.420328e+003;2.453327e-002
2.422256e+003;2.422664e-002
2.424185e+003;2.364755e-002
2.426113e+003;2.329655e-002
2.428042e+003;2.324069e-002
2.429970e+003;2.301225e-002
2.431899e+003;2.294440e-002
2.433828e+003;2.326848e-002
2.435756e+003;2.341666e-002
2.437685e+003;2.301179e-002
2.439613e+003;2.244206e-002
2.441542e+003;2.245211e-002
2.443470e+003;2.269447e-002
2.445399e+003;2.277100e-002
2.447327e+003;2.268162e-002
2.449256e+003;2.245274e-002
2.451185e+003;2.253903e-002
2.453113e+003;2.256846e-002
2.455042e+003;2.264664e-002
2.456970e+003;2.267935e-002
2.458899e+003;2.250588e-002
2.460827e+003;2.289690e-002
2.462756e+003;2.330977e-002
2.464684e+003;2.317858e-002
2.466613e+003;2.321220e-002
2.468542e+003;2.370654e-002
2.470470e+003;2.444114e-002
2.472398e+003;2.521947e-002
2.474327e+003;2.547758e-002
2.476256e+003;2.522306e-002
2.478184e+003;2.495209e-002
2.480113e+003;2.495380e-002
2.482041e+003;2.489636e-002
2.483970e+003;2.500150e-002
2.485898e+003;2.515845e-002
2.487827e+003;2.484601e-002
2.489755e+003;2.473453e-002
2.491684e+003;2.508406e-002
2.493613e+003;2.530011e-002
2.495541e+003;2.523710e-002
2.497470e+003;2.515244e-002
2.499398e+003;2.538307e-002
2.501327e+003;2.545414e-002
2.503255e+003;2.539101e-002
2.505184e+003;2.558149e-002
2.507112e+003;2.586555e-002
2.509041e+003;2.608160e-002
2.510969e+003;2.638408e-002
2.512898e+003;2.656115e-002
2.514827e+003;2.674344e-002
2.516755e+003;2.668794e-002
2.518684e+003;2.660518e-002
2.520612e+003;2.699271e-002
2.522541e+003;2.755224e-002
2.524469e+003;2.804668e-002
2.526398e+003;2.828723e-002
2.528326e+003;2.833929e-002
2.530255e+003;2.857795e-002
2.532184e+003;2.834498e-002
2.534112e+003;2.801406e-002
2.536041e+003;2.797342e-002
2.537969e+003;2.782043e-002
2.539898e+003;2.782032e-002
2.541826e+003;2.812275e-002
2.543755e+003;2.834244e-002
2.545683e+003;2.889903e-002
2.547612e+003;2.960693e-002
2.549541e+003;2.950858e-002
2.551469e+003;2.939415e-002
2.553397e+003;2.985772e-002
2.555326e+003;2.995547e-002
2.557255e+003;2.981176e-002
2.559183e+003;2.993783e-002
2.561112e+003;3.001703e-002
2.563040e+003;3.022898e-002
2.564969e+003;3.066442e-002
2.566897e+003;3.070791e-002
2.568826e+003;3.082916e-002
2.570754e+003;3.113408e-002
2.572683e+003;3.153202e-002
2.574612e+003;3.177839e-002
2.576540e+003;3.182983e-002
2.578469e+003;3.201438e-002
2.580397e+003;3.262475e-002
2.582326e+003;3.309767e-002
2.584254e+003;3.337603e-002
2.586183e+003;3.355265e-002
2.588111e+003;3.368117e-002
2.590040e+003;3.411815e-002
2.591969e+003;3.496072e-002
2.593897e+003;3.561444e-002
2.595826e+003;3.602378e-002
2.597754e+003;3.654919e-002
2.599683e+003;3.694614e-002
2.601611e+003;3.728192e-002
2.603540e+003;3.752359e-002
2.605468e+003;3.790820e-002
2.607397e+003;3.863587e-002
2.609325e+003;3.928728e-002
2.611254e+003;3.962361e-002
2.613183e+003;4.012014e-002
2.615111e+003;4.079286e-002
2.617040e+003;4.135837e-002
2.618968e+003;4.221219e-002
2.620897e+003;4.293933e-002
2.622825e+003;4.364727e-002
2.624754e+003;4.437414e-002
2.626682e+003;4.492504e-002
2.628611e+003;4.548072e-002
2.630540e+003;4.595498e-002
2.632468e+003;4.646567e-002
2.634396e+003;4.693010e-002
2.636325e+003;4.696698e-002
2.638254e+003;4.652588e-002
2.640182e+003;4.610215e-002
2.642111e+003;4.588239e-002
2.644039e+003;4.574516e-002
2.645968e+003;4.569101e-002
2.647896e+003;4.543588e-002
2.649825e+003;4.517792e-002
2.651753e+003;4.518226e-002
2.653682e+003;4.551325e-002
2.655611e+003;4.564205e-002
2.657539e+003;4.538375e-002
2.659468e+003;4.537515e-002
2.661396e+003;4.555586e-002
2.663325e+003;4.567978e-002
2.665253e+003;4.567632e-002
2.667182e+003;4.520605e-002
2.669110e+003;4.445547e-002
2.671039e+003;4.412023e-002
2.672968e+003;4.378425e-002
2.674896e+003;4.359866e-002
2.676825e+003;4.329716e-002
2.678753e+003;4.265456e-002
2.680682e+003;4.257780e-002
2.682610e+003;4.231383e-002
2.684539e+003;4.226572e-002
2.686467e+003;4.242835e-002
2.688396e+003;4.209587e-002
2.690324e+003;4.170349e-002
2.692253e+003;4.190166e-002
2.694182e+003;4.229107e-002
2.696110e+003;4.252726e-002
2.698039e+003;4.270972e-002
2.699967e+003;4.322341e-002
2.701896e+003;4.368696e-002
2.703824e+003;4.395946e-002
2.705753e+003;4.406631e-002
2.707681e+003;4.427870e-002
2.709610e+003;4.462057e-002
2.711539e+003;4.486868e-002
2.713467e+003;4.518498e-002
2.715396e+003;4.533469e-002
2.717324e+003;4.592264e-002
2.719253e+003;4.647532e-002
2.721181e+003;4.657815e-002
2.723110e+003;4.687053e-002
2.725038e+003;4.756662e-002
2.726967e+003;4.826356e-002
2.728896e+003;4.861648e-002
2.730824e+003;4.895418e-002
2.732752e+003;4.942998e-002
2.734681e+003;4.995711e-002
2.736610e+003;5.029221e-002
2.738538e+003;5.039453e-002
2.740467e+003;5.067917e-002
2.742395e+003;5.105187e-002
2.744324e+003;5.120525e-002
2.746252e+003;5.111966e-002
2.748181e+003;5.107278e-002
2.750109e+003;5.144413e-002
2.752038e+003;5.168546e-002
2.753967e+003;5.185408e-002
2.755895e+003;5.218403e-002
2.757824e+003;5.264262e-002
2.759752e+003;5.344035e-002
2.761681e+003;5.434833e-002
2.763609e+003;5.524793e-002
2.765538e+003;5.610141e-002
2.767466e+003;5.674740e-002
2.769395e+003;5.739262e-002
2.771323e+003;5.811235e-002
2.773252e+003;5.910064e-002
2.775181e+003;6.032474e-002
2.777109e+003;6.130825e-002
2.779038e+003;6.225926e-002
2.780966e+003;6.319316e-002
2.782895e+003;6.417728e-002
2.784823e+003;6.515401e-002
2.786752e+003;6.607503e-002
2.788680e+003;6.697207e-002
2.790609e+003;6.828845e-002
2.792538e+003;6.953367e-002
2.794466e+003;7.058708e-002
2.796395e+003;7.167455e-002
2.798323e+003;7.247802e-002
2.800252e+003;7.329189e-002
2.802180e+003;7.442518e-002
2.804109e+003;7.578099e-002
2.806037e+003;7.732614e-002
2.807966e+003;7.868959e-002
2.809895e+003;8.007371e-002
2.811823e+003;8.189390e-002
2.813751e+003;8.341940e-002
2.815680e+003;8.468873e-002
2.817609e+003;8.635868e-002
2.819537e+003;8.865180e-002
2.821466e+003;9.142938e-002
2.823394e+003;9.457031e-002
2.825323e+003;9.786101e-002
2.827251e+003;1.014786e-001
2.829180e+003;1.059512e-001
2.831108e+003;1.114254e-001
2.833037e+003;1.179695e-001
2.834966e+003;1.261211e-001
2.836894e+003;1.367713e-001
2.838823e+003;1.509707e-001
2.840751e+003;1.703756e-001
2.842680e+003;1.977448e-001
2.844608e+003;2.336986e-001
2.846537e+003;2.744644e-001
2.848465e+003;3.017172e-001
2.850394e+003;2.919644e-001
2.852323e+003;2.508603e-001
2.854251e+003;2.047583e-001
2.856180e+003;1.686731e-001
2.858108e+003;1.435841e-001
2.860037e+003;1.272689e-001
2.861965e+003;1.172688e-001
2.863894e+003;1.114708e-001
2.865822e+003;1.089301e-001
2.867751e+003;1.081019e-001
2.869679e+003;1.085284e-001
2.871608e+003;1.107855e-001
2.873536e+003;1.147605e-001
2.875465e+003;1.197999e-001
2.877394e+003;1.256196e-001
2.879322e+003;1.321983e-001
2.881251e+003;1.384515e-001
2.883179e+003;1.441539e-001
2.885108e+003;1.503590e-001
2.887036e+003;1.564715e-001
2.888965e+003;1.624677e-001
2.890893e+003;1.690367e-001
2.892822e+003;1.756852e-001
2.894750e+003;1.823563e-001
2.896679e+003;1.891797e-001
2.898608e+003;1.963385e-001
2.900536e+003;2.040874e-001
2.902465e+003;2.134875e-001
2.904393e+003;2.248434e-001
2.906322e+003;2.390131e-001
2.908250e+003;2.574241e-001
2.910179e+003;2.794528e-001
2.912107e+003;3.040951e-001
2.914036e+003;3.250609e-001
2.915965e+003;3.330940e-001
2.917893e+003;3.249235e-001
2.919822e+003;3.017756e-001
2.921750e+003;2.706469e-001
2.923679e+003;2.388119e-001
2.925607e+003;2.094613e-001
2.927536e+003;1.842736e-001
2.929464e+003;1.627156e-001
2.931393e+003;1.447511e-001
2.933322e+003;1.298092e-001
2.935250e+003;1.170477e-001
2.937178e+003;1.066764e-001
2.939107e+003;9.836342e-002
2.941036e+003;9.100407e-002
2.942964e+003;8.496852e-002
2.944893e+003;7.983997e-002
2.946821e+003;7.546905e-002
2.948750e+003;7.205006e-002
2.950678e+003;6.962132e-002
2.952607e+003;6.749985e-002
2.954535e+003;6.508734e-002
2.956464e+003;6.295654e-002
2.958393e+003;6.181940e-002
2.960321e+003;6.089367e-002
2.962250e+003;5.953228e-002
2.964178e+003;5.824573e-002
2.966107e+003;5.745018e-002
2.968035e+003;5.694553e-002
2.969964e+003;5.639102e-002
2.971892e+003;5.550475e-002
2.973821e+003;5.445040e-002
2.975750e+003;5.349987e-002
2.977678e+003;5.245792e-002
2.979607e+003;5.149494e-002
2.981535e+003;5.077100e-002
2.983464e+003;4.997607e-002
2.985392e+003;4.941271e-002
2.987321e+003;4.894105e-002
2.989249e+003;4.812762e-002
2.991178e+003;4.701007e-002
2.993106e+003;4.617831e-002
2.995035e+003;4.622258e-002
2.996964e+003;4.574729e-002
2.998892e+003;4.479087e-002
3.000821e+003;4.427290e-002
3.002749e+003;4.392251e-002
3.004678e+003;4.374631e-002
3.006606e+003;4.339660e-002
3.008535e+003;4.295268e-002
3.010463e+003;4.262491e-002
3.012392e+003;4.193786e-002
3.014321e+003;4.160830e-002
3.016249e+003;4.167985e-002
3.018177e+003;4.138016e-002
3.020106e+003;4.103479e-002
3.022035e+003;4.104324e-002
3.023963e+003;4.091848e-002
3.025892e+003;4.042475e-002
3.027820e+003;3.968997e-002
3.029749e+003;3.923535e-002
3.031677e+003;3.922004e-002
3.033606e+003;3.901758e-002
3.035534e+003;3.888939e-002
3.037463e+003;3.886678e-002
3.039392e+003;3.859839e-002
3.041320e+003;3.808865e-002
3.043249e+003;3.762006e-002
3.045177e+003;3.736847e-002
3.047106e+003;3.696093e-002
3.049034e+003;3.663624e-002
3.050963e+003;3.670150e-002
3.052891e+003;3.675317e-002
3.054820e+003;3.660888e-002
3.056749e+003;3.605744e-002
3.058677e+003;3.541520e-002
3.060606e+003;3.510475e-002
3.062534e+003;3.536876e-002
3.064463e+003;3.540352e-002
3.066391e+003;3.517675e-002
3.068320e+003;3.487436e-002
3.070248e+003;3.436686e-002
3.072177e+003;3.383656e-002
3.074105e+003;3.349584e-002
3.076034e+003;3.362990e-002
3.077963e+003;3.367387e-002
3.079891e+003;3.297890e-002
3.081820e+003;3.246636e-002
3.083748e+003;3.264150e-002
3.085677e+003;3.299395e-002
3.087605e+003;3.292746e-002
3.089534e+003;3.240442e-002
3.091462e+003;3.177269e-002
3.093391e+003;3.155763e-002
3.095320e+003;3.098339e-002
3.097248e+003;3.049406e-002
3.099177e+003;3.001984e-002
3.101105e+003;2.993517e-002
3.103034e+003;3.008738e-002
3.104962e+003;2.941854e-002
3.106891e+003;2.878119e-002
3.108819e+003;2.841926e-002
3.110748e+003;2.789585e-002
3.112677e+003;2.737279e-002
3.114605e+003;2.667677e-002
3.116533e+003;2.594630e-002
3.118462e+003;2.577549e-002
3.120391e+003;2.558904e-002
3.122319e+003;2.494482e-002
3.124248e+003;2.424994e-002
3.126176e+003;2.405353e-002
3.128105e+003;2.369489e-002
3.130033e+003;2.321227e-002
3.131962e+003;2.297759e-002
3.133890e+003;2.304023e-002
3.135819e+003;2.297371e-002
3.137748e+003;2.289491e-002
3.139676e+003;2.305683e-002
3.141605e+003;2.309470e-002
3.143533e+003;2.280655e-002
3.145462e+003;2.271528e-002
3.147390e+003;2.286218e-002
3.149319e+003;2.292914e-002
3.151247e+003;2.244140e-002
3.153176e+003;2.183479e-002
3.155104e+003;2.200687e-002
3.157033e+003;2.215469e-002
3.158962e+003;2.219454e-002
3.160890e+003;2.209012e-002
3.162819e+003;2.186827e-002
3.164747e+003;2.164208e-002
3.166676e+003;2.148347e-002
3.168604e+003;2.146290e-002
3.170533e+003;2.136174e-002
3.172461e+003;2.144981e-002
3.174390e+003;2.150213e-002
3.176319e+003;2.160471e-002
3.178247e+003;2.176559e-002
3.180176e+003;2.164654e-002
3.182104e+003;2.143881e-002
3.184033e+003;2.131866e-002
3.185961e+003;2.137751e-002
3.187890e+003;2.121082e-002
3.189818e+003;2.125553e-002
3.191747e+003;2.136136e-002
3.193676e+003;2.107418e-002
3.195604e+003;2.083227e-002
3.197532e+003;2.061729e-002
3.199461e+003;2.113498e-002
3.201390e+003;2.164964e-002
3.203318e+003;2.120296e-002
3.205247e+003;2.087347e-002
3.207175e+003;2.110075e-002
3.209104e+003;2.118107e-002
3.211032e+003;2.113957e-002
3.212961e+003;2.129385e-002
3.214889e+003;2.166242e-002
3.216818e+003;2.181531e-002
3.218747e+003;2.153702e-002
3.220675e+003;2.156449e-002
3.222604e+003;2.129433e-002
3.224532e+003;2.112051e-002
3.226461e+003;2.117593e-002
3.228389e+003;2.099878e-002
3.230318e+003;2.117189e-002
3.232246e+003;2.152588e-002
3.234175e+003;2.137939e-002
3.236104e+003;2.094036e-002
3.238032e+003;2.048482e-002
3.239961e+003;2.018795e-002
3.241889e+003;2.082980e-002
3.243818e+003;2.153270e-002
3.245746e+003;2.157229e-002
3.247675e+003;2.139049e-002
3.249603e+003;2.126458e-002
3.251532e+003;2.112274e-002
3.253460e+003;2.085459e-002
3.255389e+003;2.104235e-002
3.257318e+003;2.123111e-002
3.259246e+003;2.118480e-002
3.261175e+003;2.140859e-002
3.263103e+003;2.117450e-002
3.265032e+003;2.083502e-002
3.266960e+003;2.135701e-002
3.268889e+003;2.213600e-002
3.270817e+003;2.191263e-002
3.272746e+003;2.167120e-002
3.274675e+003;2.178827e-002
3.276603e+003;2.200178e-002
3.278531e+003;2.192312e-002
3.280460e+003;2.184276e-002
3.282389e+003;2.189597e-002
3.284317e+003;2.177730e-002
3.286246e+003;2.188102e-002
3.288174e+003;2.200628e-002
3.290103e+003;2.179486e-002
3.292031e+003;2.132262e-002
3.293960e+003;2.078117e-002
3.295888e+003;2.077162e-002
3.297817e+003;2.148337e-002
3.299746e+003;2.151296e-002
3.301674e+003;2.101429e-002
3.303603e+003;2.091241e-002
3.305531e+003;2.102900e-002
3.307460e+003;2.137264e-002
3.309388e+003;2.173208e-002
3.311317e+003;2.178284e-002
3.313245e+003;2.171386e-002
3.315174e+003;2.178570e-002
3.317103e+003;2.182182e-002
3.319031e+003;2.171021e-002
3.320960e+003;2.154534e-002
3.322888e+003;2.146899e-002
3.324817e+003;2.130345e-002
3.326745e+003;2.114121e-002
3.328674e+003;2.138659e-002
3.330602e+003;2.164323e-002
3.332531e+003;2.157995e-002
3.334459e+003;2.179775e-002
3.336388e+003;2.199554e-002
3.338317e+003;2.174542e-002
3.340245e+003;2.168084e-002
3.342174e+003;2.175831e-002
3.344102e+003;2.195912e-002
3.346031e+003;2.228236e-002
3.347959e+003;2.209883e-002
3.349888e+003;2.173612e-002
3.351816e+003;2.198896e-002
3.353745e+003;2.203124e-002
3.355674e+003;2.175849e-002
3.357602e+003;2.165455e-002
3.359531e+003;2.185022e-002
3.361459e+003;2.195605e-002
3.363388e+003;2.205519e-002
3.365316e+003;2.196888e-002
3.367245e+003;2.210103e-002
3.369173e+003;2.239545e-002
3.371102e+003;2.242064e-002
3.373031e+003;2.217986e-002
3.374959e+003;2.152901e-002
3.376887e+003;2.131873e-002
3.378816e+003;2.156219e-002
3.380745e+003;2.172080e-002
3.382673e+003;2.184865e-002
3.384602e+003;2.146199e-002
3.386530e+003;2.120953e-002
3.388459e+003;2.115039e-002
3.390387e+003;2.120644e-002
3.392316e+003;2.116281e-002
3.394244e+003;2.080710e-002
3.396173e+003;2.090535e-002
3.398102e+003;2.142022e-002
3.400030e+003;2.133195e-002
3.401959e+003;2.073338e-002
3.403887e+003;2.044731e-002
3.405816e+003;2.055989e-002
3.407744e+003;2.067952e-002
3.409673e+003;2.028470e-002
3.411601e+003;2.051529e-002
3.413530e+003;2.106541e-002
3.415458e+003;2.092774e-002
3.417387e+003;2.088327e-002
3.419316e+003;2.112903e-002
3.421244e+003;2.112778e-002
3.423173e+003;2.089766e-002
3.425101e+003;2.111300e-002
3.427030e+003;2.123079e-002
3.428958e+003;2.077957e-002
3.430887e+003;2.051699e-002
3.432815e+003;2.053891e-002
3.434744e+003;2.042630e-002
3.436673e+003;2.040897e-002
3.438601e+003;2.062931e-002
3.440530e+003;2.092245e-002
3.442458e+003;2.028518e-002
3.444387e+003;1.971479e-002
3.446315e+003;1.995056e-002
3.448244e+003;2.020218e-002
3.450172e+003;2.021394e-002
3.452101e+003;2.018441e-002
3.454030e+003;2.027116e-002
3.455958e+003;2.057486e-002
3.457886e+003;2.060196e-002
3.459815e+003;2.030081e-002
3.461744e+003;2.001738e-002
3.463672e+003;1.948497e-002
3.465601e+003;1.866768e-002
3.467529e+003;1.846566e-002
3.469458e+003;1.917966e-002
3.471386e+003;1.990830e-002
3.473315e+003;2.003816e-002
3.475243e+003;2.021804e-002
3.477172e+003;2.033997e-002
3.479101e+003;1.979666e-002
3.481029e+003;1.953796e-002
3.482958e+003;1.954059e-002
3.484886e+003;1.947492e-002
3.486815e+003;1.908396e-002
3.488743e+003;1.890655e-002
3.490672e+003;1.905273e-002
3.492600e+003;1.888963e-002
3.494529e+003;1.873541e-002
3.496458e+003;1.910795e-002
3.498386e+003;1.933172e-002
3.500315e+003;1.945028e-002
3.502243e+003;1.927363e-002
3.504172e+003;1.899848e-002
3.506100e+003;1.914964e-002
3.508029e+003;1.951477e-002
3.509957e+003;1.985305e-002
3.511886e+003;1.958308e-002
3.513814e+003;1.918022e-002
3.515743e+003;1.918756e-002
3.517672e+003;1.921073e-002
3.519600e+003;1.904338e-002
3.521529e+003;1.863922e-002
3.523457e+003;1.849408e-002
3.525386e+003;1.880018e-002
3.527314e+003;1.894888e-002
3.529243e+003;1.852810e-002
3.531171e+003;1.856272e-002
3.533100e+003;1.903878e-002
3.535029e+003;1.867218e-002
3.536957e+003;1.853381e-002
3.538885e+003;1.886651e-002
3.540814e+003;1.897207e-002
3.542743e+003;1.850518e-002
3.544671e+003;1.832016e-002
3.546600e+003;1.852260e-002
3.548528e+003;1.891091e-002
3.550457e+003;1.902195e-002
3.552385e+003;1.898806e-002
3.554314e+003;1.903078e-002
3.556242e+003;1.913312e-002
3.558171e+003;1.923206e-002
3.560100e+003;1.929420e-002
3.562028e+003;1.962426e-002
3.563957e+003;1.949460e-002
3.565885e+003;1.858779e-002
3.567814e+003;1.866619e-002
3.569742e+003;1.939720e-002
3.571671e+003;1.989599e-002
3.573599e+003;2.031858e-002
3.575528e+003;2.044575e-002
3.577457e+003;2.038022e-002
3.579385e+003;2.043224e-002
3.581314e+003;2.073821e-002
3.583242e+003;2.096108e-002
3.585171e+003;2.007418e-002
3.587099e+003;1.970061e-002
3.589028e+003;2.078270e-002
3.590956e+003;2.177702e-002
3.592885e+003;2.204898e-002
3.594813e+003;2.222248e-002
3.596742e+003;2.281339e-002
3.598671e+003;2.399078e-002
3.600599e+003;2.458078e-002
3.602528e+003;2.513282e-002
3.604456e+003;2.568447e-002
3.606385e+003;2.573882e-002
3.608313e+003;2.513650e-002
3.610242e+003;2.494033e-002
3.612170e+003;2.492892e-002
3.614099e+003;2.458201e-002
3.616028e+003;2.376320e-002
3.617956e+003;2.262144e-002
3.619885e+003;2.247259e-002
3.621813e+003;2.302828e-002
3.623742e+003;2.333193e-002
3.625670e+003;2.306913e-002
3.627599e+003;2.102330e-002
3.629527e+003;1.960960e-002
3.631456e+003;2.102764e-002
3.633385e+003;2.224668e-002
3.635313e+003;2.219744e-002
3.637241e+003;2.211783e-002
3.639170e+003;2.264724e-002
3.641099e+003;2.327628e-002
3.643027e+003;2.387419e-002
3.644956e+003;2.288963e-002
3.646884e+003;2.081131e-002
3.648813e+003;2.004010e-002
3.650741e+003;2.142443e-002
3.652670e+003;2.313608e-002
3.654598e+003;2.267045e-002
3.656527e+003;2.201796e-002
3.658456e+003;2.272963e-002
3.660384e+003;2.336704e-002
3.662313e+003;2.354050e-002
3.664241e+003;2.348443e-002
3.666170e+003;2.299205e-002
3.668098e+003;2.108416e-002
3.670027e+003;1.963141e-002
3.671955e+003;2.026831e-002
3.673884e+003;1.918773e-002
3.675813e+003;1.842728e-002
3.677741e+003;2.100170e-002
3.679669e+003;2.246705e-002
3.681598e+003;2.258884e-002
3.683527e+003;2.234940e-002
3.685455e+003;2.198944e-002
3.687384e+003;2.062371e-002
3.689312e+003;2.007244e-002
3.691241e+003;2.094158e-002
3.693169e+003;2.216396e-002
3.695098e+003;2.250606e-002
3.697026e+003;2.221878e-002
3.698955e+003;2.219154e-002
3.700884e+003;2.244897e-002
3.702812e+003;2.280117e-002
3.704741e+003;2.253108e-002
3.706669e+003;2.140198e-002
3.708598e+003;2.046082e-002
3.710526e+003;1.975362e-002
3.712455e+003;1.968005e-002
3.714383e+003;2.072098e-002
3.716312e+003;2.099221e-002
3.718240e+003;2.060433e-002
3.720169e+003;2.032448e-002
3.722098e+003;2.054068e-002
3.724026e+003;2.064168e-002
3.725955e+003;2.032143e-002
3.727883e+003;2.057306e-002
3.729812e+003;2.035233e-002
3.731740e+003;1.925104e-002
3.733669e+003;1.870144e-002
3.735597e+003;1.856258e-002
3.737526e+003;1.960028e-002
3.739455e+003;2.032632e-002
3.741383e+003;1.922707e-002
3.743312e+003;1.570019e-002
3.745240e+003;1.608880e-002
3.747169e+003;1.797151e-002
3.749097e+003;1.710626e-002
3.751026e+003;1.735548e-002
3.752954e+003;1.896913e-002
3.754883e+003;2.044901e-002
3.756812e+003;2.069894e-002
3.758740e+003;2.077280e-002
3.760668e+003;2.076560e-002
3.762597e+003;2.114486e-002
3.764526e+003;2.102295e-002
3.766454e+003;2.121778e-002
3.768383e+003;2.092795e-002
3.770311e+003;2.106423e-002
3.772240e+003;2.189266e-002
3.774168e+003;2.208384e-002
3.776097e+003;2.164971e-002
3.778025e+003;2.104242e-002
3.779954e+003;2.090691e-002
3.781883e+003;2.162505e-002
3.783811e+003;2.218736e-002
3.785740e+003;2.263397e-002
3.787668e+003;2.222286e-002
3.789597e+003;2.185939e-002
3.791525e+003;2.253014e-002
3.793454e+003;2.289477e-002
3.795382e+003;2.238861e-002
3.797311e+003;2.219831e-002
3.799240e+003;2.094641e-002
3.801168e+003;1.966060e-002
3.803097e+003;2.160906e-002
3.805025e+003;2.191075e-002
3.806954e+003;2.110785e-002
3.808882e+003;2.247518e-002
3.810811e+003;2.300309e-002
3.812739e+003;2.297071e-002
3.814668e+003;2.152926e-002
3.816596e+003;2.165573e-002
3.818525e+003;2.286906e-002
3.820454e+003;2.241450e-002
3.822382e+003;2.332071e-002
3.824311e+003;2.362023e-002
3.826239e+003;2.326586e-002
3.828168e+003;2.357226e-002
3.830096e+003;2.324772e-002
3.832025e+003;2.281692e-002
3.833953e+003;2.237267e-002
3.835882e+003;2.110948e-002
3.837811e+003;2.007959e-002
3.839739e+003;2.179580e-002
3.841667e+003;2.381213e-002
3.843596e+003;2.414407e-002
3.845525e+003;2.411458e-002
3.847453e+003;2.419077e-002
3.849382e+003;2.319787e-002
3.851310e+003;2.020009e-002
3.853239e+003;1.781012e-002
3.855167e+003;2.059974e-002
3.857096e+003;2.346729e-002
3.859024e+003;2.381847e-002
3.860953e+003;2.349814e-002
3.862882e+003;2.307430e-002
3.864810e+003;2.300749e-002
3.866739e+003;2.301081e-002
3.868667e+003;2.165908e-002
3.870596e+003;2.219067e-002
3.872524e+003;2.373108e-002
3.874453e+003;2.429560e-002
3.876381e+003;2.540959e-002
3.878310e+003;2.531654e-002
3.880239e+003;2.492141e-002
3.882167e+003;2.467216e-002
3.884096e+003;2.388365e-002
3.886024e+003;2.377507e-002
3.887953e+003;2.499473e-002
3.889881e+003;2.485162e-002
3.891810e+003;2.444707e-002
3.893738e+003;2.503021e-002
3.895667e+003;2.484148e-002
3.897595e+003;2.450624e-002
3.899524e+003;2.450088e-002
3.901453e+003;2.399964e-002
3.903381e+003;2.347355e-002
3.905310e+003;2.431168e-002
3.907238e+003;2.540021e-002
3.909167e+003;2.590627e-002
3.911095e+003;2.610577e-002
3.913024e+003;2.605750e-002
3.914952e+003;2.540562e-002
3.916881e+003;2.523018e-002
3.918810e+003;2.560686e-002
3.920738e+003;2.532241e-002
3.922667e+003;2.517126e-002
3.924595e+003;2.568043e-002
3.926524e+003;2.648782e-002
3.928452e+003;2.628656e-002
3.930381e+003;2.602998e-002
3.932309e+003;2.570454e-002
3.934238e+003;2.552515e-002
3.936167e+003;2.582278e-002
3.938095e+003;2.570757e-002
3.940023e+003;2.520824e-002
3.941952e+003;2.494437e-002
3.943881e+003;2.484331e-002
3.945809e+003;2.500097e-002
3.947738e+003;2.515452e-002
3.949666e+003;2.488443e-002
3.951595e+003;2.494135e-002
3.953523e+003;2.495261e-002
3.955452e+003;2.530808e-002
3.957380e+003;2.586959e-002
3.959309e+003;2.591359e-002
3.961238e+003;2.552020e-002
3.963166e+003;2.464278e-002
3.965095e+003;2.443417e-002
3.967023e+003;2.490524e-002
3.968952e+003;2.514932e-002
3.970880e+003;2.503463e-002
3.972809e+003;2.498353e-002
3.974737e+003;2.499908e-002
3.976666e+003;2.505404e-002
3.978594e+003;2.513342e-002
3.980523e+003;2.549399e-002
3.982452e+003;2.573580e-002
3.984380e+003;2.494033e-002
3.986309e+003;2.430415e-002
3.988237e+003;2.471386e-002
3.990166e+003;2.471523e-002
3.992094e+003;2.427065e-002
3.994023e+003;2.418124e-002
3.995951e+003;2.391543e-002
3.997880e+003;2.398696e-002
3.999809e+003;2.463639e-002
4.001737e+003;0.000000e+000
