3.992094e+002;0.000000e+000
4.011380e+002;0.000000e+000
4.030665e+002;0.000000e+000
4.049951e+002;0.000000e+000
4.069236e+002;0.000000e+000
4.088522e+002;0.000000e+000
4.107807e+002;0.000000e+000
4.127093e+002;0.000000e+000
4.146378e+002;0.000000e+000
4.165664e+002;0.000000e+000
4.184949e+002;0.000000e+000
4.204235e+002;0.000000e+000
4.223520e+002;0.000000e+000
4.242806e+002;0.000000e+000
4.262091e+002;0.000000e+000
4.281377e+002;0.000000e+000
4.300662e+002;0.000000e+000
4.319948e+002;0.000000e+000
4.339233e+002;0.000000e+000
4.358519e+002;0.000000e+000
4.377804e+002;0.000000e+000
4.397090e+002;0.000000e+000
4.416375e+002;0.000000e+000
4.435660e+002;0.000000e+000
4.454946e+002;0.000000e+000
4.474232e+002;0.000000e+000
4.493517e+002;0.000000e+000
4.512802e+002;0.000000e+000
4.532088e+002;0.000000e+000
4.551373e+002;0.000000e+000
4.570659e+002;0.000000e+000
4.589944e+002;0.000000e+000
4.609230e+002;0.000000e+000
4.628515e+002;0.000000e+000
4.647801e+002;0.000000e+000
4.667086e+002;0.000000e+000
4.686372e+002;0.000000e+000
4.705657e+002;0.000000e+000
4.724943e+002;0.000000e+000
4.744228e+002;0.000000e+000
4.763513e+002;0.000000e+000
4.782799e+002;0.000000e+000
4.802085e+002;0.000000e+000
4.821370e+002;0.000000e+000
4.840656e+002;0.000000e+000
4.859941e+002;0.000000e+000
4.879226e+002;0.000000e+000
4.898512e+002;0.000000e+000
4.917798e+002;0.000000e+000
4.937083e+002;0.000000e+000
4.956368e+002;0.000000e+000
4.975654e+002;0.000000e+000
4.994939e+002;0.000000e+000
5.014225e+002;0.000000e+000
5.033510e+002;0.000000e+000
5.052796e+002;0.000000e+000
5.072081e+002;0.000000e+000
5.091367e+002;0.000000e+000
5.110652e+002;0.000000e+000
5.129938e+002;0.000000e+000
5.149223e+002;0.000000e+000
5.168509e+002;0.000000e+000
5.187794e+002;0.000000e+000
5.207079e+002;0.000000e+000
5.226365e+002;0.000000e+000
5.245651e+002;0.000000e+000
5.264936e+002;0.000000e+000
5.284222e+002;0.000000e+000
5.303507e+002;0.000000e+000
5.322792e+002;0.000000e+000
5.342078e+002;0.000000e+000
5.361364e+002;0.000000e+000
5.380649e+002;0.000000e+000
5.399935e+002;0.000000e+000
5.419220e+002;0.000000e+000
5.438505e+002;0.000000e+000
5.457791e+002;0.000000e+000
5.477076e+002;0.000000e+000
5.496362e+002;0.000000e+000
5.515648e+002;0.000000e+000
5.534933e+002;0.000000e+000
5.554218e+002;0.000000e+000
5.573504e+002;0.000000e+000
5.592789e+002;0.000000e+000
5.612075e+002;0.000000e+000
5.631360e+002;0.000000e+000
5.650646e+002;0.000000e+000
5.669931e+002;0.000000e+000
5.689217e+002;0.000000e+000
5.708502e+002;0.000000e+000
5.727787e+002;0.000000e+000
5.747073e+002;0.000000e+000
5.766359e+002;0.000000e+000
5.785644e+002;0.000000e+000
5.804930e+002;0.000000e+000
5.824215e+002;0.000000e+000
5.843500e+002;0.000000e+000
5.862786e+002;0.000000e+000
5.882072e+002;0.000000e+000
5.901357e+002;0.000000e+000
5.920643e+002;0.000000e+000
5.939928e+002;0.000000e+000
5.959213e+002;0.000000e+000
5.978499e+002;0.000000e+000
5.997784e+002;4.400815e-002
6.017070e+002;4.365515e-002
6.036355e+002;4.433766e-002
6.055641e+002;4.390213e-002
6.074926e+002;4.506683e-002
6.094211e+002;4.240595e-002
6.113497e+002;4.169936e-002
6.132783e+002;3.791688e-002
6.152068e+002;3.564883e-002
6.171354e+002;3.781680e-002
6.190639e+002;3.620587e-002
6.209924e+002;3.464348e-002
6.229210e+002;3.601417e-002
6.248495e+002;3.714561e-002
6.267781e+002;4.128592e-002
6.287067e+002;4.336277e-002
6.306352e+002;4.038286e-002
6.325637e+002;4.058581e-002
6.344923e+002;4.150781e-002
6.364208e+002;4.154307e-002
6.383494e+002;3.973318e-002
6.402780e+002;3.796457e-002
6.422065e+002;4.163883e-002
6.441350e+002;4.370253e-002
6.460636e+002;4.227230e-002
6.479921e+002;4.034315e-002
6.499207e+002;4.020086e-002
6.518492e+002;3.907258e-002
6.537778e+002;3.875069e-002
6.557063e+002;3.867633e-002
6.576349e+002;3.733824e-002
6.595634e+002;3.864902e-002
6.614919e+002;4.065439e-002
6.634205e+002;4.121513e-002
6.653491e+002;4.143283e-002
6.672776e+002;4.325335e-002
6.692062e+002;4.477155e-002
6.711347e+002;4.488675e-002
6.730632e+002;4.508778e-002
6.749918e+002;4.463213e-002
6.769203e+002;4.293340e-002
6.788489e+002;4.469434e-002
6.807775e+002;4.683945e-002
6.827060e+002;4.661053e-002
6.846345e+002;4.688998e-002
6.865631e+002;4.837652e-002
6.884916e+002;5.055236e-002
6.904202e+002;5.173059e-002
6.923488e+002;5.257051e-002
6.942773e+002;5.552414e-002
6.962058e+002;5.989227e-002
6.981344e+002;6.443363e-002
7.000629e+002;6.826437e-002
7.019915e+002;7.165927e-002
7.039200e+002;7.753238e-002
7.058486e+002;8.720950e-002
7.077771e+002;9.827197e-002
7.097057e+002;1.135103e-001
7.116342e+002;1.377416e-001
7.135627e+002;1.681634e-001
7.154913e+002;1.914439e-001
7.174199e+002;1.911336e-001
7.193484e+002;1.679346e-001
7.212770e+002;1.370305e-001
7.232055e+002;1.130719e-001
7.251340e+002;9.872432e-002
7.270626e+002;9.144659e-002
7.289911e+002;9.116141e-002
7.309197e+002;9.523179e-002
7.328483e+002;9.199028e-002
7.347768e+002;7.622930e-002
7.367053e+002;6.102311e-002
7.386339e+002;5.272982e-002
7.405624e+002;4.883563e-002
7.424910e+002;4.656214e-002
7.444196e+002;4.444270e-002
7.463481e+002;4.412188e-002
7.482766e+002;4.363566e-002
7.502052e+002;4.172472e-002
7.521337e+002;3.982679e-002
7.540623e+002;3.935573e-002
7.559908e+002;4.005466e-002
7.579194e+002;3.952700e-002
7.598479e+002;3.903346e-002
7.617765e+002;3.853701e-002
7.637050e+002;3.811191e-002
7.656335e+002;3.822931e-002
7.675621e+002;3.743961e-002
7.694907e+002;3.594326e-002
7.714192e+002;3.532451e-002
7.733478e+002;3.515055e-002
7.752763e+002;3.491019e-002
7.772048e+002;3.534137e-002
7.791334e+002;3.570444e-002
7.810620e+002;3.538961e-002
7.829905e+002;3.561016e-002
7.849191e+002;3.636620e-002
7.868476e+002;3.592990e-002
7.887761e+002;3.555079e-002
7.907047e+002;3.573772e-002
7.926332e+002;3.590291e-002
7.945618e+002;3.591044e-002
7.964903e+002;3.588481e-002
7.984189e+002;3.553852e-002
8.003474e+002;3.550465e-002
8.022759e+002;3.617443e-002
8.042045e+002;3.704568e-002
8.061331e+002;3.711338e-002
8.080616e+002;3.620068e-002
8.099902e+002;3.601953e-002
8.119187e+002;3.680737e-002
8.138472e+002;3.725675e-002
8.157758e+002;3.713417e-002
8.177043e+002;3.658091e-002
8.196329e+002;3.747497e-002
8.215615e+002;3.819269e-002
8.234900e+002;3.782461e-002
8.254185e+002;3.773858e-002
8.273471e+002;3.755141e-002
8.292756e+002;3.751940e-002
8.312042e+002;3.821411e-002
8.331328e+002;3.867017e-002
8.350613e+002;3.817663e-002
8.369898e+002;3.769074e-002
8.389184e+002;3.831790e-002
8.408469e+002;3.864514e-002
8.427755e+002;3.813264e-002
8.447040e+002;3.811358e-002
8.466326e+002;3.751449e-002
8.485611e+002;3.614004e-002
8.504897e+002;3.563588e-002
8.524182e+002;3.625809e-002
8.543467e+002;3.651560e-002
8.562753e+002;3.617414e-002
8.582039e+002;3.601842e-002
8.601324e+002;3.599343e-002
8.620610e+002;3.583338e-002
8.639895e+002;3.615376e-002
8.659180e+002;3.633288e-002
8.678466e+002;3.613291e-002
8.697751e+002;3.632560e-002
8.717037e+002;3.715182e-002
8.736323e+002;3.778308e-002
8.755608e+002;3.769558e-002
8.774893e+002;3.737757e-002
8.794179e+002;3.713846e-002
8.813464e+002;3.722246e-002
8.832750e+002;3.755733e-002
8.852036e+002;3.785903e-002
8.871321e+002;3.801997e-002
8.890606e+002;3.811875e-002
8.909892e+002;3.798641e-002
8.929177e+002;3.818300e-002
8.948463e+002;3.875729e-002
8.967748e+002;3.894694e-002
8.987034e+002;3.904147e-002
9.006319e+002;3.920662e-002
9.025605e+002;3.915372e-002
9.044890e+002;3.926407e-002
9.064175e+002;3.958612e-002
9.083461e+002;3.998847e-002
9.102747e+002;4.008177e-002
9.122032e+002;4.001473e-002
9.141318e+002;3.970137e-002
9.160603e+002;3.923350e-002
9.179888e+002;3.908399e-002
9.199174e+002;3.916626e-002
9.218459e+002;3.867361e-002
9.237745e+002;3.833968e-002
9.257031e+002;3.860784e-002
9.276316e+002;3.902052e-002
9.295601e+002;3.929483e-002
9.314887e+002;3.941095e-002
9.334172e+002;3.928515e-002
9.353458e+002;3.932040e-002
9.372744e+002;3.924742e-002
9.392029e+002;3.910289e-002
9.411314e+002;3.925493e-002
9.430600e+002;3.931373e-002
9.449885e+002;3.936923e-002
9.469171e+002;3.924173e-002
9.488456e+002;3.891436e-002
9.507742e+002;3.878935e-002
9.527027e+002;3.868966e-002
9.546313e+002;3.874595e-002
9.565598e+002;3.909708e-002
9.584883e+002;3.942231e-002
9.604169e+002;3.941980e-002
9.623455e+002;3.935588e-002
9.642740e+002;3.924909e-002
9.662026e+002;3.985457e-002
9.681311e+002;4.001756e-002
9.700596e+002;3.981070e-002
9.719882e+002;3.994313e-002
9.739167e+002;3.989580e-002
9.758453e+002;3.982370e-002
9.777739e+002;4.036799e-002
9.797024e+002;4.032185e-002
9.816309e+002;3.968246e-002
9.835595e+002;3.943257e-002
9.854880e+002;3.926403e-002
9.874166e+002;3.886537e-002
9.893452e+002;3.852379e-002
9.912737e+002;3.876801e-002
9.932022e+002;3.916536e-002
9.951307e+002;3.886624e-002
9.970593e+002;3.860795e-002
9.989879e+002;3.873236e-002
1.000916e+003;3.922298e-002
1.002845e+003;3.967814e-002
1.004773e+003;3.977279e-002
1.006702e+003;4.014925e-002
1.008631e+003;4.056827e-002
1.010559e+003;4.074777e-002
1.012488e+003;4.118438e-002
1.014416e+003;4.170976e-002
1.016345e+003;4.178520e-002
1.018273e+003;4.160207e-002
1.020202e+003;4.214698e-002
1.022130e+003;4.299189e-002
1.024059e+003;4.359576e-002
1.025988e+003;4.458752e-002
1.027916e+003;4.573017e-002
1.029845e+003;4.636847e-002
1.031773e+003;4.628272e-002
1.033702e+003;4.615167e-002
1.035630e+003;4.617396e-002
1.037559e+003;4.574943e-002
1.039487e+003;4.550589e-002
1.041416e+003;4.577594e-002
1.043344e+003;4.588890e-002
1.045273e+003;4.598271e-002
1.047202e+003;4.676398e-002
1.049130e+003;4.719043e-002
1.051059e+003;4.674996e-002
1.052987e+003;4.663551e-002
1.054916e+003;4.697145e-002
1.056844e+003;4.740953e-002
1.058773e+003;4.792633e-002
1.060701e+003;4.807154e-002
1.062630e+003;4.800463e-002
1.064558e+003;4.851284e-002
1.066487e+003;4.926245e-002
1.068416e+003;4.970054e-002
1.070344e+003;5.014071e-002
1.072273e+003;5.011059e-002
1.074201e+003;5.026851e-002
1.076130e+003;5.076039e-002
1.078058e+003;5.079402e-002
1.079987e+003;4.995585e-002
1.081915e+003;4.869846e-002
1.083844e+003;4.735842e-002
1.085773e+003;4.679929e-002
1.087701e+003;4.689382e-002
1.089630e+003;4.644726e-002
1.091558e+003;4.456942e-002
1.093487e+003;4.282577e-002
1.095415e+003;4.224199e-002
1.097344e+003;4.206531e-002
1.099272e+003;4.215274e-002
1.101201e+003;4.198493e-002
1.103129e+003;4.194366e-002
1.105058e+003;4.191684e-002
1.106987e+003;4.116482e-002
1.108915e+003;4.042104e-002
1.110844e+003;3.968532e-002
1.112772e+003;3.978546e-002
1.114701e+003;4.013977e-002
1.116629e+003;4.034995e-002
1.118558e+003;4.024223e-002
1.120486e+003;3.994415e-002
1.122415e+003;3.964154e-002
1.124344e+003;3.949317e-002
1.126272e+003;3.961730e-002
1.128201e+003;3.949147e-002
1.130129e+003;3.949669e-002
1.132058e+003;3.970221e-002
1.133986e+003;3.957759e-002
1.135915e+003;3.970199e-002
1.137843e+003;4.006945e-002
1.139772e+003;4.004936e-002
1.141700e+003;4.061168e-002
1.143629e+003;4.173172e-002
1.145557e+003;4.234714e-002
1.147486e+003;4.281147e-002
1.149415e+003;4.245074e-002
1.151343e+003;4.201764e-002
1.153272e+003;4.213851e-002
1.155200e+003;4.170980e-002
1.157129e+003;4.131912e-002
1.159057e+003;4.100551e-002
1.160986e+003;4.097630e-002
1.162914e+003;4.124322e-002
1.164843e+003;4.122237e-002
1.166771e+003;4.118001e-002
1.168700e+003;4.123276e-002
1.170629e+003;4.122544e-002
1.172557e+003;4.100154e-002
1.174486e+003;4.087589e-002
1.176414e+003;4.066145e-002
1.178343e+003;3.960906e-002
1.180271e+003;3.915658e-002
1.182200e+003;3.948559e-002
1.184128e+003;3.937180e-002
1.186057e+003;3.888439e-002
1.187986e+003;3.868143e-002
1.189914e+003;3.839984e-002
1.191843e+003;3.819110e-002
1.193771e+003;3.811086e-002
1.195700e+003;3.832524e-002
1.197628e+003;3.838503e-002
1.199557e+003;3.801144e-002
1.201485e+003;3.769594e-002
1.203414e+003;3.767404e-002
1.205343e+003;3.777654e-002
1.207271e+003;3.757587e-002
1.209200e+003;3.754950e-002
1.211128e+003;3.780549e-002
1.213057e+003;3.785982e-002
1.214985e+003;3.792403e-002
1.216914e+003;3.800815e-002
1.218842e+003;3.815221e-002
1.220771e+003;3.842836e-002
1.222699e+003;3.844389e-002
1.224628e+003;3.828789e-002
1.226557e+003;3.806489e-002
1.228485e+003;3.840190e-002
1.230414e+003;3.859473e-002
1.232342e+003;3.867336e-002
1.234271e+003;3.902882e-002
1.236199e+003;3.916445e-002
1.238128e+003;3.903966e-002
1.240056e+003;3.887653e-002
1.241985e+003;3.888530e-002
1.243913e+003;3.904354e-002
1.245842e+003;3.944233e-002
1.247771e+003;4.023528e-002
1.249699e+003;4.054998e-002
1.251628e+003;4.100802e-002
1.253556e+003;4.218805e-002
1.255485e+003;4.298172e-002
1.257413e+003;4.293552e-002
1.259342e+003;4.247727e-002
1.261270e+003;4.188020e-002
1.263199e+003;4.153005e-002
1.265127e+003;4.192198e-002
1.267056e+003;4.252462e-002
1.268985e+003;4.262827e-002
1.270913e+003;4.242561e-002
1.272842e+003;4.246587e-002
1.274770e+003;4.267784e-002
1.276699e+003;4.285557e-002
1.278627e+003;4.265020e-002
1.280556e+003;4.244892e-002
1.282484e+003;4.256300e-002
1.284413e+003;4.297002e-002
1.286342e+003;4.316606e-002
1.288270e+003;4.285191e-002
1.290199e+003;4.274577e-002
1.292127e+003;4.328095e-002
1.294056e+003;4.376226e-002
1.295984e+003;4.413651e-002
1.297913e+003;4.455062e-002
1.299841e+003;4.456289e-002
1.301770e+003;4.435851e-002
1.303698e+003;4.432937e-002
1.305627e+003;4.440288e-002
1.307556e+003;4.426402e-002
1.309484e+003;4.344937e-002
1.311413e+003;4.252993e-002
1.313341e+003;4.180898e-002
1.315270e+003;4.094430e-002
1.317198e+003;4.000947e-002
1.319127e+003;3.938294e-002
1.321055e+003;3.914041e-002
1.322984e+003;3.859064e-002
1.324912e+003;3.783864e-002
1.326841e+003;3.747418e-002
1.328770e+003;3.721174e-002
1.330698e+003;3.714279e-002
1.332627e+003;3.736150e-002
1.334555e+003;3.763368e-002
1.336484e+003;3.769955e-002
1.338412e+003;3.783246e-002
1.340341e+003;3.878113e-002
1.342269e+003;4.041930e-002
1.344198e+003;4.167803e-002
1.346126e+003;4.241782e-002
1.348055e+003;4.306254e-002
1.349984e+003;4.375467e-002
1.351912e+003;4.403789e-002
1.353841e+003;4.394853e-002
1.355769e+003;4.367886e-002
1.357698e+003;4.337570e-002
1.359626e+003;4.334164e-002
1.361555e+003;4.373170e-002
1.363483e+003;4.503334e-002
1.365412e+003;4.675343e-002
1.367341e+003;4.748914e-002
1.369269e+003;4.769699e-002
1.371198e+003;4.699065e-002
1.373126e+003;4.512171e-002
1.375055e+003;4.360233e-002
1.376983e+003;4.288044e-002
1.378912e+003;4.198837e-002
1.380840e+003;4.101268e-002
1.382769e+003;4.030865e-002
1.384698e+003;3.975039e-002
1.386626e+003;3.869987e-002
1.388555e+003;3.852977e-002
1.390483e+003;3.890236e-002
1.392412e+003;3.836382e-002
1.394340e+003;3.741242e-002
1.396269e+003;3.784359e-002
1.398197e+003;3.824440e-002
1.400126e+003;3.883725e-002
1.402054e+003;3.943591e-002
1.403983e+003;3.928812e-002
1.405911e+003;3.969716e-002
1.407840e+003;4.031723e-002
1.409769e+003;4.079271e-002
1.411697e+003;4.139981e-002
1.413626e+003;4.190607e-002
1.415554e+003;4.215373e-002
1.417483e+003;4.143574e-002
1.419411e+003;4.143443e-002
1.421340e+003;4.446035e-002
1.423268e+003;4.717259e-002
1.425197e+003;4.953852e-002
1.427125e+003;5.203105e-002
1.429054e+003;5.431611e-002
1.430983e+003;5.725427e-002
1.432911e+003;5.992145e-002
1.434840e+003;6.046277e-002
1.436768e+003;6.118105e-002
1.438697e+003;6.494398e-002
1.440625e+003;6.756933e-002
1.442554e+003;6.884556e-002
1.444482e+003;7.002902e-002
1.446411e+003;7.135890e-002
1.448340e+003;7.347444e-002
1.450268e+003;7.705653e-002
1.452197e+003;8.143899e-002
1.454125e+003;8.586054e-002
1.456054e+003;8.889313e-002
1.457982e+003;9.948689e-002
1.459911e+003;1.206997e-001
1.461839e+003;1.376733e-001
1.463768e+003;1.397727e-001
1.465697e+003;1.437357e-001
1.467625e+003;1.589100e-001
1.469554e+003;1.821759e-001
1.471482e+003;1.986554e-001
1.473411e+003;1.773058e-001
1.475339e+003;1.283363e-001
1.477268e+003;9.001729e-002
1.479196e+003;7.183129e-002
1.481125e+003;6.350680e-002
1.483053e+003;5.877871e-002
1.484982e+003;5.504230e-002
1.486911e+003;5.184228e-002
1.488839e+003;4.921617e-002
1.490768e+003;4.804086e-002
1.492696e+003;4.793883e-002
1.494625e+003;4.588898e-002
1.496553e+003;4.358390e-002
1.498482e+003;4.386294e-002
1.500410e+003;4.441081e-002
1.502339e+003;4.399180e-002
1.504267e+003;4.005662e-002
1.506196e+003;3.547920e-002
1.508125e+003;3.708195e-002
1.510053e+003;4.007061e-002
1.511982e+003;4.064013e-002
1.513910e+003;4.056380e-002
1.515839e+003;3.947419e-002
1.517767e+003;3.879555e-002
1.519696e+003;3.708877e-002
1.521624e+003;3.582327e-002
1.523553e+003;3.787128e-002
1.525481e+003;3.875656e-002
1.527410e+003;3.936455e-002
1.529339e+003;4.031868e-002
1.531267e+003;4.021242e-002
1.533196e+003;3.921254e-002
1.535124e+003;4.010706e-002
1.537053e+003;3.829531e-002
1.538981e+003;3.300314e-002
1.540910e+003;3.279677e-002
1.542838e+003;3.592278e-002
1.544767e+003;3.782107e-002
1.546695e+003;3.930934e-002
1.548624e+003;3.954336e-002
1.550553e+003;3.922831e-002
1.552481e+003;3.827096e-002
1.554410e+003;3.651163e-002
1.556338e+003;3.375612e-002
1.558267e+003;2.886330e-002
1.560195e+003;3.048937e-002
1.562124e+003;3.608391e-002
1.564052e+003;3.784110e-002
1.565981e+003;3.773714e-002
1.567910e+003;3.632221e-002
1.569838e+003;3.532095e-002
1.571767e+003;3.697590e-002
1.573695e+003;3.629022e-002
1.575624e+003;3.327088e-002
1.577552e+003;3.515655e-002
1.579481e+003;3.839130e-002
1.581409e+003;3.897387e-002
1.583338e+003;3.898768e-002
1.585266e+003;3.895600e-002
1.587195e+003;3.879794e-002
1.589124e+003;3.849573e-002
1.591052e+003;3.839426e-002
1.592981e+003;3.835977e-002
1.594909e+003;3.858970e-002
1.596838e+003;3.883170e-002
1.598766e+003;3.885928e-002
1.600695e+003;3.886316e-002
1.602623e+003;3.913265e-002
1.604552e+003;3.928130e-002
1.606480e+003;3.917192e-002
1.608409e+003;3.895248e-002
1.610338e+003;3.914059e-002
1.612266e+003;3.941117e-002
1.614195e+003;3.792721e-002
1.616123e+003;3.482654e-002
1.618052e+003;3.623796e-002
1.619980e+003;3.899152e-002
1.621909e+003;3.845841e-002
1.623837e+003;3.793716e-002
1.625766e+003;3.884145e-002
1.627694e+003;3.945163e-002
1.629623e+003;4.036104e-002
1.631552e+003;4.074332e-002
1.633480e+003;3.875374e-002
1.635409e+003;3.636062e-002
1.637337e+003;3.836867e-002
1.639266e+003;4.120952e-002
1.641194e+003;4.227504e-002
1.643123e+003;4.188024e-002
1.645051e+003;3.949531e-002
1.646980e+003;3.860426e-002
1.648909e+003;4.013163e-002
1.650837e+003;3.665084e-002
1.652766e+003;3.120998e-002
1.654694e+003;3.541340e-002
1.656623e+003;4.052488e-002
1.658551e+003;4.136628e-002
1.660480e+003;4.051218e-002
1.662408e+003;3.942993e-002
1.664337e+003;3.982160e-002
1.666266e+003;3.961835e-002
1.668194e+003;3.772485e-002
1.670123e+003;3.719571e-002
1.672051e+003;3.810902e-002
1.673980e+003;3.707473e-002
1.675908e+003;3.684318e-002
1.677837e+003;3.876624e-002
1.679765e+003;3.907305e-002
1.681694e+003;3.689476e-002
1.683622e+003;3.243726e-002
1.685551e+003;3.356246e-002
1.687479e+003;3.750094e-002
1.689408e+003;3.847926e-002
1.691337e+003;3.869734e-002
1.693265e+003;3.723297e-002
1.695194e+003;3.355777e-002
1.697122e+003;3.353171e-002
1.699051e+003;3.221888e-002
1.700979e+003;3.170699e-002
1.702908e+003;3.494291e-002
1.704836e+003;3.486212e-002
1.706765e+003;3.489091e-002
1.708693e+003;3.551041e-002
1.710622e+003;3.567940e-002
1.712551e+003;3.463315e-002
1.714479e+003;3.226978e-002
1.716408e+003;2.902902e-002
1.718336e+003;2.917595e-002
1.720265e+003;3.202077e-002
1.722193e+003;3.279445e-002
1.724122e+003;3.241638e-002
1.726050e+003;3.230190e-002
1.727979e+003;3.208547e-002
1.729908e+003;3.156725e-002
1.731836e+003;2.904177e-002
1.733765e+003;2.588988e-002
1.735693e+003;2.848128e-002
1.737622e+003;3.137869e-002
1.739550e+003;3.115640e-002
1.741479e+003;3.147045e-002
1.743407e+003;3.163881e-002
1.745336e+003;3.136189e-002
1.747265e+003;3.040130e-002
1.749193e+003;2.901471e-002
1.751122e+003;2.797186e-002
1.753050e+003;2.864901e-002
1.754979e+003;2.818698e-002
1.756907e+003;2.710803e-002
1.758836e+003;2.689661e-002
1.760764e+003;2.597996e-002
1.762693e+003;2.575267e-002
1.764621e+003;2.627340e-002
1.766550e+003;2.527247e-002
1.768479e+003;2.431094e-002
1.770407e+003;2.324562e-002
1.772336e+003;2.198592e-002
1.774264e+003;2.345201e-002
1.776193e+003;2.476687e-002
1.778121e+003;2.462773e-002
1.780050e+003;2.429209e-002
1.781978e+003;2.415556e-002
1.783907e+003;2.391596e-002
1.785835e+003;2.399607e-002
1.787764e+003;2.426823e-002
1.789693e+003;2.343599e-002
1.791621e+003;2.195923e-002
1.793550e+003;2.233405e-002
1.795478e+003;2.387125e-002
1.797407e+003;2.411959e-002
1.799335e+003;2.363496e-002
1.801264e+003;2.355774e-002
1.803192e+003;2.415122e-002
1.805121e+003;2.462212e-002
1.807049e+003;2.473582e-002
1.808978e+003;2.426588e-002
1.810907e+003;2.378592e-002
1.812835e+003;2.400612e-002
1.814764e+003;2.426452e-002
1.816692e+003;2.430355e-002
1.818621e+003;2.463057e-002
1.820549e+003;2.478423e-002
1.822478e+003;2.431431e-002
1.824406e+003;2.322905e-002
1.826335e+003;2.289815e-002
1.828264e+003;2.258427e-002
1.830192e+003;2.254762e-002
1.832121e+003;2.325498e-002
1.834049e+003;2.315502e-002
1.835978e+003;2.276220e-002
1.837906e+003;2.270299e-002
1.839835e+003;2.282729e-002
1.841763e+003;2.226781e-002
1.843692e+003;2.102538e-002
1.845620e+003;2.173560e-002
1.847549e+003;2.289823e-002
1.849478e+003;2.312780e-002
1.851406e+003;2.322478e-002
1.853335e+003;2.315058e-002
1.855263e+003;2.296578e-002
1.857192e+003;2.289204e-002
1.859120e+003;2.293801e-002
1.861049e+003;2.284053e-002
1.862977e+003;2.291111e-002
1.864906e+003;2.289211e-002
1.866834e+003;2.229366e-002
1.868763e+003;2.193870e-002
1.870692e+003;2.275476e-002
1.872620e+003;2.349758e-002
1.874549e+003;2.394614e-002
1.876477e+003;2.434662e-002
1.878406e+003;2.440900e-002
1.880334e+003;2.456412e-002
1.882263e+003;2.485401e-002
1.884191e+003;2.539610e-002
1.886120e+003;2.609166e-002
1.888048e+003;2.655090e-002
1.889977e+003;2.698894e-002
1.891906e+003;2.789797e-002
1.893834e+003;2.843674e-002
1.895763e+003;2.834845e-002
1.897691e+003;2.812038e-002
1.899620e+003;2.808259e-002
1.901548e+003;2.833462e-002
1.903477e+003;2.830746e-002
1.905405e+003;2.776416e-002
1.907334e+003;2.705079e-002
1.909262e+003;2.662315e-002
1.911191e+003;2.667698e-002
1.913120e+003;2.634123e-002
1.915048e+003;2.552930e-002
1.916977e+003;2.489762e-002
1.918905e+003;2.523717e-002
1.920834e+003;2.555597e-002
1.922762e+003;2.512780e-002
1.924691e+003;2.525452e-002
1.926619e+003;2.564405e-002
1.928548e+003;2.558627e-002
1.930477e+003;2.528089e-002
1.932405e+003;2.515634e-002
1.934334e+003;2.523285e-002
1.936262e+003;2.526888e-002
1.938191e+003;2.518485e-002
1.940119e+003;2.490183e-002
1.942048e+003;2.437511e-002
1.943976e+003;2.423018e-002
1.945905e+003;2.449401e-002
1.947833e+003;2.463766e-002
1.949762e+003;2.475533e-002
1.951691e+003;2.482208e-002
1.953619e+003;2.494229e-002
1.955548e+003;2.509188e-002
1.957476e+003;2.502407e-002
1.959405e+003;2.483271e-002
1.961333e+003;2.482619e-002
1.963262e+003;2.502456e-002
1.965190e+003;2.504099e-002
1.967119e+003;2.467500e-002
1.969047e+003;2.458141e-002
1.970976e+003;2.454109e-002
1.972905e+003;2.434767e-002
1.974833e+003;2.466978e-002
1.976762e+003;2.494177e-002
1.978690e+003;2.467202e-002
1.980619e+003;2.444724e-002
1.982547e+003;2.447129e-002
1.984476e+003;2.460543e-002
1.986404e+003;2.464800e-002
1.988333e+003;2.479511e-002
1.990261e+003;2.467897e-002
1.992190e+003;2.461335e-002
1.994119e+003;2.484148e-002
1.996047e+003;2.486366e-002
1.997976e+003;2.480945e-002
1.999904e+003;2.507907e-002
2.001833e+003;2.545674e-002
2.003761e+003;2.578193e-002
2.005690e+003;2.613329e-002
2.007618e+003;2.663629e-002
2.009547e+003;2.744853e-002
2.011476e+003;2.852020e-002
2.013404e+003;2.950407e-002
2.015333e+003;3.034185e-002
2.017261e+003;3.073558e-002
2.019190e+003;3.093165e-002
2.021118e+003;3.100278e-002
2.023047e+003;3.091329e-002
2.024975e+003;3.032355e-002
2.026904e+003;2.965298e-002
2.028833e+003;2.926707e-002
2.030761e+003;2.885501e-002
2.032690e+003;2.838343e-002
2.034618e+003;2.807715e-002
2.036547e+003;2.775081e-002
2.038475e+003;2.756449e-002
2.040404e+003;2.725798e-002
2.042332e+003;2.706059e-002
2.044261e+003;2.712093e-002
2.046189e+003;2.711035e-002
2.048118e+003;2.689259e-002
2.050047e+003;2.669326e-002
2.051975e+003;2.658528e-002
2.053904e+003;2.644704e-002
2.055832e+003;2.618217e-002
2.057761e+003;2.591928e-002
2.059689e+003;2.588028e-002
2.061618e+003;2.586600e-002
2.063546e+003;2.583035e-002
2.065475e+003;2.567843e-002
2.067404e+003;2.572279e-002
2.069332e+003;2.577996e-002
2.071260e+003;2.550909e-002
2.073189e+003;2.532055e-002
2.075118e+003;2.536986e-002
2.077046e+003;2.544680e-002
2.078975e+003;2.545895e-002
2.080903e+003;2.539372e-002
2.082832e+003;2.524037e-002
2.084760e+003;2.514700e-002
2.086689e+003;2.493520e-002
2.088617e+003;2.472737e-002
2.090546e+003;2.478483e-002
2.092475e+003;2.486352e-002
2.094403e+003;2.471828e-002
2.096332e+003;2.471096e-002
2.098260e+003;2.480868e-002
2.100189e+003;2.496735e-002
2.102117e+003;2.495149e-002
2.104046e+003;2.483987e-002
2.105974e+003;2.501375e-002
2.107903e+003;2.503316e-002
2.109832e+003;2.483791e-002
2.111760e+003;2.477893e-002
2.113688e+003;2.466897e-002
2.115617e+003;2.440613e-002
2.117546e+003;2.439491e-002
2.119474e+003;2.477357e-002
2.121403e+003;2.493910e-002
2.123331e+003;2.484373e-002
2.125260e+003;2.466357e-002
2.127188e+003;2.463769e-002
2.129117e+003;2.498936e-002
2.131045e+003;2.549406e-002
2.132974e+003;2.589502e-002
2.134903e+003;2.595608e-002
2.136831e+003;2.583453e-002
2.138760e+003;2.591513e-002
2.140688e+003;2.619530e-002
2.142617e+003;2.655023e-002
2.144545e+003;2.690250e-002
2.146474e+003;2.699670e-002
2.148402e+003;2.693997e-002
2.150331e+003;2.674781e-002
2.152260e+003;2.671652e-002
2.154188e+003;2.681445e-002
2.156117e+003;2.670654e-002
2.158045e+003;2.669707e-002
2.159974e+003;2.665320e-002
2.161902e+003;2.623876e-002
2.163831e+003;2.599977e-002
2.165759e+003;2.615609e-002
2.167688e+003;2.634715e-002
2.169616e+003;2.640595e-002
2.171545e+003;2.647208e-002
2.173474e+003;2.661621e-002
2.175402e+003;2.682710e-002
2.177331e+003;2.683352e-002
2.179259e+003;2.649187e-002
2.181188e+003;2.637669e-002
2.183116e+003;2.658672e-002
2.185045e+003;2.663108e-002
2.186973e+003;2.643433e-002
2.188902e+003;2.630311e-002
2.190831e+003;2.627326e-002
2.192759e+003;2.611418e-002
2.194688e+003;2.623250e-002
2.196616e+003;2.648916e-002
2.198545e+003;2.659937e-002
2.200473e+003;2.654065e-002
2.202402e+003;2.663809e-002
2.204330e+003;2.687560e-002
2.206259e+003;2.677261e-002
2.208188e+003;2.690860e-002
2.210116e+003;2.685685e-002
2.212044e+003;2.667462e-002
2.213973e+003;2.699483e-002
2.215902e+003;2.707368e-002
2.217830e+003;2.688254e-002
2.219759e+003;2.679372e-002
2.221687e+003;2.697413e-002
2.223616e+003;2.729717e-002
2.225544e+003;2.730765e-002
2.227473e+003;2.712940e-002
2.229401e+003;2.697283e-002
2.231330e+003;2.693782e-002
2.233259e+003;2.668769e-002
2.235187e+003;2.635711e-002
2.237116e+003;2.655558e-002
2.239044e+003;2.699765e-002
2.240973e+003;2.727978e-002
2.242901e+003;2.741401e-002
2.244830e+003;2.756238e-002
2.246758e+003;2.781456e-002
2.248687e+003;2.774957e-002
2.250615e+003;2.764044e-002
2.252544e+003;2.788278e-002
2.254473e+003;2.845931e-002
2.256401e+003;2.860559e-002
2.258330e+003;2.855070e-002
2.260258e+003;2.872051e-002
2.262187e+003;2.878417e-002
2.264115e+003;2.897057e-002
2.266044e+003;2.925920e-002
2.267972e+003;2.922649e-002
2.269901e+003;2.953039e-002
2.271830e+003;2.984650e-002
2.273758e+003;3.032195e-002
2.275687e+003;3.077612e-002
2.277615e+003;3.076332e-002
2.279544e+003;3.082485e-002
2.281472e+003;3.099723e-002
2.283401e+003;3.101022e-002
2.285329e+003;3.101616e-002
2.287258e+003;3.092564e-002
2.289187e+003;3.121806e-002
2.291115e+003;3.135248e-002
2.293043e+003;3.102762e-002
2.294972e+003;3.128564e-002
2.296901e+003;3.190964e-002
2.298829e+003;3.227445e-002
2.300758e+003;3.226810e-002
2.302686e+003;3.218470e-002
2.304615e+003;3.227830e-002
2.306543e+003;3.228609e-002
2.308472e+003;3.230629e-002
2.310400e+003;3.260807e-002
2.312329e+003;3.327318e-002
2.314258e+003;3.371898e-002
2.316186e+003;3.397842e-002
2.318115e+003;3.423731e-002
2.320043e+003;3.468181e-002
2.321972e+003;3.511808e-002
2.323900e+003;3.523100e-002
2.325829e+003;3.534999e-002
2.327757e+003;3.558355e-002
2.329686e+003;3.566735e-002
2.331615e+003;3.541387e-002
2.333543e+003;3.509383e-002
2.335472e+003;3.506333e-002
2.337400e+003;3.549016e-002
2.339329e+003;3.560646e-002
2.341257e+003;3.552321e-002
2.343186e+003;3.592922e-002
2.345114e+003;3.632254e-002
2.347043e+003;3.610263e-002
2.348971e+003;3.568433e-002
2.350900e+003;3.510572e-002
2.352829e+003;3.423727e-002
2.354757e+003;3.314760e-002
2.356686e+003;3.239549e-002
2.358614e+003;3.178388e-002
2.360543e+003;3.097207e-002
2.362471e+003;3.035379e-002
2.364400e+003;3.026255e-002
2.366328e+003;3.022589e-002
2.368257e+003;3.031726e-002
2.370186e+003;3.034398e-002
2.372114e+003;3.023846e-002
2.374042e+003;2.996293e-002
2.375971e+003;2.964240e-002
2.377900e+003;2.983095e-002
2.379828e+003;3.021413e-002
2.381757e+003;3.039050e-002
2.383685e+003;3.042763e-002
2.385614e+003;3.023502e-002
2.387542e+003;3.028575e-002
2.389471e+003;3.078025e-002
2.391399e+003;3.093371e-002
2.393328e+003;3.070450e-002
2.395257e+003;3.071100e-002
2.397185e+003;3.066858e-002
2.399114e+003;3.083236e-002
2.401042e+003;3.108286e-002
2.402971e+003;3.103331e-002
2.404899e+003;3.119200e-002
2.406828e+003;3.140334e-002
2.408756e+003;3.151516e-002
2.410685e+003;3.176117e-002
2.412614e+003;3.222081e-002
2.414542e+003;3.216768e-002
2.416471e+003;3.218324e-002
2.418399e+003;3.250743e-002
2.420328e+003;3.260782e-002
2.422256e+003;3.236297e-002
2.424185e+003;3.191745e-002
2.426113e+003;3.157894e-002
2.428042e+003;3.134436e-002
2.429970e+003;3.093610e-002
2.431899e+003;3.099299e-002
2.433828e+003;3.133809e-002
2.435756e+003;3.123757e-002
2.437685e+003;3.066236e-002
2.439613e+003;3.018096e-002
2.441542e+003;3.015265e-002
2.443470e+003;3.029658e-002
2.445399e+003;3.050106e-002
2.447327e+003;3.071310e-002
2.449256e+003;3.064483e-002
2.451185e+003;3.054436e-002
2.453113e+003;3.043282e-002
2.455042e+003;3.044263e-002
2.456970e+003;3.063452e-002
2.458899e+003;3.056640e-002
2.460827e+003;3.066375e-002
2.462756e+003;3.086583e-002
2.464684e+003;3.083624e-002
2.466613e+003;3.085025e-002
2.468542e+003;3.132210e-002
2.470470e+003;3.206521e-002
2.472398e+003;3.271591e-002
2.474327e+003;3.300497e-002
2.476256e+003;3.315178e-002
2.478184e+003;3.326767e-002
2.480113e+003;3.331213e-002
2.482041e+003;3.322578e-002
2.483970e+003;3.321476e-002
2.485898e+003;3.322360e-002
2.487827e+003;3.287943e-002
2.489755e+003;3.277086e-002
2.491684e+003;3.313494e-002
2.493613e+003;3.340516e-002
2.495541e+003;3.322213e-002
2.497470e+003;3.310454e-002
2.499398e+003;3.327103e-002
2.501327e+003;3.354456e-002
2.503255e+003;3.365707e-002
2.505184e+003;3.364776e-002
2.507112e+003;3.364193e-002
2.509041e+003;3.376736e-002
2.510969e+003;3.393110e-002
2.512898e+003;3.397344e-002
2.514827e+003;3.427940e-002
2.516755e+003;3.486276e-002
2.518684e+003;3.522317e-002
2.520612e+003;3.547812e-002
2.522541e+003;3.572757e-002
2.524469e+003;3.589176e-002
2.526398e+003;3.628133e-002
2.528326e+003;3.666386e-002
2.530255e+003;3.682508e-002
2.532184e+003;3.636786e-002
2.534112e+003;3.596611e-002
2.536041e+003;3.580949e-002
2.537969e+003;3.540694e-002
2.539898e+003;3.525170e-002
2.541826e+003;3.554784e-002
2.543755e+003;3.603293e-002
2.545683e+003;3.666790e-002
2.547612e+003;3.724477e-002
2.549541e+003;3.743293e-002
2.551469e+003;3.765572e-002
2.553397e+003;3.811267e-002
2.555326e+003;3.817265e-002
2.557255e+003;3.798883e-002
2.559183e+003;3.810323e-002
2.561112e+003;3.816241e-002
2.563040e+003;3.820152e-002
2.564969e+003;3.845917e-002
2.566897e+003;3.847405e-002
2.568826e+003;3.853165e-002
2.570754e+003;3.886478e-002
2.572683e+003;3.912921e-002
2.574612e+003;3.939136e-002
2.576540e+003;3.970649e-002
2.578469e+003;4.009925e-002
2.580397e+003;4.062346e-002
2.582326e+003;4.094703e-002
2.584254e+003;4.106928e-002
2.586183e+003;4.125837e-002
2.588111e+003;4.185473e-002
2.590040e+003;4.231105e-002
2.591969e+003;4.258248e-002
2.593897e+003;4.291347e-002
2.595826e+003;4.341330e-002
2.597754e+003;4.401127e-002
2.599683e+003;4.460026e-002
2.601611e+003;4.512222e-002
2.603540e+003;4.521392e-002
2.605468e+003;4.530364e-002
2.607397e+003;4.597325e-002
2.609325e+003;4.673582e-002
2.611254e+003;4.702325e-002
2.613183e+003;4.732461e-002
2.615111e+003;4.782130e-002
2.617040e+003;4.820155e-002
2.618968e+003;4.893063e-002
2.620897e+003;5.009237e-002
2.622825e+003;5.088062e-002
2.624754e+003;5.133124e-002
2.626682e+003;5.174671e-002
2.628611e+003;5.208570e-002
2.630540e+003;5.221542e-002
2.632468e+003;5.259183e-002
2.634396e+003;5.280431e-002
2.636325e+003;5.269821e-002
2.638254e+003;5.257152e-002
2.640182e+003;5.258368e-002
2.642111e+003;5.250257e-002
2.644039e+003;5.242715e-002
2.645968e+003;5.220649e-002
2.647896e+003;5.194709e-002
2.649825e+003;5.201969e-002
2.651753e+003;5.199310e-002
2.653682e+003;5.200823e-002
2.655611e+003;5.215840e-002
2.657539e+003;5.205249e-002
2.659468e+003;5.198836e-002
2.661396e+003;5.208701e-002
2.663325e+003;5.199683e-002
2.665253e+003;5.180431e-002
2.667182e+003;5.163045e-002
2.669110e+003;5.141672e-002
2.671039e+003;5.124119e-002
2.672968e+003;5.083287e-002
2.674896e+003;5.059949e-002
2.676825e+003;5.056342e-002
2.678753e+003;5.016024e-002
2.680682e+003;4.989057e-002
2.682610e+003;4.962372e-002
2.684539e+003;4.962119e-002
2.686467e+003;4.975033e-002
2.688396e+003;4.945099e-002
2.690324e+003;4.926360e-002
2.692253e+003;4.936601e-002
2.694182e+003;4.967342e-002
2.696110e+003;5.010196e-002
2.698039e+003;5.033064e-002
2.699967e+003;5.052009e-002
2.701896e+003;5.072073e-002
2.703824e+003;5.099016e-002
2.705753e+003;5.141862e-002
2.707681e+003;5.197301e-002
2.709610e+003;5.243029e-002
2.711539e+003;5.259920e-002
2.713467e+003;5.280944e-002
2.715396e+003;5.298410e-002
2.717324e+003;5.322105e-002
2.719253e+003;5.338864e-002
2.721181e+003;5.363091e-002
2.723110e+003;5.400817e-002
2.725038e+003;5.470393e-002
2.726967e+003;5.512498e-002
2.728896e+003;5.531883e-002
2.730824e+003;5.595608e-002
2.732752e+003;5.668986e-002
2.734681e+003;5.701708e-002
2.736610e+003;5.693816e-002
2.738538e+003;5.700393e-002
2.740467e+003;5.769797e-002
2.742395e+003;5.821406e-002
2.744324e+003;5.810117e-002
2.746252e+003;5.793507e-002
2.748181e+003;5.801686e-002
2.750109e+003;5.817356e-002
2.752038e+003;5.833524e-002
2.753967e+003;5.876058e-002
2.755895e+003;5.912559e-002
2.757824e+003;5.955277e-002
2.759752e+003;6.020122e-002
2.761681e+003;6.092535e-002
2.763609e+003;6.151469e-002
2.765538e+003;6.238280e-002
2.767466e+003;6.286681e-002
2.769395e+003;6.302293e-002
2.771323e+003;6.351282e-002
2.773252e+003;6.443898e-002
2.775181e+003;6.570337e-002
2.777109e+003;6.649759e-002
2.779038e+003;6.705248e-002
2.780966e+003;6.771290e-002
2.782895e+003;6.867409e-002
2.784823e+003;6.974063e-002
2.786752e+003;7.064918e-002
2.788680e+003;7.132169e-002
2.790609e+003;7.224134e-002
2.792538e+003;7.335693e-002
2.794466e+003;7.425641e-002
2.796395e+003;7.508504e-002
2.798323e+003;7.607630e-002
2.800252e+003;7.691344e-002
2.802180e+003;7.764778e-002
2.804109e+003;7.857165e-002
2.806037e+003;7.995292e-002
2.807966e+003;8.149166e-002
2.809895e+003;8.280533e-002
2.811823e+003;8.436876e-002
2.813751e+003;8.596829e-002
2.815680e+003;8.724117e-002
2.817609e+003;8.857553e-002
2.819537e+003;9.031682e-002
2.821466e+003;9.283055e-002
2.823394e+003;9.560765e-002
2.825323e+003;9.834954e-002
2.827251e+003;1.017037e-001
2.829180e+003;1.057835e-001
2.831108e+003;1.108817e-001
2.833037e+003;1.171087e-001
2.834966e+003;1.248257e-001
2.836894e+003;1.352152e-001
2.838823e+003;1.494101e-001
2.840751e+003;1.688987e-001
2.842680e+003;1.958639e-001
2.844608e+003;2.310395e-001
2.846537e+003;2.701958e-001
2.848465e+003;2.965448e-001
2.850394e+003;2.877523e-001
2.852323e+003;2.472921e-001
2.854251e+003;2.013223e-001
2.856180e+003;1.654941e-001
2.858108e+003;1.410427e-001
2.860037e+003;1.250017e-001
2.861965e+003;1.148676e-001
2.863894e+003;1.089238e-001
2.865822e+003;1.058993e-001
2.867751e+003;1.050619e-001
2.869679e+003;1.059663e-001
2.871608e+003;1.082906e-001
2.873536e+003;1.118792e-001
2.875465e+003;1.161432e-001
2.877394e+003;1.216641e-001
2.879322e+003;1.281153e-001
2.881251e+003;1.340591e-001
2.883179e+003;1.397225e-001
2.885108e+003;1.454740e-001
2.887036e+003;1.510295e-001
2.888965e+003;1.574042e-001
2.890893e+003;1.642209e-001
2.892822e+003;1.703677e-001
2.894750e+003;1.768199e-001
2.896679e+003;1.835893e-001
2.898608e+003;1.902799e-001
2.900536e+003;1.976311e-001
2.902465e+003;2.069486e-001
2.904393e+003;2.186531e-001
2.906322e+003;2.327830e-001
2.908250e+003;2.507217e-001
2.910179e+003;2.730893e-001
2.912107e+003;2.986081e-001
2.914036e+003;3.215053e-001
2.915965e+003;3.325187e-001
2.917893e+003;3.245060e-001
2.919822e+003;3.003886e-001
2.921750e+003;2.683725e-001
2.923679e+003;2.357005e-001
2.925607e+003;2.062884e-001
2.927536e+003;1.808832e-001
2.929464e+003;1.597962e-001
2.931393e+003;1.426264e-001
2.933322e+003;1.283403e-001
2.935250e+003;1.159396e-001
2.937178e+003;1.055395e-001
2.939107e+003;9.739698e-002
2.941036e+003;9.048834e-002
2.942964e+003;8.476520e-002
2.944893e+003;7.990751e-002
2.946821e+003;7.589521e-002
2.948750e+003;7.253237e-002
2.950678e+003;6.994381e-002
2.952607e+003;6.803419e-002
2.954535e+003;6.594296e-002
2.956464e+003;6.434206e-002
2.958393e+003;6.307449e-002
2.960321e+003;6.200125e-002
2.962250e+003;6.131485e-002
2.964178e+003;6.081534e-002
2.966107e+003;6.025424e-002
2.968035e+003;5.946225e-002
2.969964e+003;5.895883e-002
2.971892e+003;5.849546e-002
2.973821e+003;5.794356e-002
2.975750e+003;5.707724e-002
2.977678e+003;5.633017e-002
2.979607e+003;5.577325e-002
2.981535e+003;5.492531e-002
2.983464e+003;5.409467e-002
2.985392e+003;5.369056e-002
2.987321e+003;5.333200e-002
2.989249e+003;5.280502e-002
2.991178e+003;5.215186e-002
2.993106e+003;5.192547e-002
2.995035e+003;5.194563e-002
2.996964e+003;5.142802e-002
2.998892e+003;5.081052e-002
3.000821e+003;4.993797e-002
3.002749e+003;4.946878e-002
3.004678e+003;4.955319e-002
3.006606e+003;4.914667e-002
3.008535e+003;4.883496e-002
3.010463e+003;4.882625e-002
3.012392e+003;4.855286e-002
3.014321e+003;4.835374e-002
3.016249e+003;4.806310e-002
3.018177e+003;4.762411e-002
3.020106e+003;4.732018e-002
3.022035e+003;4.746977e-002
3.023963e+003;4.720517e-002
3.025892e+003;4.670996e-002
3.027820e+003;4.661551e-002
3.029749e+003;4.676848e-002
3.031677e+003;4.660268e-002
3.033606e+003;4.593292e-002
3.035534e+003;4.550376e-002
3.037463e+003;4.552367e-002
3.039392e+003;4.540612e-002
3.041320e+003;4.528331e-002
3.043249e+003;4.503985e-002
3.045177e+003;4.467378e-002
3.047106e+003;4.420195e-002
3.049034e+003;4.370821e-002
3.050963e+003;4.405623e-002
3.052891e+003;4.436691e-002
3.054820e+003;4.389783e-002
3.056749e+003;4.329716e-002
3.058677e+003;4.306316e-002
3.060606e+003;4.302811e-002
3.062534e+003;4.277542e-002
3.064463e+003;4.258018e-002
3.066391e+003;4.242045e-002
3.068320e+003;4.205440e-002
3.070248e+003;4.168430e-002
3.072177e+003;4.145433e-002
3.074105e+003;4.101712e-002
3.076034e+003;4.075683e-002
3.077963e+003;4.106079e-002
3.079891e+003;4.070552e-002
3.081820e+003;4.015351e-002
3.083748e+003;4.033101e-002
3.085677e+003;4.068881e-002
3.087605e+003;4.071862e-002
3.089534e+003;4.013076e-002
3.091462e+003;3.938497e-002
3.093391e+003;3.917729e-002
3.095320e+003;3.880239e-002
3.097248e+003;3.843618e-002
3.099177e+003;3.803241e-002
3.101105e+003;3.764632e-002
3.103034e+003;3.715965e-002
3.104962e+003;3.656007e-002
3.106891e+003;3.634786e-002
3.108819e+003;3.614353e-002
3.110748e+003;3.559614e-002
3.112677e+003;3.482585e-002
3.114605e+003;3.422494e-002
3.116533e+003;3.390040e-002
3.118462e+003;3.329535e-002
3.120391e+003;3.295849e-002
3.122319e+003;3.275010e-002
3.124248e+003;3.234862e-002
3.126176e+003;3.206115e-002
3.128105e+003;3.180773e-002
3.130033e+003;3.159740e-002
3.131962e+003;3.132948e-002
3.133890e+003;3.132577e-002
3.135819e+003;3.097869e-002
3.137748e+003;3.044387e-002
3.139676e+003;3.079796e-002
3.141605e+003;3.127852e-002
3.143533e+003;3.069415e-002
3.145462e+003;3.033489e-002
3.147390e+003;3.042941e-002
3.149319e+003;3.039629e-002
3.151247e+003;3.024376e-002
3.153176e+003;3.031655e-002
3.155104e+003;3.039942e-002
3.157033e+003;3.021488e-002
3.158962e+003;3.007225e-002
3.160890e+003;2.990233e-002
3.162819e+003;2.997255e-002
3.164747e+003;2.988121e-002
3.166676e+003;2.954113e-002
3.168604e+003;2.963556e-002
3.170533e+003;2.961480e-002
3.172461e+003;2.961278e-002
3.174390e+003;2.951751e-002
3.176319e+003;2.937682e-002
3.178247e+003;2.937143e-002
3.180176e+003;2.924552e-002
3.182104e+003;2.917315e-002
3.184033e+003;2.915579e-002
3.185961e+003;2.919576e-002
3.187890e+003;2.902102e-002
3.189818e+003;2.903621e-002
3.191747e+003;2.928468e-002
3.193676e+003;2.949510e-002
3.195604e+003;2.961378e-002
3.197532e+003;2.934693e-002
3.199461e+003;2.952993e-002
3.201390e+003;2.989715e-002
3.203318e+003;2.940869e-002
3.205247e+003;2.889528e-002
3.207175e+003;2.929755e-002
3.209104e+003;2.939192e-002
3.211032e+003;2.906799e-002
3.212961e+003;2.887084e-002
3.214889e+003;2.898917e-002
3.216818e+003;2.894564e-002
3.218747e+003;2.888965e-002
3.220675e+003;2.967199e-002
3.222604e+003;2.986162e-002
3.224532e+003;2.979408e-002
3.226461e+003;2.967625e-002
3.228389e+003;2.956376e-002
3.230318e+003;2.971981e-002
3.232246e+003;2.959182e-002
3.234175e+003;2.944950e-002
3.236104e+003;2.950124e-002
3.238032e+003;2.931790e-002
3.239961e+003;2.876119e-002
3.241889e+003;2.902264e-002
3.243818e+003;2.952149e-002
3.245746e+003;2.920926e-002
3.247675e+003;2.933970e-002
3.249603e+003;2.979841e-002
3.251532e+003;2.998174e-002
3.253460e+003;2.939263e-002
3.255389e+003;2.915030e-002
3.257318e+003;2.912712e-002
3.259246e+003;2.908205e-002
3.261175e+003;2.881823e-002
3.263103e+003;2.891500e-002
3.265032e+003;2.940667e-002
3.266960e+003;2.946138e-002
3.268889e+003;2.952745e-002
3.270817e+003;2.968391e-002
3.272746e+003;2.976122e-002
3.274675e+003;3.007104e-002
3.276603e+003;3.024706e-002
3.278531e+003;2.964748e-002
3.280460e+003;2.927363e-002
3.282389e+003;2.977024e-002
3.284317e+003;3.013986e-002
3.286246e+003;3.023612e-002
3.288174e+003;3.030003e-002
3.290103e+003;2.977222e-002
3.292031e+003;2.932162e-002
3.293960e+003;2.928702e-002
3.295888e+003;2.935218e-002
3.297817e+003;2.956639e-002
3.299746e+003;2.981158e-002
3.301674e+003;2.976381e-002
3.303603e+003;2.957440e-002
3.305531e+003;2.906640e-002
3.307460e+003;2.888370e-002
3.309388e+003;2.966986e-002
3.311317e+003;3.014466e-002
3.313245e+003;3.011422e-002
3.315174e+003;2.973110e-002
3.317103e+003;2.944241e-002
3.319031e+003;2.930719e-002
3.320960e+003;2.923198e-002
3.322888e+003;2.961644e-002
3.324817e+003;2.991682e-002
3.326745e+003;2.968175e-002
3.328674e+003;2.966610e-002
3.330602e+003;2.971783e-002
3.332531e+003;2.947787e-002
3.334459e+003;2.929043e-002
3.336388e+003;2.950695e-002
3.338317e+003;2.958607e-002
3.340245e+003;2.951567e-002
3.342174e+003;2.936707e-002
3.344102e+003;2.924538e-002
3.346031e+003;2.921585e-002
3.347959e+003;2.919289e-002
3.349888e+003;2.910909e-002
3.351816e+003;2.949149e-002
3.353745e+003;2.979461e-002
3.355674e+003;2.977645e-002
3.357602e+003;2.984185e-002
3.359531e+003;2.963573e-002
3.361459e+003;2.959998e-002
3.363388e+003;2.981821e-002
3.365316e+003;2.982457e-002
3.367245e+003;2.979167e-002
3.369173e+003;2.990414e-002
3.371102e+003;2.993623e-002
3.373031e+003;2.969242e-002
3.374959e+003;2.908808e-002
3.376887e+003;2.880551e-002
3.378816e+003;2.895379e-002
3.380745e+003;2.899282e-002
3.382673e+003;2.891833e-002
3.384602e+003;2.876710e-002
3.386530e+003;2.864423e-002
3.388459e+003;2.874533e-002
3.390387e+003;2.875733e-002
3.392316e+003;2.851061e-002
3.394244e+003;2.845319e-002
3.396173e+003;2.826842e-002
3.398102e+003;2.813880e-002
3.400030e+003;2.830954e-002
3.401959e+003;2.805035e-002
3.403887e+003;2.777203e-002
3.405816e+003;2.795027e-002
3.407744e+003;2.807990e-002
3.409673e+003;2.793172e-002
3.411601e+003;2.775790e-002
3.413530e+003;2.781181e-002
3.415458e+003;2.755941e-002
3.417387e+003;2.760425e-002
3.419316e+003;2.829052e-002
3.421244e+003;2.837773e-002
3.423173e+003;2.796462e-002
3.425101e+003;2.779517e-002
3.427030e+003;2.804254e-002
3.428958e+003;2.818804e-002
3.430887e+003;2.784014e-002
3.432815e+003;2.740604e-002
3.434744e+003;2.694046e-002
3.436673e+003;2.715321e-002
3.438601e+003;2.787738e-002
3.440530e+003;2.813911e-002
3.442458e+003;2.752330e-002
3.444387e+003;2.660071e-002
3.446315e+003;2.641623e-002
3.448244e+003;2.693532e-002
3.450172e+003;2.713363e-002
3.452101e+003;2.674104e-002
3.454030e+003;2.649550e-002
3.455958e+003;2.696955e-002
3.457886e+003;2.724316e-002
3.459815e+003;2.708334e-002
3.461744e+003;2.685498e-002
3.463672e+003;2.621571e-002
3.465601e+003;2.577152e-002
3.467529e+003;2.589600e-002
3.469458e+003;2.600360e-002
3.471386e+003;2.593961e-002
3.473315e+003;2.600434e-002
3.475243e+003;2.615687e-002
3.477172e+003;2.638866e-002
3.479101e+003;2.628646e-002
3.481029e+003;2.586372e-002
3.482958e+003;2.573042e-002
3.484886e+003;2.591348e-002
3.486815e+003;2.557853e-002
3.488743e+003;2.573516e-002
3.490672e+003;2.562647e-002
3.492600e+003;2.495033e-002
3.494529e+003;2.513721e-002
3.496458e+003;2.588179e-002
3.498386e+003;2.633025e-002
3.500315e+003;2.595354e-002
3.502243e+003;2.537584e-002
3.504172e+003;2.491166e-002
3.506100e+003;2.504878e-002
3.508029e+003;2.598745e-002
3.509957e+003;2.596441e-002
3.511886e+003;2.560472e-002
3.513814e+003;2.564514e-002
3.515743e+003;2.546999e-002
3.517672e+003;2.536284e-002
3.519600e+003;2.534661e-002
3.521529e+003;2.480233e-002
3.523457e+003;2.450940e-002
3.525386e+003;2.500589e-002
3.527314e+003;2.528325e-002
3.529243e+003;2.491327e-002
3.531171e+003;2.498999e-002
3.533100e+003;2.532199e-002
3.535029e+003;2.471141e-002
3.536957e+003;2.438401e-002
3.538885e+003;2.416012e-002
3.540814e+003;2.426245e-002
3.542743e+003;2.466729e-002
3.544671e+003;2.498009e-002
3.546600e+003;2.508293e-002
3.548528e+003;2.497191e-002
3.550457e+003;2.492240e-002
3.552385e+003;2.497626e-002
3.554314e+003;2.560619e-002
3.556242e+003;2.632662e-002
3.558171e+003;2.607762e-002
3.560100e+003;2.550639e-002
3.562028e+003;2.527773e-002
3.563957e+003;2.500855e-002
3.565885e+003;2.419585e-002
3.567814e+003;2.445825e-002
3.569742e+003;2.558542e-002
3.571671e+003;2.626058e-002
3.573599e+003;2.629902e-002
3.575528e+003;2.615637e-002
3.577457e+003;2.639218e-002
3.579385e+003;2.641824e-002
3.581314e+003;2.643239e-002
3.583242e+003;2.634824e-002
3.585171e+003;2.525743e-002
3.587099e+003;2.463464e-002
3.589028e+003;2.578917e-002
3.590956e+003;2.731954e-002
3.592885e+003;2.787077e-002
3.594813e+003;2.802484e-002
3.596742e+003;2.886341e-002
3.598671e+003;3.032650e-002
3.600599e+003;3.147861e-002
3.602528e+003;3.215797e-002
3.604456e+003;3.182017e-002
3.606385e+003;3.080049e-002
3.608313e+003;2.979054e-002
3.610242e+003;3.007406e-002
3.612170e+003;3.014398e-002
3.614099e+003;2.961800e-002
3.616028e+003;2.868734e-002
3.617956e+003;2.778701e-002
3.619885e+003;2.822344e-002
3.621813e+003;2.934140e-002
3.623742e+003;2.959377e-002
3.625670e+003;2.857533e-002
3.627599e+003;2.537545e-002
3.629527e+003;2.437707e-002
3.631456e+003;2.661959e-002
3.633385e+003;2.792967e-002
3.635313e+003;2.834587e-002
3.637241e+003;2.831145e-002
3.639170e+003;2.863514e-002
3.641099e+003;2.948876e-002
3.643027e+003;3.031389e-002
3.644956e+003;2.924686e-002
3.646884e+003;2.613638e-002
3.648813e+003;2.485531e-002
3.650741e+003;2.698129e-002
3.652670e+003;2.917450e-002
3.654598e+003;2.823719e-002
3.656527e+003;2.735137e-002
3.658456e+003;2.847410e-002
3.660384e+003;2.905888e-002
3.662313e+003;2.918290e-002
3.664241e+003;2.906632e-002
3.666170e+003;2.839390e-002
3.668098e+003;2.639162e-002
3.670027e+003;2.486303e-002
3.671955e+003;2.566366e-002
3.673884e+003;2.412694e-002
3.675813e+003;2.354180e-002
3.677741e+003;2.650258e-002
3.679669e+003;2.760474e-002
3.681598e+003;2.785462e-002
3.683527e+003;2.797048e-002
3.685455e+003;2.731051e-002
3.687384e+003;2.499076e-002
3.689312e+003;2.481938e-002
3.691241e+003;2.664344e-002
3.693169e+003;2.792253e-002
3.695098e+003;2.809051e-002
3.697026e+003;2.805223e-002
3.698955e+003;2.798204e-002
3.700884e+003;2.786611e-002
3.702812e+003;2.793843e-002
3.704741e+003;2.791737e-002
3.706669e+003;2.724147e-002
3.708598e+003;2.607241e-002
3.710526e+003;2.449716e-002
3.712455e+003;2.435787e-002
3.714383e+003;2.622940e-002
3.716312e+003;2.671267e-002
3.718240e+003;2.618185e-002
3.720169e+003;2.575123e-002
3.722098e+003;2.589206e-002
3.724026e+003;2.614691e-002
3.725955e+003;2.569076e-002
3.727883e+003;2.594626e-002
3.729812e+003;2.556887e-002
3.731740e+003;2.407991e-002
3.733669e+003;2.364867e-002
3.735597e+003;2.330477e-002
3.737526e+003;2.464267e-002
3.739455e+003;2.575693e-002
3.741383e+003;2.470205e-002
3.743312e+003;2.013758e-002
3.745240e+003;2.000898e-002
3.747169e+003;2.221658e-002
3.749097e+003;2.086411e-002
3.751026e+003;2.104430e-002
3.752954e+003;2.342148e-002
3.754883e+003;2.538739e-002
3.756812e+003;2.540675e-002
3.758740e+003;2.571910e-002
3.760668e+003;2.634261e-002
3.762597e+003;2.729827e-002
3.764526e+003;2.663650e-002
3.766454e+003;2.628107e-002
3.768383e+003;2.579198e-002
3.770311e+003;2.584673e-002
3.772240e+003;2.728849e-002
3.774168e+003;2.780457e-002
3.776097e+003;2.743819e-002
3.778025e+003;2.684120e-002
3.779954e+003;2.688702e-002
3.781883e+003;2.759906e-002
3.783811e+003;2.779241e-002
3.785740e+003;2.826382e-002
3.787668e+003;2.839089e-002
3.789597e+003;2.866904e-002
3.791525e+003;2.903263e-002
3.793454e+003;2.864937e-002
3.795382e+003;2.746731e-002
3.797311e+003;2.710284e-002
3.799240e+003;2.550435e-002
3.801168e+003;2.396753e-002
3.803097e+003;2.649634e-002
3.805025e+003;2.727085e-002
3.806954e+003;2.632113e-002
3.808882e+003;2.808192e-002
3.810811e+003;2.922060e-002
3.812739e+003;2.887098e-002
3.814668e+003;2.638686e-002
3.816596e+003;2.635669e-002
3.818525e+003;2.796409e-002
3.820454e+003;2.668068e-002
3.822382e+003;2.737325e-002
3.824311e+003;2.863482e-002
3.826239e+003;2.845743e-002
3.828168e+003;2.853410e-002
3.830096e+003;2.829660e-002
3.832025e+003;2.795949e-002
3.833953e+003;2.768508e-002
3.835882e+003;2.596111e-002
3.837811e+003;2.483156e-002
3.839739e+003;2.730413e-002
3.841667e+003;2.890463e-002
3.843596e+003;2.840012e-002
3.845525e+003;2.871609e-002
3.847453e+003;2.944280e-002
3.849382e+003;2.818886e-002
3.851310e+003;2.397874e-002
3.853239e+003;2.062337e-002
3.855167e+003;2.435979e-002
3.857096e+003;2.824886e-002
3.859024e+003;2.864820e-002
3.860953e+003;2.855325e-002
3.862882e+003;2.855555e-002
3.864810e+003;2.850643e-002
3.866739e+003;2.835280e-002
3.868667e+003;2.669442e-002
3.870596e+003;2.765280e-002
3.872524e+003;2.975228e-002
3.874453e+003;3.051745e-002
3.876381e+003;3.156618e-002
3.878310e+003;3.094965e-002
3.880239e+003;3.034544e-002
3.882167e+003;3.058954e-002
3.884096e+003;2.955979e-002
3.886024e+003;2.917623e-002
3.887953e+003;3.061251e-002
3.889881e+003;3.007349e-002
3.891810e+003;2.956742e-002
3.893738e+003;3.082578e-002
3.895667e+003;3.116668e-002
3.897595e+003;2.999921e-002
3.899524e+003;2.889971e-002
3.901453e+003;2.838187e-002
3.903381e+003;2.835389e-002
3.905310e+003;2.993069e-002
3.907238e+003;3.137513e-002
3.909167e+003;3.204830e-002
3.911095e+003;3.275432e-002
3.913024e+003;3.263139e-002
3.914952e+003;3.145431e-002
3.916881e+003;3.053934e-002
3.918810e+003;3.076495e-002
3.920738e+003;3.096061e-002
3.922667e+003;3.101200e-002
3.924595e+003;3.163553e-002
3.926524e+003;3.237068e-002
3.928452e+003;3.208865e-002
3.930381e+003;3.115220e-002
3.932309e+003;3.053614e-002
3.934238e+003;3.113707e-002
3.936167e+003;3.144420e-002
3.938095e+003;3.111571e-002
3.940023e+003;3.067960e-002
3.941952e+003;3.079231e-002
3.943881e+003;3.098417e-002
3.945809e+003;3.055072e-002
3.947738e+003;3.070656e-002
3.949666e+003;3.085338e-002
3.951595e+003;3.084186e-002
3.953523e+003;3.076716e-002
3.955452e+003;3.082012e-002
3.957380e+003;3.099122e-002
3.959309e+003;3.070851e-002
3.961238e+003;3.035294e-002
3.963166e+003;3.015187e-002
3.965095e+003;3.048002e-002
3.967023e+003;3.108734e-002
3.968952e+003;3.132762e-002
3.970880e+003;3.110560e-002
3.972809e+003;3.070972e-002
3.974737e+003;3.065222e-002
3.976666e+003;3.105371e-002
3.978594e+003;3.097332e-002
3.980523e+003;3.105801e-002
3.982452e+003;3.128653e-002
3.984380e+003;3.071164e-002
3.986309e+003;3.009100e-002
3.988237e+003;3.046289e-002
3.990166e+003;3.051834e-002
3.992094e+003;3.000858e-002
3.994023e+003;2.996130e-002
3.995951e+003;3.009252e-002
3.997880e+003;2.990634e-002
3.999809e+003;2.980831e-002
4.001737e+003;0.000000e+000
