3.992094e+002;0.000000e+000
4.011380e+002;0.000000e+000
4.030665e+002;0.000000e+000
4.049951e+002;0.000000e+000
4.069236e+002;0.000000e+000
4.088522e+002;0.000000e+000
4.107807e+002;0.000000e+000
4.127093e+002;0.000000e+000
4.146378e+002;0.000000e+000
4.165664e+002;0.000000e+000
4.184949e+002;0.000000e+000
4.204235e+002;0.000000e+000
4.223520e+002;0.000000e+000
4.242806e+002;0.000000e+000
4.262091e+002;0.000000e+000
4.281377e+002;0.000000e+000
4.300662e+002;0.000000e+000
4.319948e+002;0.000000e+000
4.339233e+002;0.000000e+000
4.358519e+002;0.000000e+000
4.377804e+002;0.000000e+000
4.397090e+002;0.000000e+000
4.416375e+002;0.000000e+000
4.435660e+002;0.000000e+000
4.454946e+002;0.000000e+000
4.474232e+002;0.000000e+000
4.493517e+002;0.000000e+000
4.512802e+002;0.000000e+000
4.532088e+002;0.000000e+000
4.551373e+002;0.000000e+000
4.570659e+002;0.000000e+000
4.589944e+002;0.000000e+000
4.609230e+002;0.000000e+000
4.628515e+002;0.000000e+000
4.647801e+002;0.000000e+000
4.667086e+002;0.000000e+000
4.686372e+002;0.000000e+000
4.705657e+002;0.000000e+000
4.724943e+002;0.000000e+000
4.744228e+002;0.000000e+000
4.763513e+002;0.000000e+000
4.782799e+002;0.000000e+000
4.802085e+002;0.000000e+000
4.821370e+002;0.000000e+000
4.840656e+002;0.000000e+000
4.859941e+002;0.000000e+000
4.879226e+002;0.000000e+000
4.898512e+002;0.000000e+000
4.917798e+002;0.000000e+000
4.937083e+002;0.000000e+000
4.956368e+002;0.000000e+000
4.975654e+002;0.000000e+000
4.994939e+002;0.000000e+000
5.014225e+002;0.000000e+000
5.033510e+002;0.000000e+000
5.052796e+002;0.000000e+000
5.072081e+002;0.000000e+000
5.091367e+002;0.000000e+000
5.110652e+002;0.000000e+000
5.129938e+002;0.000000e+000
5.149223e+002;0.000000e+000
5.168509e+002;0.000000e+000
5.187794e+002;0.000000e+000
5.207079e+002;0.000000e+000
5.226365e+002;0.000000e+000
5.245651e+002;0.000000e+000
5.264936e+002;0.000000e+000
5.284222e+002;0.000000e+000
5.303507e+002;0.000000e+000
5.322792e+002;0.000000e+000
5.342078e+002;0.000000e+000
5.361364e+002;0.000000e+000
5.380649e+002;0.000000e+000
5.399935e+002;0.000000e+000
5.419220e+002;0.000000e+000
5.438505e+002;0.000000e+000
5.457791e+002;0.000000e+000
5.477076e+002;0.000000e+000
5.496362e+002;0.000000e+000
5.515648e+002;0.000000e+000
5.534933e+002;0.000000e+000
5.554218e+002;0.000000e+000
5.573504e+002;0.000000e+000
5.592789e+002;0.000000e+000
5.612075e+002;0.000000e+000
5.631360e+002;0.000000e+000
5.650646e+002;0.000000e+000
5.669931e+002;0.000000e+000
5.689217e+002;0.000000e+000
5.708502e+002;0.000000e+000
5.727787e+002;0.000000e+000
5.747073e+002;0.000000e+000
5.766359e+002;0.000000e+000
5.785644e+002;0.000000e+000
5.804930e+002;0.000000e+000
5.824215e+002;0.000000e+000
5.843500e+002;0.000000e+000
5.862786e+002;0.000000e+000
5.882072e+002;0.000000e+000
5.901357e+002;0.000000e+000
5.920643e+002;0.000000e+000
5.939928e+002;0.000000e+000
5.959213e+002;0.000000e+000
5.978499e+002;0.000000e+000
5.997784e+002;3.021399e-002
6.017070e+002;2.782435e-002
6.036355e+002;3.075773e-002
6.055641e+002;3.204887e-002
6.074926e+002;2.791508e-002
6.094211e+002;2.399575e-002
6.113497e+002;2.339102e-002
6.132783e+002;2.126347e-002
6.152068e+002;1.883260e-002
6.171354e+002;2.052849e-002
6.190639e+002;2.211044e-002
6.209924e+002;2.300882e-002
6.229210e+002;2.485787e-002
6.248495e+002;2.385151e-002
6.267781e+002;2.676088e-002
6.287067e+002;2.872639e-002
6.306352e+002;2.613353e-002
6.325637e+002;2.859907e-002
6.344923e+002;3.396434e-002
6.364208e+002;3.098862e-002
6.383494e+002;2.454403e-002
6.402780e+002;2.409381e-002
6.422065e+002;2.908528e-002
6.441350e+002;2.953298e-002
6.460636e+002;2.819770e-002
6.479921e+002;2.587318e-002
6.499207e+002;2.537538e-002
6.518492e+002;2.647331e-002
6.537778e+002;2.672377e-002
6.557063e+002;2.697519e-002
6.576349e+002;2.825151e-002
6.595634e+002;2.903100e-002
6.614919e+002;2.978252e-002
6.634205e+002;2.842811e-002
6.653491e+002;2.664844e-002
6.672776e+002;2.765785e-002
6.692062e+002;2.827909e-002
6.711347e+002;2.836985e-002
6.730632e+002;2.873234e-002
6.749918e+002;2.737322e-002
6.769203e+002;2.682238e-002
6.788489e+002;2.801805e-002
6.807775e+002;3.135287e-002
6.827060e+002;3.441954e-002
6.846345e+002;3.536901e-002
6.865631e+002;3.539004e-002
6.884916e+002;3.602684e-002
6.904202e+002;3.665910e-002
6.923488e+002;3.868977e-002
6.942773e+002;4.224265e-002
6.962058e+002;4.543183e-002
6.981344e+002;4.890545e-002
7.000629e+002;5.225350e-002
7.019915e+002;5.698739e-002
7.039200e+002;6.396826e-002
7.058486e+002;7.450494e-002
7.077771e+002;8.719780e-002
7.097057e+002;1.036870e-001
7.116342e+002;1.311001e-001
7.135627e+002;1.668050e-001
7.154913e+002;1.926204e-001
7.174199e+002;1.908288e-001
7.193484e+002;1.637705e-001
7.212770e+002;1.299783e-001
7.232055e+002;1.048341e-001
7.251340e+002;9.007767e-002
7.270626e+002;8.321853e-002
7.289911e+002;8.412719e-002
7.309197e+002;8.955395e-002
7.328483e+002;8.388608e-002
7.347768e+002;6.599063e-002
7.367053e+002;5.023150e-002
7.386339e+002;4.030930e-002
7.405624e+002;3.577549e-002
7.424910e+002;3.356224e-002
7.444196e+002;3.119242e-002
7.463481e+002;2.970321e-002
7.482766e+002;2.813537e-002
7.502052e+002;2.745309e-002
7.521337e+002;2.736037e-002
7.540623e+002;2.602583e-002
7.559908e+002;2.478816e-002
7.579194e+002;2.379078e-002
7.598479e+002;2.336606e-002
7.617765e+002;2.313573e-002
7.637050e+002;2.251098e-002
7.656335e+002;2.250299e-002
7.675621e+002;2.245825e-002
7.694907e+002;2.242849e-002
7.714192e+002;2.140497e-002
7.733478e+002;2.039022e-002
7.752763e+002;2.041255e-002
7.772048e+002;2.104486e-002
7.791334e+002;2.143501e-002
7.810620e+002;2.081406e-002
7.829905e+002;2.049674e-002
7.849191e+002;2.070374e-002
7.868476e+002;1.955657e-002
7.887761e+002;1.875987e-002
7.907047e+002;1.965117e-002
7.926332e+002;2.073404e-002
7.945618e+002;2.012474e-002
7.964903e+002;1.930224e-002
7.984189e+002;1.872919e-002
8.003474e+002;1.892521e-002
8.022759e+002;1.981705e-002
8.042045e+002;2.069752e-002
8.061331e+002;2.124283e-002
8.080616e+002;2.053905e-002
8.099902e+002;2.027674e-002
8.119187e+002;2.052668e-002
8.138472e+002;2.101718e-002
8.157758e+002;2.131814e-002
8.177043e+002;2.084246e-002
8.196329e+002;2.072219e-002
8.215615e+002;2.093674e-002
8.234900e+002;2.140807e-002
8.254185e+002;2.188210e-002
8.273471e+002;2.200032e-002
8.292756e+002;2.180158e-002
8.312042e+002;2.207077e-002
8.331328e+002;2.255781e-002
8.350613e+002;2.322894e-002
8.369898e+002;2.356173e-002
8.389184e+002;2.370228e-002
8.408469e+002;2.355012e-002
8.427755e+002;2.299579e-002
8.447040e+002;2.320133e-002
8.466326e+002;2.321342e-002
8.485611e+002;2.181764e-002
8.504897e+002;2.103345e-002
8.524182e+002;2.157041e-002
8.543467e+002;2.170996e-002
8.562753e+002;2.149057e-002
8.582039e+002;2.129604e-002
8.601324e+002;2.079136e-002
8.620610e+002;2.047555e-002
8.639895e+002;2.054509e-002
8.659180e+002;2.099794e-002
8.678466e+002;2.137782e-002
8.697751e+002;2.209580e-002
8.717037e+002;2.270121e-002
8.736323e+002;2.249901e-002
8.755608e+002;2.205330e-002
8.774893e+002;2.222687e-002
8.794179e+002;2.198397e-002
8.813464e+002;2.152215e-002
8.832750e+002;2.176873e-002
8.852036e+002;2.172285e-002
8.871321e+002;2.180165e-002
8.890606e+002;2.223775e-002
8.909892e+002;2.205930e-002
8.929177e+002;2.181496e-002
8.948463e+002;2.194065e-002
8.967748e+002;2.201085e-002
8.987034e+002;2.210640e-002
9.006319e+002;2.249625e-002
9.025605e+002;2.245508e-002
9.044890e+002;2.254588e-002
9.064175e+002;2.316652e-002
9.083461e+002;2.348992e-002
9.102747e+002;2.347044e-002
9.122032e+002;2.345733e-002
9.141318e+002;2.309411e-002
9.160603e+002;2.260050e-002
9.179888e+002;2.207122e-002
9.199174e+002;2.169638e-002
9.218459e+002;2.121889e-002
9.237745e+002;2.130467e-002
9.257031e+002;2.143087e-002
9.276316e+002;2.180548e-002
9.295601e+002;2.204553e-002
9.314887e+002;2.162947e-002
9.334172e+002;2.119770e-002
9.353458e+002;2.135210e-002
9.372744e+002;2.114817e-002
9.392029e+002;2.105894e-002
9.411314e+002;2.119405e-002
9.430600e+002;2.121155e-002
9.449885e+002;2.122902e-002
9.469171e+002;2.119370e-002
9.488456e+002;2.117175e-002
9.507742e+002;2.120605e-002
9.527027e+002;2.098226e-002
9.546313e+002;2.074197e-002
9.565598e+002;2.053088e-002
9.584883e+002;2.028213e-002
9.604169e+002;2.030323e-002
9.623455e+002;2.050014e-002
9.642740e+002;2.058504e-002
9.662026e+002;2.099860e-002
9.681311e+002;2.088296e-002
9.700596e+002;2.069853e-002
9.719882e+002;2.082737e-002
9.739167e+002;2.078284e-002
9.758453e+002;2.067295e-002
9.777739e+002;2.076133e-002
9.797024e+002;2.025390e-002
9.816309e+002;2.001231e-002
9.835595e+002;2.005058e-002
9.854880e+002;1.998001e-002
9.874166e+002;1.989946e-002
9.893452e+002;1.946660e-002
9.912737e+002;1.954801e-002
9.932022e+002;1.984802e-002
9.951307e+002;1.960215e-002
9.970593e+002;1.957241e-002
9.989879e+002;1.979790e-002
1.000916e+003;2.030626e-002
1.002845e+003;2.009642e-002
1.004773e+003;1.981174e-002
1.006702e+003;2.037466e-002
1.008631e+003;2.062357e-002
1.010559e+003;2.045071e-002
1.012488e+003;2.083822e-002
1.014416e+003;2.121430e-002
1.016345e+003;2.097986e-002
1.018273e+003;2.039164e-002
1.020202e+003;2.079577e-002
1.022130e+003;2.157250e-002
1.024059e+003;2.227685e-002
1.025988e+003;2.250466e-002
1.027916e+003;2.265736e-002
1.029845e+003;2.304928e-002
1.031773e+003;2.357632e-002
1.033702e+003;2.403154e-002
1.035630e+003;2.396133e-002
1.037559e+003;2.346226e-002
1.039487e+003;2.340344e-002
1.041416e+003;2.347418e-002
1.043344e+003;2.332095e-002
1.045273e+003;2.333959e-002
1.047202e+003;2.354078e-002
1.049130e+003;2.396091e-002
1.051059e+003;2.439926e-002
1.052987e+003;2.435555e-002
1.054916e+003;2.433929e-002
1.056844e+003;2.465516e-002
1.058773e+003;2.519665e-002
1.060701e+003;2.531349e-002
1.062630e+003;2.501554e-002
1.064558e+003;2.508557e-002
1.066487e+003;2.548626e-002
1.068416e+003;2.580200e-002
1.070344e+003;2.607241e-002
1.072273e+003;2.640144e-002
1.074201e+003;2.670630e-002
1.076130e+003;2.709791e-002
1.078058e+003;2.732812e-002
1.079987e+003;2.673438e-002
1.081915e+003;2.552867e-002
1.083844e+003;2.483085e-002
1.085773e+003;2.474596e-002
1.087701e+003;2.488503e-002
1.089630e+003;2.508423e-002
1.091558e+003;2.426206e-002
1.093487e+003;2.272278e-002
1.095415e+003;2.161652e-002
1.097344e+003;2.160374e-002
1.099272e+003;2.228013e-002
1.101201e+003;2.237413e-002
1.103129e+003;2.230517e-002
1.105058e+003;2.221725e-002
1.106987e+003;2.182656e-002
1.108915e+003;2.134848e-002
1.110844e+003;2.097336e-002
1.112772e+003;2.098317e-002
1.114701e+003;2.126768e-002
1.116629e+003;2.109905e-002
1.118558e+003;2.041970e-002
1.120486e+003;2.044193e-002
1.122415e+003;2.096630e-002
1.124344e+003;2.112096e-002
1.126272e+003;2.087388e-002
1.128201e+003;2.063497e-002
1.130129e+003;2.060297e-002
1.132058e+003;2.064526e-002
1.133986e+003;2.092958e-002
1.135915e+003;2.103307e-002
1.137843e+003;2.091515e-002
1.139772e+003;2.054353e-002
1.141700e+003;2.093351e-002
1.143629e+003;2.184026e-002
1.145557e+003;2.239503e-002
1.147486e+003;2.279206e-002
1.149415e+003;2.257907e-002
1.151343e+003;2.222579e-002
1.153272e+003;2.199401e-002
1.155200e+003;2.139721e-002
1.157129e+003;2.117725e-002
1.159057e+003;2.101711e-002
1.160986e+003;2.120407e-002
1.162914e+003;2.155815e-002
1.164843e+003;2.127805e-002
1.166771e+003;2.109338e-002
1.168700e+003;2.103317e-002
1.170629e+003;2.108837e-002
1.172557e+003;2.103150e-002
1.174486e+003;2.129203e-002
1.176414e+003;2.100984e-002
1.178343e+003;1.966361e-002
1.180271e+003;1.897754e-002
1.182200e+003;1.930483e-002
1.184128e+003;1.936251e-002
1.186057e+003;1.893054e-002
1.187986e+003;1.840108e-002
1.189914e+003;1.810410e-002
1.191843e+003;1.774785e-002
1.193771e+003;1.755492e-002
1.195700e+003;1.772507e-002
1.197628e+003;1.752701e-002
1.199557e+003;1.714693e-002
1.201485e+003;1.719943e-002
1.203414e+003;1.719826e-002
1.205343e+003;1.718978e-002
1.207271e+003;1.717092e-002
1.209200e+003;1.713101e-002
1.211128e+003;1.707579e-002
1.213057e+003;1.720594e-002
1.214985e+003;1.727331e-002
1.216914e+003;1.703792e-002
1.218842e+003;1.689121e-002
1.220771e+003;1.685522e-002
1.222699e+003;1.675768e-002
1.224628e+003;1.664880e-002
1.226557e+003;1.627290e-002
1.228485e+003;1.628855e-002
1.230414e+003;1.663916e-002
1.232342e+003;1.721570e-002
1.234271e+003;1.755505e-002
1.236199e+003;1.761288e-002
1.238128e+003;1.771110e-002
1.240056e+003;1.757320e-002
1.241985e+003;1.753463e-002
1.243913e+003;1.788459e-002
1.245842e+003;1.855756e-002
1.247771e+003;1.935597e-002
1.249699e+003;1.979031e-002
1.251628e+003;2.013935e-002
1.253556e+003;2.087187e-002
1.255485e+003;2.155530e-002
1.257413e+003;2.154625e-002
1.259342e+003;2.078837e-002
1.261270e+003;2.049972e-002
1.263199e+003;2.043734e-002
1.265127e+003;2.076355e-002
1.267056e+003;2.179120e-002
1.268985e+003;2.226694e-002
1.270913e+003;2.222687e-002
1.272842e+003;2.251143e-002
1.274770e+003;2.293986e-002
1.276699e+003;2.318801e-002
1.278627e+003;2.318081e-002
1.280556e+003;2.321818e-002
1.282484e+003;2.352357e-002
1.284413e+003;2.385372e-002
1.286342e+003;2.383747e-002
1.288270e+003;2.381119e-002
1.290199e+003;2.428007e-002
1.292127e+003;2.514778e-002
1.294056e+003;2.562117e-002
1.295984e+003;2.576730e-002
1.297913e+003;2.605982e-002
1.299841e+003;2.630885e-002
1.301770e+003;2.642567e-002
1.303698e+003;2.652934e-002
1.305627e+003;2.668223e-002
1.307556e+003;2.639542e-002
1.309484e+003;2.547673e-002
1.311413e+003;2.479153e-002
1.313341e+003;2.426946e-002
1.315270e+003;2.342708e-002
1.317198e+003;2.249437e-002
1.319127e+003;2.174110e-002
1.321055e+003;2.122745e-002
1.322984e+003;2.078833e-002
1.324912e+003;2.037976e-002
1.326841e+003;2.002210e-002
1.328770e+003;1.979086e-002
1.330698e+003;1.994403e-002
1.332627e+003;2.020187e-002
1.334555e+003;2.033810e-002
1.336484e+003;2.023214e-002
1.338412e+003;2.029469e-002
1.340341e+003;2.146582e-002
1.342269e+003;2.314988e-002
1.344198e+003;2.431813e-002
1.346126e+003;2.508837e-002
1.348055e+003;2.585872e-002
1.349984e+003;2.668808e-002
1.351912e+003;2.691667e-002
1.353841e+003;2.673170e-002
1.355769e+003;2.646975e-002
1.357698e+003;2.626146e-002
1.359626e+003;2.614599e-002
1.361555e+003;2.644408e-002
1.363483e+003;2.776981e-002
1.365412e+003;2.971612e-002
1.367341e+003;3.089237e-002
1.369269e+003;3.130782e-002
1.371198e+003;3.008176e-002
1.373126e+003;2.758370e-002
1.375055e+003;2.598882e-002
1.376983e+003;2.528574e-002
1.378912e+003;2.437571e-002
1.380840e+003;2.332770e-002
1.382769e+003;2.235446e-002
1.384698e+003;2.168238e-002
1.386626e+003;2.052984e-002
1.388555e+003;2.047062e-002
1.390483e+003;2.109686e-002
1.392412e+003;2.065481e-002
1.394340e+003;1.968916e-002
1.396269e+003;2.006006e-002
1.398197e+003;2.047024e-002
1.400126e+003;2.122707e-002
1.402054e+003;2.217275e-002
1.403983e+003;2.204089e-002
1.405911e+003;2.219357e-002
1.407840e+003;2.289459e-002
1.409769e+003;2.357401e-002
1.411697e+003;2.421876e-002
1.413626e+003;2.470005e-002
1.415554e+003;2.502059e-002
1.417483e+003;2.419322e-002
1.419411e+003;2.415055e-002
1.421340e+003;2.738006e-002
1.423268e+003;3.009611e-002
1.425197e+003;3.267672e-002
1.427125e+003;3.572509e-002
1.429054e+003;3.829271e-002
1.430983e+003;4.152542e-002
1.432911e+003;4.449178e-002
1.434840e+003;4.512050e-002
1.436768e+003;4.613866e-002
1.438697e+003;5.064149e-002
1.440625e+003;5.363016e-002
1.442554e+003;5.514657e-002
1.444482e+003;5.676711e-002
1.446411e+003;5.822429e-002
1.448340e+003;6.027392e-002
1.450268e+003;6.433422e-002
1.452197e+003;6.982285e-002
1.454125e+003;7.519870e-002
1.456054e+003;7.909957e-002
1.457982e+003;9.073915e-002
1.459911e+003;1.132418e-001
1.461839e+003;1.317582e-001
1.463768e+003;1.348460e-001
1.465697e+003;1.396983e-001
1.467625e+003;1.574821e-001
1.469554e+003;1.855241e-001
1.471482e+003;2.041633e-001
1.473411e+003;1.782543e-001
1.475339e+003;1.257267e-001
1.477268e+003;8.661480e-002
1.479196e+003;6.681614e-002
1.481125e+003;5.618481e-002
1.483053e+003;4.950268e-002
1.484982e+003;4.417363e-002
1.486911e+003;3.968427e-002
1.488839e+003;3.612247e-002
1.490768e+003;3.445344e-002
1.492696e+003;3.408876e-002
1.494625e+003;3.153269e-002
1.496553e+003;2.881720e-002
1.498482e+003;2.896055e-002
1.500410e+003;2.939149e-002
1.502339e+003;2.895343e-002
1.504267e+003;2.459200e-002
1.506196e+003;1.943905e-002
1.508125e+003;2.111748e-002
1.510053e+003;2.434476e-002
1.511982e+003;2.481250e-002
1.513910e+003;2.456440e-002
1.515839e+003;2.338658e-002
1.517767e+003;2.246450e-002
1.519696e+003;2.028751e-002
1.521624e+003;1.880385e-002
1.523553e+003;2.114444e-002
1.525481e+003;2.199561e-002
1.527410e+003;2.257331e-002
1.529339e+003;2.365059e-002
1.531267e+003;2.324072e-002
1.533196e+003;2.190793e-002
1.535124e+003;2.297036e-002
1.537053e+003;2.114121e-002
1.538981e+003;1.551784e-002
1.540910e+003;1.511022e-002
1.542838e+003;1.809561e-002
1.544767e+003;1.997096e-002
1.546695e+003;2.158236e-002
1.548624e+003;2.189566e-002
1.550553e+003;2.179047e-002
1.552481e+003;2.097117e-002
1.554410e+003;1.894268e-002
1.556338e+003;1.583250e-002
1.558267e+003;1.067599e-002
1.560195e+003;1.248199e-002
1.562124e+003;1.847886e-002
1.564052e+003;2.028553e-002
1.565981e+003;2.020263e-002
1.567910e+003;1.895722e-002
1.569838e+003;1.803081e-002
1.571767e+003;1.981389e-002
1.573695e+003;1.925267e-002
1.575624e+003;1.591179e-002
1.577552e+003;1.756071e-002
1.579481e+003;2.073672e-002
1.581409e+003;2.153162e-002
1.583338e+003;2.175779e-002
1.585266e+003;2.164323e-002
1.587195e+003;2.139832e-002
1.589124e+003;2.127784e-002
1.591052e+003;2.117707e-002
1.592981e+003;2.086498e-002
1.594909e+003;2.100438e-002
1.596838e+003;2.127363e-002
1.598766e+003;2.123003e-002
1.600695e+003;2.102956e-002
1.602623e+003;2.123229e-002
1.604552e+003;2.148138e-002
1.606480e+003;2.130174e-002
1.608409e+003;2.087020e-002
1.610338e+003;2.082914e-002
1.612266e+003;2.108660e-002
1.614195e+003;1.989242e-002
1.616123e+003;1.666343e-002
1.618052e+003;1.768846e-002
1.619980e+003;2.053443e-002
1.621909e+003;2.019187e-002
1.623837e+003;1.969447e-002
1.625766e+003;2.047673e-002
1.627694e+003;2.103867e-002
1.629623e+003;2.228874e-002
1.631552e+003;2.259896e-002
1.633480e+003;2.006755e-002
1.635409e+003;1.750786e-002
1.637337e+003;1.981743e-002
1.639266e+003;2.240333e-002
1.641194e+003;2.316732e-002
1.643123e+003;2.273141e-002
1.645051e+003;2.008546e-002
1.646980e+003;1.932725e-002
1.648909e+003;2.127898e-002
1.650837e+003;1.772369e-002
1.652766e+003;1.191752e-002
1.654694e+003;1.641475e-002
1.656623e+003;2.193695e-002
1.658551e+003;2.299307e-002
1.660480e+003;2.209109e-002
1.662408e+003;2.084089e-002
1.664337e+003;2.141169e-002
1.666266e+003;2.146373e-002
1.668194e+003;1.924720e-002
1.670123e+003;1.846683e-002
1.672051e+003;1.963418e-002
1.673980e+003;1.840913e-002
1.675908e+003;1.805598e-002
1.677837e+003;2.015886e-002
1.679765e+003;2.028355e-002
1.681694e+003;1.802549e-002
1.683622e+003;1.360007e-002
1.685551e+003;1.487103e-002
1.687479e+003;1.895885e-002
1.689408e+003;1.976597e-002
1.691337e+003;1.988197e-002
1.693265e+003;1.844357e-002
1.695194e+003;1.453530e-002
1.697122e+003;1.430317e-002
1.699051e+003;1.284231e-002
1.700979e+003;1.279920e-002
1.702908e+003;1.670344e-002
1.704836e+003;1.699819e-002
1.706765e+003;1.727162e-002
1.708693e+003;1.780436e-002
1.710622e+003;1.781803e-002
1.712551e+003;1.686583e-002
1.714479e+003;1.442335e-002
1.716408e+003;1.104956e-002
1.718336e+003;1.114722e-002
1.720265e+003;1.420603e-002
1.722193e+003;1.541871e-002
1.724122e+003;1.541768e-002
1.726050e+003;1.538706e-002
1.727979e+003;1.492129e-002
1.729908e+003;1.429324e-002
1.731836e+003;1.156862e-002
1.733765e+003;8.397205e-003
1.735693e+003;1.119712e-002
1.737622e+003;1.393788e-002
1.739550e+003;1.325812e-002
1.741479e+003;1.368011e-002
1.743407e+003;1.424917e-002
1.745336e+003;1.405778e-002
1.747265e+003;1.309572e-002
1.749193e+003;1.175051e-002
1.751122e+003;1.089066e-002
1.753050e+003;1.191190e-002
1.754979e+003;1.168291e-002
1.756907e+003;1.087208e-002
1.758836e+003;1.090914e-002
1.760764e+003;9.910115e-003
1.762693e+003;9.649307e-003
1.764621e+003;1.047072e-002
1.766550e+003;9.709412e-003
1.768479e+003;8.776291e-003
1.770407e+003;7.608461e-003
1.772336e+003;6.317470e-003
1.774264e+003;7.961514e-003
1.776193e+003;9.399086e-003
1.778121e+003;9.405045e-003
1.780050e+003;9.148433e-003
1.781978e+003;9.183492e-003
1.783907e+003;9.013840e-003
1.785835e+003;8.926773e-003
1.787764e+003;9.072470e-003
1.789693e+003;8.278447e-003
1.791621e+003;6.762182e-003
1.793550e+003;7.347954e-003
1.795478e+003;8.970271e-003
1.797407e+003;8.964656e-003
1.799335e+003;8.321474e-003
1.801264e+003;8.269600e-003
1.803192e+003;9.001121e-003
1.805121e+003;9.439312e-003
1.807049e+003;9.441920e-003
1.808978e+003;9.122580e-003
1.810907e+003;8.917439e-003
1.812835e+003;9.008394e-003
1.814764e+003;9.245630e-003
1.816692e+003;9.322470e-003
1.818621e+003;9.400745e-003
1.820549e+003;9.290818e-003
1.822478e+003;8.742076e-003
1.824406e+003;7.829381e-003
1.826335e+003;7.725046e-003
1.828264e+003;7.452300e-003
1.830192e+003;7.287400e-003
1.832121e+003;8.018280e-003
1.834049e+003;8.278954e-003
1.835978e+003;8.020002e-003
1.837906e+003;7.892979e-003
1.839835e+003;7.945688e-003
1.841763e+003;7.187945e-003
1.843692e+003;5.887118e-003
1.845620e+003;6.605584e-003
1.847549e+003;7.735536e-003
1.849478e+003;7.991956e-003
1.851406e+003;8.276860e-003
1.853335e+003;8.398996e-003
1.855263e+003;8.230156e-003
1.857192e+003;7.915891e-003
1.859120e+003;7.793588e-003
1.861049e+003;7.950176e-003
1.862977e+003;8.335695e-003
1.864906e+003;8.443555e-003
1.866834e+003;7.679278e-003
1.868763e+003;7.018331e-003
1.870692e+003;7.779960e-003
1.872620e+003;8.754721e-003
1.874549e+003;8.943245e-003
1.876477e+003;9.093413e-003
1.878406e+003;9.410564e-003
1.880334e+003;9.751836e-003
1.882263e+003;9.947236e-003
1.884191e+003;1.010596e-002
1.886120e+003;1.074829e-002
1.888048e+003;1.136124e-002
1.889977e+003;1.164400e-002
1.891906e+003;1.233061e-002
1.893834e+003;1.294228e-002
1.895763e+003;1.330889e-002
1.897691e+003;1.333479e-002
1.899620e+003;1.331220e-002
1.901548e+003;1.329758e-002
1.903477e+003;1.312269e-002
1.905405e+003;1.280893e-002
1.907334e+003;1.225586e-002
1.909262e+003;1.177706e-002
1.911191e+003;1.167685e-002
1.913120e+003;1.131342e-002
1.915048e+003;1.056068e-002
1.916977e+003;9.931200e-003
1.918905e+003;1.024181e-002
1.920834e+003;1.055321e-002
1.922762e+003;1.023482e-002
1.924691e+003;1.031417e-002
1.926619e+003;1.048382e-002
1.928548e+003;1.057772e-002
1.930477e+003;1.038051e-002
1.932405e+003;1.031943e-002
1.934334e+003;1.029080e-002
1.936262e+003;9.985072e-003
1.938191e+003;9.977681e-003
1.940119e+003;9.883505e-003
1.942048e+003;9.416084e-003
1.943976e+003;9.413679e-003
1.945905e+003;9.592836e-003
1.947833e+003;9.540775e-003
1.949762e+003;9.695047e-003
1.951691e+003;9.838290e-003
1.953619e+003;9.929065e-003
1.955548e+003;1.002688e-002
1.957476e+003;1.000121e-002
1.959405e+003;9.835205e-003
1.961333e+003;9.834629e-003
1.963262e+003;1.004946e-002
1.965190e+003;9.968934e-003
1.967119e+003;9.712529e-003
1.969047e+003;9.767085e-003
1.970976e+003;9.821749e-003
1.972905e+003;9.607809e-003
1.974833e+003;9.805753e-003
1.976762e+003;1.001569e-002
1.978690e+003;9.748990e-003
1.980619e+003;9.620038e-003
1.982547e+003;9.693488e-003
1.984476e+003;9.749837e-003
1.986404e+003;9.645615e-003
1.988333e+003;9.719036e-003
1.990261e+003;9.562181e-003
1.992190e+003;9.266650e-003
1.994119e+003;9.604624e-003
1.996047e+003;9.964695e-003
1.997976e+003;1.004336e-002
1.999904e+003;1.015127e-002
2.001833e+003;1.032014e-002
2.003761e+003;1.059191e-002
2.005690e+003;1.096980e-002
2.007618e+003;1.151200e-002
2.009547e+003;1.228688e-002
2.011476e+003;1.327148e-002
2.013404e+003;1.405289e-002
2.015333e+003;1.470150e-002
2.017261e+003;1.518227e-002
2.019190e+003;1.526109e-002
2.021118e+003;1.532658e-002
2.023047e+003;1.537251e-002
2.024975e+003;1.499949e-002
2.026904e+003;1.439146e-002
2.028833e+003;1.383976e-002
2.030761e+003;1.340764e-002
2.032690e+003;1.336209e-002
2.034618e+003;1.317532e-002
2.036547e+003;1.275211e-002
2.038475e+003;1.253853e-002
2.040404e+003;1.233433e-002
2.042332e+003;1.226029e-002
2.044261e+003;1.226752e-002
2.046189e+003;1.225631e-002
2.048118e+003;1.207455e-002
2.050047e+003;1.165081e-002
2.051975e+003;1.147815e-002
2.053904e+003;1.154079e-002
2.055832e+003;1.156447e-002
2.057761e+003;1.149826e-002
2.059689e+003;1.131617e-002
2.061618e+003;1.099939e-002
2.063546e+003;1.100572e-002
2.065475e+003;1.113107e-002
2.067404e+003;1.108582e-002
2.069332e+003;1.094244e-002
2.071260e+003;1.099759e-002
2.073189e+003;1.121854e-002
2.075118e+003;1.124292e-002
2.077046e+003;1.101092e-002
2.078975e+003;1.083606e-002
2.080903e+003;1.076449e-002
2.082832e+003;1.063015e-002
2.084760e+003;1.064760e-002
2.086689e+003;1.056577e-002
2.088617e+003;1.030311e-002
2.090546e+003;1.053664e-002
2.092475e+003;1.069222e-002
2.094403e+003;1.059449e-002
2.096332e+003;1.050314e-002
2.098260e+003;1.049408e-002
2.100189e+003;1.060061e-002
2.102117e+003;1.072679e-002
2.104046e+003;1.075016e-002
2.105974e+003;1.071548e-002
2.107903e+003;1.064621e-002
2.109832e+003;1.048617e-002
2.111760e+003;1.043502e-002
2.113688e+003;1.037854e-002
2.115617e+003;1.018224e-002
2.117546e+003;1.007710e-002
2.119474e+003;1.026386e-002
2.121403e+003;1.023302e-002
2.123331e+003;1.029880e-002
2.125260e+003;1.031373e-002
2.127188e+003;1.016904e-002
2.129117e+003;1.029422e-002
2.131045e+003;1.055508e-002
2.132974e+003;1.089304e-002
2.134903e+003;1.133025e-002
2.136831e+003;1.166429e-002
2.138760e+003;1.179991e-002
2.140688e+003;1.196142e-002
2.142617e+003;1.222079e-002
2.144545e+003;1.221275e-002
2.146474e+003;1.208644e-002
2.148402e+003;1.218031e-002
2.150331e+003;1.220481e-002
2.152260e+003;1.225702e-002
2.154188e+003;1.218494e-002
2.156117e+003;1.204191e-002
2.158045e+003;1.202267e-002
2.159974e+003;1.206463e-002
2.161902e+003;1.196514e-002
2.163831e+003;1.183304e-002
2.165759e+003;1.178170e-002
2.167688e+003;1.205097e-002
2.169616e+003;1.198261e-002
2.171545e+003;1.169159e-002
2.173474e+003;1.183341e-002
2.175402e+003;1.199742e-002
2.177331e+003;1.211005e-002
2.179259e+003;1.201977e-002
2.181188e+003;1.188425e-002
2.183116e+003;1.182453e-002
2.185045e+003;1.177897e-002
2.186973e+003;1.176757e-002
2.188902e+003;1.172672e-002
2.190831e+003;1.174969e-002
2.192759e+003;1.176175e-002
2.194688e+003;1.181418e-002
2.196616e+003;1.174755e-002
2.198545e+003;1.158098e-002
2.200473e+003;1.154549e-002
2.202402e+003;1.165551e-002
2.204330e+003;1.211983e-002
2.206259e+003;1.205138e-002
2.208188e+003;1.182282e-002
2.210116e+003;1.193527e-002
2.212044e+003;1.200972e-002
2.213973e+003;1.202979e-002
2.215902e+003;1.205332e-002
2.217830e+003;1.219370e-002
2.219759e+003;1.206872e-002
2.221687e+003;1.211281e-002
2.223616e+003;1.240425e-002
2.225544e+003;1.236024e-002
2.227473e+003;1.228040e-002
2.229401e+003;1.220900e-002
2.231330e+003;1.222185e-002
2.233259e+003;1.173312e-002
2.235187e+003;1.115388e-002
2.237116e+003;1.135416e-002
2.239044e+003;1.167069e-002
2.240973e+003;1.187608e-002
2.242901e+003;1.200444e-002
2.244830e+003;1.204821e-002
2.246758e+003;1.235778e-002
2.248687e+003;1.242457e-002
2.250615e+003;1.247524e-002
2.252544e+003;1.280142e-002
2.254473e+003;1.324111e-002
2.256401e+003;1.340699e-002
2.258330e+003;1.346061e-002
2.260258e+003;1.350224e-002
2.262187e+003;1.364961e-002
2.264115e+003;1.386080e-002
2.266044e+003;1.402654e-002
2.267972e+003;1.425427e-002
2.269901e+003;1.482080e-002
2.271830e+003;1.511451e-002
2.273758e+003;1.529579e-002
2.275687e+003;1.552014e-002
2.277615e+003;1.569909e-002
2.279544e+003;1.589485e-002
2.281472e+003;1.608220e-002
2.283401e+003;1.608801e-002
2.285329e+003;1.614344e-002
2.287258e+003;1.614705e-002
2.289187e+003;1.620056e-002
2.291115e+003;1.630238e-002
2.293043e+003;1.613078e-002
2.294972e+003;1.633382e-002
2.296901e+003;1.677314e-002
2.298829e+003;1.698661e-002
2.300758e+003;1.694375e-002
2.302686e+003;1.673089e-002
2.304615e+003;1.669325e-002
2.306543e+003;1.674280e-002
2.308472e+003;1.698988e-002
2.310400e+003;1.742618e-002
2.312329e+003;1.806355e-002
2.314258e+003;1.820350e-002
2.316186e+003;1.843662e-002
2.318115e+003;1.903964e-002
2.320043e+003;1.923137e-002
2.321972e+003;1.922721e-002
2.323900e+003;1.940904e-002
2.325829e+003;1.933743e-002
2.327757e+003;1.958343e-002
2.329686e+003;1.994278e-002
2.331615e+003;1.988406e-002
2.333543e+003;1.964267e-002
2.335472e+003;1.959743e-002
2.337400e+003;1.972432e-002
2.339329e+003;2.001068e-002
2.341257e+003;2.008393e-002
2.343186e+003;2.018496e-002
2.345114e+003;2.034039e-002
2.347043e+003;2.052077e-002
2.348971e+003;2.029806e-002
2.350900e+003;1.956520e-002
2.352829e+003;1.840848e-002
2.354757e+003;1.742856e-002
2.356686e+003;1.681154e-002
2.358614e+003;1.609733e-002
2.360543e+003;1.511331e-002
2.362471e+003;1.444335e-002
2.364400e+003;1.422661e-002
2.366328e+003;1.422028e-002
2.368257e+003;1.436673e-002
2.370186e+003;1.457988e-002
2.372114e+003;1.459180e-002
2.374042e+003;1.454904e-002
2.375971e+003;1.446223e-002
2.377900e+003;1.448179e-002
2.379828e+003;1.478675e-002
2.381757e+003;1.510102e-002
2.383685e+003;1.521422e-002
2.385614e+003;1.498556e-002
2.387542e+003;1.510387e-002
2.389471e+003;1.529648e-002
2.391399e+003;1.511574e-002
2.393328e+003;1.492054e-002
2.395257e+003;1.474421e-002
2.397185e+003;1.486952e-002
2.399114e+003;1.509625e-002
2.401042e+003;1.533183e-002
2.402971e+003;1.547413e-002
2.404899e+003;1.551811e-002
2.406828e+003;1.557598e-002
2.408756e+003;1.573588e-002
2.410685e+003;1.603736e-002
2.412614e+003;1.625068e-002
2.414542e+003;1.609365e-002
2.416471e+003;1.634229e-002
2.418399e+003;1.652770e-002
2.420328e+003;1.650891e-002
2.422256e+003;1.634494e-002
2.424185e+003;1.611222e-002
2.426113e+003;1.585835e-002
2.428042e+003;1.560098e-002
2.429970e+003;1.528748e-002
2.431899e+003;1.528628e-002
2.433828e+003;1.562791e-002
2.435756e+003;1.548457e-002
2.437685e+003;1.484552e-002
2.439613e+003;1.443808e-002
2.441542e+003;1.465736e-002
2.443470e+003;1.481733e-002
2.445399e+003;1.468701e-002
2.447327e+003;1.478795e-002
2.449256e+003;1.482824e-002
2.451185e+003;1.489084e-002
2.453113e+003;1.473362e-002
2.455042e+003;1.461075e-002
2.456970e+003;1.460753e-002
2.458899e+003;1.451108e-002
2.460827e+003;1.460578e-002
2.462756e+003;1.480602e-002
2.464684e+003;1.501846e-002
2.466613e+003;1.517197e-002
2.468542e+003;1.550438e-002
2.470470e+003;1.591629e-002
2.472398e+003;1.650694e-002
2.474327e+003;1.715634e-002
2.476256e+003;1.737600e-002
2.478184e+003;1.713780e-002
2.480113e+003;1.682043e-002
2.482041e+003;1.673981e-002
2.483970e+003;1.700236e-002
2.485898e+003;1.714693e-002
2.487827e+003;1.674546e-002
2.489755e+003;1.672417e-002
2.491684e+003;1.693469e-002
2.493613e+003;1.697900e-002
2.495541e+003;1.723621e-002
2.497470e+003;1.745039e-002
2.499398e+003;1.746505e-002
2.501327e+003;1.732079e-002
2.503255e+003;1.730913e-002
2.505184e+003;1.750703e-002
2.507112e+003;1.756958e-002
2.509041e+003;1.762914e-002
2.510969e+003;1.778306e-002
2.512898e+003;1.792903e-002
2.514827e+003;1.791111e-002
2.516755e+003;1.821234e-002
2.518684e+003;1.863711e-002
2.520612e+003;1.896774e-002
2.522541e+003;1.943618e-002
2.524469e+003;1.998334e-002
2.526398e+003;2.031160e-002
2.528326e+003;2.023626e-002
2.530255e+003;2.013068e-002
2.532184e+003;1.988347e-002
2.534112e+003;1.958925e-002
2.536041e+003;1.960624e-002
2.537969e+003;1.959438e-002
2.539898e+003;1.959196e-002
2.541826e+003;1.991108e-002
2.543755e+003;2.002734e-002
2.545683e+003;2.032303e-002
2.547612e+003;2.106065e-002
2.549541e+003;2.135819e-002
2.551469e+003;2.145029e-002
2.553397e+003;2.165176e-002
2.555326e+003;2.164285e-002
2.557255e+003;2.146262e-002
2.559183e+003;2.160750e-002
2.561112e+003;2.186824e-002
2.563040e+003;2.199056e-002
2.564969e+003;2.218680e-002
2.566897e+003;2.225376e-002
2.568826e+003;2.235435e-002
2.570754e+003;2.280672e-002
2.572683e+003;2.314052e-002
2.574612e+003;2.322982e-002
2.576540e+003;2.348300e-002
2.578469e+003;2.400045e-002
2.580397e+003;2.467858e-002
2.582326e+003;2.484047e-002
2.584254e+003;2.484285e-002
2.586183e+003;2.523429e-002
2.588111e+003;2.567779e-002
2.590040e+003;2.606598e-002
2.591969e+003;2.638785e-002
2.593897e+003;2.675982e-002
2.595826e+003;2.743823e-002
2.597754e+003;2.812554e-002
2.599683e+003;2.848369e-002
2.601611e+003;2.883876e-002
2.603540e+003;2.897500e-002
2.605468e+003;2.917173e-002
2.607397e+003;2.989896e-002
2.609325e+003;3.063416e-002
2.611254e+003;3.134742e-002
2.613183e+003;3.183012e-002
2.615111e+003;3.208016e-002
2.617040e+003;3.267029e-002
2.618968e+003;3.374061e-002
2.620897e+003;3.473245e-002
2.622825e+003;3.548146e-002
2.624754e+003;3.604528e-002
2.626682e+003;3.662961e-002
2.628611e+003;3.729798e-002
2.630540e+003;3.769446e-002
2.632468e+003;3.806460e-002
2.634396e+003;3.834515e-002
2.636325e+003;3.827157e-002
2.638254e+003;3.795509e-002
2.640182e+003;3.783636e-002
2.642111e+003;3.780260e-002
2.644039e+003;3.760405e-002
2.645968e+003;3.726618e-002
2.647896e+003;3.697399e-002
2.649825e+003;3.712377e-002
2.651753e+003;3.720000e-002
2.653682e+003;3.744012e-002
2.655611e+003;3.748837e-002
2.657539e+003;3.716864e-002
2.659468e+003;3.730387e-002
2.661396e+003;3.755365e-002
2.663325e+003;3.739967e-002
2.665253e+003;3.717575e-002
2.667182e+003;3.686890e-002
2.669110e+003;3.624268e-002
2.671039e+003;3.595650e-002
2.672968e+003;3.553756e-002
2.674896e+003;3.525849e-002
2.676825e+003;3.519597e-002
2.678753e+003;3.481846e-002
2.680682e+003;3.464574e-002
2.682610e+003;3.420070e-002
2.684539e+003;3.400809e-002
2.686467e+003;3.397262e-002
2.688396e+003;3.364293e-002
2.690324e+003;3.343858e-002
2.692253e+003;3.369453e-002
2.694182e+003;3.407059e-002
2.696110e+003;3.418468e-002
2.698039e+003;3.424996e-002
2.699967e+003;3.465698e-002
2.701896e+003;3.518479e-002
2.703824e+003;3.570390e-002
2.705753e+003;3.607883e-002
2.707681e+003;3.639672e-002
2.709610e+003;3.645055e-002
2.711539e+003;3.650951e-002
2.713467e+003;3.702847e-002
2.715396e+003;3.746179e-002
2.717324e+003;3.781265e-002
2.719253e+003;3.821158e-002
2.721181e+003;3.863699e-002
2.723110e+003;3.895292e-002
2.725038e+003;3.921308e-002
2.726967e+003;3.972955e-002
2.728896e+003;4.034493e-002
2.730824e+003;4.092715e-002
2.732752e+003;4.119837e-002
2.734681e+003;4.179483e-002
2.736610e+003;4.230542e-002
2.738538e+003;4.237632e-002
2.740467e+003;4.260035e-002
2.742395e+003;4.299343e-002
2.744324e+003;4.291610e-002
2.746252e+003;4.302087e-002
2.748181e+003;4.307158e-002
2.750109e+003;4.279191e-002
2.752038e+003;4.285177e-002
2.753967e+003;4.335812e-002
2.755895e+003;4.418937e-002
2.757824e+003;4.487184e-002
2.759752e+003;4.542080e-002
2.761681e+003;4.619526e-002
2.763609e+003;4.705146e-002
2.765538e+003;4.790476e-002
2.767466e+003;4.846612e-002
2.769395e+003;4.910449e-002
2.771323e+003;4.976991e-002
2.773252e+003;5.072810e-002
2.775181e+003;5.202806e-002
2.777109e+003;5.335860e-002
2.779038e+003;5.443741e-002
2.780966e+003;5.525189e-002
2.782895e+003;5.633402e-002
2.784823e+003;5.751825e-002
2.786752e+003;5.835487e-002
2.788680e+003;5.903744e-002
2.790609e+003;6.035208e-002
2.792538e+003;6.168091e-002
2.794466e+003;6.287370e-002
2.796395e+003;6.410423e-002
2.798323e+003;6.502815e-002
2.800252e+003;6.607958e-002
2.802180e+003;6.732420e-002
2.804109e+003;6.833518e-002
2.806037e+003;7.003918e-002
2.807966e+003;7.206184e-002
2.809895e+003;7.330845e-002
2.811823e+003;7.464999e-002
2.813751e+003;7.655219e-002
2.815680e+003;7.836821e-002
2.817609e+003;8.016089e-002
2.819537e+003;8.234553e-002
2.821466e+003;8.530442e-002
2.823394e+003;8.851512e-002
2.825323e+003;9.194999e-002
2.827251e+003;9.597709e-002
2.829180e+003;1.007246e-001
2.831108e+003;1.062570e-001
2.833037e+003;1.127183e-001
2.834966e+003;1.211057e-001
2.836894e+003;1.322781e-001
2.838823e+003;1.464723e-001
2.840751e+003;1.655562e-001
2.842680e+003;1.926082e-001
2.844608e+003;2.284576e-001
2.846537e+003;2.679479e-001
2.848465e+003;2.924220e-001
2.850394e+003;2.799398e-001
2.852323e+003;2.381674e-001
2.854251e+003;1.929957e-001
2.856180e+003;1.584601e-001
2.858108e+003;1.349380e-001
2.860037e+003;1.197145e-001
2.861965e+003;1.102212e-001
2.863894e+003;1.046091e-001
2.865822e+003;1.018886e-001
2.867751e+003;1.014624e-001
2.869679e+003;1.026857e-001
2.871608e+003;1.049691e-001
2.873536e+003;1.086507e-001
2.875465e+003;1.135255e-001
2.877394e+003;1.191338e-001
2.879322e+003;1.254700e-001
2.881251e+003;1.317949e-001
2.883179e+003;1.376318e-001
2.885108e+003;1.434676e-001
2.887036e+003;1.492818e-001
2.888965e+003;1.555204e-001
2.890893e+003;1.619253e-001
2.892822e+003;1.678880e-001
2.894750e+003;1.744905e-001
2.896679e+003;1.817953e-001
2.898608e+003;1.890282e-001
2.900536e+003;1.965392e-001
2.902465e+003;2.062068e-001
2.904393e+003;2.184235e-001
2.906322e+003;2.332930e-001
2.908250e+003;2.525561e-001
2.910179e+003;2.758639e-001
2.912107e+003;3.003625e-001
2.914036e+003;3.184100e-001
2.915965e+003;3.218408e-001
2.917893e+003;3.080525e-001
2.919822e+003;2.817891e-001
2.921750e+003;2.503057e-001
2.923679e+003;2.194385e-001
2.925607e+003;1.924472e-001
2.927536e+003;1.694390e-001
2.929464e+003;1.498763e-001
2.931393e+003;1.339976e-001
2.933322e+003;1.204138e-001
2.935250e+003;1.086329e-001
2.937178e+003;9.931844e-002
2.939107e+003;9.150320e-002
2.941036e+003;8.460007e-002
2.942964e+003;7.920478e-002
2.944893e+003;7.459392e-002
2.946821e+003;7.055651e-002
2.948750e+003;6.723162e-002
2.950678e+003;6.471702e-002
2.952607e+003;6.240771e-002
2.954535e+003;6.051864e-002
2.956464e+003;5.923137e-002
2.958393e+003;5.807223e-002
2.960321e+003;5.671334e-002
2.962250e+003;5.554139e-002
2.964178e+003;5.472261e-002
2.966107e+003;5.395047e-002
2.968035e+003;5.307298e-002
2.969964e+003;5.196733e-002
2.971892e+003;5.094142e-002
2.973821e+003;5.032982e-002
2.975750e+003;4.936401e-002
2.977678e+003;4.795922e-002
2.979607e+003;4.688282e-002
2.981535e+003;4.630727e-002
2.983464e+003;4.556823e-002
2.985392e+003;4.491090e-002
2.987321e+003;4.419340e-002
2.989249e+003;4.315530e-002
2.991178e+003;4.231894e-002
2.993106e+003;4.172450e-002
2.995035e+003;4.130363e-002
2.996964e+003;4.093731e-002
2.998892e+003;4.063012e-002
3.000821e+003;3.995264e-002
3.002749e+003;3.895089e-002
3.004678e+003;3.832184e-002
3.006606e+003;3.774777e-002
3.008535e+003;3.748137e-002
3.010463e+003;3.762706e-002
3.012392e+003;3.717228e-002
3.014321e+003;3.658859e-002
3.016249e+003;3.631533e-002
3.018177e+003;3.590478e-002
3.020106e+003;3.553741e-002
3.022035e+003;3.513780e-002
3.023963e+003;3.503722e-002
3.025892e+003;3.476365e-002
3.027820e+003;3.428718e-002
3.029749e+003;3.405665e-002
3.031677e+003;3.387607e-002
3.033606e+003;3.364920e-002
3.035534e+003;3.362295e-002
3.037463e+003;3.331492e-002
3.039392e+003;3.266265e-002
3.041320e+003;3.257949e-002
3.043249e+003;3.276014e-002
3.045177e+003;3.252385e-002
3.047106e+003;3.173960e-002
3.049034e+003;3.110998e-002
3.050963e+003;3.111621e-002
3.052891e+003;3.094997e-002
3.054820e+003;3.017336e-002
3.056749e+003;2.985679e-002
3.058677e+003;3.002307e-002
3.060606e+003;2.972528e-002
3.062534e+003;2.952408e-002
3.064463e+003;2.930602e-002
3.066391e+003;2.858955e-002
3.068320e+003;2.832599e-002
3.070248e+003;2.816018e-002
3.072177e+003;2.773392e-002
3.074105e+003;2.767946e-002
3.076034e+003;2.776896e-002
3.077963e+003;2.753389e-002
3.079891e+003;2.699116e-002
3.081820e+003;2.644200e-002
3.083748e+003;2.593054e-002
3.085677e+003;2.628044e-002
3.087605e+003;2.656189e-002
3.089534e+003;2.596765e-002
3.091462e+003;2.535585e-002
3.093391e+003;2.505331e-002
3.095320e+003;2.449870e-002
3.097248e+003;2.410145e-002
3.099177e+003;2.372586e-002
3.101105e+003;2.325062e-002
3.103034e+003;2.299118e-002
3.104962e+003;2.237089e-002
3.106891e+003;2.188981e-002
3.108819e+003;2.206240e-002
3.110748e+003;2.165103e-002
3.112677e+003;2.066103e-002
3.114605e+003;1.972127e-002
3.116533e+003;1.910476e-002
3.118462e+003;1.841885e-002
3.120391e+003;1.798283e-002
3.122319e+003;1.809239e-002
3.124248e+003;1.794488e-002
3.126176e+003;1.746360e-002
3.128105e+003;1.714069e-002
3.130033e+003;1.712966e-002
3.131962e+003;1.689431e-002
3.133890e+003;1.654381e-002
3.135819e+003;1.605036e-002
3.137748e+003;1.598885e-002
3.139676e+003;1.650364e-002
3.141605e+003;1.653052e-002
3.143533e+003;1.614172e-002
3.145462e+003;1.609461e-002
3.147390e+003;1.610737e-002
3.149319e+003;1.586309e-002
3.151247e+003;1.526109e-002
3.153176e+003;1.511955e-002
3.155104e+003;1.548622e-002
3.157033e+003;1.542994e-002
3.158962e+003;1.516539e-002
3.160890e+003;1.481932e-002
3.162819e+003;1.480763e-002
3.164747e+003;1.499054e-002
3.166676e+003;1.482546e-002
3.168604e+003;1.478106e-002
3.170533e+003;1.473047e-002
3.172461e+003;1.465863e-002
3.174390e+003;1.468677e-002
3.176319e+003;1.491543e-002
3.178247e+003;1.501269e-002
3.180176e+003;1.494190e-002
3.182104e+003;1.479412e-002
3.184033e+003;1.459197e-002
3.185961e+003;1.441633e-002
3.187890e+003;1.425951e-002
3.189818e+003;1.440006e-002
3.191747e+003;1.459742e-002
3.193676e+003;1.452924e-002
3.195604e+003;1.435899e-002
3.197532e+003;1.451749e-002
3.199461e+003;1.493676e-002
3.201390e+003;1.499235e-002
3.203318e+003;1.458433e-002
3.205247e+003;1.434231e-002
3.207175e+003;1.464235e-002
3.209104e+003;1.498635e-002
3.211032e+003;1.490192e-002
3.212961e+003;1.474524e-002
3.214889e+003;1.479680e-002
3.216818e+003;1.442136e-002
3.218747e+003;1.416584e-002
3.220675e+003;1.486695e-002
3.222604e+003;1.502504e-002
3.224532e+003;1.465352e-002
3.226461e+003;1.455675e-002
3.228389e+003;1.426547e-002
3.230318e+003;1.425287e-002
3.232246e+003;1.437598e-002
3.234175e+003;1.451269e-002
3.236104e+003;1.479669e-002
3.238032e+003;1.463121e-002
3.239961e+003;1.387794e-002
3.241889e+003;1.391732e-002
3.243818e+003;1.460791e-002
3.245746e+003;1.498611e-002
3.247675e+003;1.479457e-002
3.249603e+003;1.439259e-002
3.251532e+003;1.425578e-002
3.253460e+003;1.418043e-002
3.255389e+003;1.402811e-002
3.257318e+003;1.400471e-002
3.259246e+003;1.419511e-002
3.261175e+003;1.465105e-002
3.263103e+003;1.484048e-002
3.265032e+003;1.450402e-002
3.266960e+003;1.435766e-002
3.268889e+003;1.480640e-002
3.270817e+003;1.496214e-002
3.272746e+003;1.503324e-002
3.274675e+003;1.550555e-002
3.276603e+003;1.559460e-002
3.278531e+003;1.494585e-002
3.280460e+003;1.468097e-002
3.282389e+003;1.507890e-002
3.284317e+003;1.532919e-002
3.286246e+003;1.530997e-002
3.288174e+003;1.547667e-002
3.290103e+003;1.496269e-002
3.292031e+003;1.432499e-002
3.293960e+003;1.434440e-002
3.295888e+003;1.453496e-002
3.297817e+003;1.499349e-002
3.299746e+003;1.525684e-002
3.301674e+003;1.479426e-002
3.303603e+003;1.456055e-002
3.305531e+003;1.432255e-002
3.307460e+003;1.421791e-002
3.309388e+003;1.484500e-002
3.311317e+003;1.508414e-002
3.313245e+003;1.496622e-002
3.315174e+003;1.493086e-002
3.317103e+003;1.488142e-002
3.319031e+003;1.492157e-002
3.320960e+003;1.493319e-002
3.322888e+003;1.487175e-002
3.324817e+003;1.483585e-002
3.326745e+003;1.461805e-002
3.328674e+003;1.451629e-002
3.330602e+003;1.438341e-002
3.332531e+003;1.421329e-002
3.334459e+003;1.446339e-002
3.336388e+003;1.471610e-002
3.338317e+003;1.469825e-002
3.340245e+003;1.456031e-002
3.342174e+003;1.445815e-002
3.344102e+003;1.478332e-002
3.346031e+003;1.504284e-002
3.347959e+003;1.479622e-002
3.349888e+003;1.474401e-002
3.351816e+003;1.501581e-002
3.353745e+003;1.525138e-002
3.355674e+003;1.538988e-002
3.357602e+003;1.540237e-002
3.359531e+003;1.546668e-002
3.361459e+003;1.525358e-002
3.363388e+003;1.515729e-002
3.365316e+003;1.531944e-002
3.367245e+003;1.541858e-002
3.369173e+003;1.558790e-002
3.371102e+003;1.581137e-002
3.373031e+003;1.534710e-002
3.374959e+003;1.459376e-002
3.376887e+003;1.463813e-002
3.378816e+003;1.468066e-002
3.380745e+003;1.434827e-002
3.382673e+003;1.432036e-002
3.384602e+003;1.415595e-002
3.386530e+003;1.434536e-002
3.388459e+003;1.468049e-002
3.390387e+003;1.464368e-002
3.392316e+003;1.470644e-002
3.394244e+003;1.465222e-002
3.396173e+003;1.429489e-002
3.398102e+003;1.431416e-002
3.400030e+003;1.442057e-002
3.401959e+003;1.378350e-002
3.403887e+003;1.354103e-002
3.405816e+003;1.405015e-002
3.407744e+003;1.421880e-002
3.409673e+003;1.370815e-002
3.411601e+003;1.379793e-002
3.413530e+003;1.412182e-002
3.415458e+003;1.371226e-002
3.417387e+003;1.354835e-002
3.419316e+003;1.394989e-002
3.421244e+003;1.396518e-002
3.423173e+003;1.373428e-002
3.425101e+003;1.375610e-002
3.427030e+003;1.376335e-002
3.428958e+003;1.387558e-002
3.430887e+003;1.370966e-002
3.432815e+003;1.352189e-002
3.434744e+003;1.326451e-002
3.436673e+003;1.306447e-002
3.438601e+003;1.315305e-002
3.440530e+003;1.332662e-002
3.442458e+003;1.294573e-002
3.444387e+003;1.242890e-002
3.446315e+003;1.224874e-002
3.448244e+003;1.242590e-002
3.450172e+003;1.255784e-002
3.452101e+003;1.257973e-002
3.454030e+003;1.262237e-002
3.455958e+003;1.282005e-002
3.457886e+003;1.301961e-002
3.459815e+003;1.290507e-002
3.461744e+003;1.242072e-002
3.463672e+003;1.203537e-002
3.465601e+003;1.183093e-002
3.467529e+003;1.201544e-002
3.469458e+003;1.211904e-002
3.471386e+003;1.230007e-002
3.473315e+003;1.225450e-002
3.475243e+003;1.222805e-002
3.477172e+003;1.252656e-002
3.479101e+003;1.246743e-002
3.481029e+003;1.213335e-002
3.482958e+003;1.205540e-002
3.484886e+003;1.196987e-002
3.486815e+003;1.168703e-002
3.488743e+003;1.183883e-002
3.490672e+003;1.201429e-002
3.492600e+003;1.165221e-002
3.494529e+003;1.148030e-002
3.496458e+003;1.174135e-002
3.498386e+003;1.239719e-002
3.500315e+003;1.245222e-002
3.502243e+003;1.198186e-002
3.504172e+003;1.145515e-002
3.506100e+003;1.120668e-002
3.508029e+003;1.165769e-002
3.509957e+003;1.232243e-002
3.511886e+003;1.215567e-002
3.513814e+003;1.186334e-002
3.515743e+003;1.205516e-002
3.517672e+003;1.213254e-002
3.519600e+003;1.200468e-002
3.521529e+003;1.123673e-002
3.523457e+003;1.074411e-002
3.525386e+003;1.120185e-002
3.527314e+003;1.161222e-002
3.529243e+003;1.135573e-002
3.531171e+003;1.149414e-002
3.533100e+003;1.179409e-002
3.535029e+003;1.128580e-002
3.536957e+003;1.114484e-002
3.538885e+003;1.155559e-002
3.540814e+003;1.146842e-002
3.542743e+003;1.099273e-002
3.544671e+003;1.070047e-002
3.546600e+003;1.074547e-002
3.548528e+003;1.114749e-002
3.550457e+003;1.103899e-002
3.552385e+003;1.117404e-002
3.554314e+003;1.148608e-002
3.556242e+003;1.174527e-002
3.558171e+003;1.209625e-002
3.560100e+003;1.235369e-002
3.562028e+003;1.215370e-002
3.563957e+003;1.161474e-002
3.565885e+003;1.055688e-002
3.567814e+003;1.014791e-002
3.569742e+003;1.117893e-002
3.571671e+003;1.246163e-002
3.573599e+003;1.274208e-002
3.575528e+003;1.233631e-002
3.577457e+003;1.231258e-002
3.579385e+003;1.265880e-002
3.581314e+003;1.286743e-002
3.583242e+003;1.302486e-002
3.585171e+003;1.220890e-002
3.587099e+003;1.152102e-002
3.589028e+003;1.245430e-002
3.590956e+003;1.374810e-002
3.592885e+003;1.415037e-002
3.594813e+003;1.451845e-002
3.596742e+003;1.529778e-002
3.598671e+003;1.649689e-002
3.600599e+003;1.713083e-002
3.602528e+003;1.774934e-002
3.604456e+003;1.804839e-002
3.606385e+003;1.748119e-002
3.608313e+003;1.627630e-002
3.610242e+003;1.602110e-002
3.612170e+003;1.599257e-002
3.614099e+003;1.564890e-002
3.616028e+003;1.484905e-002
3.617956e+003;1.409358e-002
3.619885e+003;1.447586e-002
3.621813e+003;1.516045e-002
3.623742e+003;1.535939e-002
3.625670e+003;1.449409e-002
3.627599e+003;1.130029e-002
3.629527e+003;1.045833e-002
3.631456e+003;1.281122e-002
3.633385e+003;1.417142e-002
3.635313e+003;1.477410e-002
3.637241e+003;1.467285e-002
3.639170e+003;1.534872e-002
3.641099e+003;1.603131e-002
3.643027e+003;1.620459e-002
3.644956e+003;1.524239e-002
3.646884e+003;1.245134e-002
3.648813e+003;1.096857e-002
3.650741e+003;1.263540e-002
3.652670e+003;1.483976e-002
3.654598e+003;1.404081e-002
3.656527e+003;1.323985e-002
3.658456e+003;1.452033e-002
3.660384e+003;1.510109e-002
3.662313e+003;1.528879e-002
3.664241e+003;1.555201e-002
3.666170e+003;1.479282e-002
3.668098e+003;1.235758e-002
3.670027e+003;1.060499e-002
3.671955e+003;1.190325e-002
3.673884e+003;1.065290e-002
3.675813e+003;9.361572e-003
3.677741e+003;1.207080e-002
3.679669e+003;1.370723e-002
3.681598e+003;1.445784e-002
3.683527e+003;1.489119e-002
3.685455e+003;1.410724e-002
3.687384e+003;1.107393e-002
3.689312e+003;1.039599e-002
3.691241e+003;1.230477e-002
3.693169e+003;1.433800e-002
3.695098e+003;1.479687e-002
3.697026e+003;1.442486e-002
3.698955e+003;1.408503e-002
3.700884e+003;1.390832e-002
3.702812e+003;1.404789e-002
3.704741e+003;1.370942e-002
3.706669e+003;1.295399e-002
3.708598e+003;1.207755e-002
3.710526e+003;1.075464e-002
3.712455e+003;1.064916e-002
3.714383e+003;1.244915e-002
3.716312e+003;1.324815e-002
3.718240e+003;1.291299e-002
3.720169e+003;1.190397e-002
3.722098e+003;1.177914e-002
3.724026e+003;1.272328e-002
3.725955e+003;1.242273e-002
3.727883e+003;1.226009e-002
3.729812e+003;1.213185e-002
3.731740e+003;1.064987e-002
3.733669e+003;9.732386e-003
3.735597e+003;9.167247e-003
3.737526e+003;1.059578e-002
3.739455e+003;1.197157e-002
3.741383e+003;1.087615e-002
3.743312e+003;6.209968e-003
3.745240e+003;6.544932e-003
3.747169e+003;8.914395e-003
3.749097e+003;7.065443e-003
3.751026e+003;6.682564e-003
3.752954e+003;8.715132e-003
3.754883e+003;1.140756e-002
3.756812e+003;1.185592e-002
3.758740e+003;1.168311e-002
3.760668e+003;1.231568e-002
3.762597e+003;1.337480e-002
3.764526e+003;1.321887e-002
3.766454e+003;1.326502e-002
3.768383e+003;1.276614e-002
3.770311e+003;1.266996e-002
3.772240e+003;1.382427e-002
3.774168e+003;1.428954e-002
3.776097e+003;1.361652e-002
3.778025e+003;1.275822e-002
3.779954e+003;1.306143e-002
3.781883e+003;1.404505e-002
3.783811e+003;1.433105e-002
3.785740e+003;1.497970e-002
3.787668e+003;1.507108e-002
3.789597e+003;1.488255e-002
3.791525e+003;1.555266e-002
3.793454e+003;1.581814e-002
3.795382e+003;1.462045e-002
3.797311e+003;1.390024e-002
3.799240e+003;1.168097e-002
3.801168e+003;9.568447e-003
3.803097e+003;1.225706e-002
3.805025e+003;1.317993e-002
3.806954e+003;1.228006e-002
3.808882e+003;1.416584e-002
3.810811e+003;1.554655e-002
3.812739e+003;1.542599e-002
3.814668e+003;1.226704e-002
3.816596e+003;1.204075e-002
3.818525e+003;1.381900e-002
3.820454e+003;1.271987e-002
3.822382e+003;1.409242e-002
3.824311e+003;1.545892e-002
3.826239e+003;1.493944e-002
3.828168e+003;1.501338e-002
3.830096e+003;1.511540e-002
3.832025e+003;1.498378e-002
3.833953e+003;1.450471e-002
3.835882e+003;1.232737e-002
3.837811e+003;1.095607e-002
3.839739e+003;1.326051e-002
3.841667e+003;1.489726e-002
3.843596e+003;1.523734e-002
3.845525e+003;1.568895e-002
3.847453e+003;1.592000e-002
3.849382e+003;1.451516e-002
3.851310e+003;1.050114e-002
3.853239e+003;7.265264e-003
3.855167e+003;1.107359e-002
3.857096e+003;1.546235e-002
3.859024e+003;1.617979e-002
3.860953e+003;1.524572e-002
3.862882e+003;1.451553e-002
3.864810e+003;1.444692e-002
3.866739e+003;1.467316e-002
3.868667e+003;1.309554e-002
3.870596e+003;1.356301e-002
3.872524e+003;1.549662e-002
3.874453e+003;1.641213e-002
3.876381e+003;1.760574e-002
3.878310e+003;1.687812e-002
3.880239e+003;1.606329e-002
3.882167e+003;1.668341e-002
3.884096e+003;1.589124e-002
3.886024e+003;1.526586e-002
3.887953e+003;1.667545e-002
3.889881e+003;1.624235e-002
3.891810e+003;1.566765e-002
3.893738e+003;1.655668e-002
3.895667e+003;1.686042e-002
3.897595e+003;1.643343e-002
3.899524e+003;1.553182e-002
3.901453e+003;1.455672e-002
3.903381e+003;1.455370e-002
3.905310e+003;1.634397e-002
3.907238e+003;1.752549e-002
3.909167e+003;1.798304e-002
3.911095e+003;1.829960e-002
3.913024e+003;1.807951e-002
3.914952e+003;1.750131e-002
3.916881e+003;1.669794e-002
3.918810e+003;1.656188e-002
3.920738e+003;1.664278e-002
3.922667e+003;1.672042e-002
3.924595e+003;1.736607e-002
3.926524e+003;1.826967e-002
3.928452e+003;1.788052e-002
3.930381e+003;1.699243e-002
3.932309e+003;1.652952e-002
3.934238e+003;1.701049e-002
3.936167e+003;1.749568e-002
3.938095e+003;1.795310e-002
3.940023e+003;1.751431e-002
3.941952e+003;1.662994e-002
3.943881e+003;1.661334e-002
3.945809e+003;1.665421e-002
3.947738e+003;1.648196e-002
3.949666e+003;1.667414e-002
3.951595e+003;1.688222e-002
3.953523e+003;1.675393e-002
3.955452e+003;1.678020e-002
3.957380e+003;1.688798e-002
3.959309e+003;1.693938e-002
3.961238e+003;1.699037e-002
3.963166e+003;1.691612e-002
3.965095e+003;1.699561e-002
3.967023e+003;1.707576e-002
3.968952e+003;1.698551e-002
3.970880e+003;1.714472e-002
3.972809e+003;1.725900e-002
3.974737e+003;1.748761e-002
3.976666e+003;1.770513e-002
3.978594e+003;1.731072e-002
3.980523e+003;1.733465e-002
3.982452e+003;1.720298e-002
3.984380e+003;1.655210e-002
3.986309e+003;1.637370e-002
3.988237e+003;1.655744e-002
3.990166e+003;1.649861e-002
3.992094e+003;1.628466e-002
3.994023e+003;1.662567e-002
3.995951e+003;1.696715e-002
3.997880e+003;1.650784e-002
3.999809e+003;1.664636e-002
4.001737e+003;0.000000e+000
