3.992094e+002;0.000000e+000
4.011380e+002;0.000000e+000
4.030665e+002;0.000000e+000
4.049951e+002;0.000000e+000
4.069236e+002;0.000000e+000
4.088522e+002;0.000000e+000
4.107807e+002;0.000000e+000
4.127093e+002;0.000000e+000
4.146378e+002;0.000000e+000
4.165664e+002;0.000000e+000
4.184949e+002;0.000000e+000
4.204235e+002;0.000000e+000
4.223520e+002;0.000000e+000
4.242806e+002;0.000000e+000
4.262091e+002;0.000000e+000
4.281377e+002;0.000000e+000
4.300662e+002;0.000000e+000
4.319948e+002;0.000000e+000
4.339233e+002;0.000000e+000
4.358519e+002;0.000000e+000
4.377804e+002;0.000000e+000
4.397090e+002;0.000000e+000
4.416375e+002;0.000000e+000
4.435660e+002;0.000000e+000
4.454946e+002;0.000000e+000
4.474232e+002;0.000000e+000
4.493517e+002;0.000000e+000
4.512802e+002;0.000000e+000
4.532088e+002;0.000000e+000
4.551373e+002;0.000000e+000
4.570659e+002;0.000000e+000
4.589944e+002;0.000000e+000
4.609230e+002;0.000000e+000
4.628515e+002;0.000000e+000
4.647801e+002;0.000000e+000
4.667086e+002;0.000000e+000
4.686372e+002;0.000000e+000
4.705657e+002;0.000000e+000
4.724943e+002;0.000000e+000
4.744228e+002;0.000000e+000
4.763513e+002;0.000000e+000
4.782799e+002;0.000000e+000
4.802085e+002;0.000000e+000
4.821370e+002;0.000000e+000
4.840656e+002;0.000000e+000
4.859941e+002;0.000000e+000
4.879226e+002;0.000000e+000
4.898512e+002;0.000000e+000
4.917798e+002;0.000000e+000
4.937083e+002;0.000000e+000
4.956368e+002;0.000000e+000
4.975654e+002;0.000000e+000
4.994939e+002;0.000000e+000
5.014225e+002;0.000000e+000
5.033510e+002;0.000000e+000
5.052796e+002;0.000000e+000
5.072081e+002;0.000000e+000
5.091367e+002;0.000000e+000
5.110652e+002;0.000000e+000
5.129938e+002;0.000000e+000
5.149223e+002;0.000000e+000
5.168509e+002;0.000000e+000
5.187794e+002;0.000000e+000
5.207079e+002;0.000000e+000
5.226365e+002;0.000000e+000
5.245651e+002;0.000000e+000
5.264936e+002;0.000000e+000
5.284222e+002;0.000000e+000
5.303507e+002;0.000000e+000
5.322792e+002;0.000000e+000
5.342078e+002;0.000000e+000
5.361364e+002;0.000000e+000
5.380649e+002;0.000000e+000
5.399935e+002;0.000000e+000
5.419220e+002;0.000000e+000
5.438505e+002;0.000000e+000
5.457791e+002;0.000000e+000
5.477076e+002;0.000000e+000
5.496362e+002;0.000000e+000
5.515648e+002;0.000000e+000
5.534933e+002;0.000000e+000
5.554218e+002;0.000000e+000
5.573504e+002;0.000000e+000
5.592789e+002;0.000000e+000
5.612075e+002;0.000000e+000
5.631360e+002;0.000000e+000
5.650646e+002;0.000000e+000
5.669931e+002;0.000000e+000
5.689217e+002;0.000000e+000
5.708502e+002;0.000000e+000
5.727787e+002;0.000000e+000
5.747073e+002;0.000000e+000
5.766359e+002;0.000000e+000
5.785644e+002;0.000000e+000
5.804930e+002;0.000000e+000
5.824215e+002;0.000000e+000
5.843500e+002;0.000000e+000
5.862786e+002;0.000000e+000
5.882072e+002;0.000000e+000
5.901357e+002;0.000000e+000
5.920643e+002;0.000000e+000
5.939928e+002;0.000000e+000
5.959213e+002;0.000000e+000
5.978499e+002;0.000000e+000
5.997784e+002;2.738850e-002
6.017070e+002;2.126580e-002
6.036355e+002;2.028015e-002
6.055641e+002;1.972952e-002
6.074926e+002;1.904854e-002
6.094211e+002;2.270393e-002
6.113497e+002;1.992922e-002
6.132783e+002;1.388831e-002
6.152068e+002;1.421737e-002
6.171354e+002;1.937208e-002
6.190639e+002;2.319385e-002
6.209924e+002;2.605116e-002
6.229210e+002;2.275672e-002
6.248495e+002;1.966808e-002
6.267781e+002;2.241991e-002
6.287067e+002;2.157943e-002
6.306352e+002;2.144295e-002
6.325637e+002;2.689499e-002
6.344923e+002;2.984249e-002
6.364208e+002;2.645176e-002
6.383494e+002;2.364024e-002
6.402780e+002;2.246893e-002
6.422065e+002;2.217610e-002
6.441350e+002;2.286208e-002
6.460636e+002;2.689538e-002
6.479921e+002;2.762847e-002
6.499207e+002;2.550245e-002
6.518492e+002;2.365080e-002
6.537778e+002;2.333889e-002
6.557063e+002;2.473172e-002
6.576349e+002;2.614926e-002
6.595634e+002;2.661159e-002
6.614919e+002;2.566862e-002
6.634205e+002;2.358384e-002
6.653491e+002;2.111494e-002
6.672776e+002;2.092854e-002
6.692062e+002;2.318676e-002
6.711347e+002;2.424948e-002
6.730632e+002;2.418779e-002
6.749918e+002;2.360392e-002
6.769203e+002;2.367691e-002
6.788489e+002;2.646243e-002
6.807775e+002;2.982393e-002
6.827060e+002;3.129910e-002
6.846345e+002;3.211009e-002
6.865631e+002;3.387149e-002
6.884916e+002;3.671477e-002
6.904202e+002;3.795177e-002
6.923488e+002;3.915118e-002
6.942773e+002;4.125652e-002
6.962058e+002;4.330214e-002
6.981344e+002;4.806536e-002
7.000629e+002;5.373259e-002
7.019915e+002;5.854767e-002
7.039200e+002;6.544172e-002
7.058486e+002;7.538781e-002
7.077771e+002;8.773262e-002
7.097057e+002;1.052110e-001
7.116342e+002;1.343280e-001
7.135627e+002;1.698396e-001
7.154913e+002;1.937880e-001
7.174199e+002;1.928238e-001
7.193484e+002;1.675093e-001
7.212770e+002;1.324192e-001
7.232055e+002;1.056779e-001
7.251340e+002;9.086972e-002
7.270626e+002;8.277325e-002
7.289911e+002;8.276238e-002
7.309197e+002;8.863290e-002
7.328483e+002;8.616299e-002
7.347768e+002;6.908125e-002
7.367053e+002;5.137797e-002
7.386339e+002;4.108971e-002
7.405624e+002;3.650519e-002
7.424910e+002;3.449458e-002
7.444196e+002;3.347154e-002
7.463481e+002;3.226203e-002
7.482766e+002;3.022337e-002
7.502052e+002;2.848117e-002
7.521337e+002;2.739348e-002
7.540623e+002;2.687070e-002
7.559908e+002;2.679330e-002
7.579194e+002;2.558827e-002
7.598479e+002;2.401624e-002
7.617765e+002;2.335312e-002
7.637050e+002;2.324897e-002
7.656335e+002;2.377636e-002
7.675621e+002;2.414085e-002
7.694907e+002;2.352081e-002
7.714192e+002;2.249939e-002
7.733478e+002;2.210849e-002
7.752763e+002;2.262008e-002
7.772048e+002;2.314478e-002
7.791334e+002;2.261952e-002
7.810620e+002;2.129558e-002
7.829905e+002;2.082629e-002
7.849191e+002;2.071983e-002
7.868476e+002;2.081280e-002
7.887761e+002;2.171905e-002
7.907047e+002;2.224208e-002
7.926332e+002;2.225442e-002
7.945618e+002;2.204166e-002
7.964903e+002;2.179639e-002
7.984189e+002;2.157483e-002
8.003474e+002;2.156063e-002
8.022759e+002;2.191319e-002
8.042045e+002;2.169627e-002
8.061331e+002;2.114076e-002
8.080616e+002;2.121729e-002
8.099902e+002;2.251450e-002
8.119187e+002;2.348943e-002
8.138472e+002;2.332347e-002
8.157758e+002;2.314901e-002
8.177043e+002;2.349167e-002
8.196329e+002;2.469251e-002
8.215615e+002;2.512208e-002
8.234900e+002;2.491703e-002
8.254185e+002;2.485952e-002
8.273471e+002;2.506454e-002
8.292756e+002;2.526432e-002
8.312042e+002;2.553756e-002
8.331328e+002;2.551451e-002
8.350613e+002;2.558493e-002
8.369898e+002;2.594464e-002
8.389184e+002;2.604824e-002
8.408469e+002;2.553731e-002
8.427755e+002;2.449520e-002
8.447040e+002;2.415339e-002
8.466326e+002;2.393549e-002
8.485611e+002;2.330690e-002
8.504897e+002;2.314181e-002
8.524182e+002;2.360249e-002
8.543467e+002;2.385081e-002
8.562753e+002;2.366991e-002
8.582039e+002;2.359112e-002
8.601324e+002;2.378095e-002
8.620610e+002;2.354827e-002
8.639895e+002;2.328774e-002
8.659180e+002;2.361974e-002
8.678466e+002;2.372583e-002
8.697751e+002;2.387770e-002
8.717037e+002;2.444966e-002
8.736323e+002;2.485008e-002
8.755608e+002;2.507352e-002
8.774893e+002;2.484362e-002
8.794179e+002;2.437683e-002
8.813464e+002;2.456697e-002
8.832750e+002;2.516849e-002
8.852036e+002;2.540956e-002
8.871321e+002;2.551219e-002
8.890606e+002;2.549181e-002
8.909892e+002;2.548429e-002
8.929177e+002;2.562595e-002
8.948463e+002;2.619867e-002
8.967748e+002;2.671577e-002
8.987034e+002;2.632236e-002
9.006319e+002;2.580925e-002
9.025605e+002;2.580520e-002
9.044890e+002;2.637841e-002
9.064175e+002;2.712746e-002
9.083461e+002;2.763451e-002
9.102747e+002;2.779478e-002
9.122032e+002;2.749015e-002
9.141318e+002;2.681607e-002
9.160603e+002;2.645253e-002
9.179888e+002;2.649282e-002
9.199174e+002;2.623809e-002
9.218459e+002;2.543931e-002
9.237745e+002;2.520726e-002
9.257031e+002;2.526404e-002
9.276316e+002;2.553657e-002
9.295601e+002;2.598358e-002
9.314887e+002;2.625076e-002
9.334172e+002;2.598080e-002
9.353458e+002;2.594489e-002
9.372744e+002;2.610915e-002
9.392029e+002;2.598763e-002
9.411314e+002;2.561572e-002
9.430600e+002;2.563702e-002
9.449885e+002;2.602889e-002
9.469171e+002;2.568989e-002
9.488456e+002;2.508335e-002
9.507742e+002;2.489997e-002
9.527027e+002;2.508048e-002
9.546313e+002;2.530007e-002
9.565598e+002;2.524669e-002
9.584883e+002;2.507209e-002
9.604169e+002;2.493208e-002
9.623455e+002;2.504049e-002
9.642740e+002;2.518278e-002
9.662026e+002;2.566046e-002
9.681311e+002;2.585489e-002
9.700596e+002;2.568799e-002
9.719882e+002;2.545829e-002
9.739167e+002;2.525708e-002
9.758453e+002;2.507872e-002
9.777739e+002;2.504534e-002
9.797024e+002;2.452338e-002
9.816309e+002;2.434469e-002
9.835595e+002;2.425958e-002
9.854880e+002;2.389247e-002
9.874166e+002;2.370679e-002
9.893452e+002;2.348324e-002
9.912737e+002;2.324541e-002
9.932022e+002;2.298213e-002
9.951307e+002;2.265352e-002
9.970593e+002;2.254818e-002
9.989879e+002;2.251858e-002
1.000916e+003;2.290050e-002
1.002845e+003;2.316914e-002
1.004773e+003;2.309387e-002
1.006702e+003;2.298961e-002
1.008631e+003;2.248917e-002
1.010559e+003;2.203427e-002
1.012488e+003;2.227953e-002
1.014416e+003;2.224535e-002
1.016345e+003;2.194574e-002
1.018273e+003;2.199342e-002
1.020202e+003;2.261030e-002
1.022130e+003;2.347628e-002
1.024059e+003;2.445835e-002
1.025988e+003;2.539519e-002
1.027916e+003;2.602981e-002
1.029845e+003;2.643901e-002
1.031773e+003;2.689989e-002
1.033702e+003;2.704529e-002
1.035630e+003;2.656351e-002
1.037559e+003;2.629008e-002
1.039487e+003;2.638971e-002
1.041416e+003;2.608424e-002
1.043344e+003;2.580123e-002
1.045273e+003;2.573815e-002
1.047202e+003;2.637151e-002
1.049130e+003;2.723113e-002
1.051059e+003;2.752037e-002
1.052987e+003;2.755277e-002
1.054916e+003;2.833455e-002
1.056844e+003;2.885622e-002
1.058773e+003;2.919119e-002
1.060701e+003;2.964567e-002
1.062630e+003;2.988029e-002
1.064558e+003;3.022816e-002
1.066487e+003;3.076862e-002
1.068416e+003;3.115857e-002
1.070344e+003;3.144598e-002
1.072273e+003;3.182948e-002
1.074201e+003;3.267847e-002
1.076130e+003;3.329339e-002
1.078058e+003;3.297115e-002
1.079987e+003;3.231264e-002
1.081915e+003;3.122091e-002
1.083844e+003;2.980867e-002
1.085773e+003;2.914420e-002
1.087701e+003;2.912028e-002
1.089630e+003;2.880725e-002
1.091558e+003;2.751440e-002
1.093487e+003;2.638429e-002
1.095415e+003;2.580084e-002
1.097344e+003;2.526653e-002
1.099272e+003;2.526653e-002
1.101201e+003;2.529940e-002
1.103129e+003;2.507872e-002
1.105058e+003;2.483141e-002
1.106987e+003;2.477164e-002
1.108915e+003;2.450754e-002
1.110844e+003;2.417802e-002
1.112772e+003;2.426371e-002
1.114701e+003;2.433306e-002
1.116629e+003;2.441976e-002
1.118558e+003;2.441542e-002
1.120486e+003;2.443392e-002
1.122415e+003;2.447711e-002
1.124344e+003;2.452261e-002
1.126272e+003;2.462349e-002
1.128201e+003;2.433954e-002
1.130129e+003;2.421074e-002
1.132058e+003;2.439362e-002
1.133986e+003;2.458418e-002
1.135915e+003;2.451339e-002
1.137843e+003;2.455017e-002
1.139772e+003;2.461651e-002
1.141700e+003;2.524286e-002
1.143629e+003;2.648553e-002
1.145557e+003;2.716746e-002
1.147486e+003;2.760637e-002
1.149415e+003;2.754963e-002
1.151343e+003;2.718305e-002
1.153272e+003;2.729583e-002
1.155200e+003;2.725494e-002
1.157129e+003;2.683686e-002
1.159057e+003;2.602182e-002
1.160986e+003;2.567150e-002
1.162914e+003;2.598147e-002
1.164843e+003;2.626337e-002
1.166771e+003;2.622123e-002
1.168700e+003;2.574286e-002
1.170629e+003;2.568335e-002
1.172557e+003;2.563252e-002
1.174486e+003;2.563466e-002
1.176414e+003;2.580369e-002
1.178343e+003;2.516336e-002
1.180271e+003;2.429399e-002
1.182200e+003;2.368391e-002
1.184128e+003;2.341484e-002
1.186057e+003;2.331991e-002
1.187986e+003;2.311050e-002
1.189914e+003;2.266232e-002
1.191843e+003;2.250923e-002
1.193771e+003;2.227448e-002
1.195700e+003;2.208422e-002
1.197628e+003;2.190207e-002
1.199557e+003;2.156122e-002
1.201485e+003;2.147522e-002
1.203414e+003;2.170920e-002
1.205343e+003;2.175239e-002
1.207271e+003;2.109418e-002
1.209200e+003;2.060877e-002
1.211128e+003;2.051424e-002
1.213057e+003;2.067768e-002
1.214985e+003;2.115151e-002
1.216914e+003;2.157463e-002
1.218842e+003;2.156105e-002
1.220771e+003;2.109686e-002
1.222699e+003;2.095750e-002
1.224628e+003;2.119913e-002
1.226557e+003;2.108753e-002
1.228485e+003;2.110044e-002
1.230414e+003;2.123264e-002
1.232342e+003;2.132029e-002
1.234271e+003;2.154980e-002
1.236199e+003;2.164622e-002
1.238128e+003;2.138120e-002
1.240056e+003;2.108587e-002
1.241985e+003;2.126893e-002
1.243913e+003;2.149531e-002
1.245842e+003;2.171035e-002
1.247771e+003;2.235435e-002
1.249699e+003;2.281322e-002
1.251628e+003;2.314282e-002
1.253556e+003;2.367288e-002
1.255485e+003;2.414218e-002
1.257413e+003;2.441528e-002
1.259342e+003;2.397849e-002
1.261270e+003;2.324125e-002
1.263199e+003;2.323628e-002
1.265127e+003;2.398763e-002
1.267056e+003;2.468076e-002
1.268985e+003;2.494458e-002
1.270913e+003;2.506791e-002
1.272842e+003;2.531992e-002
1.274770e+003;2.574367e-002
1.276699e+003;2.580953e-002
1.278627e+003;2.551851e-002
1.280556e+003;2.546819e-002
1.282484e+003;2.546127e-002
1.284413e+003;2.574114e-002
1.286342e+003;2.602140e-002
1.288270e+003;2.615408e-002
1.290199e+003;2.652110e-002
1.292127e+003;2.733955e-002
1.294056e+003;2.776885e-002
1.295984e+003;2.770938e-002
1.297913e+003;2.773562e-002
1.299841e+003;2.767586e-002
1.301770e+003;2.758836e-002
1.303698e+003;2.786582e-002
1.305627e+003;2.797380e-002
1.307556e+003;2.756326e-002
1.309484e+003;2.686855e-002
1.311413e+003;2.610989e-002
1.313341e+003;2.537172e-002
1.315270e+003;2.469699e-002
1.317198e+003;2.384696e-002
1.319127e+003;2.273113e-002
1.321055e+003;2.209402e-002
1.322984e+003;2.169823e-002
1.324912e+003;2.142924e-002
1.326841e+003;2.127220e-002
1.328770e+003;2.087646e-002
1.330698e+003;2.067246e-002
1.332627e+003;2.086015e-002
1.334555e+003;2.090361e-002
1.336484e+003;2.090743e-002
1.338412e+003;2.126319e-002
1.340341e+003;2.223737e-002
1.342269e+003;2.362330e-002
1.344198e+003;2.477581e-002
1.346126e+003;2.565319e-002
1.348055e+003;2.639204e-002
1.349984e+003;2.719949e-002
1.351912e+003;2.770348e-002
1.353841e+003;2.754140e-002
1.355769e+003;2.706377e-002
1.357698e+003;2.682185e-002
1.359626e+003;2.688177e-002
1.361555e+003;2.717483e-002
1.363483e+003;2.862339e-002
1.365412e+003;3.040940e-002
1.367341e+003;3.132520e-002
1.369269e+003;3.154441e-002
1.371198e+003;3.043229e-002
1.373126e+003;2.841640e-002
1.375055e+003;2.716425e-002
1.376983e+003;2.671155e-002
1.378912e+003;2.554339e-002
1.380840e+003;2.411430e-002
1.382769e+003;2.333172e-002
1.384698e+003;2.270232e-002
1.386626e+003;2.149722e-002
1.388555e+003;2.130609e-002
1.390483e+003;2.164403e-002
1.392412e+003;2.109640e-002
1.394340e+003;2.025130e-002
1.396269e+003;2.044860e-002
1.398197e+003;2.081242e-002
1.400126e+003;2.171972e-002
1.402054e+003;2.251363e-002
1.403983e+003;2.243665e-002
1.405911e+003;2.277118e-002
1.407840e+003;2.341123e-002
1.409769e+003;2.372002e-002
1.411697e+003;2.413980e-002
1.413626e+003;2.483997e-002
1.415554e+003;2.523921e-002
1.417483e+003;2.450659e-002
1.419411e+003;2.461774e-002
1.421340e+003;2.763942e-002
1.423268e+003;3.023545e-002
1.425197e+003;3.280098e-002
1.427125e+003;3.589481e-002
1.429054e+003;3.860103e-002
1.430983e+003;4.164160e-002
1.432911e+003;4.449269e-002
1.434840e+003;4.543253e-002
1.436768e+003;4.673734e-002
1.438697e+003;5.082557e-002
1.440625e+003;5.368107e-002
1.442554e+003;5.548634e-002
1.444482e+003;5.685397e-002
1.446411e+003;5.834160e-002
1.448340e+003;6.089668e-002
1.450268e+003;6.513969e-002
1.452197e+003;7.054393e-002
1.454125e+003;7.582892e-002
1.456054e+003;8.006446e-002
1.457982e+003;9.266417e-002
1.459911e+003;1.162400e-001
1.461839e+003;1.339846e-001
1.463768e+003;1.354107e-001
1.465697e+003;1.398642e-001
1.467625e+003;1.573911e-001
1.469554e+003;1.859207e-001
1.471482e+003;2.074448e-001
1.473411e+003;1.843361e-001
1.475339e+003;1.300867e-001
1.477268e+003;8.731250e-002
1.479196e+003;6.556855e-002
1.481125e+003;5.479997e-002
1.483053e+003;4.857168e-002
1.484982e+003;4.353251e-002
1.486911e+003;3.909676e-002
1.488839e+003;3.565933e-002
1.490768e+003;3.422049e-002
1.492696e+003;3.385837e-002
1.494625e+003;3.126449e-002
1.496553e+003;2.855353e-002
1.498482e+003;2.855431e-002
1.500410e+003;2.889680e-002
1.502339e+003;2.835584e-002
1.504267e+003;2.421890e-002
1.506196e+003;1.939848e-002
1.508125e+003;2.072032e-002
1.510053e+003;2.346632e-002
1.511982e+003;2.396417e-002
1.513910e+003;2.375876e-002
1.515839e+003;2.246809e-002
1.517767e+003;2.167116e-002
1.519696e+003;1.983182e-002
1.521624e+003;1.839807e-002
1.523553e+003;2.035195e-002
1.525481e+003;2.117864e-002
1.527410e+003;2.175002e-002
1.529339e+003;2.251848e-002
1.531267e+003;2.213698e-002
1.533196e+003;2.102632e-002
1.535124e+003;2.171689e-002
1.537053e+003;1.982128e-002
1.538981e+003;1.483880e-002
1.540910e+003;1.456001e-002
1.542838e+003;1.758369e-002
1.544767e+003;1.962021e-002
1.546695e+003;2.117927e-002
1.548624e+003;2.140407e-002
1.550553e+003;2.120731e-002
1.552481e+003;2.036265e-002
1.554410e+003;1.848772e-002
1.556338e+003;1.567882e-002
1.558267e+003;1.081412e-002
1.560195e+003;1.256510e-002
1.562124e+003;1.833022e-002
1.564052e+003;2.011447e-002
1.565981e+003;2.012002e-002
1.567910e+003;1.897937e-002
1.569838e+003;1.801958e-002
1.571767e+003;1.955570e-002
1.573695e+003;1.880627e-002
1.575624e+003;1.586257e-002
1.577552e+003;1.786498e-002
1.579481e+003;2.089283e-002
1.581409e+003;2.137253e-002
1.583338e+003;2.151470e-002
1.585266e+003;2.138725e-002
1.587195e+003;2.131097e-002
1.589124e+003;2.123998e-002
1.591052e+003;2.132969e-002
1.592981e+003;2.115829e-002
1.594909e+003;2.114069e-002
1.596838e+003;2.102990e-002
1.598766e+003;2.086224e-002
1.600695e+003;2.100396e-002
1.602623e+003;2.155645e-002
1.604552e+003;2.185600e-002
1.606480e+003;2.139202e-002
1.608409e+003;2.082660e-002
1.610338e+003;2.081305e-002
1.612266e+003;2.100716e-002
1.614195e+003;1.991309e-002
1.616123e+003;1.712863e-002
1.618052e+003;1.838991e-002
1.619980e+003;2.069321e-002
1.621909e+003;1.998820e-002
1.623837e+003;1.975480e-002
1.625766e+003;2.048149e-002
1.627694e+003;2.061895e-002
1.629623e+003;2.136724e-002
1.631552e+003;2.164591e-002
1.633480e+003;1.959147e-002
1.635409e+003;1.709726e-002
1.637337e+003;1.899080e-002
1.639266e+003;2.159653e-002
1.641194e+003;2.231075e-002
1.643123e+003;2.181263e-002
1.645051e+003;1.942599e-002
1.646980e+003;1.858132e-002
1.648909e+003;2.021190e-002
1.650837e+003;1.696432e-002
1.652766e+003;1.154882e-002
1.654694e+003;1.555596e-002
1.656623e+003;2.081663e-002
1.658551e+003;2.209977e-002
1.660480e+003;2.158061e-002
1.662408e+003;2.043064e-002
1.664337e+003;2.091786e-002
1.666266e+003;2.095823e-002
1.668194e+003;1.903275e-002
1.670123e+003;1.847354e-002
1.672051e+003;1.969533e-002
1.673980e+003;1.870494e-002
1.675908e+003;1.857758e-002
1.677837e+003;2.076539e-002
1.679765e+003;2.092864e-002
1.681694e+003;1.877122e-002
1.683622e+003;1.472286e-002
1.685551e+003;1.611476e-002
1.687479e+003;2.008497e-002
1.689408e+003;2.094001e-002
1.691337e+003;2.106267e-002
1.693265e+003;1.989460e-002
1.695194e+003;1.655272e-002
1.697122e+003;1.675530e-002
1.699051e+003;1.562764e-002
1.700979e+003;1.541552e-002
1.702908e+003;1.913880e-002
1.704836e+003;1.933615e-002
1.706765e+003;1.957833e-002
1.708693e+003;2.024855e-002
1.710622e+003;2.033615e-002
1.712551e+003;1.931325e-002
1.714479e+003;1.695168e-002
1.716408e+003;1.394907e-002
1.718336e+003;1.442623e-002
1.720265e+003;1.741818e-002
1.722193e+003;1.819953e-002
1.724122e+003;1.799585e-002
1.726050e+003;1.806079e-002
1.727979e+003;1.781109e-002
1.729908e+003;1.740928e-002
1.731836e+003;1.496183e-002
1.733765e+003;1.223913e-002
1.735693e+003;1.554315e-002
1.737622e+003;1.877589e-002
1.739550e+003;1.854660e-002
1.741479e+003;1.880063e-002
1.743407e+003;1.932742e-002
1.745336e+003;1.918396e-002
1.747265e+003;1.800428e-002
1.749193e+003;1.620431e-002
1.751122e+003;1.484305e-002
1.753050e+003;1.541562e-002
1.754979e+003;1.480506e-002
1.756907e+003;1.358903e-002
1.758836e+003;1.316996e-002
1.760764e+003;1.189195e-002
1.762693e+003;1.162273e-002
1.764621e+003;1.217499e-002
1.766550e+003;1.109330e-002
1.768479e+003;1.015517e-002
1.770407e+003;9.169583e-003
1.772336e+003;8.009539e-003
1.774264e+003;9.298672e-003
1.776193e+003;1.047004e-002
1.778121e+003;1.060332e-002
1.780050e+003;1.029629e-002
1.781978e+003;1.014717e-002
1.783907e+003;9.893199e-003
1.785835e+003;9.829375e-003
1.787764e+003;1.015198e-002
1.789693e+003;9.355580e-003
1.791621e+003;7.876784e-003
1.793550e+003;8.219925e-003
1.795478e+003;9.509108e-003
1.797407e+003;9.532206e-003
1.799335e+003;8.947981e-003
1.801264e+003;8.927315e-003
1.803192e+003;9.591346e-003
1.805121e+003;1.005855e-002
1.807049e+003;1.020418e-002
1.808978e+003;1.000752e-002
1.810907e+003;9.786537e-003
1.812835e+003;9.794400e-003
1.814764e+003;1.001033e-002
1.816692e+003;9.990632e-003
1.818621e+003;1.014723e-002
1.820549e+003;1.031787e-002
1.822478e+003;9.916759e-003
1.824406e+003;9.219975e-003
1.826335e+003;9.153407e-003
1.828264e+003;8.615079e-003
1.830192e+003;8.189772e-003
1.832121e+003;8.747857e-003
1.834049e+003;8.760265e-003
1.835978e+003;8.611463e-003
1.837906e+003;8.737783e-003
1.839835e+003;8.798572e-003
1.841763e+003;8.132511e-003
1.843692e+003;7.020317e-003
1.845620e+003;7.738942e-003
1.847549e+003;8.730379e-003
1.849478e+003;8.879256e-003
1.851406e+003;8.995911e-003
1.853335e+003;9.027034e-003
1.855263e+003;8.915917e-003
1.857192e+003;8.766148e-003
1.859120e+003;8.648067e-003
1.861049e+003;8.599262e-003
1.862977e+003;8.828159e-003
1.864906e+003;8.944125e-003
1.866834e+003;8.413893e-003
1.868763e+003;8.099191e-003
1.870692e+003;8.983362e-003
1.872620e+003;9.725474e-003
1.874549e+003;9.880590e-003
1.876477e+003;1.013133e-002
1.878406e+003;1.020368e-002
1.880334e+003;1.029493e-002
1.882263e+003;1.065701e-002
1.884191e+003;1.120321e-002
1.886120e+003;1.176083e-002
1.888048e+003;1.215462e-002
1.889977e+003;1.267245e-002
1.891906e+003;1.359112e-002
1.893834e+003;1.418330e-002
1.895763e+003;1.422356e-002
1.897691e+003;1.411487e-002
1.899620e+003;1.420086e-002
1.901548e+003;1.417468e-002
1.903477e+003;1.396843e-002
1.905405e+003;1.365553e-002
1.907334e+003;1.318861e-002
1.909262e+003;1.281139e-002
1.911191e+003;1.273130e-002
1.913120e+003;1.253144e-002
1.915048e+003;1.192818e-002
1.916977e+003;1.121780e-002
1.918905e+003;1.123548e-002
1.920834e+003;1.134209e-002
1.922762e+003;1.101516e-002
1.924691e+003;1.114943e-002
1.926619e+003;1.137858e-002
1.928548e+003;1.157118e-002
1.930477e+003;1.135243e-002
1.932405e+003;1.113695e-002
1.934334e+003;1.138834e-002
1.936262e+003;1.138379e-002
1.938191e+003;1.122813e-002
1.940119e+003;1.100843e-002
1.942048e+003;1.064444e-002
1.943976e+003;1.064325e-002
1.945905e+003;1.077529e-002
1.947833e+003;1.082587e-002
1.949762e+003;1.077475e-002
1.951691e+003;1.073457e-002
1.953619e+003;1.091611e-002
1.955548e+003;1.108922e-002
1.957476e+003;1.113940e-002
1.959405e+003;1.100820e-002
1.961333e+003;1.084262e-002
1.963262e+003;1.085886e-002
1.965190e+003;1.083097e-002
1.967119e+003;1.065459e-002
1.969047e+003;1.081558e-002
1.970976e+003;1.078280e-002
1.972905e+003;1.043970e-002
1.974833e+003;1.045507e-002
1.976762e+003;1.071348e-002
1.978690e+003;1.080814e-002
1.980619e+003;1.053155e-002
1.982547e+003;1.040254e-002
1.984476e+003;1.046984e-002
1.986404e+003;1.036002e-002
1.988333e+003;1.053933e-002
1.990261e+003;1.054404e-002
1.992190e+003;1.055420e-002
1.994119e+003;1.082805e-002
1.996047e+003;1.100619e-002
1.997976e+003;1.098832e-002
1.999904e+003;1.114657e-002
2.001833e+003;1.133610e-002
2.003761e+003;1.152065e-002
2.005690e+003;1.197491e-002
2.007618e+003;1.259679e-002
2.009547e+003;1.344260e-002
2.011476e+003;1.465198e-002
2.013404e+003;1.541786e-002
2.015333e+003;1.585680e-002
2.017261e+003;1.624001e-002
2.019190e+003;1.637236e-002
2.021118e+003;1.654102e-002
2.023047e+003;1.660026e-002
2.024975e+003;1.601254e-002
2.026904e+003;1.530815e-002
2.028833e+003;1.498718e-002
2.030761e+003;1.472358e-002
2.032690e+003;1.424863e-002
2.034618e+003;1.372953e-002
2.036547e+003;1.338211e-002
2.038475e+003;1.327076e-002
2.040404e+003;1.329143e-002
2.042332e+003;1.323834e-002
2.044261e+003;1.316299e-002
2.046189e+003;1.303907e-002
2.048118e+003;1.259781e-002
2.050047e+003;1.224666e-002
2.051975e+003;1.213308e-002
2.053904e+003;1.228395e-002
2.055832e+003;1.236088e-002
2.057761e+003;1.206777e-002
2.059689e+003;1.182892e-002
2.061618e+003;1.175613e-002
2.063546e+003;1.162944e-002
2.065475e+003;1.179082e-002
2.067404e+003;1.182088e-002
2.069332e+003;1.160837e-002
2.071260e+003;1.153756e-002
2.073189e+003;1.158142e-002
2.075118e+003;1.173740e-002
2.077046e+003;1.196837e-002
2.078975e+003;1.189280e-002
2.080903e+003;1.161919e-002
2.082832e+003;1.141052e-002
2.084760e+003;1.141270e-002
2.086689e+003;1.121474e-002
2.088617e+003;1.085838e-002
2.090546e+003;1.092953e-002
2.092475e+003;1.131794e-002
2.094403e+003;1.135090e-002
2.096332e+003;1.113940e-002
2.098260e+003;1.112464e-002
2.100189e+003;1.129077e-002
2.102117e+003;1.139797e-002
2.104046e+003;1.133835e-002
2.105974e+003;1.128784e-002
2.107903e+003;1.129709e-002
2.109832e+003;1.126652e-002
2.111760e+003;1.129818e-002
2.113688e+003;1.133532e-002
2.115617e+003;1.108701e-002
2.117546e+003;1.108463e-002
2.119474e+003;1.147148e-002
2.121403e+003;1.135096e-002
2.123331e+003;1.132454e-002
2.125260e+003;1.136304e-002
2.127188e+003;1.138549e-002
2.129117e+003;1.140654e-002
2.131045e+003;1.154082e-002
2.132974e+003;1.184860e-002
2.134903e+003;1.222914e-002
2.136831e+003;1.245475e-002
2.138760e+003;1.247797e-002
2.140688e+003;1.273478e-002
2.142617e+003;1.301776e-002
2.144545e+003;1.323609e-002
2.146474e+003;1.339434e-002
2.148402e+003;1.335358e-002
2.150331e+003;1.317713e-002
2.152260e+003;1.309746e-002
2.154188e+003;1.298533e-002
2.156117e+003;1.293699e-002
2.158045e+003;1.307622e-002
2.159974e+003;1.325771e-002
2.161902e+003;1.291569e-002
2.163831e+003;1.254269e-002
2.165759e+003;1.259614e-002
2.167688e+003;1.289900e-002
2.169616e+003;1.307714e-002
2.171545e+003;1.293839e-002
2.173474e+003;1.302264e-002
2.175402e+003;1.335946e-002
2.177331e+003;1.347219e-002
2.179259e+003;1.342780e-002
2.181188e+003;1.327735e-002
2.183116e+003;1.305904e-002
2.185045e+003;1.304149e-002
2.186973e+003;1.306874e-002
2.188902e+003;1.302350e-002
2.190831e+003;1.288985e-002
2.192759e+003;1.272171e-002
2.194688e+003;1.276249e-002
2.196616e+003;1.290832e-002
2.198545e+003;1.294607e-002
2.200473e+003;1.295542e-002
2.202402e+003;1.306932e-002
2.204330e+003;1.331463e-002
2.206259e+003;1.331466e-002
2.208188e+003;1.297594e-002
2.210116e+003;1.286384e-002
2.212044e+003;1.308568e-002
2.213973e+003;1.360872e-002
2.215902e+003;1.381678e-002
2.217830e+003;1.377884e-002
2.219759e+003;1.348928e-002
2.221687e+003;1.337456e-002
2.223616e+003;1.369222e-002
2.225544e+003;1.373479e-002
2.227473e+003;1.359012e-002
2.229401e+003;1.354329e-002
2.231330e+003;1.345053e-002
2.233259e+003;1.314776e-002
2.235187e+003;1.284309e-002
2.237116e+003;1.292508e-002
2.239044e+003;1.335040e-002
2.240973e+003;1.366080e-002
2.242901e+003;1.366620e-002
2.244830e+003;1.396033e-002
2.246758e+003;1.446658e-002
2.248687e+003;1.433851e-002
2.250615e+003;1.425315e-002
2.252544e+003;1.454147e-002
2.254473e+003;1.499177e-002
2.256401e+003;1.514501e-002
2.258330e+003;1.529061e-002
2.260258e+003;1.523367e-002
2.262187e+003;1.525402e-002
2.264115e+003;1.567085e-002
2.266044e+003;1.581573e-002
2.267972e+003;1.582920e-002
2.269901e+003;1.616830e-002
2.271830e+003;1.646465e-002
2.273758e+003;1.693617e-002
2.275687e+003;1.732675e-002
2.277615e+003;1.739155e-002
2.279544e+003;1.779666e-002
2.281472e+003;1.797817e-002
2.283401e+003;1.777364e-002
2.285329e+003;1.789709e-002
2.287258e+003;1.802086e-002
2.289187e+003;1.823380e-002
2.291115e+003;1.830078e-002
2.293043e+003;1.805201e-002
2.294972e+003;1.833171e-002
2.296901e+003;1.884734e-002
2.298829e+003;1.902711e-002
2.300758e+003;1.891593e-002
2.302686e+003;1.872742e-002
2.304615e+003;1.896909e-002
2.306543e+003;1.911536e-002
2.308472e+003;1.924761e-002
2.310400e+003;1.936574e-002
2.312329e+003;1.961820e-002
2.314258e+003;2.013845e-002
2.316186e+003;2.047857e-002
2.318115e+003;2.073276e-002
2.320043e+003;2.106190e-002
2.321972e+003;2.144570e-002
2.323900e+003;2.187998e-002
2.325829e+003;2.210535e-002
2.327757e+003;2.242584e-002
2.329686e+003;2.263837e-002
2.331615e+003;2.238882e-002
2.333543e+003;2.207990e-002
2.335472e+003;2.197414e-002
2.337400e+003;2.216968e-002
2.339329e+003;2.237951e-002
2.341257e+003;2.239419e-002
2.343186e+003;2.262828e-002
2.345114e+003;2.272425e-002
2.347043e+003;2.256772e-002
2.348971e+003;2.216271e-002
2.350900e+003;2.144730e-002
2.352829e+003;2.085007e-002
2.354757e+003;2.010656e-002
2.356686e+003;1.923556e-002
2.358614e+003;1.839268e-002
2.360543e+003;1.769301e-002
2.362471e+003;1.738152e-002
2.364400e+003;1.706373e-002
2.366328e+003;1.693121e-002
2.368257e+003;1.695233e-002
2.370186e+003;1.690289e-002
2.372114e+003;1.679846e-002
2.374042e+003;1.679336e-002
2.375971e+003;1.670974e-002
2.377900e+003;1.674632e-002
2.379828e+003;1.690241e-002
2.381757e+003;1.711408e-002
2.383685e+003;1.729544e-002
2.385614e+003;1.702362e-002
2.387542e+003;1.674938e-002
2.389471e+003;1.701170e-002
2.391399e+003;1.735617e-002
2.393328e+003;1.746146e-002
2.395257e+003;1.759101e-002
2.397185e+003;1.755633e-002
2.399114e+003;1.756465e-002
2.401042e+003;1.779380e-002
2.402971e+003;1.780598e-002
2.404899e+003;1.777250e-002
2.406828e+003;1.780395e-002
2.408756e+003;1.805788e-002
2.410685e+003;1.848170e-002
2.412614e+003;1.878478e-002
2.414542e+003;1.873849e-002
2.416471e+003;1.891153e-002
2.418399e+003;1.901139e-002
2.420328e+003;1.895857e-002
2.422256e+003;1.880786e-002
2.424185e+003;1.838438e-002
2.426113e+003;1.790731e-002
2.428042e+003;1.775610e-002
2.429970e+003;1.751773e-002
2.431899e+003;1.740379e-002
2.433828e+003;1.761364e-002
2.435756e+003;1.744249e-002
2.437685e+003;1.688446e-002
2.439613e+003;1.667039e-002
2.441542e+003;1.667115e-002
2.443470e+003;1.655217e-002
2.445399e+003;1.659045e-002
2.447327e+003;1.674432e-002
2.449256e+003;1.666688e-002
2.451185e+003;1.684523e-002
2.453113e+003;1.672087e-002
2.455042e+003;1.673836e-002
2.456970e+003;1.712170e-002
2.458899e+003;1.720560e-002
2.460827e+003;1.729455e-002
2.462756e+003;1.719515e-002
2.464684e+003;1.713552e-002
2.466613e+003;1.730431e-002
2.468542e+003;1.781299e-002
2.470470e+003;1.857008e-002
2.472398e+003;1.911841e-002
2.474327e+003;1.937312e-002
2.476256e+003;1.963834e-002
2.478184e+003;1.970244e-002
2.480113e+003;1.928980e-002
2.482041e+003;1.903147e-002
2.483970e+003;1.918202e-002
2.485898e+003;1.928713e-002
2.487827e+003;1.916785e-002
2.489755e+003;1.922462e-002
2.491684e+003;1.926348e-002
2.493613e+003;1.933172e-002
2.495541e+003;1.948476e-002
2.497470e+003;1.957071e-002
2.499398e+003;1.973732e-002
2.501327e+003;1.984844e-002
2.503255e+003;1.961484e-002
2.505184e+003;1.949720e-002
2.507112e+003;1.967869e-002
2.509041e+003;1.996034e-002
2.510969e+003;2.010670e-002
2.512898e+003;1.994844e-002
2.514827e+003;1.992374e-002
2.516755e+003;2.031351e-002
2.518684e+003;2.079880e-002
2.520612e+003;2.131316e-002
2.522541e+003;2.190197e-002
2.524469e+003;2.230377e-002
2.526398e+003;2.262814e-002
2.528326e+003;2.259907e-002
2.530255e+003;2.247908e-002
2.532184e+003;2.210587e-002
2.534112e+003;2.187576e-002
2.536041e+003;2.187946e-002
2.537969e+003;2.174194e-002
2.539898e+003;2.187259e-002
2.541826e+003;2.226733e-002
2.543755e+003;2.225345e-002
2.545683e+003;2.255247e-002
2.547612e+003;2.309572e-002
2.549541e+003;2.342617e-002
2.551469e+003;2.358451e-002
2.553397e+003;2.381287e-002
2.555326e+003;2.369160e-002
2.557255e+003;2.358573e-002
2.559183e+003;2.379344e-002
2.561112e+003;2.395353e-002
2.563040e+003;2.428736e-002
2.564969e+003;2.485131e-002
2.566897e+003;2.511969e-002
2.568826e+003;2.510452e-002
2.570754e+003;2.526593e-002
2.572683e+003;2.574842e-002
2.574612e+003;2.588714e-002
2.576540e+003;2.586896e-002
2.578469e+003;2.624295e-002
2.580397e+003;2.682858e-002
2.582326e+003;2.730377e-002
2.584254e+003;2.775939e-002
2.586183e+003;2.792840e-002
2.588111e+003;2.817687e-002
2.590040e+003;2.870005e-002
2.591969e+003;2.920441e-002
2.593897e+003;2.969133e-002
2.595826e+003;3.001923e-002
2.597754e+003;3.058225e-002
2.599683e+003;3.098798e-002
2.601611e+003;3.085826e-002
2.603540e+003;3.110375e-002
2.605468e+003;3.169298e-002
2.607397e+003;3.218277e-002
2.609325e+003;3.281560e-002
2.611254e+003;3.363158e-002
2.613183e+003;3.438777e-002
2.615111e+003;3.474997e-002
2.617040e+003;3.529202e-002
2.618968e+003;3.626166e-002
2.620897e+003;3.713316e-002
2.622825e+003;3.779616e-002
2.624754e+003;3.824103e-002
2.626682e+003;3.888044e-002
2.628611e+003;3.948708e-002
2.630540e+003;3.981252e-002
2.632468e+003;4.041402e-002
2.634396e+003;4.083344e-002
2.636325e+003;4.071694e-002
2.638254e+003;4.050545e-002
2.640182e+003;4.029174e-002
2.642111e+003;3.994102e-002
2.644039e+003;3.958873e-002
2.645968e+003;3.937064e-002
2.647896e+003;3.932918e-002
2.649825e+003;3.933575e-002
2.651753e+003;3.933738e-002
2.653682e+003;3.968935e-002
2.655611e+003;3.984858e-002
2.657539e+003;3.968344e-002
2.659468e+003;3.940152e-002
2.661396e+003;3.936495e-002
2.663325e+003;3.958089e-002
2.665253e+003;3.955853e-002
2.667182e+003;3.902277e-002
2.669110e+003;3.824563e-002
2.671039e+003;3.811531e-002
2.672968e+003;3.813633e-002
2.674896e+003;3.775601e-002
2.676825e+003;3.720109e-002
2.678753e+003;3.669609e-002
2.680682e+003;3.646241e-002
2.682610e+003;3.615639e-002
2.684539e+003;3.611736e-002
2.686467e+003;3.609431e-002
2.688396e+003;3.571444e-002
2.690324e+003;3.568386e-002
2.692253e+003;3.590234e-002
2.694182e+003;3.623976e-002
2.696110e+003;3.651711e-002
2.698039e+003;3.662658e-002
2.699967e+003;3.698517e-002
2.701896e+003;3.743813e-002
2.703824e+003;3.783889e-002
2.705753e+003;3.798019e-002
2.707681e+003;3.832028e-002
2.709610e+003;3.895270e-002
2.711539e+003;3.910281e-002
2.713467e+003;3.959080e-002
2.715396e+003;4.008257e-002
2.717324e+003;4.018545e-002
2.719253e+003;4.019966e-002
2.721181e+003;4.032032e-002
2.723110e+003;4.074413e-002
2.725038e+003;4.137611e-002
2.726967e+003;4.171089e-002
2.728896e+003;4.191468e-002
2.730824e+003;4.246423e-002
2.732752e+003;4.300129e-002
2.734681e+003;4.351009e-002
2.736610e+003;4.380030e-002
2.738538e+003;4.405388e-002
2.740467e+003;4.443092e-002
2.742395e+003;4.484425e-002
2.744324e+003;4.506095e-002
2.746252e+003;4.506010e-002
2.748181e+003;4.502239e-002
2.750109e+003;4.503768e-002
2.752038e+003;4.526588e-002
2.753967e+003;4.572296e-002
2.755895e+003;4.635361e-002
2.757824e+003;4.691704e-002
2.759752e+003;4.740483e-002
2.761681e+003;4.819333e-002
2.763609e+003;4.873186e-002
2.765538e+003;4.952623e-002
2.767466e+003;5.057560e-002
2.769395e+003;5.118128e-002
2.771323e+003;5.179707e-002
2.773252e+003;5.300615e-002
2.775181e+003;5.420517e-002
2.777109e+003;5.495847e-002
2.779038e+003;5.572729e-002
2.780966e+003;5.680227e-002
2.782895e+003;5.791206e-002
2.784823e+003;5.886954e-002
2.786752e+003;5.998345e-002
2.788680e+003;6.111506e-002
2.790609e+003;6.217958e-002
2.792538e+003;6.320807e-002
2.794466e+003;6.435289e-002
2.796395e+003;6.554112e-002
2.798323e+003;6.653977e-002
2.800252e+003;6.744570e-002
2.802180e+003;6.865131e-002
2.804109e+003;7.007352e-002
2.806037e+003;7.170440e-002
2.807966e+003;7.321760e-002
2.809895e+003;7.441912e-002
2.811823e+003;7.591641e-002
2.813751e+003;7.784466e-002
2.815680e+003;7.949625e-002
2.817609e+003;8.107076e-002
2.819537e+003;8.291696e-002
2.821466e+003;8.542651e-002
2.823394e+003;8.835164e-002
2.825323e+003;9.165744e-002
2.827251e+003;9.569062e-002
2.829180e+003;1.002597e-001
2.831108e+003;1.057174e-001
2.833037e+003;1.125272e-001
2.834966e+003;1.207648e-001
2.836894e+003;1.314054e-001
2.838823e+003;1.460081e-001
2.840751e+003;1.658253e-001
2.842680e+003;1.938253e-001
2.844608e+003;2.312828e-001
2.846537e+003;2.750328e-001
2.848465e+003;3.068400e-001
2.850394e+003;2.992482e-001
2.852323e+003;2.559415e-001
2.854251e+003;2.062643e-001
2.856180e+003;1.673451e-001
2.858108e+003;1.405651e-001
2.860037e+003;1.231821e-001
2.861965e+003;1.126565e-001
2.863894e+003;1.063997e-001
2.865822e+003;1.031129e-001
2.867751e+003;1.021967e-001
2.869679e+003;1.029458e-001
2.871608e+003;1.050282e-001
2.873536e+003;1.086835e-001
2.875465e+003;1.136102e-001
2.877394e+003;1.195830e-001
2.879322e+003;1.261048e-001
2.881251e+003;1.326232e-001
2.883179e+003;1.389636e-001
2.885108e+003;1.452279e-001
2.887036e+003;1.513449e-001
2.888965e+003;1.576640e-001
2.890893e+003;1.641686e-001
2.892822e+003;1.710568e-001
2.894750e+003;1.778584e-001
2.896679e+003;1.844745e-001
2.898608e+003;1.921745e-001
2.900536e+003;2.005955e-001
2.902465e+003;2.107531e-001
2.904393e+003;2.231881e-001
2.906322e+003;2.376246e-001
2.908250e+003;2.561768e-001
2.910179e+003;2.801644e-001
2.912107e+003;3.070396e-001
2.914036e+003;3.308285e-001
2.915965e+003;3.419370e-001
2.917893e+003;3.339881e-001
2.919822e+003;3.100329e-001
2.921750e+003;2.767468e-001
2.923679e+003;2.417313e-001
2.925607e+003;2.099232e-001
2.927536e+003;1.827814e-001
2.929464e+003;1.603021e-001
2.931393e+003;1.416800e-001
2.933322e+003;1.258484e-001
2.935250e+003;1.128766e-001
2.937178e+003;1.025793e-001
2.939107e+003;9.400853e-002
2.941036e+003;8.639555e-002
2.942964e+003;8.010726e-002
2.944893e+003;7.518333e-002
2.946821e+003;7.118344e-002
2.948750e+003;6.772227e-002
2.950678e+003;6.466676e-002
2.952607e+003;6.212739e-002
2.954535e+003;6.007038e-002
2.956464e+003;5.833581e-002
2.958393e+003;5.717837e-002
2.960321e+003;5.633236e-002
2.962250e+003;5.527051e-002
2.964178e+003;5.410713e-002
2.966107e+003;5.332994e-002
2.968035e+003;5.295573e-002
2.969964e+003;5.238835e-002
2.971892e+003;5.136148e-002
2.973821e+003;5.056089e-002
2.975750e+003;4.933925e-002
2.977678e+003;4.772817e-002
2.979607e+003;4.690408e-002
2.981535e+003;4.650992e-002
2.983464e+003;4.581677e-002
2.985392e+003;4.488194e-002
2.987321e+003;4.407013e-002
2.989249e+003;4.303890e-002
2.991178e+003;4.206188e-002
2.993106e+003;4.173989e-002
2.995035e+003;4.170907e-002
2.996964e+003;4.148339e-002
2.998892e+003;4.113993e-002
3.000821e+003;4.030621e-002
3.002749e+003;3.941534e-002
3.004678e+003;3.909259e-002
3.006606e+003;3.873102e-002
3.008535e+003;3.816169e-002
3.010463e+003;3.811629e-002
3.012392e+003;3.767943e-002
3.014321e+003;3.682147e-002
3.016249e+003;3.623612e-002
3.018177e+003;3.604412e-002
3.020106e+003;3.598008e-002
3.022035e+003;3.569415e-002
3.023963e+003;3.527492e-002
3.025892e+003;3.506193e-002
3.027820e+003;3.483968e-002
3.029749e+003;3.457233e-002
3.031677e+003;3.450958e-002
3.033606e+003;3.417676e-002
3.035534e+003;3.381589e-002
3.037463e+003;3.392651e-002
3.039392e+003;3.384390e-002
3.041320e+003;3.348196e-002
3.043249e+003;3.301140e-002
3.045177e+003;3.263336e-002
3.047106e+003;3.223241e-002
3.049034e+003;3.186649e-002
3.050963e+003;3.146978e-002
3.052891e+003;3.115917e-002
3.054820e+003;3.092809e-002
3.056749e+003;3.050291e-002
3.058677e+003;3.047458e-002
3.060606e+003;3.029794e-002
3.062534e+003;2.979586e-002
3.064463e+003;2.939624e-002
3.066391e+003;2.917499e-002
3.068320e+003;2.905644e-002
3.070248e+003;2.885863e-002
3.072177e+003;2.843207e-002
3.074105e+003;2.798207e-002
3.076034e+003;2.821654e-002
3.077963e+003;2.803880e-002
3.079891e+003;2.734527e-002
3.081820e+003;2.724051e-002
3.083748e+003;2.721243e-002
3.085677e+003;2.737971e-002
3.087605e+003;2.750925e-002
3.089534e+003;2.695020e-002
3.091462e+003;2.634391e-002
3.093391e+003;2.600898e-002
3.095320e+003;2.554497e-002
3.097248e+003;2.513099e-002
3.099177e+003;2.478037e-002
3.101105e+003;2.467231e-002
3.103034e+003;2.459217e-002
3.104962e+003;2.393133e-002
3.106891e+003;2.310145e-002
3.108819e+003;2.269862e-002
3.110748e+003;2.217854e-002
3.112677e+003;2.147801e-002
3.114605e+003;2.083133e-002
3.116533e+003;2.038636e-002
3.118462e+003;1.977918e-002
3.120391e+003;1.934412e-002
3.122319e+003;1.926632e-002
3.124248e+003;1.914974e-002
3.126176e+003;1.891282e-002
3.128105e+003;1.826653e-002
3.130033e+003;1.787665e-002
3.131962e+003;1.785228e-002
3.133890e+003;1.783584e-002
3.135819e+003;1.750910e-002
3.137748e+003;1.740776e-002
3.139676e+003;1.743370e-002
3.141605e+003;1.722353e-002
3.143533e+003;1.675344e-002
3.145462e+003;1.671057e-002
3.147390e+003;1.706411e-002
3.149319e+003;1.701307e-002
3.151247e+003;1.667549e-002
3.153176e+003;1.643109e-002
3.155104e+003;1.645677e-002
3.157033e+003;1.628989e-002
3.158962e+003;1.608079e-002
3.160890e+003;1.570829e-002
3.162819e+003;1.557097e-002
3.164747e+003;1.556760e-002
3.166676e+003;1.541446e-002
3.168604e+003;1.534875e-002
3.170533e+003;1.543931e-002
3.172461e+003;1.598727e-002
3.174390e+003;1.597978e-002
3.176319e+003;1.549185e-002
3.178247e+003;1.545380e-002
3.180176e+003;1.547839e-002
3.182104e+003;1.519795e-002
3.184033e+003;1.523827e-002
3.185961e+003;1.539935e-002
3.187890e+003;1.541470e-002
3.189818e+003;1.577776e-002
3.191747e+003;1.589942e-002
3.193676e+003;1.548196e-002
3.195604e+003;1.503955e-002
3.197532e+003;1.517300e-002
3.199461e+003;1.540268e-002
3.201390e+003;1.539177e-002
3.203318e+003;1.513434e-002
3.205247e+003;1.492589e-002
3.207175e+003;1.497034e-002
3.209104e+003;1.480263e-002
3.211032e+003;1.483437e-002
3.212961e+003;1.469019e-002
3.214889e+003;1.483955e-002
3.216818e+003;1.515780e-002
3.218747e+003;1.510367e-002
3.220675e+003;1.540018e-002
3.222604e+003;1.543997e-002
3.224532e+003;1.531601e-002
3.226461e+003;1.502069e-002
3.228389e+003;1.481744e-002
3.230318e+003;1.492788e-002
3.232246e+003;1.491495e-002
3.234175e+003;1.489890e-002
3.236104e+003;1.513200e-002
3.238032e+003;1.445568e-002
3.239961e+003;1.360240e-002
3.241889e+003;1.414592e-002
3.243818e+003;1.503122e-002
3.245746e+003;1.504219e-002
3.247675e+003;1.503358e-002
3.249603e+003;1.510236e-002
3.251532e+003;1.500213e-002
3.253460e+003;1.453003e-002
3.255389e+003;1.437670e-002
3.257318e+003;1.436492e-002
3.259246e+003;1.418512e-002
3.261175e+003;1.448151e-002
3.263103e+003;1.488858e-002
3.265032e+003;1.493340e-002
3.266960e+003;1.478912e-002
3.268889e+003;1.521377e-002
3.270817e+003;1.535339e-002
3.272746e+003;1.514079e-002
3.274675e+003;1.512247e-002
3.276603e+003;1.545772e-002
3.278531e+003;1.530262e-002
3.280460e+003;1.495562e-002
3.282389e+003;1.507005e-002
3.284317e+003;1.505571e-002
3.286246e+003;1.498639e-002
3.288174e+003;1.496512e-002
3.290103e+003;1.474092e-002
3.292031e+003;1.478096e-002
3.293960e+003;1.478662e-002
3.295888e+003;1.447655e-002
3.297817e+003;1.474589e-002
3.299746e+003;1.495339e-002
3.301674e+003;1.493484e-002
3.303603e+003;1.503317e-002
3.305531e+003;1.484757e-002
3.307460e+003;1.475693e-002
3.309388e+003;1.504874e-002
3.311317e+003;1.519699e-002
3.313245e+003;1.515427e-002
3.315174e+003;1.503331e-002
3.317103e+003;1.478439e-002
3.319031e+003;1.465003e-002
3.320960e+003;1.435290e-002
3.322888e+003;1.443616e-002
3.324817e+003;1.482405e-002
3.326745e+003;1.476485e-002
3.328674e+003;1.474713e-002
3.330602e+003;1.491814e-002
3.332531e+003;1.484798e-002
3.334459e+003;1.472512e-002
3.336388e+003;1.487236e-002
3.338317e+003;1.465116e-002
3.340245e+003;1.459420e-002
3.342174e+003;1.457597e-002
3.344102e+003;1.459362e-002
3.346031e+003;1.462497e-002
3.347959e+003;1.443380e-002
3.349888e+003;1.479947e-002
3.351816e+003;1.535840e-002
3.353745e+003;1.538356e-002
3.355674e+003;1.539046e-002
3.357602e+003;1.544766e-002
3.359531e+003;1.531700e-002
3.361459e+003;1.510644e-002
3.363388e+003;1.530698e-002
3.365316e+003;1.557303e-002
3.367245e+003;1.554758e-002
3.369173e+003;1.540852e-002
3.371102e+003;1.553947e-002
3.373031e+003;1.547300e-002
3.374959e+003;1.501647e-002
3.376887e+003;1.484956e-002
3.378816e+003;1.508291e-002
3.380745e+003;1.522080e-002
3.382673e+003;1.514278e-002
3.384602e+003;1.483557e-002
3.386530e+003;1.472687e-002
3.388459e+003;1.435886e-002
3.390387e+003;1.414500e-002
3.392316e+003;1.457275e-002
3.394244e+003;1.489928e-002
3.396173e+003;1.465671e-002
3.398102e+003;1.454585e-002
3.400030e+003;1.453218e-002
3.401959e+003;1.392211e-002
3.403887e+003;1.365803e-002
3.405816e+003;1.411583e-002
3.407744e+003;1.452790e-002
3.409673e+003;1.436481e-002
3.411601e+003;1.422452e-002
3.413530e+003;1.431666e-002
3.415458e+003;1.421148e-002
3.417387e+003;1.410532e-002
3.419316e+003;1.436595e-002
3.421244e+003;1.445007e-002
3.423173e+003;1.438821e-002
3.425101e+003;1.443517e-002
3.427030e+003;1.439917e-002
3.428958e+003;1.440085e-002
3.430887e+003;1.436053e-002
3.432815e+003;1.382167e-002
3.434744e+003;1.353133e-002
3.436673e+003;1.353457e-002
3.438601e+003;1.369297e-002
3.440530e+003;1.422028e-002
3.442458e+003;1.403769e-002
3.444387e+003;1.368244e-002
3.446315e+003;1.343193e-002
3.448244e+003;1.345620e-002
3.450172e+003;1.331036e-002
3.452101e+003;1.306591e-002
3.454030e+003;1.299605e-002
3.455958e+003;1.328788e-002
3.457886e+003;1.339920e-002
3.459815e+003;1.351112e-002
3.461744e+003;1.339691e-002
3.463672e+003;1.316907e-002
3.465601e+003;1.269705e-002
3.467529e+003;1.231483e-002
3.469458e+003;1.250535e-002
3.471386e+003;1.261572e-002
3.473315e+003;1.259389e-002
3.475243e+003;1.263329e-002
3.477172e+003;1.289043e-002
3.479101e+003;1.316508e-002
3.481029e+003;1.312338e-002
3.482958e+003;1.281432e-002
3.484886e+003;1.253352e-002
3.486815e+003;1.241052e-002
3.488743e+003;1.269285e-002
3.490672e+003;1.282145e-002
3.492600e+003;1.237534e-002
3.494529e+003;1.225276e-002
3.496458e+003;1.242852e-002
3.498386e+003;1.272117e-002
3.500315e+003;1.247913e-002
3.502243e+003;1.193394e-002
3.504172e+003;1.160500e-002
3.506100e+003;1.182296e-002
3.508029e+003;1.251548e-002
3.509957e+003;1.308728e-002
3.511886e+003;1.323230e-002
3.513814e+003;1.317983e-002
3.515743e+003;1.302486e-002
3.517672e+003;1.306471e-002
3.519600e+003;1.328415e-002
3.521529e+003;1.269851e-002
3.523457e+003;1.212167e-002
3.525386e+003;1.249815e-002
3.527314e+003;1.254685e-002
3.529243e+003;1.179542e-002
3.531171e+003;1.166208e-002
3.533100e+003;1.211233e-002
3.535029e+003;1.222243e-002
3.536957e+003;1.239862e-002
3.538885e+003;1.224308e-002
3.540814e+003;1.207121e-002
3.542743e+003;1.197678e-002
3.544671e+003;1.182466e-002
3.546600e+003;1.192396e-002
3.548528e+003;1.218910e-002
3.550457e+003;1.232550e-002
3.552385e+003;1.239596e-002
3.554314e+003;1.247558e-002
3.556242e+003;1.274474e-002
3.558171e+003;1.283719e-002
3.560100e+003;1.261886e-002
3.562028e+003;1.277754e-002
3.563957e+003;1.318741e-002
3.565885e+003;1.224854e-002
3.567814e+003;1.151837e-002
3.569742e+003;1.236218e-002
3.571671e+003;1.316508e-002
3.573599e+003;1.355819e-002
3.575528e+003;1.391321e-002
3.577457e+003;1.404101e-002
3.579385e+003;1.345292e-002
3.581314e+003;1.330028e-002
3.583242e+003;1.353724e-002
3.585171e+003;1.242399e-002
3.587099e+003;1.184281e-002
3.589028e+003;1.350948e-002
3.590956e+003;1.520900e-002
3.592885e+003;1.556410e-002
3.594813e+003;1.567198e-002
3.596742e+003;1.628322e-002
3.598671e+003;1.743535e-002
3.600599e+003;1.828115e-002
3.602528e+003;1.896695e-002
3.604456e+003;1.906568e-002
3.606385e+003;1.836959e-002
3.608313e+003;1.739238e-002
3.610242e+003;1.744667e-002
3.612170e+003;1.770340e-002
3.614099e+003;1.733400e-002
3.616028e+003;1.637862e-002
3.617956e+003;1.552677e-002
3.619885e+003;1.582058e-002
3.621813e+003;1.674297e-002
3.623742e+003;1.691791e-002
3.625670e+003;1.561826e-002
3.627599e+003;1.254890e-002
3.629527e+003;1.215407e-002
3.631456e+003;1.446833e-002
3.633385e+003;1.566958e-002
3.635313e+003;1.606501e-002
3.637241e+003;1.580175e-002
3.639170e+003;1.594709e-002
3.641099e+003;1.648857e-002
3.643027e+003;1.700722e-002
3.644956e+003;1.599219e-002
3.646884e+003;1.333981e-002
3.648813e+003;1.245846e-002
3.650741e+003;1.419344e-002
3.652670e+003;1.616569e-002
3.654598e+003;1.550047e-002
3.656527e+003;1.455884e-002
3.658456e+003;1.595465e-002
3.660384e+003;1.663971e-002
3.662313e+003;1.653420e-002
3.664241e+003;1.632901e-002
3.666170e+003;1.556818e-002
3.668098e+003;1.333260e-002
3.670027e+003;1.166208e-002
3.671955e+003;1.307410e-002
3.673884e+003;1.199712e-002
3.675813e+003;1.100086e-002
3.677741e+003;1.395389e-002
3.679669e+003;1.552138e-002
3.681598e+003;1.606837e-002
3.683527e+003;1.598827e-002
3.685455e+003;1.481912e-002
3.687384e+003;1.243511e-002
3.689312e+003;1.230771e-002
3.691241e+003;1.388841e-002
3.693169e+003;1.536468e-002
3.695098e+003;1.549573e-002
3.697026e+003;1.521960e-002
3.698955e+003;1.547969e-002
3.700884e+003;1.521799e-002
3.702812e+003;1.512037e-002
3.704741e+003;1.513979e-002
3.706669e+003;1.418173e-002
3.708598e+003;1.287057e-002
3.710526e+003;1.166364e-002
3.712455e+003;1.220982e-002
3.714383e+003;1.400046e-002
3.716312e+003;1.449001e-002
3.718240e+003;1.422332e-002
3.720169e+003;1.370432e-002
3.722098e+003;1.378302e-002
3.724026e+003;1.381989e-002
3.725955e+003;1.343655e-002
3.727883e+003;1.389385e-002
3.729812e+003;1.343955e-002
3.731740e+003;1.187887e-002
3.733669e+003;1.144093e-002
3.735597e+003;1.104551e-002
3.737526e+003;1.232025e-002
3.739455e+003;1.355262e-002
3.741383e+003;1.224997e-002
3.743312e+003;7.714387e-003
3.745240e+003;7.767883e-003
3.747169e+003;1.003217e-002
3.749097e+003;8.670038e-003
3.751026e+003;8.885885e-003
3.752954e+003;1.121596e-002
3.754883e+003;1.343077e-002
3.756812e+003;1.369827e-002
3.758740e+003;1.375733e-002
3.760668e+003;1.410686e-002
3.762597e+003;1.454541e-002
3.764526e+003;1.415434e-002
3.766454e+003;1.437773e-002
3.768383e+003;1.374526e-002
3.770311e+003;1.366859e-002
3.772240e+003;1.491605e-002
3.774168e+003;1.541641e-002
3.776097e+003;1.508490e-002
3.778025e+003;1.429917e-002
3.779954e+003;1.408955e-002
3.781883e+003;1.476077e-002
3.783811e+003;1.529747e-002
3.785740e+003;1.602203e-002
3.787668e+003;1.605242e-002
3.789597e+003;1.592887e-002
3.791525e+003;1.624290e-002
3.793454e+003;1.644637e-002
3.795382e+003;1.563561e-002
3.797311e+003;1.498032e-002
3.799240e+003;1.343084e-002
3.801168e+003;1.217251e-002
3.803097e+003;1.412935e-002
3.805025e+003;1.427431e-002
3.806954e+003;1.321453e-002
3.808882e+003;1.513190e-002
3.810811e+003;1.656047e-002
3.812739e+003;1.639104e-002
3.814668e+003;1.395588e-002
3.816596e+003;1.376869e-002
3.818525e+003;1.508120e-002
3.820454e+003;1.428311e-002
3.822382e+003;1.561974e-002
3.824311e+003;1.658484e-002
3.826239e+003;1.647404e-002
3.828168e+003;1.715989e-002
3.830096e+003;1.669580e-002
3.832025e+003;1.609017e-002
3.833953e+003;1.568926e-002
3.835882e+003;1.356698e-002
3.837811e+003;1.210722e-002
3.839739e+003;1.395950e-002
3.841667e+003;1.581652e-002
3.843596e+003;1.642621e-002
3.845525e+003;1.682656e-002
3.847453e+003;1.744753e-002
3.849382e+003;1.630389e-002
3.851310e+003;1.193946e-002
3.853239e+003;8.134942e-003
3.855167e+003;1.180059e-002
3.857096e+003;1.618546e-002
3.859024e+003;1.689118e-002
3.860953e+003;1.635983e-002
3.862882e+003;1.571846e-002
3.864810e+003;1.584254e-002
3.866739e+003;1.624493e-002
3.868667e+003;1.457971e-002
3.870596e+003;1.485422e-002
3.872524e+003;1.674514e-002
3.874453e+003;1.751838e-002
3.876381e+003;1.860297e-002
3.878310e+003;1.816964e-002
3.880239e+003;1.759767e-002
3.882167e+003;1.835224e-002
3.884096e+003;1.753391e-002
3.886024e+003;1.660312e-002
3.887953e+003;1.786039e-002
3.889881e+003;1.748251e-002
3.891810e+003;1.731882e-002
3.893738e+003;1.866841e-002
3.895667e+003;1.887949e-002
3.897595e+003;1.790417e-002
3.899524e+003;1.672331e-002
3.901453e+003;1.593447e-002
3.903381e+003;1.611249e-002
3.905310e+003;1.770140e-002
3.907238e+003;1.881897e-002
3.909167e+003;1.909625e-002
3.911095e+003;1.950056e-002
3.913024e+003;1.933944e-002
3.914952e+003;1.862407e-002
3.916881e+003;1.804928e-002
3.918810e+003;1.840447e-002
3.920738e+003;1.846417e-002
3.922667e+003;1.838625e-002
3.924595e+003;1.879883e-002
3.926524e+003;1.956579e-002
3.928452e+003;1.931779e-002
3.930381e+003;1.858678e-002
3.932309e+003;1.831930e-002
3.934238e+003;1.831263e-002
3.936167e+003;1.862943e-002
3.938095e+003;1.875832e-002
3.940023e+003;1.833388e-002
3.941952e+003;1.769436e-002
3.943881e+003;1.745384e-002
3.945809e+003;1.757935e-002
3.947738e+003;1.794906e-002
3.949666e+003;1.803799e-002
3.951595e+003;1.831595e-002
3.953523e+003;1.821172e-002
3.955452e+003;1.824586e-002
3.957380e+003;1.896816e-002
3.959309e+003;1.902482e-002
3.961238e+003;1.837298e-002
3.963166e+003;1.779311e-002
3.965095e+003;1.804089e-002
3.967023e+003;1.878354e-002
3.968952e+003;1.893857e-002
3.970880e+003;1.896428e-002
3.972809e+003;1.869044e-002
3.974737e+003;1.818916e-002
3.976666e+003;1.828902e-002
3.978594e+003;1.837744e-002
3.980523e+003;1.850452e-002
3.982452e+003;1.864707e-002
3.984380e+003;1.830437e-002
3.986309e+003;1.762027e-002
3.988237e+003;1.749258e-002
3.990166e+003;1.741359e-002
3.992094e+003;1.730475e-002
3.994023e+003;1.791360e-002
3.995951e+003;1.821224e-002
3.997880e+003;1.776794e-002
3.999809e+003;1.797741e-002
4.001737e+003;0.000000e+000
