3.992094e+002;0.000000e+000
4.011380e+002;0.000000e+000
4.030665e+002;0.000000e+000
4.049951e+002;0.000000e+000
4.069236e+002;0.000000e+000
4.088522e+002;0.000000e+000
4.107807e+002;0.000000e+000
4.127093e+002;0.000000e+000
4.146378e+002;0.000000e+000
4.165664e+002;0.000000e+000
4.184949e+002;0.000000e+000
4.204235e+002;0.000000e+000
4.223520e+002;0.000000e+000
4.242806e+002;0.000000e+000
4.262091e+002;0.000000e+000
4.281377e+002;0.000000e+000
4.300662e+002;0.000000e+000
4.319948e+002;0.000000e+000
4.339233e+002;0.000000e+000
4.358519e+002;0.000000e+000
4.377804e+002;0.000000e+000
4.397090e+002;0.000000e+000
4.416375e+002;0.000000e+000
4.435660e+002;0.000000e+000
4.454946e+002;0.000000e+000
4.474232e+002;0.000000e+000
4.493517e+002;0.000000e+000
4.512802e+002;0.000000e+000
4.532088e+002;0.000000e+000
4.551373e+002;0.000000e+000
4.570659e+002;0.000000e+000
4.589944e+002;0.000000e+000
4.609230e+002;0.000000e+000
4.628515e+002;0.000000e+000
4.647801e+002;0.000000e+000
4.667086e+002;0.000000e+000
4.686372e+002;0.000000e+000
4.705657e+002;0.000000e+000
4.724943e+002;0.000000e+000
4.744228e+002;0.000000e+000
4.763513e+002;0.000000e+000
4.782799e+002;0.000000e+000
4.802085e+002;0.000000e+000
4.821370e+002;0.000000e+000
4.840656e+002;0.000000e+000
4.859941e+002;0.000000e+000
4.879226e+002;0.000000e+000
4.898512e+002;0.000000e+000
4.917798e+002;0.000000e+000
4.937083e+002;0.000000e+000
4.956368e+002;0.000000e+000
4.975654e+002;0.000000e+000
4.994939e+002;0.000000e+000
5.014225e+002;0.000000e+000
5.033510e+002;0.000000e+000
5.052796e+002;0.000000e+000
5.072081e+002;0.000000e+000
5.091367e+002;0.000000e+000
5.110652e+002;0.000000e+000
5.129938e+002;0.000000e+000
5.149223e+002;0.000000e+000
5.168509e+002;0.000000e+000
5.187794e+002;0.000000e+000
5.207079e+002;0.000000e+000
5.226365e+002;0.000000e+000
5.245651e+002;0.000000e+000
5.264936e+002;0.000000e+000
5.284222e+002;0.000000e+000
5.303507e+002;0.000000e+000
5.322792e+002;0.000000e+000
5.342078e+002;0.000000e+000
5.361364e+002;0.000000e+000
5.380649e+002;0.000000e+000
5.399935e+002;0.000000e+000
5.419220e+002;0.000000e+000
5.438505e+002;0.000000e+000
5.457791e+002;0.000000e+000
5.477076e+002;0.000000e+000
5.496362e+002;0.000000e+000
5.515648e+002;0.000000e+000
5.534933e+002;0.000000e+000
5.554218e+002;0.000000e+000
5.573504e+002;0.000000e+000
5.592789e+002;0.000000e+000
5.612075e+002;0.000000e+000
5.631360e+002;0.000000e+000
5.650646e+002;0.000000e+000
5.669931e+002;0.000000e+000
5.689217e+002;0.000000e+000
5.708502e+002;0.000000e+000
5.727787e+002;0.000000e+000
5.747073e+002;0.000000e+000
5.766359e+002;0.000000e+000
5.785644e+002;0.000000e+000
5.804930e+002;0.000000e+000
5.824215e+002;0.000000e+000
5.843500e+002;0.000000e+000
5.862786e+002;0.000000e+000
5.882072e+002;0.000000e+000
5.901357e+002;0.000000e+000
5.920643e+002;0.000000e+000
5.939928e+002;0.000000e+000
5.959213e+002;0.000000e+000
5.978499e+002;0.000000e+000
5.997784e+002;3.900051e-002
6.017070e+002;4.388805e-002
6.036355e+002;4.817289e-002
6.055641e+002;4.767270e-002
6.074926e+002;4.509550e-002
6.094211e+002;3.944128e-002
6.113497e+002;3.272938e-002
6.132783e+002;3.016419e-002
6.152068e+002;3.087910e-002
6.171354e+002;3.479340e-002
6.190639e+002;3.617284e-002
6.209924e+002;3.588977e-002
6.229210e+002;3.496722e-002
6.248495e+002;3.776699e-002
6.267781e+002;4.134740e-002
6.287067e+002;3.872769e-002
6.306352e+002;3.634282e-002
6.325637e+002;3.866597e-002
6.344923e+002;4.222957e-002
6.364208e+002;4.308083e-002
6.383494e+002;4.161155e-002
6.402780e+002;4.224382e-002
6.422065e+002;4.340517e-002
6.441350e+002;4.132881e-002
6.460636e+002;4.094288e-002
6.479921e+002;3.994498e-002
6.499207e+002;3.751474e-002
6.518492e+002;3.649459e-002
6.537778e+002;3.610562e-002
6.557063e+002;3.766360e-002
6.576349e+002;3.990942e-002
6.595634e+002;4.057624e-002
6.614919e+002;3.852383e-002
6.634205e+002;3.701259e-002
6.653491e+002;3.702717e-002
6.672776e+002;3.721506e-002
6.692062e+002;3.877613e-002
6.711347e+002;4.104862e-002
6.730632e+002;4.181340e-002
6.749918e+002;3.982694e-002
6.769203e+002;3.816922e-002
6.788489e+002;4.056307e-002
6.807775e+002;4.442391e-002
6.827060e+002;4.586077e-002
6.846345e+002;4.611718e-002
6.865631e+002;4.722456e-002
6.884916e+002;4.908731e-002
6.904202e+002;5.042623e-002
6.923488e+002;5.182197e-002
6.942773e+002;5.362929e-002
6.962058e+002;5.588297e-002
6.981344e+002;5.938790e-002
7.000629e+002;6.254334e-002
7.019915e+002;6.644227e-002
7.039200e+002;7.364451e-002
7.058486e+002;8.335070e-002
7.077771e+002;9.365202e-002
7.097057e+002;1.088937e-001
7.116342e+002;1.366602e-001
7.135627e+002;1.726877e-001
7.154913e+002;1.990489e-001
7.174199e+002;1.979610e-001
7.193484e+002;1.708242e-001
7.212770e+002;1.335742e-001
7.232055e+002;1.071946e-001
7.251340e+002;9.476039e-002
7.270626e+002;9.039613e-002
7.289911e+002;9.563345e-002
7.309197e+002;1.047433e-001
7.328483e+002;9.903242e-002
7.347768e+002;7.776393e-002
7.367053e+002;5.900491e-002
7.386339e+002;4.868449e-002
7.405624e+002;4.472534e-002
7.424910e+002;4.308738e-002
7.444196e+002;4.160859e-002
7.463481e+002;4.099360e-002
7.482766e+002;4.040217e-002
7.502052e+002;3.884924e-002
7.521337e+002;3.694296e-002
7.540623e+002;3.678801e-002
7.559908e+002;3.715842e-002
7.579194e+002;3.562818e-002
7.598479e+002;3.465385e-002
7.617765e+002;3.402404e-002
7.637050e+002;3.446345e-002
7.656335e+002;3.515663e-002
7.675621e+002;3.529109e-002
7.694907e+002;3.446488e-002
7.714192e+002;3.303954e-002
7.733478e+002;3.219762e-002
7.752763e+002;3.258732e-002
7.772048e+002;3.281074e-002
7.791334e+002;3.227188e-002
7.810620e+002;3.185002e-002
7.829905e+002;3.160795e-002
7.849191e+002;3.119748e-002
7.868476e+002;3.098026e-002
7.887761e+002;3.127122e-002
7.907047e+002;3.206632e-002
7.926332e+002;3.216615e-002
7.945618e+002;3.048873e-002
7.964903e+002;2.973223e-002
7.984189e+002;3.007967e-002
8.003474e+002;2.959466e-002
8.022759e+002;2.963988e-002
8.042045e+002;3.051393e-002
8.061331e+002;3.058954e-002
8.080616e+002;3.033656e-002
8.099902e+002;3.045109e-002
8.119187e+002;3.114006e-002
8.138472e+002;3.181868e-002
8.157758e+002;3.183832e-002
8.177043e+002;3.139757e-002
8.196329e+002;3.151334e-002
8.215615e+002;3.217093e-002
8.234900e+002;3.315922e-002
8.254185e+002;3.377094e-002
8.273471e+002;3.363953e-002
8.292756e+002;3.362836e-002
8.312042e+002;3.436187e-002
8.331328e+002;3.480065e-002
8.350613e+002;3.468949e-002
8.369898e+002;3.458528e-002
8.389184e+002;3.505568e-002
8.408469e+002;3.523700e-002
8.427755e+002;3.474021e-002
8.447040e+002;3.455428e-002
8.466326e+002;3.446391e-002
8.485611e+002;3.394500e-002
8.504897e+002;3.311287e-002
8.524182e+002;3.265300e-002
8.543467e+002;3.293065e-002
8.562753e+002;3.294991e-002
8.582039e+002;3.259499e-002
8.601324e+002;3.241834e-002
8.620610e+002;3.229116e-002
8.639895e+002;3.235294e-002
8.659180e+002;3.313816e-002
8.678466e+002;3.345902e-002
8.697751e+002;3.344674e-002
8.717037e+002;3.431382e-002
8.736323e+002;3.451112e-002
8.755608e+002;3.421088e-002
8.774893e+002;3.418303e-002
8.794179e+002;3.387159e-002
8.813464e+002;3.339493e-002
8.832750e+002;3.343575e-002
8.852036e+002;3.386701e-002
8.871321e+002;3.419558e-002
8.890606e+002;3.386529e-002
8.909892e+002;3.313186e-002
8.929177e+002;3.287842e-002
8.948463e+002;3.304233e-002
8.967748e+002;3.309860e-002
8.987034e+002;3.329482e-002
9.006319e+002;3.381604e-002
9.025605e+002;3.380407e-002
9.044890e+002;3.387854e-002
9.064175e+002;3.430625e-002
9.083461e+002;3.464628e-002
9.102747e+002;3.465615e-002
9.122032e+002;3.462773e-002
9.141318e+002;3.390530e-002
9.160603e+002;3.353056e-002
9.179888e+002;3.389893e-002
9.199174e+002;3.375712e-002
9.218459e+002;3.322964e-002
9.237745e+002;3.332837e-002
9.257031e+002;3.328605e-002
9.276316e+002;3.314753e-002
9.295601e+002;3.322821e-002
9.314887e+002;3.329911e-002
9.334172e+002;3.307561e-002
9.353458e+002;3.326920e-002
9.372744e+002;3.329782e-002
9.392029e+002;3.292986e-002
9.411314e+002;3.291381e-002
9.430600e+002;3.352186e-002
9.449885e+002;3.394414e-002
9.469171e+002;3.384447e-002
9.488456e+002;3.350035e-002
9.507742e+002;3.329768e-002
9.527027e+002;3.329464e-002
9.546313e+002;3.322935e-002
9.565598e+002;3.314681e-002
9.584883e+002;3.295116e-002
9.604169e+002;3.256749e-002
9.623455e+002;3.262861e-002
9.642740e+002;3.283197e-002
9.662026e+002;3.318243e-002
9.681311e+002;3.340208e-002
9.700596e+002;3.333066e-002
9.719882e+002;3.327457e-002
9.739167e+002;3.340509e-002
9.758453e+002;3.336408e-002
9.777739e+002;3.313730e-002
9.797024e+002;3.276218e-002
9.816309e+002;3.296593e-002
9.835595e+002;3.312703e-002
9.854880e+002;3.290548e-002
9.874166e+002;3.227813e-002
9.893452e+002;3.149639e-002
9.912737e+002;3.144167e-002
9.932022e+002;3.188036e-002
9.951307e+002;3.220193e-002
9.970593e+002;3.222095e-002
9.989879e+002;3.219968e-002
1.000916e+003;3.235633e-002
1.002845e+003;3.226364e-002
1.004773e+003;3.207556e-002
1.006702e+003;3.197700e-002
1.008631e+003;3.201642e-002
1.010559e+003;3.185718e-002
1.012488e+003;3.181686e-002
1.014416e+003;3.193456e-002
1.016345e+003;3.151691e-002
1.018273e+003;3.120556e-002
1.020202e+003;3.148004e-002
1.022130e+003;3.175814e-002
1.024059e+003;3.194676e-002
1.025988e+003;3.205251e-002
1.027916e+003;3.211377e-002
1.029845e+003;3.247100e-002
1.031773e+003;3.295499e-002
1.033702e+003;3.278098e-002
1.035630e+003;3.288579e-002
1.037559e+003;3.308466e-002
1.039487e+003;3.319191e-002
1.041416e+003;3.353629e-002
1.043344e+003;3.376690e-002
1.045273e+003;3.396721e-002
1.047202e+003;3.394786e-002
1.049130e+003;3.394249e-002
1.051059e+003;3.408557e-002
1.052987e+003;3.422512e-002
1.054916e+003;3.415987e-002
1.056844e+003;3.424136e-002
1.058773e+003;3.457498e-002
1.060701e+003;3.483770e-002
1.062630e+003;3.462479e-002
1.064558e+003;3.453290e-002
1.066487e+003;3.482668e-002
1.068416e+003;3.511955e-002
1.070344e+003;3.558506e-002
1.072273e+003;3.578639e-002
1.074201e+003;3.549376e-002
1.076130e+003;3.564498e-002
1.078058e+003;3.599689e-002
1.079987e+003;3.551677e-002
1.081915e+003;3.433871e-002
1.083844e+003;3.400981e-002
1.085773e+003;3.449024e-002
1.087701e+003;3.446291e-002
1.089630e+003;3.429636e-002
1.091558e+003;3.343275e-002
1.093487e+003;3.217282e-002
1.095415e+003;3.173775e-002
1.097344e+003;3.189423e-002
1.099272e+003;3.213992e-002
1.101201e+003;3.281249e-002
1.103129e+003;3.330280e-002
1.105058e+003;3.250729e-002
1.106987e+003;3.156141e-002
1.108915e+003;3.172923e-002
1.110844e+003;3.209197e-002
1.112772e+003;3.241609e-002
1.114701e+003;3.242277e-002
1.116629e+003;3.210678e-002
1.118558e+003;3.199106e-002
1.120486e+003;3.209735e-002
1.122415e+003;3.217613e-002
1.124344e+003;3.245854e-002
1.126272e+003;3.279781e-002
1.128201e+003;3.281603e-002
1.130129e+003;3.275811e-002
1.132058e+003;3.280595e-002
1.133986e+003;3.268244e-002
1.135915e+003;3.263243e-002
1.137843e+003;3.250378e-002
1.139772e+003;3.210485e-002
1.141700e+003;3.225743e-002
1.143629e+003;3.295699e-002
1.145557e+003;3.338018e-002
1.147486e+003;3.366581e-002
1.149415e+003;3.345630e-002
1.151343e+003;3.308284e-002
1.153272e+003;3.285873e-002
1.155200e+003;3.253764e-002
1.157129e+003;3.222206e-002
1.159057e+003;3.199295e-002
1.160986e+003;3.234816e-002
1.162914e+003;3.288532e-002
1.164843e+003;3.298620e-002
1.166771e+003;3.288347e-002
1.168700e+003;3.271534e-002
1.170629e+003;3.269073e-002
1.172557e+003;3.264389e-002
1.174486e+003;3.304072e-002
1.176414e+003;3.330362e-002
1.178343e+003;3.237072e-002
1.180271e+003;3.147790e-002
1.182200e+003;3.151498e-002
1.184128e+003;3.169997e-002
1.186057e+003;3.145820e-002
1.187986e+003;3.106517e-002
1.189914e+003;3.076154e-002
1.191843e+003;3.076353e-002
1.193771e+003;3.089913e-002
1.195700e+003;3.082837e-002
1.197628e+003;3.073561e-002
1.199557e+003;3.066691e-002
1.201485e+003;3.042458e-002
1.203414e+003;3.032270e-002
1.205343e+003;3.051066e-002
1.207271e+003;3.058556e-002
1.209200e+003;3.076154e-002
1.211128e+003;3.068913e-002
1.213057e+003;3.050714e-002
1.214985e+003;3.069489e-002
1.216914e+003;3.095627e-002
1.218842e+003;3.088056e-002
1.220771e+003;3.091770e-002
1.222699e+003;3.120990e-002
1.224628e+003;3.121005e-002
1.226557e+003;3.081770e-002
1.228485e+003;3.070300e-002
1.230414e+003;3.090297e-002
1.232342e+003;3.132413e-002
1.234271e+003;3.185847e-002
1.236199e+003;3.241866e-002
1.238128e+003;3.277747e-002
1.240056e+003;3.278090e-002
1.241985e+003;3.248979e-002
1.243913e+003;3.238639e-002
1.245842e+003;3.267826e-002
1.247771e+003;3.307608e-002
1.249699e+003;3.327829e-002
1.251628e+003;3.358529e-002
1.253556e+003;3.406608e-002
1.255485e+003;3.395532e-002
1.257413e+003;3.331685e-002
1.259342e+003;3.234441e-002
1.261270e+003;3.171669e-002
1.263199e+003;3.206304e-002
1.265127e+003;3.322134e-002
1.267056e+003;3.458582e-002
1.268985e+003;3.527068e-002
1.270913e+003;3.545051e-002
1.272842e+003;3.565041e-002
1.274770e+003;3.589773e-002
1.276699e+003;3.596824e-002
1.278627e+003;3.595773e-002
1.280556e+003;3.617090e-002
1.282484e+003;3.636429e-002
1.284413e+003;3.665232e-002
1.286342e+003;3.679673e-002
1.288270e+003;3.681538e-002
1.290199e+003;3.709335e-002
1.292127e+003;3.766999e-002
1.294056e+003;3.814407e-002
1.295984e+003;3.837356e-002
1.297913e+003;3.857739e-002
1.299841e+003;3.879707e-002
1.301770e+003;3.884348e-002
1.303698e+003;3.889356e-002
1.305627e+003;3.904281e-002
1.307556e+003;3.871773e-002
1.309484e+003;3.786329e-002
1.311413e+003;3.728408e-002
1.313341e+003;3.650277e-002
1.315270e+003;3.573491e-002
1.317198e+003;3.517365e-002
1.319127e+003;3.441771e-002
1.321055e+003;3.398538e-002
1.322984e+003;3.387127e-002
1.324912e+003;3.365528e-002
1.326841e+003;3.330648e-002
1.328770e+003;3.277304e-002
1.330698e+003;3.248250e-002
1.332627e+003;3.254396e-002
1.334555e+003;3.279170e-002
1.336484e+003;3.312360e-002
1.338412e+003;3.370104e-002
1.340341e+003;3.483541e-002
1.342269e+003;3.629527e-002
1.344198e+003;3.718181e-002
1.346126e+003;3.777119e-002
1.348055e+003;3.834649e-002
1.349984e+003;3.908244e-002
1.351912e+003;3.967734e-002
1.353841e+003;3.968318e-002
1.355769e+003;3.952427e-002
1.357698e+003;3.949187e-002
1.359626e+003;3.943457e-002
1.361555e+003;3.962060e-002
1.363483e+003;4.074096e-002
1.365412e+003;4.251428e-002
1.367341e+003;4.331492e-002
1.369269e+003;4.337104e-002
1.371198e+003;4.246496e-002
1.373126e+003;4.030403e-002
1.375055e+003;3.871291e-002
1.376983e+003;3.806984e-002
1.378912e+003;3.719372e-002
1.380840e+003;3.608743e-002
1.382769e+003;3.504476e-002
1.384698e+003;3.433641e-002
1.386626e+003;3.318214e-002
1.388555e+003;3.305841e-002
1.390483e+003;3.363964e-002
1.392412e+003;3.312203e-002
1.394340e+003;3.221253e-002
1.396269e+003;3.261343e-002
1.398197e+003;3.297833e-002
1.400126e+003;3.356088e-002
1.402054e+003;3.433838e-002
1.403983e+003;3.434509e-002
1.405911e+003;3.486147e-002
1.407840e+003;3.534169e-002
1.409769e+003;3.548304e-002
1.411697e+003;3.623753e-002
1.413626e+003;3.709231e-002
1.415554e+003;3.735760e-002
1.417483e+003;3.638137e-002
1.419411e+003;3.625410e-002
1.421340e+003;3.942568e-002
1.423268e+003;4.198651e-002
1.425197e+003;4.421853e-002
1.427125e+003;4.679601e-002
1.429054e+003;4.919985e-002
1.430983e+003;5.192517e-002
1.432911e+003;5.422691e-002
1.434840e+003;5.443121e-002
1.436768e+003;5.522573e-002
1.438697e+003;5.943596e-002
1.440625e+003;6.237293e-002
1.442554e+003;6.366108e-002
1.444482e+003;6.473886e-002
1.446411e+003;6.585881e-002
1.448340e+003;6.799223e-002
1.450268e+003;7.187551e-002
1.452197e+003;7.657322e-002
1.454125e+003;8.101042e-002
1.456054e+003;8.462676e-002
1.457982e+003;9.754728e-002
1.459911e+003;1.229582e-001
1.461839e+003;1.395852e-001
1.463768e+003;1.361220e-001
1.465697e+003;1.378967e-001
1.467625e+003;1.558670e-001
1.469554e+003;1.856382e-001
1.471482e+003;2.065284e-001
1.473411e+003;1.807591e-001
1.475339e+003;1.262927e-001
1.477268e+003;8.659639e-002
1.479196e+003;6.852943e-002
1.481125e+003;6.020392e-002
1.483053e+003;5.557054e-002
1.484982e+003;5.175702e-002
1.486911e+003;4.810237e-002
1.488839e+003;4.542326e-002
1.490768e+003;4.434306e-002
1.492696e+003;4.414377e-002
1.494625e+003;4.184974e-002
1.496553e+003;3.937424e-002
1.498482e+003;3.962125e-002
1.500410e+003;4.007679e-002
1.502339e+003;3.982494e-002
1.504267e+003;3.583439e-002
1.506196e+003;3.088810e-002
1.508125e+003;3.253407e-002
1.510053e+003;3.581313e-002
1.511982e+003;3.633940e-002
1.513910e+003;3.622719e-002
1.515839e+003;3.519971e-002
1.517767e+003;3.449426e-002
1.519696e+003;3.254364e-002
1.521624e+003;3.094613e-002
1.523553e+003;3.329113e-002
1.525481e+003;3.433666e-002
1.527410e+003;3.486592e-002
1.529339e+003;3.582399e-002
1.531267e+003;3.553389e-002
1.533196e+003;3.451593e-002
1.535124e+003;3.559146e-002
1.537053e+003;3.380640e-002
1.538981e+003;2.817153e-002
1.540910e+003;2.760474e-002
1.542838e+003;3.077730e-002
1.544767e+003;3.308999e-002
1.546695e+003;3.503585e-002
1.548624e+003;3.524257e-002
1.550553e+003;3.470345e-002
1.552481e+003;3.340380e-002
1.554410e+003;3.137894e-002
1.556338e+003;2.854585e-002
1.558267e+003;2.326317e-002
1.560195e+003;2.501631e-002
1.562124e+003;3.118698e-002
1.564052e+003;3.310923e-002
1.565981e+003;3.311123e-002
1.567910e+003;3.195682e-002
1.569838e+003;3.106887e-002
1.571767e+003;3.260028e-002
1.573695e+003;3.177572e-002
1.575624e+003;2.864246e-002
1.577552e+003;3.054756e-002
1.579481e+003;3.386228e-002
1.581409e+003;3.451866e-002
1.583338e+003;3.456096e-002
1.585266e+003;3.446725e-002
1.587195e+003;3.439032e-002
1.589124e+003;3.425405e-002
1.591052e+003;3.420458e-002
1.592981e+003;3.386755e-002
1.594909e+003;3.389040e-002
1.596838e+003;3.424742e-002
1.598766e+003;3.448063e-002
1.600695e+003;3.432046e-002
1.602623e+003;3.406611e-002
1.604552e+003;3.394059e-002
1.606480e+003;3.382839e-002
1.608409e+003;3.369546e-002
1.610338e+003;3.385605e-002
1.612266e+003;3.407736e-002
1.614195e+003;3.260174e-002
1.616123e+003;2.944485e-002
1.618052e+003;3.088497e-002
1.619980e+003;3.346499e-002
1.621909e+003;3.283386e-002
1.623837e+003;3.260589e-002
1.625766e+003;3.349623e-002
1.627694e+003;3.376213e-002
1.629623e+003;3.444817e-002
1.631552e+003;3.505532e-002
1.633480e+003;3.306628e-002
1.635409e+003;3.044135e-002
1.637337e+003;3.263982e-002
1.639266e+003;3.555435e-002
1.641194e+003;3.646626e-002
1.643123e+003;3.586660e-002
1.645051e+003;3.304189e-002
1.646980e+003;3.209718e-002
1.648909e+003;3.402605e-002
1.650837e+003;3.057528e-002
1.652766e+003;2.470254e-002
1.654694e+003;2.903522e-002
1.656623e+003;3.457954e-002
1.658551e+003;3.575246e-002
1.660480e+003;3.494406e-002
1.662408e+003;3.357949e-002
1.664337e+003;3.389370e-002
1.666266e+003;3.380816e-002
1.668194e+003;3.167402e-002
1.670123e+003;3.099915e-002
1.672051e+003;3.228195e-002
1.673980e+003;3.117715e-002
1.675908e+003;3.079312e-002
1.677837e+003;3.287224e-002
1.679765e+003;3.292357e-002
1.681694e+003;3.040190e-002
1.683622e+003;2.585394e-002
1.685551e+003;2.698478e-002
1.687479e+003;3.098951e-002
1.689408e+003;3.198520e-002
1.691337e+003;3.240709e-002
1.693265e+003;3.117644e-002
1.695194e+003;2.713843e-002
1.697122e+003;2.677223e-002
1.699051e+003;2.529684e-002
1.700979e+003;2.504952e-002
1.702908e+003;2.886394e-002
1.704836e+003;2.902250e-002
1.706765e+003;2.953259e-002
1.708693e+003;3.028497e-002
1.710622e+003;3.026124e-002
1.712551e+003;2.931655e-002
1.714479e+003;2.713617e-002
1.716408e+003;2.409269e-002
1.718336e+003;2.468349e-002
1.720265e+003;2.817054e-002
1.722193e+003;2.926639e-002
1.724122e+003;2.912177e-002
1.726050e+003;2.936182e-002
1.727979e+003;2.922851e-002
1.729908e+003;2.868228e-002
1.731836e+003;2.603026e-002
1.733765e+003;2.301790e-002
1.735693e+003;2.607657e-002
1.737622e+003;2.892099e-002
1.739550e+003;2.807347e-002
1.741479e+003;2.810758e-002
1.743407e+003;2.824543e-002
1.745336e+003;2.808436e-002
1.747265e+003;2.723427e-002
1.749193e+003;2.551486e-002
1.751122e+003;2.438629e-002
1.753050e+003;2.537194e-002
1.754979e+003;2.496223e-002
1.756907e+003;2.401564e-002
1.758836e+003;2.408418e-002
1.760764e+003;2.320881e-002
1.762693e+003;2.289868e-002
1.764621e+003;2.325180e-002
1.766550e+003;2.214468e-002
1.768479e+003;2.119158e-002
1.770407e+003;2.005069e-002
1.772336e+003;1.885450e-002
1.774264e+003;2.044794e-002
1.776193e+003;2.200855e-002
1.778121e+003;2.220386e-002
1.780050e+003;2.189214e-002
1.781978e+003;2.166667e-002
1.783907e+003;2.129290e-002
1.785835e+003;2.133835e-002
1.787764e+003;2.166416e-002
1.789693e+003;2.073929e-002
1.791621e+003;1.908929e-002
1.793550e+003;1.951432e-002
1.795478e+003;2.116612e-002
1.797407e+003;2.142784e-002
1.799335e+003;2.102754e-002
1.801264e+003;2.098960e-002
1.803192e+003;2.157069e-002
1.805121e+003;2.195759e-002
1.807049e+003;2.205282e-002
1.808978e+003;2.171017e-002
1.810907e+003;2.149259e-002
1.812835e+003;2.162808e-002
1.814764e+003;2.185956e-002
1.816692e+003;2.187155e-002
1.818621e+003;2.207042e-002
1.820549e+003;2.225582e-002
1.822478e+003;2.178650e-002
1.824406e+003;2.069415e-002
1.826335e+003;2.045915e-002
1.828264e+003;2.001731e-002
1.830192e+003;1.976742e-002
1.832121e+003;2.041352e-002
1.834049e+003;2.056833e-002
1.835978e+003;2.030462e-002
1.837906e+003;2.035879e-002
1.839835e+003;2.052168e-002
1.841763e+003;1.964759e-002
1.843692e+003;1.799520e-002
1.845620e+003;1.878458e-002
1.847549e+003;2.025307e-002
1.849478e+003;2.069616e-002
1.851406e+003;2.078767e-002
1.853335e+003;2.064737e-002
1.855263e+003;2.045999e-002
1.857192e+003;2.032157e-002
1.859120e+003;2.021579e-002
1.861049e+003;2.019031e-002
1.862977e+003;2.036671e-002
1.864906e+003;2.046176e-002
1.866834e+003;1.980376e-002
1.868763e+003;1.953861e-002
1.870692e+003;2.047458e-002
1.872620e+003;2.103749e-002
1.874549e+003;2.130637e-002
1.876477e+003;2.184485e-002
1.878406e+003;2.195672e-002
1.880334e+003;2.196083e-002
1.882263e+003;2.215615e-002
1.884191e+003;2.274610e-002
1.886120e+003;2.365759e-002
1.888048e+003;2.410183e-002
1.889977e+003;2.429360e-002
1.891906e+003;2.515332e-002
1.893834e+003;2.571622e-002
1.895763e+003;2.563927e-002
1.897691e+003;2.554522e-002
1.899620e+003;2.560219e-002
1.901548e+003;2.559642e-002
1.903477e+003;2.549817e-002
1.905405e+003;2.502607e-002
1.907334e+003;2.441023e-002
1.909262e+003;2.410421e-002
1.911191e+003;2.405430e-002
1.913120e+003;2.378721e-002
1.915048e+003;2.314429e-002
1.916977e+003;2.258350e-002
1.918905e+003;2.275920e-002
1.920834e+003;2.282474e-002
1.922762e+003;2.252026e-002
1.924691e+003;2.264067e-002
1.926619e+003;2.284063e-002
1.928548e+003;2.314122e-002
1.930477e+003;2.308391e-002
1.932405e+003;2.281168e-002
1.934334e+003;2.276074e-002
1.936262e+003;2.277498e-002
1.938191e+003;2.291241e-002
1.940119e+003;2.268588e-002
1.942048e+003;2.220218e-002
1.943976e+003;2.218733e-002
1.945905e+003;2.239733e-002
1.947833e+003;2.233091e-002
1.949762e+003;2.228016e-002
1.951691e+003;2.230280e-002
1.953619e+003;2.252078e-002
1.955548e+003;2.279681e-002
1.957476e+003;2.266179e-002
1.959405e+003;2.243149e-002
1.961333e+003;2.248009e-002
1.963262e+003;2.264807e-002
1.965190e+003;2.259505e-002
1.967119e+003;2.234127e-002
1.969047e+003;2.225631e-002
1.970976e+003;2.231110e-002
1.972905e+003;2.214935e-002
1.974833e+003;2.236716e-002
1.976762e+003;2.263313e-002
1.978690e+003;2.250229e-002
1.980619e+003;2.236095e-002
1.982547e+003;2.231051e-002
1.984476e+003;2.229966e-002
1.986404e+003;2.214391e-002
1.988333e+003;2.215267e-002
1.990261e+003;2.227500e-002
1.992190e+003;2.229167e-002
1.994119e+003;2.259593e-002
1.996047e+003;2.275187e-002
1.997976e+003;2.268047e-002
1.999904e+003;2.288506e-002
2.001833e+003;2.320074e-002
2.003761e+003;2.344743e-002
2.005690e+003;2.388365e-002
2.007618e+003;2.458123e-002
2.009547e+003;2.547196e-002
2.011476e+003;2.644289e-002
2.013404e+003;2.731051e-002
2.015333e+003;2.798158e-002
2.017261e+003;2.835046e-002
2.019190e+003;2.846508e-002
2.021118e+003;2.869258e-002
2.023047e+003;2.868119e-002
2.024975e+003;2.813926e-002
2.026904e+003;2.747222e-002
2.028833e+003;2.687162e-002
2.030761e+003;2.632729e-002
2.032690e+003;2.592755e-002
2.034618e+003;2.570349e-002
2.036547e+003;2.547080e-002
2.038475e+003;2.515209e-002
2.040404e+003;2.483622e-002
2.042332e+003;2.472053e-002
2.044261e+003;2.478041e-002
2.046189e+003;2.475501e-002
2.048118e+003;2.456286e-002
2.050047e+003;2.449281e-002
2.051975e+003;2.446817e-002
2.053904e+003;2.444244e-002
2.055832e+003;2.439614e-002
2.057761e+003;2.409833e-002
2.059689e+003;2.370021e-002
2.061618e+003;2.365010e-002
2.063546e+003;2.386282e-002
2.065475e+003;2.388680e-002
2.067404e+003;2.386709e-002
2.069332e+003;2.376810e-002
2.071260e+003;2.354882e-002
2.073189e+003;2.354760e-002
2.075118e+003;2.356404e-002
2.077046e+003;2.347170e-002
2.078975e+003;2.340225e-002
2.080903e+003;2.344009e-002
2.082832e+003;2.336329e-002
2.084760e+003;2.313943e-002
2.086689e+003;2.295687e-002
2.088617e+003;2.272526e-002
2.090546e+003;2.289190e-002
2.092475e+003;2.319374e-002
2.094403e+003;2.305047e-002
2.096332e+003;2.286843e-002
2.098260e+003;2.284507e-002
2.100189e+003;2.291478e-002
2.102117e+003;2.295907e-002
2.104046e+003;2.301343e-002
2.105974e+003;2.313059e-002
2.107903e+003;2.300519e-002
2.109832e+003;2.290797e-002
2.111760e+003;2.286054e-002
2.113688e+003;2.275826e-002
2.115617e+003;2.272711e-002
2.117546e+003;2.263662e-002
2.119474e+003;2.274150e-002
2.121403e+003;2.282579e-002
2.123331e+003;2.297137e-002
2.125260e+003;2.280225e-002
2.127188e+003;2.256720e-002
2.129117e+003;2.273807e-002
2.131045e+003;2.290409e-002
2.132974e+003;2.324020e-002
2.134903e+003;2.384454e-002
2.136831e+003;2.413377e-002
2.138760e+003;2.416554e-002
2.140688e+003;2.414218e-002
2.142617e+003;2.429763e-002
2.144545e+003;2.452780e-002
2.146474e+003;2.477809e-002
2.148402e+003;2.491064e-002
2.150331e+003;2.463787e-002
2.152260e+003;2.446757e-002
2.154188e+003;2.441682e-002
2.156117e+003;2.420040e-002
2.158045e+003;2.419245e-002
2.159974e+003;2.431676e-002
2.161902e+003;2.413202e-002
2.163831e+003;2.385771e-002
2.165759e+003;2.371092e-002
2.167688e+003;2.387636e-002
2.169616e+003;2.414369e-002
2.171545e+003;2.425775e-002
2.173474e+003;2.426459e-002
2.175402e+003;2.433435e-002
2.177331e+003;2.424388e-002
2.179259e+003;2.427303e-002
2.181188e+003;2.425807e-002
2.183116e+003;2.415588e-002
2.185045e+003;2.417105e-002
2.186973e+003;2.420408e-002
2.188902e+003;2.417490e-002
2.190831e+003;2.395090e-002
2.192759e+003;2.389019e-002
2.194688e+003;2.404629e-002
2.196616e+003;2.416201e-002
2.198545e+003;2.413735e-002
2.200473e+003;2.407518e-002
2.202402e+003;2.417280e-002
2.204330e+003;2.446761e-002
2.206259e+003;2.454410e-002
2.208188e+003;2.448391e-002
2.210116e+003;2.434020e-002
2.212044e+003;2.410624e-002
2.213973e+003;2.425008e-002
2.215902e+003;2.442456e-002
2.217830e+003;2.447977e-002
2.219759e+003;2.450102e-002
2.221687e+003;2.445190e-002
2.223616e+003;2.455596e-002
2.225544e+003;2.470152e-002
2.227473e+003;2.478290e-002
2.229401e+003;2.487640e-002
2.231330e+003;2.479360e-002
2.233259e+003;2.472905e-002
2.235187e+003;2.524139e-002
2.237116e+003;2.626340e-002
2.239044e+003;2.703591e-002
2.240973e+003;2.745040e-002
2.242901e+003;2.771997e-002
2.244830e+003;2.790176e-002
2.246758e+003;2.808722e-002
2.248687e+003;2.781891e-002
2.250615e+003;2.747317e-002
2.252544e+003;2.735063e-002
2.254473e+003;2.713250e-002
2.256401e+003;2.682227e-002
2.258330e+003;2.677258e-002
2.260258e+003;2.658979e-002
2.262187e+003;2.628811e-002
2.264115e+003;2.633659e-002
2.266044e+003;2.642091e-002
2.267972e+003;2.654671e-002
2.269901e+003;2.715670e-002
2.271830e+003;2.750084e-002
2.273758e+003;2.767406e-002
2.275687e+003;2.806513e-002
2.277615e+003;2.830891e-002
2.279544e+003;2.833540e-002
2.281472e+003;2.833271e-002
2.283401e+003;2.841105e-002
2.285329e+003;2.834275e-002
2.287258e+003;2.823938e-002
2.289187e+003;2.840699e-002
2.291115e+003;2.844105e-002
2.293043e+003;2.824925e-002
2.294972e+003;2.853460e-002
2.296901e+003;2.894387e-002
2.298829e+003;2.915731e-002
2.300758e+003;2.920288e-002
2.302686e+003;2.917868e-002
2.304615e+003;2.938469e-002
2.306543e+003;2.928759e-002
2.308472e+003;2.933782e-002
2.310400e+003;2.949308e-002
2.312329e+003;2.980487e-002
2.314258e+003;3.023069e-002
2.316186e+003;3.061258e-002
2.318115e+003;3.111229e-002
2.320043e+003;3.146147e-002
2.321972e+003;3.149927e-002
2.323900e+003;3.181151e-002
2.325829e+003;3.212411e-002
2.327757e+003;3.227227e-002
2.329686e+003;3.221000e-002
2.331615e+003;3.219294e-002
2.333543e+003;3.214766e-002
2.335472e+003;3.198735e-002
2.337400e+003;3.213361e-002
2.339329e+003;3.230907e-002
2.341257e+003;3.250218e-002
2.343186e+003;3.287521e-002
2.345114e+003;3.286127e-002
2.347043e+003;3.265189e-002
2.348971e+003;3.247208e-002
2.350900e+003;3.186813e-002
2.352829e+003;3.079572e-002
2.354757e+003;2.966915e-002
2.356686e+003;2.881621e-002
2.358614e+003;2.802378e-002
2.360543e+003;2.731658e-002
2.362471e+003;2.689291e-002
2.364400e+003;2.661033e-002
2.366328e+003;2.626520e-002
2.368257e+003;2.633352e-002
2.370186e+003;2.675802e-002
2.372114e+003;2.698686e-002
2.374042e+003;2.689400e-002
2.375971e+003;2.659786e-002
2.377900e+003;2.655326e-002
2.379828e+003;2.676877e-002
2.381757e+003;2.700618e-002
2.383685e+003;2.713099e-002
2.385614e+003;2.697935e-002
2.387542e+003;2.708884e-002
2.389471e+003;2.745559e-002
2.391399e+003;2.764528e-002
2.393328e+003;2.761975e-002
2.395257e+003;2.746269e-002
2.397185e+003;2.725918e-002
2.399114e+003;2.737805e-002
2.401042e+003;2.765531e-002
2.402971e+003;2.763084e-002
2.404899e+003;2.768748e-002
2.406828e+003;2.794850e-002
2.408756e+003;2.816973e-002
2.410685e+003;2.842259e-002
2.412614e+003;2.884018e-002
2.414542e+003;2.894677e-002
2.416471e+003;2.900040e-002
2.418399e+003;2.903929e-002
2.420328e+003;2.890091e-002
2.422256e+003;2.859677e-002
2.424185e+003;2.832525e-002
2.426113e+003;2.819922e-002
2.428042e+003;2.812374e-002
2.429970e+003;2.792582e-002
2.431899e+003;2.782618e-002
2.433828e+003;2.786777e-002
2.435756e+003;2.763451e-002
2.437685e+003;2.708214e-002
2.439613e+003;2.692880e-002
2.441542e+003;2.703891e-002
2.443470e+003;2.689058e-002
2.445399e+003;2.672187e-002
2.447327e+003;2.688995e-002
2.449256e+003;2.704596e-002
2.451185e+003;2.730614e-002
2.453113e+003;2.736066e-002
2.455042e+003;2.716227e-002
2.456970e+003;2.708895e-002
2.458899e+003;2.716562e-002
2.460827e+003;2.734636e-002
2.462756e+003;2.746544e-002
2.464684e+003;2.742054e-002
2.466613e+003;2.752365e-002
2.468542e+003;2.789600e-002
2.470470e+003;2.852427e-002
2.472398e+003;2.938423e-002
2.474327e+003;2.992427e-002
2.476256e+003;2.993062e-002
2.478184e+003;2.968008e-002
2.480113e+003;2.950000e-002
2.482041e+003;2.943769e-002
2.483970e+003;2.961044e-002
2.485898e+003;2.981325e-002
2.487827e+003;2.949489e-002
2.489755e+003;2.940950e-002
2.491684e+003;2.979213e-002
2.493613e+003;2.988206e-002
2.495541e+003;2.947429e-002
2.497470e+003;2.942890e-002
2.499398e+003;2.999623e-002
2.501327e+003;3.013802e-002
2.503255e+003;2.977091e-002
2.505184e+003;2.993542e-002
2.507112e+003;3.033666e-002
2.509041e+003;3.081148e-002
2.510969e+003;3.102232e-002
2.512898e+003;3.094642e-002
2.514827e+003;3.100741e-002
2.516755e+003;3.113878e-002
2.518684e+003;3.139508e-002
2.520612e+003;3.186734e-002
2.522541e+003;3.237568e-002
2.524469e+003;3.290012e-002
2.526398e+003;3.327214e-002
2.528326e+003;3.316423e-002
2.530255e+003;3.306521e-002
2.532184e+003;3.273753e-002
2.534112e+003;3.243098e-002
2.536041e+003;3.241673e-002
2.537969e+003;3.233049e-002
2.539898e+003;3.242141e-002
2.541826e+003;3.292121e-002
2.543755e+003;3.316970e-002
2.545683e+003;3.333095e-002
2.547612e+003;3.383746e-002
2.549541e+003;3.417414e-002
2.551469e+003;3.430600e-002
2.553397e+003;3.447223e-002
2.555326e+003;3.435900e-002
2.557255e+003;3.428754e-002
2.559183e+003;3.447306e-002
2.561112e+003;3.477581e-002
2.563040e+003;3.505715e-002
2.564969e+003;3.532839e-002
2.566897e+003;3.531104e-002
2.568826e+003;3.534482e-002
2.570754e+003;3.552001e-002
2.572683e+003;3.569581e-002
2.574612e+003;3.586495e-002
2.576540e+003;3.612272e-002
2.578469e+003;3.659980e-002
2.580397e+003;3.700610e-002
2.582326e+003;3.733034e-002
2.584254e+003;3.778196e-002
2.586183e+003;3.818130e-002
2.588111e+003;3.857956e-002
2.590040e+003;3.880308e-002
2.591969e+003;3.906833e-002
2.593897e+003;3.959301e-002
2.595826e+003;4.003671e-002
2.597754e+003;4.061604e-002
2.599683e+003;4.099764e-002
2.601611e+003;4.116959e-002
2.603540e+003;4.147111e-002
2.605468e+003;4.193217e-002
2.607397e+003;4.250142e-002
2.609325e+003;4.315098e-002
2.611254e+003;4.361965e-002
2.613183e+003;4.407343e-002
2.615111e+003;4.459413e-002
2.617040e+003;4.516645e-002
2.618968e+003;4.594301e-002
2.620897e+003;4.671228e-002
2.622825e+003;4.738015e-002
2.624754e+003;4.815160e-002
2.626682e+003;4.871963e-002
2.628611e+003;4.887853e-002
2.630540e+003;4.913283e-002
2.632468e+003;4.985226e-002
2.634396e+003;5.034578e-002
2.636325e+003;5.000819e-002
2.638254e+003;4.955519e-002
2.640182e+003;4.939493e-002
2.642111e+003;4.920114e-002
2.644039e+003;4.912949e-002
2.645968e+003;4.922166e-002
2.647896e+003;4.923398e-002
2.649825e+003;4.904227e-002
2.651753e+003;4.875429e-002
2.653682e+003;4.909365e-002
2.655611e+003;4.927165e-002
2.657539e+003;4.871040e-002
2.659468e+003;4.872493e-002
2.661396e+003;4.936527e-002
2.663325e+003;4.939824e-002
2.665253e+003;4.905529e-002
2.667182e+003;4.870588e-002
2.669110e+003;4.813354e-002
2.671039e+003;4.761934e-002
2.672968e+003;4.728064e-002
2.674896e+003;4.743174e-002
2.676825e+003;4.742604e-002
2.678753e+003;4.692877e-002
2.680682e+003;4.640445e-002
2.682610e+003;4.599321e-002
2.684539e+003;4.599527e-002
2.686467e+003;4.599513e-002
2.688396e+003;4.599199e-002
2.690324e+003;4.593701e-002
2.692253e+003;4.610804e-002
2.694182e+003;4.630396e-002
2.696110e+003;4.640386e-002
2.698039e+003;4.675601e-002
2.699967e+003;4.716513e-002
2.701896e+003;4.742398e-002
2.703824e+003;4.779800e-002
2.705753e+003;4.819562e-002
2.707681e+003;4.880952e-002
2.709610e+003;4.923176e-002
2.711539e+003;4.918189e-002
2.713467e+003;4.929058e-002
2.715396e+003;4.968902e-002
2.717324e+003;5.008017e-002
2.719253e+003;5.017340e-002
2.721181e+003;5.042497e-002
2.723110e+003;5.108075e-002
2.725038e+003;5.163258e-002
2.726967e+003;5.194870e-002
2.728896e+003;5.237620e-002
2.730824e+003;5.302420e-002
2.732752e+003;5.323884e-002
2.734681e+003;5.364669e-002
2.736610e+003;5.416459e-002
2.738538e+003;5.432561e-002
2.740467e+003;5.463336e-002
2.742395e+003;5.470299e-002
2.744324e+003;5.472675e-002
2.746252e+003;5.500988e-002
2.748181e+003;5.498965e-002
2.750109e+003;5.497690e-002
2.752038e+003;5.511655e-002
2.753967e+003;5.555442e-002
2.755895e+003;5.613187e-002
2.757824e+003;5.676311e-002
2.759752e+003;5.725937e-002
2.761681e+003;5.786587e-002
2.763609e+003;5.866393e-002
2.765538e+003;5.937009e-002
2.767466e+003;5.985276e-002
2.769395e+003;6.032771e-002
2.771323e+003;6.120893e-002
2.773252e+003;6.210655e-002
2.775181e+003;6.291480e-002
2.777109e+003;6.388408e-002
2.779038e+003;6.495810e-002
2.780966e+003;6.582407e-002
2.782895e+003;6.672747e-002
2.784823e+003;6.778505e-002
2.786752e+003;6.881011e-002
2.788680e+003;6.959706e-002
2.790609e+003;7.040293e-002
2.792538e+003;7.169405e-002
2.794466e+003;7.302430e-002
2.796395e+003;7.373654e-002
2.798323e+003;7.443626e-002
2.800252e+003;7.570197e-002
2.802180e+003;7.675082e-002
2.804109e+003;7.779314e-002
2.806037e+003;7.935654e-002
2.807966e+003;8.049226e-002
2.809895e+003;8.124271e-002
2.811823e+003;8.279663e-002
2.813751e+003;8.501361e-002
2.815680e+003;8.682647e-002
2.817609e+003;8.848741e-002
2.819537e+003;9.042215e-002
2.821466e+003;9.292817e-002
2.823394e+003;9.572250e-002
2.825323e+003;9.864926e-002
2.827251e+003;1.022404e-001
2.829180e+003;1.067819e-001
2.831108e+003;1.121483e-001
2.833037e+003;1.184351e-001
2.834966e+003;1.263193e-001
2.836894e+003;1.372940e-001
2.838823e+003;1.518664e-001
2.840751e+003;1.713259e-001
2.842680e+003;1.989149e-001
2.844608e+003;2.350223e-001
2.846537e+003;2.744237e-001
2.848465e+003;2.974829e-001
2.850394e+003;2.830790e-001
2.852323e+003;2.397303e-001
2.854251e+003;1.939275e-001
2.856180e+003;1.596778e-001
2.858108e+003;1.366056e-001
2.860037e+003;1.212468e-001
2.861965e+003;1.113816e-001
2.863894e+003;1.058145e-001
2.865822e+003;1.033651e-001
2.867751e+003;1.029888e-001
2.869679e+003;1.042342e-001
2.871608e+003;1.069570e-001
2.873536e+003;1.111209e-001
2.875465e+003;1.159595e-001
2.877394e+003;1.218674e-001
2.879322e+003;1.285345e-001
2.881251e+003;1.348622e-001
2.883179e+003;1.410054e-001
2.885108e+003;1.469918e-001
2.887036e+003;1.525367e-001
2.888965e+003;1.586482e-001
2.890893e+003;1.658138e-001
2.892822e+003;1.725261e-001
2.894750e+003;1.788191e-001
2.896679e+003;1.853207e-001
2.898608e+003;1.923295e-001
2.900536e+003;2.003956e-001
2.902465e+003;2.099297e-001
2.904393e+003;2.214636e-001
2.906322e+003;2.360885e-001
2.908250e+003;2.547517e-001
2.910179e+003;2.769334e-001
2.912107e+003;3.002502e-001
2.914036e+003;3.190345e-001
2.915965e+003;3.256482e-001
2.917893e+003;3.144818e-001
2.919822e+003;2.892391e-001
2.921750e+003;2.584396e-001
2.923679e+003;2.279265e-001
2.925607e+003;2.001440e-001
2.927536e+003;1.757548e-001
2.929464e+003;1.551197e-001
2.931393e+003;1.380086e-001
2.933322e+003;1.235474e-001
2.935250e+003;1.109537e-001
2.937178e+003;1.008039e-001
2.939107e+003;9.282309e-002
2.941036e+003;8.595758e-002
2.942964e+003;8.032064e-002
2.944893e+003;7.562388e-002
2.946821e+003;7.189646e-002
2.948750e+003;6.866882e-002
2.950678e+003;6.569153e-002
2.952607e+003;6.336202e-002
2.954535e+003;6.142892e-002
2.956464e+003;5.977689e-002
2.958393e+003;5.881748e-002
2.960321e+003;5.811235e-002
2.962250e+003;5.710066e-002
2.964178e+003;5.614330e-002
2.966107e+003;5.548807e-002
2.968035e+003;5.503350e-002
2.969964e+003;5.477512e-002
2.971892e+003;5.441829e-002
2.973821e+003;5.365213e-002
2.975750e+003;5.290576e-002
2.977678e+003;5.229098e-002
2.979607e+003;5.179091e-002
2.981535e+003;5.149975e-002
2.983464e+003;5.081361e-002
2.985392e+003;5.015763e-002
2.987321e+003;4.952385e-002
2.989249e+003;4.880967e-002
2.991178e+003;4.818459e-002
2.993106e+003;4.776500e-002
2.995035e+003;4.758248e-002
2.996964e+003;4.715449e-002
2.998892e+003;4.694254e-002
3.000821e+003;4.656421e-002
3.002749e+003;4.579681e-002
3.004678e+003;4.537974e-002
3.006606e+003;4.502893e-002
3.008535e+003;4.491424e-002
3.010463e+003;4.486467e-002
3.012392e+003;4.466214e-002
3.014321e+003;4.409217e-002
3.016249e+003;4.376600e-002
3.018177e+003;4.375431e-002
3.020106e+003;4.348222e-002
3.022035e+003;4.346837e-002
3.023963e+003;4.369428e-002
3.025892e+003;4.377860e-002
3.027820e+003;4.349936e-002
3.029749e+003;4.306733e-002
3.031677e+003;4.256311e-002
3.033606e+003;4.207958e-002
3.035534e+003;4.180227e-002
3.037463e+003;4.153301e-002
3.039392e+003;4.121203e-002
3.041320e+003;4.117316e-002
3.043249e+003;4.145423e-002
3.045177e+003;4.124963e-002
3.047106e+003;4.047981e-002
3.049034e+003;3.983518e-002
3.050963e+003;4.002585e-002
3.052891e+003;3.988850e-002
3.054820e+003;3.941215e-002
3.056749e+003;3.923371e-002
3.058677e+003;3.893628e-002
3.060606e+003;3.879986e-002
3.062534e+003;3.877906e-002
3.064463e+003;3.849758e-002
3.066391e+003;3.819121e-002
3.068320e+003;3.797628e-002
3.070248e+003;3.773165e-002
3.072177e+003;3.731477e-002
3.074105e+003;3.711219e-002
3.076034e+003;3.704907e-002
3.077963e+003;3.709252e-002
3.079891e+003;3.672916e-002
3.081820e+003;3.625954e-002
3.083748e+003;3.638295e-002
3.085677e+003;3.655874e-002
3.087605e+003;3.629242e-002
3.089534e+003;3.588520e-002
3.091462e+003;3.535758e-002
3.093391e+003;3.511021e-002
3.095320e+003;3.475553e-002
3.097248e+003;3.416378e-002
3.099177e+003;3.388109e-002
3.101105e+003;3.379666e-002
3.103034e+003;3.330133e-002
3.104962e+003;3.231514e-002
3.106891e+003;3.166319e-002
3.108819e+003;3.139650e-002
3.110748e+003;3.136313e-002
3.112677e+003;3.104937e-002
3.114605e+003;3.016984e-002
3.116533e+003;2.943649e-002
3.118462e+003;2.885455e-002
3.120391e+003;2.844162e-002
3.122319e+003;2.831984e-002
3.124248e+003;2.831294e-002
3.126176e+003;2.818118e-002
3.128105e+003;2.774300e-002
3.130033e+003;2.714739e-002
3.131962e+003;2.694247e-002
3.133890e+003;2.699145e-002
3.135819e+003;2.666912e-002
3.137748e+003;2.664140e-002
3.139676e+003;2.660363e-002
3.141605e+003;2.655558e-002
3.143533e+003;2.639507e-002
3.145462e+003;2.641496e-002
3.147390e+003;2.665746e-002
3.149319e+003;2.648652e-002
3.151247e+003;2.624974e-002
3.153176e+003;2.605760e-002
3.155104e+003;2.588482e-002
3.157033e+003;2.580573e-002
3.158962e+003;2.578551e-002
3.160890e+003;2.561737e-002
3.162819e+003;2.536417e-002
3.164747e+003;2.513303e-002
3.166676e+003;2.514742e-002
3.168604e+003;2.538950e-002
3.170533e+003;2.555488e-002
3.172461e+003;2.572019e-002
3.174390e+003;2.587571e-002
3.176319e+003;2.585018e-002
3.178247e+003;2.570226e-002
3.180176e+003;2.548155e-002
3.182104e+003;2.544543e-002
3.184033e+003;2.538304e-002
3.185961e+003;2.517084e-002
3.187890e+003;2.489815e-002
3.189818e+003;2.504955e-002
3.191747e+003;2.528125e-002
3.193676e+003;2.540668e-002
3.195604e+003;2.534334e-002
3.197532e+003;2.529947e-002
3.199461e+003;2.539969e-002
3.201390e+003;2.548822e-002
3.203318e+003;2.516221e-002
3.205247e+003;2.478998e-002
3.207175e+003;2.474971e-002
3.209104e+003;2.502544e-002
3.211032e+003;2.540106e-002
3.212961e+003;2.540780e-002
3.214889e+003;2.543506e-002
3.216818e+003;2.535061e-002
3.218747e+003;2.513156e-002
3.220675e+003;2.567023e-002
3.222604e+003;2.561227e-002
3.224532e+003;2.494096e-002
3.226461e+003;2.469861e-002
3.228389e+003;2.478139e-002
3.230318e+003;2.522920e-002
3.232246e+003;2.524953e-002
3.234175e+003;2.487945e-002
3.236104e+003;2.503488e-002
3.238032e+003;2.476606e-002
3.239961e+003;2.402065e-002
3.241889e+003;2.446091e-002
3.243818e+003;2.539119e-002
3.245746e+003;2.549402e-002
3.247675e+003;2.529389e-002
3.249603e+003;2.522193e-002
3.251532e+003;2.526221e-002
3.253460e+003;2.481850e-002
3.255389e+003;2.480556e-002
3.257318e+003;2.505369e-002
3.259246e+003;2.496377e-002
3.261175e+003;2.465505e-002
3.263103e+003;2.464576e-002
3.265032e+003;2.478135e-002
3.266960e+003;2.471443e-002
3.268889e+003;2.510312e-002
3.270817e+003;2.549441e-002
3.272746e+003;2.570570e-002
3.274675e+003;2.591102e-002
3.276603e+003;2.591341e-002
3.278531e+003;2.544237e-002
3.280460e+003;2.519451e-002
3.282389e+003;2.593332e-002
3.284317e+003;2.638781e-002
3.286246e+003;2.627906e-002
3.288174e+003;2.611953e-002
3.290103e+003;2.541866e-002
3.292031e+003;2.481282e-002
3.293960e+003;2.470275e-002
3.295888e+003;2.496479e-002
3.297817e+003;2.545158e-002
3.299746e+003;2.551050e-002
3.301674e+003;2.539358e-002
3.303603e+003;2.552716e-002
3.305531e+003;2.542351e-002
3.307460e+003;2.525599e-002
3.309388e+003;2.559189e-002
3.311317e+003;2.599991e-002
3.313245e+003;2.586815e-002
3.315174e+003;2.562250e-002
3.317103e+003;2.574019e-002
3.319031e+003;2.581477e-002
3.320960e+003;2.547617e-002
3.322888e+003;2.530246e-002
3.324817e+003;2.563965e-002
3.326745e+003;2.552937e-002
3.328674e+003;2.544813e-002
3.330602e+003;2.567793e-002
3.332531e+003;2.568595e-002
3.334459e+003;2.580017e-002
3.336388e+003;2.619072e-002
3.338317e+003;2.592604e-002
3.340245e+003;2.541648e-002
3.342174e+003;2.531999e-002
3.344102e+003;2.565997e-002
3.346031e+003;2.606130e-002
3.347959e+003;2.588992e-002
3.349888e+003;2.559090e-002
3.351816e+003;2.559231e-002
3.353745e+003;2.555840e-002
3.355674e+003;2.574909e-002
3.357602e+003;2.580745e-002
3.359531e+003;2.553861e-002
3.361459e+003;2.524848e-002
3.363388e+003;2.555028e-002
3.365316e+003;2.612621e-002
3.367245e+003;2.621469e-002
3.369173e+003;2.616218e-002
3.371102e+003;2.633648e-002
3.373031e+003;2.606397e-002
3.374959e+003;2.560496e-002
3.376887e+003;2.530695e-002
3.378816e+003;2.538016e-002
3.380745e+003;2.546314e-002
3.382673e+003;2.549149e-002
3.384602e+003;2.547772e-002
3.386530e+003;2.525719e-002
3.388459e+003;2.480374e-002
3.390387e+003;2.457790e-002
3.392316e+003;2.461427e-002
3.394244e+003;2.458986e-002
3.396173e+003;2.456574e-002
3.398102e+003;2.466708e-002
3.400030e+003;2.492766e-002
3.401959e+003;2.464814e-002
3.403887e+003;2.455248e-002
3.405816e+003;2.491345e-002
3.407744e+003;2.497311e-002
3.409673e+003;2.454477e-002
3.411601e+003;2.445853e-002
3.413530e+003;2.459856e-002
3.415458e+003;2.437325e-002
3.417387e+003;2.451153e-002
3.419316e+003;2.495910e-002
3.421244e+003;2.518429e-002
3.423173e+003;2.516905e-002
3.425101e+003;2.516888e-002
3.427030e+003;2.522169e-002
3.428958e+003;2.515501e-002
3.430887e+003;2.470808e-002
3.432815e+003;2.423782e-002
3.434744e+003;2.390801e-002
3.436673e+003;2.389173e-002
3.438601e+003;2.433554e-002
3.440530e+003;2.439344e-002
3.442458e+003;2.420527e-002
3.444387e+003;2.400857e-002
3.446315e+003;2.344729e-002
3.448244e+003;2.346534e-002
3.450172e+003;2.353483e-002
3.452101e+003;2.321975e-002
3.454030e+003;2.325736e-002
3.455958e+003;2.384825e-002
3.457886e+003;2.392461e-002
3.459815e+003;2.351650e-002
3.461744e+003;2.317760e-002
3.463672e+003;2.304432e-002
3.465601e+003;2.268026e-002
3.467529e+003;2.266232e-002
3.469458e+003;2.308031e-002
3.471386e+003;2.328152e-002
3.473315e+003;2.312322e-002
3.475243e+003;2.341337e-002
3.477172e+003;2.378872e-002
3.479101e+003;2.339816e-002
3.481029e+003;2.299345e-002
3.482958e+003;2.280239e-002
3.484886e+003;2.272352e-002
3.486815e+003;2.233084e-002
3.488743e+003;2.265296e-002
3.490672e+003;2.295006e-002
3.492600e+003;2.255492e-002
3.494529e+003;2.272278e-002
3.496458e+003;2.306528e-002
3.498386e+003;2.335686e-002
3.500315e+003;2.347002e-002
3.502243e+003;2.303387e-002
3.504172e+003;2.217585e-002
3.506100e+003;2.196048e-002
3.508029e+003;2.270145e-002
3.509957e+003;2.337302e-002
3.511886e+003;2.347299e-002
3.513814e+003;2.300980e-002
3.515743e+003;2.265160e-002
3.517672e+003;2.292746e-002
3.519600e+003;2.316205e-002
3.521529e+003;2.279297e-002
3.523457e+003;2.268902e-002
3.525386e+003;2.289452e-002
3.527314e+003;2.280679e-002
3.529243e+003;2.234316e-002
3.531171e+003;2.226300e-002
3.533100e+003;2.255223e-002
3.535029e+003;2.240019e-002
3.536957e+003;2.267890e-002
3.538885e+003;2.264504e-002
3.540814e+003;2.206216e-002
3.542743e+003;2.153197e-002
3.544671e+003;2.151818e-002
3.546600e+003;2.205086e-002
3.548528e+003;2.260720e-002
3.550457e+003;2.262992e-002
3.552385e+003;2.249737e-002
3.554314e+003;2.259900e-002
3.556242e+003;2.303908e-002
3.558171e+003;2.304121e-002
3.560100e+003;2.274296e-002
3.562028e+003;2.291971e-002
3.563957e+003;2.280812e-002
3.565885e+003;2.197756e-002
3.567814e+003;2.170745e-002
3.569742e+003;2.241576e-002
3.571671e+003;2.316729e-002
3.573599e+003;2.372278e-002
3.575528e+003;2.406754e-002
3.577457e+003;2.411118e-002
3.579385e+003;2.417118e-002
3.581314e+003;2.444055e-002
3.583242e+003;2.448500e-002
3.585171e+003;2.341536e-002
3.587099e+003;2.278092e-002
3.589028e+003;2.389096e-002
3.590956e+003;2.546359e-002
3.592885e+003;2.589045e-002
3.594813e+003;2.623806e-002
3.596742e+003;2.696800e-002
3.598671e+003;2.806064e-002
3.600599e+003;2.903401e-002
3.602528e+003;2.972212e-002
3.604456e+003;2.961814e-002
3.606385e+003;2.846992e-002
3.608313e+003;2.734732e-002
3.610242e+003;2.756283e-002
3.612170e+003;2.767576e-002
3.614099e+003;2.743932e-002
3.616028e+003;2.670908e-002
3.617956e+003;2.547849e-002
3.619885e+003;2.536867e-002
3.621813e+003;2.621919e-002
3.623742e+003;2.645345e-002
3.625670e+003;2.558187e-002
3.627599e+003;2.263544e-002
3.629527e+003;2.178158e-002
3.631456e+003;2.406943e-002
3.633385e+003;2.556318e-002
3.635313e+003;2.622412e-002
3.637241e+003;2.629293e-002
3.639170e+003;2.655418e-002
3.641099e+003;2.690317e-002
3.643027e+003;2.763794e-002
3.644956e+003;2.673667e-002
3.646884e+003;2.382599e-002
3.648813e+003;2.204943e-002
3.650741e+003;2.390570e-002
3.652670e+003;2.627790e-002
3.654598e+003;2.538121e-002
3.656527e+003;2.487134e-002
3.658456e+003;2.653181e-002
3.660384e+003;2.694896e-002
3.662313e+003;2.661748e-002
3.664241e+003;2.597254e-002
3.666170e+003;2.492012e-002
3.668098e+003;2.258744e-002
3.670027e+003;2.106225e-002
3.671955e+003;2.283676e-002
3.673884e+003;2.221606e-002
3.675813e+003;2.113435e-002
3.677741e+003;2.402699e-002
3.679669e+003;2.550973e-002
3.681598e+003;2.587965e-002
3.683527e+003;2.588112e-002
3.685455e+003;2.512460e-002
3.687384e+003;2.268860e-002
3.689312e+003;2.221533e-002
3.691241e+003;2.398595e-002
3.693169e+003;2.558493e-002
3.695098e+003;2.618826e-002
3.697026e+003;2.611492e-002
3.698955e+003;2.575471e-002
3.700884e+003;2.523759e-002
3.702812e+003;2.497567e-002
3.704741e+003;2.500578e-002
3.706669e+003;2.430660e-002
3.708598e+003;2.283089e-002
3.710526e+003;2.140891e-002
3.712455e+003;2.184186e-002
3.714383e+003;2.418558e-002
3.716312e+003;2.497198e-002
3.718240e+003;2.413321e-002
3.720169e+003;2.353245e-002
3.722098e+003;2.366585e-002
3.724026e+003;2.335092e-002
3.725955e+003;2.271175e-002
3.727883e+003;2.324481e-002
3.729812e+003;2.350549e-002
3.731740e+003;2.181844e-002
3.733669e+003;2.076758e-002
3.735597e+003;2.034594e-002
3.737526e+003;2.203451e-002
3.739455e+003;2.365343e-002
3.741383e+003;2.251984e-002
3.743312e+003;1.754153e-002
3.745240e+003;1.729014e-002
3.747169e+003;1.972657e-002
3.749097e+003;1.798691e-002
3.751026e+003;1.768290e-002
3.752954e+003;2.052536e-002
3.754883e+003;2.308964e-002
3.756812e+003;2.334305e-002
3.758740e+003;2.367432e-002
3.760668e+003;2.438804e-002
3.762597e+003;2.513085e-002
3.764526e+003;2.418022e-002
3.766454e+003;2.385144e-002
3.768383e+003;2.354760e-002
3.770311e+003;2.374707e-002
3.772240e+003;2.468002e-002
3.774168e+003;2.485829e-002
3.776097e+003;2.461027e-002
3.778025e+003;2.396298e-002
3.779954e+003;2.426094e-002
3.781883e+003;2.537629e-002
3.783811e+003;2.542470e-002
3.785740e+003;2.563849e-002
3.787668e+003;2.574290e-002
3.789597e+003;2.590564e-002
3.791525e+003;2.594004e-002
3.793454e+003;2.606650e-002
3.795382e+003;2.516042e-002
3.797311e+003;2.474880e-002
3.799240e+003;2.324562e-002
3.801168e+003;2.146199e-002
3.803097e+003;2.378522e-002
3.805025e+003;2.474487e-002
3.806954e+003;2.392744e-002
3.808882e+003;2.581199e-002
3.810811e+003;2.692245e-002
3.812739e+003;2.647095e-002
3.814668e+003;2.381752e-002
3.816596e+003;2.359864e-002
3.818525e+003;2.489713e-002
3.820454e+003;2.393805e-002
3.822382e+003;2.534608e-002
3.824311e+003;2.696521e-002
3.826239e+003;2.669773e-002
3.828168e+003;2.651047e-002
3.830096e+003;2.590455e-002
3.832025e+003;2.532023e-002
3.833953e+003;2.525754e-002
3.835882e+003;2.385666e-002
3.837811e+003;2.243508e-002
3.839739e+003;2.441868e-002
3.841667e+003;2.590937e-002
3.843596e+003;2.624950e-002
3.845525e+003;2.722665e-002
3.847453e+003;2.755655e-002
3.849382e+003;2.570440e-002
3.851310e+003;2.084270e-002
3.853239e+003;1.726355e-002
3.855167e+003;2.145270e-002
3.857096e+003;2.585886e-002
3.859024e+003;2.653318e-002
3.860953e+003;2.586864e-002
3.862882e+003;2.543116e-002
3.864810e+003;2.590321e-002
3.866739e+003;2.627414e-002
3.868667e+003;2.437346e-002
3.870596e+003;2.513131e-002
3.872524e+003;2.722485e-002
3.874453e+003;2.788547e-002
3.876381e+003;2.884443e-002
3.878310e+003;2.819271e-002
3.880239e+003;2.727636e-002
3.882167e+003;2.705858e-002
3.884096e+003;2.568247e-002
3.886024e+003;2.556518e-002
3.887953e+003;2.755920e-002
3.889881e+003;2.729463e-002
3.891810e+003;2.718615e-002
3.893738e+003;2.828497e-002
3.895667e+003;2.854359e-002
3.897595e+003;2.767060e-002
3.899524e+003;2.651786e-002
3.901453e+003;2.579029e-002
3.903381e+003;2.535581e-002
3.905310e+003;2.676437e-002
3.907238e+003;2.873414e-002
3.909167e+003;2.928521e-002
3.911095e+003;2.920409e-002
3.913024e+003;2.919916e-002
3.914952e+003;2.846168e-002
3.916881e+003;2.783442e-002
3.918810e+003;2.816057e-002
3.920738e+003;2.845842e-002
3.922667e+003;2.853524e-002
3.924595e+003;2.886256e-002
3.926524e+003;2.963148e-002
3.928452e+003;2.948943e-002
3.930381e+003;2.848068e-002
3.932309e+003;2.798423e-002
3.934238e+003;2.825844e-002
3.936167e+003;2.882864e-002
3.938095e+003;2.879493e-002
3.940023e+003;2.781958e-002
3.941952e+003;2.748831e-002
3.943881e+003;2.765690e-002
3.945809e+003;2.743343e-002
3.947738e+003;2.732494e-002
3.949666e+003;2.754653e-002
3.951595e+003;2.791105e-002
3.953523e+003;2.808390e-002
3.955452e+003;2.851645e-002
3.957380e+003;2.863768e-002
3.959309e+003;2.827598e-002
3.961238e+003;2.767780e-002
3.963166e+003;2.744394e-002
3.965095e+003;2.805081e-002
3.967023e+003;2.850031e-002
3.968952e+003;2.873032e-002
3.970880e+003;2.864629e-002
3.972809e+003;2.785929e-002
3.974737e+003;2.803092e-002
3.976666e+003;2.878654e-002
3.978594e+003;2.841887e-002
3.980523e+003;2.816188e-002
3.982452e+003;2.822984e-002
3.984380e+003;2.782106e-002
3.986309e+003;2.760852e-002
3.988237e+003;2.792677e-002
3.990166e+003;2.785742e-002
3.992094e+003;2.774826e-002
3.994023e+003;2.811843e-002
3.995951e+003;2.810019e-002
3.997880e+003;2.774487e-002
3.999809e+003;2.774537e-002
4.001737e+003;0.000000e+000
