3.992094e+002;0.000000e+000
4.011380e+002;0.000000e+000
4.030665e+002;0.000000e+000
4.049951e+002;0.000000e+000
4.069236e+002;0.000000e+000
4.088522e+002;0.000000e+000
4.107807e+002;0.000000e+000
4.127093e+002;0.000000e+000
4.146378e+002;0.000000e+000
4.165664e+002;0.000000e+000
4.184949e+002;0.000000e+000
4.204235e+002;0.000000e+000
4.223520e+002;0.000000e+000
4.242806e+002;0.000000e+000
4.262091e+002;0.000000e+000
4.281377e+002;0.000000e+000
4.300662e+002;0.000000e+000
4.319948e+002;0.000000e+000
4.339233e+002;0.000000e+000
4.358519e+002;0.000000e+000
4.377804e+002;0.000000e+000
4.397090e+002;0.000000e+000
4.416375e+002;0.000000e+000
4.435660e+002;0.000000e+000
4.454946e+002;0.000000e+000
4.474232e+002;0.000000e+000
4.493517e+002;0.000000e+000
4.512802e+002;0.000000e+000
4.532088e+002;0.000000e+000
4.551373e+002;0.000000e+000
4.570659e+002;0.000000e+000
4.589944e+002;0.000000e+000
4.609230e+002;0.000000e+000
4.628515e+002;0.000000e+000
4.647801e+002;0.000000e+000
4.667086e+002;0.000000e+000
4.686372e+002;0.000000e+000
4.705657e+002;0.000000e+000
4.724943e+002;0.000000e+000
4.744228e+002;0.000000e+000
4.763513e+002;0.000000e+000
4.782799e+002;0.000000e+000
4.802085e+002;0.000000e+000
4.821370e+002;0.000000e+000
4.840656e+002;0.000000e+000
4.859941e+002;0.000000e+000
4.879226e+002;0.000000e+000
4.898512e+002;0.000000e+000
4.917798e+002;0.000000e+000
4.937083e+002;0.000000e+000
4.956368e+002;0.000000e+000
4.975654e+002;0.000000e+000
4.994939e+002;0.000000e+000
5.014225e+002;0.000000e+000
5.033510e+002;0.000000e+000
5.052796e+002;0.000000e+000
5.072081e+002;0.000000e+000
5.091367e+002;0.000000e+000
5.110652e+002;0.000000e+000
5.129938e+002;0.000000e+000
5.149223e+002;0.000000e+000
5.168509e+002;0.000000e+000
5.187794e+002;0.000000e+000
5.207079e+002;0.000000e+000
5.226365e+002;0.000000e+000
5.245651e+002;0.000000e+000
5.264936e+002;0.000000e+000
5.284222e+002;0.000000e+000
5.303507e+002;0.000000e+000
5.322792e+002;0.000000e+000
5.342078e+002;0.000000e+000
5.361364e+002;0.000000e+000
5.380649e+002;0.000000e+000
5.399935e+002;0.000000e+000
5.419220e+002;0.000000e+000
5.438505e+002;0.000000e+000
5.457791e+002;0.000000e+000
5.477076e+002;0.000000e+000
5.496362e+002;0.000000e+000
5.515648e+002;0.000000e+000
5.534933e+002;0.000000e+000
5.554218e+002;0.000000e+000
5.573504e+002;0.000000e+000
5.592789e+002;0.000000e+000
5.612075e+002;0.000000e+000
5.631360e+002;0.000000e+000
5.650646e+002;0.000000e+000
5.669931e+002;0.000000e+000
5.689217e+002;0.000000e+000
5.708502e+002;0.000000e+000
5.727787e+002;0.000000e+000
5.747073e+002;0.000000e+000
5.766359e+002;0.000000e+000
5.785644e+002;0.000000e+000
5.804930e+002;0.000000e+000
5.824215e+002;0.000000e+000
5.843500e+002;0.000000e+000
5.862786e+002;0.000000e+000
5.882072e+002;0.000000e+000
5.901357e+002;0.000000e+000
5.920643e+002;0.000000e+000
5.939928e+002;0.000000e+000
5.959213e+002;0.000000e+000
5.978499e+002;0.000000e+000
5.997784e+002;5.134082e-002
6.017070e+002;5.462175e-002
6.036355e+002;4.798013e-002
6.055641e+002;4.279673e-002
6.074926e+002;4.007817e-002
6.094211e+002;4.340491e-002
6.113497e+002;4.898463e-002
6.132783e+002;4.859584e-002
6.152068e+002;4.444501e-002
6.171354e+002;4.381170e-002
6.190639e+002;4.859651e-002
6.209924e+002;5.303655e-002
6.229210e+002;5.083555e-002
6.248495e+002;5.209870e-002
6.267781e+002;5.376660e-002
6.287067e+002;4.864191e-002
6.306352e+002;4.393398e-002
6.325637e+002;5.045474e-002
6.344923e+002;5.497608e-002
6.364208e+002;4.694708e-002
6.383494e+002;4.177283e-002
6.402780e+002;4.498810e-002
6.422065e+002;4.668919e-002
6.441350e+002;4.677387e-002
6.460636e+002;4.604018e-002
6.479921e+002;4.482687e-002
6.499207e+002;4.647544e-002
6.518492e+002;4.552175e-002
6.537778e+002;4.556962e-002
6.557063e+002;4.738924e-002
6.576349e+002;4.644184e-002
6.595634e+002;4.621358e-002
6.614919e+002;4.658689e-002
6.634205e+002;4.659618e-002
6.653491e+002;4.726956e-002
6.672776e+002;4.772946e-002
6.692062e+002;4.797384e-002
6.711347e+002;4.831585e-002
6.730632e+002;4.847709e-002
6.749918e+002;4.653337e-002
6.769203e+002;4.513046e-002
6.788489e+002;4.673121e-002
6.807775e+002;4.915038e-002
6.827060e+002;5.089713e-002
6.846345e+002;5.194765e-002
6.865631e+002;5.233243e-002
6.884916e+002;5.389855e-002
6.904202e+002;5.428405e-002
6.923488e+002;5.489188e-002
6.942773e+002;5.648109e-002
6.962058e+002;5.835760e-002
6.981344e+002;6.189116e-002
7.000629e+002;6.582627e-002
7.019915e+002;6.946044e-002
7.039200e+002;7.422017e-002
7.058486e+002;8.112495e-002
7.077771e+002;9.036667e-002
7.097057e+002;1.039204e-001
7.116342e+002;1.266191e-001
7.135627e+002;1.591006e-001
7.154913e+002;1.872625e-001
7.174199e+002;1.904828e-001
7.193484e+002;1.670267e-001
7.212770e+002;1.340298e-001
7.232055e+002;1.101685e-001
7.251340e+002;9.853446e-002
7.270626e+002;9.602330e-002
7.289911e+002;1.028999e-001
7.309197e+002;1.083564e-001
7.328483e+002;9.641519e-002
7.347768e+002;7.666349e-002
7.367053e+002;6.441061e-002
7.386339e+002;5.796692e-002
7.405624e+002;5.477395e-002
7.424910e+002;5.338494e-002
7.444196e+002;5.151923e-002
7.463481e+002;5.036710e-002
7.482766e+002;4.941821e-002
7.502052e+002;4.740572e-002
7.521337e+002;4.586339e-002
7.540623e+002;4.603071e-002
7.559908e+002;4.737094e-002
7.579194e+002;4.667347e-002
7.598479e+002;4.492581e-002
7.617765e+002;4.353034e-002
7.637050e+002;4.277977e-002
7.656335e+002;4.313418e-002
7.675621e+002;4.393710e-002
7.694907e+002;4.402935e-002
7.714192e+002;4.300945e-002
7.733478e+002;4.261862e-002
7.752763e+002;4.313349e-002
7.772048e+002;4.345058e-002
7.791334e+002;4.317744e-002
7.810620e+002;4.241764e-002
7.829905e+002;4.270427e-002
7.849191e+002;4.337291e-002
7.868476e+002;4.274438e-002
7.887761e+002;4.251834e-002
7.907047e+002;4.323417e-002
7.926332e+002;4.393523e-002
7.945618e+002;4.353514e-002
7.964903e+002;4.334245e-002
7.984189e+002;4.376431e-002
8.003474e+002;4.384373e-002
8.022759e+002;4.411120e-002
8.042045e+002;4.407046e-002
8.061331e+002;4.404581e-002
8.080616e+002;4.394183e-002
8.099902e+002;4.408516e-002
8.119187e+002;4.447607e-002
8.138472e+002;4.458796e-002
8.157758e+002;4.476475e-002
8.177043e+002;4.520300e-002
8.196329e+002;4.569093e-002
8.215615e+002;4.586118e-002
8.234900e+002;4.661371e-002
8.254185e+002;4.702413e-002
8.273471e+002;4.688444e-002
8.292756e+002;4.734781e-002
8.312042e+002;4.781812e-002
8.331328e+002;4.797343e-002
8.350613e+002;4.758703e-002
8.369898e+002;4.659213e-002
8.389184e+002;4.673778e-002
8.408469e+002;4.714260e-002
8.427755e+002;4.645408e-002
8.447040e+002;4.623872e-002
8.466326e+002;4.583035e-002
8.485611e+002;4.435370e-002
8.504897e+002;4.325873e-002
8.524182e+002;4.374188e-002
8.543467e+002;4.417986e-002
8.562753e+002;4.367325e-002
8.582039e+002;4.341165e-002
8.601324e+002;4.358987e-002
8.620610e+002;4.372330e-002
8.639895e+002;4.404567e-002
8.659180e+002;4.416226e-002
8.678466e+002;4.377409e-002
8.697751e+002;4.358697e-002
8.717037e+002;4.428655e-002
8.736323e+002;4.501728e-002
8.755608e+002;4.524466e-002
8.774893e+002;4.514913e-002
8.794179e+002;4.488223e-002
8.813464e+002;4.507263e-002
8.832750e+002;4.583444e-002
8.852036e+002;4.632559e-002
8.871321e+002;4.626286e-002
8.890606e+002;4.619438e-002
8.909892e+002;4.647237e-002
8.929177e+002;4.648432e-002
8.948463e+002;4.642407e-002
8.967748e+002;4.701247e-002
8.987034e+002;4.746038e-002
9.006319e+002;4.772661e-002
9.025605e+002;4.766700e-002
9.044890e+002;4.787257e-002
9.064175e+002;4.832859e-002
9.083461e+002;4.855515e-002
9.102747e+002;4.881045e-002
9.122032e+002;4.862994e-002
9.141318e+002;4.806148e-002
9.160603e+002;4.761120e-002
9.179888e+002;4.735361e-002
9.199174e+002;4.740797e-002
9.218459e+002;4.747409e-002
9.237745e+002;4.766356e-002
9.257031e+002;4.741141e-002
9.276316e+002;4.733229e-002
9.295601e+002;4.767428e-002
9.314887e+002;4.782588e-002
9.334172e+002;4.745140e-002
9.353458e+002;4.738140e-002
9.372744e+002;4.749760e-002
9.392029e+002;4.756699e-002
9.411314e+002;4.773005e-002
9.430600e+002;4.791442e-002
9.449885e+002;4.799094e-002
9.469171e+002;4.805996e-002
9.488456e+002;4.785445e-002
9.507742e+002;4.786465e-002
9.527027e+002;4.815934e-002
9.546313e+002;4.810770e-002
9.565598e+002;4.775465e-002
9.584883e+002;4.760636e-002
9.604169e+002;4.745277e-002
9.623455e+002;4.743706e-002
9.642740e+002;4.799393e-002
9.662026e+002;4.851384e-002
9.681311e+002;4.865009e-002
9.700596e+002;4.912200e-002
9.719882e+002;4.934467e-002
9.739167e+002;4.923436e-002
9.758453e+002;4.928965e-002
9.777739e+002;4.933257e-002
9.797024e+002;4.895114e-002
9.816309e+002;4.886585e-002
9.835595e+002;4.886930e-002
9.854880e+002;4.856772e-002
9.874166e+002;4.776008e-002
9.893452e+002;4.708181e-002
9.912737e+002;4.735794e-002
9.932022e+002;4.790923e-002
9.951307e+002;4.778486e-002
9.970593e+002;4.750163e-002
9.989879e+002;4.774758e-002
1.000916e+003;4.826342e-002
1.002845e+003;4.856386e-002
1.004773e+003;4.884367e-002
1.006702e+003;4.919328e-002
1.008631e+003;4.911061e-002
1.010559e+003;4.879043e-002
1.012488e+003;4.864213e-002
1.014416e+003;4.873779e-002
1.016345e+003;4.868223e-002
1.018273e+003;4.911269e-002
1.020202e+003;5.043647e-002
1.022130e+003;5.226489e-002
1.024059e+003;5.420033e-002
1.025988e+003;5.604354e-002
1.027916e+003;5.781143e-002
1.029845e+003;5.893633e-002
1.031773e+003;5.931364e-002
1.033702e+003;5.878387e-002
1.035630e+003;5.782449e-002
1.037559e+003;5.709572e-002
1.039487e+003;5.628129e-002
1.041416e+003;5.533223e-002
1.043344e+003;5.529004e-002
1.045273e+003;5.562292e-002
1.047202e+003;5.608987e-002
1.049130e+003;5.670938e-002
1.051059e+003;5.746190e-002
1.052987e+003;5.824293e-002
1.054916e+003;5.962247e-002
1.056844e+003;6.032744e-002
1.058773e+003;6.058367e-002
1.060701e+003;6.104836e-002
1.062630e+003;6.152981e-002
1.064558e+003;6.220910e-002
1.066487e+003;6.327174e-002
1.068416e+003;6.461523e-002
1.070344e+003;6.580942e-002
1.072273e+003;6.619557e-002
1.074201e+003;6.651567e-002
1.076130e+003;6.660705e-002
1.078058e+003;6.579627e-002
1.079987e+003;6.504508e-002
1.081915e+003;6.354163e-002
1.083844e+003;6.162603e-002
1.085773e+003;6.053057e-002
1.087701e+003;6.002648e-002
1.089630e+003;5.959195e-002
1.091558e+003;5.796730e-002
1.093487e+003;5.616950e-002
1.095415e+003;5.540341e-002
1.097344e+003;5.477279e-002
1.099272e+003;5.436887e-002
1.101201e+003;5.431371e-002
1.103129e+003;5.476772e-002
1.105058e+003;5.449184e-002
1.106987e+003;5.320779e-002
1.108915e+003;5.271111e-002
1.110844e+003;5.263944e-002
1.112772e+003;5.235571e-002
1.114701e+003;5.177930e-002
1.116629e+003;5.119500e-002
1.118558e+003;5.112816e-002
1.120486e+003;5.150546e-002
1.122415e+003;5.156042e-002
1.124344e+003;5.136324e-002
1.126272e+003;5.167733e-002
1.128201e+003;5.170136e-002
1.130129e+003;5.119641e-002
1.132058e+003;5.074009e-002
1.133986e+003;5.085652e-002
1.135915e+003;5.112201e-002
1.137843e+003;5.103327e-002
1.139772e+003;5.135958e-002
1.141700e+003;5.232136e-002
1.143629e+003;5.405242e-002
1.145557e+003;5.520395e-002
1.147486e+003;5.571087e-002
1.149415e+003;5.602925e-002
1.151343e+003;5.552663e-002
1.153272e+003;5.482117e-002
1.155200e+003;5.387068e-002
1.157129e+003;5.294544e-002
1.159057e+003;5.216374e-002
1.160986e+003;5.150397e-002
1.162914e+003;5.131468e-002
1.164843e+003;5.117871e-002
1.166771e+003;5.067500e-002
1.168700e+003;5.024980e-002
1.170629e+003;5.009386e-002
1.172557e+003;4.973662e-002
1.174486e+003;5.006980e-002
1.176414e+003;5.035330e-002
1.178343e+003;4.965481e-002
1.180271e+003;4.900188e-002
1.182200e+003;4.896338e-002
1.184128e+003;4.861503e-002
1.186057e+003;4.779766e-002
1.187986e+003;4.711756e-002
1.189914e+003;4.655746e-002
1.191843e+003;4.630525e-002
1.193771e+003;4.644287e-002
1.195700e+003;4.629994e-002
1.197628e+003;4.597476e-002
1.199557e+003;4.586114e-002
1.201485e+003;4.578776e-002
1.203414e+003;4.576721e-002
1.205343e+003;4.575812e-002
1.207271e+003;4.566583e-002
1.209200e+003;4.560072e-002
1.211128e+003;4.553430e-002
1.213057e+003;4.566940e-002
1.214985e+003;4.589465e-002
1.216914e+003;4.612801e-002
1.218842e+003;4.637326e-002
1.220771e+003;4.621789e-002
1.222699e+003;4.637345e-002
1.224628e+003;4.670181e-002
1.226557e+003;4.638458e-002
1.228485e+003;4.643026e-002
1.230414e+003;4.672287e-002
1.232342e+003;4.678520e-002
1.234271e+003;4.676309e-002
1.236199e+003;4.675505e-002
1.238128e+003;4.662356e-002
1.240056e+003;4.629382e-002
1.241985e+003;4.602334e-002
1.243913e+003;4.596054e-002
1.245842e+003;4.633300e-002
1.247771e+003;4.706202e-002
1.249699e+003;4.729598e-002
1.251628e+003;4.766034e-002
1.253556e+003;4.861915e-002
1.255485e+003;4.930216e-002
1.257413e+003;4.922003e-002
1.259342e+003;4.840159e-002
1.261270e+003;4.780931e-002
1.263199e+003;4.792448e-002
1.265127e+003;4.822069e-002
1.267056e+003;4.850125e-002
1.268985e+003;4.858357e-002
1.270913e+003;4.867838e-002
1.272842e+003;4.874725e-002
1.274770e+003;4.880033e-002
1.276699e+003;4.863612e-002
1.278627e+003;4.827590e-002
1.280556e+003;4.797750e-002
1.282484e+003;4.777821e-002
1.284413e+003;4.801406e-002
1.286342e+003;4.822091e-002
1.288270e+003;4.803146e-002
1.290199e+003;4.810741e-002
1.292127e+003;4.870914e-002
1.294056e+003;4.920526e-002
1.295984e+003;4.935369e-002
1.297913e+003;4.934270e-002
1.299841e+003;4.935161e-002
1.301770e+003;4.927989e-002
1.303698e+003;4.916055e-002
1.305627e+003;4.906776e-002
1.307556e+003;4.875451e-002
1.309484e+003;4.815124e-002
1.311413e+003;4.746881e-002
1.313341e+003;4.683343e-002
1.315270e+003;4.585204e-002
1.317198e+003;4.504985e-002
1.319127e+003;4.428193e-002
1.321055e+003;4.338045e-002
1.322984e+003;4.282460e-002
1.324912e+003;4.260583e-002
1.326841e+003;4.243218e-002
1.328770e+003;4.217684e-002
1.330698e+003;4.199224e-002
1.332627e+003;4.198209e-002
1.334555e+003;4.221588e-002
1.336484e+003;4.251173e-002
1.338412e+003;4.253628e-002
1.340341e+003;4.321027e-002
1.342269e+003;4.474444e-002
1.344198e+003;4.610768e-002
1.346126e+003;4.690703e-002
1.348055e+003;4.735557e-002
1.349984e+003;4.787405e-002
1.351912e+003;4.824076e-002
1.353841e+003;4.802935e-002
1.355769e+003;4.749364e-002
1.357698e+003;4.734500e-002
1.359626e+003;4.758288e-002
1.361555e+003;4.801714e-002
1.363483e+003;4.931809e-002
1.365412e+003;5.120834e-002
1.367341e+003;5.208581e-002
1.369269e+003;5.213453e-002
1.371198e+003;5.125569e-002
1.373126e+003;4.925996e-002
1.375055e+003;4.793343e-002
1.376983e+003;4.743939e-002
1.378912e+003;4.650018e-002
1.380840e+003;4.541193e-002
1.382769e+003;4.458374e-002
1.384698e+003;4.403382e-002
1.386626e+003;4.295568e-002
1.388555e+003;4.259330e-002
1.390483e+003;4.300228e-002
1.392412e+003;4.265492e-002
1.394340e+003;4.162026e-002
1.396269e+003;4.173905e-002
1.398197e+003;4.233556e-002
1.400126e+003;4.292700e-002
1.402054e+003;4.341235e-002
1.403983e+003;4.324258e-002
1.405911e+003;4.341542e-002
1.407840e+003;4.387932e-002
1.409769e+003;4.413456e-002
1.411697e+003;4.443517e-002
1.413626e+003;4.491200e-002
1.415554e+003;4.519373e-002
1.417483e+003;4.416593e-002
1.419411e+003;4.385744e-002
1.421340e+003;4.683067e-002
1.423268e+003;4.945586e-002
1.425197e+003;5.139210e-002
1.427125e+003;5.354255e-002
1.429054e+003;5.579107e-002
1.430983e+003;5.847590e-002
1.432911e+003;6.094453e-002
1.434840e+003;6.140644e-002
1.436768e+003;6.186632e-002
1.438697e+003;6.519786e-002
1.440625e+003;6.784272e-002
1.442554e+003;6.901903e-002
1.444482e+003;6.998904e-002
1.446411e+003;7.126132e-002
1.448340e+003;7.304112e-002
1.450268e+003;7.612972e-002
1.452197e+003;8.014176e-002
1.454125e+003;8.411456e-002
1.456054e+003;8.669663e-002
1.457982e+003;9.690384e-002
1.459911e+003;1.195504e-001
1.461839e+003;1.383141e-001
1.463768e+003;1.367286e-001
1.465697e+003;1.348082e-001
1.467625e+003;1.469903e-001
1.469554e+003;1.704040e-001
1.471482e+003;1.904278e-001
1.473411e+003;1.698975e-001
1.475339e+003;1.201706e-001
1.477268e+003;8.513497e-002
1.479196e+003;7.028153e-002
1.481125e+003;6.362824e-002
1.483053e+003;5.972838e-002
1.484982e+003;5.660183e-002
1.486911e+003;5.366225e-002
1.488839e+003;5.099426e-002
1.490768e+003;4.997128e-002
1.492696e+003;5.020721e-002
1.494625e+003;4.822169e-002
1.496553e+003;4.577984e-002
1.498482e+003;4.594879e-002
1.500410e+003;4.632773e-002
1.502339e+003;4.593811e-002
1.504267e+003;4.220397e-002
1.506196e+003;3.766096e-002
1.508125e+003;3.929109e-002
1.510053e+003;4.232036e-002
1.511982e+003;4.278119e-002
1.513910e+003;4.252525e-002
1.515839e+003;4.148128e-002
1.517767e+003;4.063245e-002
1.519696e+003;3.891588e-002
1.521624e+003;3.780224e-002
1.523553e+003;3.968442e-002
1.525481e+003;4.052972e-002
1.527410e+003;4.129529e-002
1.529339e+003;4.191468e-002
1.531267e+003;4.141172e-002
1.533196e+003;4.063285e-002
1.535124e+003;4.170881e-002
1.537053e+003;4.004569e-002
1.538981e+003;3.499416e-002
1.540910e+003;3.483325e-002
1.542838e+003;3.786380e-002
1.544767e+003;3.962913e-002
1.546695e+003;4.110286e-002
1.548624e+003;4.137943e-002
1.550553e+003;4.115633e-002
1.552481e+003;4.029734e-002
1.554410e+003;3.879565e-002
1.556338e+003;3.628428e-002
1.558267e+003;3.151937e-002
1.560195e+003;3.312478e-002
1.562124e+003;3.876971e-002
1.564052e+003;4.036551e-002
1.565981e+003;4.009783e-002
1.567910e+003;3.909291e-002
1.569838e+003;3.862356e-002
1.571767e+003;4.013977e-002
1.573695e+003;3.944306e-002
1.575624e+003;3.666418e-002
1.577552e+003;3.848987e-002
1.579481e+003;4.151263e-002
1.581409e+003;4.210959e-002
1.583338e+003;4.220982e-002
1.585266e+003;4.211865e-002
1.587195e+003;4.202136e-002
1.589124e+003;4.185656e-002
1.591052e+003;4.161125e-002
1.592981e+003;4.129776e-002
1.594909e+003;4.151671e-002
1.596838e+003;4.204399e-002
1.598766e+003;4.214581e-002
1.600695e+003;4.216271e-002
1.602623e+003;4.253731e-002
1.604552e+003;4.258076e-002
1.606480e+003;4.224896e-002
1.608409e+003;4.215661e-002
1.610338e+003;4.243755e-002
1.612266e+003;4.275139e-002
1.614195e+003;4.162420e-002
1.616123e+003;3.891077e-002
1.618052e+003;3.997124e-002
1.619980e+003;4.225762e-002
1.621909e+003;4.184707e-002
1.623837e+003;4.149342e-002
1.625766e+003;4.222808e-002
1.627694e+003;4.250142e-002
1.629623e+003;4.358229e-002
1.631552e+003;4.419050e-002
1.633480e+003;4.197340e-002
1.635409e+003;3.945442e-002
1.637337e+003;4.142375e-002
1.639266e+003;4.391726e-002
1.641194e+003;4.458675e-002
1.643123e+003;4.426402e-002
1.645051e+003;4.183010e-002
1.646980e+003;4.084913e-002
1.648909e+003;4.267970e-002
1.650837e+003;3.969197e-002
1.652766e+003;3.447295e-002
1.654694e+003;3.855403e-002
1.656623e+003;4.382005e-002
1.658551e+003;4.511410e-002
1.660480e+003;4.436963e-002
1.662408e+003;4.304124e-002
1.664337e+003;4.344834e-002
1.666266e+003;4.358859e-002
1.668194e+003;4.188524e-002
1.670123e+003;4.153210e-002
1.672051e+003;4.266146e-002
1.673980e+003;4.159401e-002
1.675908e+003;4.139598e-002
1.677837e+003;4.317923e-002
1.679765e+003;4.304637e-002
1.681694e+003;4.105777e-002
1.683622e+003;3.724184e-002
1.685551e+003;3.832698e-002
1.687479e+003;4.194804e-002
1.689408e+003;4.278503e-002
1.691337e+003;4.310015e-002
1.693265e+003;4.197059e-002
1.695194e+003;3.845649e-002
1.697122e+003;3.820087e-002
1.699051e+003;3.681390e-002
1.700979e+003;3.652756e-002
1.702908e+003;3.968645e-002
1.704836e+003;3.964837e-002
1.706765e+003;3.975798e-002
1.708693e+003;4.014347e-002
1.710622e+003;4.003762e-002
1.712551e+003;3.894125e-002
1.714479e+003;3.670968e-002
1.716408e+003;3.377589e-002
1.718336e+003;3.391637e-002
1.720265e+003;3.655146e-002
1.722193e+003;3.727246e-002
1.724122e+003;3.691298e-002
1.726050e+003;3.669804e-002
1.727979e+003;3.632297e-002
1.729908e+003;3.576067e-002
1.731836e+003;3.322599e-002
1.733765e+003;3.053931e-002
1.735693e+003;3.346710e-002
1.737622e+003;3.607563e-002
1.739550e+003;3.537016e-002
1.741479e+003;3.533928e-002
1.743407e+003;3.562440e-002
1.745336e+003;3.548006e-002
1.747265e+003;3.429471e-002
1.749193e+003;3.260528e-002
1.751122e+003;3.160274e-002
1.753050e+003;3.243780e-002
1.754979e+003;3.191883e-002
1.756907e+003;3.087654e-002
1.758836e+003;3.070350e-002
1.760764e+003;2.948858e-002
1.762693e+003;2.894050e-002
1.764621e+003;2.948556e-002
1.766550e+003;2.882541e-002
1.768479e+003;2.808987e-002
1.770407e+003;2.690250e-002
1.772336e+003;2.566208e-002
1.774264e+003;2.714418e-002
1.776193e+003;2.842131e-002
1.778121e+003;2.849851e-002
1.780050e+003;2.836383e-002
1.781978e+003;2.843391e-002
1.783907e+003;2.806499e-002
1.785835e+003;2.786664e-002
1.787764e+003;2.796476e-002
1.789693e+003;2.696250e-002
1.791621e+003;2.542488e-002
1.793550e+003;2.590986e-002
1.795478e+003;2.746720e-002
1.797407e+003;2.763327e-002
1.799335e+003;2.709205e-002
1.801264e+003;2.693934e-002
1.803192e+003;2.742658e-002
1.805121e+003;2.792677e-002
1.807049e+003;2.801289e-002
1.808978e+003;2.758974e-002
1.810907e+003;2.763324e-002
1.812835e+003;2.800278e-002
1.814764e+003;2.827524e-002
1.816692e+003;2.828104e-002
1.818621e+003;2.847672e-002
1.820549e+003;2.858782e-002
1.822478e+003;2.798476e-002
1.824406e+003;2.682707e-002
1.826335e+003;2.669914e-002
1.828264e+003;2.647183e-002
1.830192e+003;2.610468e-002
1.832121e+003;2.661311e-002
1.834049e+003;2.686524e-002
1.835978e+003;2.658024e-002
1.837906e+003;2.658718e-002
1.839835e+003;2.674717e-002
1.841763e+003;2.603899e-002
1.843692e+003;2.475217e-002
1.845620e+003;2.529133e-002
1.847549e+003;2.638669e-002
1.849478e+003;2.671961e-002
1.851406e+003;2.694748e-002
1.853335e+003;2.705742e-002
1.855263e+003;2.694529e-002
1.857192e+003;2.681015e-002
1.859120e+003;2.675436e-002
1.861049e+003;2.669315e-002
1.862977e+003;2.681223e-002
1.864906e+003;2.695146e-002
1.866834e+003;2.638669e-002
1.868763e+003;2.582901e-002
1.870692e+003;2.656591e-002
1.872620e+003;2.748079e-002
1.874549e+003;2.784939e-002
1.876477e+003;2.796978e-002
1.878406e+003;2.800967e-002
1.880334e+003;2.825869e-002
1.882263e+003;2.851224e-002
1.884191e+003;2.901521e-002
1.886120e+003;2.983642e-002
1.888048e+003;3.040770e-002
1.889977e+003;3.088508e-002
1.891906e+003;3.174873e-002
1.893834e+003;3.233566e-002
1.895763e+003;3.247783e-002
1.897691e+003;3.212768e-002
1.899620e+003;3.201071e-002
1.901548e+003;3.206789e-002
1.903477e+003;3.202444e-002
1.905405e+003;3.166889e-002
1.907334e+003;3.118790e-002
1.909262e+003;3.093905e-002
1.911191e+003;3.096065e-002
1.913120e+003;3.060931e-002
1.915048e+003;2.982687e-002
1.916977e+003;2.917751e-002
1.918905e+003;2.924896e-002
1.920834e+003;2.929220e-002
1.922762e+003;2.915253e-002
1.924691e+003;2.937593e-002
1.926619e+003;2.942365e-002
1.928548e+003;2.947517e-002
1.930477e+003;2.934296e-002
1.932405e+003;2.927079e-002
1.934334e+003;2.944124e-002
1.936262e+003;2.941911e-002
1.938191e+003;2.928280e-002
1.940119e+003;2.895120e-002
1.942048e+003;2.848874e-002
1.943976e+003;2.841470e-002
1.945905e+003;2.854532e-002
1.947833e+003;2.865234e-002
1.949762e+003;2.882449e-002
1.951691e+003;2.894082e-002
1.953619e+003;2.904415e-002
1.955548e+003;2.911954e-002
1.957476e+003;2.915997e-002
1.959405e+003;2.908266e-002
1.961333e+003;2.903108e-002
1.963262e+003;2.906724e-002
1.965190e+003;2.887825e-002
1.967119e+003;2.861790e-002
1.969047e+003;2.865531e-002
1.970976e+003;2.863351e-002
1.972905e+003;2.842050e-002
1.974833e+003;2.869410e-002
1.976762e+003;2.889783e-002
1.978690e+003;2.865751e-002
1.980619e+003;2.864331e-002
1.982547e+003;2.864002e-002
1.984476e+003;2.858166e-002
1.986404e+003;2.852526e-002
1.988333e+003;2.867758e-002
1.990261e+003;2.873665e-002
1.992190e+003;2.875043e-002
1.994119e+003;2.906703e-002
1.996047e+003;2.906671e-002
1.997976e+003;2.908581e-002
1.999904e+003;2.951688e-002
2.001833e+003;2.984480e-002
2.003761e+003;2.996662e-002
2.005690e+003;3.025605e-002
2.007618e+003;3.095054e-002
2.009547e+003;3.188949e-002
2.011476e+003;3.281814e-002
2.013404e+003;3.369864e-002
2.015333e+003;3.454868e-002
2.017261e+003;3.497602e-002
2.019190e+003;3.513683e-002
2.021118e+003;3.536556e-002
2.023047e+003;3.527628e-002
2.024975e+003;3.457915e-002
2.026904e+003;3.368307e-002
2.028833e+003;3.306442e-002
2.030761e+003;3.269055e-002
2.032690e+003;3.246494e-002
2.034618e+003;3.223487e-002
2.036547e+003;3.189555e-002
2.038475e+003;3.159637e-002
2.040404e+003;3.138079e-002
2.042332e+003;3.133710e-002
2.044261e+003;3.138478e-002
2.046189e+003;3.144890e-002
2.048118e+003;3.120684e-002
2.050047e+003;3.075051e-002
2.051975e+003;3.067573e-002
2.053904e+003;3.075521e-002
2.055832e+003;3.060821e-002
2.057761e+003;3.054784e-002
2.059689e+003;3.042649e-002
2.061618e+003;3.022610e-002
2.063546e+003;3.021705e-002
2.065475e+003;3.015812e-002
2.067404e+003;3.013404e-002
2.069332e+003;3.018135e-002
2.071260e+003;3.017510e-002
2.073189e+003;3.013667e-002
2.075118e+003;3.016806e-002
2.077046e+003;3.018195e-002
2.078975e+003;3.030998e-002
2.080903e+003;3.031716e-002
2.082832e+003;2.980026e-002
2.084760e+003;2.946432e-002
2.086689e+003;2.950219e-002
2.088617e+003;2.937962e-002
2.090546e+003;2.944103e-002
2.092475e+003;2.985811e-002
2.094403e+003;2.985910e-002
2.096332e+003;2.940479e-002
2.098260e+003;2.944766e-002
2.100189e+003;2.970261e-002
2.102117e+003;2.958065e-002
2.104046e+003;2.938596e-002
2.105974e+003;2.967408e-002
2.107903e+003;3.000223e-002
2.109832e+003;2.984796e-002
2.111760e+003;2.959923e-002
2.113688e+003;2.951028e-002
2.115617e+003;2.936458e-002
2.117546e+003;2.920033e-002
2.119474e+003;2.949812e-002
2.121403e+003;2.961729e-002
2.123331e+003;2.961885e-002
2.125260e+003;2.968054e-002
2.127188e+003;2.957664e-002
2.129117e+003;2.947737e-002
2.131045e+003;2.958228e-002
2.132974e+003;3.001416e-002
2.134903e+003;3.047604e-002
2.136831e+003;3.074575e-002
2.138760e+003;3.082443e-002
2.140688e+003;3.094795e-002
2.142617e+003;3.128126e-002
2.144545e+003;3.153426e-002
2.146474e+003;3.135448e-002
2.148402e+003;3.133147e-002
2.150331e+003;3.134853e-002
2.152260e+003;3.134924e-002
2.154188e+003;3.146044e-002
2.156117e+003;3.137495e-002
2.158045e+003;3.121962e-002
2.159974e+003;3.137659e-002
2.161902e+003;3.117929e-002
2.163831e+003;3.058264e-002
2.165759e+003;3.040723e-002
2.167688e+003;3.082499e-002
2.169616e+003;3.098826e-002
2.171545e+003;3.096396e-002
2.173474e+003;3.124469e-002
2.175402e+003;3.127951e-002
2.177331e+003;3.113458e-002
2.179259e+003;3.116800e-002
2.181188e+003;3.120545e-002
2.183116e+003;3.122621e-002
2.185045e+003;3.121069e-002
2.186973e+003;3.103773e-002
2.188902e+003;3.102378e-002
2.190831e+003;3.111407e-002
2.192759e+003;3.098787e-002
2.194688e+003;3.092190e-002
2.196616e+003;3.097374e-002
2.198545e+003;3.082218e-002
2.200473e+003;3.091528e-002
2.202402e+003;3.112945e-002
2.204330e+003;3.141510e-002
2.206259e+003;3.155514e-002
2.208188e+003;3.154281e-002
2.210116e+003;3.124081e-002
2.212044e+003;3.115892e-002
2.213973e+003;3.139554e-002
2.215902e+003;3.140701e-002
2.217830e+003;3.155019e-002
2.219759e+003;3.161564e-002
2.221687e+003;3.155179e-002
2.223616e+003;3.170685e-002
2.225544e+003;3.176491e-002
2.227473e+003;3.157951e-002
2.229401e+003;3.145681e-002
2.231330e+003;3.150173e-002
2.233259e+003;3.137043e-002
2.235187e+003;3.108745e-002
2.237116e+003;3.111489e-002
2.239044e+003;3.113126e-002
2.240973e+003;3.128870e-002
2.242901e+003;3.166931e-002
2.244830e+003;3.194423e-002
2.246758e+003;3.225867e-002
2.248687e+003;3.208701e-002
2.250615e+003;3.184142e-002
2.252544e+003;3.199434e-002
2.254473e+003;3.239742e-002
2.256401e+003;3.254960e-002
2.258330e+003;3.283890e-002
2.260258e+003;3.293082e-002
2.262187e+003;3.289594e-002
2.264115e+003;3.317216e-002
2.266044e+003;3.339932e-002
2.267972e+003;3.336336e-002
2.269901e+003;3.368880e-002
2.271830e+003;3.411822e-002
2.273758e+003;3.459102e-002
2.275687e+003;3.483228e-002
2.277615e+003;3.496348e-002
2.279544e+003;3.509613e-002
2.281472e+003;3.531491e-002
2.283401e+003;3.543735e-002
2.285329e+003;3.549980e-002
2.287258e+003;3.541222e-002
2.289187e+003;3.533066e-002
2.291115e+003;3.511050e-002
2.293043e+003;3.515806e-002
2.294972e+003;3.560211e-002
2.296901e+003;3.603537e-002
2.298829e+003;3.635003e-002
2.300758e+003;3.631385e-002
2.302686e+003;3.629671e-002
2.304615e+003;3.672757e-002
2.306543e+003;3.673669e-002
2.308472e+003;3.655391e-002
2.310400e+003;3.668372e-002
2.312329e+003;3.702151e-002
2.314258e+003;3.734135e-002
2.316186e+003;3.770714e-002
2.318115e+003;3.803407e-002
2.320043e+003;3.838058e-002
2.321972e+003;3.878870e-002
2.323900e+003;3.909052e-002
2.325829e+003;3.918835e-002
2.327757e+003;3.951694e-002
2.329686e+003;3.975772e-002
2.331615e+003;3.950823e-002
2.333543e+003;3.914541e-002
2.335472e+003;3.922012e-002
2.337400e+003;3.951683e-002
2.339329e+003;3.963127e-002
2.341257e+003;3.970809e-002
2.343186e+003;4.023725e-002
2.345114e+003;4.049905e-002
2.347043e+003;3.999482e-002
2.348971e+003;3.939299e-002
2.350900e+003;3.870465e-002
2.352829e+003;3.792074e-002
2.354757e+003;3.708812e-002
2.356686e+003;3.615469e-002
2.358614e+003;3.546543e-002
2.360543e+003;3.491002e-002
2.362471e+003;3.461119e-002
2.364400e+003;3.438752e-002
2.366328e+003;3.416844e-002
2.368257e+003;3.434842e-002
2.370186e+003;3.450495e-002
2.372114e+003;3.450291e-002
2.374042e+003;3.440889e-002
2.375971e+003;3.410478e-002
2.377900e+003;3.415518e-002
2.379828e+003;3.468730e-002
2.381757e+003;3.511279e-002
2.383685e+003;3.519428e-002
2.385614e+003;3.478680e-002
2.387542e+003;3.454675e-002
2.389471e+003;3.492118e-002
2.391399e+003;3.530183e-002
2.393328e+003;3.531236e-002
2.395257e+003;3.509699e-002
2.397185e+003;3.497300e-002
2.399114e+003;3.522367e-002
2.401042e+003;3.552105e-002
2.402971e+003;3.531042e-002
2.404899e+003;3.520316e-002
2.406828e+003;3.525472e-002
2.408756e+003;3.538486e-002
2.410685e+003;3.593098e-002
2.412614e+003;3.644248e-002
2.414542e+003;3.640497e-002
2.416471e+003;3.646504e-002
2.418399e+003;3.653423e-002
2.420328e+003;3.646147e-002
2.422256e+003;3.624315e-002
2.424185e+003;3.585491e-002
2.426113e+003;3.561527e-002
2.428042e+003;3.538846e-002
2.429970e+003;3.500066e-002
2.431899e+003;3.516104e-002
2.433828e+003;3.539777e-002
2.435756e+003;3.505593e-002
2.437685e+003;3.465500e-002
2.439613e+003;3.449799e-002
2.441542e+003;3.444333e-002
2.443470e+003;3.434599e-002
2.445399e+003;3.470683e-002
2.447327e+003;3.489705e-002
2.449256e+003;3.461517e-002
2.451185e+003;3.479559e-002
2.453113e+003;3.486887e-002
2.455042e+003;3.469348e-002
2.456970e+003;3.463107e-002
2.458899e+003;3.471099e-002
2.460827e+003;3.496797e-002
2.462756e+003;3.516755e-002
2.464684e+003;3.522536e-002
2.466613e+003;3.528616e-002
2.468542e+003;3.559474e-002
2.470470e+003;3.618386e-002
2.472398e+003;3.690220e-002
2.474327e+003;3.716109e-002
2.476256e+003;3.702667e-002
2.478184e+003;3.689996e-002
2.480113e+003;3.683889e-002
2.482041e+003;3.689881e-002
2.483970e+003;3.712731e-002
2.485898e+003;3.720805e-002
2.487827e+003;3.688041e-002
2.489755e+003;3.699546e-002
2.491684e+003;3.730705e-002
2.493613e+003;3.707062e-002
2.495541e+003;3.683612e-002
2.497470e+003;3.714446e-002
2.499398e+003;3.759650e-002
2.501327e+003;3.773392e-002
2.503255e+003;3.768785e-002
2.505184e+003;3.759809e-002
2.507112e+003;3.752796e-002
2.509041e+003;3.780090e-002
2.510969e+003;3.794320e-002
2.512898e+003;3.804872e-002
2.514827e+003;3.830863e-002
2.516755e+003;3.841323e-002
2.518684e+003;3.851467e-002
2.520612e+003;3.899163e-002
2.522541e+003;3.946621e-002
2.524469e+003;3.985741e-002
2.526398e+003;4.040184e-002
2.528326e+003;4.049578e-002
2.530255e+003;4.030105e-002
2.532184e+003;3.984981e-002
2.534112e+003;3.979055e-002
2.536041e+003;3.971070e-002
2.537969e+003;3.938095e-002
2.539898e+003;3.958481e-002
2.541826e+003;3.986213e-002
2.543755e+003;3.974029e-002
2.545683e+003;4.029891e-002
2.547612e+003;4.108836e-002
2.549541e+003;4.106174e-002
2.551469e+003;4.107761e-002
2.553397e+003;4.143501e-002
2.555326e+003;4.152579e-002
2.557255e+003;4.133278e-002
2.559183e+003;4.127699e-002
2.561112e+003;4.147092e-002
2.563040e+003;4.156826e-002
2.564969e+003;4.173642e-002
2.566897e+003;4.194516e-002
2.568826e+003;4.206323e-002
2.570754e+003;4.231784e-002
2.572683e+003;4.273864e-002
2.574612e+003;4.300649e-002
2.576540e+003;4.313005e-002
2.578469e+003;4.343878e-002
2.580397e+003;4.402271e-002
2.582326e+003;4.424946e-002
2.584254e+003;4.429712e-002
2.586183e+003;4.452371e-002
2.588111e+003;4.508429e-002
2.590040e+003;4.570290e-002
2.591969e+003;4.616147e-002
2.593897e+003;4.630189e-002
2.595826e+003;4.652128e-002
2.597754e+003;4.679258e-002
2.599683e+003;4.703946e-002
2.601611e+003;4.739463e-002
2.603540e+003;4.779810e-002
2.605468e+003;4.831130e-002
2.607397e+003;4.898552e-002
2.609325e+003;4.948549e-002
2.611254e+003;4.976326e-002
2.613183e+003;5.015983e-002
2.615111e+003;5.048057e-002
2.617040e+003;5.096285e-002
2.618968e+003;5.164702e-002
2.620897e+003;5.248062e-002
2.622825e+003;5.304467e-002
2.624754e+003;5.337875e-002
2.626682e+003;5.387334e-002
2.628611e+003;5.421576e-002
2.630540e+003;5.458921e-002
2.632468e+003;5.507149e-002
2.634396e+003;5.507961e-002
2.636325e+003;5.484951e-002
2.638254e+003;5.478982e-002
2.640182e+003;5.490102e-002
2.642111e+003;5.491316e-002
2.644039e+003;5.458140e-002
2.645968e+003;5.428420e-002
2.647896e+003;5.420266e-002
2.649825e+003;5.434551e-002
2.651753e+003;5.440984e-002
2.653682e+003;5.455716e-002
2.655611e+003;5.455739e-002
2.657539e+003;5.416242e-002
2.659468e+003;5.425213e-002
2.661396e+003;5.472235e-002
2.663325e+003;5.476967e-002
2.665253e+003;5.456261e-002
2.667182e+003;5.410143e-002
2.669110e+003;5.346775e-002
2.671039e+003;5.329566e-002
2.672968e+003;5.325730e-002
2.674896e+003;5.308668e-002
2.676825e+003;5.268358e-002
2.678753e+003;5.242595e-002
2.680682e+003;5.230361e-002
2.682610e+003;5.195852e-002
2.684539e+003;5.197883e-002
2.686467e+003;5.229091e-002
2.688396e+003;5.199766e-002
2.690324e+003;5.153493e-002
2.692253e+003;5.164045e-002
2.694182e+003;5.199766e-002
2.696110e+003;5.216654e-002
2.698039e+003;5.219804e-002
2.699967e+003;5.268758e-002
2.701896e+003;5.305149e-002
2.703824e+003;5.334092e-002
2.705753e+003;5.368594e-002
2.707681e+003;5.399444e-002
2.709610e+003;5.432719e-002
2.711539e+003;5.464460e-002
2.713467e+003;5.480970e-002
2.715396e+003;5.491553e-002
2.717324e+003;5.504039e-002
2.719253e+003;5.514161e-002
2.721181e+003;5.536193e-002
2.723110e+003;5.583372e-002
2.725038e+003;5.639555e-002
2.726967e+003;5.675854e-002
2.728896e+003;5.699094e-002
2.730824e+003;5.758904e-002
2.732752e+003;5.811265e-002
2.734681e+003;5.841327e-002
2.736610e+003;5.851339e-002
2.738538e+003;5.864967e-002
2.740467e+003;5.894308e-002
2.742395e+003;5.924736e-002
2.744324e+003;5.944660e-002
2.746252e+003;5.942551e-002
2.748181e+003;5.954441e-002
2.750109e+003;5.959769e-002
2.752038e+003;5.945697e-002
2.753967e+003;5.983093e-002
2.755895e+003;6.038969e-002
2.757824e+003;6.090816e-002
2.759752e+003;6.140037e-002
2.761681e+003;6.189104e-002
2.763609e+003;6.245449e-002
2.765538e+003;6.321252e-002
2.767466e+003;6.376062e-002
2.769395e+003;6.407408e-002
2.771323e+003;6.461111e-002
2.773252e+003;6.531916e-002
2.775181e+003;6.632467e-002
2.777109e+003;6.725228e-002
2.779038e+003;6.777041e-002
2.780966e+003;6.837951e-002
2.782895e+003;6.918740e-002
2.784823e+003;6.986472e-002
2.786752e+003;7.066614e-002
2.788680e+003;7.160007e-002
2.790609e+003;7.244428e-002
2.792538e+003;7.343175e-002
2.794466e+003;7.475577e-002
2.796395e+003;7.598318e-002
2.798323e+003;7.669002e-002
2.800252e+003;7.723224e-002
2.802180e+003;7.803616e-002
2.804109e+003;7.902607e-002
2.806037e+003;8.043427e-002
2.807966e+003;8.188362e-002
2.809895e+003;8.293236e-002
2.811823e+003;8.408581e-002
2.813751e+003;8.536242e-002
2.815680e+003;8.676270e-002
2.817609e+003;8.824074e-002
2.819537e+003;8.987280e-002
2.821466e+003;9.213831e-002
2.823394e+003;9.477992e-002
2.825323e+003;9.761439e-002
2.827251e+003;1.008655e-001
2.829180e+003;1.048048e-001
2.831108e+003;1.099190e-001
2.833037e+003;1.161385e-001
2.834966e+003;1.241387e-001
2.836894e+003;1.353212e-001
2.838823e+003;1.503374e-001
2.840751e+003;1.707769e-001
2.842680e+003;1.997783e-001
2.844608e+003;2.387826e-001
2.846537e+003;2.807682e-001
2.848465e+003;3.006854e-001
2.850394e+003;2.781431e-001
2.852323e+003;2.312554e-001
2.854251e+003;1.864438e-001
2.856180e+003;1.536824e-001
2.858108e+003;1.320169e-001
2.860037e+003;1.182503e-001
2.861965e+003;1.097841e-001
2.863894e+003;1.047682e-001
2.865822e+003;1.026436e-001
2.867751e+003;1.025284e-001
2.869679e+003;1.035436e-001
2.871608e+003;1.055442e-001
2.873536e+003;1.091034e-001
2.875465e+003;1.135879e-001
2.877394e+003;1.187612e-001
2.879322e+003;1.246824e-001
2.881251e+003;1.302716e-001
2.883179e+003;1.361919e-001
2.885108e+003;1.422602e-001
2.887036e+003;1.479834e-001
2.888965e+003;1.543548e-001
2.890893e+003;1.614235e-001
2.892822e+003;1.678662e-001
2.894750e+003;1.738130e-001
2.896679e+003;1.800644e-001
2.898608e+003;1.869809e-001
2.900536e+003;1.952831e-001
2.902465e+003;2.050716e-001
2.904393e+003;2.170717e-001
2.906322e+003;2.328458e-001
2.908250e+003;2.538247e-001
2.910179e+003;2.801679e-001
2.912107e+003;3.090079e-001
2.914036e+003;3.325595e-001
2.915965e+003;3.373725e-001
2.917893e+003;3.181880e-001
2.919822e+003;2.846395e-001
2.921750e+003;2.489052e-001
2.923679e+003;2.160594e-001
2.925607e+003;1.882273e-001
2.927536e+003;1.656276e-001
2.929464e+003;1.471748e-001
2.931393e+003;1.320581e-001
2.933322e+003;1.195580e-001
2.935250e+003;1.089144e-001
2.937178e+003;9.997406e-002
2.939107e+003;9.233990e-002
2.941036e+003;8.612138e-002
2.942964e+003;8.143479e-002
2.944893e+003;7.781299e-002
2.946821e+003;7.473987e-002
2.948750e+003;7.197776e-002
2.950678e+003;6.963836e-002
2.952607e+003;6.777563e-002
2.954535e+003;6.667341e-002
2.956464e+003;6.585959e-002
2.958393e+003;6.505832e-002
2.960321e+003;6.421427e-002
2.962250e+003;6.331099e-002
2.964178e+003;6.234118e-002
2.966107e+003;6.149919e-002
2.968035e+003;6.110175e-002
2.969964e+003;6.057974e-002
2.971892e+003;5.978785e-002
2.973821e+003;5.935474e-002
2.975750e+003;5.880997e-002
2.977678e+003;5.771579e-002
2.979607e+003;5.700012e-002
2.981535e+003;5.684219e-002
2.983464e+003;5.640098e-002
2.985392e+003;5.607931e-002
2.987321e+003;5.576500e-002
2.989249e+003;5.489970e-002
2.991178e+003;5.377305e-002
2.993106e+003;5.325479e-002
2.995035e+003;5.340457e-002
2.996964e+003;5.346389e-002
2.998892e+003;5.328536e-002
3.000821e+003;5.267217e-002
3.002749e+003;5.208514e-002
3.004678e+003;5.199220e-002
3.006606e+003;5.171476e-002
3.008535e+003;5.145230e-002
3.010463e+003;5.156859e-002
3.012392e+003;5.126945e-002
3.014321e+003;5.096165e-002
3.016249e+003;5.076296e-002
3.018177e+003;5.025992e-002
3.020106e+003;5.001436e-002
3.022035e+003;5.014480e-002
3.023963e+003;5.007084e-002
3.025892e+003;4.960745e-002
3.027820e+003;4.933142e-002
3.029749e+003;4.915008e-002
3.031677e+003;4.886195e-002
3.033606e+003;4.848802e-002
3.035534e+003;4.863664e-002
3.037463e+003;4.877071e-002
3.039392e+003;4.831652e-002
3.041320e+003;4.769366e-002
3.043249e+003;4.771944e-002
3.045177e+003;4.746064e-002
3.047106e+003;4.699238e-002
3.049034e+003;4.700516e-002
3.050963e+003;4.708695e-002
3.052891e+003;4.699401e-002
3.054820e+003;4.664801e-002
3.056749e+003;4.605893e-002
3.058677e+003;4.577814e-002
3.060606e+003;4.578363e-002
3.062534e+003;4.560653e-002
3.064463e+003;4.533950e-002
3.066391e+003;4.511781e-002
3.068320e+003;4.511969e-002
3.070248e+003;4.471961e-002
3.072177e+003;4.395873e-002
3.074105e+003;4.369388e-002
3.076034e+003;4.411139e-002
3.077963e+003;4.417044e-002
3.079891e+003;4.366299e-002
3.081820e+003;4.358163e-002
3.083748e+003;4.363823e-002
3.085677e+003;4.358101e-002
3.087605e+003;4.345300e-002
3.089534e+003;4.322838e-002
3.091462e+003;4.275688e-002
3.093391e+003;4.211956e-002
3.095320e+003;4.142375e-002
3.097248e+003;4.102357e-002
3.099177e+003;4.066873e-002
3.101105e+003;4.074948e-002
3.103034e+003;4.071967e-002
3.104962e+003;3.990034e-002
3.106891e+003;3.921279e-002
3.108819e+003;3.891585e-002
3.110748e+003;3.876359e-002
3.112677e+003;3.818839e-002
3.114605e+003;3.719910e-002
3.116533e+003;3.655290e-002
3.118462e+003;3.612765e-002
3.120391e+003;3.587455e-002
3.122319e+003;3.585804e-002
3.124248e+003;3.561383e-002
3.126176e+003;3.539209e-002
3.128105e+003;3.520865e-002
3.130033e+003;3.510238e-002
3.131962e+003;3.512023e-002
3.133890e+003;3.512411e-002
3.135819e+003;3.450398e-002
3.137748e+003;3.404845e-002
3.139676e+003;3.405651e-002
3.141605e+003;3.399760e-002
3.143533e+003;3.351342e-002
3.145462e+003;3.360763e-002
3.147390e+003;3.414590e-002
3.149319e+003;3.422099e-002
3.151247e+003;3.388875e-002
3.153176e+003;3.342523e-002
3.155104e+003;3.338333e-002
3.157033e+003;3.356224e-002
3.158962e+003;3.376418e-002
3.160890e+003;3.345959e-002
3.162819e+003;3.350544e-002
3.164747e+003;3.341071e-002
3.166676e+003;3.303167e-002
3.168604e+003;3.308412e-002
3.170533e+003;3.304011e-002
3.172461e+003;3.318762e-002
3.174390e+003;3.360559e-002
3.176319e+003;3.359077e-002
3.178247e+003;3.305259e-002
3.180176e+003;3.250582e-002
3.182104e+003;3.242173e-002
3.184033e+003;3.260453e-002
3.185961e+003;3.255503e-002
3.187890e+003;3.238871e-002
3.189818e+003;3.284487e-002
3.191747e+003;3.330126e-002
3.193676e+003;3.326677e-002
3.195604e+003;3.315124e-002
3.197532e+003;3.325454e-002
3.199461e+003;3.359664e-002
3.201390e+003;3.352984e-002
3.203318e+003;3.302835e-002
3.205247e+003;3.259660e-002
3.207175e+003;3.281371e-002
3.209104e+003;3.309228e-002
3.211032e+003;3.290202e-002
3.212961e+003;3.277426e-002
3.214889e+003;3.281885e-002
3.216818e+003;3.290141e-002
3.218747e+003;3.302402e-002
3.220675e+003;3.305641e-002
3.222604e+003;3.256196e-002
3.224532e+003;3.248818e-002
3.226461e+003;3.266915e-002
3.228389e+003;3.260328e-002
3.230318e+003;3.293472e-002
3.232246e+003;3.325207e-002
3.234175e+003;3.315550e-002
3.236104e+003;3.344588e-002
3.238032e+003;3.345461e-002
3.239961e+003;3.264657e-002
3.241889e+003;3.266072e-002
3.243818e+003;3.335353e-002
3.245746e+003;3.333972e-002
3.247675e+003;3.315282e-002
3.249603e+003;3.302366e-002
3.251532e+003;3.318536e-002
3.253460e+003;3.312982e-002
3.255389e+003;3.301287e-002
3.257318e+003;3.284433e-002
3.259246e+003;3.276479e-002
3.261175e+003;3.277708e-002
3.263103e+003;3.267011e-002
3.265032e+003;3.280542e-002
3.266960e+003;3.290062e-002
3.268889e+003;3.325951e-002
3.270817e+003;3.372500e-002
3.272746e+003;3.401738e-002
3.274675e+003;3.404214e-002
3.276603e+003;3.390444e-002
3.278531e+003;3.326373e-002
3.280460e+003;3.302942e-002
3.282389e+003;3.391046e-002
3.284317e+003;3.426011e-002
3.286246e+003;3.387793e-002
3.288174e+003;3.353887e-002
3.290103e+003;3.284476e-002
3.292031e+003;3.261643e-002
3.293960e+003;3.273156e-002
3.295888e+003;3.262711e-002
3.297817e+003;3.287796e-002
3.299746e+003;3.307776e-002
3.301674e+003;3.316912e-002
3.303603e+003;3.318561e-002
3.305531e+003;3.300647e-002
3.307460e+003;3.294620e-002
3.309388e+003;3.335224e-002
3.311317e+003;3.352856e-002
3.313245e+003;3.357523e-002
3.315174e+003;3.355544e-002
3.317103e+003;3.345361e-002
3.319031e+003;3.354237e-002
3.320960e+003;3.328748e-002
3.322888e+003;3.291238e-002
3.324817e+003;3.286077e-002
3.326745e+003;3.264529e-002
3.328674e+003;3.269441e-002
3.330602e+003;3.289283e-002
3.332531e+003;3.310647e-002
3.334459e+003;3.338598e-002
3.336388e+003;3.348042e-002
3.338317e+003;3.336780e-002
3.340245e+003;3.324062e-002
3.342174e+003;3.295531e-002
3.344102e+003;3.288154e-002
3.346031e+003;3.327622e-002
3.347959e+003;3.341675e-002
3.349888e+003;3.334304e-002
3.351816e+003;3.370684e-002
3.353745e+003;3.341743e-002
3.355674e+003;3.343217e-002
3.357602e+003;3.380948e-002
3.359531e+003;3.336905e-002
3.361459e+003;3.297833e-002
3.363388e+003;3.335635e-002
3.365316e+003;3.374509e-002
3.367245e+003;3.383731e-002
3.369173e+003;3.386679e-002
3.371102e+003;3.383724e-002
3.373031e+003;3.366971e-002
3.374959e+003;3.335281e-002
3.376887e+003;3.305563e-002
3.378816e+003;3.314313e-002
3.380745e+003;3.324324e-002
3.382673e+003;3.320936e-002
3.384602e+003;3.282646e-002
3.386530e+003;3.253964e-002
3.388459e+003;3.236997e-002
3.390387e+003;3.239467e-002
3.392316e+003;3.254160e-002
3.394244e+003;3.252339e-002
3.396173e+003;3.226756e-002
3.398102e+003;3.228862e-002
3.400030e+003;3.267890e-002
3.401959e+003;3.246993e-002
3.403887e+003;3.197872e-002
3.405816e+003;3.212368e-002
3.407744e+003;3.234216e-002
3.409673e+003;3.209090e-002
3.411601e+003;3.237696e-002
3.413530e+003;3.253192e-002
3.415458e+003;3.229269e-002
3.417387e+003;3.226624e-002
3.419316e+003;3.239674e-002
3.421244e+003;3.226999e-002
3.423173e+003;3.203364e-002
3.425101e+003;3.207324e-002
3.427030e+003;3.227402e-002
3.428958e+003;3.210720e-002
3.430887e+003;3.205919e-002
3.432815e+003;3.196363e-002
3.434744e+003;3.106353e-002
3.436673e+003;3.073600e-002
3.438601e+003;3.121891e-002
3.440530e+003;3.191623e-002
3.442458e+003;3.214181e-002
3.444387e+003;3.157958e-002
3.446315e+003;3.085189e-002
3.448244e+003;3.083652e-002
3.450172e+003;3.097908e-002
3.452101e+003;3.061212e-002
3.454030e+003;3.098043e-002
3.455958e+003;3.173426e-002
3.457886e+003;3.174666e-002
3.459815e+003;3.134778e-002
3.461744e+003;3.103954e-002
3.463672e+003;3.099805e-002
3.465601e+003;3.116298e-002
3.467529e+003;3.130455e-002
3.469458e+003;3.093012e-002
3.471386e+003;3.074646e-002
3.473315e+003;3.076204e-002
3.475243e+003;3.062613e-002
3.477172e+003;3.090137e-002
3.479101e+003;3.114842e-002
3.481029e+003;3.065706e-002
3.482958e+003;3.036715e-002
3.484886e+003;3.038371e-002
3.486815e+003;3.031876e-002
3.488743e+003;3.063235e-002
3.490672e+003;3.050359e-002
3.492600e+003;2.999168e-002
3.494529e+003;2.986698e-002
3.496458e+003;3.001075e-002
3.498386e+003;3.065852e-002
3.500315e+003;3.109254e-002
3.502243e+003;3.054020e-002
3.504172e+003;2.971169e-002
3.506100e+003;2.977520e-002
3.508029e+003;3.024006e-002
3.509957e+003;3.060735e-002
3.511886e+003;3.077072e-002
3.513814e+003;3.046797e-002
3.515743e+003;3.025147e-002
3.517672e+003;3.050238e-002
3.519600e+003;3.067850e-002
3.521529e+003;3.030675e-002
3.523457e+003;2.988600e-002
3.525386e+003;3.004835e-002
3.527314e+003;3.019072e-002
3.529243e+003;2.968937e-002
3.531171e+003;2.979391e-002
3.533100e+003;3.044689e-002
3.535029e+003;3.037500e-002
3.536957e+003;2.995551e-002
3.538885e+003;2.990815e-002
3.540814e+003;3.003266e-002
3.542743e+003;2.991547e-002
3.544671e+003;2.989335e-002
3.546600e+003;3.004874e-002
3.548528e+003;3.041885e-002
3.550457e+003;3.065237e-002
3.552385e+003;3.034437e-002
3.554314e+003;3.010566e-002
3.556242e+003;3.039885e-002
3.558171e+003;3.068419e-002
3.560100e+003;3.092824e-002
3.562028e+003;3.075251e-002
3.563957e+003;3.014352e-002
3.565885e+003;2.919994e-002
3.567814e+003;2.920023e-002
3.569742e+003;3.010144e-002
3.571671e+003;3.070645e-002
3.573599e+003;3.101171e-002
3.575528e+003;3.121934e-002
3.577457e+003;3.131178e-002
3.579385e+003;3.145282e-002
3.581314e+003;3.168407e-002
3.583242e+003;3.152717e-002
3.585171e+003;3.038229e-002
3.587099e+003;3.011788e-002
3.589028e+003;3.135946e-002
3.590956e+003;3.284130e-002
3.592885e+003;3.367408e-002
3.594813e+003;3.402271e-002
3.596742e+003;3.432200e-002
3.598671e+003;3.527862e-002
3.600599e+003;3.599034e-002
3.602528e+003;3.715077e-002
3.604456e+003;3.751052e-002
3.606385e+003;3.630979e-002
3.608313e+003;3.501649e-002
3.610242e+003;3.482693e-002
3.612170e+003;3.512792e-002
3.614099e+003;3.498582e-002
3.616028e+003;3.418938e-002
3.617956e+003;3.332108e-002
3.619885e+003;3.334369e-002
3.621813e+003;3.374140e-002
3.623742e+003;3.398265e-002
3.625670e+003;3.316820e-002
3.627599e+003;3.044736e-002
3.629527e+003;2.993371e-002
3.631456e+003;3.185615e-002
3.633385e+003;3.281385e-002
3.635313e+003;3.372464e-002
3.637241e+003;3.423465e-002
3.639170e+003;3.466057e-002
3.641099e+003;3.512361e-002
3.643027e+003;3.560768e-002
3.644956e+003;3.445968e-002
3.646884e+003;3.169527e-002
3.648813e+003;3.042888e-002
3.650741e+003;3.235240e-002
3.652670e+003;3.427825e-002
3.654598e+003;3.316380e-002
3.656527e+003;3.230500e-002
3.658456e+003;3.357298e-002
3.660384e+003;3.410045e-002
3.662313e+003;3.414801e-002
3.664241e+003;3.444569e-002
3.666170e+003;3.344055e-002
3.668098e+003;3.101285e-002
3.670027e+003;2.952340e-002
3.671955e+003;3.075962e-002
3.673884e+003;2.967770e-002
3.675813e+003;2.883929e-002
3.677741e+003;3.165499e-002
3.679669e+003;3.300804e-002
3.681598e+003;3.356428e-002
3.683527e+003;3.379269e-002
3.685455e+003;3.290991e-002
3.687384e+003;3.018064e-002
3.689312e+003;2.938862e-002
3.691241e+003;3.112674e-002
3.693169e+003;3.283172e-002
3.695098e+003;3.320582e-002
3.697026e+003;3.327486e-002
3.698955e+003;3.339339e-002
3.700884e+003;3.295467e-002
3.702812e+003;3.295803e-002
3.704741e+003;3.286606e-002
3.706669e+003;3.195211e-002
3.708598e+003;3.079974e-002
3.710526e+003;2.946064e-002
3.712455e+003;2.958121e-002
3.714383e+003;3.115576e-002
3.716312e+003;3.183886e-002
3.718240e+003;3.163920e-002
3.720169e+003;3.104794e-002
3.722098e+003;3.088711e-002
3.724026e+003;3.101317e-002
3.725955e+003;3.073078e-002
3.727883e+003;3.094232e-002
3.729812e+003;3.035670e-002
3.731740e+003;2.911274e-002
3.733669e+003;2.902888e-002
3.735597e+003;2.887952e-002
3.737526e+003;3.016856e-002
3.739455e+003;3.105997e-002
3.741383e+003;2.977755e-002
3.743312e+003;2.530186e-002
3.745240e+003;2.533541e-002
3.747169e+003;2.715599e-002
3.749097e+003;2.578316e-002
3.751026e+003;2.606024e-002
3.752954e+003;2.820190e-002
3.754883e+003;3.003486e-002
3.756812e+003;3.042280e-002
3.758740e+003;3.081247e-002
3.760668e+003;3.124718e-002
3.762597e+003;3.189705e-002
3.764526e+003;3.155503e-002
3.766454e+003;3.149803e-002
3.768383e+003;3.100794e-002
3.770311e+003;3.079081e-002
3.772240e+003;3.178374e-002
3.774168e+003;3.251671e-002
3.776097e+003;3.229615e-002
3.778025e+003;3.149760e-002
3.779954e+003;3.126591e-002
3.781883e+003;3.212076e-002
3.783811e+003;3.270337e-002
3.785740e+003;3.272988e-002
3.787668e+003;3.245144e-002
3.789597e+003;3.225000e-002
3.791525e+003;3.270105e-002
3.793454e+003;3.321487e-002
3.795382e+003;3.291699e-002
3.797311e+003;3.297086e-002
3.799240e+003;3.111717e-002
3.801168e+003;2.938107e-002
3.803097e+003;3.194355e-002
3.805025e+003;3.243030e-002
3.806954e+003;3.113917e-002
3.808882e+003;3.280799e-002
3.810811e+003;3.404411e-002
3.812739e+003;3.377578e-002
3.814668e+003;3.131580e-002
3.816596e+003;3.126484e-002
3.818525e+003;3.254681e-002
3.820454e+003;3.136128e-002
3.822382e+003;3.261510e-002
3.824311e+003;3.413847e-002
3.826239e+003;3.381267e-002
3.828168e+003;3.376016e-002
3.830096e+003;3.344202e-002
3.832025e+003;3.305180e-002
3.833953e+003;3.271427e-002
3.835882e+003;3.092937e-002
3.837811e+003;2.982311e-002
3.839739e+003;3.189683e-002
3.841667e+003;3.322052e-002
3.843596e+003;3.336895e-002
3.845525e+003;3.397728e-002
3.847453e+003;3.457427e-002
3.849382e+003;3.315435e-002
3.851310e+003;2.857200e-002
3.853239e+003;2.528444e-002
3.855167e+003;2.919186e-002
3.857096e+003;3.345168e-002
3.859024e+003;3.377341e-002
3.860953e+003;3.287182e-002
3.862882e+003;3.288779e-002
3.864810e+003;3.327682e-002
3.866739e+003;3.342720e-002
3.868667e+003;3.202508e-002
3.870596e+003;3.283079e-002
3.872524e+003;3.430285e-002
3.874453e+003;3.466053e-002
3.876381e+003;3.569469e-002
3.878310e+003;3.528904e-002
3.880239e+003;3.478551e-002
3.882167e+003;3.485217e-002
3.884096e+003;3.337199e-002
3.886024e+003;3.284583e-002
3.887953e+003;3.487842e-002
3.889881e+003;3.492258e-002
3.891810e+003;3.478346e-002
3.893738e+003;3.598228e-002
3.895667e+003;3.603444e-002
3.897595e+003;3.501125e-002
3.899524e+003;3.436317e-002
3.901453e+003;3.388632e-002
3.903381e+003;3.347781e-002
3.905310e+003;3.465464e-002
3.907238e+003;3.601219e-002
3.909167e+003;3.626065e-002
3.911095e+003;3.640194e-002
3.913024e+003;3.618300e-002
3.914952e+003;3.543584e-002
3.916881e+003;3.500927e-002
3.918810e+003;3.511793e-002
3.920738e+003;3.530237e-002
3.922667e+003;3.567332e-002
3.924595e+003;3.627668e-002
3.926524e+003;3.684156e-002
3.928452e+003;3.657039e-002
3.930381e+003;3.565825e-002
3.932309e+003;3.509674e-002
3.934238e+003;3.548071e-002
3.936167e+003;3.626173e-002
3.938095e+003;3.649718e-002
3.940023e+003;3.548365e-002
3.941952e+003;3.491127e-002
3.943881e+003;3.511039e-002
3.945809e+003;3.474692e-002
3.947738e+003;3.484165e-002
3.949666e+003;3.533547e-002
3.951595e+003;3.548869e-002
3.953523e+003;3.524311e-002
3.955452e+003;3.530324e-002
3.957380e+003;3.541520e-002
3.959309e+003;3.543893e-002
3.961238e+003;3.511028e-002
3.963166e+003;3.434132e-002
3.965095e+003;3.444924e-002
3.967023e+003;3.491669e-002
3.968952e+003;3.520272e-002
3.970880e+003;3.515666e-002
3.972809e+003;3.514143e-002
3.974737e+003;3.532318e-002
3.976666e+003;3.569368e-002
3.978594e+003;3.550325e-002
3.980523e+003;3.503596e-002
3.982452e+003;3.512713e-002
3.984380e+003;3.525332e-002
3.986309e+003;3.511930e-002
3.988237e+003;3.522993e-002
3.990166e+003;3.473769e-002
3.992094e+003;3.409206e-002
3.994023e+003;3.471540e-002
3.995951e+003;3.512059e-002
3.997880e+003;3.464879e-002
3.999809e+003;3.474071e-002
4.001737e+003;0.000000e+000
