3.992094e+002;0.000000e+000
4.011380e+002;0.000000e+000
4.030665e+002;0.000000e+000
4.049951e+002;0.000000e+000
4.069236e+002;0.000000e+000
4.088522e+002;0.000000e+000
4.107807e+002;0.000000e+000
4.127093e+002;0.000000e+000
4.146378e+002;0.000000e+000
4.165664e+002;0.000000e+000
4.184949e+002;0.000000e+000
4.204235e+002;0.000000e+000
4.223520e+002;0.000000e+000
4.242806e+002;0.000000e+000
4.262091e+002;0.000000e+000
4.281377e+002;0.000000e+000
4.300662e+002;0.000000e+000
4.319948e+002;0.000000e+000
4.339233e+002;0.000000e+000
4.358519e+002;0.000000e+000
4.377804e+002;0.000000e+000
4.397090e+002;0.000000e+000
4.416375e+002;0.000000e+000
4.435660e+002;0.000000e+000
4.454946e+002;0.000000e+000
4.474232e+002;0.000000e+000
4.493517e+002;0.000000e+000
4.512802e+002;0.000000e+000
4.532088e+002;0.000000e+000
4.551373e+002;0.000000e+000
4.570659e+002;0.000000e+000
4.589944e+002;0.000000e+000
4.609230e+002;0.000000e+000
4.628515e+002;0.000000e+000
4.647801e+002;0.000000e+000
4.667086e+002;0.000000e+000
4.686372e+002;0.000000e+000
4.705657e+002;0.000000e+000
4.724943e+002;0.000000e+000
4.744228e+002;0.000000e+000
4.763513e+002;0.000000e+000
4.782799e+002;0.000000e+000
4.802085e+002;0.000000e+000
4.821370e+002;0.000000e+000
4.840656e+002;0.000000e+000
4.859941e+002;0.000000e+000
4.879226e+002;0.000000e+000
4.898512e+002;0.000000e+000
4.917798e+002;0.000000e+000
4.937083e+002;0.000000e+000
4.956368e+002;0.000000e+000
4.975654e+002;0.000000e+000
4.994939e+002;0.000000e+000
5.014225e+002;0.000000e+000
5.033510e+002;0.000000e+000
5.052796e+002;0.000000e+000
5.072081e+002;0.000000e+000
5.091367e+002;0.000000e+000
5.110652e+002;0.000000e+000
5.129938e+002;0.000000e+000
5.149223e+002;0.000000e+000
5.168509e+002;0.000000e+000
5.187794e+002;0.000000e+000
5.207079e+002;0.000000e+000
5.226365e+002;0.000000e+000
5.245651e+002;0.000000e+000
5.264936e+002;0.000000e+000
5.284222e+002;0.000000e+000
5.303507e+002;0.000000e+000
5.322792e+002;0.000000e+000
5.342078e+002;0.000000e+000
5.361364e+002;0.000000e+000
5.380649e+002;0.000000e+000
5.399935e+002;0.000000e+000
5.419220e+002;0.000000e+000
5.438505e+002;0.000000e+000
5.457791e+002;0.000000e+000
5.477076e+002;0.000000e+000
5.496362e+002;0.000000e+000
5.515648e+002;0.000000e+000
5.534933e+002;0.000000e+000
5.554218e+002;0.000000e+000
5.573504e+002;0.000000e+000
5.592789e+002;0.000000e+000
5.612075e+002;0.000000e+000
5.631360e+002;0.000000e+000
5.650646e+002;0.000000e+000
5.669931e+002;0.000000e+000
5.689217e+002;0.000000e+000
5.708502e+002;0.000000e+000
5.727787e+002;0.000000e+000
5.747073e+002;0.000000e+000
5.766359e+002;0.000000e+000
5.785644e+002;0.000000e+000
5.804930e+002;0.000000e+000
5.824215e+002;0.000000e+000
5.843500e+002;0.000000e+000
5.862786e+002;0.000000e+000
5.882072e+002;0.000000e+000
5.901357e+002;0.000000e+000
5.920643e+002;0.000000e+000
5.939928e+002;0.000000e+000
5.959213e+002;0.000000e+000
5.978499e+002;0.000000e+000
5.997784e+002;4.747927e-002
6.017070e+002;5.159844e-002
6.036355e+002;5.763584e-002
6.055641e+002;5.616943e-002
6.074926e+002;5.607196e-002
6.094211e+002;5.744484e-002
6.113497e+002;5.386145e-002
6.132783e+002;4.808982e-002
6.152068e+002;4.684317e-002
6.171354e+002;4.986389e-002
6.190639e+002;5.259833e-002
6.209924e+002;5.294147e-002
6.229210e+002;5.363522e-002
6.248495e+002;5.464546e-002
6.267781e+002;5.338928e-002
6.287067e+002;4.899190e-002
6.306352e+002;4.831578e-002
6.325637e+002;5.108325e-002
6.344923e+002;5.005585e-002
6.364208e+002;4.853274e-002
6.383494e+002;4.753959e-002
6.402780e+002;4.828230e-002
6.422065e+002;5.388445e-002
6.441350e+002;5.501755e-002
6.460636e+002;5.086576e-002
6.479921e+002;4.746740e-002
6.499207e+002;4.703817e-002
6.518492e+002;4.658516e-002
6.537778e+002;4.785485e-002
6.557063e+002;4.980361e-002
6.576349e+002;5.053937e-002
6.595634e+002;5.222980e-002
6.614919e+002;5.320925e-002
6.634205e+002;5.212231e-002
6.653491e+002;5.174884e-002
6.672776e+002;5.388332e-002
6.692062e+002;5.355530e-002
6.711347e+002;5.272185e-002
6.730632e+002;5.436786e-002
6.749918e+002;5.477294e-002
6.769203e+002;5.348484e-002
6.788489e+002;5.551981e-002
6.807775e+002;5.873524e-002
6.827060e+002;5.986645e-002
6.846345e+002;5.984565e-002
6.865631e+002;6.058420e-002
6.884916e+002;6.317577e-002
6.904202e+002;6.515640e-002
6.923488e+002;6.575926e-002
6.942773e+002;6.812086e-002
6.962058e+002;7.151341e-002
6.981344e+002;7.416490e-002
7.000629e+002;7.674675e-002
7.019915e+002;8.019309e-002
7.039200e+002;8.604786e-002
7.058486e+002;9.358279e-002
7.077771e+002;1.018460e-001
7.097057e+002;1.149410e-001
7.116342e+002;1.369473e-001
7.135627e+002;1.645413e-001
7.154913e+002;1.864304e-001
7.174199e+002;1.872266e-001
7.193484e+002;1.671478e-001
7.212770e+002;1.388977e-001
7.232055e+002;1.166102e-001
7.251340e+002;1.035139e-001
7.270626e+002;9.824455e-002
7.289911e+002;1.012858e-001
7.309197e+002;1.065985e-001
7.328483e+002;1.009963e-001
7.347768e+002;8.338800e-002
7.367053e+002;6.841182e-002
7.386339e+002;6.043094e-002
7.405624e+002;5.689034e-002
7.424910e+002;5.580999e-002
7.444196e+002;5.547990e-002
7.463481e+002;5.548856e-002
7.482766e+002;5.392691e-002
7.502052e+002;5.125774e-002
7.521337e+002;4.939820e-002
7.540623e+002;4.938264e-002
7.559908e+002;5.068532e-002
7.579194e+002;5.044912e-002
7.598479e+002;4.922508e-002
7.617765e+002;4.828801e-002
7.637050e+002;4.897466e-002
7.656335e+002;4.997901e-002
7.675621e+002;5.002139e-002
7.694907e+002;4.922590e-002
7.714192e+002;4.804230e-002
7.733478e+002;4.750344e-002
7.752763e+002;4.788423e-002
7.772048e+002;4.862245e-002
7.791334e+002;4.886581e-002
7.810620e+002;4.829074e-002
7.829905e+002;4.842401e-002
7.849191e+002;4.868416e-002
7.868476e+002;4.820969e-002
7.887761e+002;4.878914e-002
7.907047e+002;5.002269e-002
7.926332e+002;5.025226e-002
7.945618e+002;4.968483e-002
7.964903e+002;4.944048e-002
7.984189e+002;4.912834e-002
8.003474e+002;4.886151e-002
8.022759e+002;5.052814e-002
8.042045e+002;5.123359e-002
8.061331e+002;5.039657e-002
8.080616e+002;5.023972e-002
8.099902e+002;5.085786e-002
8.119187e+002;5.100637e-002
8.138472e+002;5.096367e-002
8.157758e+002;5.085064e-002
8.177043e+002;5.073190e-002
8.196329e+002;5.146129e-002
8.215615e+002;5.186084e-002
8.234900e+002;5.144190e-002
8.254185e+002;5.166210e-002
8.273471e+002;5.241093e-002
8.292756e+002;5.211995e-002
8.312042e+002;5.196326e-002
8.331328e+002;5.206945e-002
8.350613e+002;5.155049e-002
8.369898e+002;5.108388e-002
8.389184e+002;5.083939e-002
8.408469e+002;5.068032e-002
8.427755e+002;5.011665e-002
8.447040e+002;5.013577e-002
8.466326e+002;4.990009e-002
8.485611e+002;4.905600e-002
8.504897e+002;4.874958e-002
8.524182e+002;4.886362e-002
8.543467e+002;4.941906e-002
8.562753e+002;4.975668e-002
8.582039e+002;4.948363e-002
8.601324e+002;4.907098e-002
8.620610e+002;4.875299e-002
8.639895e+002;4.838937e-002
8.659180e+002;4.849976e-002
8.678466e+002;4.865235e-002
8.697751e+002;4.866399e-002
8.717037e+002;4.904172e-002
8.736323e+002;4.959869e-002
8.755608e+002;5.007225e-002
8.774893e+002;5.020063e-002
8.794179e+002;4.969545e-002
8.813464e+002;4.926367e-002
8.832750e+002;4.929392e-002
8.852036e+002;4.959813e-002
8.871321e+002;4.981491e-002
8.890606e+002;4.991763e-002
8.909892e+002;4.990277e-002
8.929177e+002;5.006693e-002
8.948463e+002;5.019560e-002
8.967748e+002;5.018311e-002
8.987034e+002;5.035434e-002
9.006319e+002;5.083380e-002
9.025605e+002;5.059462e-002
9.044890e+002;5.027469e-002
9.064175e+002;5.076315e-002
9.083461e+002;5.121480e-002
9.102747e+002;5.104170e-002
9.122032e+002;5.054909e-002
9.141318e+002;5.000901e-002
9.160603e+002;4.950220e-002
9.179888e+002;4.954832e-002
9.199174e+002;5.002693e-002
9.218459e+002;4.956875e-002
9.237745e+002;4.920059e-002
9.257031e+002;4.943477e-002
9.276316e+002;4.977411e-002
9.295601e+002;5.021100e-002
9.314887e+002;5.020621e-002
9.334172e+002;4.990548e-002
9.353458e+002;5.006794e-002
9.372744e+002;4.986426e-002
9.392029e+002;4.957562e-002
9.411314e+002;4.987482e-002
9.430600e+002;5.017344e-002
9.449885e+002;5.049117e-002
9.469171e+002;5.052780e-002
9.488456e+002;5.008363e-002
9.507742e+002;4.985304e-002
9.527027e+002;5.006772e-002
9.546313e+002;4.990080e-002
9.565598e+002;4.961087e-002
9.584883e+002;4.970203e-002
9.604169e+002;4.961971e-002
9.623455e+002;4.947008e-002
9.642740e+002;4.968074e-002
9.662026e+002;5.021937e-002
9.681311e+002;5.038593e-002
9.700596e+002;5.033280e-002
9.719882e+002;5.007943e-002
9.739167e+002;4.997860e-002
9.758453e+002;5.021108e-002
9.777739e+002;5.028298e-002
9.797024e+002;5.009787e-002
9.816309e+002;4.998071e-002
9.835595e+002;4.987173e-002
9.854880e+002;4.951876e-002
9.874166e+002;4.891268e-002
9.893452e+002;4.831256e-002
9.912737e+002;4.868397e-002
9.932022e+002;4.922771e-002
9.951307e+002;4.890894e-002
9.970593e+002;4.862089e-002
9.989879e+002;4.905748e-002
1.000916e+003;5.011141e-002
1.002845e+003;5.058978e-002
1.004773e+003;5.036684e-002
1.006702e+003;5.038623e-002
1.008631e+003;5.075078e-002
1.010559e+003;5.097071e-002
1.012488e+003;5.154911e-002
1.014416e+003;5.219853e-002
1.016345e+003;5.237631e-002
1.018273e+003;5.293668e-002
1.020202e+003;5.445146e-002
1.022130e+003;5.604648e-002
1.024059e+003;5.751398e-002
1.025988e+003;5.932271e-002
1.027916e+003;6.137686e-002
1.029845e+003;6.287466e-002
1.031773e+003;6.275772e-002
1.033702e+003;6.183751e-002
1.035630e+003;6.090949e-002
1.037559e+003;6.037671e-002
1.039487e+003;6.011186e-002
1.041416e+003;5.956580e-002
1.043344e+003;5.880800e-002
1.045273e+003;5.871999e-002
1.047202e+003;5.941032e-002
1.049130e+003;5.998052e-002
1.051059e+003;6.035409e-002
1.052987e+003;6.090576e-002
1.054916e+003;6.142709e-002
1.056844e+003;6.137389e-002
1.058773e+003;6.169755e-002
1.060701e+003;6.221265e-002
1.062630e+003;6.272081e-002
1.064558e+003;6.339729e-002
1.066487e+003;6.411994e-002
1.068416e+003;6.547088e-002
1.070344e+003;6.705577e-002
1.072273e+003;6.770074e-002
1.074201e+003;6.782812e-002
1.076130e+003;6.782649e-002
1.078058e+003;6.752717e-002
1.079987e+003;6.656889e-002
1.081915e+003;6.500990e-002
1.083844e+003;6.375989e-002
1.085773e+003;6.287749e-002
1.087701e+003;6.167819e-002
1.089630e+003;6.093652e-002
1.091558e+003;6.011243e-002
1.093487e+003;5.868062e-002
1.095415e+003;5.804542e-002
1.097344e+003;5.783940e-002
1.099272e+003;5.719636e-002
1.101201e+003;5.689691e-002
1.103129e+003;5.740320e-002
1.105058e+003;5.738369e-002
1.106987e+003;5.642593e-002
1.108915e+003;5.535056e-002
1.110844e+003;5.493069e-002
1.112772e+003;5.490192e-002
1.114701e+003;5.462370e-002
1.116629e+003;5.435644e-002
1.118558e+003;5.399861e-002
1.120486e+003;5.419237e-002
1.122415e+003;5.448688e-002
1.124344e+003;5.409719e-002
1.126272e+003;5.359023e-002
1.128201e+003;5.321239e-002
1.130129e+003;5.326682e-002
1.132058e+003;5.320071e-002
1.133986e+003;5.307040e-002
1.135915e+003;5.279413e-002
1.137843e+003;5.267311e-002
1.139772e+003;5.295883e-002
1.141700e+003;5.392481e-002
1.143629e+003;5.519021e-002
1.145557e+003;5.609978e-002
1.147486e+003;5.699256e-002
1.149415e+003;5.740774e-002
1.151343e+003;5.723817e-002
1.153272e+003;5.672625e-002
1.155200e+003;5.560363e-002
1.157129e+003;5.446104e-002
1.159057e+003;5.351711e-002
1.160986e+003;5.330079e-002
1.162914e+003;5.351501e-002
1.164843e+003;5.304385e-002
1.166771e+003;5.246607e-002
1.168700e+003;5.212503e-002
1.170629e+003;5.216415e-002
1.172557e+003;5.178826e-002
1.174486e+003;5.149979e-002
1.176414e+003;5.145215e-002
1.178343e+003;5.076508e-002
1.180271e+003;5.041008e-002
1.182200e+003;5.043356e-002
1.184128e+003;4.991173e-002
1.186057e+003;4.907280e-002
1.187986e+003;4.847979e-002
1.189914e+003;4.809201e-002
1.191843e+003;4.787849e-002
1.193771e+003;4.754418e-002
1.195700e+003;4.751069e-002
1.197628e+003;4.740838e-002
1.199557e+003;4.723639e-002
1.201485e+003;4.729874e-002
1.203414e+003;4.719689e-002
1.205343e+003;4.722803e-002
1.207271e+003;4.734397e-002
1.209200e+003;4.740413e-002
1.211128e+003;4.772170e-002
1.213057e+003;4.815068e-002
1.214985e+003;4.891520e-002
1.216914e+003;4.997901e-002
1.218842e+003;5.032346e-002
1.220771e+003;5.046847e-002
1.222699e+003;5.140340e-002
1.224628e+003;5.217730e-002
1.226557e+003;5.214293e-002
1.228485e+003;5.262429e-002
1.230414e+003;5.332076e-002
1.232342e+003;5.395857e-002
1.234271e+003;5.442122e-002
1.236199e+003;5.454664e-002
1.238128e+003;5.444654e-002
1.240056e+003;5.413862e-002
1.241985e+003;5.404296e-002
1.243913e+003;5.415667e-002
1.245842e+003;5.410769e-002
1.247771e+003;5.418925e-002
1.249699e+003;5.425169e-002
1.251628e+003;5.467624e-002
1.253556e+003;5.545031e-002
1.255485e+003;5.594274e-002
1.257413e+003;5.575038e-002
1.259342e+003;5.476497e-002
1.261270e+003;5.388895e-002
1.263199e+003;5.321303e-002
1.265127e+003;5.271654e-002
1.267056e+003;5.262942e-002
1.268985e+003;5.241751e-002
1.270913e+003;5.195538e-002
1.272842e+003;5.130260e-002
1.274770e+003;5.079331e-002
1.276699e+003;5.053044e-002
1.278627e+003;5.025657e-002
1.280556e+003;4.998377e-002
1.282484e+003;4.972595e-002
1.284413e+003;4.985824e-002
1.286342e+003;4.996138e-002
1.288270e+003;4.973636e-002
1.290199e+003;4.979923e-002
1.292127e+003;5.015518e-002
1.294056e+003;5.023782e-002
1.295984e+003;5.012096e-002
1.297913e+003;5.015146e-002
1.299841e+003;5.039397e-002
1.301770e+003;5.024366e-002
1.303698e+003;4.993038e-002
1.305627e+003;5.004351e-002
1.307556e+003;4.981108e-002
1.309484e+003;4.916114e-002
1.311413e+003;4.867978e-002
1.313341e+003;4.813391e-002
1.315270e+003;4.740524e-002
1.317198e+003;4.668852e-002
1.319127e+003;4.585915e-002
1.321055e+003;4.530250e-002
1.322984e+003;4.484777e-002
1.324912e+003;4.421281e-002
1.326841e+003;4.364599e-002
1.328770e+003;4.324797e-002
1.330698e+003;4.330580e-002
1.332627e+003;4.359368e-002
1.334555e+003;4.384857e-002
1.336484e+003;4.395902e-002
1.338412e+003;4.437080e-002
1.340341e+003;4.539181e-002
1.342269e+003;4.665288e-002
1.344198e+003;4.751608e-002
1.346126e+003;4.827142e-002
1.348055e+003;4.933572e-002
1.349984e+003;5.032123e-002
1.351912e+003;5.073868e-002
1.353841e+003;5.083812e-002
1.355769e+003;5.073309e-002
1.357698e+003;5.096177e-002
1.359626e+003;5.160400e-002
1.361555e+003;5.223900e-002
1.363483e+003;5.340446e-002
1.365412e+003;5.490632e-002
1.367341e+003;5.583376e-002
1.369269e+003;5.613741e-002
1.371198e+003;5.531435e-002
1.373126e+003;5.380699e-002
1.375055e+003;5.283679e-002
1.376983e+003;5.240472e-002
1.378912e+003;5.131427e-002
1.380840e+003;4.984943e-002
1.382769e+003;4.876697e-002
1.384698e+003;4.782407e-002
1.386626e+003;4.683712e-002
1.388555e+003;4.641452e-002
1.390483e+003;4.630414e-002
1.392412e+003;4.575322e-002
1.394340e+003;4.505290e-002
1.396269e+003;4.520756e-002
1.398197e+003;4.553802e-002
1.400126e+003;4.606895e-002
1.402054e+003;4.657811e-002
1.403983e+003;4.680206e-002
1.405911e+003;4.701524e-002
1.407840e+003;4.735210e-002
1.409769e+003;4.803086e-002
1.411697e+003;4.882766e-002
1.413626e+003;4.948334e-002
1.415554e+003;5.000354e-002
1.417483e+003;4.991377e-002
1.419411e+003;5.047234e-002
1.421340e+003;5.270909e-002
1.423268e+003;5.476730e-002
1.425197e+003;5.682523e-002
1.427125e+003;5.911215e-002
1.429054e+003;6.123499e-002
1.430983e+003;6.350243e-002
1.432911e+003;6.565399e-002
1.434840e+003;6.674582e-002
1.436768e+003;6.811849e-002
1.438697e+003;7.113918e-002
1.440625e+003;7.352617e-002
1.442554e+003;7.538906e-002
1.444482e+003;7.718760e-002
1.446411e+003;7.909905e-002
1.448340e+003;8.105262e-002
1.450268e+003;8.381675e-002
1.452197e+003;8.809721e-002
1.454125e+003;9.272434e-002
1.456054e+003;9.671395e-002
1.457982e+003;1.055389e-001
1.459911e+003;1.224058e-001
1.461839e+003;1.363138e-001
1.463768e+003;1.370359e-001
1.465697e+003;1.384528e-001
1.467625e+003;1.498722e-001
1.469554e+003;1.706951e-001
1.471482e+003;1.891703e-001
1.473411e+003;1.727003e-001
1.475339e+003;1.263322e-001
1.477268e+003;8.945985e-002
1.479196e+003;7.241166e-002
1.481125e+003;6.487677e-002
1.483053e+003;6.055098e-002
1.484982e+003;5.724032e-002
1.486911e+003;5.452422e-002
1.488839e+003;5.232260e-002
1.490768e+003;5.108813e-002
1.492696e+003;5.066275e-002
1.494625e+003;4.907295e-002
1.496553e+003;4.730155e-002
1.498482e+003;4.705630e-002
1.500410e+003;4.682557e-002
1.502339e+003;4.642186e-002
1.504267e+003;4.437656e-002
1.506196e+003;4.158004e-002
1.508125e+003;4.167836e-002
1.510053e+003;4.312719e-002
1.511982e+003;4.357199e-002
1.513910e+003;4.346383e-002
1.515839e+003;4.280822e-002
1.517767e+003;4.219941e-002
1.519696e+003;4.105886e-002
1.521624e+003;4.033977e-002
1.523553e+003;4.159667e-002
1.525481e+003;4.200859e-002
1.527410e+003;4.218207e-002
1.529339e+003;4.289522e-002
1.531267e+003;4.297708e-002
1.533196e+003;4.274094e-002
1.535124e+003;4.344204e-002
1.537053e+003;4.251133e-002
1.538981e+003;3.993288e-002
1.540910e+003;3.994926e-002
1.542838e+003;4.150063e-002
1.544767e+003;4.259099e-002
1.546695e+003;4.357925e-002
1.548624e+003;4.403093e-002
1.550553e+003;4.411498e-002
1.552481e+003;4.389446e-002
1.554410e+003;4.359082e-002
1.556338e+003;4.281425e-002
1.558267e+003;4.064449e-002
1.560195e+003;4.181190e-002
1.562124e+003;4.479700e-002
1.564052e+003;4.552105e-002
1.565981e+003;4.536308e-002
1.567910e+003;4.464958e-002
1.569838e+003;4.387163e-002
1.571767e+003;4.416156e-002
1.573695e+003;4.366592e-002
1.575624e+003;4.257794e-002
1.577552e+003;4.396298e-002
1.579481e+003;4.550964e-002
1.581409e+003;4.579280e-002
1.583338e+003;4.599365e-002
1.585266e+003;4.614128e-002
1.587195e+003;4.622165e-002
1.589124e+003;4.617739e-002
1.591052e+003;4.621620e-002
1.592981e+003;4.603344e-002
1.594909e+003;4.613424e-002
1.596838e+003;4.622991e-002
1.598766e+003;4.628368e-002
1.600695e+003;4.655369e-002
1.602623e+003;4.670520e-002
1.604552e+003;4.643450e-002
1.606480e+003;4.603613e-002
1.608409e+003;4.595645e-002
1.610338e+003;4.620193e-002
1.612266e+003;4.629618e-002
1.614195e+003;4.573408e-002
1.616123e+003;4.388130e-002
1.618052e+003;4.404105e-002
1.619980e+003;4.528544e-002
1.621909e+003;4.485009e-002
1.623837e+003;4.448157e-002
1.625766e+003;4.490024e-002
1.627694e+003;4.517480e-002
1.629623e+003;4.566458e-002
1.631552e+003;4.567676e-002
1.633480e+003;4.427044e-002
1.635409e+003;4.274810e-002
1.637337e+003;4.364544e-002
1.639266e+003;4.512406e-002
1.641194e+003;4.571147e-002
1.643123e+003;4.542179e-002
1.645051e+003;4.418896e-002
1.646980e+003;4.373258e-002
1.648909e+003;4.455118e-002
1.650837e+003;4.285477e-002
1.652766e+003;4.012014e-002
1.654694e+003;4.172676e-002
1.656623e+003;4.404273e-002
1.658551e+003;4.473284e-002
1.660480e+003;4.449255e-002
1.662408e+003;4.389135e-002
1.664337e+003;4.414260e-002
1.666266e+003;4.393658e-002
1.668194e+003;4.259110e-002
1.670123e+003;4.203618e-002
1.672051e+003;4.253343e-002
1.673980e+003;4.202921e-002
1.675908e+003;4.184353e-002
1.677837e+003;4.309704e-002
1.679765e+003;4.334362e-002
1.681694e+003;4.216070e-002
1.683622e+003;4.012494e-002
1.685551e+003;4.038111e-002
1.687479e+003;4.210163e-002
1.689408e+003;4.253680e-002
1.691337e+003;4.236095e-002
1.693265e+003;4.182839e-002
1.695194e+003;4.030243e-002
1.697122e+003;4.019127e-002
1.699051e+003;3.943228e-002
1.700979e+003;3.900707e-002
1.702908e+003;4.050200e-002
1.704836e+003;4.044951e-002
1.706765e+003;4.037450e-002
1.708693e+003;4.057100e-002
1.710622e+003;4.059818e-002
1.712551e+003;4.003995e-002
1.714479e+003;3.873425e-002
1.716408e+003;3.745565e-002
1.718336e+003;3.812497e-002
1.720265e+003;3.993681e-002
1.722193e+003;4.069242e-002
1.724122e+003;4.102062e-002
1.726050e+003;4.143859e-002
1.727979e+003;4.207294e-002
1.729908e+003;4.284595e-002
1.731836e+003;4.244099e-002
1.733765e+003;4.178600e-002
1.735693e+003;4.402113e-002
1.737622e+003;4.633053e-002
1.739550e+003;4.638668e-002
1.741479e+003;4.606751e-002
1.743407e+003;4.570591e-002
1.745336e+003;4.499516e-002
1.747265e+003;4.350233e-002
1.749193e+003;4.125189e-002
1.751122e+003;3.907192e-002
1.753050e+003;3.795730e-002
1.754979e+003;3.616550e-002
1.756907e+003;3.421730e-002
1.758836e+003;3.300393e-002
1.760764e+003;3.160150e-002
1.762693e+003;3.083549e-002
1.764621e+003;3.062794e-002
1.766550e+003;2.994837e-002
1.768479e+003;2.924438e-002
1.770407e+003;2.838375e-002
1.772336e+003;2.773470e-002
1.774264e+003;2.835761e-002
1.776193e+003;2.879461e-002
1.778121e+003;2.849907e-002
1.780050e+003;2.829607e-002
1.781978e+003;2.839956e-002
1.783907e+003;2.812292e-002
1.785835e+003;2.782244e-002
1.787764e+003;2.795571e-002
1.789693e+003;2.760114e-002
1.791621e+003;2.678185e-002
1.793550e+003;2.682678e-002
1.795478e+003;2.745086e-002
1.797407e+003;2.739951e-002
1.799335e+003;2.702688e-002
1.801264e+003;2.685607e-002
1.803192e+003;2.722936e-002
1.805121e+003;2.779365e-002
1.807049e+003;2.803986e-002
1.808978e+003;2.779015e-002
1.810907e+003;2.750614e-002
1.812835e+003;2.746300e-002
1.814764e+003;2.749114e-002
1.816692e+003;2.773293e-002
1.818621e+003;2.802788e-002
1.820549e+003;2.806577e-002
1.822478e+003;2.759631e-002
1.824406e+003;2.693789e-002
1.826335e+003;2.680412e-002
1.828264e+003;2.667082e-002
1.830192e+003;2.654875e-002
1.832121e+003;2.667159e-002
1.834049e+003;2.660398e-002
1.835978e+003;2.636169e-002
1.837906e+003;2.648726e-002
1.839835e+003;2.657246e-002
1.841763e+003;2.607178e-002
1.843692e+003;2.528827e-002
1.845620e+003;2.559445e-002
1.847549e+003;2.628808e-002
1.849478e+003;2.650652e-002
1.851406e+003;2.658352e-002
1.853335e+003;2.648028e-002
1.855263e+003;2.647476e-002
1.857192e+003;2.639310e-002
1.859120e+003;2.621595e-002
1.861049e+003;2.614631e-002
1.862977e+003;2.626984e-002
1.864906e+003;2.641267e-002
1.866834e+003;2.642232e-002
1.868763e+003;2.636299e-002
1.870692e+003;2.674928e-002
1.872620e+003;2.704762e-002
1.874549e+003;2.699515e-002
1.876477e+003;2.717014e-002
1.878406e+003;2.746145e-002
1.880334e+003;2.761827e-002
1.882263e+003;2.773555e-002
1.884191e+003;2.822163e-002
1.886120e+003;2.906625e-002
1.888048e+003;2.969998e-002
1.889977e+003;3.007584e-002
1.891906e+003;3.085377e-002
1.893834e+003;3.122536e-002
1.895763e+003;3.121574e-002
1.897691e+003;3.125658e-002
1.899620e+003;3.151285e-002
1.901548e+003;3.163278e-002
1.903477e+003;3.148474e-002
1.905405e+003;3.115892e-002
1.907334e+003;3.061333e-002
1.909262e+003;3.000276e-002
1.911191e+003;2.962587e-002
1.913120e+003;2.919962e-002
1.915048e+003;2.877269e-002
1.916977e+003;2.858902e-002
1.918905e+003;2.869449e-002
1.920834e+003;2.859996e-002
1.922762e+003;2.842202e-002
1.924691e+003;2.860562e-002
1.926619e+003;2.870487e-002
1.928548e+003;2.873888e-002
1.930477e+003;2.856722e-002
1.932405e+003;2.851263e-002
1.934334e+003;2.870448e-002
1.936262e+003;2.865075e-002
1.938191e+003;2.836733e-002
1.940119e+003;2.805134e-002
1.942048e+003;2.795674e-002
1.943976e+003;2.800448e-002
1.945905e+003;2.812077e-002
1.947833e+003;2.816588e-002
1.949762e+003;2.818871e-002
1.951691e+003;2.833190e-002
1.953619e+003;2.847378e-002
1.955548e+003;2.857473e-002
1.957476e+003;2.849083e-002
1.959405e+003;2.823571e-002
1.961333e+003;2.794094e-002
1.963262e+003;2.820059e-002
1.965190e+003;2.845775e-002
1.967119e+003;2.833702e-002
1.969047e+003;2.812204e-002
1.970976e+003;2.786717e-002
1.972905e+003;2.769140e-002
1.974833e+003;2.799101e-002
1.976762e+003;2.814420e-002
1.978690e+003;2.790649e-002
1.980619e+003;2.792493e-002
1.982547e+003;2.805230e-002
1.984476e+003;2.807188e-002
1.986404e+003;2.788695e-002
1.988333e+003;2.799533e-002
1.990261e+003;2.811052e-002
1.992190e+003;2.789133e-002
1.994119e+003;2.798525e-002
1.996047e+003;2.817517e-002
1.997976e+003;2.817369e-002
1.999904e+003;2.843352e-002
2.001833e+003;2.897121e-002
2.003761e+003;2.946205e-002
2.005690e+003;2.978560e-002
2.007618e+003;3.036939e-002
2.009547e+003;3.118669e-002
2.011476e+003;3.204388e-002
2.013404e+003;3.293304e-002
2.015333e+003;3.368632e-002
2.017261e+003;3.394819e-002
2.019190e+003;3.385547e-002
2.021118e+003;3.411525e-002
2.023047e+003;3.429665e-002
2.024975e+003;3.375322e-002
2.026904e+003;3.292453e-002
2.028833e+003;3.246262e-002
2.030761e+003;3.223833e-002
2.032690e+003;3.196802e-002
2.034618e+003;3.161864e-002
2.036547e+003;3.133368e-002
2.038475e+003;3.096894e-002
2.040404e+003;3.059502e-002
2.042332e+003;3.056835e-002
2.044261e+003;3.068344e-002
2.046189e+003;3.059214e-002
2.048118e+003;3.030550e-002
2.050047e+003;3.005492e-002
2.051975e+003;3.002566e-002
2.053904e+003;3.020536e-002
2.055832e+003;3.016039e-002
2.057761e+003;2.986499e-002
2.059689e+003;2.950422e-002
2.061618e+003;2.936044e-002
2.063546e+003;2.946872e-002
2.065475e+003;2.938061e-002
2.067404e+003;2.936650e-002
2.069332e+003;2.949702e-002
2.071260e+003;2.947723e-002
2.073189e+003;2.949851e-002
2.075118e+003;2.953503e-002
2.077046e+003;2.950560e-002
2.078975e+003;2.934448e-002
2.080903e+003;2.903674e-002
2.082832e+003;2.891391e-002
2.084760e+003;2.907210e-002
2.086689e+003;2.888621e-002
2.088617e+003;2.855884e-002
2.090546e+003;2.877946e-002
2.092475e+003;2.904060e-002
2.094403e+003;2.883388e-002
2.096332e+003;2.866076e-002
2.098260e+003;2.868200e-002
2.100189e+003;2.891362e-002
2.102117e+003;2.896349e-002
2.104046e+003;2.891596e-002
2.105974e+003;2.914388e-002
2.107903e+003;2.902778e-002
2.109832e+003;2.857848e-002
2.111760e+003;2.850339e-002
2.113688e+003;2.853007e-002
2.115617e+003;2.824950e-002
2.117546e+003;2.828829e-002
2.119474e+003;2.869272e-002
2.121403e+003;2.866646e-002
2.123331e+003;2.875825e-002
2.125260e+003;2.875241e-002
2.127188e+003;2.855640e-002
2.129117e+003;2.849593e-002
2.131045e+003;2.874232e-002
2.132974e+003;2.903820e-002
2.134903e+003;2.938745e-002
2.136831e+003;2.957791e-002
2.138760e+003;2.949808e-002
2.140688e+003;2.956610e-002
2.142617e+003;2.997713e-002
2.144545e+003;3.027800e-002
2.146474e+003;3.024937e-002
2.148402e+003;3.038413e-002
2.150331e+003;3.035361e-002
2.152260e+003;3.012889e-002
2.154188e+003;2.993478e-002
2.156117e+003;2.995700e-002
2.158045e+003;3.012466e-002
2.159974e+003;3.009125e-002
2.161902e+003;2.996740e-002
2.163831e+003;2.959185e-002
2.165759e+003;2.952028e-002
2.167688e+003;2.988750e-002
2.169616e+003;3.003976e-002
2.171545e+003;2.998565e-002
2.173474e+003;3.001544e-002
2.175402e+003;3.018298e-002
2.177331e+003;3.027239e-002
2.179259e+003;3.007193e-002
2.181188e+003;2.986950e-002
2.183116e+003;2.988828e-002
2.185045e+003;3.008372e-002
2.186973e+003;3.027065e-002
2.188902e+003;3.027974e-002
2.190831e+003;3.012637e-002
2.192759e+003;3.007175e-002
2.194688e+003;3.001007e-002
2.196616e+003;2.999687e-002
2.198545e+003;3.017240e-002
2.200473e+003;3.024212e-002
2.202402e+003;3.015148e-002
2.204330e+003;3.031708e-002
2.206259e+003;3.042180e-002
2.208188e+003;3.040560e-002
2.210116e+003;3.014310e-002
2.212044e+003;3.005840e-002
2.213973e+003;3.014931e-002
2.215902e+003;3.014569e-002
2.217830e+003;3.020887e-002
2.219759e+003;3.018597e-002
2.221687e+003;3.031417e-002
2.223616e+003;3.060323e-002
2.225544e+003;3.062321e-002
2.227473e+003;3.038566e-002
2.229401e+003;3.042184e-002
2.231330e+003;3.087149e-002
2.233259e+003;3.140897e-002
2.235187e+003;3.205540e-002
2.237116e+003;3.320532e-002
2.239044e+003;3.461611e-002
2.240973e+003;3.580798e-002
2.242901e+003;3.645495e-002
2.244830e+003;3.656058e-002
2.246758e+003;3.622107e-002
2.248687e+003;3.549113e-002
2.250615e+003;3.484083e-002
2.252544e+003;3.449182e-002
2.254473e+003;3.421773e-002
2.256401e+003;3.362285e-002
2.258330e+003;3.323822e-002
2.260258e+003;3.295846e-002
2.262187e+003;3.263125e-002
2.264115e+003;3.259639e-002
2.266044e+003;3.267308e-002
2.267972e+003;3.257496e-002
2.269901e+003;3.308333e-002
2.271830e+003;3.347705e-002
2.273758e+003;3.367233e-002
2.275687e+003;3.401605e-002
2.277615e+003;3.418808e-002
2.279544e+003;3.417543e-002
2.281472e+003;3.411758e-002
2.283401e+003;3.413331e-002
2.285329e+003;3.436998e-002
2.287258e+003;3.447708e-002
2.289187e+003;3.455805e-002
2.291115e+003;3.448271e-002
2.293043e+003;3.433828e-002
2.294972e+003;3.470848e-002
2.296901e+003;3.505733e-002
2.298829e+003;3.520801e-002
2.300758e+003;3.526640e-002
2.302686e+003;3.515565e-002
2.304615e+003;3.508388e-002
2.306543e+003;3.501520e-002
2.308472e+003;3.535477e-002
2.310400e+003;3.567462e-002
2.312329e+003;3.602630e-002
2.314258e+003;3.652486e-002
2.316186e+003;3.691662e-002
2.318115e+003;3.700339e-002
2.320043e+003;3.714146e-002
2.321972e+003;3.747140e-002
2.323900e+003;3.789037e-002
2.325829e+003;3.807006e-002
2.327757e+003;3.835691e-002
2.329686e+003;3.861802e-002
2.331615e+003;3.866915e-002
2.333543e+003;3.848324e-002
2.335472e+003;3.829977e-002
2.337400e+003;3.854545e-002
2.339329e+003;3.878616e-002
2.341257e+003;3.879261e-002
2.343186e+003;3.879511e-002
2.345114e+003;3.888682e-002
2.347043e+003;3.894640e-002
2.348971e+003;3.852177e-002
2.350900e+003;3.804156e-002
2.352829e+003;3.733438e-002
2.354757e+003;3.640223e-002
2.356686e+003;3.558891e-002
2.358614e+003;3.482923e-002
2.360543e+003;3.407898e-002
2.362471e+003;3.366681e-002
2.364400e+003;3.346020e-002
2.366328e+003;3.349015e-002
2.368257e+003;3.379175e-002
2.370186e+003;3.373821e-002
2.372114e+003;3.331957e-002
2.374042e+003;3.318926e-002
2.375971e+003;3.329124e-002
2.377900e+003;3.331546e-002
2.379828e+003;3.340197e-002
2.381757e+003;3.354688e-002
2.383685e+003;3.384168e-002
2.385614e+003;3.382811e-002
2.387542e+003;3.384150e-002
2.389471e+003;3.375368e-002
2.391399e+003;3.368958e-002
2.393328e+003;3.395044e-002
2.395257e+003;3.396832e-002
2.397185e+003;3.360899e-002
2.399114e+003;3.362156e-002
2.401042e+003;3.396811e-002
2.402971e+003;3.414367e-002
2.404899e+003;3.409926e-002
2.406828e+003;3.420411e-002
2.408756e+003;3.461510e-002
2.410685e+003;3.505528e-002
2.412614e+003;3.522791e-002
2.414542e+003;3.519342e-002
2.416471e+003;3.539306e-002
2.418399e+003;3.561631e-002
2.420328e+003;3.578020e-002
2.422256e+003;3.535125e-002
2.424185e+003;3.485770e-002
2.426113e+003;3.473489e-002
2.428042e+003;3.465594e-002
2.429970e+003;3.433229e-002
2.431899e+003;3.418092e-002
2.433828e+003;3.437177e-002
2.435756e+003;3.425821e-002
2.437685e+003;3.369943e-002
2.439613e+003;3.313472e-002
2.441542e+003;3.323433e-002
2.443470e+003;3.341364e-002
2.445399e+003;3.328172e-002
2.447327e+003;3.345139e-002
2.449256e+003;3.355898e-002
2.451185e+003;3.351807e-002
2.453113e+003;3.366642e-002
2.455042e+003;3.388768e-002
2.456970e+003;3.411403e-002
2.458899e+003;3.385268e-002
2.460827e+003;3.386404e-002
2.462756e+003;3.396384e-002
2.464684e+003;3.384014e-002
2.466613e+003;3.410686e-002
2.468542e+003;3.474882e-002
2.470470e+003;3.515249e-002
2.472398e+003;3.552587e-002
2.474327e+003;3.600924e-002
2.476256e+003;3.631429e-002
2.478184e+003;3.638119e-002
2.480113e+003;3.634394e-002
2.482041e+003;3.613806e-002
2.483970e+003;3.598476e-002
2.485898e+003;3.598418e-002
2.487827e+003;3.579388e-002
2.489755e+003;3.590180e-002
2.491684e+003;3.633662e-002
2.493613e+003;3.657031e-002
2.495541e+003;3.644169e-002
2.497470e+003;3.626303e-002
2.499398e+003;3.628086e-002
2.501327e+003;3.621902e-002
2.503255e+003;3.611620e-002
2.505184e+003;3.637485e-002
2.507112e+003;3.672858e-002
2.509041e+003;3.668380e-002
2.510969e+003;3.673485e-002
2.512898e+003;3.684932e-002
2.514827e+003;3.708104e-002
2.516755e+003;3.735861e-002
2.518684e+003;3.764694e-002
2.520612e+003;3.818369e-002
2.522541e+003;3.879471e-002
2.524469e+003;3.918741e-002
2.526398e+003;3.941443e-002
2.528326e+003;3.956855e-002
2.530255e+003;3.962775e-002
2.532184e+003;3.921043e-002
2.534112e+003;3.885482e-002
2.536041e+003;3.856091e-002
2.537969e+003;3.827241e-002
2.539898e+003;3.828019e-002
2.541826e+003;3.879391e-002
2.543755e+003;3.916166e-002
2.545683e+003;3.955556e-002
2.547612e+003;4.014929e-002
2.549541e+003;4.039577e-002
2.551469e+003;4.046385e-002
2.553397e+003;4.052117e-002
2.555326e+003;4.052372e-002
2.557255e+003;4.026001e-002
2.559183e+003;4.048956e-002
2.561112e+003;4.080316e-002
2.563040e+003;4.072837e-002
2.564969e+003;4.091292e-002
2.566897e+003;4.099087e-002
2.568826e+003;4.117214e-002
2.570754e+003;4.165535e-002
2.572683e+003;4.200410e-002
2.574612e+003;4.213044e-002
2.576540e+003;4.226226e-002
2.578469e+003;4.267206e-002
2.580397e+003;4.311552e-002
2.582326e+003;4.310407e-002
2.584254e+003;4.324705e-002
2.586183e+003;4.367688e-002
2.588111e+003;4.427099e-002
2.590040e+003;4.481089e-002
2.591969e+003;4.524495e-002
2.593897e+003;4.550431e-002
2.595826e+003;4.580587e-002
2.597754e+003;4.637161e-002
2.599683e+003;4.675682e-002
2.601611e+003;4.686329e-002
2.603540e+003;4.711900e-002
2.605468e+003;4.736415e-002
2.607397e+003;4.772720e-002
2.609325e+003;4.833993e-002
2.611254e+003;4.876874e-002
2.613183e+003;4.926449e-002
2.615111e+003;4.969556e-002
2.617040e+003;5.008158e-002
2.618968e+003;5.077428e-002
2.620897e+003;5.137055e-002
2.622825e+003;5.189190e-002
2.624754e+003;5.254179e-002
2.626682e+003;5.319067e-002
2.628611e+003;5.363428e-002
2.630540e+003;5.382991e-002
2.632468e+003;5.401902e-002
2.634396e+003;5.443662e-002
2.636325e+003;5.435543e-002
2.638254e+003;5.394360e-002
2.640182e+003;5.374069e-002
2.642111e+003;5.372029e-002
2.644039e+003;5.378858e-002
2.645968e+003;5.376034e-002
2.647896e+003;5.367219e-002
2.649825e+003;5.341147e-002
2.651753e+003;5.315431e-002
2.653682e+003;5.357858e-002
2.655611e+003;5.388681e-002
2.657539e+003;5.364328e-002
2.659468e+003;5.343121e-002
2.661396e+003;5.374879e-002
2.663325e+003;5.400750e-002
2.665253e+003;5.386783e-002
2.667182e+003;5.363406e-002
2.669110e+003;5.331473e-002
2.671039e+003;5.297688e-002
2.672968e+003;5.268306e-002
2.674896e+003;5.255035e-002
2.676825e+003;5.233071e-002
2.678753e+003;5.173294e-002
2.680682e+003;5.162187e-002
2.682610e+003;5.157012e-002
2.684539e+003;5.150054e-002
2.686467e+003;5.170304e-002
2.688396e+003;5.152169e-002
2.690324e+003;5.123802e-002
2.692253e+003;5.119261e-002
2.694182e+003;5.151486e-002
2.696110e+003;5.197293e-002
2.698039e+003;5.209421e-002
2.699967e+003;5.227824e-002
2.701896e+003;5.245927e-002
2.703824e+003;5.264378e-002
2.705753e+003;5.289764e-002
2.707681e+003;5.332492e-002
2.709610e+003;5.347678e-002
2.711539e+003;5.361261e-002
2.713467e+003;5.382031e-002
2.715396e+003;5.407047e-002
2.717324e+003;5.443129e-002
2.719253e+003;5.455378e-002
2.721181e+003;5.486169e-002
2.723110e+003;5.538417e-002
2.725038e+003;5.583836e-002
2.726967e+003;5.605967e-002
2.728896e+003;5.649792e-002
2.730824e+003;5.716363e-002
2.732752e+003;5.744405e-002
2.734681e+003;5.783414e-002
2.736610e+003;5.786663e-002
2.738538e+003;5.793034e-002
2.740467e+003;5.845039e-002
2.742395e+003;5.872060e-002
2.744324e+003;5.896642e-002
2.746252e+003;5.918364e-002
2.748181e+003;5.898874e-002
2.750109e+003;5.899071e-002
2.752038e+003;5.924657e-002
2.753967e+003;5.935641e-002
2.755895e+003;5.973906e-002
2.757824e+003;6.052314e-002
2.759752e+003;6.133885e-002
2.761681e+003;6.179259e-002
2.763609e+003;6.201887e-002
2.765538e+003;6.261039e-002
2.767466e+003;6.325480e-002
2.769395e+003;6.352387e-002
2.771323e+003;6.399387e-002
2.773252e+003;6.476367e-002
2.775181e+003;6.580444e-002
2.777109e+003;6.674493e-002
2.779038e+003;6.733627e-002
2.780966e+003;6.797498e-002
2.782895e+003;6.897984e-002
2.784823e+003;6.993341e-002
2.786752e+003;7.057663e-002
2.788680e+003;7.127229e-002
2.790609e+003;7.209669e-002
2.792538e+003;7.286819e-002
2.794466e+003;7.388785e-002
2.796395e+003;7.471925e-002
2.798323e+003;7.556044e-002
2.800252e+003;7.658143e-002
2.802180e+003;7.737587e-002
2.804109e+003;7.836765e-002
2.806037e+003;7.970671e-002
2.807966e+003;8.072031e-002
2.809895e+003;8.149067e-002
2.811823e+003;8.273496e-002
2.813751e+003;8.413628e-002
2.815680e+003;8.534653e-002
2.817609e+003;8.662733e-002
2.819537e+003;8.837637e-002
2.821466e+003;9.055732e-002
2.823394e+003;9.283416e-002
2.825323e+003;9.511785e-002
2.827251e+003;9.771405e-002
2.829180e+003;1.013159e-001
2.831108e+003;1.060280e-001
2.833037e+003;1.115053e-001
2.834966e+003;1.184861e-001
2.836894e+003;1.277290e-001
2.838823e+003;1.401034e-001
2.840751e+003;1.574298e-001
2.842680e+003;1.821154e-001
2.844608e+003;2.149677e-001
2.846537e+003;2.530971e-001
2.848465e+003;2.811078e-001
2.850394e+003;2.756107e-001
2.852323e+003;2.391375e-001
2.854251e+003;1.967147e-001
2.856180e+003;1.627316e-001
2.858108e+003;1.390548e-001
2.860037e+003;1.234364e-001
2.861965e+003;1.136077e-001
2.863894e+003;1.079708e-001
2.865822e+003;1.051503e-001
2.867751e+003;1.043437e-001
2.869679e+003;1.048813e-001
2.871608e+003;1.064438e-001
2.873536e+003;1.095417e-001
2.875465e+003;1.134832e-001
2.877394e+003;1.183213e-001
2.879322e+003;1.240592e-001
2.881251e+003;1.293498e-001
2.883179e+003;1.342399e-001
2.885108e+003;1.396593e-001
2.887036e+003;1.449952e-001
2.888965e+003;1.507036e-001
2.890893e+003;1.567257e-001
2.892822e+003;1.624288e-001
2.894750e+003;1.684979e-001
2.896679e+003;1.749547e-001
2.898608e+003;1.813964e-001
2.900536e+003;1.883777e-001
2.902465e+003;1.970006e-001
2.904393e+003;2.075275e-001
2.906322e+003;2.207695e-001
2.908250e+003;2.377474e-001
2.910179e+003;2.590663e-001
2.912107e+003;2.841662e-001
2.914036e+003;3.081122e-001
2.915965e+003;3.197932e-001
2.917893e+003;3.124036e-001
2.919822e+003;2.900878e-001
2.921750e+003;2.599287e-001
2.923679e+003;2.294617e-001
2.925607e+003;2.026003e-001
2.927536e+003;1.792160e-001
2.929464e+003;1.589427e-001
2.931393e+003;1.421378e-001
2.933322e+003;1.281315e-001
2.935250e+003;1.163803e-001
2.937178e+003;1.064953e-001
2.939107e+003;9.841728e-002
2.941036e+003;9.184407e-002
2.942964e+003;8.652870e-002
2.944893e+003;8.217246e-002
2.946821e+003;7.852186e-002
2.948750e+003;7.512309e-002
2.950678e+003;7.216997e-002
2.952607e+003;7.007551e-002
2.954535e+003;6.851326e-002
2.956464e+003;6.723414e-002
2.958393e+003;6.605504e-002
2.960321e+003;6.499166e-002
2.962250e+003;6.424397e-002
2.964178e+003;6.325629e-002
2.966107e+003;6.228435e-002
2.968035e+003;6.165845e-002
2.969964e+003;6.132286e-002
2.971892e+003;6.057483e-002
2.973821e+003;5.945047e-002
2.975750e+003;5.846081e-002
2.977678e+003;5.742536e-002
2.979607e+003;5.691335e-002
2.981535e+003;5.680129e-002
2.983464e+003;5.610544e-002
2.985392e+003;5.543740e-002
2.987321e+003;5.504460e-002
2.989249e+003;5.421373e-002
2.991178e+003;5.329379e-002
2.993106e+003;5.283077e-002
2.995035e+003;5.285913e-002
2.996964e+003;5.270782e-002
2.998892e+003;5.224333e-002
3.000821e+003;5.134720e-002
3.002749e+003;5.082635e-002
3.004678e+003;5.079424e-002
3.006606e+003;5.055054e-002
3.008535e+003;5.025802e-002
3.010463e+003;5.019732e-002
3.012392e+003;4.984252e-002
3.014321e+003;4.918682e-002
3.016249e+003;4.885617e-002
3.018177e+003;4.866095e-002
3.020106e+003;4.863538e-002
3.022035e+003;4.873579e-002
3.023963e+003;4.843337e-002
3.025892e+003;4.804208e-002
3.027820e+003;4.793972e-002
3.029749e+003;4.783199e-002
3.031677e+003;4.771097e-002
3.033606e+003;4.746618e-002
3.035534e+003;4.714293e-002
3.037463e+003;4.693136e-002
3.039392e+003;4.635689e-002
3.041320e+003;4.606221e-002
3.043249e+003;4.619939e-002
3.045177e+003;4.611552e-002
3.047106e+003;4.571924e-002
3.049034e+003;4.553923e-002
3.050963e+003;4.541303e-002
3.052891e+003;4.493386e-002
3.054820e+003;4.449769e-002
3.056749e+003;4.418254e-002
3.058677e+003;4.387353e-002
3.060606e+003;4.364156e-002
3.062534e+003;4.389714e-002
3.064463e+003;4.395569e-002
3.066391e+003;4.364683e-002
3.068320e+003;4.344168e-002
3.070248e+003;4.298538e-002
3.072177e+003;4.253621e-002
3.074105e+003;4.243763e-002
3.076034e+003;4.274419e-002
3.077963e+003;4.272434e-002
3.079891e+003;4.230170e-002
3.081820e+003;4.204301e-002
3.083748e+003;4.187374e-002
3.085677e+003;4.227865e-002
3.087605e+003;4.252470e-002
3.089534e+003;4.155120e-002
3.091462e+003;4.051615e-002
3.093391e+003;4.042897e-002
3.095320e+003;4.028651e-002
3.097248e+003;3.991785e-002
3.099177e+003;3.963476e-002
3.101105e+003;3.967984e-002
3.103034e+003;3.957810e-002
3.104962e+003;3.862588e-002
3.106891e+003;3.797787e-002
3.108819e+003;3.799437e-002
3.110748e+003;3.774285e-002
3.112677e+003;3.703966e-002
3.114605e+003;3.613197e-002
3.116533e+003;3.553813e-002
3.118462e+003;3.530011e-002
3.120391e+003;3.532807e-002
3.122319e+003;3.534065e-002
3.124248e+003;3.479778e-002
3.126176e+003;3.434276e-002
3.128105e+003;3.402261e-002
3.130033e+003;3.369388e-002
3.131962e+003;3.365353e-002
3.133890e+003;3.388671e-002
3.135819e+003;3.372392e-002
3.137748e+003;3.342827e-002
3.139676e+003;3.320700e-002
3.141605e+003;3.325894e-002
3.143533e+003;3.298798e-002
3.145462e+003;3.304797e-002
3.147390e+003;3.305849e-002
3.149319e+003;3.273896e-002
3.151247e+003;3.248671e-002
3.153176e+003;3.250057e-002
3.155104e+003;3.280038e-002
3.157033e+003;3.300739e-002
3.158962e+003;3.312049e-002
3.160890e+003;3.310937e-002
3.162819e+003;3.287750e-002
3.164747e+003;3.236554e-002
3.166676e+003;3.188667e-002
3.168604e+003;3.196766e-002
3.170533e+003;3.231628e-002
3.172461e+003;3.251721e-002
3.174390e+003;3.255089e-002
3.176319e+003;3.283082e-002
3.178247e+003;3.293072e-002
3.180176e+003;3.256564e-002
3.182104e+003;3.230493e-002
3.184033e+003;3.235626e-002
3.185961e+003;3.246390e-002
3.187890e+003;3.227945e-002
3.189818e+003;3.257003e-002
3.191747e+003;3.273438e-002
3.193676e+003;3.234205e-002
3.195604e+003;3.202751e-002
3.197532e+003;3.217902e-002
3.199461e+003;3.275375e-002
3.201390e+003;3.295849e-002
3.203318e+003;3.223255e-002
3.205247e+003;3.184481e-002
3.207175e+003;3.202434e-002
3.209104e+003;3.231243e-002
3.211032e+003;3.267515e-002
3.212961e+003;3.253843e-002
3.214889e+003;3.229551e-002
3.216818e+003;3.209614e-002
3.218747e+003;3.209946e-002
3.220675e+003;3.261593e-002
3.222604e+003;3.245126e-002
3.224532e+003;3.206090e-002
3.226461e+003;3.216322e-002
3.228389e+003;3.248432e-002
3.230318e+003;3.280213e-002
3.232246e+003;3.289022e-002
3.234175e+003;3.249439e-002
3.236104e+003;3.247815e-002
3.238032e+003;3.215951e-002
3.239961e+003;3.147587e-002
3.241889e+003;3.193963e-002
3.243818e+003;3.264239e-002
3.245746e+003;3.294827e-002
3.247675e+003;3.293926e-002
3.249603e+003;3.255017e-002
3.251532e+003;3.229169e-002
3.253460e+003;3.189887e-002
3.255389e+003;3.190522e-002
3.257318e+003;3.208148e-002
3.259246e+003;3.203874e-002
3.261175e+003;3.222324e-002
3.263103e+003;3.243959e-002
3.265032e+003;3.256056e-002
3.266960e+003;3.246226e-002
3.268889e+003;3.282464e-002
3.270817e+003;3.312796e-002
3.272746e+003;3.289390e-002
3.274675e+003;3.274728e-002
3.276603e+003;3.293440e-002
3.278531e+003;3.272795e-002
3.280460e+003;3.236429e-002
3.282389e+003;3.283361e-002
3.284317e+003;3.333589e-002
3.286246e+003;3.309885e-002
3.288174e+003;3.306124e-002
3.290103e+003;3.264504e-002
3.292031e+003;3.198538e-002
3.293960e+003;3.182463e-002
3.295888e+003;3.146885e-002
3.297817e+003;3.177311e-002
3.299746e+003;3.231061e-002
3.301674e+003;3.235019e-002
3.303603e+003;3.228673e-002
3.305531e+003;3.218641e-002
3.307460e+003;3.209372e-002
3.309388e+003;3.226899e-002
3.311317e+003;3.255121e-002
3.313245e+003;3.287778e-002
3.315174e+003;3.299674e-002
3.317103e+003;3.302173e-002
3.319031e+003;3.283904e-002
3.320960e+003;3.267236e-002
3.322888e+003;3.271252e-002
3.324817e+003;3.281499e-002
3.326745e+003;3.267354e-002
3.328674e+003;3.264279e-002
3.330602e+003;3.284587e-002
3.332531e+003;3.270391e-002
3.334459e+003;3.275500e-002
3.336388e+003;3.300829e-002
3.338317e+003;3.278523e-002
3.340245e+003;3.251360e-002
3.342174e+003;3.229544e-002
3.344102e+003;3.235722e-002
3.346031e+003;3.273356e-002
3.347959e+003;3.293569e-002
3.349888e+003;3.283215e-002
3.351816e+003;3.309356e-002
3.353745e+003;3.325636e-002
3.355674e+003;3.314466e-002
3.357602e+003;3.300099e-002
3.359531e+003;3.268898e-002
3.361459e+003;3.268565e-002
3.363388e+003;3.293608e-002
3.365316e+003;3.325439e-002
3.367245e+003;3.348414e-002
3.369173e+003;3.329889e-002
3.371102e+003;3.282714e-002
3.373031e+003;3.250971e-002
3.374959e+003;3.236308e-002
3.376887e+003;3.244476e-002
3.378816e+003;3.267183e-002
3.380745e+003;3.262578e-002
3.382673e+003;3.230068e-002
3.384602e+003;3.217646e-002
3.386530e+003;3.230257e-002
3.388459e+003;3.215173e-002
3.390387e+003;3.191623e-002
3.392316e+003;3.177803e-002
3.394244e+003;3.184706e-002
3.396173e+003;3.175654e-002
3.398102e+003;3.165339e-002
3.400030e+003;3.170360e-002
3.401959e+003;3.161860e-002
3.403887e+003;3.171116e-002
3.405816e+003;3.180641e-002
3.407744e+003;3.154801e-002
3.409673e+003;3.075773e-002
3.411601e+003;3.069049e-002
3.413530e+003;3.121475e-002
3.415458e+003;3.140712e-002
3.417387e+003;3.143704e-002
3.419316e+003;3.167021e-002
3.421244e+003;3.190899e-002
3.423173e+003;3.209543e-002
3.425101e+003;3.210599e-002
3.427030e+003;3.195318e-002
3.428958e+003;3.180980e-002
3.430887e+003;3.141421e-002
3.432815e+003;3.111578e-002
3.434744e+003;3.115358e-002
3.436673e+003;3.146411e-002
3.438601e+003;3.176962e-002
3.440530e+003;3.202209e-002
3.442458e+003;3.154983e-002
3.444387e+003;3.053131e-002
3.446315e+003;3.010779e-002
3.448244e+003;3.040236e-002
3.450172e+003;3.097104e-002
3.452101e+003;3.107987e-002
3.454030e+003;3.106972e-002
3.455958e+003;3.139750e-002
3.457886e+003;3.106677e-002
3.459815e+003;3.058104e-002
3.461744e+003;3.048901e-002
3.463672e+003;3.037276e-002
3.465601e+003;3.009110e-002
3.467529e+003;2.993421e-002
3.469458e+003;2.995423e-002
3.471386e+003;3.007743e-002
3.473315e+003;3.016316e-002
3.475243e+003;3.028312e-002
3.477172e+003;3.060383e-002
3.479101e+003;3.035905e-002
3.481029e+003;3.005449e-002
3.482958e+003;3.042173e-002
3.484886e+003;3.043471e-002
3.486815e+003;3.002083e-002
3.488743e+003;2.996112e-002
3.490672e+003;2.995260e-002
3.492600e+003;2.962417e-002
3.494529e+003;2.943581e-002
3.496458e+003;2.958189e-002
3.498386e+003;2.991252e-002
3.500315e+003;3.010101e-002
3.502243e+003;2.982929e-002
3.504172e+003;2.948815e-002
3.506100e+003;2.941854e-002
3.508029e+003;2.994003e-002
3.509957e+003;3.057155e-002
3.511886e+003;3.053220e-002
3.513814e+003;3.005140e-002
3.515743e+003;2.959001e-002
3.517672e+003;2.965315e-002
3.519600e+003;3.003223e-002
3.521529e+003;2.988788e-002
3.523457e+003;2.936799e-002
3.525386e+003;2.933895e-002
3.527314e+003;2.958285e-002
3.529243e+003;2.891543e-002
3.531171e+003;2.861879e-002
3.533100e+003;2.915799e-002
3.535029e+003;2.920086e-002
3.536957e+003;2.901747e-002
3.538885e+003;2.884737e-002
3.540814e+003;2.882095e-002
3.542743e+003;2.896480e-002
3.544671e+003;2.927285e-002
3.546600e+003;2.949737e-002
3.548528e+003;2.963233e-002
3.550457e+003;2.982382e-002
3.552385e+003;2.961303e-002
3.554314e+003;2.922875e-002
3.556242e+003;2.941117e-002
3.558171e+003;2.984849e-002
3.560100e+003;2.983060e-002
3.562028e+003;2.987646e-002
3.563957e+003;3.004075e-002
3.565885e+003;2.955741e-002
3.567814e+003;2.926033e-002
3.569742e+003;2.953103e-002
3.571671e+003;3.004068e-002
3.573599e+003;3.023296e-002
3.575528e+003;3.032732e-002
3.577457e+003;3.024248e-002
3.579385e+003;3.009100e-002
3.581314e+003;3.020593e-002
3.583242e+003;3.088682e-002
3.585171e+003;3.050156e-002
3.587099e+003;2.986233e-002
3.589028e+003;3.079408e-002
3.590956e+003;3.185148e-002
3.592885e+003;3.209529e-002
3.594813e+003;3.250885e-002
3.596742e+003;3.314359e-002
3.598671e+003;3.396789e-002
3.600599e+003;3.476045e-002
3.602528e+003;3.551904e-002
3.604456e+003;3.576531e-002
3.606385e+003;3.531287e-002
3.608313e+003;3.429604e-002
3.610242e+003;3.412353e-002
3.612170e+003;3.453441e-002
3.614099e+003;3.459095e-002
3.616028e+003;3.380554e-002
3.617956e+003;3.275511e-002
3.619885e+003;3.248065e-002
3.621813e+003;3.280116e-002
3.623742e+003;3.277301e-002
3.625670e+003;3.224593e-002
3.627599e+003;3.082966e-002
3.629527e+003;3.010407e-002
3.631456e+003;3.111446e-002
3.633385e+003;3.194220e-002
3.635313e+003;3.171922e-002
3.637241e+003;3.183233e-002
3.639170e+003;3.270548e-002
3.641099e+003;3.340784e-002
3.643027e+003;3.375891e-002
3.644956e+003;3.287357e-002
3.646884e+003;3.142364e-002
3.648813e+003;3.137713e-002
3.650741e+003;3.244301e-002
3.652670e+003;3.300228e-002
3.654598e+003;3.217881e-002
3.656527e+003;3.169248e-002
3.658456e+003;3.267268e-002
3.660384e+003;3.292017e-002
3.662313e+003;3.265614e-002
3.664241e+003;3.231371e-002
3.666170e+003;3.166561e-002
3.668098e+003;3.038037e-002
3.670027e+003;2.933130e-002
3.671955e+003;2.980182e-002
3.673884e+003;2.993960e-002
3.675813e+003;2.995199e-002
3.677741e+003;3.130604e-002
3.679669e+003;3.150960e-002
3.681598e+003;3.098164e-002
3.683527e+003;3.079206e-002
3.685455e+003;3.097378e-002
3.687384e+003;2.981190e-002
3.689312e+003;2.917517e-002
3.691241e+003;2.979167e-002
3.693169e+003;3.063028e-002
3.695098e+003;3.119805e-002
3.697026e+003;3.124526e-002
3.698955e+003;3.107097e-002
3.700884e+003;3.128343e-002
3.702812e+003;3.159523e-002
3.704741e+003;3.102659e-002
3.706669e+003;3.021555e-002
3.708598e+003;2.992881e-002
3.710526e+003;2.917730e-002
3.712455e+003;2.906090e-002
3.714383e+003;3.019353e-002
3.716312e+003;3.075592e-002
3.718240e+003;3.032508e-002
3.720169e+003;3.016654e-002
3.722098e+003;3.038840e-002
3.724026e+003;3.002023e-002
3.725955e+003;2.928536e-002
3.727883e+003;2.965280e-002
3.729812e+003;2.976570e-002
3.731740e+003;2.883890e-002
3.733669e+003;2.844488e-002
3.735597e+003;2.833448e-002
3.737526e+003;2.882871e-002
3.739455e+003;2.900642e-002
3.741383e+003;2.848216e-002
3.743312e+003;2.640560e-002
3.745240e+003;2.627861e-002
3.747169e+003;2.770376e-002
3.749097e+003;2.743420e-002
3.751026e+003;2.779079e-002
3.752954e+003;2.900607e-002
3.754883e+003;2.976190e-002
3.756812e+003;2.957050e-002
3.758740e+003;2.960264e-002
3.760668e+003;2.979316e-002
3.762597e+003;3.041782e-002
3.764526e+003;3.060860e-002
3.766454e+003;3.057518e-002
3.768383e+003;3.026223e-002
3.770311e+003;2.984682e-002
3.772240e+003;3.017616e-002
3.774168e+003;3.073245e-002
3.776097e+003;3.061084e-002
3.778025e+003;3.009980e-002
3.779954e+003;3.028181e-002
3.781883e+003;3.089686e-002
3.783811e+003;3.118641e-002
3.785740e+003;3.139540e-002
3.787668e+003;3.124084e-002
3.789597e+003;3.102086e-002
3.791525e+003;3.159758e-002
3.793454e+003;3.213674e-002
3.795382e+003;3.183272e-002
3.797311e+003;3.143608e-002
3.799240e+003;3.024010e-002
3.801168e+003;2.905779e-002
3.803097e+003;3.032376e-002
3.805025e+003;3.114369e-002
3.806954e+003;3.076527e-002
3.808882e+003;3.158621e-002
3.810811e+003;3.192782e-002
3.812739e+003;3.204938e-002
3.814668e+003;3.126203e-002
3.816596e+003;3.124248e-002
3.818525e+003;3.180980e-002
3.820454e+003;3.107132e-002
3.822382e+003;3.150946e-002
3.824311e+003;3.195075e-002
3.826239e+003;3.168753e-002
3.828168e+003;3.198524e-002
3.830096e+003;3.226953e-002
3.832025e+003;3.232542e-002
3.833953e+003;3.209586e-002
3.835882e+003;3.062605e-002
3.837811e+003;2.951269e-002
3.839739e+003;3.079497e-002
3.841667e+003;3.202045e-002
3.843596e+003;3.228098e-002
3.845525e+003;3.258703e-002
3.847453e+003;3.272631e-002
3.849382e+003;3.179176e-002
3.851310e+003;2.952014e-002
3.853239e+003;2.780298e-002
3.855167e+003;2.983323e-002
3.857096e+003;3.225107e-002
3.859024e+003;3.232599e-002
3.860953e+003;3.170859e-002
3.862882e+003;3.180388e-002
3.864810e+003;3.251989e-002
3.866739e+003;3.280349e-002
3.868667e+003;3.199897e-002
3.870596e+003;3.239992e-002
3.872524e+003;3.352358e-002
3.874453e+003;3.410937e-002
3.876381e+003;3.446223e-002
3.878310e+003;3.385451e-002
3.880239e+003;3.354334e-002
3.882167e+003;3.365693e-002
3.884096e+003;3.307812e-002
3.886024e+003;3.301147e-002
3.887953e+003;3.412439e-002
3.889881e+003;3.396144e-002
3.891810e+003;3.348679e-002
3.893738e+003;3.415199e-002
3.895667e+003;3.467291e-002
3.897595e+003;3.437791e-002
3.899524e+003;3.363541e-002
3.901453e+003;3.315997e-002
3.903381e+003;3.328129e-002
3.905310e+003;3.442055e-002
3.907238e+003;3.506207e-002
3.909167e+003;3.477922e-002
3.911095e+003;3.479031e-002
3.913024e+003;3.464962e-002
3.914952e+003;3.410539e-002
3.916881e+003;3.403157e-002
3.918810e+003;3.449817e-002
3.920738e+003;3.454363e-002
3.922667e+003;3.446757e-002
3.924595e+003;3.499940e-002
3.926524e+003;3.549656e-002
3.928452e+003;3.499997e-002
3.930381e+003;3.464194e-002
3.932309e+003;3.412826e-002
3.934238e+003;3.362263e-002
3.936167e+003;3.394543e-002
3.938095e+003;3.424204e-002
3.940023e+003;3.396323e-002
3.941952e+003;3.366413e-002
3.943881e+003;3.338999e-002
3.945809e+003;3.318908e-002
3.947738e+003;3.336183e-002
3.949666e+003;3.353128e-002
3.951595e+003;3.375931e-002
3.953523e+003;3.418683e-002
3.955452e+003;3.428890e-002
3.957380e+003;3.413088e-002
3.959309e+003;3.427650e-002
3.961238e+003;3.426513e-002
3.963166e+003;3.360813e-002
3.965095e+003;3.342967e-002
3.967023e+003;3.373696e-002
3.968952e+003;3.413589e-002
3.970880e+003;3.406765e-002
3.972809e+003;3.353833e-002
3.974737e+003;3.367455e-002
3.976666e+003;3.432799e-002
3.978594e+003;3.432167e-002
3.980523e+003;3.383147e-002
3.982452e+003;3.374978e-002
3.984380e+003;3.344796e-002
3.986309e+003;3.311748e-002
3.988237e+003;3.345794e-002
3.990166e+003;3.301912e-002
3.992094e+003;3.230939e-002
3.994023e+003;3.283965e-002
3.995951e+003;3.331525e-002
3.997880e+003;3.310136e-002
3.999809e+003;3.321262e-002
4.001737e+003;0.000000e+000
