3.992094e+002;0.000000e+000
4.011380e+002;0.000000e+000
4.030665e+002;0.000000e+000
4.049951e+002;0.000000e+000
4.069236e+002;0.000000e+000
4.088522e+002;0.000000e+000
4.107807e+002;0.000000e+000
4.127093e+002;0.000000e+000
4.146378e+002;0.000000e+000
4.165664e+002;0.000000e+000
4.184949e+002;0.000000e+000
4.204235e+002;0.000000e+000
4.223520e+002;0.000000e+000
4.242806e+002;0.000000e+000
4.262091e+002;0.000000e+000
4.281377e+002;0.000000e+000
4.300662e+002;0.000000e+000
4.319948e+002;0.000000e+000
4.339233e+002;0.000000e+000
4.358519e+002;0.000000e+000
4.377804e+002;0.000000e+000
4.397090e+002;0.000000e+000
4.416375e+002;0.000000e+000
4.435660e+002;0.000000e+000
4.454946e+002;0.000000e+000
4.474232e+002;0.000000e+000
4.493517e+002;0.000000e+000
4.512802e+002;0.000000e+000
4.532088e+002;0.000000e+000
4.551373e+002;0.000000e+000
4.570659e+002;0.000000e+000
4.589944e+002;0.000000e+000
4.609230e+002;0.000000e+000
4.628515e+002;0.000000e+000
4.647801e+002;0.000000e+000
4.667086e+002;0.000000e+000
4.686372e+002;0.000000e+000
4.705657e+002;0.000000e+000
4.724943e+002;0.000000e+000
4.744228e+002;0.000000e+000
4.763513e+002;0.000000e+000
4.782799e+002;0.000000e+000
4.802085e+002;0.000000e+000
4.821370e+002;0.000000e+000
4.840656e+002;0.000000e+000
4.859941e+002;0.000000e+000
4.879226e+002;0.000000e+000
4.898512e+002;0.000000e+000
4.917798e+002;0.000000e+000
4.937083e+002;0.000000e+000
4.956368e+002;0.000000e+000
4.975654e+002;0.000000e+000
4.994939e+002;0.000000e+000
5.014225e+002;0.000000e+000
5.033510e+002;0.000000e+000
5.052796e+002;0.000000e+000
5.072081e+002;0.000000e+000
5.091367e+002;0.000000e+000
5.110652e+002;0.000000e+000
5.129938e+002;0.000000e+000
5.149223e+002;0.000000e+000
5.168509e+002;0.000000e+000
5.187794e+002;0.000000e+000
5.207079e+002;0.000000e+000
5.226365e+002;0.000000e+000
5.245651e+002;0.000000e+000
5.264936e+002;0.000000e+000
5.284222e+002;0.000000e+000
5.303507e+002;0.000000e+000
5.322792e+002;0.000000e+000
5.342078e+002;0.000000e+000
5.361364e+002;0.000000e+000
5.380649e+002;0.000000e+000
5.399935e+002;0.000000e+000
5.419220e+002;0.000000e+000
5.438505e+002;0.000000e+000
5.457791e+002;0.000000e+000
5.477076e+002;0.000000e+000
5.496362e+002;0.000000e+000
5.515648e+002;0.000000e+000
5.534933e+002;0.000000e+000
5.554218e+002;0.000000e+000
5.573504e+002;0.000000e+000
5.592789e+002;0.000000e+000
5.612075e+002;0.000000e+000
5.631360e+002;0.000000e+000
5.650646e+002;0.000000e+000
5.669931e+002;0.000000e+000
5.689217e+002;0.000000e+000
5.708502e+002;0.000000e+000
5.727787e+002;0.000000e+000
5.747073e+002;0.000000e+000
5.766359e+002;0.000000e+000
5.785644e+002;0.000000e+000
5.804930e+002;0.000000e+000
5.824215e+002;0.000000e+000
5.843500e+002;0.000000e+000
5.862786e+002;0.000000e+000
5.882072e+002;0.000000e+000
5.901357e+002;0.000000e+000
5.920643e+002;0.000000e+000
5.939928e+002;0.000000e+000
5.959213e+002;0.000000e+000
5.978499e+002;0.000000e+000
5.997784e+002;2.455192e-002
6.017070e+002;3.132858e-002
6.036355e+002;3.191620e-002
6.055641e+002;3.188143e-002
6.074926e+002;3.374935e-002
6.094211e+002;3.057233e-002
6.113497e+002;3.280295e-002
6.132783e+002;3.623789e-002
6.152068e+002;3.357881e-002
6.171354e+002;3.261721e-002
6.190639e+002;3.129952e-002
6.209924e+002;2.770429e-002
6.229210e+002;2.973798e-002
6.248495e+002;3.059267e-002
6.267781e+002;2.921600e-002
6.287067e+002;2.943454e-002
6.306352e+002;3.070211e-002
6.325637e+002;3.226035e-002
6.344923e+002;3.681036e-002
6.364208e+002;3.985254e-002
6.383494e+002;3.670128e-002
6.402780e+002;3.119438e-002
6.422065e+002;3.041996e-002
6.441350e+002;3.415751e-002
6.460636e+002;3.452691e-002
6.479921e+002;3.208298e-002
6.499207e+002;3.335020e-002
6.518492e+002;3.603768e-002
6.537778e+002;3.478838e-002
6.557063e+002;3.192914e-002
6.576349e+002;3.167580e-002
6.595634e+002;3.180887e-002
6.614919e+002;3.248011e-002
6.634205e+002;3.361232e-002
6.653491e+002;3.185119e-002
6.672776e+002;3.098545e-002
6.692062e+002;3.167260e-002
6.711347e+002;3.160189e-002
6.730632e+002;3.132958e-002
6.749918e+002;3.233541e-002
6.769203e+002;3.259632e-002
6.788489e+002;3.160011e-002
6.807775e+002;3.148844e-002
6.827060e+002;3.170728e-002
6.846345e+002;3.169758e-002
6.865631e+002;3.149528e-002
6.884916e+002;3.089995e-002
6.904202e+002;3.010776e-002
6.923488e+002;3.015570e-002
6.942773e+002;3.111240e-002
6.962058e+002;3.167798e-002
6.981344e+002;3.133546e-002
7.000629e+002;3.124067e-002
7.019915e+002;3.166205e-002
7.039200e+002;3.353600e-002
7.058486e+002;3.626342e-002
7.077771e+002;3.993710e-002
7.097057e+002;4.522605e-002
7.116342e+002;5.088532e-002
7.135627e+002;5.398311e-002
7.154913e+002;5.349102e-002
7.174199e+002;4.978466e-002
7.193484e+002;4.503474e-002
7.212770e+002;4.034384e-002
7.232055e+002;3.741682e-002
7.251340e+002;3.641056e-002
7.270626e+002;3.487045e-002
7.289911e+002;3.365858e-002
7.309197e+002;3.348278e-002
7.328483e+002;3.298759e-002
7.347768e+002;3.223462e-002
7.367053e+002;3.161796e-002
7.386339e+002;3.191623e-002
7.405624e+002;3.251900e-002
7.424910e+002;3.289630e-002
7.444196e+002;3.284598e-002
7.463481e+002;3.290870e-002
7.482766e+002;3.237761e-002
7.502052e+002;3.155984e-002
7.521337e+002;3.111286e-002
7.540623e+002;3.133439e-002
7.559908e+002;3.159957e-002
7.579194e+002;3.165595e-002
7.598479e+002;3.222695e-002
7.617765e+002;3.258042e-002
7.637050e+002;3.328390e-002
7.656335e+002;3.409224e-002
7.675621e+002;3.430801e-002
7.694907e+002;3.431167e-002
7.714192e+002;3.425373e-002
7.733478e+002;3.441879e-002
7.752763e+002;3.493228e-002
7.772048e+002;3.440297e-002
7.791334e+002;3.388725e-002
7.810620e+002;3.454660e-002
7.829905e+002;3.536667e-002
7.849191e+002;3.596288e-002
7.868476e+002;3.626814e-002
7.887761e+002;3.721907e-002
7.907047e+002;3.831583e-002
7.926332e+002;3.900870e-002
7.945618e+002;3.981132e-002
7.964903e+002;4.055914e-002
7.984189e+002;4.189388e-002
8.003474e+002;4.365698e-002
8.022759e+002;4.541561e-002
8.042045e+002;4.911079e-002
8.061331e+002;5.383197e-002
8.080616e+002;5.751867e-002
8.099902e+002;5.862609e-002
8.119187e+002;5.719307e-002
8.138472e+002;5.411869e-002
8.157758e+002;4.993291e-002
8.177043e+002;4.726162e-002
8.196329e+002;4.621609e-002
8.215615e+002;4.453748e-002
8.234900e+002;4.382002e-002
8.254185e+002;4.467572e-002
8.273471e+002;4.559947e-002
8.292756e+002;4.641323e-002
8.312042e+002;4.761523e-002
8.331328e+002;4.969177e-002
8.350613e+002;5.280349e-002
8.369898e+002;5.729476e-002
8.389184e+002;6.202326e-002
8.408469e+002;6.444474e-002
8.427755e+002;6.279600e-002
8.447040e+002;5.851226e-002
8.466326e+002;5.500808e-002
8.485611e+002;5.176041e-002
8.504897e+002;4.861437e-002
8.524182e+002;4.727916e-002
8.543467e+002;4.679837e-002
8.562753e+002;4.619921e-002
8.582039e+002;4.578838e-002
8.601324e+002;4.656959e-002
8.620610e+002;4.833774e-002
8.639895e+002;5.108083e-002
8.659180e+002;5.486835e-002
8.678466e+002;6.158907e-002
8.697751e+002;7.300685e-002
8.717037e+002;8.679612e-002
8.736323e+002;9.837722e-002
8.755608e+002;1.023442e-001
8.774893e+002;9.714413e-002
8.794179e+002;8.692065e-002
8.813464e+002;7.708327e-002
8.832750e+002;6.891902e-002
8.852036e+002;5.959515e-002
8.871321e+002;5.085339e-002
8.890606e+002;4.647835e-002
8.909892e+002;4.655152e-002
8.929177e+002;4.935012e-002
8.948463e+002;5.357284e-002
8.967748e+002;5.790573e-002
8.987034e+002;6.058949e-002
9.006319e+002;5.989258e-002
9.025605e+002;5.531706e-002
9.044890e+002;4.957852e-002
9.064175e+002;4.526282e-002
9.083461e+002;4.186674e-002
9.102747e+002;3.971085e-002
9.122032e+002;3.870367e-002
9.141318e+002;3.784684e-002
9.160603e+002;3.701692e-002
9.179888e+002;3.702999e-002
9.199174e+002;3.678909e-002
9.218459e+002;3.657572e-002
9.237745e+002;3.684957e-002
9.257031e+002;3.655780e-002
9.276316e+002;3.642241e-002
9.295601e+002;3.688452e-002
9.314887e+002;3.732333e-002
9.334172e+002;3.843850e-002
9.353458e+002;4.032476e-002
9.372744e+002;4.215362e-002
9.392029e+002;4.415195e-002
9.411314e+002;4.522892e-002
9.430600e+002;4.471208e-002
9.449885e+002;4.380873e-002
9.469171e+002;4.341824e-002
9.488456e+002;4.364350e-002
9.507742e+002;4.419630e-002
9.527027e+002;4.494919e-002
9.546313e+002;4.594765e-002
9.565598e+002;4.701487e-002
9.584883e+002;4.829956e-002
9.604169e+002;4.995793e-002
9.623455e+002;5.214487e-002
9.642740e+002;5.536309e-002
9.662026e+002;5.968785e-002
9.681311e+002;6.538005e-002
9.700596e+002;7.173204e-002
9.719882e+002;7.584286e-002
9.739167e+002;7.513026e-002
9.758453e+002;7.002384e-002
9.777739e+002;6.311365e-002
9.797024e+002;5.611894e-002
9.816309e+002;5.006158e-002
9.835595e+002;4.578809e-002
9.854880e+002;4.382790e-002
9.874166e+002;4.410864e-002
9.893452e+002;4.640969e-002
9.912737e+002;5.022733e-002
9.932022e+002;5.454533e-002
9.951307e+002;5.938000e-002
9.970593e+002;6.286233e-002
9.989879e+002;6.210652e-002
1.000916e+003;5.784133e-002
1.002845e+003;5.265111e-002
1.004773e+003;4.801392e-002
1.006702e+003;4.444310e-002
1.008631e+003;4.168536e-002
1.010559e+003;3.948080e-002
1.012488e+003;3.794298e-002
1.014416e+003;3.690526e-002
1.016345e+003;3.615167e-002
1.018273e+003;3.531880e-002
1.020202e+003;3.462217e-002
1.022130e+003;3.454563e-002
1.024059e+003;3.456300e-002
1.025988e+003;3.394450e-002
1.027916e+003;3.359535e-002
1.029845e+003;3.377503e-002
1.031773e+003;3.398624e-002
1.033702e+003;3.430744e-002
1.035630e+003;3.492201e-002
1.037559e+003;3.575484e-002
1.039487e+003;3.641066e-002
1.041416e+003;3.690645e-002
1.043344e+003;3.785704e-002
1.045273e+003;3.819989e-002
1.047202e+003;3.793340e-002
1.049130e+003;3.748765e-002
1.051059e+003;3.632711e-002
1.052987e+003;3.498755e-002
1.054916e+003;3.368980e-002
1.056844e+003;3.299588e-002
1.058773e+003;3.271541e-002
1.060701e+003;3.272513e-002
1.062630e+003;3.256081e-002
1.064558e+003;3.222249e-002
1.066487e+003;3.195721e-002
1.068416e+003;3.201356e-002
1.070344e+003;3.244266e-002
1.072273e+003;3.216208e-002
1.074201e+003;3.173255e-002
1.076130e+003;3.193863e-002
1.078058e+003;3.234562e-002
1.079987e+003;3.250600e-002
1.081915e+003;3.244394e-002
1.083844e+003;3.285412e-002
1.085773e+003;3.330158e-002
1.087701e+003;3.354646e-002
1.089630e+003;3.418382e-002
1.091558e+003;3.524886e-002
1.093487e+003;3.615361e-002
1.095415e+003;3.726502e-002
1.097344e+003;3.936948e-002
1.099272e+003;4.168646e-002
1.101201e+003;4.289035e-002
1.103129e+003;4.303360e-002
1.105058e+003;4.202260e-002
1.106987e+003;4.001996e-002
1.108915e+003;3.727531e-002
1.110844e+003;3.526651e-002
1.112772e+003;3.401558e-002
1.114701e+003;3.327318e-002
1.116629e+003;3.295145e-002
1.118558e+003;3.251225e-002
1.120486e+003;3.274074e-002
1.122415e+003;3.283275e-002
1.124344e+003;3.256139e-002
1.126272e+003;3.246190e-002
1.128201e+003;3.289923e-002
1.130129e+003;3.313501e-002
1.132058e+003;3.346489e-002
1.133986e+003;3.474344e-002
1.135915e+003;3.693831e-002
1.137843e+003;3.908893e-002
1.139772e+003;4.116325e-002
1.141700e+003;4.388446e-002
1.143629e+003;4.741802e-002
1.145557e+003;5.113133e-002
1.147486e+003;5.496983e-002
1.149415e+003;5.902077e-002
1.151343e+003;6.234497e-002
1.153272e+003;6.384539e-002
1.155200e+003;6.407397e-002
1.157129e+003;6.377224e-002
1.159057e+003;6.368065e-002
1.160986e+003;6.398351e-002
1.162914e+003;6.436100e-002
1.164843e+003;6.408634e-002
1.166771e+003;6.233977e-002
1.168700e+003;5.886339e-002
1.170629e+003;5.485677e-002
1.172557e+003;5.082493e-002
1.174486e+003;4.637190e-002
1.176414e+003;4.216954e-002
1.178343e+003;3.871541e-002
1.180271e+003;3.641960e-002
1.182200e+003;3.475593e-002
1.184128e+003;3.338458e-002
1.186057e+003;3.247554e-002
1.187986e+003;3.215847e-002
1.189914e+003;3.241199e-002
1.191843e+003;3.301801e-002
1.193771e+003;3.376278e-002
1.195700e+003;3.382872e-002
1.197628e+003;3.346309e-002
1.199557e+003;3.320775e-002
1.201485e+003;3.316823e-002
1.203414e+003;3.372951e-002
1.205343e+003;3.416048e-002
1.207271e+003;3.464004e-002
1.209200e+003;3.563714e-002
1.211128e+003;3.681238e-002
1.213057e+003;3.853353e-002
1.214985e+003;4.020355e-002
1.216914e+003;4.133030e-002
1.218842e+003;4.153133e-002
1.220771e+003;4.092715e-002
1.222699e+003;3.963969e-002
1.224628e+003;3.816245e-002
1.226557e+003;3.702973e-002
1.228485e+003;3.631663e-002
1.230414e+003;3.621977e-002
1.232342e+003;3.619917e-002
1.234271e+003;3.630064e-002
1.236199e+003;3.641845e-002
1.238128e+003;3.635615e-002
1.240056e+003;3.676399e-002
1.241985e+003;3.732145e-002
1.243913e+003;3.756499e-002
1.245842e+003;3.799903e-002
1.247771e+003;3.916579e-002
1.249699e+003;4.101902e-002
1.251628e+003;4.345105e-002
1.253556e+003;4.643985e-002
1.255485e+003;4.866225e-002
1.257413e+003;4.791652e-002
1.259342e+003;4.514119e-002
1.261270e+003;4.302482e-002
1.263199e+003;4.124719e-002
1.265127e+003;4.007883e-002
1.267056e+003;3.945718e-002
1.268985e+003;3.889733e-002
1.270913e+003;3.871480e-002
1.272842e+003;3.879768e-002
1.274770e+003;3.892824e-002
1.276699e+003;3.913809e-002
1.278627e+003;3.940805e-002
1.280556e+003;3.985232e-002
1.282484e+003;4.103544e-002
1.284413e+003;4.235433e-002
1.286342e+003;4.387734e-002
1.288270e+003;4.578282e-002
1.290199e+003;4.780332e-002
1.292127e+003;4.971886e-002
1.294056e+003;5.110979e-002
1.295984e+003;5.179013e-002
1.297913e+003;5.170894e-002
1.299841e+003;5.176187e-002
1.301770e+003;5.274089e-002
1.303698e+003;5.403628e-002
1.305627e+003;5.372209e-002
1.307556e+003;5.120283e-002
1.309484e+003;4.828190e-002
1.311413e+003;4.653050e-002
1.313341e+003;4.596253e-002
1.315270e+003;4.632903e-002
1.317198e+003;4.735675e-002
1.319127e+003;4.860110e-002
1.321055e+003;5.048362e-002
1.322984e+003;5.321356e-002
1.324912e+003;5.616079e-002
1.326841e+003;5.857186e-002
1.328770e+003;5.975830e-002
1.330698e+003;5.962988e-002
1.332627e+003;5.862385e-002
1.334555e+003;5.757999e-002
1.336484e+003;5.692566e-002
1.338412e+003;5.678599e-002
1.340341e+003;5.773365e-002
1.342269e+003;5.934482e-002
1.344198e+003;6.116457e-002
1.346126e+003;6.349139e-002
1.348055e+003;6.668948e-002
1.349984e+003;7.028114e-002
1.351912e+003;7.470351e-002
1.353841e+003;8.111709e-002
1.355769e+003;8.857029e-002
1.357698e+003;9.404037e-002
1.359626e+003;9.553357e-002
1.361555e+003;9.422577e-002
1.363483e+003;9.360812e-002
1.365412e+003;9.646757e-002
1.367341e+003;1.045711e-001
1.369269e+003;1.198308e-001
1.371198e+003;1.430506e-001
1.373126e+003;1.711650e-001
1.375055e+003;1.937980e-001
1.376983e+003;1.967880e-001
1.378912e+003;1.773681e-001
1.380840e+003;1.482243e-001
1.382769e+003;1.208307e-001
1.384698e+003;1.001018e-001
1.386626e+003;8.679547e-002
1.388555e+003;8.017316e-002
1.390483e+003;7.798326e-002
1.392412e+003;7.732970e-002
1.394340e+003;7.765175e-002
1.396269e+003;7.942548e-002
1.398197e+003;8.136809e-002
1.400126e+003;8.328592e-002
1.402054e+003;8.506826e-002
1.403983e+003;8.636038e-002
1.405911e+003;8.815834e-002
1.407840e+003;9.036443e-002
1.409769e+003;9.213699e-002
1.411697e+003;9.372623e-002
1.413626e+003;9.596899e-002
1.415554e+003;9.819208e-002
1.417483e+003;9.912033e-002
1.419411e+003;1.004004e-001
1.421340e+003;1.033534e-001
1.423268e+003;1.058443e-001
1.425197e+003;1.081001e-001
1.427125e+003;1.108804e-001
1.429054e+003;1.149028e-001
1.430983e+003;1.204631e-001
1.432911e+003;1.265878e-001
1.434840e+003;1.300707e-001
1.436768e+003;1.301723e-001
1.438697e+003;1.308431e-001
1.440625e+003;1.330393e-001
1.442554e+003;1.371252e-001
1.444482e+003;1.436538e-001
1.446411e+003;1.515897e-001
1.448340e+003;1.595813e-001
1.450268e+003;1.659610e-001
1.452197e+003;1.693792e-001
1.454125e+003;1.697250e-001
1.456054e+003;1.666878e-001
1.457982e+003;1.643170e-001
1.459911e+003;1.628038e-001
1.461839e+003;1.582037e-001
1.463768e+003;1.501958e-001
1.465697e+003;1.409113e-001
1.467625e+003;1.316959e-001
1.469554e+003;1.215427e-001
1.471482e+003;1.111272e-001
1.473411e+003;1.030375e-001
1.475339e+003;9.738728e-002
1.477268e+003;9.252601e-002
1.479196e+003;8.860446e-002
1.481125e+003;8.536786e-002
1.483053e+003;8.274078e-002
1.484982e+003;8.007291e-002
1.486911e+003;7.726217e-002
1.488839e+003;7.488949e-002
1.490768e+003;7.337588e-002
1.492696e+003;7.250367e-002
1.494625e+003;7.041310e-002
1.496553e+003;6.816000e-002
1.498482e+003;6.727321e-002
1.500410e+003;6.673198e-002
1.502339e+003;6.574769e-002
1.504267e+003;6.256592e-002
1.506196e+003;5.901823e-002
1.508125e+003;5.913937e-002
1.510053e+003;5.979887e-002
1.511982e+003;5.883941e-002
1.513910e+003;5.774796e-002
1.515839e+003;5.617335e-002
1.517767e+003;5.474708e-002
1.519696e+003;5.258349e-002
1.521624e+003;5.074232e-002
1.523553e+003;5.070624e-002
1.525481e+003;5.061316e-002
1.527410e+003;5.052255e-002
1.529339e+003;5.010635e-002
1.531267e+003;4.891954e-002
1.533196e+003;4.737900e-002
1.535124e+003;4.682646e-002
1.537053e+003;4.521359e-002
1.538981e+003;4.200862e-002
1.540910e+003;4.120708e-002
1.542838e+003;4.196705e-002
1.544767e+003;4.233998e-002
1.546695e+003;4.248907e-002
1.548624e+003;4.164528e-002
1.550553e+003;4.056565e-002
1.552481e+003;3.923988e-002
1.554410e+003;3.744427e-002
1.556338e+003;3.547568e-002
1.558267e+003;3.281038e-002
1.560195e+003;3.320707e-002
1.562124e+003;3.564649e-002
1.564052e+003;3.626681e-002
1.565981e+003;3.574621e-002
1.567910e+003;3.475230e-002
1.569838e+003;3.400698e-002
1.571767e+003;3.442109e-002
1.573695e+003;3.369528e-002
1.575624e+003;3.225639e-002
1.577552e+003;3.311616e-002
1.579481e+003;3.415880e-002
1.581409e+003;3.387353e-002
1.583338e+003;3.371007e-002
1.585266e+003;3.373642e-002
1.587195e+003;3.348421e-002
1.589124e+003;3.264214e-002
1.591052e+003;3.226075e-002
1.592981e+003;3.190693e-002
1.594909e+003;3.166593e-002
1.596838e+003;3.162324e-002
1.598766e+003;3.131758e-002
1.600695e+003;3.097435e-002
1.602623e+003;3.089831e-002
1.604552e+003;3.102669e-002
1.606480e+003;3.090002e-002
1.608409e+003;3.049804e-002
1.610338e+003;3.032071e-002
1.612266e+003;3.038513e-002
1.614195e+003;2.964294e-002
1.616123e+003;2.808089e-002
1.618052e+003;2.860661e-002
1.619980e+003;2.973199e-002
1.621909e+003;2.945088e-002
1.623837e+003;2.901708e-002
1.625766e+003;2.937706e-002
1.627694e+003;2.956862e-002
1.629623e+003;2.995302e-002
1.631552e+003;3.021587e-002
1.633480e+003;2.907245e-002
1.635409e+003;2.765870e-002
1.637337e+003;2.861475e-002
1.639266e+003;2.980423e-002
1.641194e+003;2.984877e-002
1.643123e+003;2.927419e-002
1.645051e+003;2.794603e-002
1.646980e+003;2.758730e-002
1.648909e+003;2.869393e-002
1.650837e+003;2.711568e-002
1.652766e+003;2.436757e-002
1.654694e+003;2.639725e-002
1.656623e+003;2.883975e-002
1.658551e+003;2.895995e-002
1.660480e+003;2.813671e-002
1.662408e+003;2.741800e-002
1.664337e+003;2.790063e-002
1.666266e+003;2.801105e-002
1.668194e+003;2.681734e-002
1.670123e+003;2.620335e-002
1.672051e+003;2.672828e-002
1.673980e+003;2.646637e-002
1.675908e+003;2.633497e-002
1.677837e+003;2.702879e-002
1.679765e+003;2.682823e-002
1.681694e+003;2.588369e-002
1.683622e+003;2.356702e-002
1.685551e+003;2.393371e-002
1.687479e+003;2.601728e-002
1.689408e+003;2.640813e-002
1.691337e+003;2.646327e-002
1.693265e+003;2.569467e-002
1.695194e+003;2.371557e-002
1.697122e+003;2.358877e-002
1.699051e+003;2.276531e-002
1.700979e+003;2.263320e-002
1.702908e+003;2.452640e-002
1.704836e+003;2.455532e-002
1.706765e+003;2.439702e-002
1.708693e+003;2.469089e-002
1.710622e+003;2.485025e-002
1.712551e+003;2.417868e-002
1.714479e+003;2.297099e-002
1.716408e+003;2.125564e-002
1.718336e+003;2.121813e-002
1.720265e+003;2.290654e-002
1.722193e+003;2.363062e-002
1.724122e+003;2.358202e-002
1.726050e+003;2.370808e-002
1.727979e+003;2.356684e-002
1.729908e+003;2.322485e-002
1.731836e+003;2.177131e-002
1.733765e+003;2.025369e-002
1.735693e+003;2.167217e-002
1.737622e+003;2.284273e-002
1.739550e+003;2.238320e-002
1.741479e+003;2.218984e-002
1.743407e+003;2.192033e-002
1.745336e+003;2.176047e-002
1.747265e+003;2.117586e-002
1.749193e+003;2.012211e-002
1.751122e+003;1.955632e-002
1.753050e+003;2.016261e-002
1.754979e+003;2.022703e-002
1.756907e+003;1.975893e-002
1.758836e+003;1.972248e-002
1.760764e+003;1.932326e-002
1.762693e+003;1.896709e-002
1.764621e+003;1.911287e-002
1.766550e+003;1.858281e-002
1.768479e+003;1.823670e-002
1.770407e+003;1.747406e-002
1.772336e+003;1.668685e-002
1.774264e+003;1.769829e-002
1.776193e+003;1.866225e-002
1.778121e+003;1.855366e-002
1.780050e+003;1.807764e-002
1.781978e+003;1.820916e-002
1.783907e+003;1.838241e-002
1.785835e+003;1.894950e-002
1.787764e+003;1.976319e-002
1.789693e+003;2.011891e-002
1.791621e+003;2.073943e-002
1.793550e+003;2.259188e-002
1.795478e+003;2.427513e-002
1.797407e+003;2.439638e-002
1.799335e+003;2.395654e-002
1.801264e+003;2.354945e-002
1.803192e+003;2.283096e-002
1.805121e+003;2.150053e-002
1.807049e+003;2.018350e-002
1.808978e+003;1.895667e-002
1.810907e+003;1.791933e-002
1.812835e+003;1.738635e-002
1.814764e+003;1.712049e-002
1.816692e+003;1.690355e-002
1.818621e+003;1.693228e-002
1.820549e+003;1.671391e-002
1.822478e+003;1.636747e-002
1.824406e+003;1.613460e-002
1.826335e+003;1.639565e-002
1.828264e+003;1.615640e-002
1.830192e+003;1.594162e-002
1.832121e+003;1.631727e-002
1.834049e+003;1.661258e-002
1.835978e+003;1.667549e-002
1.837906e+003;1.645298e-002
1.839835e+003;1.620834e-002
1.841763e+003;1.557677e-002
1.843692e+003;1.471576e-002
1.845620e+003;1.503375e-002
1.847549e+003;1.553240e-002
1.849478e+003;1.543574e-002
1.851406e+003;1.535932e-002
1.853335e+003;1.517160e-002
1.855263e+003;1.493316e-002
1.857192e+003;1.488385e-002
1.859120e+003;1.482330e-002
1.861049e+003;1.479676e-002
1.862977e+003;1.485200e-002
1.864906e+003;1.469468e-002
1.866834e+003;1.422028e-002
1.868763e+003;1.385447e-002
1.870692e+003;1.425739e-002
1.872620e+003;1.453400e-002
1.874549e+003;1.445377e-002
1.876477e+003;1.440605e-002
1.878406e+003;1.439804e-002
1.880334e+003;1.442105e-002
1.882263e+003;1.430718e-002
1.884191e+003;1.440382e-002
1.886120e+003;1.451070e-002
1.888048e+003;1.449416e-002
1.889977e+003;1.461771e-002
1.891906e+003;1.468402e-002
1.893834e+003;1.463039e-002
1.895763e+003;1.477681e-002
1.897691e+003;1.473660e-002
1.899620e+003;1.480880e-002
1.901548e+003;1.478123e-002
1.903477e+003;1.463227e-002
1.905405e+003;1.433303e-002
1.907334e+003;1.411587e-002
1.909262e+003;1.405792e-002
1.911191e+003;1.424989e-002
1.913120e+003;1.442393e-002
1.915048e+003;1.445301e-002
1.916977e+003;1.404146e-002
1.918905e+003;1.391297e-002
1.920834e+003;1.416393e-002
1.922762e+003;1.377765e-002
1.924691e+003;1.359939e-002
1.926619e+003;1.380812e-002
1.928548e+003;1.389026e-002
1.930477e+003;1.367256e-002
1.932405e+003;1.329406e-002
1.934334e+003;1.313598e-002
1.936262e+003;1.317618e-002
1.938191e+003;1.289975e-002
1.940119e+003;1.263591e-002
1.942048e+003;1.260999e-002
1.943976e+003;1.266627e-002
1.945905e+003;1.273120e-002
1.947833e+003;1.273539e-002
1.949762e+003;1.263335e-002
1.951691e+003;1.270390e-002
1.953619e+003;1.283954e-002
1.955548e+003;1.282456e-002
1.957476e+003;1.273727e-002
1.959405e+003;1.269749e-002
1.961333e+003;1.285026e-002
1.963262e+003;1.305751e-002
1.965190e+003;1.305805e-002
1.967119e+003;1.284725e-002
1.969047e+003;1.287999e-002
1.970976e+003;1.292747e-002
1.972905e+003;1.291303e-002
1.974833e+003;1.293006e-002
1.976762e+003;1.297741e-002
1.978690e+003;1.298659e-002
1.980619e+003;1.305580e-002
1.982547e+003;1.297440e-002
1.984476e+003;1.299557e-002
1.986404e+003;1.311624e-002
1.988333e+003;1.306758e-002
1.990261e+003;1.313943e-002
1.992190e+003;1.308537e-002
1.994119e+003;1.303937e-002
1.996047e+003;1.313209e-002
1.997976e+003;1.313277e-002
1.999904e+003;1.307823e-002
2.001833e+003;1.328391e-002
2.003761e+003;1.350073e-002
2.005690e+003;1.321583e-002
2.007618e+003;1.303610e-002
2.009547e+003;1.321945e-002
2.011476e+003;1.337172e-002
2.013404e+003;1.346782e-002
2.015333e+003;1.332266e-002
2.017261e+003;1.338816e-002
2.019190e+003;1.378168e-002
2.021118e+003;1.384979e-002
2.023047e+003;1.380087e-002
2.024975e+003;1.386210e-002
2.026904e+003;1.386367e-002
2.028833e+003;1.396135e-002
2.030761e+003;1.381975e-002
2.032690e+003;1.355023e-002
2.034618e+003;1.369328e-002
2.036547e+003;1.380429e-002
2.038475e+003;1.376660e-002
2.040404e+003;1.362223e-002
2.042332e+003;1.364483e-002
2.044261e+003;1.378093e-002
2.046189e+003;1.389747e-002
2.048118e+003;1.406610e-002
2.050047e+003;1.406600e-002
2.051975e+003;1.408256e-002
2.053904e+003;1.404071e-002
2.055832e+003;1.380511e-002
2.057761e+003;1.374817e-002
2.059689e+003;1.386282e-002
2.061618e+003;1.372700e-002
2.063546e+003;1.356049e-002
2.065475e+003;1.378339e-002
2.067404e+003;1.399909e-002
2.069332e+003;1.395608e-002
2.071260e+003;1.401083e-002
2.073189e+003;1.421702e-002
2.075118e+003;1.440492e-002
2.077046e+003;1.441801e-002
2.078975e+003;1.433177e-002
2.080903e+003;1.447956e-002
2.082832e+003;1.478394e-002
2.084760e+003;1.486684e-002
2.086689e+003;1.485344e-002
2.088617e+003;1.492802e-002
2.090546e+003;1.501767e-002
2.092475e+003;1.504679e-002
2.094403e+003;1.506638e-002
2.096332e+003;1.484452e-002
2.098260e+003;1.474058e-002
2.100189e+003;1.483780e-002
2.102117e+003;1.492688e-002
2.104046e+003;1.499019e-002
2.105974e+003;1.481665e-002
2.107903e+003;1.472800e-002
2.109832e+003;1.481051e-002
2.111760e+003;1.469622e-002
2.113688e+003;1.446168e-002
2.115617e+003;1.484195e-002
2.117546e+003;1.531556e-002
2.119474e+003;1.538802e-002
2.121403e+003;1.570163e-002
2.123331e+003;1.609021e-002
2.125260e+003;1.630021e-002
2.127188e+003;1.635577e-002
2.129117e+003;1.648051e-002
2.131045e+003;1.685060e-002
2.132974e+003;1.708386e-002
2.134903e+003;1.712001e-002
2.136831e+003;1.703506e-002
2.138760e+003;1.686300e-002
2.140688e+003;1.687764e-002
2.142617e+003;1.702217e-002
2.144545e+003;1.676429e-002
2.146474e+003;1.653145e-002
2.148402e+003;1.660821e-002
2.150331e+003;1.693679e-002
2.152260e+003;1.725573e-002
2.154188e+003;1.732093e-002
2.156117e+003;1.719819e-002
2.158045e+003;1.732227e-002
2.159974e+003;1.733406e-002
2.161902e+003;1.738324e-002
2.163831e+003;1.767993e-002
2.165759e+003;1.781565e-002
2.167688e+003;1.772525e-002
2.169616e+003;1.759805e-002
2.171545e+003;1.761226e-002
2.173474e+003;1.793967e-002
2.175402e+003;1.810735e-002
2.177331e+003;1.808787e-002
2.179259e+003;1.796992e-002
2.181188e+003;1.782946e-002
2.183116e+003;1.787558e-002
2.185045e+003;1.797665e-002
2.186973e+003;1.805726e-002
2.188902e+003;1.795438e-002
2.190831e+003;1.769518e-002
2.192759e+003;1.753380e-002
2.194688e+003;1.754484e-002
2.196616e+003;1.758459e-002
2.198545e+003;1.743401e-002
2.200473e+003;1.736810e-002
2.202402e+003;1.750089e-002
2.204330e+003;1.754784e-002
2.206259e+003;1.750410e-002
2.208188e+003;1.740207e-002
2.210116e+003;1.744460e-002
2.212044e+003;1.747823e-002
2.213973e+003;1.753170e-002
2.215902e+003;1.764628e-002
2.217830e+003;1.766999e-002
2.219759e+003;1.772311e-002
2.221687e+003;1.768117e-002
2.223616e+003;1.760153e-002
2.225544e+003;1.756182e-002
2.227473e+003;1.767869e-002
2.229401e+003;1.774709e-002
2.231330e+003;1.789927e-002
2.233259e+003;1.779314e-002
2.235187e+003;1.755509e-002
2.237116e+003;1.746902e-002
2.239044e+003;1.733169e-002
2.240973e+003;1.730679e-002
2.242901e+003;1.746581e-002
2.244830e+003;1.769767e-002
2.246758e+003;1.776439e-002
2.248687e+003;1.779224e-002
2.250615e+003;1.816297e-002
2.252544e+003;1.838705e-002
2.254473e+003;1.846255e-002
2.256401e+003;1.872407e-002
2.258330e+003;1.876689e-002
2.260258e+003;1.826950e-002
2.262187e+003;1.815807e-002
2.264115e+003;1.818792e-002
2.266044e+003;1.783243e-002
2.267972e+003;1.749068e-002
2.269901e+003;1.753791e-002
2.271830e+003;1.776722e-002
2.273758e+003;1.770261e-002
2.275687e+003;1.733865e-002
2.277615e+003;1.717157e-002
2.279544e+003;1.705350e-002
2.281472e+003;1.693197e-002
2.283401e+003;1.708692e-002
2.285329e+003;1.729807e-002
2.287258e+003;1.753801e-002
2.289187e+003;1.734410e-002
2.291115e+003;1.717747e-002
2.293043e+003;1.708875e-002
2.294972e+003;1.691433e-002
2.296901e+003;1.681092e-002
2.298829e+003;1.701459e-002
2.300758e+003;1.718936e-002
2.302686e+003;1.718916e-002
2.304615e+003;1.722908e-002
2.306543e+003;1.749513e-002
2.308472e+003;1.784389e-002
2.310400e+003;1.755947e-002
2.312329e+003;1.706852e-002
2.314258e+003;1.724593e-002
2.316186e+003;1.750569e-002
2.318115e+003;1.762392e-002
2.320043e+003;1.789419e-002
2.321972e+003;1.814843e-002
2.323900e+003;1.813958e-002
2.325829e+003;1.800604e-002
2.327757e+003;1.796546e-002
2.329686e+003;1.803049e-002
2.331615e+003;1.814380e-002
2.333543e+003;1.820101e-002
2.335472e+003;1.820868e-002
2.337400e+003;1.840391e-002
2.339329e+003;1.868543e-002
2.341257e+003;1.880924e-002
2.343186e+003;1.880918e-002
2.345114e+003;1.893649e-002
2.347043e+003;1.922136e-002
2.348971e+003;1.945402e-002
2.350900e+003;1.957262e-002
2.352829e+003;1.953245e-002
2.354757e+003;1.951421e-002
2.356686e+003;1.982232e-002
2.358614e+003;1.998240e-002
2.360543e+003;2.014952e-002
2.362471e+003;2.030761e-002
2.364400e+003;2.014817e-002
2.366328e+003;1.992416e-002
2.368257e+003;2.016702e-002
2.370186e+003;2.033192e-002
2.372114e+003;2.015723e-002
2.374042e+003;2.002355e-002
2.375971e+003;2.014112e-002
2.377900e+003;2.007009e-002
2.379828e+003;2.012138e-002
2.381757e+003;2.028369e-002
2.383685e+003;2.010021e-002
2.385614e+003;2.004198e-002
2.387542e+003;2.022988e-002
2.389471e+003;2.043398e-002
2.391399e+003;2.053074e-002
2.393328e+003;2.060825e-002
2.395257e+003;2.061301e-002
2.397185e+003;2.051584e-002
2.399114e+003;2.049722e-002
2.401042e+003;2.054638e-002
2.402971e+003;2.044898e-002
2.404899e+003;2.048989e-002
2.406828e+003;2.053523e-002
2.408756e+003;2.062170e-002
2.410685e+003;2.081089e-002
2.412614e+003;2.084837e-002
2.414542e+003;2.093772e-002
2.416471e+003;2.103300e-002
2.418399e+003;2.093396e-002
2.420328e+003;2.086839e-002
2.422256e+003;2.114009e-002
2.424185e+003;2.138242e-002
2.426113e+003;2.133498e-002
2.428042e+003;2.141535e-002
2.429970e+003;2.151240e-002
2.431899e+003;2.140428e-002
2.433828e+003;2.137302e-002
2.435756e+003;2.125456e-002
2.437685e+003;2.101568e-002
2.439613e+003;2.067726e-002
2.441542e+003;2.057375e-002
2.443470e+003;2.071806e-002
2.445399e+003;2.055603e-002
2.447327e+003;2.034167e-002
2.449256e+003;2.022988e-002
2.451185e+003;2.007005e-002
2.453113e+003;1.987074e-002
2.455042e+003;1.975109e-002
2.456970e+003;1.991503e-002
2.458899e+003;2.021513e-002
2.460827e+003;2.011787e-002
2.462756e+003;1.999465e-002
2.464684e+003;1.988943e-002
2.466613e+003;1.985409e-002
2.468542e+003;1.997723e-002
2.470470e+003;2.016469e-002
2.472398e+003;2.035646e-002
2.474327e+003;2.038702e-002
2.476256e+003;2.064255e-002
2.478184e+003;2.084378e-002
2.480113e+003;2.101001e-002
2.482041e+003;2.135440e-002
2.483970e+003;2.166472e-002
2.485898e+003;2.168993e-002
2.487827e+003;2.172721e-002
2.489755e+003;2.216822e-002
2.491684e+003;2.257558e-002
2.493613e+003;2.270508e-002
2.495541e+003;2.306186e-002
2.497470e+003;2.368758e-002
2.499398e+003;2.392695e-002
2.501327e+003;2.390892e-002
2.503255e+003;2.425751e-002
2.505184e+003;2.487040e-002
2.507112e+003;2.564753e-002
2.509041e+003;2.633623e-002
2.510969e+003;2.658292e-002
2.512898e+003;2.684955e-002
2.514827e+003;2.744154e-002
2.516755e+003;2.772064e-002
2.518684e+003;2.778835e-002
2.520612e+003;2.793801e-002
2.522541e+003;2.803173e-002
2.524469e+003;2.843341e-002
2.526398e+003;2.849140e-002
2.528326e+003;2.808252e-002
2.530255e+003;2.792543e-002
2.532184e+003;2.778623e-002
2.534112e+003;2.757145e-002
2.536041e+003;2.725858e-002
2.537969e+003;2.677448e-002
2.539898e+003;2.663375e-002
2.541826e+003;2.683965e-002
2.543755e+003;2.705227e-002
2.545683e+003;2.699913e-002
2.547612e+003;2.695161e-002
2.549541e+003;2.720076e-002
2.551469e+003;2.760114e-002
2.553397e+003;2.782689e-002
2.555326e+003;2.788656e-002
2.557255e+003;2.832114e-002
2.559183e+003;2.891316e-002
2.561112e+003;2.916252e-002
2.563040e+003;2.913021e-002
2.564969e+003;2.930609e-002
2.566897e+003;2.986457e-002
2.568826e+003;3.050991e-002
2.570754e+003;3.106677e-002
2.572683e+003;3.181811e-002
2.574612e+003;3.254639e-002
2.576540e+003;3.333671e-002
2.578469e+003;3.393063e-002
2.580397e+003;3.426280e-002
2.582326e+003;3.432497e-002
2.584254e+003;3.395922e-002
2.586183e+003;3.329489e-002
2.588111e+003;3.247422e-002
2.590040e+003;3.183743e-002
2.591969e+003;3.120065e-002
2.593897e+003;3.037564e-002
2.595826e+003;3.017662e-002
2.597754e+003;3.020610e-002
2.599683e+003;3.006650e-002
2.601611e+003;3.045631e-002
2.603540e+003;3.095794e-002
2.605468e+003;3.117413e-002
2.607397e+003;3.151894e-002
2.609325e+003;3.203882e-002
2.611254e+003;3.244919e-002
2.613183e+003;3.264389e-002
2.615111e+003;3.277422e-002
2.617040e+003;3.283057e-002
2.618968e+003;3.267547e-002
2.620897e+003;3.222770e-002
2.622825e+003;3.216475e-002
2.624754e+003;3.219280e-002
2.626682e+003;3.203414e-002
2.628611e+003;3.178153e-002
2.630540e+003;3.148075e-002
2.632468e+003;3.122329e-002
2.634396e+003;3.119171e-002
2.636325e+003;3.108948e-002
2.638254e+003;3.087800e-002
2.640182e+003;3.096218e-002
2.642111e+003;3.151391e-002
2.644039e+003;3.218795e-002
2.645968e+003;3.277368e-002
2.647896e+003;3.328523e-002
2.649825e+003;3.330383e-002
2.651753e+003;3.341274e-002
2.653682e+003;3.387227e-002
2.655611e+003;3.420945e-002
2.657539e+003;3.459224e-002
2.659468e+003;3.495515e-002
2.661396e+003;3.506760e-002
2.663325e+003;3.505316e-002
2.665253e+003;3.510457e-002
2.667182e+003;3.517218e-002
2.669110e+003;3.507120e-002
2.671039e+003;3.490050e-002
2.672968e+003;3.499326e-002
2.674896e+003;3.554004e-002
2.676825e+003;3.597101e-002
2.678753e+003;3.594106e-002
2.680682e+003;3.570285e-002
2.682610e+003;3.548207e-002
2.684539e+003;3.563807e-002
2.686467e+003;3.586160e-002
2.688396e+003;3.599232e-002
2.690324e+003;3.596687e-002
2.692253e+003;3.591885e-002
2.694182e+003;3.569347e-002
2.696110e+003;3.543372e-002
2.698039e+003;3.573408e-002
2.699967e+003;3.634390e-002
2.701896e+003;3.687356e-002
2.703824e+003;3.744568e-002
2.705753e+003;3.808825e-002
2.707681e+003;3.891816e-002
2.709610e+003;3.982752e-002
2.711539e+003;4.106352e-002
2.713467e+003;4.230499e-002
2.715396e+003;4.354210e-002
2.717324e+003;4.527430e-002
2.719253e+003;4.727665e-002
2.721181e+003;4.867808e-002
2.723110e+003;4.883667e-002
2.725038e+003;4.819962e-002
2.726967e+003;4.737608e-002
2.728896e+003;4.625504e-002
2.730824e+003;4.511278e-002
2.732752e+003;4.384754e-002
2.734681e+003;4.260243e-002
2.736610e+003;4.156571e-002
2.738538e+003;4.057595e-002
2.740467e+003;3.980144e-002
2.742395e+003;3.908247e-002
2.744324e+003;3.813170e-002
2.746252e+003;3.756564e-002
2.748181e+003;3.757930e-002
2.750109e+003;3.761793e-002
2.752038e+003;3.734900e-002
2.753967e+003;3.693852e-002
2.755895e+003;3.738248e-002
2.757824e+003;3.841671e-002
2.759752e+003;3.884232e-002
2.761681e+003;3.907551e-002
2.763609e+003;3.960652e-002
2.765538e+003;3.992108e-002
2.767466e+003;4.030756e-002
2.769395e+003;4.074867e-002
2.771323e+003;4.117691e-002
2.773252e+003;4.153673e-002
2.775181e+003;4.196691e-002
2.777109e+003;4.271330e-002
2.779038e+003;4.391715e-002
2.780966e+003;4.507238e-002
2.782895e+003;4.647794e-002
2.784823e+003;4.819022e-002
2.786752e+003;4.989901e-002
2.788680e+003;5.123407e-002
2.790609e+003;5.270236e-002
2.792538e+003;5.440154e-002
2.794466e+003;5.577423e-002
2.796395e+003;5.710316e-002
2.798323e+003;5.862707e-002
2.800252e+003;6.004675e-002
2.802180e+003;6.142884e-002
2.804109e+003;6.329308e-002
2.806037e+003;6.535032e-002
2.807966e+003;6.702379e-002
2.809895e+003;6.854162e-002
2.811823e+003;7.000816e-002
2.813751e+003;7.167697e-002
2.815680e+003;7.370646e-002
2.817609e+003;7.570048e-002
2.819537e+003;7.797680e-002
2.821466e+003;8.095868e-002
2.823394e+003;8.431782e-002
2.825323e+003;8.844054e-002
2.827251e+003;9.394333e-002
2.829180e+003;1.013490e-001
2.831108e+003;1.104394e-001
2.833037e+003;1.195618e-001
2.834966e+003;1.268460e-001
2.836894e+003;1.301458e-001
2.838823e+003;1.291359e-001
2.840751e+003;1.256822e-001
2.842680e+003;1.211414e-001
2.844608e+003;1.162133e-001
2.846537e+003;1.114673e-001
2.848465e+003;1.077933e-001
2.850394e+003;1.054978e-001
2.852323e+003;1.040212e-001
2.854251e+003;1.033535e-001
2.856180e+003;1.046544e-001
2.858108e+003;1.080541e-001
2.860037e+003;1.135947e-001
2.861965e+003;1.213329e-001
2.863894e+003;1.293309e-001
2.865822e+003;1.356515e-001
2.867751e+003;1.396907e-001
2.869679e+003;1.417625e-001
2.871608e+003;1.424973e-001
2.873536e+003;1.430335e-001
2.875465e+003;1.429010e-001
2.877394e+003;1.415157e-001
2.879322e+003;1.399181e-001
2.881251e+003;1.391507e-001
2.883179e+003;1.383951e-001
2.885108e+003;1.380870e-001
2.887036e+003;1.386025e-001
2.888965e+003;1.400260e-001
2.890893e+003;1.427656e-001
2.892822e+003;1.463176e-001
2.894750e+003;1.505061e-001
2.896679e+003;1.552242e-001
2.898608e+003;1.607319e-001
2.900536e+003;1.666832e-001
2.902465e+003;1.724179e-001
2.904393e+003;1.782530e-001
2.906322e+003;1.835909e-001
2.908250e+003;1.882397e-001
2.910179e+003;1.922079e-001
2.912107e+003;1.954205e-001
2.914036e+003;1.977938e-001
2.915965e+003;1.980451e-001
2.917893e+003;1.960306e-001
2.919822e+003;1.923695e-001
2.921750e+003;1.871620e-001
2.923679e+003;1.813163e-001
2.925607e+003;1.744238e-001
2.927536e+003;1.668410e-001
2.929464e+003;1.588891e-001
2.931393e+003;1.500383e-001
2.933322e+003;1.418601e-001
2.935250e+003;1.351763e-001
2.937178e+003;1.298827e-001
2.939107e+003;1.267440e-001
2.941036e+003;1.272364e-001
2.942964e+003;1.317658e-001
2.944893e+003;1.394632e-001
2.946821e+003;1.477153e-001
2.948750e+003;1.543047e-001
2.950678e+003;1.581680e-001
2.952607e+003;1.592814e-001
2.954535e+003;1.577526e-001
2.956464e+003;1.540393e-001
2.958393e+003;1.492723e-001
2.960321e+003;1.437804e-001
2.962250e+003;1.366673e-001
2.964178e+003;1.288875e-001
2.966107e+003;1.212977e-001
2.968035e+003;1.139119e-001
2.969964e+003;1.069869e-001
2.971892e+003;1.003715e-001
2.973821e+003;9.416445e-002
2.975750e+003;8.883853e-002
2.977678e+003;8.411697e-002
2.979607e+003;7.984825e-002
2.981535e+003;7.585386e-002
2.983464e+003;7.263446e-002
2.985392e+003;6.984168e-002
2.987321e+003;6.705670e-002
2.989249e+003;6.474902e-002
2.991178e+003;6.240449e-002
2.993106e+003;6.019170e-002
2.995035e+003;5.853644e-002
2.996964e+003;5.704240e-002
2.998892e+003;5.512103e-002
3.000821e+003;5.301944e-002
3.002749e+003;5.103197e-002
3.004678e+003;4.932072e-002
3.006606e+003;4.761616e-002
3.008535e+003;4.573367e-002
3.010463e+003;4.412437e-002
3.012392e+003;4.279615e-002
3.014321e+003;4.162012e-002
3.016249e+003;4.046573e-002
3.018177e+003;3.930252e-002
3.020106e+003;3.818640e-002
3.022035e+003;3.714972e-002
3.023963e+003;3.605262e-002
3.025892e+003;3.493763e-002
3.027820e+003;3.403597e-002
3.029749e+003;3.309428e-002
3.031677e+003;3.218766e-002
3.033606e+003;3.168917e-002
3.035534e+003;3.101613e-002
3.037463e+003;3.028305e-002
3.039392e+003;2.977194e-002
3.041320e+003;2.925551e-002
3.043249e+003;2.881306e-002
3.045177e+003;2.814526e-002
3.047106e+003;2.773823e-002
3.049034e+003;2.779697e-002
3.050963e+003;2.754243e-002
3.052891e+003;2.701990e-002
3.054820e+003;2.695545e-002
3.056749e+003;2.698471e-002
3.058677e+003;2.664858e-002
3.060606e+003;2.646437e-002
3.062534e+003;2.625404e-002
3.064463e+003;2.566317e-002
3.066391e+003;2.502354e-002
3.068320e+003;2.458944e-002
3.070248e+003;2.461458e-002
3.072177e+003;2.469450e-002
3.074105e+003;2.471579e-002
3.076034e+003;2.454747e-002
3.077963e+003;2.408313e-002
3.079891e+003;2.385616e-002
3.081820e+003;2.403886e-002
3.083748e+003;2.387034e-002
3.085677e+003;2.379281e-002
3.087605e+003;2.393077e-002
3.089534e+003;2.391235e-002
3.091462e+003;2.383117e-002
3.093391e+003;2.381105e-002
3.095320e+003;2.355204e-002
3.097248e+003;2.345096e-002
3.099177e+003;2.342110e-002
3.101105e+003;2.334504e-002
3.103034e+003;2.325009e-002
3.104962e+003;2.315118e-002
3.106891e+003;2.303953e-002
3.108819e+003;2.326886e-002
3.110748e+003;2.345533e-002
3.112677e+003;2.345673e-002
3.114605e+003;2.346589e-002
3.116533e+003;2.363793e-002
3.118462e+003;2.370767e-002
3.120391e+003;2.390336e-002
3.122319e+003;2.370896e-002
3.124248e+003;2.336966e-002
3.126176e+003;2.357513e-002
3.128105e+003;2.387822e-002
3.130033e+003;2.428326e-002
3.131962e+003;2.465393e-002
3.133890e+003;2.438296e-002
3.135819e+003;2.406240e-002
3.137748e+003;2.386821e-002
3.139676e+003;2.419441e-002
3.141605e+003;2.461977e-002
3.143533e+003;2.474112e-002
3.145462e+003;2.454049e-002
3.147390e+003;2.442253e-002
3.149319e+003;2.458755e-002
3.151247e+003;2.456651e-002
3.153176e+003;2.427983e-002
3.155104e+003;2.407826e-002
3.157033e+003;2.396074e-002
3.158962e+003;2.422780e-002
3.160890e+003;2.444009e-002
3.162819e+003;2.421743e-002
3.164747e+003;2.401746e-002
3.166676e+003;2.409521e-002
3.168604e+003;2.411619e-002
3.170533e+003;2.439884e-002
3.172461e+003;2.452643e-002
3.174390e+003;2.402209e-002
3.176319e+003;2.391708e-002
3.178247e+003;2.433221e-002
3.180176e+003;2.452612e-002
3.182104e+003;2.453709e-002
3.184033e+003;2.422009e-002
3.185961e+003;2.429244e-002
3.187890e+003;2.429199e-002
3.189818e+003;2.418204e-002
3.191747e+003;2.447416e-002
3.193676e+003;2.484124e-002
3.195604e+003;2.481528e-002
3.197532e+003;2.478356e-002
3.199461e+003;2.485678e-002
3.201390e+003;2.506061e-002
3.203318e+003;2.502066e-002
3.205247e+003;2.443894e-002
3.207175e+003;2.387202e-002
3.209104e+003;2.362586e-002
3.211032e+003;2.390041e-002
3.212961e+003;2.380107e-002
3.214889e+003;2.316093e-002
3.216818e+003;2.300215e-002
3.218747e+003;2.296320e-002
3.220675e+003;2.242385e-002
3.222604e+003;2.202890e-002
3.224532e+003;2.177430e-002
3.226461e+003;2.175114e-002
3.228389e+003;2.188451e-002
3.230318e+003;2.147602e-002
3.232246e+003;2.100490e-002
3.234175e+003;2.010236e-002
3.236104e+003;1.971811e-002
3.238032e+003;1.999229e-002
3.239961e+003;2.021988e-002
3.241889e+003;2.006485e-002
3.243818e+003;1.947135e-002
3.245746e+003;1.903587e-002
3.247675e+003;1.903005e-002
3.249603e+003;1.911945e-002
3.251532e+003;1.931159e-002
3.253460e+003;1.940360e-002
3.255389e+003;1.902078e-002
3.257318e+003;1.892399e-002
3.259246e+003;1.894372e-002
3.261175e+003;1.854242e-002
3.263103e+003;1.831840e-002
3.265032e+003;1.833644e-002
3.266960e+003;1.785114e-002
3.268889e+003;1.762962e-002
3.270817e+003;1.834353e-002
3.272746e+003;1.907122e-002
3.274675e+003;1.875146e-002
3.276603e+003;1.856714e-002
3.278531e+003;1.880360e-002
3.280460e+003;1.834049e-002
3.282389e+003;1.801606e-002
3.284317e+003;1.806569e-002
3.286246e+003;1.858347e-002
3.288174e+003;1.911031e-002
3.290103e+003;1.905823e-002
3.292031e+003;1.907963e-002
3.293960e+003;1.878347e-002
3.295888e+003;1.806859e-002
3.297817e+003;1.778386e-002
3.299746e+003;1.820740e-002
3.301674e+003;1.890648e-002
3.303603e+003;1.890866e-002
3.305531e+003;1.870649e-002
3.307460e+003;1.847423e-002
3.309388e+003;1.829417e-002
3.311317e+003;1.840143e-002
3.313245e+003;1.811778e-002
3.315174e+003;1.786661e-002
3.317103e+003;1.767841e-002
3.319031e+003;1.767776e-002
3.320960e+003;1.763352e-002
3.322888e+003;1.810531e-002
3.324817e+003;1.804545e-002
3.326745e+003;1.769443e-002
3.328674e+003;1.812732e-002
3.330602e+003;1.807719e-002
3.332531e+003;1.778727e-002
3.334459e+003;1.830133e-002
3.336388e+003;1.893756e-002
3.338317e+003;1.886700e-002
3.340245e+003;1.862334e-002
3.342174e+003;1.859145e-002
3.344102e+003;1.866581e-002
3.346031e+003;1.887627e-002
3.347959e+003;1.909898e-002
3.349888e+003;1.910161e-002
3.351816e+003;1.853083e-002
3.353745e+003;1.851219e-002
3.355674e+003;1.844115e-002
3.357602e+003;1.768476e-002
3.359531e+003;1.759356e-002
3.361459e+003;1.821200e-002
3.363388e+003;1.847230e-002
3.365316e+003;1.847886e-002
3.367245e+003;1.868207e-002
3.369173e+003;1.892479e-002
3.371102e+003;1.845169e-002
3.373031e+003;1.782083e-002
3.374959e+003;1.773840e-002
3.376887e+003;1.793121e-002
3.378816e+003;1.824272e-002
3.380745e+003;1.831719e-002
3.382673e+003;1.825319e-002
3.384602e+003;1.801533e-002
3.386530e+003;1.798359e-002
3.388459e+003;1.790169e-002
3.390387e+003;1.772822e-002
3.392316e+003;1.816525e-002
3.394244e+003;1.850352e-002
3.396173e+003;1.835075e-002
3.398102e+003;1.822997e-002
3.400030e+003;1.805288e-002
3.401959e+003;1.759428e-002
3.403887e+003;1.705729e-002
3.405816e+003;1.705573e-002
3.407744e+003;1.734369e-002
3.409673e+003;1.714448e-002
3.411601e+003;1.715062e-002
3.413530e+003;1.745467e-002
3.415458e+003;1.756927e-002
3.417387e+003;1.761344e-002
3.419316e+003;1.750434e-002
3.421244e+003;1.735175e-002
3.423173e+003;1.745467e-002
3.425101e+003;1.732686e-002
3.427030e+003;1.683162e-002
3.428958e+003;1.634728e-002
3.430887e+003;1.617246e-002
3.432815e+003;1.629897e-002
3.434744e+003;1.649624e-002
3.436673e+003;1.687372e-002
3.438601e+003;1.703544e-002
3.440530e+003;1.648664e-002
3.442458e+003;1.607384e-002
3.444387e+003;1.629333e-002
3.446315e+003;1.606370e-002
3.448244e+003;1.584783e-002
3.450172e+003;1.575557e-002
3.452101e+003;1.557299e-002
3.454030e+003;1.565986e-002
3.455958e+003;1.572719e-002
3.457886e+003;1.548961e-002
3.459815e+003;1.527407e-002
3.461744e+003;1.510922e-002
3.463672e+003;1.479138e-002
3.465601e+003;1.436690e-002
3.467529e+003;1.446254e-002
3.469458e+003;1.471806e-002
3.471386e+003;1.507502e-002
3.473315e+003;1.511629e-002
3.475243e+003;1.464852e-002
3.477172e+003;1.480434e-002
3.479101e+003;1.456028e-002
3.481029e+003;1.400395e-002
3.482958e+003;1.378223e-002
3.484886e+003;1.368562e-002
3.486815e+003;1.382868e-002
3.488743e+003;1.389549e-002
3.490672e+003;1.385098e-002
3.492600e+003;1.411792e-002
3.494529e+003;1.440543e-002
3.496458e+003;1.431663e-002
3.498386e+003;1.443863e-002
3.500315e+003;1.440040e-002
3.502243e+003;1.420021e-002
3.504172e+003;1.410122e-002
3.506100e+003;1.405573e-002
3.508029e+003;1.356004e-002
3.509957e+003;1.303118e-002
3.511886e+003;1.349188e-002
3.513814e+003;1.399365e-002
3.515743e+003;1.373302e-002
3.517672e+003;1.383610e-002
3.519600e+003;1.427413e-002
3.521529e+003;1.407041e-002
3.523457e+003;1.379485e-002
3.525386e+003;1.389429e-002
3.527314e+003;1.349981e-002
3.529243e+003;1.320763e-002
3.531171e+003;1.354838e-002
3.533100e+003;1.361747e-002
3.535029e+003;1.311426e-002
3.536957e+003;1.302288e-002
3.538885e+003;1.333947e-002
3.540814e+003;1.350364e-002
3.542743e+003;1.329556e-002
3.544671e+003;1.312618e-002
3.546600e+003;1.311726e-002
3.548528e+003;1.312621e-002
3.550457e+003;1.288234e-002
3.552385e+003;1.281804e-002
3.554314e+003;1.283927e-002
3.556242e+003;1.247353e-002
3.558171e+003;1.230184e-002
3.560100e+003;1.263956e-002
3.562028e+003;1.331924e-002
3.563957e+003;1.292822e-002
3.565885e+003;1.168165e-002
3.567814e+003;1.152088e-002
3.569742e+003;1.232751e-002
3.571671e+003;1.255848e-002
3.573599e+003;1.246030e-002
3.575528e+003;1.278320e-002
3.577457e+003;1.300226e-002
3.579385e+003;1.264475e-002
3.581314e+003;1.251026e-002
3.583242e+003;1.248550e-002
3.585171e+003;1.190455e-002
3.587099e+003;1.120287e-002
3.589028e+003;1.146318e-002
3.590956e+003;1.203316e-002
3.592885e+003;1.237050e-002
3.594813e+003;1.260296e-002
3.596742e+003;1.220491e-002
3.598671e+003;1.189655e-002
3.600599e+003;1.220529e-002
3.602528e+003;1.235915e-002
3.604456e+003;1.205840e-002
3.606385e+003;1.136107e-002
3.608313e+003;1.097085e-002
3.610242e+003;1.137073e-002
3.612170e+003;1.116568e-002
3.614099e+003;1.089630e-002
3.616028e+003;1.149550e-002
3.617956e+003;1.156958e-002
3.619885e+003;1.185217e-002
3.621813e+003;1.221647e-002
3.623742e+003;1.200189e-002
3.625670e+003;1.144107e-002
3.627599e+003;9.931913e-003
3.629527e+003;9.928184e-003
3.631456e+003;1.187839e-002
3.633385e+003;1.229261e-002
3.635313e+003;1.203064e-002
3.637241e+003;1.209591e-002
3.639170e+003;1.189729e-002
3.641099e+003;1.192147e-002
3.643027e+003;1.191085e-002
3.644956e+003;1.144366e-002
3.646884e+003;1.035896e-002
3.648813e+003;9.694199e-003
3.650741e+003;1.045216e-002
3.652670e+003;1.139124e-002
3.654598e+003;1.097051e-002
3.656527e+003;1.062298e-002
3.658456e+003;1.143488e-002
3.660384e+003;1.219207e-002
3.662313e+003;1.261712e-002
3.664241e+003;1.298294e-002
3.666170e+003;1.277887e-002
3.668098e+003;1.144672e-002
3.670027e+003;1.052249e-002
3.671955e+003;1.127370e-002
3.673884e+003;1.118720e-002
3.675813e+003;1.123844e-002
3.677741e+003;1.234316e-002
3.679669e+003;1.274102e-002
3.681598e+003;1.299892e-002
3.683527e+003;1.288801e-002
3.685455e+003;1.226210e-002
3.687384e+003;1.071032e-002
3.689312e+003;1.049296e-002
3.691241e+003;1.156689e-002
3.693169e+003;1.257499e-002
3.695098e+003;1.302080e-002
3.697026e+003;1.306519e-002
3.698955e+003;1.293405e-002
3.700884e+003;1.239501e-002
3.702812e+003;1.239279e-002
3.704741e+003;1.299236e-002
3.706669e+003;1.334760e-002
3.708598e+003;1.297983e-002
3.710526e+003;1.227832e-002
3.712455e+003;1.258976e-002
3.714383e+003;1.351400e-002
3.716312e+003;1.347428e-002
3.718240e+003;1.286913e-002
3.720169e+003;1.246440e-002
3.722098e+003;1.246187e-002
3.724026e+003;1.274764e-002
3.725955e+003;1.280702e-002
3.727883e+003;1.294327e-002
3.729812e+003;1.237561e-002
3.731740e+003;1.182616e-002
3.733669e+003;1.167130e-002
3.735597e+003;1.117251e-002
3.737526e+003;1.206470e-002
3.739455e+003;1.303418e-002
3.741383e+003;1.268193e-002
3.743312e+003;1.078834e-002
3.745240e+003;1.104055e-002
3.747169e+003;1.185497e-002
3.749097e+003;1.044605e-002
3.751026e+003;1.033127e-002
3.752954e+003;1.205874e-002
3.754883e+003;1.361224e-002
3.756812e+003;1.337046e-002
3.758740e+003;1.298027e-002
3.760668e+003;1.350569e-002
3.762597e+003;1.409687e-002
3.764526e+003;1.378846e-002
3.766454e+003;1.416642e-002
3.768383e+003;1.403722e-002
3.770311e+003;1.356452e-002
3.772240e+003;1.410803e-002
3.774168e+003;1.463118e-002
3.776097e+003;1.407312e-002
3.778025e+003;1.344256e-002
3.779954e+003;1.352357e-002
3.781883e+003;1.394678e-002
3.783811e+003;1.416851e-002
3.785740e+003;1.416598e-002
3.787668e+003;1.393887e-002
3.789597e+003;1.399923e-002
3.791525e+003;1.382379e-002
3.793454e+003;1.373035e-002
3.795382e+003;1.338741e-002
3.797311e+003;1.323144e-002
3.799240e+003;1.263830e-002
3.801168e+003;1.228466e-002
3.803097e+003;1.379229e-002
3.805025e+003;1.381650e-002
3.806954e+003;1.320883e-002
3.808882e+003;1.418871e-002
3.810811e+003;1.449734e-002
3.812739e+003;1.422428e-002
3.814668e+003;1.281572e-002
3.816596e+003;1.254512e-002
3.818525e+003;1.304108e-002
3.820454e+003;1.220007e-002
3.822382e+003;1.306188e-002
3.824311e+003;1.449710e-002
3.826239e+003;1.468831e-002
3.828168e+003;1.458540e-002
3.830096e+003;1.431499e-002
3.832025e+003;1.381106e-002
3.833953e+003;1.291323e-002
3.835882e+003;1.186733e-002
3.837811e+003;1.163955e-002
3.839739e+003;1.273618e-002
3.841667e+003;1.357293e-002
3.843596e+003;1.355522e-002
3.845525e+003;1.396293e-002
3.847453e+003;1.484075e-002
3.849382e+003;1.418361e-002
3.851310e+003;1.138967e-002
3.853239e+003;9.263942e-003
3.855167e+003;1.120114e-002
3.857096e+003;1.385026e-002
3.859024e+003;1.457327e-002
3.860953e+003;1.418590e-002
3.862882e+003;1.387034e-002
3.864810e+003;1.378692e-002
3.866739e+003;1.375357e-002
3.868667e+003;1.327336e-002
3.870596e+003;1.319144e-002
3.872524e+003;1.378828e-002
3.874453e+003;1.444589e-002
3.876381e+003;1.517173e-002
3.878310e+003;1.499383e-002
3.880239e+003;1.438560e-002
3.882167e+003;1.453136e-002
3.884096e+003;1.423140e-002
3.886024e+003;1.446535e-002
3.887953e+003;1.560146e-002
3.889881e+003;1.510236e-002
3.891810e+003;1.465253e-002
3.893738e+003;1.555287e-002
3.895667e+003;1.565889e-002
3.897595e+003;1.482676e-002
3.899524e+003;1.408746e-002
3.901453e+003;1.417159e-002
3.903381e+003;1.418310e-002
3.905310e+003;1.442400e-002
3.907238e+003;1.524881e-002
3.909167e+003;1.613969e-002
3.911095e+003;1.631573e-002
3.913024e+003;1.584305e-002
3.914952e+003;1.545696e-002
3.916881e+003;1.520488e-002
3.918810e+003;1.520097e-002
3.920738e+003;1.551317e-002
3.922667e+003;1.567772e-002
3.924595e+003;1.569232e-002
3.926524e+003;1.584955e-002
3.928452e+003;1.608072e-002
3.930381e+003;1.627431e-002
3.932309e+003;1.564093e-002
3.934238e+003;1.556320e-002
3.936167e+003;1.621250e-002
3.938095e+003;1.644276e-002
3.940023e+003;1.598421e-002
3.941952e+003;1.530386e-002
3.943881e+003;1.533787e-002
3.945809e+003;1.565965e-002
3.947738e+003;1.590773e-002
3.949666e+003;1.610795e-002
3.951595e+003;1.607233e-002
3.953523e+003;1.587092e-002
3.955452e+003;1.601653e-002
3.957380e+003;1.640673e-002
3.959309e+003;1.592024e-002
3.961238e+003;1.524699e-002
3.963166e+003;1.535984e-002
3.965095e+003;1.572561e-002
3.967023e+003;1.588199e-002
3.968952e+003;1.573654e-002
3.970880e+003;1.591746e-002
3.972809e+003;1.634177e-002
3.974737e+003;1.648495e-002
3.976666e+003;1.620637e-002
3.978594e+003;1.639142e-002
3.980523e+003;1.638801e-002
3.982452e+003;1.637759e-002
3.984380e+003;1.664584e-002
3.986309e+003;1.680899e-002
3.988237e+003;1.704006e-002
3.990166e+003;1.732486e-002
3.992094e+003;1.781548e-002
3.994023e+003;1.784365e-002
3.995951e+003;1.788736e-002
3.997880e+003;1.799313e-002
3.999809e+003;1.792441e-002
4.001737e+003;0.000000e+000
