3.992094e+002;0.000000e+000
4.011380e+002;0.000000e+000
4.030665e+002;0.000000e+000
4.049951e+002;0.000000e+000
4.069236e+002;0.000000e+000
4.088522e+002;0.000000e+000
4.107807e+002;0.000000e+000
4.127093e+002;0.000000e+000
4.146378e+002;0.000000e+000
4.165664e+002;0.000000e+000
4.184949e+002;0.000000e+000
4.204235e+002;0.000000e+000
4.223520e+002;0.000000e+000
4.242806e+002;0.000000e+000
4.262091e+002;0.000000e+000
4.281377e+002;0.000000e+000
4.300662e+002;0.000000e+000
4.319948e+002;0.000000e+000
4.339233e+002;0.000000e+000
4.358519e+002;0.000000e+000
4.377804e+002;0.000000e+000
4.397090e+002;0.000000e+000
4.416375e+002;0.000000e+000
4.435660e+002;0.000000e+000
4.454946e+002;0.000000e+000
4.474232e+002;0.000000e+000
4.493517e+002;0.000000e+000
4.512802e+002;0.000000e+000
4.532088e+002;0.000000e+000
4.551373e+002;0.000000e+000
4.570659e+002;0.000000e+000
4.589944e+002;0.000000e+000
4.609230e+002;0.000000e+000
4.628515e+002;0.000000e+000
4.647801e+002;0.000000e+000
4.667086e+002;0.000000e+000
4.686372e+002;0.000000e+000
4.705657e+002;0.000000e+000
4.724943e+002;0.000000e+000
4.744228e+002;0.000000e+000
4.763513e+002;0.000000e+000
4.782799e+002;0.000000e+000
4.802085e+002;0.000000e+000
4.821370e+002;0.000000e+000
4.840656e+002;0.000000e+000
4.859941e+002;0.000000e+000
4.879226e+002;0.000000e+000
4.898512e+002;0.000000e+000
4.917798e+002;0.000000e+000
4.937083e+002;0.000000e+000
4.956368e+002;0.000000e+000
4.975654e+002;0.000000e+000
4.994939e+002;0.000000e+000
5.014225e+002;0.000000e+000
5.033510e+002;0.000000e+000
5.052796e+002;0.000000e+000
5.072081e+002;0.000000e+000
5.091367e+002;0.000000e+000
5.110652e+002;0.000000e+000
5.129938e+002;0.000000e+000
5.149223e+002;0.000000e+000
5.168509e+002;0.000000e+000
5.187794e+002;0.000000e+000
5.207079e+002;0.000000e+000
5.226365e+002;0.000000e+000
5.245651e+002;0.000000e+000
5.264936e+002;0.000000e+000
5.284222e+002;0.000000e+000
5.303507e+002;0.000000e+000
5.322792e+002;0.000000e+000
5.342078e+002;0.000000e+000
5.361364e+002;0.000000e+000
5.380649e+002;0.000000e+000
5.399935e+002;0.000000e+000
5.419220e+002;0.000000e+000
5.438505e+002;0.000000e+000
5.457791e+002;0.000000e+000
5.477076e+002;0.000000e+000
5.496362e+002;0.000000e+000
5.515648e+002;0.000000e+000
5.534933e+002;0.000000e+000
5.554218e+002;0.000000e+000
5.573504e+002;0.000000e+000
5.592789e+002;0.000000e+000
5.612075e+002;0.000000e+000
5.631360e+002;0.000000e+000
5.650646e+002;0.000000e+000
5.669931e+002;0.000000e+000
5.689217e+002;0.000000e+000
5.708502e+002;0.000000e+000
5.727787e+002;0.000000e+000
5.747073e+002;0.000000e+000
5.766359e+002;0.000000e+000
5.785644e+002;0.000000e+000
5.804930e+002;0.000000e+000
5.824215e+002;0.000000e+000
5.843500e+002;0.000000e+000
5.862786e+002;0.000000e+000
5.882072e+002;0.000000e+000
5.901357e+002;0.000000e+000
5.920643e+002;0.000000e+000
5.939928e+002;0.000000e+000
5.959213e+002;0.000000e+000
5.978499e+002;0.000000e+000
5.997784e+002;4.592691e-002
6.017070e+002;4.462934e-002
6.036355e+002;4.295381e-002
6.055641e+002;4.666277e-002
6.074926e+002;4.698725e-002
6.094211e+002;4.543389e-002
6.113497e+002;4.575502e-002
6.132783e+002;4.493930e-002
6.152068e+002;4.436034e-002
6.171354e+002;4.593745e-002
6.190639e+002;4.762899e-002
6.209924e+002;4.712680e-002
6.229210e+002;4.965994e-002
6.248495e+002;5.013391e-002
6.267781e+002;4.992960e-002
6.287067e+002;5.002299e-002
6.306352e+002;4.947717e-002
6.325637e+002;4.978195e-002
6.344923e+002;4.698836e-002
6.364208e+002;4.360775e-002
6.383494e+002;4.482378e-002
6.402780e+002;4.853507e-002
6.422065e+002;4.900726e-002
6.441350e+002;4.762392e-002
6.460636e+002;4.566818e-002
6.479921e+002;4.489432e-002
6.499207e+002;4.926182e-002
6.518492e+002;4.947212e-002
6.537778e+002;4.744001e-002
6.557063e+002;4.898237e-002
6.576349e+002;5.078538e-002
6.595634e+002;5.192693e-002
6.614919e+002;5.394158e-002
6.634205e+002;5.277587e-002
6.653491e+002;5.044171e-002
6.672776e+002;5.111530e-002
6.692062e+002;5.017478e-002
6.711347e+002;5.091467e-002
6.730632e+002;5.185352e-002
6.749918e+002;5.195971e-002
6.769203e+002;5.308919e-002
6.788489e+002;5.286444e-002
6.807775e+002;5.199740e-002
6.827060e+002;5.008185e-002
6.846345e+002;4.827093e-002
6.865631e+002;4.817411e-002
6.884916e+002;4.733891e-002
6.904202e+002;4.788297e-002
6.923488e+002;4.873420e-002
6.942773e+002;4.844734e-002
6.962058e+002;5.006478e-002
6.981344e+002;5.111922e-002
7.000629e+002;5.025869e-002
7.019915e+002;5.000235e-002
7.039200e+002;4.964422e-002
7.058486e+002;4.931579e-002
7.077771e+002;5.031044e-002
7.097057e+002;5.106428e-002
7.116342e+002;5.194597e-002
7.135627e+002;5.330146e-002
7.154913e+002;5.322000e-002
7.174199e+002;5.240566e-002
7.193484e+002;5.213471e-002
7.212770e+002;5.183731e-002
7.232055e+002;5.220537e-002
7.251340e+002;5.262680e-002
7.270626e+002;5.303022e-002
7.289911e+002;5.315513e-002
7.309197e+002;5.250918e-002
7.328483e+002;5.095998e-002
7.347768e+002;5.018326e-002
7.367053e+002;5.078337e-002
7.386339e+002;5.140072e-002
7.405624e+002;5.073350e-002
7.424910e+002;5.064864e-002
7.444196e+002;5.064361e-002
7.463481e+002;5.095685e-002
7.482766e+002;5.080326e-002
7.502052e+002;5.058650e-002
7.521337e+002;5.131878e-002
7.540623e+002;5.179147e-002
7.559908e+002;5.137972e-002
7.579194e+002;5.104456e-002
7.598479e+002;5.078002e-002
7.617765e+002;5.186431e-002
7.637050e+002;5.232735e-002
7.656335e+002;5.221019e-002
7.675621e+002;5.204733e-002
7.694907e+002;5.162814e-002
7.714192e+002;5.175839e-002
7.733478e+002;5.177538e-002
7.752763e+002;5.112719e-002
7.772048e+002;5.072233e-002
7.791334e+002;5.065251e-002
7.810620e+002;5.075808e-002
7.829905e+002;5.186505e-002
7.849191e+002;5.328896e-002
7.868476e+002;5.404345e-002
7.887761e+002;5.451614e-002
7.907047e+002;5.514206e-002
7.926332e+002;5.626103e-002
7.945618e+002;5.769119e-002
7.964903e+002;5.915372e-002
7.984189e+002;6.034785e-002
8.003474e+002;6.144392e-002
8.022759e+002;6.280343e-002
8.042045e+002;6.522381e-002
8.061331e+002;6.777443e-002
8.080616e+002;6.971332e-002
8.099902e+002;7.038344e-002
8.119187e+002;6.977309e-002
8.138472e+002;6.741036e-002
8.157758e+002;6.502110e-002
8.177043e+002;6.333292e-002
8.196329e+002;6.158506e-002
8.215615e+002;6.074098e-002
8.234900e+002;5.992167e-002
8.254185e+002;5.949143e-002
8.273471e+002;5.937525e-002
8.292756e+002;5.895489e-002
8.312042e+002;5.859366e-002
8.331328e+002;5.900491e-002
8.350613e+002;6.074182e-002
8.369898e+002;6.353806e-002
8.389184e+002;6.765055e-002
8.408469e+002;7.199813e-002
8.427755e+002;7.218871e-002
8.447040e+002;6.834018e-002
8.466326e+002;6.435070e-002
8.485611e+002;6.161243e-002
8.504897e+002;5.970968e-002
8.524182e+002;5.840494e-002
8.543467e+002;5.751463e-002
8.562753e+002;5.697065e-002
8.582039e+002;5.634236e-002
8.601324e+002;5.542750e-002
8.620610e+002;5.517712e-002
8.639895e+002;5.569346e-002
8.659180e+002;5.559501e-002
8.678466e+002;5.508785e-002
8.697751e+002;5.556613e-002
8.717037e+002;5.660420e-002
8.736323e+002;5.710221e-002
8.755608e+002;5.666464e-002
8.774893e+002;5.629604e-002
8.794179e+002;5.597320e-002
8.813464e+002;5.539211e-002
8.832750e+002;5.521260e-002
8.852036e+002;5.509056e-002
8.871321e+002;5.485658e-002
8.890606e+002;5.508811e-002
8.909892e+002;5.659439e-002
8.929177e+002;5.925431e-002
8.948463e+002;6.248158e-002
8.967748e+002;6.628429e-002
8.987034e+002;6.920104e-002
9.006319e+002;6.958278e-002
9.025605e+002;6.639504e-002
9.044890e+002;6.114058e-002
9.064175e+002;5.643800e-002
9.083461e+002;5.390901e-002
9.102747e+002;5.285015e-002
9.122032e+002;5.144988e-002
9.141318e+002;5.052341e-002
9.160603e+002;5.033053e-002
9.179888e+002;5.007828e-002
9.199174e+002;4.973446e-002
9.218459e+002;4.975189e-002
9.237745e+002;4.974706e-002
9.257031e+002;4.945872e-002
9.276316e+002;5.002135e-002
9.295601e+002;5.078359e-002
9.314887e+002;5.093449e-002
9.334172e+002;5.128981e-002
9.353458e+002;5.239205e-002
9.372744e+002;5.385804e-002
9.392029e+002;5.510004e-002
9.411314e+002;5.566254e-002
9.430600e+002;5.628197e-002
9.449885e+002;5.715841e-002
9.469171e+002;5.767125e-002
9.488456e+002;5.753581e-002
9.507742e+002;5.775383e-002
9.527027e+002;5.898882e-002
9.546313e+002;5.999623e-002
9.565598e+002;6.086573e-002
9.584883e+002;6.234975e-002
9.604169e+002;6.382962e-002
9.623455e+002;6.591554e-002
9.642740e+002;6.904209e-002
9.662026e+002;7.324741e-002
9.681311e+002;7.896336e-002
9.700596e+002;8.554802e-002
9.719882e+002;9.148941e-002
9.739167e+002;9.380863e-002
9.758453e+002;9.109896e-002
9.777739e+002;8.410551e-002
9.797024e+002;7.553879e-002
9.816309e+002;6.816009e-002
9.835595e+002;6.342221e-002
9.854880e+002;6.128035e-002
9.874166e+002;6.117994e-002
9.893452e+002;6.255157e-002
9.912737e+002;6.555904e-002
9.932022e+002;7.052152e-002
9.951307e+002;7.626987e-002
9.970593e+002;8.076337e-002
9.989879e+002;8.127671e-002
1.000916e+003;7.757635e-002
1.002845e+003;7.230043e-002
1.004773e+003;6.792431e-002
1.006702e+003;6.488969e-002
1.008631e+003;6.324502e-002
1.010559e+003;6.257219e-002
1.012488e+003;6.171814e-002
1.014416e+003;6.054500e-002
1.016345e+003;5.964874e-002
1.018273e+003;5.949227e-002
1.020202e+003;5.995024e-002
1.022130e+003;6.030182e-002
1.024059e+003;5.987242e-002
1.025988e+003;5.963627e-002
1.027916e+003;6.062039e-002
1.029845e+003;6.156158e-002
1.031773e+003;6.205507e-002
1.033702e+003;6.266217e-002
1.035630e+003;6.406491e-002
1.037559e+003;6.542905e-002
1.039487e+003;6.599174e-002
1.041416e+003;6.596775e-002
1.043344e+003;6.570009e-002
1.045273e+003;6.530976e-002
1.047202e+003;6.444532e-002
1.049130e+003;6.323873e-002
1.051059e+003;6.242695e-002
1.052987e+003;6.190690e-002
1.054916e+003;6.185677e-002
1.056844e+003;6.205789e-002
1.058773e+003;6.174102e-002
1.060701e+003;6.103825e-002
1.062630e+003;6.071393e-002
1.064558e+003;6.077864e-002
1.066487e+003;6.112494e-002
1.068416e+003;6.075261e-002
1.070344e+003;6.001795e-002
1.072273e+003;6.061307e-002
1.074201e+003;6.103798e-002
1.076130e+003;6.017302e-002
1.078058e+003;5.983983e-002
1.079987e+003;6.006738e-002
1.081915e+003;6.050196e-002
1.083844e+003;6.053377e-002
1.085773e+003;6.063071e-002
1.087701e+003;6.181723e-002
1.089630e+003;6.234011e-002
1.091558e+003;6.177761e-002
1.093487e+003;6.189196e-002
1.095415e+003;6.287872e-002
1.097344e+003;6.474271e-002
1.099272e+003;6.688382e-002
1.101201e+003;6.777494e-002
1.103129e+003;6.760824e-002
1.105058e+003;6.735291e-002
1.106987e+003;6.679489e-002
1.108915e+003;6.561526e-002
1.110844e+003;6.402267e-002
1.112772e+003;6.205430e-002
1.114701e+003;6.102502e-002
1.116629e+003;6.073851e-002
1.118558e+003;5.965224e-002
1.120486e+003;5.891075e-002
1.122415e+003;5.881468e-002
1.124344e+003;5.873736e-002
1.126272e+003;5.836476e-002
1.128201e+003;5.809208e-002
1.130129e+003;5.853724e-002
1.132058e+003;5.910015e-002
1.133986e+003;6.003915e-002
1.135915e+003;6.151416e-002
1.137843e+003;6.314281e-002
1.139772e+003;6.568193e-002
1.141700e+003;6.893887e-002
1.143629e+003;7.193087e-002
1.145557e+003;7.487040e-002
1.147486e+003;7.817859e-002
1.149415e+003;8.138200e-002
1.151343e+003;8.380606e-002
1.153272e+003;8.544692e-002
1.155200e+003;8.660340e-002
1.157129e+003;8.640537e-002
1.159057e+003;8.575957e-002
1.160986e+003;8.567227e-002
1.162914e+003;8.628063e-002
1.164843e+003;8.659381e-002
1.166771e+003;8.579950e-002
1.168700e+003;8.420835e-002
1.170629e+003;8.127431e-002
1.172557e+003;7.715431e-002
1.174486e+003;7.245285e-002
1.176414e+003;6.857545e-002
1.178343e+003;6.546576e-002
1.180271e+003;6.289105e-002
1.182200e+003;6.130558e-002
1.184128e+003;6.045097e-002
1.186057e+003;5.976804e-002
1.187986e+003;5.970409e-002
1.189914e+003;6.022874e-002
1.191843e+003;6.026048e-002
1.193771e+003;6.031568e-002
1.195700e+003;6.059014e-002
1.197628e+003;6.049324e-002
1.199557e+003;6.032223e-002
1.201485e+003;6.000144e-002
1.203414e+003;5.996002e-002
1.205343e+003;6.038098e-002
1.207271e+003;6.069179e-002
1.209200e+003;6.104660e-002
1.211128e+003;6.212097e-002
1.213057e+003;6.323192e-002
1.214985e+003;6.364152e-002
1.216914e+003;6.379078e-002
1.218842e+003;6.404851e-002
1.220771e+003;6.359164e-002
1.222699e+003;6.236379e-002
1.224628e+003;6.170901e-002
1.226557e+003;6.157269e-002
1.228485e+003;6.142594e-002
1.230414e+003;6.150431e-002
1.232342e+003;6.187805e-002
1.234271e+003;6.207001e-002
1.236199e+003;6.180416e-002
1.238128e+003;6.179179e-002
1.240056e+003;6.221234e-002
1.241985e+003;6.221560e-002
1.243913e+003;6.257238e-002
1.245842e+003;6.328607e-002
1.247771e+003;6.417847e-002
1.249699e+003;6.553480e-002
1.251628e+003;6.741126e-002
1.253556e+003;6.918724e-002
1.255485e+003;7.024764e-002
1.257413e+003;7.036451e-002
1.259342e+003;6.941857e-002
1.261270e+003;6.758129e-002
1.263199e+003;6.552332e-002
1.265127e+003;6.429614e-002
1.267056e+003;6.340986e-002
1.268985e+003;6.255497e-002
1.270913e+003;6.181016e-002
1.272842e+003;6.143590e-002
1.274770e+003;6.143133e-002
1.276699e+003;6.144835e-002
1.278627e+003;6.129672e-002
1.280556e+003;6.140617e-002
1.282484e+003;6.161515e-002
1.284413e+003;6.197213e-002
1.286342e+003;6.289626e-002
1.288270e+003;6.382266e-002
1.290199e+003;6.470356e-002
1.292127e+003;6.571697e-002
1.294056e+003;6.640729e-002
1.295984e+003;6.667782e-002
1.297913e+003;6.676065e-002
1.299841e+003;6.649273e-002
1.301770e+003;6.638887e-002
1.303698e+003;6.664645e-002
1.305627e+003;6.581412e-002
1.307556e+003;6.352318e-002
1.309484e+003;6.132912e-002
1.311413e+003;6.049834e-002
1.313341e+003;6.050451e-002
1.315270e+003;6.098189e-002
1.317198e+003;6.185345e-002
1.319127e+003;6.278329e-002
1.321055e+003;6.387709e-002
1.322984e+003;6.533622e-002
1.324912e+003;6.681920e-002
1.326841e+003;6.797951e-002
1.328770e+003;6.889005e-002
1.330698e+003;6.919917e-002
1.332627e+003;6.875037e-002
1.334555e+003;6.802443e-002
1.336484e+003;6.757339e-002
1.338412e+003;6.758691e-002
1.340341e+003;6.823052e-002
1.342269e+003;6.911800e-002
1.344198e+003;7.083238e-002
1.346126e+003;7.304072e-002
1.348055e+003;7.559944e-002
1.349984e+003;7.888038e-002
1.351912e+003;8.291403e-002
1.353841e+003;8.824314e-002
1.355769e+003;9.489810e-002
1.357698e+003;1.005329e-001
1.359626e+003;1.029869e-001
1.361555e+003;1.029843e-001
1.363483e+003;1.029571e-001
1.365412e+003;1.053031e-001
1.367341e+003;1.127578e-001
1.369269e+003;1.270777e-001
1.371198e+003;1.478738e-001
1.373126e+003;1.725081e-001
1.375055e+003;1.922613e-001
1.376983e+003;1.954491e-001
1.378912e+003;1.789850e-001
1.380840e+003;1.529260e-001
1.382769e+003;1.273590e-001
1.384698e+003;1.062620e-001
1.386626e+003;9.079775e-002
1.388555e+003;8.074502e-002
1.390483e+003;7.448500e-002
1.392412e+003;7.039393e-002
1.394340e+003;6.775325e-002
1.396269e+003;6.629086e-002
1.398197e+003;6.563931e-002
1.400126e+003;6.545193e-002
1.402054e+003;6.556543e-002
1.403983e+003;6.550101e-002
1.405911e+003;6.556170e-002
1.407840e+003;6.587590e-002
1.409769e+003;6.623057e-002
1.411697e+003;6.693874e-002
1.413626e+003;6.753553e-002
1.415554e+003;6.781975e-002
1.417483e+003;6.786073e-002
1.419411e+003;6.837671e-002
1.421340e+003;6.979324e-002
1.423268e+003;7.170647e-002
1.425197e+003;7.413016e-002
1.427125e+003;7.789865e-002
1.429054e+003;8.369697e-002
1.430983e+003;9.179761e-002
1.432911e+003;1.010811e-001
1.434840e+003;1.080034e-001
1.436768e+003;1.111958e-001
1.438697e+003;1.131614e-001
1.440625e+003;1.160544e-001
1.442554e+003;1.211576e-001
1.444482e+003;1.287110e-001
1.446411e+003;1.380693e-001
1.448340e+003;1.476032e-001
1.450268e+003;1.554745e-001
1.452197e+003;1.610159e-001
1.454125e+003;1.640945e-001
1.456054e+003;1.641282e-001
1.457982e+003;1.623788e-001
1.459911e+003;1.602190e-001
1.461839e+003;1.559434e-001
1.463768e+003;1.487822e-001
1.465697e+003;1.396639e-001
1.467625e+003;1.296645e-001
1.469554e+003;1.192670e-001
1.471482e+003;1.091886e-001
1.473411e+003;9.994378e-002
1.475339e+003;9.168523e-002
1.477268e+003;8.472393e-002
1.479196e+003;7.902568e-002
1.481125e+003;7.400489e-002
1.483053e+003;6.953417e-002
1.484982e+003;6.547315e-002
1.486911e+003;6.194821e-002
1.488839e+003;5.923889e-002
1.490768e+003;5.736036e-002
1.492696e+003;5.602009e-002
1.494625e+003;5.447452e-002
1.496553e+003;5.290973e-002
1.498482e+003;5.184639e-002
1.500410e+003;5.086770e-002
1.502339e+003;4.987679e-002
1.504267e+003;4.867515e-002
1.506196e+003;4.768324e-002
1.508125e+003;4.729642e-002
1.510053e+003;4.720163e-002
1.511982e+003;4.685447e-002
1.513910e+003;4.619858e-002
1.515839e+003;4.564415e-002
1.517767e+003;4.529419e-002
1.519696e+003;4.470676e-002
1.521624e+003;4.433022e-002
1.523553e+003;4.469331e-002
1.525481e+003;4.501089e-002
1.527410e+003;4.522403e-002
1.529339e+003;4.532972e-002
1.531267e+003;4.531122e-002
1.533196e+003;4.558942e-002
1.535124e+003;4.640652e-002
1.537053e+003;4.690356e-002
1.538981e+003;4.657929e-002
1.540910e+003;4.713211e-002
1.542838e+003;4.831456e-002
1.544767e+003;4.928149e-002
1.546695e+003;4.979566e-002
1.548624e+003;4.990433e-002
1.550553e+003;4.979194e-002
1.552481e+003;4.964961e-002
1.554410e+003;4.956533e-002
1.556338e+003;4.910493e-002
1.558267e+003;4.813691e-002
1.560195e+003;4.807506e-002
1.562124e+003;4.838041e-002
1.564052e+003;4.822813e-002
1.565981e+003;4.792700e-002
1.567910e+003;4.760728e-002
1.569838e+003;4.733976e-002
1.571767e+003;4.766278e-002
1.573695e+003;4.757682e-002
1.575624e+003;4.723313e-002
1.577552e+003;4.772502e-002
1.579481e+003;4.817030e-002
1.581409e+003;4.805440e-002
1.583338e+003;4.791619e-002
1.585266e+003;4.781016e-002
1.587195e+003;4.760026e-002
1.589124e+003;4.735003e-002
1.591052e+003;4.706719e-002
1.592981e+003;4.716151e-002
1.594909e+003;4.746467e-002
1.596838e+003;4.761276e-002
1.598766e+003;4.757046e-002
1.600695e+003;4.762108e-002
1.602623e+003;4.795064e-002
1.604552e+003;4.836511e-002
1.606480e+003;4.865651e-002
1.608409e+003;4.894354e-002
1.610338e+003;4.933357e-002
1.612266e+003;4.969794e-002
1.614195e+003;4.979837e-002
1.616123e+003;4.986092e-002
1.618052e+003;5.050066e-002
1.619980e+003;5.104006e-002
1.621909e+003;5.103920e-002
1.623837e+003;5.116689e-002
1.625766e+003;5.159340e-002
1.627694e+003;5.192958e-002
1.629623e+003;5.218668e-002
1.631552e+003;5.228291e-002
1.633480e+003;5.187521e-002
1.635409e+003;5.157553e-002
1.637337e+003;5.194899e-002
1.639266e+003;5.235583e-002
1.641194e+003;5.258192e-002
1.643123e+003;5.282897e-002
1.645051e+003;5.288181e-002
1.646980e+003;5.290662e-002
1.648909e+003;5.312720e-002
1.650837e+003;5.288630e-002
1.652766e+003;5.247576e-002
1.654694e+003;5.286444e-002
1.656623e+003;5.352771e-002
1.658551e+003;5.388347e-002
1.660480e+003;5.351298e-002
1.662408e+003;5.309211e-002
1.664337e+003;5.303565e-002
1.666266e+003;5.254433e-002
1.668194e+003;5.179233e-002
1.670123e+003;5.143671e-002
1.672051e+003;5.131103e-002
1.673980e+003;5.078687e-002
1.675908e+003;5.048042e-002
1.677837e+003;5.060150e-002
1.679765e+003;5.030382e-002
1.681694e+003;4.956804e-002
1.683622e+003;4.870191e-002
1.685551e+003;4.863301e-002
1.687479e+003;4.902283e-002
1.689408e+003;4.897091e-002
1.691337e+003;4.882580e-002
1.693265e+003;4.871236e-002
1.695194e+003;4.832293e-002
1.697122e+003;4.847868e-002
1.699051e+003;4.856694e-002
1.700979e+003;4.881234e-002
1.702908e+003;4.968590e-002
1.704836e+003;5.016474e-002
1.706765e+003;5.047949e-002
1.708693e+003;5.084896e-002
1.710622e+003;5.095312e-002
1.712551e+003;5.067403e-002
1.714479e+003;5.006597e-002
1.716408e+003;4.929192e-002
1.718336e+003;4.909551e-002
1.720265e+003;4.925766e-002
1.722193e+003;4.942226e-002
1.724122e+003;4.941483e-002
1.726050e+003;4.920730e-002
1.727979e+003;4.914218e-002
1.729908e+003;4.931163e-002
1.731836e+003;4.930736e-002
1.733765e+003;4.960778e-002
1.735693e+003;5.059864e-002
1.737622e+003;5.110829e-002
1.739550e+003;5.122590e-002
1.741479e+003;5.097988e-002
1.743407e+003;5.007820e-002
1.745336e+003;4.833978e-002
1.747265e+003;4.635527e-002
1.749193e+003;4.439473e-002
1.751122e+003;4.241571e-002
1.753050e+003;4.056380e-002
1.754979e+003;3.871842e-002
1.756907e+003;3.678966e-002
1.758836e+003;3.523754e-002
1.760764e+003;3.389223e-002
1.762693e+003;3.259060e-002
1.764621e+003;3.128240e-002
1.766550e+003;3.014935e-002
1.768479e+003;2.963847e-002
1.770407e+003;2.926980e-002
1.772336e+003;2.861539e-002
1.774264e+003;2.830226e-002
1.776193e+003;2.829246e-002
1.778121e+003;2.806675e-002
1.780050e+003;2.766166e-002
1.781978e+003;2.719853e-002
1.783907e+003;2.655682e-002
1.785835e+003;2.581691e-002
1.787764e+003;2.535725e-002
1.789693e+003;2.497423e-002
1.791621e+003;2.442428e-002
1.793550e+003;2.434381e-002
1.795478e+003;2.427321e-002
1.797407e+003;2.368698e-002
1.799335e+003;2.306413e-002
1.801264e+003;2.258852e-002
1.803192e+003;2.221072e-002
1.805121e+003;2.196543e-002
1.807049e+003;2.189709e-002
1.808978e+003;2.169053e-002
1.810907e+003;2.135878e-002
1.812835e+003;2.130154e-002
1.814764e+003;2.128191e-002
1.816692e+003;2.106375e-002
1.818621e+003;2.095089e-002
1.820549e+003;2.071882e-002
1.822478e+003;2.060241e-002
1.824406e+003;2.070489e-002
1.826335e+003;2.063247e-002
1.828264e+003;2.057813e-002
1.830192e+003;2.079980e-002
1.832121e+003;2.089328e-002
1.834049e+003;2.085574e-002
1.835978e+003;2.083978e-002
1.837906e+003;2.065985e-002
1.839835e+003;2.033646e-002
1.841763e+003;2.008702e-002
1.843692e+003;1.994431e-002
1.845620e+003;1.999937e-002
1.847549e+003;2.003934e-002
1.849478e+003;1.999750e-002
1.851406e+003;1.981642e-002
1.853335e+003;1.959282e-002
1.855263e+003;1.964201e-002
1.857192e+003;1.974932e-002
1.859120e+003;1.960340e-002
1.861049e+003;1.949269e-002
1.862977e+003;1.938195e-002
1.864906e+003;1.922108e-002
1.866834e+003;1.910044e-002
1.868763e+003;1.916830e-002
1.870692e+003;1.910861e-002
1.872620e+003;1.896380e-002
1.874549e+003;1.899544e-002
1.876477e+003;1.895425e-002
1.878406e+003;1.892701e-002
1.880334e+003;1.896674e-002
1.882263e+003;1.891161e-002
1.884191e+003;1.881824e-002
1.886120e+003;1.884104e-002
1.888048e+003;1.892199e-002
1.889977e+003;1.914445e-002
1.891906e+003;1.923909e-002
1.893834e+003;1.924186e-002
1.895763e+003;1.922933e-002
1.897691e+003;1.905515e-002
1.899620e+003;1.902361e-002
1.901548e+003;1.909722e-002
1.903477e+003;1.904473e-002
1.905405e+003;1.869065e-002
1.907334e+003;1.842642e-002
1.909262e+003;1.856061e-002
1.911191e+003;1.859460e-002
1.913120e+003;1.851998e-002
1.915048e+003;1.829272e-002
1.916977e+003;1.814735e-002
1.918905e+003;1.819452e-002
1.920834e+003;1.806531e-002
1.922762e+003;1.797113e-002
1.924691e+003;1.798473e-002
1.926619e+003;1.788615e-002
1.928548e+003;1.785007e-002
1.930477e+003;1.771016e-002
1.932405e+003;1.741456e-002
1.934334e+003;1.732907e-002
1.936262e+003;1.748340e-002
1.938191e+003;1.736869e-002
1.940119e+003;1.709802e-002
1.942048e+003;1.701280e-002
1.943976e+003;1.718157e-002
1.945905e+003;1.707962e-002
1.947833e+003;1.708341e-002
1.949762e+003;1.710640e-002
1.951691e+003;1.707083e-002
1.953619e+003;1.700377e-002
1.955548e+003;1.714321e-002
1.957476e+003;1.729548e-002
1.959405e+003;1.725928e-002
1.961333e+003;1.720663e-002
1.963262e+003;1.704202e-002
1.965190e+003;1.689493e-002
1.967119e+003;1.662684e-002
1.969047e+003;1.637796e-002
1.970976e+003;1.635498e-002
1.972905e+003;1.673051e-002
1.974833e+003;1.702806e-002
1.976762e+003;1.700222e-002
1.978690e+003;1.692553e-002
1.980619e+003;1.681891e-002
1.982547e+003;1.674976e-002
1.984476e+003;1.677183e-002
1.986404e+003;1.696704e-002
1.988333e+003;1.707841e-002
1.990261e+003;1.690499e-002
1.992190e+003;1.664708e-002
1.994119e+003;1.644510e-002
1.996047e+003;1.634562e-002
1.997976e+003;1.638523e-002
1.999904e+003;1.669807e-002
2.001833e+003;1.672383e-002
2.003761e+003;1.671006e-002
2.005690e+003;1.669363e-002
2.007618e+003;1.678947e-002
2.009547e+003;1.678606e-002
2.011476e+003;1.678599e-002
2.013404e+003;1.669398e-002
2.015333e+003;1.651083e-002
2.017261e+003;1.653713e-002
2.019190e+003;1.676209e-002
2.021118e+003;1.691016e-002
2.023047e+003;1.675183e-002
2.024975e+003;1.659592e-002
2.026904e+003;1.661403e-002
2.028833e+003;1.648850e-002
2.030761e+003;1.637982e-002
2.032690e+003;1.649930e-002
2.034618e+003;1.650409e-002
2.036547e+003;1.642920e-002
2.038475e+003;1.652749e-002
2.040404e+003;1.675568e-002
2.042332e+003;1.687792e-002
2.044261e+003;1.685587e-002
2.046189e+003;1.685677e-002
2.048118e+003;1.675269e-002
2.050047e+003;1.665052e-002
2.051975e+003;1.645346e-002
2.053904e+003;1.629295e-002
2.055832e+003;1.637401e-002
2.057761e+003;1.637294e-002
2.059689e+003;1.638712e-002
2.061618e+003;1.647948e-002
2.063546e+003;1.625934e-002
2.065475e+003;1.612790e-002
2.067404e+003;1.638275e-002
2.069332e+003;1.663637e-002
2.071260e+003;1.647631e-002
2.073189e+003;1.625415e-002
2.075118e+003;1.641547e-002
2.077046e+003;1.663355e-002
2.078975e+003;1.654821e-002
2.080903e+003;1.650099e-002
2.082832e+003;1.658288e-002
2.084760e+003;1.672658e-002
2.086689e+003;1.678182e-002
2.088617e+003;1.673147e-002
2.090546e+003;1.677314e-002
2.092475e+003;1.687850e-002
2.094403e+003;1.692587e-002
2.096332e+003;1.685012e-002
2.098260e+003;1.684719e-002
2.100189e+003;1.690203e-002
2.102117e+003;1.698665e-002
2.104046e+003;1.707114e-002
2.105974e+003;1.716423e-002
2.107903e+003;1.713066e-002
2.109832e+003;1.716103e-002
2.111760e+003;1.731755e-002
2.113688e+003;1.727896e-002
2.115617e+003;1.718088e-002
2.117546e+003;1.715307e-002
2.119474e+003;1.719174e-002
2.121403e+003;1.730000e-002
2.123331e+003;1.763852e-002
2.125260e+003;1.794278e-002
2.127188e+003;1.802891e-002
2.129117e+003;1.822789e-002
2.131045e+003;1.828405e-002
2.132974e+003;1.815561e-002
2.134903e+003;1.819092e-002
2.136831e+003;1.827765e-002
2.138760e+003;1.832455e-002
2.140688e+003;1.810490e-002
2.142617e+003;1.784268e-002
2.144545e+003;1.773815e-002
2.146474e+003;1.783132e-002
2.148402e+003;1.799827e-002
2.150331e+003;1.813882e-002
2.152260e+003;1.849366e-002
2.154188e+003;1.860145e-002
2.156117e+003;1.825291e-002
2.158045e+003;1.793791e-002
2.159974e+003;1.802500e-002
2.161902e+003;1.849373e-002
2.163831e+003;1.887634e-002
2.165759e+003;1.897397e-002
2.167688e+003;1.891680e-002
2.169616e+003;1.896203e-002
2.171545e+003;1.916335e-002
2.173474e+003;1.948490e-002
2.175402e+003;1.974242e-002
2.177331e+003;1.972276e-002
2.179259e+003;1.946036e-002
2.181188e+003;1.921890e-002
2.183116e+003;1.905082e-002
2.185045e+003;1.903985e-002
2.186973e+003;1.907945e-002
2.188902e+003;1.907942e-002
2.190831e+003;1.907686e-002
2.192759e+003;1.931291e-002
2.194688e+003;1.940669e-002
2.196616e+003;1.907676e-002
2.198545e+003;1.909829e-002
2.200473e+003;1.926233e-002
2.202402e+003;1.906658e-002
2.204330e+003;1.896539e-002
2.206259e+003;1.868231e-002
2.208188e+003;1.845010e-002
2.210116e+003;1.870556e-002
2.212044e+003;1.897491e-002
2.213973e+003;1.882385e-002
2.215902e+003;1.864724e-002
2.217830e+003;1.875320e-002
2.219759e+003;1.879139e-002
2.221687e+003;1.892777e-002
2.223616e+003;1.910220e-002
2.225544e+003;1.928073e-002
2.227473e+003;1.918590e-002
2.229401e+003;1.908544e-002
2.231330e+003;1.902202e-002
2.233259e+003;1.883084e-002
2.235187e+003;1.885194e-002
2.237116e+003;1.890309e-002
2.239044e+003;1.904217e-002
2.240973e+003;1.918870e-002
2.242901e+003;1.915296e-002
2.244830e+003;1.892168e-002
2.246758e+003;1.879277e-002
2.248687e+003;1.924934e-002
2.250615e+003;1.963536e-002
2.252544e+003;1.959393e-002
2.254473e+003;1.967776e-002
2.256401e+003;1.988076e-002
2.258330e+003;2.009733e-002
2.260258e+003;1.998161e-002
2.262187e+003;1.967342e-002
2.264115e+003;1.974180e-002
2.266044e+003;1.991569e-002
2.267972e+003;1.978417e-002
2.269901e+003;1.948895e-002
2.271830e+003;1.916325e-002
2.273758e+003;1.920661e-002
2.275687e+003;1.935839e-002
2.277615e+003;1.925017e-002
2.279544e+003;1.894369e-002
2.281472e+003;1.883122e-002
2.283401e+003;1.895528e-002
2.285329e+003;1.899225e-002
2.287258e+003;1.880845e-002
2.289187e+003;1.866076e-002
2.291115e+003;1.842372e-002
2.293043e+003;1.854899e-002
2.294972e+003;1.893244e-002
2.296901e+003;1.862614e-002
2.298829e+003;1.837709e-002
2.300758e+003;1.861992e-002
2.302686e+003;1.887516e-002
2.304615e+003;1.910577e-002
2.306543e+003;1.932399e-002
2.308472e+003;1.913936e-002
2.310400e+003;1.895293e-002
2.312329e+003;1.903815e-002
2.314258e+003;1.927030e-002
2.316186e+003;1.961477e-002
2.318115e+003;1.955768e-002
2.320043e+003;1.937700e-002
2.321972e+003;1.928086e-002
2.323900e+003;1.956690e-002
2.325829e+003;2.004760e-002
2.327757e+003;2.004180e-002
2.329686e+003;1.999177e-002
2.331615e+003;2.027886e-002
2.333543e+003;2.049292e-002
2.335472e+003;2.062208e-002
2.337400e+003;2.065780e-002
2.339329e+003;2.060436e-002
2.341257e+003;2.063410e-002
2.343186e+003;2.061808e-002
2.345114e+003;2.073908e-002
2.347043e+003;2.091035e-002
2.348971e+003;2.117172e-002
2.350900e+003;2.115537e-002
2.352829e+003;2.104541e-002
2.354757e+003;2.120880e-002
2.356686e+003;2.158016e-002
2.358614e+003;2.162972e-002
2.360543e+003;2.151787e-002
2.362471e+003;2.164706e-002
2.364400e+003;2.173403e-002
2.366328e+003;2.166305e-002
2.368257e+003;2.169094e-002
2.370186e+003;2.184374e-002
2.372114e+003;2.176626e-002
2.374042e+003;2.176322e-002
2.375971e+003;2.179009e-002
2.377900e+003;2.171867e-002
2.379828e+003;2.193567e-002
2.381757e+003;2.220989e-002
2.383685e+003;2.221229e-002
2.385614e+003;2.192793e-002
2.387542e+003;2.167687e-002
2.389471e+003;2.175591e-002
2.391399e+003;2.213147e-002
2.393328e+003;2.230266e-002
2.395257e+003;2.254141e-002
2.397185e+003;2.258751e-002
2.399114e+003;2.251070e-002
2.401042e+003;2.260793e-002
2.402971e+003;2.267282e-002
2.404899e+003;2.269618e-002
2.406828e+003;2.287413e-002
2.408756e+003;2.276363e-002
2.410685e+003;2.259289e-002
2.412614e+003;2.273574e-002
2.414542e+003;2.259687e-002
2.416471e+003;2.240121e-002
2.418399e+003;2.280826e-002
2.420328e+003;2.325275e-002
2.422256e+003;2.357982e-002
2.424185e+003;2.362698e-002
2.426113e+003;2.340319e-002
2.428042e+003;2.330442e-002
2.429970e+003;2.329757e-002
2.431899e+003;2.334644e-002
2.433828e+003;2.345866e-002
2.435756e+003;2.312133e-002
2.437685e+003;2.270323e-002
2.439613e+003;2.266993e-002
2.441542e+003;2.254895e-002
2.443470e+003;2.240128e-002
2.445399e+003;2.225198e-002
2.447327e+003;2.228818e-002
2.449256e+003;2.236157e-002
2.451185e+003;2.226677e-002
2.453113e+003;2.231330e-002
2.455042e+003;2.215350e-002
2.456970e+003;2.209918e-002
2.458899e+003;2.232910e-002
2.460827e+003;2.217798e-002
2.462756e+003;2.191601e-002
2.464684e+003;2.163222e-002
2.466613e+003;2.150948e-002
2.468542e+003;2.171717e-002
2.470470e+003;2.179326e-002
2.472398e+003;2.219827e-002
2.474327e+003;2.231075e-002
2.476256e+003;2.211048e-002
2.478184e+003;2.251185e-002
2.480113e+003;2.285970e-002
2.482041e+003;2.268134e-002
2.483970e+003;2.296589e-002
2.485898e+003;2.335780e-002
2.487827e+003;2.326282e-002
2.489755e+003;2.333795e-002
2.491684e+003;2.341959e-002
2.493613e+003;2.318130e-002
2.495541e+003;2.287723e-002
2.497470e+003;2.272348e-002
2.499398e+003;2.296463e-002
2.501327e+003;2.302105e-002
2.503255e+003;2.298482e-002
2.505184e+003;2.319004e-002
2.507112e+003;2.306406e-002
2.509041e+003;2.305826e-002
2.510969e+003;2.318246e-002
2.512898e+003;2.342603e-002
2.514827e+003;2.399176e-002
2.516755e+003;2.451048e-002
2.518684e+003;2.474080e-002
2.520612e+003;2.500743e-002
2.522541e+003;2.551398e-002
2.524469e+003;2.574294e-002
2.526398e+003;2.563073e-002
2.528326e+003;2.577634e-002
2.530255e+003;2.578421e-002
2.532184e+003;2.587631e-002
2.534112e+003;2.634528e-002
2.536041e+003;2.661755e-002
2.537969e+003;2.659401e-002
2.539898e+003;2.644862e-002
2.541826e+003;2.658528e-002
2.543755e+003;2.700943e-002
2.545683e+003;2.752640e-002
2.547612e+003;2.801794e-002
2.549541e+003;2.839234e-002
2.551469e+003;2.874844e-002
2.553397e+003;2.924049e-002
2.555326e+003;2.970917e-002
2.557255e+003;2.996953e-002
2.559183e+003;3.002328e-002
2.561112e+003;3.034906e-002
2.563040e+003;3.075194e-002
2.564969e+003;3.092518e-002
2.566897e+003;3.139433e-002
2.568826e+003;3.245344e-002
2.570754e+003;3.305941e-002
2.572683e+003;3.323243e-002
2.574612e+003;3.362120e-002
2.576540e+003;3.415167e-002
2.578469e+003;3.460336e-002
2.580397e+003;3.529748e-002
2.582326e+003;3.563347e-002
2.584254e+003;3.502863e-002
2.586183e+003;3.433824e-002
2.588111e+003;3.402261e-002
2.590040e+003;3.380726e-002
2.591969e+003;3.358297e-002
2.593897e+003;3.319756e-002
2.595826e+003;3.293415e-002
2.597754e+003;3.276075e-002
2.599683e+003;3.279791e-002
2.601611e+003;3.279702e-002
2.603540e+003;3.311273e-002
2.605468e+003;3.372153e-002
2.607397e+003;3.382510e-002
2.609325e+003;3.396703e-002
2.611254e+003;3.444487e-002
2.613183e+003;3.472513e-002
2.615111e+003;3.485084e-002
2.617040e+003;3.497659e-002
2.618968e+003;3.486459e-002
2.620897e+003;3.453021e-002
2.622825e+003;3.451342e-002
2.624754e+003;3.449713e-002
2.626682e+003;3.422333e-002
2.628611e+003;3.427714e-002
2.630540e+003;3.429564e-002
2.632468e+003;3.410772e-002
2.634396e+003;3.419188e-002
2.636325e+003;3.452246e-002
2.638254e+003;3.474462e-002
2.640182e+003;3.491023e-002
2.642111e+003;3.521411e-002
2.644039e+003;3.561549e-002
2.645968e+003;3.579431e-002
2.647896e+003;3.605298e-002
2.649825e+003;3.649708e-002
2.651753e+003;3.666354e-002
2.653682e+003;3.694509e-002
2.655611e+003;3.747533e-002
2.657539e+003;3.786460e-002
2.659468e+003;3.808725e-002
2.661396e+003;3.807404e-002
2.663325e+003;3.813267e-002
2.665253e+003;3.838192e-002
2.667182e+003;3.861541e-002
2.669110e+003;3.864196e-002
2.671039e+003;3.856478e-002
2.672968e+003;3.868654e-002
2.674896e+003;3.900762e-002
2.676825e+003;3.935468e-002
2.678753e+003;3.941040e-002
2.680682e+003;3.936894e-002
2.682610e+003;3.927325e-002
2.684539e+003;3.937775e-002
2.686467e+003;3.948424e-002
2.688396e+003;3.941211e-002
2.690324e+003;3.951894e-002
2.692253e+003;3.963345e-002
2.694182e+003;3.961374e-002
2.696110e+003;3.962626e-002
2.698039e+003;4.007646e-002
2.699967e+003;4.042159e-002
2.701896e+003;4.070861e-002
2.703824e+003;4.152331e-002
2.705753e+003;4.262498e-002
2.707681e+003;4.345794e-002
2.709610e+003;4.412873e-002
2.711539e+003;4.491585e-002
2.713467e+003;4.600658e-002
2.715396e+003;4.731825e-002
2.717324e+003;4.920860e-002
2.719253e+003;5.103633e-002
2.721181e+003;5.218242e-002
2.723110e+003;5.287773e-002
2.725038e+003;5.260873e-002
2.726967e+003;5.149098e-002
2.728896e+003;5.016544e-002
2.730824e+003;4.877419e-002
2.732752e+003;4.735265e-002
2.734681e+003;4.621660e-002
2.736610e+003;4.552940e-002
2.738538e+003;4.464778e-002
2.740467e+003;4.386822e-002
2.742395e+003;4.321583e-002
2.744324e+003;4.268884e-002
2.746252e+003;4.196559e-002
2.748181e+003;4.127266e-002
2.750109e+003;4.139095e-002
2.752038e+003;4.158890e-002
2.753967e+003;4.157450e-002
2.755895e+003;4.192691e-002
2.757824e+003;4.221435e-002
2.759752e+003;4.261014e-002
2.761681e+003;4.316134e-002
2.763609e+003;4.379059e-002
2.765538e+003;4.416252e-002
2.767466e+003;4.426487e-002
2.769395e+003;4.449243e-002
2.771323e+003;4.489028e-002
2.773252e+003;4.551652e-002
2.775181e+003;4.609831e-002
2.777109e+003;4.653359e-002
2.779038e+003;4.740638e-002
2.780966e+003;4.863605e-002
2.782895e+003;4.993551e-002
2.784823e+003;5.128444e-002
2.786752e+003;5.275634e-002
2.788680e+003;5.428784e-002
2.790609e+003;5.582747e-002
2.792538e+003;5.721451e-002
2.794466e+003;5.860963e-002
2.796395e+003;6.003606e-002
2.798323e+003;6.145323e-002
2.800252e+003;6.312454e-002
2.802180e+003;6.485987e-002
2.804109e+003;6.690709e-002
2.806037e+003;6.933492e-002
2.807966e+003;7.131805e-002
2.809895e+003;7.264390e-002
2.811823e+003;7.413531e-002
2.813751e+003;7.640918e-002
2.815680e+003;7.866406e-002
2.817609e+003;8.046278e-002
2.819537e+003;8.252572e-002
2.821466e+003;8.537125e-002
2.823394e+003;8.908879e-002
2.825323e+003;9.375533e-002
2.827251e+003;9.960999e-002
2.829180e+003;1.069234e-001
2.831108e+003;1.152398e-001
2.833037e+003;1.237617e-001
2.834966e+003;1.306446e-001
2.836894e+003;1.345265e-001
2.838823e+003;1.349968e-001
2.840751e+003;1.327937e-001
2.842680e+003;1.292164e-001
2.844608e+003;1.252178e-001
2.846537e+003;1.208991e-001
2.848465e+003;1.172789e-001
2.850394e+003;1.148320e-001
2.852323e+003;1.133462e-001
2.854251e+003;1.132766e-001
2.856180e+003;1.142014e-001
2.858108e+003;1.162437e-001
2.860037e+003;1.206809e-001
2.861965e+003;1.274837e-001
2.863894e+003;1.349739e-001
2.865822e+003;1.410527e-001
2.867751e+003;1.444352e-001
2.869679e+003;1.456360e-001
2.871608e+003;1.459484e-001
2.873536e+003;1.464166e-001
2.875465e+003;1.467922e-001
2.877394e+003;1.458782e-001
2.879322e+003;1.444086e-001
2.881251e+003;1.432887e-001
2.883179e+003;1.425482e-001
2.885108e+003;1.424299e-001
2.887036e+003;1.431256e-001
2.888965e+003;1.450359e-001
2.890893e+003;1.472954e-001
2.892822e+003;1.501675e-001
2.894750e+003;1.539925e-001
2.896679e+003;1.584597e-001
2.898608e+003;1.632423e-001
2.900536e+003;1.681599e-001
2.902465e+003;1.726948e-001
2.904393e+003;1.776257e-001
2.906322e+003;1.828169e-001
2.908250e+003;1.873128e-001
2.910179e+003;1.909514e-001
2.912107e+003;1.930380e-001
2.914036e+003;1.948171e-001
2.915965e+003;1.965934e-001
2.917893e+003;1.966270e-001
2.919822e+003;1.943346e-001
2.921750e+003;1.902240e-001
2.923679e+003;1.854206e-001
2.925607e+003;1.799222e-001
2.927536e+003;1.732859e-001
2.929464e+003;1.656541e-001
2.931393e+003;1.580169e-001
2.933322e+003;1.501970e-001
2.935250e+003;1.430372e-001
2.937178e+003;1.375081e-001
2.939107e+003;1.342327e-001
2.941036e+003;1.341095e-001
2.942964e+003;1.376908e-001
2.944893e+003;1.437102e-001
2.946821e+003;1.507483e-001
2.948750e+003;1.575708e-001
2.950678e+003;1.619093e-001
2.952607e+003;1.628386e-001
2.954535e+003;1.613084e-001
2.956464e+003;1.581443e-001
2.958393e+003;1.533380e-001
2.960321e+003;1.475865e-001
2.962250e+003;1.419391e-001
2.964178e+003;1.360381e-001
2.966107e+003;1.292801e-001
2.968035e+003;1.223063e-001
2.969964e+003;1.155003e-001
2.971892e+003;1.091705e-001
2.973821e+003;1.034626e-001
2.975750e+003;9.847676e-002
2.977678e+003;9.403536e-002
2.979607e+003;8.965386e-002
2.981535e+003;8.587334e-002
2.983464e+003;8.269528e-002
2.985392e+003;7.953031e-002
2.987321e+003;7.662088e-002
2.989249e+003;7.417033e-002
2.991178e+003;7.195117e-002
2.993106e+003;6.956030e-002
2.995035e+003;6.740181e-002
2.996964e+003;6.555180e-002
2.998892e+003;6.340097e-002
3.000821e+003;6.094442e-002
3.002749e+003;5.882765e-002
3.004678e+003;5.737046e-002
3.006606e+003;5.576982e-002
3.008535e+003;5.378412e-002
3.010463e+003;5.202354e-002
3.012392e+003;5.042426e-002
3.014321e+003;4.896727e-002
3.016249e+003;4.805400e-002
3.018177e+003;4.705283e-002
3.020106e+003;4.576831e-002
3.022035e+003;4.441576e-002
3.023963e+003;4.311666e-002
3.025892e+003;4.209097e-002
3.027820e+003;4.146604e-002
3.029749e+003;4.104094e-002
3.031677e+003;4.051447e-002
3.033606e+003;3.980416e-002
3.035534e+003;3.917892e-002
3.037463e+003;3.850337e-002
3.039392e+003;3.794103e-002
3.041320e+003;3.740859e-002
3.043249e+003;3.676154e-002
3.045177e+003;3.654793e-002
3.047106e+003;3.666526e-002
3.049034e+003;3.644511e-002
3.050963e+003;3.560524e-002
3.052891e+003;3.525820e-002
3.054820e+003;3.533573e-002
3.056749e+003;3.515048e-002
3.058677e+003;3.493738e-002
3.060606e+003;3.459116e-002
3.062534e+003;3.439404e-002
3.064463e+003;3.440717e-002
3.066391e+003;3.444591e-002
3.068320e+003;3.450854e-002
3.070248e+003;3.466222e-002
3.072177e+003;3.474875e-002
3.074105e+003;3.456300e-002
3.076034e+003;3.413098e-002
3.077963e+003;3.333224e-002
3.079891e+003;3.289165e-002
3.081820e+003;3.307325e-002
3.083748e+003;3.364734e-002
3.085677e+003;3.357538e-002
3.087605e+003;3.337213e-002
3.089534e+003;3.339160e-002
3.091462e+003;3.335524e-002
3.093391e+003;3.316487e-002
3.095320e+003;3.320632e-002
3.097248e+003;3.351703e-002
3.099177e+003;3.346091e-002
3.101105e+003;3.306145e-002
3.103034e+003;3.304258e-002
3.104962e+003;3.337764e-002
3.106891e+003;3.359764e-002
3.108819e+003;3.345687e-002
3.110748e+003;3.330487e-002
3.112677e+003;3.351202e-002
3.114605e+003;3.345386e-002
3.116533e+003;3.318300e-002
3.118462e+003;3.296325e-002
3.120391e+003;3.271088e-002
3.122319e+003;3.286745e-002
3.124248e+003;3.334158e-002
3.126176e+003;3.325754e-002
3.128105e+003;3.326727e-002
3.130033e+003;3.375949e-002
3.131962e+003;3.368260e-002
3.133890e+003;3.367394e-002
3.135819e+003;3.390939e-002
3.137748e+003;3.388890e-002
3.139676e+003;3.405568e-002
3.141605e+003;3.446980e-002
3.143533e+003;3.449136e-002
3.145462e+003;3.450248e-002
3.147390e+003;3.490499e-002
3.149319e+003;3.509552e-002
3.151247e+003;3.488014e-002
3.153176e+003;3.475284e-002
3.155104e+003;3.484503e-002
3.157033e+003;3.500184e-002
3.158962e+003;3.508927e-002
3.160890e+003;3.500852e-002
3.162819e+003;3.473859e-002
3.164747e+003;3.501696e-002
3.166676e+003;3.532760e-002
3.168604e+003;3.514247e-002
3.170533e+003;3.472840e-002
3.172461e+003;3.460222e-002
3.174390e+003;3.471271e-002
3.176319e+003;3.486599e-002
3.178247e+003;3.492413e-002
3.180176e+003;3.497379e-002
3.182104e+003;3.529846e-002
3.184033e+003;3.531736e-002
3.185961e+003;3.510313e-002
3.187890e+003;3.525113e-002
3.189818e+003;3.583310e-002
3.191747e+003;3.596925e-002
3.193676e+003;3.593372e-002
3.195604e+003;3.622132e-002
3.197532e+003;3.648216e-002
3.199461e+003;3.645834e-002
3.201390e+003;3.619726e-002
3.203318e+003;3.620400e-002
3.205247e+003;3.585501e-002
3.207175e+003;3.574757e-002
3.209104e+003;3.629361e-002
3.211032e+003;3.618502e-002
3.212961e+003;3.544752e-002
3.214889e+003;3.490958e-002
3.216818e+003;3.482173e-002
3.218747e+003;3.511897e-002
3.220675e+003;3.532642e-002
3.222604e+003;3.511948e-002
3.224532e+003;3.498884e-002
3.226461e+003;3.492477e-002
3.228389e+003;3.508312e-002
3.230318e+003;3.490488e-002
3.232246e+003;3.461904e-002
3.234175e+003;3.471641e-002
3.236104e+003;3.439978e-002
3.238032e+003;3.427248e-002
3.239961e+003;3.480554e-002
3.241889e+003;3.463642e-002
3.243818e+003;3.388209e-002
3.245746e+003;3.372693e-002
3.247675e+003;3.384863e-002
3.249603e+003;3.390358e-002
3.251532e+003;3.389384e-002
3.253460e+003;3.367383e-002
3.255389e+003;3.353017e-002
3.257318e+003;3.382682e-002
3.259246e+003;3.432845e-002
3.261175e+003;3.458919e-002
3.263103e+003;3.425584e-002
3.265032e+003;3.420945e-002
3.266960e+003;3.429184e-002
3.268889e+003;3.405998e-002
3.270817e+003;3.436951e-002
3.272746e+003;3.475342e-002
3.274675e+003;3.453301e-002
3.276603e+003;3.409256e-002
3.278531e+003;3.450549e-002
3.280460e+003;3.488567e-002
3.282389e+003;3.474721e-002
3.284317e+003;3.453771e-002
3.286246e+003;3.420515e-002
3.288174e+003;3.427478e-002
3.290103e+003;3.430270e-002
3.292031e+003;3.402838e-002
3.293960e+003;3.415554e-002
3.295888e+003;3.438852e-002
3.297817e+003;3.518486e-002
3.299746e+003;3.542703e-002
3.301674e+003;3.435241e-002
3.303603e+003;3.374308e-002
3.305531e+003;3.407353e-002
3.307460e+003;3.421562e-002
3.309388e+003;3.454553e-002
3.311317e+003;3.455313e-002
3.313245e+003;3.425806e-002
3.315174e+003;3.431719e-002
3.317103e+003;3.409876e-002
3.319031e+003;3.368912e-002
3.320960e+003;3.355888e-002
3.322888e+003;3.326148e-002
3.324817e+003;3.336490e-002
3.326745e+003;3.357369e-002
3.328674e+003;3.348249e-002
3.330602e+003;3.322614e-002
3.332531e+003;3.349602e-002
3.334459e+003;3.394801e-002
3.336388e+003;3.415740e-002
3.338317e+003;3.396503e-002
3.340245e+003;3.390885e-002
3.342174e+003;3.393411e-002
3.344102e+003;3.366130e-002
3.346031e+003;3.369077e-002
3.347959e+003;3.381382e-002
3.349888e+003;3.419307e-002
3.351816e+003;3.428356e-002
3.353745e+003;3.415378e-002
3.355674e+003;3.396925e-002
3.357602e+003;3.314738e-002
3.359531e+003;3.259789e-002
3.361459e+003;3.294577e-002
3.363388e+003;3.290066e-002
3.365316e+003;3.304679e-002
3.367245e+003;3.308577e-002
3.369173e+003;3.258221e-002
3.371102e+003;3.235501e-002
3.373031e+003;3.220347e-002
3.374959e+003;3.229098e-002
3.376887e+003;3.244369e-002
3.378816e+003;3.198520e-002
3.380745e+003;3.198578e-002
3.382673e+003;3.208073e-002
3.384602e+003;3.171718e-002
3.386530e+003;3.158903e-002
3.388459e+003;3.143786e-002
3.390387e+003;3.152863e-002
3.392316e+003;3.190051e-002
3.394244e+003;3.158567e-002
3.396173e+003;3.109827e-002
3.398102e+003;3.116512e-002
3.400030e+003;3.124960e-002
3.401959e+003;3.108403e-002
3.403887e+003;3.133606e-002
3.405816e+003;3.146365e-002
3.407744e+003;3.141449e-002
3.409673e+003;3.127791e-002
3.411601e+003;3.097762e-002
3.413530e+003;3.073931e-002
3.415458e+003;3.049779e-002
3.417387e+003;3.033801e-002
3.419316e+003;3.034082e-002
3.421244e+003;3.013681e-002
3.423173e+003;3.013862e-002
3.425101e+003;3.039572e-002
3.427030e+003;3.005772e-002
3.428958e+003;2.946851e-002
3.430887e+003;2.930666e-002
3.432815e+003;2.909566e-002
3.434744e+003;2.909771e-002
3.436673e+003;2.920033e-002
3.438601e+003;2.912475e-002
3.440530e+003;2.872664e-002
3.442458e+003;2.848630e-002
3.444387e+003;2.842662e-002
3.446315e+003;2.821576e-002
3.448244e+003;2.807814e-002
3.450172e+003;2.794182e-002
3.452101e+003;2.769398e-002
3.454030e+003;2.749883e-002
3.455958e+003;2.706422e-002
3.457886e+003;2.699522e-002
3.459815e+003;2.704702e-002
3.461744e+003;2.699070e-002
3.463672e+003;2.700026e-002
3.465601e+003;2.646433e-002
3.467529e+003;2.604251e-002
3.469458e+003;2.571913e-002
3.471386e+003;2.536737e-002
3.473315e+003;2.534963e-002
3.475243e+003;2.583952e-002
3.477172e+003;2.592906e-002
3.479101e+003;2.530056e-002
3.481029e+003;2.488120e-002
3.482958e+003;2.482556e-002
3.484886e+003;2.497683e-002
3.486815e+003;2.512011e-002
3.488743e+003;2.498546e-002
3.490672e+003;2.469289e-002
3.492600e+003;2.396105e-002
3.494529e+003;2.350405e-002
3.496458e+003;2.362792e-002
3.498386e+003;2.351476e-002
3.500315e+003;2.294384e-002
3.502243e+003;2.288223e-002
3.504172e+003;2.367467e-002
3.506100e+003;2.388904e-002
3.508029e+003;2.335253e-002
3.509957e+003;2.270079e-002
3.511886e+003;2.227643e-002
3.513814e+003;2.221686e-002
3.515743e+003;2.226262e-002
3.517672e+003;2.207300e-002
3.519600e+003;2.175149e-002
3.521529e+003;2.187994e-002
3.523457e+003;2.215117e-002
3.525386e+003;2.183942e-002
3.527314e+003;2.147240e-002
3.529243e+003;2.143762e-002
3.531171e+003;2.123984e-002
3.533100e+003;2.121646e-002
3.535029e+003;2.108117e-002
3.536957e+003;2.100594e-002
3.538885e+003;2.065481e-002
3.540814e+003;2.029254e-002
3.542743e+003;2.011020e-002
3.544671e+003;2.012859e-002
3.546600e+003;2.015223e-002
3.548528e+003;1.986304e-002
3.550457e+003;1.950929e-002
3.552385e+003;1.916695e-002
3.554314e+003;1.922088e-002
3.556242e+003;1.944272e-002
3.558171e+003;1.918389e-002
3.560100e+003;1.858232e-002
3.562028e+003;1.829110e-002
3.563957e+003;1.809947e-002
3.565885e+003;1.754919e-002
3.567814e+003;1.763014e-002
3.569742e+003;1.816079e-002
3.571671e+003;1.815274e-002
3.573599e+003;1.800483e-002
3.575528e+003;1.763386e-002
3.577457e+003;1.695832e-002
3.579385e+003;1.651035e-002
3.581314e+003;1.621174e-002
3.583242e+003;1.625525e-002
3.585171e+003;1.607570e-002
3.587099e+003;1.559425e-002
3.589028e+003;1.552491e-002
3.590956e+003;1.588714e-002
3.592885e+003;1.604004e-002
3.594813e+003;1.587958e-002
3.596742e+003;1.600725e-002
3.598671e+003;1.597342e-002
3.600599e+003;1.580649e-002
3.602528e+003;1.573114e-002
3.604456e+003;1.563846e-002
3.606385e+003;1.524424e-002
3.608313e+003;1.506329e-002
3.610242e+003;1.534982e-002
3.612170e+003;1.566889e-002
3.614099e+003;1.551379e-002
3.616028e+003;1.496375e-002
3.617956e+003;1.447322e-002
3.619885e+003;1.420959e-002
3.621813e+003;1.429376e-002
3.623742e+003;1.455798e-002
3.625670e+003;1.462251e-002
3.627599e+003;1.435882e-002
3.629527e+003;1.420251e-002
3.631456e+003;1.422969e-002
3.633385e+003;1.431379e-002
3.635313e+003;1.470089e-002
3.637241e+003;1.468426e-002
3.639170e+003;1.400409e-002
3.641099e+003;1.370504e-002
3.643027e+003;1.428821e-002
3.644956e+003;1.440773e-002
3.646884e+003;1.351116e-002
3.648813e+003;1.280948e-002
3.650741e+003;1.302299e-002
3.652670e+003;1.354066e-002
3.654598e+003;1.327425e-002
3.656527e+003;1.292760e-002
3.658456e+003;1.314711e-002
3.660384e+003;1.287845e-002
3.662313e+003;1.272086e-002
3.664241e+003;1.318178e-002
3.666170e+003;1.335600e-002
3.668098e+003;1.281620e-002
3.670027e+003;1.252605e-002
3.671955e+003;1.311952e-002
3.673884e+003;1.363136e-002
3.675813e+003;1.385721e-002
3.677741e+003;1.411498e-002
3.679669e+003;1.368186e-002
3.681598e+003;1.305952e-002
3.683527e+003;1.317519e-002
3.685455e+003;1.360852e-002
3.687384e+003;1.357221e-002
3.689312e+003;1.379235e-002
3.691241e+003;1.431502e-002
3.693169e+003;1.418779e-002
3.695098e+003;1.407397e-002
3.697026e+003;1.430858e-002
3.698955e+003;1.419200e-002
3.700884e+003;1.411518e-002
3.702812e+003;1.428800e-002
3.704741e+003;1.401774e-002
3.706669e+003;1.349868e-002
3.708598e+003;1.334008e-002
3.710526e+003;1.355023e-002
3.712455e+003;1.388762e-002
3.714383e+003;1.402671e-002
3.716312e+003;1.366117e-002
3.718240e+003;1.329936e-002
3.720169e+003;1.306642e-002
3.722098e+003;1.329416e-002
3.724026e+003;1.365960e-002
3.725955e+003;1.379082e-002
3.727883e+003;1.388338e-002
3.729812e+003;1.421802e-002
3.731740e+003;1.408934e-002
3.733669e+003;1.366934e-002
3.735597e+003;1.356278e-002
3.737526e+003;1.390206e-002
3.739455e+003;1.390281e-002
3.741383e+003;1.394058e-002
3.743312e+003;1.388783e-002
3.745240e+003;1.368576e-002
3.747169e+003;1.356424e-002
3.749097e+003;1.328829e-002
3.751026e+003;1.303319e-002
3.752954e+003;1.321064e-002
3.754883e+003;1.401904e-002
3.756812e+003;1.449909e-002
3.758740e+003;1.456093e-002
3.760668e+003;1.481918e-002
3.762597e+003;1.494112e-002
3.764526e+003;1.477092e-002
3.766454e+003;1.487346e-002
3.768383e+003;1.411607e-002
3.770311e+003;1.409923e-002
3.772240e+003;1.516408e-002
3.774168e+003;1.531223e-002
3.776097e+003;1.510435e-002
3.778025e+003;1.508095e-002
3.779954e+003;1.462131e-002
3.781883e+003;1.446363e-002
3.783811e+003;1.493505e-002
3.785740e+003;1.505976e-002
3.787668e+003;1.480352e-002
3.789597e+003;1.488419e-002
3.791525e+003;1.473873e-002
3.793454e+003;1.465575e-002
3.795382e+003;1.507104e-002
3.797311e+003;1.516261e-002
3.799240e+003;1.461730e-002
3.801168e+003;1.403756e-002
3.803097e+003;1.436906e-002
3.805025e+003;1.438375e-002
3.806954e+003;1.438804e-002
3.808882e+003;1.482734e-002
3.810811e+003;1.490809e-002
3.812739e+003;1.477918e-002
3.814668e+003;1.400286e-002
3.816596e+003;1.355901e-002
3.818525e+003;1.395725e-002
3.820454e+003;1.435930e-002
3.822382e+003;1.513115e-002
3.824311e+003;1.581439e-002
3.826239e+003;1.555067e-002
3.828168e+003;1.478343e-002
3.830096e+003;1.440259e-002
3.832025e+003;1.483094e-002
3.833953e+003;1.537306e-002
3.835882e+003;1.495864e-002
3.837811e+003;1.452848e-002
3.839739e+003;1.486242e-002
3.841667e+003;1.473444e-002
3.843596e+003;1.458296e-002
3.845525e+003;1.496543e-002
3.847453e+003;1.513667e-002
3.849382e+003;1.517297e-002
3.851310e+003;1.488004e-002
3.853239e+003;1.410765e-002
3.855167e+003;1.443085e-002
3.857096e+003;1.538971e-002
3.859024e+003;1.519599e-002
3.860953e+003;1.497394e-002
3.862882e+003;1.521271e-002
3.864810e+003;1.529885e-002
3.866739e+003;1.545748e-002
3.868667e+003;1.527993e-002
3.870596e+003;1.562094e-002
3.872524e+003;1.592310e-002
3.874453e+003;1.514672e-002
3.876381e+003;1.539413e-002
3.878310e+003;1.601498e-002
3.880239e+003;1.607102e-002
3.882167e+003;1.611180e-002
3.884096e+003;1.587814e-002
3.886024e+003;1.591952e-002
3.887953e+003;1.625418e-002
3.889881e+003;1.640074e-002
3.891810e+003;1.643454e-002
3.893738e+003;1.591736e-002
3.895667e+003;1.604290e-002
3.897595e+003;1.634618e-002
3.899524e+003;1.597552e-002
3.901453e+003;1.575004e-002
3.903381e+003;1.606607e-002
3.905310e+003;1.627723e-002
3.907238e+003;1.600075e-002
3.909167e+003;1.571283e-002
3.911095e+003;1.554576e-002
3.913024e+003;1.559635e-002
3.914952e+003;1.629247e-002
3.916881e+003;1.635928e-002
3.918810e+003;1.587553e-002
3.920738e+003;1.590168e-002
3.922667e+003;1.622172e-002
3.924595e+003;1.627255e-002
3.926524e+003;1.635450e-002
3.928452e+003;1.670517e-002
3.930381e+003;1.667721e-002
3.932309e+003;1.665552e-002
3.934238e+003;1.672087e-002
3.936167e+003;1.655830e-002
3.938095e+003;1.632343e-002
3.940023e+003;1.674225e-002
3.941952e+003;1.746077e-002
3.943881e+003;1.741483e-002
3.945809e+003;1.688147e-002
3.947738e+003;1.630874e-002
3.949666e+003;1.638216e-002
3.951595e+003;1.668929e-002
3.953523e+003;1.655985e-002
3.955452e+003;1.686307e-002
3.957380e+003;1.721567e-002
3.959309e+003;1.732406e-002
3.961238e+003;1.722821e-002
3.963166e+003;1.695281e-002
3.965095e+003;1.700205e-002
3.967023e+003;1.692422e-002
3.968952e+003;1.638808e-002
3.970880e+003;1.608722e-002
3.972809e+003;1.654935e-002
3.974737e+003;1.721342e-002
3.976666e+003;1.772249e-002
3.978594e+003;1.728917e-002
3.980523e+003;1.696715e-002
3.982452e+003;1.727203e-002
3.984380e+003;1.700549e-002
3.986309e+003;1.691805e-002
3.988237e+003;1.745998e-002
3.990166e+003;1.786136e-002
3.992094e+003;1.811906e-002
3.994023e+003;1.834799e-002
3.995951e+003;1.853550e-002
3.997880e+003;1.857645e-002
3.999809e+003;1.837163e-002
4.001737e+003;0.000000e+000
