3.992094e+002;0.000000e+000
4.011380e+002;0.000000e+000
4.030665e+002;0.000000e+000
4.049951e+002;0.000000e+000
4.069236e+002;0.000000e+000
4.088522e+002;0.000000e+000
4.107807e+002;0.000000e+000
4.127093e+002;0.000000e+000
4.146378e+002;0.000000e+000
4.165664e+002;0.000000e+000
4.184949e+002;0.000000e+000
4.204235e+002;0.000000e+000
4.223520e+002;0.000000e+000
4.242806e+002;0.000000e+000
4.262091e+002;0.000000e+000
4.281377e+002;0.000000e+000
4.300662e+002;0.000000e+000
4.319948e+002;0.000000e+000
4.339233e+002;0.000000e+000
4.358519e+002;0.000000e+000
4.377804e+002;0.000000e+000
4.397090e+002;0.000000e+000
4.416375e+002;0.000000e+000
4.435660e+002;0.000000e+000
4.454946e+002;0.000000e+000
4.474232e+002;0.000000e+000
4.493517e+002;0.000000e+000
4.512802e+002;0.000000e+000
4.532088e+002;0.000000e+000
4.551373e+002;0.000000e+000
4.570659e+002;0.000000e+000
4.589944e+002;0.000000e+000
4.609230e+002;0.000000e+000
4.628515e+002;0.000000e+000
4.647801e+002;0.000000e+000
4.667086e+002;0.000000e+000
4.686372e+002;0.000000e+000
4.705657e+002;0.000000e+000
4.724943e+002;0.000000e+000
4.744228e+002;0.000000e+000
4.763513e+002;0.000000e+000
4.782799e+002;0.000000e+000
4.802085e+002;0.000000e+000
4.821370e+002;0.000000e+000
4.840656e+002;0.000000e+000
4.859941e+002;0.000000e+000
4.879226e+002;0.000000e+000
4.898512e+002;0.000000e+000
4.917798e+002;0.000000e+000
4.937083e+002;0.000000e+000
4.956368e+002;0.000000e+000
4.975654e+002;0.000000e+000
4.994939e+002;0.000000e+000
5.014225e+002;0.000000e+000
5.033510e+002;0.000000e+000
5.052796e+002;0.000000e+000
5.072081e+002;0.000000e+000
5.091367e+002;0.000000e+000
5.110652e+002;0.000000e+000
5.129938e+002;0.000000e+000
5.149223e+002;0.000000e+000
5.168509e+002;0.000000e+000
5.187794e+002;0.000000e+000
5.207079e+002;0.000000e+000
5.226365e+002;0.000000e+000
5.245651e+002;0.000000e+000
5.264936e+002;0.000000e+000
5.284222e+002;0.000000e+000
5.303507e+002;0.000000e+000
5.322792e+002;0.000000e+000
5.342078e+002;0.000000e+000
5.361364e+002;0.000000e+000
5.380649e+002;0.000000e+000
5.399935e+002;0.000000e+000
5.419220e+002;0.000000e+000
5.438505e+002;0.000000e+000
5.457791e+002;0.000000e+000
5.477076e+002;0.000000e+000
5.496362e+002;0.000000e+000
5.515648e+002;0.000000e+000
5.534933e+002;0.000000e+000
5.554218e+002;0.000000e+000
5.573504e+002;0.000000e+000
5.592789e+002;0.000000e+000
5.612075e+002;0.000000e+000
5.631360e+002;0.000000e+000
5.650646e+002;0.000000e+000
5.669931e+002;0.000000e+000
5.689217e+002;0.000000e+000
5.708502e+002;0.000000e+000
5.727787e+002;0.000000e+000
5.747073e+002;0.000000e+000
5.766359e+002;0.000000e+000
5.785644e+002;0.000000e+000
5.804930e+002;0.000000e+000
5.824215e+002;0.000000e+000
5.843500e+002;0.000000e+000
5.862786e+002;0.000000e+000
5.882072e+002;0.000000e+000
5.901357e+002;0.000000e+000
5.920643e+002;0.000000e+000
5.939928e+002;0.000000e+000
5.959213e+002;0.000000e+000
5.978499e+002;0.000000e+000
5.997784e+002;3.601817e-002
6.017070e+002;2.809634e-002
6.036355e+002;2.768300e-002
6.055641e+002;3.135697e-002
6.074926e+002;3.643502e-002
6.094211e+002;3.647725e-002
6.113497e+002;3.335714e-002
6.132783e+002;3.412274e-002
6.152068e+002;3.891657e-002
6.171354e+002;3.864877e-002
6.190639e+002;3.679579e-002
6.209924e+002;3.501516e-002
6.229210e+002;3.472800e-002
6.248495e+002;3.437313e-002
6.267781e+002;3.499566e-002
6.287067e+002;3.731903e-002
6.306352e+002;3.740299e-002
6.325637e+002;3.814577e-002
6.344923e+002;3.984763e-002
6.364208e+002;3.671051e-002
6.383494e+002;3.496381e-002
6.402780e+002;3.840262e-002
6.422065e+002;4.049112e-002
6.441350e+002;3.698755e-002
6.460636e+002;3.571127e-002
6.479921e+002;3.424179e-002
6.499207e+002;3.368651e-002
6.518492e+002;3.299313e-002
6.537778e+002;3.360488e-002
6.557063e+002;3.352161e-002
6.576349e+002;3.444809e-002
6.595634e+002;3.459597e-002
6.614919e+002;3.623313e-002
6.634205e+002;3.681808e-002
6.653491e+002;3.405798e-002
6.672776e+002;3.262775e-002
6.692062e+002;3.256328e-002
6.711347e+002;3.193727e-002
6.730632e+002;3.241060e-002
6.749918e+002;3.210474e-002
6.769203e+002;3.203279e-002
6.788489e+002;3.251735e-002
6.807775e+002;3.364050e-002
6.827060e+002;3.455016e-002
6.846345e+002;3.411708e-002
6.865631e+002;3.337846e-002
6.884916e+002;3.394615e-002
6.904202e+002;3.331049e-002
6.923488e+002;3.237268e-002
6.942773e+002;3.265293e-002
6.962058e+002;3.299624e-002
6.981344e+002;3.258153e-002
7.000629e+002;3.280488e-002
7.019915e+002;3.311849e-002
7.039200e+002;3.361250e-002
7.058486e+002;3.375612e-002
7.077771e+002;3.328913e-002
7.097057e+002;3.221906e-002
7.116342e+002;3.218509e-002
7.135627e+002;3.287982e-002
7.154913e+002;3.287096e-002
7.174199e+002;3.346342e-002
7.193484e+002;3.380916e-002
7.212770e+002;3.250504e-002
7.232055e+002;3.123988e-002
7.251340e+002;3.128852e-002
7.270626e+002;3.155539e-002
7.289911e+002;3.121101e-002
7.309197e+002;3.072644e-002
7.328483e+002;3.026898e-002
7.347768e+002;3.008521e-002
7.367053e+002;2.969310e-002
7.386339e+002;2.921135e-002
7.405624e+002;2.936465e-002
7.424910e+002;2.876575e-002
7.444196e+002;2.943248e-002
7.463481e+002;2.986922e-002
7.482766e+002;2.866101e-002
7.502052e+002;2.788988e-002
7.521337e+002;2.862257e-002
7.540623e+002;2.822662e-002
7.559908e+002;2.674685e-002
7.579194e+002;2.703605e-002
7.598479e+002;2.729015e-002
7.617765e+002;2.715141e-002
7.637050e+002;2.738984e-002
7.656335e+002;2.810394e-002
7.675621e+002;2.795949e-002
7.694907e+002;2.747257e-002
7.714192e+002;2.715299e-002
7.733478e+002;2.627364e-002
7.752763e+002;2.590061e-002
7.772048e+002;2.580675e-002
7.791334e+002;2.561326e-002
7.810620e+002;2.625763e-002
7.829905e+002;2.670432e-002
7.849191e+002;2.701253e-002
7.868476e+002;2.832917e-002
7.887761e+002;2.933739e-002
7.907047e+002;2.960402e-002
7.926332e+002;3.034178e-002
7.945618e+002;3.152664e-002
7.964903e+002;3.321050e-002
7.984189e+002;3.397742e-002
8.003474e+002;3.546539e-002
8.022759e+002;3.740982e-002
8.042045e+002;4.025975e-002
8.061331e+002;4.293209e-002
8.080616e+002;4.429558e-002
8.099902e+002;4.437062e-002
8.119187e+002;4.356591e-002
8.138472e+002;4.060036e-002
8.157758e+002;3.698167e-002
8.177043e+002;3.453663e-002
8.196329e+002;3.337556e-002
8.215615e+002;3.219869e-002
8.234900e+002;3.114038e-002
8.254185e+002;3.164554e-002
8.273471e+002;3.240374e-002
8.292756e+002;3.191691e-002
8.312042e+002;3.258314e-002
8.331328e+002;3.463423e-002
8.350613e+002;3.683586e-002
8.369898e+002;3.965258e-002
8.389184e+002;4.535620e-002
8.408469e+002;5.040193e-002
8.427755e+002;4.920834e-002
8.447040e+002;4.370026e-002
8.466326e+002;3.836991e-002
8.485611e+002;3.420562e-002
8.504897e+002;3.156964e-002
8.524182e+002;3.049850e-002
8.543467e+002;2.997873e-002
8.562753e+002;2.960005e-002
8.582039e+002;2.875967e-002
8.601324e+002;2.771524e-002
8.620610e+002;2.712658e-002
8.639895e+002;2.744991e-002
8.659180e+002;2.763522e-002
8.678466e+002;2.710425e-002
8.697751e+002;2.712217e-002
8.717037e+002;2.789388e-002
8.736323e+002;2.819543e-002
8.755608e+002;2.783230e-002
8.774893e+002;2.735667e-002
8.794179e+002;2.683961e-002
8.813464e+002;2.647106e-002
8.832750e+002;2.608174e-002
8.852036e+002;2.589716e-002
8.871321e+002;2.627780e-002
8.890606e+002;2.707840e-002
8.909892e+002;2.847572e-002
8.929177e+002;3.079202e-002
8.948463e+002;3.450438e-002
8.967748e+002;3.945554e-002
8.987034e+002;4.291061e-002
9.006319e+002;4.241790e-002
9.025605e+002;3.821607e-002
9.044890e+002;3.306288e-002
9.064175e+002;2.911359e-002
9.083461e+002;2.674372e-002
9.102747e+002;2.506457e-002
9.122032e+002;2.370011e-002
9.141318e+002;2.290500e-002
9.160603e+002;2.258238e-002
9.179888e+002;2.262947e-002
9.199174e+002;2.282844e-002
9.218459e+002;2.285970e-002
9.237745e+002;2.262273e-002
9.257031e+002;2.226314e-002
9.276316e+002;2.240930e-002
9.295601e+002;2.303261e-002
9.314887e+002;2.379488e-002
9.334172e+002;2.478419e-002
9.353458e+002;2.589175e-002
9.372744e+002;2.677050e-002
9.392029e+002;2.805346e-002
9.411314e+002;2.917127e-002
9.430600e+002;2.930177e-002
9.449885e+002;2.920019e-002
9.469171e+002;2.903083e-002
9.488456e+002;2.875050e-002
9.507742e+002;2.896090e-002
9.527027e+002;2.993471e-002
9.546313e+002;3.108318e-002
9.565598e+002;3.197497e-002
9.584883e+002;3.315575e-002
9.604169e+002;3.507357e-002
9.623455e+002;3.757872e-002
9.642740e+002;4.073597e-002
9.662026e+002;4.537356e-002
9.681311e+002;5.216721e-002
9.700596e+002;6.066897e-002
9.719882e+002;6.824886e-002
9.739167e+002;7.091278e-002
9.758453e+002;6.694377e-002
9.777739e+002;5.886772e-002
9.797024e+002;5.032986e-002
9.816309e+002;4.365116e-002
9.835595e+002;3.920249e-002
9.854880e+002;3.689819e-002
9.874166e+002;3.687244e-002
9.893452e+002;3.851663e-002
9.912737e+002;4.204837e-002
9.932022e+002;4.775457e-002
9.951307e+002;5.481241e-002
9.970593e+002;6.006547e-002
9.989879e+002;6.025450e-002
1.000916e+003;5.560330e-002
1.002845e+003;4.909606e-002
1.004773e+003;4.371561e-002
1.006702e+003;4.053306e-002
1.008631e+003;3.900424e-002
1.010559e+003;3.761511e-002
1.012488e+003;3.626015e-002
1.014416e+003;3.540755e-002
1.016345e+003;3.515106e-002
1.018273e+003;3.503431e-002
1.020202e+003;3.487066e-002
1.022130e+003;3.506516e-002
1.024059e+003;3.522572e-002
1.025988e+003;3.558125e-002
1.027916e+003;3.584771e-002
1.029845e+003;3.626198e-002
1.031773e+003;3.734312e-002
1.033702e+003;3.907004e-002
1.035630e+003;4.058483e-002
1.037559e+003;4.143246e-002
1.039487e+003;4.213767e-002
1.041416e+003;4.250317e-002
1.043344e+003;4.238166e-002
1.045273e+003;4.166308e-002
1.047202e+003;4.057581e-002
1.049130e+003;3.967665e-002
1.051059e+003;3.891233e-002
1.052987e+003;3.834844e-002
1.054916e+003;3.818336e-002
1.056844e+003;3.826358e-002
1.058773e+003;3.814121e-002
1.060701e+003;3.750409e-002
1.062630e+003;3.704922e-002
1.064558e+003;3.730600e-002
1.066487e+003;3.759430e-002
1.068416e+003;3.738771e-002
1.070344e+003;3.714987e-002
1.072273e+003;3.708942e-002
1.074201e+003;3.699585e-002
1.076130e+003;3.718495e-002
1.078058e+003;3.786731e-002
1.079987e+003;3.894578e-002
1.081915e+003;3.957450e-002
1.083844e+003;3.943257e-002
1.085773e+003;3.934496e-002
1.087701e+003;3.954924e-002
1.089630e+003;4.087036e-002
1.091558e+003;4.130261e-002
1.093487e+003;4.149105e-002
1.095415e+003;4.318655e-002
1.097344e+003;4.497958e-002
1.099272e+003;4.637772e-002
1.101201e+003;4.771241e-002
1.103129e+003;4.813428e-002
1.105058e+003;4.727414e-002
1.106987e+003;4.576920e-002
1.108915e+003;4.398058e-002
1.110844e+003;4.157169e-002
1.112772e+003;3.954692e-002
1.114701e+003;3.849465e-002
1.116629e+003;3.811944e-002
1.118558e+003;3.785574e-002
1.120486e+003;3.748682e-002
1.122415e+003;3.696623e-002
1.124344e+003;3.658001e-002
1.126272e+003;3.638731e-002
1.128201e+003;3.620724e-002
1.130129e+003;3.633565e-002
1.132058e+003;3.725332e-002
1.133986e+003;3.843075e-002
1.135915e+003;3.986972e-002
1.137843e+003;4.213993e-002
1.139772e+003;4.518744e-002
1.141700e+003;4.800389e-002
1.143629e+003;5.114296e-002
1.145557e+003;5.454357e-002
1.147486e+003;5.735454e-002
1.149415e+003;6.021363e-002
1.151343e+003;6.319121e-002
1.153272e+003;6.532578e-002
1.155200e+003;6.601088e-002
1.157129e+003;6.621162e-002
1.159057e+003;6.711679e-002
1.160986e+003;6.777862e-002
1.162914e+003;6.838784e-002
1.164843e+003;6.930639e-002
1.166771e+003;6.948417e-002
1.168700e+003;6.820475e-002
1.170629e+003;6.495465e-002
1.172557e+003;6.015227e-002
1.174486e+003;5.486576e-002
1.176414e+003;5.048451e-002
1.178343e+003;4.735291e-002
1.180271e+003;4.525124e-002
1.182200e+003;4.379084e-002
1.184128e+003;4.282654e-002
1.186057e+003;4.230451e-002
1.187986e+003;4.190607e-002
1.189914e+003;4.148335e-002
1.191843e+003;4.096822e-002
1.193771e+003;4.061098e-002
1.195700e+003;4.057948e-002
1.197628e+003;4.082755e-002
1.199557e+003;4.048192e-002
1.201485e+003;3.982436e-002
1.203414e+003;3.935820e-002
1.205343e+003;3.935998e-002
1.207271e+003;3.968710e-002
1.209200e+003;4.044617e-002
1.211128e+003;4.152061e-002
1.213057e+003;4.234772e-002
1.214985e+003;4.331470e-002
1.216914e+003;4.354075e-002
1.218842e+003;4.281743e-002
1.220771e+003;4.206195e-002
1.222699e+003;4.137885e-002
1.224628e+003;4.048679e-002
1.226557e+003;3.991508e-002
1.228485e+003;3.990531e-002
1.230414e+003;4.023212e-002
1.232342e+003;4.001281e-002
1.234271e+003;4.015627e-002
1.236199e+003;4.083788e-002
1.238128e+003;4.065610e-002
1.240056e+003;4.057198e-002
1.241985e+003;4.089904e-002
1.243913e+003;4.111819e-002
1.245842e+003;4.133694e-002
1.247771e+003;4.177064e-002
1.249699e+003;4.290641e-002
1.251628e+003;4.523664e-002
1.253556e+003;4.802646e-002
1.255485e+003;4.948460e-002
1.257413e+003;4.893816e-002
1.259342e+003;4.684990e-002
1.261270e+003;4.447871e-002
1.263199e+003;4.290421e-002
1.265127e+003;4.215008e-002
1.267056e+003;4.121975e-002
1.268985e+003;4.021867e-002
1.270913e+003;3.956423e-002
1.272842e+003;3.918824e-002
1.274770e+003;3.906297e-002
1.276699e+003;3.910415e-002
1.278627e+003;3.905641e-002
1.280556e+003;3.878138e-002
1.282484e+003;3.874251e-002
1.284413e+003;3.914741e-002
1.286342e+003;3.974313e-002
1.288270e+003;4.064817e-002
1.290199e+003;4.163788e-002
1.292127e+003;4.226956e-002
1.294056e+003;4.309437e-002
1.295984e+003;4.377651e-002
1.297913e+003;4.345863e-002
1.299841e+003;4.316638e-002
1.301770e+003;4.373679e-002
1.303698e+003;4.414689e-002
1.305627e+003;4.284884e-002
1.307556e+003;4.051466e-002
1.309484e+003;3.858470e-002
1.311413e+003;3.743369e-002
1.313341e+003;3.733926e-002
1.315270e+003;3.784178e-002
1.317198e+003;3.863087e-002
1.319127e+003;3.979709e-002
1.321055e+003;4.135950e-002
1.322984e+003;4.303426e-002
1.324912e+003;4.460327e-002
1.326841e+003;4.603425e-002
1.328770e+003;4.682380e-002
1.330698e+003;4.678959e-002
1.332627e+003;4.631461e-002
1.334555e+003;4.540542e-002
1.336484e+003;4.431330e-002
1.338412e+003;4.387676e-002
1.340341e+003;4.443264e-002
1.342269e+003;4.609636e-002
1.344198e+003;4.806325e-002
1.346126e+003;5.020747e-002
1.348055e+003;5.303393e-002
1.349984e+003;5.694009e-002
1.351912e+003;6.177635e-002
1.353841e+003;6.789111e-002
1.355769e+003;7.488788e-002
1.357698e+003;8.030326e-002
1.359626e+003;8.146349e-002
1.361555e+003;7.996646e-002
1.363483e+003;7.935443e-002
1.365412e+003;8.158741e-002
1.367341e+003;8.886874e-002
1.369269e+003;1.036635e-001
1.371198e+003;1.262375e-001
1.373126e+003;1.521342e-001
1.375055e+003;1.721414e-001
1.376983e+003;1.725105e-001
1.378912e+003;1.512299e-001
1.380840e+003;1.228487e-001
1.382769e+003;9.811935e-002
1.384698e+003;7.940968e-002
1.386626e+003;6.577141e-002
1.388555e+003;5.731552e-002
1.390483e+003;5.280693e-002
1.392412e+003;4.942096e-002
1.394340e+003;4.642447e-002
1.396269e+003;4.552381e-002
1.398197e+003;4.536724e-002
1.400126e+003;4.556558e-002
1.402054e+003;4.603907e-002
1.403983e+003;4.588736e-002
1.405911e+003;4.621413e-002
1.407840e+003;4.735243e-002
1.409769e+003;4.798572e-002
1.411697e+003;4.838785e-002
1.413626e+003;4.888361e-002
1.415554e+003;4.888550e-002
1.417483e+003;4.788741e-002
1.419411e+003;4.778878e-002
1.421340e+003;5.016314e-002
1.423268e+003;5.215089e-002
1.425197e+003;5.442295e-002
1.427125e+003;5.757742e-002
1.429054e+003;6.226259e-002
1.430983e+003;7.045779e-002
1.432911e+003;8.015723e-002
1.434840e+003;8.598250e-002
1.436768e+003;8.748095e-002
1.438697e+003;9.009687e-002
1.440625e+003;9.386744e-002
1.442554e+003;9.886438e-002
1.444482e+003;1.060519e-001
1.446411e+003;1.151520e-001
1.448340e+003;1.248851e-001
1.450268e+003;1.334392e-001
1.452197e+003;1.388817e-001
1.454125e+003;1.402256e-001
1.456054e+003;1.376254e-001
1.457982e+003;1.368265e-001
1.459911e+003;1.368226e-001
1.461839e+003;1.328458e-001
1.463768e+003;1.250367e-001
1.465697e+003;1.157758e-001
1.467625e+003;1.059777e-001
1.469554e+003;9.435458e-002
1.471482e+003;8.182361e-002
1.473411e+003;7.207850e-002
1.475339e+003;6.566948e-002
1.477268e+003;6.012636e-002
1.479196e+003;5.525704e-002
1.481125e+003;5.067403e-002
1.483053e+003;4.687237e-002
1.484982e+003;4.364376e-002
1.486911e+003;4.039453e-002
1.488839e+003;3.755885e-002
1.490768e+003;3.654587e-002
1.492696e+003;3.650381e-002
1.494625e+003;3.455618e-002
1.496553e+003;3.214691e-002
1.498482e+003;3.201831e-002
1.500410e+003;3.249232e-002
1.502339e+003;3.204641e-002
1.504267e+003;2.884807e-002
1.506196e+003;2.513229e-002
1.508125e+003;2.656774e-002
1.510053e+003;2.900458e-002
1.511982e+003;2.925980e-002
1.513910e+003;2.924368e-002
1.515839e+003;2.834923e-002
1.517767e+003;2.751373e-002
1.519696e+003;2.598584e-002
1.521624e+003;2.481829e-002
1.523553e+003;2.643359e-002
1.525481e+003;2.756774e-002
1.527410e+003;2.852791e-002
1.529339e+003;2.948925e-002
1.531267e+003;2.959714e-002
1.533196e+003;2.900086e-002
1.535124e+003;3.035286e-002
1.537053e+003;3.005634e-002
1.538981e+003;2.707431e-002
1.540910e+003;2.757131e-002
1.542838e+003;3.074198e-002
1.544767e+003;3.297104e-002
1.546695e+003;3.432899e-002
1.548624e+003;3.441944e-002
1.550553e+003;3.418529e-002
1.552481e+003;3.298637e-002
1.554410e+003;3.105193e-002
1.556338e+003;2.873782e-002
1.558267e+003;2.434739e-002
1.560195e+003;2.499304e-002
1.562124e+003;2.886507e-002
1.564052e+003;2.956500e-002
1.565981e+003;2.944330e-002
1.567910e+003;2.851485e-002
1.569838e+003;2.759652e-002
1.571767e+003;2.874204e-002
1.573695e+003;2.821679e-002
1.575624e+003;2.564672e-002
1.577552e+003;2.692495e-002
1.579481e+003;2.938288e-002
1.581409e+003;2.980296e-002
1.583338e+003;2.933211e-002
1.585266e+003;2.849356e-002
1.587195e+003;2.816001e-002
1.589124e+003;2.814127e-002
1.591052e+003;2.837338e-002
1.592981e+003;2.853007e-002
1.594909e+003;2.830555e-002
1.596838e+003;2.823553e-002
1.598766e+003;2.883242e-002
1.600695e+003;2.929259e-002
1.602623e+003;2.981488e-002
1.604552e+003;3.044355e-002
1.606480e+003;3.073629e-002
1.608409e+003;3.108467e-002
1.610338e+003;3.190122e-002
1.612266e+003;3.235069e-002
1.614195e+003;3.178673e-002
1.616123e+003;3.054365e-002
1.618052e+003;3.260385e-002
1.619980e+003;3.524807e-002
1.621909e+003;3.502756e-002
1.623837e+003;3.512048e-002
1.625766e+003;3.649051e-002
1.627694e+003;3.733709e-002
1.629623e+003;3.811343e-002
1.631552e+003;3.844903e-002
1.633480e+003;3.673763e-002
1.635409e+003;3.488847e-002
1.637337e+003;3.700253e-002
1.639266e+003;3.954253e-002
1.641194e+003;4.041449e-002
1.643123e+003;4.019538e-002
1.645051e+003;3.894136e-002
1.646980e+003;3.919730e-002
1.648909e+003;4.124704e-002
1.650837e+003;3.882493e-002
1.652766e+003;3.443834e-002
1.654694e+003;3.794255e-002
1.656623e+003;4.247921e-002
1.658551e+003;4.323095e-002
1.660480e+003;4.234842e-002
1.662408e+003;4.108814e-002
1.664337e+003;4.130319e-002
1.666266e+003;4.115611e-002
1.668194e+003;3.927952e-002
1.670123e+003;3.854392e-002
1.672051e+003;3.898847e-002
1.673980e+003;3.784865e-002
1.675908e+003;3.759711e-002
1.677837e+003;3.869317e-002
1.679765e+003;3.822692e-002
1.681694e+003;3.616258e-002
1.683622e+003;3.239014e-002
1.685551e+003;3.337006e-002
1.687479e+003;3.643271e-002
1.689408e+003;3.686703e-002
1.691337e+003;3.696789e-002
1.693265e+003;3.578024e-002
1.695194e+003;3.287039e-002
1.697122e+003;3.332977e-002
1.699051e+003;3.307629e-002
1.700979e+003;3.387865e-002
1.702908e+003;3.748599e-002
1.704836e+003;3.848752e-002
1.706765e+003;3.967040e-002
1.708693e+003;4.089842e-002
1.710622e+003;4.140870e-002
1.712551e+003;4.068703e-002
1.714479e+003;3.904180e-002
1.716408e+003;3.694787e-002
1.718336e+003;3.755914e-002
1.720265e+003;4.011793e-002
1.722193e+003;4.092234e-002
1.724122e+003;4.101272e-002
1.726050e+003;4.141384e-002
1.727979e+003;4.164856e-002
1.729908e+003;4.205243e-002
1.731836e+003;4.117826e-002
1.733765e+003;4.006694e-002
1.735693e+003;4.340019e-002
1.737622e+003;4.592419e-002
1.739550e+003;4.579140e-002
1.741479e+003;4.597542e-002
1.743407e+003;4.513748e-002
1.745336e+003;4.321975e-002
1.747265e+003;4.035435e-002
1.749193e+003;3.693077e-002
1.751122e+003;3.356038e-002
1.753050e+003;3.163211e-002
1.754979e+003;2.885356e-002
1.756907e+003;2.524599e-002
1.758836e+003;2.253924e-002
1.760764e+003;1.973323e-002
1.762693e+003;1.811295e-002
1.764621e+003;1.766095e-002
1.766550e+003;1.606693e-002
1.768479e+003;1.455487e-002
1.770407e+003;1.287999e-002
1.772336e+003;1.134423e-002
1.774264e+003;1.220703e-002
1.776193e+003;1.306775e-002
1.778121e+003;1.279125e-002
1.780050e+003;1.199899e-002
1.781978e+003;1.152003e-002
1.783907e+003;1.086528e-002
1.785835e+003;1.022603e-002
1.787764e+003;9.701620e-003
1.789693e+003;8.556072e-003
1.791621e+003;7.067901e-003
1.793550e+003;6.916614e-003
1.795478e+003;7.343101e-003
1.797407e+003;7.018331e-003
1.799335e+003;6.493807e-003
1.801264e+003;6.065061e-003
1.803192e+003;6.081424e-003
1.805121e+003;5.801851e-003
1.807049e+003;5.281711e-003
1.808978e+003;4.814054e-003
1.810907e+003;4.857611e-003
1.812835e+003;5.188817e-003
1.814764e+003;5.121657e-003
1.816692e+003;4.936962e-003
1.818621e+003;5.130508e-003
1.820549e+003;5.105061e-003
1.822478e+003;4.581268e-003
1.824406e+003;3.810816e-003
1.826335e+003;3.808677e-003
1.828264e+003;3.611576e-003
1.830192e+003;3.667442e-003
1.832121e+003;4.457222e-003
1.834049e+003;4.749598e-003
1.835978e+003;4.792344e-003
1.837906e+003;4.835363e-003
1.839835e+003;4.771875e-003
1.841763e+003;3.925784e-003
1.843692e+003;2.481060e-003
1.845620e+003;2.854381e-003
1.847549e+003;3.834784e-003
1.849478e+003;4.104463e-003
1.851406e+003;4.111053e-003
1.853335e+003;4.314706e-003
1.855263e+003;4.442226e-003
1.857192e+003;4.170931e-003
1.859120e+003;4.088575e-003
1.861049e+003;3.929361e-003
1.862977e+003;3.703632e-003
1.864906e+003;3.348746e-003
1.866834e+003;2.718991e-003
1.868763e+003;2.570644e-003
1.870692e+003;3.339264e-003
1.872620e+003;3.785213e-003
1.874549e+003;3.860056e-003
1.876477e+003;3.893353e-003
1.878406e+003;3.670182e-003
1.880334e+003;3.536575e-003
1.882263e+003;3.522612e-003
1.884191e+003;3.588389e-003
1.886120e+003;3.529761e-003
1.888048e+003;3.259636e-003
1.889977e+003;3.258868e-003
1.891906e+003;3.715161e-003
1.893834e+003;3.724753e-003
1.895763e+003;3.672120e-003
1.897691e+003;3.751155e-003
1.899620e+003;3.765526e-003
1.901548e+003;3.798549e-003
1.903477e+003;3.753895e-003
1.905405e+003;3.261172e-003
1.907334e+003;3.115476e-003
1.909262e+003;3.473879e-003
1.911191e+003;3.509385e-003
1.913120e+003;3.356460e-003
1.915048e+003;3.253961e-003
1.916977e+003;2.849611e-003
1.918905e+003;2.822797e-003
1.920834e+003;3.132363e-003
1.922762e+003;3.123486e-003
1.924691e+003;3.217074e-003
1.926619e+003;3.268683e-003
1.928548e+003;3.065353e-003
1.930477e+003;2.846176e-003
1.932405e+003;2.663680e-003
1.934334e+003;2.639877e-003
1.936262e+003;2.792383e-003
1.938191e+003;2.776876e-003
1.940119e+003;2.551512e-003
1.942048e+003;2.332560e-003
1.943976e+003;2.420148e-003
1.945905e+003;2.448570e-003
1.947833e+003;2.424246e-003
1.949762e+003;2.486325e-003
1.951691e+003;2.502787e-003
1.953619e+003;2.339723e-003
1.955548e+003;2.327031e-003
1.957476e+003;2.421181e-003
1.959405e+003;2.506453e-003
1.961333e+003;2.479927e-003
1.963262e+003;2.265774e-003
1.965190e+003;2.059584e-003
1.967119e+003;2.067374e-003
1.969047e+003;2.226573e-003
1.970976e+003;2.029523e-003
1.972905e+003;1.875454e-003
1.974833e+003;2.088582e-003
1.976762e+003;2.335825e-003
1.978690e+003;2.324133e-003
1.980619e+003;2.301514e-003
1.982547e+003;2.276666e-003
1.984476e+003;2.391028e-003
1.986404e+003;2.475961e-003
1.988333e+003;2.500088e-003
1.990261e+003;2.282095e-003
1.992190e+003;1.882942e-003
1.994119e+003;2.042872e-003
1.996047e+003;2.370205e-003
1.997976e+003;2.561678e-003
1.999904e+003;2.824498e-003
2.001833e+003;2.665313e-003
2.003761e+003;2.614142e-003
2.005690e+003;2.638143e-003
2.007618e+003;2.594242e-003
2.009547e+003;2.549012e-003
2.011476e+003;2.520650e-003
2.013404e+003;2.419215e-003
2.015333e+003;2.451003e-003
2.017261e+003;2.667347e-003
2.019190e+003;2.591342e-003
2.021118e+003;2.551412e-003
2.023047e+003;2.741531e-003
2.024975e+003;2.696419e-003
2.026904e+003;2.510052e-003
2.028833e+003;2.329462e-003
2.030761e+003;2.468763e-003
2.032690e+003;2.822430e-003
2.034618e+003;2.892504e-003
2.036547e+003;2.684583e-003
2.038475e+003;2.672481e-003
2.040404e+003;2.891904e-003
2.042332e+003;2.855848e-003
2.044261e+003;2.889869e-003
2.046189e+003;3.243212e-003
2.048118e+003;3.283239e-003
2.050047e+003;2.950780e-003
2.051975e+003;2.967160e-003
2.053904e+003;3.090781e-003
2.055832e+003;3.000056e-003
2.057761e+003;2.900977e-003
2.059689e+003;2.770974e-003
2.061618e+003;2.757436e-003
2.063546e+003;2.836371e-003
2.065475e+003;3.011233e-003
2.067404e+003;2.967994e-003
2.069332e+003;2.861251e-003
2.071260e+003;2.935568e-003
2.073189e+003;3.213603e-003
2.075118e+003;3.195378e-003
2.077046e+003;2.844442e-003
2.078975e+003;3.001057e-003
2.080903e+003;3.562064e-003
2.082832e+003;3.885430e-003
2.084760e+003;3.949924e-003
2.086689e+003;4.070280e-003
2.088617e+003;3.957314e-003
2.090546e+003;3.868012e-003
2.092475e+003;3.990753e-003
2.094403e+003;3.820142e-003
2.096332e+003;3.733576e-003
2.098260e+003;3.964938e-003
2.100189e+003;4.040347e-003
2.102117e+003;3.965506e-003
2.104046e+003;3.996638e-003
2.105974e+003;4.066835e-003
2.107903e+003;4.132929e-003
2.109832e+003;3.886265e-003
2.111760e+003;3.760212e-003
2.113688e+003;4.145105e-003
2.115617e+003;4.520798e-003
2.117546e+003;4.677047e-003
2.119474e+003;4.695803e-003
2.121403e+003;4.763300e-003
2.123331e+003;5.054809e-003
2.125260e+003;5.198642e-003
2.127188e+003;5.411897e-003
2.129117e+003;5.696893e-003
2.131045e+003;5.756621e-003
2.132974e+003;5.890308e-003
2.134903e+003;6.235144e-003
2.136831e+003;6.171788e-003
2.138760e+003;5.805545e-003
2.140688e+003;5.597768e-003
2.142617e+003;5.487625e-003
2.144545e+003;5.355337e-003
2.146474e+003;5.539874e-003
2.148402e+003;5.746246e-003
2.150331e+003;5.707066e-003
2.152260e+003;5.823410e-003
2.154188e+003;6.005055e-003
2.156117e+003;5.905423e-003
2.158045e+003;6.004988e-003
2.159974e+003;6.217396e-003
2.161902e+003;6.377250e-003
2.163831e+003;6.683236e-003
2.165759e+003;6.978294e-003
2.167688e+003;7.267588e-003
2.169616e+003;7.417819e-003
2.171545e+003;7.509371e-003
2.173474e+003;7.655536e-003
2.175402e+003;7.577204e-003
2.177331e+003;7.594198e-003
2.179259e+003;7.426211e-003
2.181188e+003;7.244543e-003
2.183116e+003;7.161300e-003
2.185045e+003;7.325376e-003
2.186973e+003;7.328139e-003
2.188902e+003;7.182656e-003
2.190831e+003;7.036481e-003
2.192759e+003;7.127212e-003
2.194688e+003;7.345292e-003
2.196616e+003;7.191482e-003
2.198545e+003;7.082248e-003
2.200473e+003;6.980483e-003
2.202402e+003;6.874600e-003
2.204330e+003;6.880559e-003
2.206259e+003;6.752288e-003
2.208188e+003;6.708238e-003
2.210116e+003;6.831851e-003
2.212044e+003;6.749865e-003
2.213973e+003;6.679636e-003
2.215902e+003;6.796106e-003
2.217830e+003;6.936376e-003
2.219759e+003;6.921260e-003
2.221687e+003;6.964894e-003
2.223616e+003;7.057495e-003
2.225544e+003;7.215940e-003
2.227473e+003;7.315267e-003
2.229401e+003;7.414516e-003
2.231330e+003;7.323253e-003
2.233259e+003;7.128155e-003
2.235187e+003;7.005299e-003
2.237116e+003;7.098380e-003
2.239044e+003;7.005097e-003
2.240973e+003;6.855413e-003
2.242901e+003;6.732567e-003
2.244830e+003;6.815527e-003
2.246758e+003;7.117242e-003
2.248687e+003;7.254280e-003
2.250615e+003;7.428099e-003
2.252544e+003;7.697861e-003
2.254473e+003;7.852491e-003
2.256401e+003;8.021453e-003
2.258330e+003;7.924732e-003
2.260258e+003;7.623770e-003
2.262187e+003;7.615779e-003
2.264115e+003;7.834239e-003
2.266044e+003;7.940119e-003
2.267972e+003;7.731555e-003
2.269901e+003;7.468985e-003
2.271830e+003;7.312302e-003
2.273758e+003;7.152508e-003
2.275687e+003;7.122261e-003
2.277615e+003;7.012303e-003
2.279544e+003;6.764033e-003
2.281472e+003;6.581094e-003
2.283401e+003;6.598419e-003
2.285329e+003;6.764470e-003
2.287258e+003;6.839122e-003
2.289187e+003;6.781197e-003
2.291115e+003;6.875644e-003
2.293043e+003;6.868340e-003
2.294972e+003;6.721496e-003
2.296901e+003;6.700431e-003
2.298829e+003;6.622877e-003
2.300758e+003;6.609285e-003
2.302686e+003;6.784427e-003
2.304615e+003;6.840030e-003
2.306543e+003;6.855043e-003
2.308472e+003;7.137586e-003
2.310400e+003;7.403124e-003
2.312329e+003;7.477514e-003
2.314258e+003;7.307247e-003
2.316186e+003;7.153282e-003
2.318115e+003;7.265567e-003
2.320043e+003;7.389979e-003
2.321972e+003;7.337642e-003
2.323900e+003;7.591973e-003
2.325829e+003;7.770346e-003
2.327757e+003;7.905700e-003
2.329686e+003;8.157798e-003
2.331615e+003;8.291146e-003
2.333543e+003;8.211348e-003
2.335472e+003;8.282770e-003
2.337400e+003;8.450413e-003
2.339329e+003;8.484605e-003
2.341257e+003;8.753875e-003
2.343186e+003;9.133409e-003
2.345114e+003;9.257781e-003
2.347043e+003;9.132968e-003
2.348971e+003;8.954002e-003
2.350900e+003;8.818692e-003
2.352829e+003;9.073383e-003
2.354757e+003;9.348673e-003
2.356686e+003;9.602491e-003
2.358614e+003;9.654255e-003
2.360543e+003;9.528412e-003
2.362471e+003;9.635858e-003
2.364400e+003;9.831917e-003
2.366328e+003;9.844695e-003
2.368257e+003;9.693589e-003
2.370186e+003;9.669602e-003
2.372114e+003;9.652425e-003
2.374042e+003;9.735537e-003
2.375971e+003;9.785927e-003
2.377900e+003;9.794027e-003
2.379828e+003;9.862185e-003
2.381757e+003;9.899843e-003
2.383685e+003;9.907606e-003
2.385614e+003;1.002695e-002
2.387542e+003;1.013784e-002
2.389471e+003;1.001294e-002
2.391399e+003;9.903674e-003
2.393328e+003;1.006472e-002
2.395257e+003;1.046237e-002
2.397185e+003;1.079119e-002
2.399114e+003;1.082815e-002
2.401042e+003;1.085804e-002
2.402971e+003;1.076245e-002
2.404899e+003;1.034899e-002
2.406828e+003;1.022902e-002
2.408756e+003;1.023896e-002
2.410685e+003;1.034746e-002
2.412614e+003;1.053556e-002
2.414542e+003;1.043641e-002
2.416471e+003;1.041486e-002
2.418399e+003;1.049696e-002
2.420328e+003;1.077679e-002
2.422256e+003;1.099233e-002
2.424185e+003;1.098431e-002
2.426113e+003;1.123748e-002
2.428042e+003;1.156298e-002
2.429970e+003;1.122082e-002
2.431899e+003;1.083939e-002
2.433828e+003;1.092148e-002
2.435756e+003;1.092352e-002
2.437685e+003;1.049754e-002
2.439613e+003;1.015185e-002
2.441542e+003;1.027505e-002
2.443470e+003;1.037294e-002
2.445399e+003;1.009243e-002
2.447327e+003;9.943168e-003
2.449256e+003;9.936150e-003
2.451185e+003;1.006899e-002
2.453113e+003;1.014723e-002
2.455042e+003;1.011139e-002
2.456970e+003;9.912793e-003
2.458899e+003;9.536305e-003
2.460827e+003;9.535457e-003
2.462756e+003;9.466776e-003
2.464684e+003;9.478255e-003
2.466613e+003;9.856151e-003
2.468542e+003;1.004078e-002
2.470470e+003;1.001704e-002
2.472398e+003;1.019849e-002
2.474327e+003;1.021643e-002
2.476256e+003;9.887166e-003
2.478184e+003;9.997549e-003
2.480113e+003;1.032198e-002
2.482041e+003;1.060404e-002
2.483970e+003;1.074473e-002
2.485898e+003;1.064125e-002
2.487827e+003;1.064845e-002
2.489755e+003;1.080080e-002
2.491684e+003;1.089681e-002
2.493613e+003;1.094791e-002
2.495541e+003;1.081663e-002
2.497470e+003;1.054330e-002
2.499398e+003;1.066373e-002
2.501327e+003;1.075040e-002
2.503255e+003;1.065436e-002
2.505184e+003;1.071640e-002
2.507112e+003;1.078185e-002
2.509041e+003;1.114127e-002
2.510969e+003;1.158523e-002
2.512898e+003;1.171698e-002
2.514827e+003;1.181132e-002
2.516755e+003;1.184836e-002
2.518684e+003;1.186454e-002
2.520612e+003;1.220198e-002
2.522541e+003;1.260347e-002
2.524469e+003;1.296863e-002
2.526398e+003;1.330158e-002
2.528326e+003;1.350432e-002
2.530255e+003;1.350244e-002
2.532184e+003;1.362288e-002
2.534112e+003;1.379461e-002
2.536041e+003;1.392395e-002
2.537969e+003;1.426633e-002
2.539898e+003;1.435680e-002
2.541826e+003;1.459115e-002
2.543755e+003;1.470140e-002
2.545683e+003;1.469307e-002
2.547612e+003;1.500388e-002
2.549541e+003;1.565563e-002
2.551469e+003;1.627510e-002
2.553397e+003;1.660787e-002
2.555326e+003;1.691388e-002
2.557255e+003;1.710540e-002
2.559183e+003;1.724497e-002
2.561112e+003;1.767338e-002
2.563040e+003;1.814805e-002
2.564969e+003;1.823339e-002
2.566897e+003;1.857561e-002
2.568826e+003;1.928991e-002
2.570754e+003;2.009781e-002
2.572683e+003;2.081406e-002
2.574612e+003;2.138023e-002
2.576540e+003;2.179141e-002
2.578469e+003;2.221397e-002
2.580397e+003;2.235857e-002
2.582326e+003;2.244820e-002
2.584254e+003;2.228721e-002
2.586183e+003;2.162150e-002
2.588111e+003;2.099203e-002
2.590040e+003;2.058393e-002
2.591969e+003;2.006023e-002
2.593897e+003;1.955397e-002
2.595826e+003;1.941015e-002
2.597754e+003;1.918330e-002
2.599683e+003;1.926625e-002
2.601611e+003;1.955885e-002
2.603540e+003;1.975792e-002
2.605468e+003;2.006262e-002
2.607397e+003;2.048677e-002
2.609325e+003;2.081892e-002
2.611254e+003;2.100097e-002
2.613183e+003;2.125800e-002
2.615111e+003;2.154036e-002
2.617040e+003;2.173396e-002
2.618968e+003;2.159402e-002
2.620897e+003;2.153326e-002
2.622825e+003;2.157800e-002
2.624754e+003;2.127004e-002
2.626682e+003;2.088918e-002
2.628611e+003;2.067371e-002
2.630540e+003;2.048100e-002
2.632468e+003;2.026678e-002
2.634396e+003;2.041637e-002
2.636325e+003;2.074242e-002
2.638254e+003;2.085195e-002
2.640182e+003;2.116855e-002
2.642111e+003;2.170582e-002
2.644039e+003;2.207175e-002
2.645968e+003;2.229251e-002
2.647896e+003;2.241544e-002
2.649825e+003;2.277697e-002
2.651753e+003;2.322503e-002
2.653682e+003;2.372716e-002
2.655611e+003;2.415017e-002
2.657539e+003;2.418853e-002
2.659468e+003;2.436519e-002
2.661396e+003;2.458727e-002
2.663325e+003;2.465088e-002
2.665253e+003;2.465859e-002
2.667182e+003;2.462735e-002
2.669110e+003;2.463941e-002
2.671039e+003;2.470692e-002
2.672968e+003;2.487432e-002
2.674896e+003;2.512088e-002
2.676825e+003;2.527566e-002
2.678753e+003;2.558201e-002
2.680682e+003;2.561572e-002
2.682610e+003;2.526123e-002
2.684539e+003;2.531914e-002
2.686467e+003;2.543721e-002
2.688396e+003;2.558012e-002
2.690324e+003;2.555717e-002
2.692253e+003;2.557435e-002
2.694182e+003;2.544848e-002
2.696110e+003;2.533488e-002
2.698039e+003;2.568173e-002
2.699967e+003;2.602879e-002
2.701896e+003;2.637433e-002
2.703824e+003;2.715190e-002
2.705753e+003;2.806531e-002
2.707681e+003;2.883437e-002
2.709610e+003;2.942862e-002
2.711539e+003;3.040066e-002
2.713467e+003;3.196748e-002
2.715396e+003;3.344885e-002
2.717324e+003;3.505521e-002
2.719253e+003;3.691139e-002
2.721181e+003;3.807748e-002
2.723110e+003;3.822793e-002
2.725038e+003;3.755997e-002
2.726967e+003;3.643776e-002
2.728896e+003;3.514398e-002
2.730824e+003;3.379487e-002
2.732752e+003;3.298873e-002
2.734681e+003;3.236993e-002
2.736610e+003;3.156711e-002
2.738538e+003;3.070443e-002
2.740467e+003;2.969370e-002
2.742395e+003;2.863924e-002
2.744324e+003;2.775660e-002
2.746252e+003;2.736655e-002
2.748181e+003;2.713293e-002
2.750109e+003;2.702836e-002
2.752038e+003;2.713381e-002
2.753967e+003;2.711977e-002
2.755895e+003;2.722358e-002
2.757824e+003;2.729830e-002
2.759752e+003;2.765407e-002
2.761681e+003;2.830261e-002
2.763609e+003;2.848354e-002
2.765538e+003;2.873729e-002
2.767466e+003;2.907132e-002
2.769395e+003;2.950340e-002
2.771323e+003;3.008042e-002
2.773252e+003;3.061457e-002
2.775181e+003;3.128172e-002
2.777109e+003;3.214160e-002
2.779038e+003;3.314370e-002
2.780966e+003;3.404056e-002
2.782895e+003;3.525831e-002
2.784823e+003;3.658098e-002
2.786752e+003;3.795202e-002
2.788680e+003;3.972846e-002
2.790609e+003;4.156272e-002
2.792538e+003;4.332147e-002
2.794466e+003;4.451175e-002
2.796395e+003;4.507826e-002
2.798323e+003;4.601369e-002
2.800252e+003;4.745099e-002
2.802180e+003;4.914882e-002
2.804109e+003;5.099824e-002
2.806037e+003;5.336703e-002
2.807966e+003;5.597357e-002
2.809895e+003;5.781764e-002
2.811823e+003;5.921170e-002
2.813751e+003;6.064931e-002
2.815680e+003;6.238888e-002
2.817609e+003;6.453353e-002
2.819537e+003;6.676417e-002
2.821466e+003;6.960242e-002
2.823394e+003;7.298040e-002
2.825323e+003;7.726387e-002
2.827251e+003;8.313097e-002
2.829180e+003;9.069698e-002
2.831108e+003;9.931599e-002
2.833037e+003;1.082613e-001
2.834966e+003;1.161330e-001
2.836894e+003;1.201878e-001
2.838823e+003;1.196568e-001
2.840751e+003;1.169516e-001
2.842680e+003;1.128041e-001
2.844608e+003;1.081371e-001
2.846537e+003;1.039754e-001
2.848465e+003;1.008077e-001
2.850394e+003;9.912536e-002
2.852323e+003;9.804355e-002
2.854251e+003;9.732969e-002
2.856180e+003;9.807491e-002
2.858108e+003;1.013379e-001
2.860037e+003;1.067751e-001
2.861965e+003;1.137567e-001
2.863894e+003;1.210586e-001
2.865822e+003;1.268473e-001
2.867751e+003;1.297267e-001
2.869679e+003;1.301030e-001
2.871608e+003;1.296097e-001
2.873536e+003;1.290000e-001
2.875465e+003;1.285499e-001
2.877394e+003;1.277153e-001
2.879322e+003;1.262690e-001
2.881251e+003;1.247217e-001
2.883179e+003;1.235637e-001
2.885108e+003;1.231552e-001
2.887036e+003;1.233443e-001
2.888965e+003;1.245252e-001
2.890893e+003;1.269061e-001
2.892822e+003;1.300279e-001
2.894750e+003;1.337676e-001
2.896679e+003;1.384453e-001
2.898608e+003;1.436083e-001
2.900536e+003;1.490806e-001
2.902465e+003;1.548487e-001
2.904393e+003;1.608460e-001
2.906322e+003;1.667101e-001
2.908250e+003;1.721674e-001
2.910179e+003;1.770482e-001
2.912107e+003;1.817018e-001
2.914036e+003;1.860576e-001
2.915965e+003;1.882787e-001
2.917893e+003;1.878862e-001
2.919822e+003;1.857061e-001
2.921750e+003;1.814745e-001
2.923679e+003;1.753580e-001
2.925607e+003;1.684861e-001
2.927536e+003;1.606933e-001
2.929464e+003;1.518848e-001
2.931393e+003;1.427811e-001
2.933322e+003;1.345453e-001
2.935250e+003;1.276159e-001
2.937178e+003;1.224197e-001
2.939107e+003;1.200812e-001
2.941036e+003;1.218031e-001
2.942964e+003;1.270522e-001
2.944893e+003;1.353621e-001
2.946821e+003;1.448281e-001
2.948750e+003;1.516228e-001
2.950678e+003;1.542142e-001
2.952607e+003;1.532135e-001
2.954535e+003;1.495487e-001
2.956464e+003;1.445764e-001
2.958393e+003;1.388748e-001
2.960321e+003;1.325641e-001
2.962250e+003;1.255271e-001
2.964178e+003;1.179607e-001
2.966107e+003;1.102746e-001
2.968035e+003;1.025418e-001
2.969964e+003;9.526773e-002
2.971892e+003;8.863075e-002
2.973821e+003;8.235226e-002
2.975750e+003;7.717750e-002
2.977678e+003;7.323647e-002
2.979607e+003;6.982137e-002
2.981535e+003;6.656449e-002
2.983464e+003;6.332130e-002
2.985392e+003;6.036498e-002
2.987321e+003;5.801649e-002
2.989249e+003;5.600392e-002
2.991178e+003;5.412818e-002
2.993106e+003;5.220791e-002
2.995035e+003;4.996035e-002
2.996964e+003;4.775886e-002
2.998892e+003;4.610804e-002
3.000821e+003;4.451343e-002
3.002749e+003;4.223187e-002
3.004678e+003;4.042821e-002
3.006606e+003;3.907511e-002
3.008535e+003;3.773439e-002
3.010463e+003;3.655485e-002
3.012392e+003;3.546115e-002
3.014321e+003;3.429862e-002
3.016249e+003;3.313919e-002
3.018177e+003;3.198663e-002
3.020106e+003;3.118217e-002
3.022035e+003;3.060803e-002
3.023963e+003;3.001416e-002
3.025892e+003;2.932782e-002
3.027820e+003;2.869425e-002
3.029749e+003;2.770616e-002
3.031677e+003;2.684917e-002
3.033606e+003;2.638359e-002
3.035534e+003;2.605310e-002
3.037463e+003;2.573917e-002
3.039392e+003;2.534141e-002
3.041320e+003;2.497665e-002
3.043249e+003;2.481850e-002
3.045177e+003;2.458043e-002
3.047106e+003;2.422454e-002
3.049034e+003;2.396610e-002
3.050963e+003;2.380457e-002
3.052891e+003;2.387647e-002
3.054820e+003;2.410505e-002
3.056749e+003;2.389534e-002
3.058677e+003;2.336641e-002
3.060606e+003;2.314971e-002
3.062534e+003;2.301955e-002
3.064463e+003;2.314593e-002
3.066391e+003;2.335197e-002
3.068320e+003;2.316753e-002
3.070248e+003;2.272404e-002
3.072177e+003;2.236834e-002
3.074105e+003;2.241785e-002
3.076034e+003;2.197752e-002
3.077963e+003;2.143550e-002
3.079891e+003;2.163334e-002
3.081820e+003;2.194365e-002
3.083748e+003;2.231445e-002
3.085677e+003;2.240640e-002
3.087605e+003;2.207255e-002
3.089534e+003;2.154966e-002
3.091462e+003;2.132457e-002
3.093391e+003;2.132036e-002
3.095320e+003;2.114830e-002
3.097248e+003;2.106691e-002
3.099177e+003;2.131914e-002
3.101105e+003;2.143400e-002
3.103034e+003;2.147968e-002
3.104962e+003;2.179075e-002
3.106891e+003;2.197027e-002
3.108819e+003;2.170679e-002
3.110748e+003;2.166883e-002
3.112677e+003;2.187824e-002
3.114605e+003;2.184304e-002
3.116533e+003;2.185043e-002
3.118462e+003;2.169272e-002
3.120391e+003;2.144681e-002
3.122319e+003;2.155509e-002
3.124248e+003;2.159681e-002
3.126176e+003;2.209859e-002
3.128105e+003;2.260730e-002
3.130033e+003;2.247838e-002
3.131962e+003;2.284779e-002
3.133890e+003;2.323443e-002
3.135819e+003;2.324313e-002
3.137748e+003;2.321601e-002
3.139676e+003;2.328994e-002
3.141605e+003;2.320542e-002
3.143533e+003;2.355299e-002
3.145462e+003;2.396879e-002
3.147390e+003;2.417539e-002
3.149319e+003;2.422678e-002
3.151247e+003;2.430117e-002
3.153176e+003;2.423337e-002
3.155104e+003;2.389250e-002
3.157033e+003;2.391190e-002
3.158962e+003;2.417311e-002
3.160890e+003;2.432465e-002
3.162819e+003;2.411591e-002
3.164747e+003;2.394463e-002
3.166676e+003;2.422689e-002
3.168604e+003;2.441783e-002
3.170533e+003;2.472572e-002
3.172461e+003;2.496774e-002
3.174390e+003;2.504818e-002
3.176319e+003;2.502649e-002
3.178247e+003;2.471043e-002
3.180176e+003;2.497314e-002
3.182104e+003;2.515441e-002
3.184033e+003;2.521554e-002
3.185961e+003;2.528237e-002
3.187890e+003;2.521291e-002
3.189818e+003;2.535142e-002
3.191747e+003;2.563607e-002
3.193676e+003;2.553903e-002
3.195604e+003;2.552923e-002
3.197532e+003;2.572391e-002
3.199461e+003;2.584638e-002
3.201390e+003;2.586854e-002
3.203318e+003;2.585071e-002
3.205247e+003;2.601412e-002
3.207175e+003;2.600634e-002
3.209104e+003;2.592066e-002
3.211032e+003;2.592481e-002
3.212961e+003;2.578646e-002
3.214889e+003;2.562834e-002
3.216818e+003;2.563192e-002
3.218747e+003;2.564377e-002
3.220675e+003;2.578636e-002
3.222604e+003;2.582215e-002
3.224532e+003;2.560922e-002
3.226461e+003;2.541490e-002
3.228389e+003;2.472393e-002
3.230318e+003;2.443505e-002
3.232246e+003;2.469422e-002
3.234175e+003;2.456584e-002
3.236104e+003;2.411181e-002
3.238032e+003;2.398535e-002
3.239961e+003;2.388319e-002
3.241889e+003;2.390815e-002
3.243818e+003;2.388858e-002
3.245746e+003;2.388834e-002
3.247675e+003;2.398437e-002
3.249603e+003;2.402366e-002
3.251532e+003;2.405231e-002
3.253460e+003;2.423982e-002
3.255389e+003;2.457303e-002
3.257318e+003;2.458509e-002
3.259246e+003;2.425873e-002
3.261175e+003;2.405980e-002
3.263103e+003;2.398795e-002
3.265032e+003;2.438601e-002
3.266960e+003;2.461423e-002
3.268889e+003;2.438955e-002
3.270817e+003;2.432447e-002
3.272746e+003;2.425744e-002
3.274675e+003;2.456738e-002
3.276603e+003;2.521196e-002
3.278531e+003;2.541145e-002
3.280460e+003;2.490808e-002
3.282389e+003;2.492127e-002
3.284317e+003;2.566672e-002
3.286246e+003;2.598777e-002
3.288174e+003;2.559017e-002
3.290103e+003;2.516221e-002
3.292031e+003;2.500476e-002
3.293960e+003;2.499655e-002
3.295888e+003;2.497805e-002
3.297817e+003;2.512706e-002
3.299746e+003;2.547058e-002
3.301674e+003;2.555436e-002
3.303603e+003;2.520325e-002
3.305531e+003;2.513187e-002
3.307460e+003;2.540348e-002
3.309388e+003;2.558433e-002
3.311317e+003;2.549630e-002
3.313245e+003;2.525406e-002
3.315174e+003;2.498564e-002
3.317103e+003;2.474512e-002
3.319031e+003;2.445331e-002
3.320960e+003;2.447798e-002
3.322888e+003;2.476515e-002
3.324817e+003;2.478830e-002
3.326745e+003;2.482205e-002
3.328674e+003;2.519992e-002
3.330602e+003;2.510438e-002
3.332531e+003;2.473898e-002
3.334459e+003;2.481608e-002
3.336388e+003;2.486604e-002
3.338317e+003;2.488633e-002
3.340245e+003;2.459130e-002
3.342174e+003;2.437276e-002
3.344102e+003;2.421897e-002
3.346031e+003;2.406915e-002
3.347959e+003;2.391624e-002
3.349888e+003;2.386912e-002
3.351816e+003;2.427839e-002
3.353745e+003;2.456777e-002
3.355674e+003;2.462829e-002
3.357602e+003;2.430422e-002
3.359531e+003;2.420422e-002
3.361459e+003;2.406541e-002
3.363388e+003;2.377458e-002
3.365316e+003;2.362449e-002
3.367245e+003;2.401827e-002
3.369173e+003;2.404849e-002
3.371102e+003;2.373335e-002
3.373031e+003;2.364752e-002
3.374959e+003;2.326491e-002
3.376887e+003;2.280337e-002
3.378816e+003;2.272921e-002
3.380745e+003;2.253488e-002
3.382673e+003;2.211944e-002
3.384602e+003;2.232129e-002
3.386530e+003;2.253736e-002
3.388459e+003;2.249004e-002
3.390387e+003;2.269248e-002
3.392316e+003;2.266228e-002
3.394244e+003;2.251017e-002
3.396173e+003;2.203159e-002
3.398102e+003;2.161756e-002
3.400030e+003;2.164577e-002
3.401959e+003;2.162881e-002
3.403887e+003;2.166454e-002
3.405816e+003;2.144901e-002
3.407744e+003;2.132788e-002
3.409673e+003;2.150039e-002
3.411601e+003;2.141336e-002
3.413530e+003;2.126434e-002
3.415458e+003;2.145945e-002
3.417387e+003;2.123730e-002
3.419316e+003;2.078079e-002
3.421244e+003;2.084562e-002
3.423173e+003;2.073787e-002
3.425101e+003;2.054276e-002
3.427030e+003;2.060245e-002
3.428958e+003;2.022700e-002
3.430887e+003;1.985485e-002
3.432815e+003;1.955581e-002
3.434744e+003;1.936172e-002
3.436673e+003;1.959782e-002
3.438601e+003;1.954666e-002
3.440530e+003;1.933095e-002
3.442458e+003;1.899094e-002
3.444387e+003;1.881039e-002
3.446315e+003;1.805788e-002
3.448244e+003;1.755719e-002
3.450172e+003;1.760833e-002
3.452101e+003;1.761547e-002
3.454030e+003;1.749986e-002
3.455958e+003;1.750765e-002
3.457886e+003;1.741307e-002
3.459815e+003;1.760188e-002
3.461744e+003;1.775131e-002
3.463672e+003;1.757013e-002
3.465601e+003;1.702727e-002
3.467529e+003;1.675475e-002
3.469458e+003;1.679398e-002
3.471386e+003;1.651957e-002
3.473315e+003;1.617573e-002
3.475243e+003;1.615981e-002
3.477172e+003;1.599219e-002
3.479101e+003;1.552783e-002
3.481029e+003;1.528611e-002
3.482958e+003;1.531580e-002
3.484886e+003;1.523803e-002
3.486815e+003;1.518361e-002
3.488743e+003;1.486033e-002
3.490672e+003;1.464362e-002
3.492600e+003;1.497942e-002
3.494529e+003;1.444805e-002
3.496458e+003;1.366059e-002
3.498386e+003;1.356257e-002
3.500315e+003;1.355522e-002
3.502243e+003;1.337979e-002
3.504172e+003;1.357146e-002
3.506100e+003;1.393781e-002
3.508029e+003;1.388331e-002
3.509957e+003;1.360076e-002
3.511886e+003;1.319657e-002
3.513814e+003;1.298741e-002
3.515743e+003;1.278395e-002
3.517672e+003;1.281094e-002
3.519600e+003;1.282661e-002
3.521529e+003;1.228756e-002
3.523457e+003;1.197890e-002
3.525386e+003;1.181111e-002
3.527314e+003;1.163805e-002
3.529243e+003;1.189253e-002
3.531171e+003;1.181121e-002
3.533100e+003;1.133056e-002
3.535029e+003;1.132321e-002
3.536957e+003;1.130597e-002
3.538885e+003;1.076765e-002
3.540814e+003;1.040637e-002
3.542743e+003;1.021450e-002
3.544671e+003;9.907335e-003
3.546600e+003;9.939947e-003
3.548528e+003;1.000335e-002
3.550457e+003;9.948761e-003
3.552385e+003;9.363739e-003
3.554314e+003;8.860893e-003
3.556242e+003;9.240046e-003
3.558171e+003;9.890183e-003
3.560100e+003;9.640093e-003
3.562028e+003;8.751339e-003
3.563957e+003;8.190616e-003
3.565885e+003;7.048638e-003
3.567814e+003;6.365549e-003
3.569742e+003;6.874096e-003
3.571671e+003;7.375791e-003
3.573599e+003;7.385834e-003
3.575528e+003;7.789371e-003
3.577457e+003;7.564088e-003
3.579385e+003;6.739398e-003
3.581314e+003;6.625568e-003
3.583242e+003;6.171149e-003
3.585171e+003;5.382610e-003
3.587099e+003;5.058530e-003
3.589028e+003;5.482323e-003
3.590956e+003;6.017217e-003
3.592885e+003;5.553869e-003
3.594813e+003;5.442898e-003
3.596742e+003;5.769347e-003
3.598671e+003;5.769683e-003
3.600599e+003;5.829286e-003
3.602528e+003;5.668829e-003
3.604456e+003;5.288822e-003
3.606385e+003;4.423045e-003
3.608313e+003;3.571786e-003
3.610242e+003;3.783341e-003
3.612170e+003;4.072922e-003
3.614099e+003;4.474329e-003
3.616028e+003;4.356974e-003
3.617956e+003;2.966326e-003
3.619885e+003;2.658912e-003
3.621813e+003;3.854841e-003
3.623742e+003;4.183075e-003
3.625670e+003;3.157594e-003
3.627599e+003;4.465782e-004
3.629527e+003;1.614922e-004
3.631456e+003;2.539780e-003
3.633385e+003;3.397967e-003
3.635313e+003;3.418605e-003
3.637241e+003;3.513293e-003
3.639170e+003;3.930699e-003
3.641099e+003;4.293088e-003
3.643027e+003;4.206962e-003
3.644956e+003;2.960355e-003
3.646884e+003;1.219021e-003
3.648813e+003;1.588405e-004
3.650741e+003;9.526537e-004
3.652670e+003;2.161402e-003
3.654598e+003;1.622520e-003
3.656527e+003;1.674405e-003
3.658456e+003;2.715290e-003
3.660384e+003;2.998321e-003
3.662313e+003;3.191639e-003
3.664241e+003;3.291185e-003
3.666170e+003;2.813993e-003
3.668098e+003;1.035081e-003
3.670027e+003;-4.584987e-004
3.671955e+003;6.432102e-004
3.673884e+003;-1.049228e-004
3.675813e+003;-9.506678e-004
3.677741e+003;1.671112e-003
3.679669e+003;2.965259e-003
3.681598e+003;2.874093e-003
3.683527e+003;3.355825e-003
3.685455e+003;3.365642e-003
3.687384e+003;1.424280e-003
3.689312e+003;9.070631e-004
3.691241e+003;1.926671e-003
3.693169e+003;3.031119e-003
3.695098e+003;3.639174e-003
3.697026e+003;3.546129e-003
3.698955e+003;3.274626e-003
3.700884e+003;2.623276e-003
3.702812e+003;3.158028e-003
3.704741e+003;3.875333e-003
3.706669e+003;3.251090e-003
3.708598e+003;2.086651e-003
3.710526e+003;1.268565e-003
3.712455e+003;1.694064e-003
3.714383e+003;2.690484e-003
3.716312e+003;2.445138e-003
3.718240e+003;2.836938e-003
3.720169e+003;3.184162e-003
3.722098e+003;2.954984e-003
3.724026e+003;2.794284e-003
3.725955e+003;2.591242e-003
3.727883e+003;2.493156e-003
3.729812e+003;2.063812e-003
3.731740e+003;8.652622e-004
3.733669e+003;2.210934e-004
3.735597e+003;-2.805216e-004
3.737526e+003;8.632038e-004
3.739455e+003;2.294886e-003
3.741383e+003;1.672343e-003
3.743312e+003;-1.800015e-003
3.745240e+003;-1.551147e-003
3.747169e+003;9.838611e-005
3.749097e+003;-1.542034e-003
3.751026e+003;-1.820407e-003
3.752954e+003;5.877647e-004
3.754883e+003;2.765005e-003
3.756812e+003;2.756302e-003
3.758740e+003;2.807123e-003
3.760668e+003;3.574859e-003
3.762597e+003;4.169727e-003
3.764526e+003;3.633193e-003
3.766454e+003;3.689797e-003
3.768383e+003;3.098990e-003
3.770311e+003;2.889703e-003
3.772240e+003;3.652105e-003
3.774168e+003;4.014629e-003
3.776097e+003;3.485135e-003
3.778025e+003;3.179323e-003
3.779954e+003;3.329981e-003
3.781883e+003;3.446625e-003
3.783811e+003;3.200618e-003
3.785740e+003;3.596040e-003
3.787668e+003;3.855442e-003
3.789597e+003;4.108878e-003
3.791525e+003;4.276156e-003
3.793454e+003;3.784678e-003
3.795382e+003;3.319765e-003
3.797311e+003;3.324105e-003
3.799240e+003;1.934259e-003
3.801168e+003;8.963054e-004
3.803097e+003;2.445804e-003
3.805025e+003;1.985783e-003
3.806954e+003;1.074473e-003
3.808882e+003;2.704020e-003
3.810811e+003;3.654578e-003
3.812739e+003;3.048202e-003
3.814668e+003;7.340420e-004
3.816596e+003;8.820286e-004
3.818525e+003;2.076696e-003
3.820454e+003;1.203338e-003
3.822382e+003;2.025495e-003
3.824311e+003;3.290884e-003
3.826239e+003;3.404011e-003
3.828168e+003;3.261673e-003
3.830096e+003;3.024812e-003
3.832025e+003;3.394961e-003
3.833953e+003;3.158329e-003
3.835882e+003;1.305387e-003
3.837811e+003;1.550950e-004
3.839739e+003;1.166890e-003
3.841667e+003;1.498352e-003
3.843596e+003;1.875454e-003
3.845525e+003;3.022510e-003
3.847453e+003;3.823585e-003
3.849382e+003;2.890203e-003
3.851310e+003;-8.604333e-004
3.853239e+003;-3.430599e-003
3.855167e+003;1.420689e-004
3.857096e+003;3.443552e-003
3.859024e+003;3.523681e-003
3.860953e+003;3.426153e-003
3.862882e+003;3.291051e-003
3.864810e+003;2.846843e-003
3.866739e+003;3.420208e-003
3.868667e+003;2.432909e-003
3.870596e+003;2.231502e-003
3.872524e+003;3.418104e-003
3.874453e+003;3.980453e-003
3.876381e+003;4.619610e-003
3.878310e+003;4.034394e-003
3.880239e+003;3.250790e-003
3.882167e+003;3.616521e-003
3.884096e+003;3.380101e-003
3.886024e+003;3.480325e-003
3.887953e+003;4.511089e-003
3.889881e+003;3.644821e-003
3.891810e+003;3.214304e-003
3.893738e+003;4.138047e-003
3.895667e+003;4.907472e-003
3.897595e+003;4.784706e-003
3.899524e+003;4.017071e-003
3.901453e+003;2.994184e-003
3.903381e+003;2.986877e-003
3.905310e+003;4.272341e-003
3.907238e+003;5.081661e-003
3.909167e+003;4.801926e-003
3.911095e+003;4.444167e-003
3.913024e+003;4.798878e-003
3.914952e+003;4.805812e-003
3.916881e+003;3.922674e-003
3.918810e+003;3.654812e-003
3.920738e+003;4.325816e-003
3.922667e+003;4.943396e-003
3.924595e+003;4.985525e-003
3.926524e+003;4.999434e-003
3.928452e+003;5.335579e-003
3.930381e+003;5.288922e-003
3.932309e+003;5.124674e-003
3.934238e+003;5.407771e-003
3.936167e+003;5.711699e-003
3.938095e+003;6.139054e-003
3.940023e+003;6.153471e-003
3.941952e+003;5.738390e-003
3.943881e+003;5.780461e-003
3.945809e+003;5.444475e-003
3.947738e+003;4.604307e-003
3.949666e+003;4.590309e-003
3.951595e+003;5.350641e-003
3.953523e+003;5.560312e-003
3.955452e+003;5.521551e-003
3.957380e+003;6.045842e-003
3.959309e+003;6.432767e-003
3.961238e+003;6.580959e-003
3.963166e+003;5.865925e-003
3.965095e+003;5.498900e-003
3.967023e+003;6.247144e-003
3.968952e+003;6.479311e-003
3.970880e+003;5.769582e-003
3.972809e+003;5.525142e-003
3.974737e+003;6.003039e-003
3.976666e+003;5.873919e-003
3.978594e+003;5.457158e-003
3.980523e+003;5.823544e-003
3.982452e+003;6.388615e-003
3.984380e+003;6.832962e-003
3.986309e+003;6.990012e-003
3.988237e+003;6.872110e-003
3.990166e+003;6.800415e-003
3.992094e+003;6.909443e-003
3.994023e+003;6.826297e-003
3.995951e+003;6.944793e-003
3.997880e+003;7.537285e-003
3.999809e+003;7.147556e-003
4.001737e+003;0.000000e+000
