3.992094e+002;0.000000e+000
4.011380e+002;0.000000e+000
4.030665e+002;0.000000e+000
4.049951e+002;0.000000e+000
4.069236e+002;0.000000e+000
4.088522e+002;0.000000e+000
4.107807e+002;0.000000e+000
4.127093e+002;0.000000e+000
4.146378e+002;0.000000e+000
4.165664e+002;0.000000e+000
4.184949e+002;0.000000e+000
4.204235e+002;0.000000e+000
4.223520e+002;0.000000e+000
4.242806e+002;0.000000e+000
4.262091e+002;0.000000e+000
4.281377e+002;0.000000e+000
4.300662e+002;0.000000e+000
4.319948e+002;0.000000e+000
4.339233e+002;0.000000e+000
4.358519e+002;0.000000e+000
4.377804e+002;0.000000e+000
4.397090e+002;0.000000e+000
4.416375e+002;0.000000e+000
4.435660e+002;0.000000e+000
4.454946e+002;0.000000e+000
4.474232e+002;0.000000e+000
4.493517e+002;0.000000e+000
4.512802e+002;0.000000e+000
4.532088e+002;0.000000e+000
4.551373e+002;0.000000e+000
4.570659e+002;0.000000e+000
4.589944e+002;0.000000e+000
4.609230e+002;0.000000e+000
4.628515e+002;0.000000e+000
4.647801e+002;0.000000e+000
4.667086e+002;0.000000e+000
4.686372e+002;0.000000e+000
4.705657e+002;0.000000e+000
4.724943e+002;0.000000e+000
4.744228e+002;0.000000e+000
4.763513e+002;0.000000e+000
4.782799e+002;0.000000e+000
4.802085e+002;0.000000e+000
4.821370e+002;0.000000e+000
4.840656e+002;0.000000e+000
4.859941e+002;0.000000e+000
4.879226e+002;0.000000e+000
4.898512e+002;0.000000e+000
4.917798e+002;0.000000e+000
4.937083e+002;0.000000e+000
4.956368e+002;0.000000e+000
4.975654e+002;0.000000e+000
4.994939e+002;0.000000e+000
5.014225e+002;0.000000e+000
5.033510e+002;0.000000e+000
5.052796e+002;0.000000e+000
5.072081e+002;0.000000e+000
5.091367e+002;0.000000e+000
5.110652e+002;0.000000e+000
5.129938e+002;0.000000e+000
5.149223e+002;0.000000e+000
5.168509e+002;0.000000e+000
5.187794e+002;0.000000e+000
5.207079e+002;0.000000e+000
5.226365e+002;0.000000e+000
5.245651e+002;0.000000e+000
5.264936e+002;0.000000e+000
5.284222e+002;0.000000e+000
5.303507e+002;0.000000e+000
5.322792e+002;0.000000e+000
5.342078e+002;0.000000e+000
5.361364e+002;0.000000e+000
5.380649e+002;0.000000e+000
5.399935e+002;0.000000e+000
5.419220e+002;0.000000e+000
5.438505e+002;0.000000e+000
5.457791e+002;0.000000e+000
5.477076e+002;0.000000e+000
5.496362e+002;0.000000e+000
5.515648e+002;0.000000e+000
5.534933e+002;0.000000e+000
5.554218e+002;0.000000e+000
5.573504e+002;0.000000e+000
5.592789e+002;0.000000e+000
5.612075e+002;0.000000e+000
5.631360e+002;0.000000e+000
5.650646e+002;0.000000e+000
5.669931e+002;0.000000e+000
5.689217e+002;0.000000e+000
5.708502e+002;0.000000e+000
5.727787e+002;0.000000e+000
5.747073e+002;0.000000e+000
5.766359e+002;0.000000e+000
5.785644e+002;0.000000e+000
5.804930e+002;0.000000e+000
5.824215e+002;0.000000e+000
5.843500e+002;0.000000e+000
5.862786e+002;0.000000e+000
5.882072e+002;0.000000e+000
5.901357e+002;0.000000e+000
5.920643e+002;0.000000e+000
5.939928e+002;0.000000e+000
5.959213e+002;0.000000e+000
5.978499e+002;0.000000e+000
5.997784e+002;6.036495e-002
6.017070e+002;5.119593e-002
6.036355e+002;5.140277e-002
6.055641e+002;6.135778e-002
6.074926e+002;6.703752e-002
6.094211e+002;6.294440e-002
6.113497e+002;5.878349e-002
6.132783e+002;6.206833e-002
6.152068e+002;6.360772e-002
6.171354e+002;6.151072e-002
6.190639e+002;5.912115e-002
6.209924e+002;5.848511e-002
6.229210e+002;5.924379e-002
6.248495e+002;6.111159e-002
6.267781e+002;6.290844e-002
6.287067e+002;5.985976e-002
6.306352e+002;5.925321e-002
6.325637e+002;6.427594e-002
6.344923e+002;6.458639e-002
6.364208e+002;5.932701e-002
6.383494e+002;5.840092e-002
6.402780e+002;5.889413e-002
6.422065e+002;5.826475e-002
6.441350e+002;5.991114e-002
6.460636e+002;6.040763e-002
6.479921e+002;6.085372e-002
6.499207e+002;6.262401e-002
6.518492e+002;6.172192e-002
6.537778e+002;6.014223e-002
6.557063e+002;6.060066e-002
6.576349e+002;6.137843e-002
6.595634e+002;6.359912e-002
6.614919e+002;6.750824e-002
6.634205e+002;6.699681e-002
6.653491e+002;6.353009e-002
6.672776e+002;6.281071e-002
6.692062e+002;6.388588e-002
6.711347e+002;6.498081e-002
6.730632e+002;6.679713e-002
6.749918e+002;6.737806e-002
6.769203e+002;6.691053e-002
6.788489e+002;6.603371e-002
6.807775e+002;6.452504e-002
6.827060e+002;6.279796e-002
6.846345e+002;6.257181e-002
6.865631e+002;6.336654e-002
6.884916e+002;6.442238e-002
6.904202e+002;6.510847e-002
6.923488e+002;6.391183e-002
6.942773e+002;6.266335e-002
6.962058e+002;6.474002e-002
6.981344e+002;6.631996e-002
7.000629e+002;6.599036e-002
7.019915e+002;6.522936e-002
7.039200e+002;6.425477e-002
7.058486e+002;6.391759e-002
7.077771e+002;6.457736e-002
7.097057e+002;6.506502e-002
7.116342e+002;6.491335e-002
7.135627e+002;6.557877e-002
7.154913e+002;6.691165e-002
7.174199e+002;6.676383e-002
7.193484e+002;6.539661e-002
7.212770e+002;6.483252e-002
7.232055e+002;6.563742e-002
7.251340e+002;6.594782e-002
7.270626e+002;6.545050e-002
7.289911e+002;6.545786e-002
7.309197e+002;6.598650e-002
7.328483e+002;6.437638e-002
7.347768e+002;6.267431e-002
7.367053e+002;6.212831e-002
7.386339e+002;6.209956e-002
7.405624e+002;6.279264e-002
7.424910e+002;6.369619e-002
7.444196e+002;6.369887e-002
7.463481e+002;6.334595e-002
7.482766e+002;6.234340e-002
7.502052e+002;6.146518e-002
7.521337e+002;6.175920e-002
7.540623e+002;6.225292e-002
7.559908e+002;6.226274e-002
7.579194e+002;6.184298e-002
7.598479e+002;6.141682e-002
7.617765e+002;6.146491e-002
7.637050e+002;6.139907e-002
7.656335e+002;6.205950e-002
7.675621e+002;6.269712e-002
7.694907e+002;6.308561e-002
7.714192e+002;6.342264e-002
7.733478e+002;6.289649e-002
7.752763e+002;6.240698e-002
7.772048e+002;6.269023e-002
7.791334e+002;6.293854e-002
7.810620e+002;6.327906e-002
7.829905e+002;6.484876e-002
7.849191e+002;6.630178e-002
7.868476e+002;6.692703e-002
7.887761e+002;6.743316e-002
7.907047e+002;6.771026e-002
7.926332e+002;6.880169e-002
7.945618e+002;7.080933e-002
7.964903e+002;7.330672e-002
7.984189e+002;7.472453e-002
8.003474e+002;7.577507e-002
8.022759e+002;7.727737e-002
8.042045e+002;7.891960e-002
8.061331e+002;8.132893e-002
8.080616e+002;8.477774e-002
8.099902e+002;8.588732e-002
8.119187e+002;8.409067e-002
8.138472e+002;8.032934e-002
8.157758e+002;7.659594e-002
8.177043e+002;7.443941e-002
8.196329e+002;7.303450e-002
8.215615e+002;7.240395e-002
8.234900e+002;7.155338e-002
8.254185e+002;7.068279e-002
8.273471e+002;7.007107e-002
8.292756e+002;6.908689e-002
8.312042e+002;6.851609e-002
8.331328e+002;6.902617e-002
8.350613e+002;7.029649e-002
8.369898e+002;7.359964e-002
8.389184e+002;7.987669e-002
8.408469e+002;8.670925e-002
8.427755e+002;8.654539e-002
8.447040e+002;8.045860e-002
8.466326e+002;7.432336e-002
8.485611e+002;6.999356e-002
8.504897e+002;6.717484e-002
8.524182e+002;6.608016e-002
8.543467e+002;6.599090e-002
8.562753e+002;6.524868e-002
8.582039e+002;6.424266e-002
8.601324e+002;6.398078e-002
8.620610e+002;6.424009e-002
8.639895e+002;6.477421e-002
8.659180e+002;6.555052e-002
8.678466e+002;6.621162e-002
8.697751e+002;6.706993e-002
8.717037e+002;6.791834e-002
8.736323e+002;6.864239e-002
8.755608e+002;6.866843e-002
8.774893e+002;6.818699e-002
8.794179e+002;6.742952e-002
8.813464e+002;6.700334e-002
8.832750e+002;6.677067e-002
8.852036e+002;6.623844e-002
8.871321e+002;6.572765e-002
8.890606e+002;6.598499e-002
8.909892e+002;6.712352e-002
8.929177e+002;6.917485e-002
8.948463e+002;7.242145e-002
8.967748e+002;7.625762e-002
8.987034e+002;7.929246e-002
9.006319e+002;7.975102e-002
9.025605e+002;7.667536e-002
9.044890e+002;7.149603e-002
9.064175e+002;6.693275e-002
9.083461e+002;6.394105e-002
9.102747e+002;6.260958e-002
9.122032e+002;6.171558e-002
9.141318e+002;6.091696e-002
9.160603e+002;6.047427e-002
9.179888e+002;6.026037e-002
9.199174e+002;6.007944e-002
9.218459e+002;5.999365e-002
9.237745e+002;5.970416e-002
9.257031e+002;5.947521e-002
9.276316e+002;5.992609e-002
9.295601e+002;6.047595e-002
9.314887e+002;6.086009e-002
9.334172e+002;6.127311e-002
9.353458e+002;6.222867e-002
9.372744e+002;6.352625e-002
9.392029e+002;6.527984e-002
9.411314e+002;6.625334e-002
9.430600e+002;6.628001e-002
9.449885e+002;6.617878e-002
9.469171e+002;6.602392e-002
9.488456e+002;6.596906e-002
9.507742e+002;6.647439e-002
9.527027e+002;6.745913e-002
9.546313e+002;6.822044e-002
9.565598e+002;6.889716e-002
9.584883e+002;7.021761e-002
9.604169e+002;7.191210e-002
9.623455e+002;7.437940e-002
9.642740e+002;7.753611e-002
9.662026e+002;8.170362e-002
9.681311e+002;8.816467e-002
9.700596e+002;9.653919e-002
9.719882e+002;1.041598e-001
9.739167e+002;1.068506e-001
9.758453e+002;1.032156e-001
9.777739e+002;9.548998e-002
9.797024e+002;8.675206e-002
9.816309e+002;7.949422e-002
9.835595e+002;7.490493e-002
9.854880e+002;7.288092e-002
9.874166e+002;7.315788e-002
9.893452e+002;7.526339e-002
9.912737e+002;7.874154e-002
9.932022e+002;8.440268e-002
9.951307e+002;9.191482e-002
9.970593e+002;9.790227e-002
9.989879e+002;9.880631e-002
1.000916e+003;9.461600e-002
1.002845e+003;8.799819e-002
1.004773e+003;8.281010e-002
1.006702e+003;8.024578e-002
1.008631e+003;7.868423e-002
1.010559e+003;7.794801e-002
1.012488e+003;7.749594e-002
1.014416e+003;7.695751e-002
1.016345e+003;7.618575e-002
1.018273e+003;7.597012e-002
1.020202e+003;7.679392e-002
1.022130e+003;7.722195e-002
1.024059e+003;7.662855e-002
1.025988e+003;7.591783e-002
1.027916e+003;7.629897e-002
1.029845e+003;7.752454e-002
1.031773e+003;7.828059e-002
1.033702e+003;7.862355e-002
1.035630e+003;7.961759e-002
1.037559e+003;8.076792e-002
1.039487e+003;8.174853e-002
1.041416e+003;8.216125e-002
1.043344e+003;8.207070e-002
1.045273e+003;8.139399e-002
1.047202e+003;8.023239e-002
1.049130e+003;7.907878e-002
1.051059e+003;7.840643e-002
1.052987e+003;7.763194e-002
1.054916e+003;7.681046e-002
1.056844e+003;7.638793e-002
1.058773e+003;7.615909e-002
1.060701e+003;7.573827e-002
1.062630e+003;7.530110e-002
1.064558e+003;7.510509e-002
1.066487e+003;7.557041e-002
1.068416e+003;7.577669e-002
1.070344e+003;7.529235e-002
1.072273e+003;7.560421e-002
1.074201e+003;7.632216e-002
1.076130e+003;7.650101e-002
1.078058e+003;7.619471e-002
1.079987e+003;7.571220e-002
1.081915e+003;7.587418e-002
1.083844e+003;7.587801e-002
1.085773e+003;7.571488e-002
1.087701e+003;7.653587e-002
1.089630e+003;7.748458e-002
1.091558e+003;7.788669e-002
1.093487e+003;7.861489e-002
1.095415e+003;7.949167e-002
1.097344e+003;8.028755e-002
1.099272e+003;8.130803e-002
1.101201e+003;8.265119e-002
1.103129e+003;8.285781e-002
1.105058e+003;8.168594e-002
1.106987e+003;7.995468e-002
1.108915e+003;7.794619e-002
1.110844e+003;7.570438e-002
1.112772e+003;7.388581e-002
1.114701e+003;7.291886e-002
1.116629e+003;7.192418e-002
1.118558e+003;7.052054e-002
1.120486e+003;6.978857e-002
1.122415e+003;6.961137e-002
1.124344e+003;6.939436e-002
1.126272e+003;6.917022e-002
1.128201e+003;6.884144e-002
1.130129e+003;6.900438e-002
1.132058e+003;6.925932e-002
1.133986e+003;7.016456e-002
1.135915e+003;7.143451e-002
1.137843e+003;7.269408e-002
1.139772e+003;7.491469e-002
1.141700e+003;7.734534e-002
1.143629e+003;7.992480e-002
1.145557e+003;8.268185e-002
1.147486e+003;8.587161e-002
1.149415e+003;8.903038e-002
1.151343e+003;9.128515e-002
1.153272e+003;9.276536e-002
1.155200e+003;9.358481e-002
1.157129e+003;9.363681e-002
1.159057e+003;9.411748e-002
1.160986e+003;9.499747e-002
1.162914e+003;9.599651e-002
1.164843e+003;9.718317e-002
1.166771e+003;9.784196e-002
1.168700e+003;9.704477e-002
1.170629e+003;9.403898e-002
1.172557e+003;8.945375e-002
1.174486e+003;8.438352e-002
1.176414e+003;7.990026e-002
1.178343e+003;7.631995e-002
1.180271e+003;7.366119e-002
1.182200e+003;7.211532e-002
1.184128e+003;7.143588e-002
1.186057e+003;7.098319e-002
1.187986e+003;7.054334e-002
1.189914e+003;7.026591e-002
1.191843e+003;7.012773e-002
1.193771e+003;6.990302e-002
1.195700e+003;6.980149e-002
1.197628e+003;7.019307e-002
1.199557e+003;7.041469e-002
1.201485e+003;7.011904e-002
1.203414e+003;7.012699e-002
1.205343e+003;7.057067e-002
1.207271e+003;7.092007e-002
1.209200e+003;7.143310e-002
1.211128e+003;7.241441e-002
1.213057e+003;7.353253e-002
1.214985e+003;7.436654e-002
1.216914e+003;7.464027e-002
1.218842e+003;7.447033e-002
1.220771e+003;7.431511e-002
1.222699e+003;7.384591e-002
1.224628e+003;7.316333e-002
1.226557e+003;7.282277e-002
1.228485e+003;7.247650e-002
1.230414e+003;7.243296e-002
1.232342e+003;7.271715e-002
1.234271e+003;7.282756e-002
1.236199e+003;7.284930e-002
1.238128e+003;7.305998e-002
1.240056e+003;7.327946e-002
1.241985e+003;7.356557e-002
1.243913e+003;7.434216e-002
1.245842e+003;7.514051e-002
1.247771e+003;7.564258e-002
1.249699e+003;7.675324e-002
1.251628e+003;7.922971e-002
1.253556e+003;8.244150e-002
1.255485e+003;8.461130e-002
1.257413e+003;8.543631e-002
1.259342e+003;8.491014e-002
1.261270e+003;8.261211e-002
1.263199e+003;7.961030e-002
1.265127e+003;7.751372e-002
1.267056e+003;7.590789e-002
1.268985e+003;7.454203e-002
1.270913e+003;7.358465e-002
1.272842e+003;7.326487e-002
1.274770e+003;7.325545e-002
1.276699e+003;7.322451e-002
1.278627e+003;7.314780e-002
1.280556e+003;7.314344e-002
1.282484e+003;7.341225e-002
1.284413e+003;7.379089e-002
1.286342e+003;7.442159e-002
1.288270e+003;7.530291e-002
1.290199e+003;7.625612e-002
1.292127e+003;7.716127e-002
1.294056e+003;7.797894e-002
1.295984e+003;7.830269e-002
1.297913e+003;7.844409e-002
1.299841e+003;7.832178e-002
1.301770e+003;7.873475e-002
1.303698e+003;7.928637e-002
1.305627e+003;7.825913e-002
1.307556e+003;7.564865e-002
1.309484e+003;7.316964e-002
1.311413e+003;7.213065e-002
1.313341e+003;7.207952e-002
1.315270e+003;7.228489e-002
1.317198e+003;7.289029e-002
1.319127e+003;7.367364e-002
1.321055e+003;7.470028e-002
1.322984e+003;7.621153e-002
1.324912e+003;7.785913e-002
1.326841e+003;7.915945e-002
1.328770e+003;8.028935e-002
1.330698e+003;8.047172e-002
1.332627e+003;7.975934e-002
1.334555e+003;7.901312e-002
1.336484e+003;7.862621e-002
1.338412e+003;7.893980e-002
1.340341e+003;7.963534e-002
1.342269e+003;8.043770e-002
1.344198e+003;8.201495e-002
1.346126e+003;8.410648e-002
1.348055e+003;8.692283e-002
1.349984e+003;9.081654e-002
1.351912e+003;9.523975e-002
1.353841e+003;1.009006e-001
1.355769e+003;1.076819e-001
1.357698e+003;1.133471e-001
1.359626e+003;1.157285e-001
1.361555e+003;1.148650e-001
1.363483e+003;1.139058e-001
1.365412e+003;1.157273e-001
1.367341e+003;1.227628e-001
1.369269e+003;1.368225e-001
1.371198e+003;1.575300e-001
1.373126e+003;1.811435e-001
1.375055e+003;1.990751e-001
1.376983e+003;1.989932e-001
1.378912e+003;1.794076e-001
1.380840e+003;1.536513e-001
1.382769e+003;1.311292e-001
1.384698e+003;1.137130e-001
1.386626e+003;1.014932e-001
1.388555e+003;9.347673e-002
1.390483e+003;8.849891e-002
1.392412e+003;8.542195e-002
1.394340e+003;8.350545e-002
1.396269e+003;8.269051e-002
1.398197e+003;8.235522e-002
1.400126e+003;8.223721e-002
1.402054e+003;8.257144e-002
1.403983e+003;8.309731e-002
1.405911e+003;8.337560e-002
1.407840e+003;8.325525e-002
1.409769e+003;8.317696e-002
1.411697e+003;8.400294e-002
1.413626e+003;8.489523e-002
1.415554e+003;8.519145e-002
1.417483e+003;8.509349e-002
1.419411e+003;8.520487e-002
1.421340e+003;8.615334e-002
1.423268e+003;8.769653e-002
1.425197e+003;8.939619e-002
1.427125e+003;9.235252e-002
1.429054e+003;9.759344e-002
1.430983e+003;1.050212e-001
1.432911e+003;1.138212e-001
1.434840e+003;1.201789e-001
1.436768e+003;1.224164e-001
1.438697e+003;1.236499e-001
1.440625e+003;1.260125e-001
1.442554e+003;1.307929e-001
1.444482e+003;1.384889e-001
1.446411e+003;1.477922e-001
1.448340e+003;1.565712e-001
1.450268e+003;1.630933e-001
1.452197e+003;1.670932e-001
1.454125e+003;1.688224e-001
1.456054e+003;1.684411e-001
1.457982e+003;1.665386e-001
1.459911e+003;1.639127e-001
1.461839e+003;1.595768e-001
1.463768e+003;1.527892e-001
1.465697e+003;1.439413e-001
1.467625e+003;1.339867e-001
1.469554e+003;1.238716e-001
1.471482e+003;1.145247e-001
1.473411e+003;1.058939e-001
1.475339e+003;9.807508e-002
1.477268e+003;9.166292e-002
1.479196e+003;8.651167e-002
1.481125e+003;8.225682e-002
1.483053e+003;7.863959e-002
1.484982e+003;7.537290e-002
1.486911e+003;7.263520e-002
1.488839e+003;7.069640e-002
1.490768e+003;6.929073e-002
1.492696e+003;6.833681e-002
1.494625e+003;6.735078e-002
1.496553e+003;6.615007e-002
1.498482e+003;6.523575e-002
1.500410e+003;6.475063e-002
1.502339e+003;6.441326e-002
1.504267e+003;6.401019e-002
1.506196e+003;6.336106e-002
1.508125e+003;6.303362e-002
1.510053e+003;6.319543e-002
1.511982e+003;6.356096e-002
1.513910e+003;6.394650e-002
1.515839e+003;6.400186e-002
1.517767e+003;6.369577e-002
1.519696e+003;6.333211e-002
1.521624e+003;6.344633e-002
1.523553e+003;6.388205e-002
1.525481e+003;6.405205e-002
1.527410e+003;6.449671e-002
1.529339e+003;6.480248e-002
1.531267e+003;6.518646e-002
1.533196e+003;6.605362e-002
1.535124e+003;6.694729e-002
1.537053e+003;6.739578e-002
1.538981e+003;6.773257e-002
1.540910e+003;6.855520e-002
1.542838e+003;6.946974e-002
1.544767e+003;6.996950e-002
1.546695e+003;7.008521e-002
1.548624e+003;6.998690e-002
1.550553e+003;6.964058e-002
1.552481e+003;6.933025e-002
1.554410e+003;6.893156e-002
1.556338e+003;6.809462e-002
1.558267e+003;6.684802e-002
1.560195e+003;6.667438e-002
1.562124e+003;6.666102e-002
1.564052e+003;6.628402e-002
1.565981e+003;6.632613e-002
1.567910e+003;6.618098e-002
1.569838e+003;6.553338e-002
1.571767e+003;6.527372e-002
1.573695e+003;6.537666e-002
1.575624e+003;6.540255e-002
1.577552e+003;6.560979e-002
1.579481e+003;6.572726e-002
1.581409e+003;6.557133e-002
1.583338e+003;6.526405e-002
1.585266e+003;6.490935e-002
1.587195e+003;6.477779e-002
1.589124e+003;6.465434e-002
1.591052e+003;6.437495e-002
1.592981e+003;6.439766e-002
1.594909e+003;6.459835e-002
1.596838e+003;6.457133e-002
1.598766e+003;6.473225e-002
1.600695e+003;6.514354e-002
1.602623e+003;6.551642e-002
1.604552e+003;6.610655e-002
1.606480e+003;6.662934e-002
1.608409e+003;6.698331e-002
1.610338e+003;6.731240e-002
1.612266e+003;6.770639e-002
1.614195e+003;6.831630e-002
1.616123e+003;6.883721e-002
1.618052e+003;6.944894e-002
1.619980e+003;6.993614e-002
1.621909e+003;7.035025e-002
1.623837e+003;7.085984e-002
1.625766e+003;7.150591e-002
1.627694e+003;7.216496e-002
1.629623e+003;7.278242e-002
1.631552e+003;7.309757e-002
1.633480e+003;7.308589e-002
1.635409e+003;7.324415e-002
1.637337e+003;7.387466e-002
1.639266e+003;7.441829e-002
1.641194e+003;7.487575e-002
1.643123e+003;7.533235e-002
1.645051e+003;7.575645e-002
1.646980e+003;7.605980e-002
1.648909e+003;7.635467e-002
1.650837e+003;7.607539e-002
1.652766e+003;7.562665e-002
1.654694e+003;7.580651e-002
1.656623e+003;7.614619e-002
1.658551e+003;7.596992e-002
1.660480e+003;7.547882e-002
1.662408e+003;7.509462e-002
1.664337e+003;7.453181e-002
1.666266e+003;7.375398e-002
1.668194e+003;7.288970e-002
1.670123e+003;7.219657e-002
1.672051e+003;7.186279e-002
1.673980e+003;7.126839e-002
1.675908e+003;7.046543e-002
1.677837e+003;6.979651e-002
1.679765e+003;6.901642e-002
1.681694e+003;6.827442e-002
1.683622e+003;6.725580e-002
1.685551e+003;6.648860e-002
1.687479e+003;6.629460e-002
1.689408e+003;6.581235e-002
1.691337e+003;6.543694e-002
1.693265e+003;6.521072e-002
1.695194e+003;6.448749e-002
1.697122e+003;6.415378e-002
1.699051e+003;6.413196e-002
1.700979e+003;6.404176e-002
1.702908e+003;6.419822e-002
1.704836e+003;6.430095e-002
1.706765e+003;6.435028e-002
1.708693e+003;6.440508e-002
1.710622e+003;6.447788e-002
1.712551e+003;6.428742e-002
1.714479e+003;6.379292e-002
1.716408e+003;6.307265e-002
1.718336e+003;6.268774e-002
1.720265e+003;6.265991e-002
1.722193e+003;6.251314e-002
1.724122e+003;6.238663e-002
1.726050e+003;6.226359e-002
1.727979e+003;6.218982e-002
1.729908e+003;6.244129e-002
1.731836e+003;6.263496e-002
1.733765e+003;6.267446e-002
1.735693e+003;6.324970e-002
1.737622e+003;6.382036e-002
1.739550e+003;6.389152e-002
1.741479e+003;6.332237e-002
1.743407e+003;6.180137e-002
1.745336e+003;5.954140e-002
1.747265e+003;5.719247e-002
1.749193e+003;5.513134e-002
1.751122e+003;5.311218e-002
1.753050e+003;5.117103e-002
1.754979e+003;4.912916e-002
1.756907e+003;4.688153e-002
1.758836e+003;4.497818e-002
1.760764e+003;4.338986e-002
1.762693e+003;4.196158e-002
1.764621e+003;4.057984e-002
1.766550e+003;3.942920e-002
1.768479e+003;3.895904e-002
1.770407e+003;3.859603e-002
1.772336e+003;3.813969e-002
1.774264e+003;3.770407e-002
1.776193e+003;3.721412e-002
1.778121e+003;3.690097e-002
1.780050e+003;3.641758e-002
1.781978e+003;3.579183e-002
1.783907e+003;3.520642e-002
1.785835e+003;3.467079e-002
1.787764e+003;3.425534e-002
1.789693e+003;3.388238e-002
1.791621e+003;3.335267e-002
1.793550e+003;3.298437e-002
1.795478e+003;3.269969e-002
1.797407e+003;3.214516e-002
1.799335e+003;3.156394e-002
1.801264e+003;3.110845e-002
1.803192e+003;3.062396e-002
1.805121e+003;3.025903e-002
1.807049e+003;3.014974e-002
1.808978e+003;2.975494e-002
1.810907e+003;2.933027e-002
1.812835e+003;2.926048e-002
1.814764e+003;2.915044e-002
1.816692e+003;2.899778e-002
1.818621e+003;2.896253e-002
1.820549e+003;2.881008e-002
1.822478e+003;2.889457e-002
1.824406e+003;2.919020e-002
1.826335e+003;2.897440e-002
1.828264e+003;2.874331e-002
1.830192e+003;2.880123e-002
1.832121e+003;2.861645e-002
1.834049e+003;2.846904e-002
1.835978e+003;2.859263e-002
1.837906e+003;2.849292e-002
1.839835e+003;2.808485e-002
1.841763e+003;2.769242e-002
1.843692e+003;2.748171e-002
1.845620e+003;2.763313e-002
1.847549e+003;2.783915e-002
1.849478e+003;2.778758e-002
1.851406e+003;2.776871e-002
1.853335e+003;2.754529e-002
1.855263e+003;2.734153e-002
1.857192e+003;2.733334e-002
1.859120e+003;2.716509e-002
1.861049e+003;2.706701e-002
1.862977e+003;2.708119e-002
1.864906e+003;2.695044e-002
1.866834e+003;2.685033e-002
1.868763e+003;2.676518e-002
1.870692e+003;2.658746e-002
1.872620e+003;2.644053e-002
1.874549e+003;2.648627e-002
1.876477e+003;2.648948e-002
1.878406e+003;2.645613e-002
1.880334e+003;2.657936e-002
1.882263e+003;2.675943e-002
1.884191e+003;2.686580e-002
1.886120e+003;2.677515e-002
1.888048e+003;2.675838e-002
1.889977e+003;2.700685e-002
1.891906e+003;2.709596e-002
1.893834e+003;2.698358e-002
1.895763e+003;2.679845e-002
1.897691e+003;2.676271e-002
1.899620e+003;2.679943e-002
1.901548e+003;2.661568e-002
1.903477e+003;2.652230e-002
1.905405e+003;2.642373e-002
1.907334e+003;2.629374e-002
1.909262e+003;2.621814e-002
1.911191e+003;2.613596e-002
1.913120e+003;2.611038e-002
1.915048e+003;2.594689e-002
1.916977e+003;2.589720e-002
1.918905e+003;2.609377e-002
1.920834e+003;2.584694e-002
1.922762e+003;2.565540e-002
1.924691e+003;2.571871e-002
1.926619e+003;2.574044e-002
1.928548e+003;2.580763e-002
1.930477e+003;2.567336e-002
1.932405e+003;2.532940e-002
1.934334e+003;2.518636e-002
1.936262e+003;2.522116e-002
1.938191e+003;2.498350e-002
1.940119e+003;2.467483e-002
1.942048e+003;2.468360e-002
1.943976e+003;2.481051e-002
1.945905e+003;2.471783e-002
1.947833e+003;2.474375e-002
1.949762e+003;2.481079e-002
1.951691e+003;2.494745e-002
1.953619e+003;2.490436e-002
1.955548e+003;2.474435e-002
1.957476e+003;2.468777e-002
1.959405e+003;2.487394e-002
1.961333e+003;2.506970e-002
1.963262e+003;2.485555e-002
1.965190e+003;2.465817e-002
1.967119e+003;2.434841e-002
1.969047e+003;2.401904e-002
1.970976e+003;2.390070e-002
1.972905e+003;2.394869e-002
1.974833e+003;2.431427e-002
1.976762e+003;2.450428e-002
1.978690e+003;2.440515e-002
1.980619e+003;2.436176e-002
1.982547e+003;2.442302e-002
1.984476e+003;2.440462e-002
1.986404e+003;2.442859e-002
1.988333e+003;2.451595e-002
1.990261e+003;2.439337e-002
1.992190e+003;2.433386e-002
1.994119e+003;2.421606e-002
1.996047e+003;2.395090e-002
1.997976e+003;2.386485e-002
1.999904e+003;2.409216e-002
2.001833e+003;2.419189e-002
2.003761e+003;2.413087e-002
2.005690e+003;2.406026e-002
2.007618e+003;2.415392e-002
2.009547e+003;2.426045e-002
2.011476e+003;2.429563e-002
2.013404e+003;2.427216e-002
2.015333e+003;2.419928e-002
2.017261e+003;2.415357e-002
2.019190e+003;2.426245e-002
2.021118e+003;2.439214e-002
2.023047e+003;2.430937e-002
2.024975e+003;2.410481e-002
2.026904e+003;2.394519e-002
2.028833e+003;2.387381e-002
2.030761e+003;2.377020e-002
2.032690e+003;2.375379e-002
2.034618e+003;2.385137e-002
2.036547e+003;2.381241e-002
2.038475e+003;2.376072e-002
2.040404e+003;2.396830e-002
2.042332e+003;2.426147e-002
2.044261e+003;2.436204e-002
2.046189e+003;2.425972e-002
2.048118e+003;2.408729e-002
2.050047e+003;2.413381e-002
2.051975e+003;2.415290e-002
2.053904e+003;2.411686e-002
2.055832e+003;2.409497e-002
2.057761e+003;2.388312e-002
2.059689e+003;2.387685e-002
2.061618e+003;2.396690e-002
2.063546e+003;2.386086e-002
2.065475e+003;2.368544e-002
2.067404e+003;2.364290e-002
2.069332e+003;2.362365e-002
2.071260e+003;2.363562e-002
2.073189e+003;2.374056e-002
2.075118e+003;2.379642e-002
2.077046e+003;2.372107e-002
2.078975e+003;2.359059e-002
2.080903e+003;2.375291e-002
2.082832e+003;2.389387e-002
2.084760e+003;2.400461e-002
2.086689e+003;2.415868e-002
2.088617e+003;2.405392e-002
2.090546e+003;2.388991e-002
2.092475e+003;2.383919e-002
2.094403e+003;2.383100e-002
2.096332e+003;2.376282e-002
2.098260e+003;2.396925e-002
2.100189e+003;2.436064e-002
2.102117e+003;2.441047e-002
2.104046e+003;2.415287e-002
2.105974e+003;2.418219e-002
2.107903e+003;2.418012e-002
2.109832e+003;2.414659e-002
2.111760e+003;2.427755e-002
2.113688e+003;2.441864e-002
2.115617e+003;2.445632e-002
2.117546e+003;2.441177e-002
2.119474e+003;2.420401e-002
2.121403e+003;2.433611e-002
2.123331e+003;2.454744e-002
2.125260e+003;2.481675e-002
2.127188e+003;2.524901e-002
2.129117e+003;2.557411e-002
2.131045e+003;2.569467e-002
2.132974e+003;2.574596e-002
2.134903e+003;2.562637e-002
2.136831e+003;2.558068e-002
2.138760e+003;2.543359e-002
2.140688e+003;2.505348e-002
2.142617e+003;2.499774e-002
2.144545e+003;2.502389e-002
2.146474e+003;2.514718e-002
2.148402e+003;2.522323e-002
2.150331e+003;2.523707e-002
2.152260e+003;2.537633e-002
2.154188e+003;2.550857e-002
2.156117e+003;2.548689e-002
2.158045e+003;2.531430e-002
2.159974e+003;2.534152e-002
2.161902e+003;2.559168e-002
2.163831e+003;2.592111e-002
2.165759e+003;2.598049e-002
2.167688e+003;2.594559e-002
2.169616e+003;2.601809e-002
2.171545e+003;2.631487e-002
2.173474e+003;2.654393e-002
2.175402e+003;2.642711e-002
2.177331e+003;2.636700e-002
2.179259e+003;2.650610e-002
2.181188e+003;2.655016e-002
2.183116e+003;2.644049e-002
2.185045e+003;2.635310e-002
2.186973e+003;2.634331e-002
2.188902e+003;2.638919e-002
2.190831e+003;2.650627e-002
2.192759e+003;2.649166e-002
2.194688e+003;2.637496e-002
2.196616e+003;2.641133e-002
2.198545e+003;2.642000e-002
2.200473e+003;2.630821e-002
2.202402e+003;2.612442e-002
2.204330e+003;2.593226e-002
2.206259e+003;2.575243e-002
2.208188e+003;2.562405e-002
2.210116e+003;2.590930e-002
2.212044e+003;2.623869e-002
2.213973e+003;2.617555e-002
2.215902e+003;2.598703e-002
2.217830e+003;2.589203e-002
2.219759e+003;2.596800e-002
2.221687e+003;2.612150e-002
2.223616e+003;2.600859e-002
2.225544e+003;2.601999e-002
2.227473e+003;2.618815e-002
2.229401e+003;2.625520e-002
2.231330e+003;2.617875e-002
2.233259e+003;2.607463e-002
2.235187e+003;2.607724e-002
2.237116e+003;2.609264e-002
2.239044e+003;2.603976e-002
2.240973e+003;2.591521e-002
2.242901e+003;2.598059e-002
2.244830e+003;2.594443e-002
2.246758e+003;2.576586e-002
2.248687e+003;2.612660e-002
2.250615e+003;2.667635e-002
2.252544e+003;2.690923e-002
2.254473e+003;2.698855e-002
2.256401e+003;2.715211e-002
2.258330e+003;2.742245e-002
2.260258e+003;2.715945e-002
2.262187e+003;2.691639e-002
2.264115e+003;2.710616e-002
2.266044e+003;2.700707e-002
2.267972e+003;2.682238e-002
2.269901e+003;2.664189e-002
2.271830e+003;2.632648e-002
2.273758e+003;2.626935e-002
2.275687e+003;2.630209e-002
2.277615e+003;2.623781e-002
2.279544e+003;2.619318e-002
2.281472e+003;2.611615e-002
2.283401e+003;2.604226e-002
2.285329e+003;2.599913e-002
2.287258e+003;2.598007e-002
2.289187e+003;2.576389e-002
2.291115e+003;2.526270e-002
2.293043e+003;2.530604e-002
2.294972e+003;2.585162e-002
2.296901e+003;2.615718e-002
2.298829e+003;2.612252e-002
2.300758e+003;2.608163e-002
2.302686e+003;2.610901e-002
2.304615e+003;2.613740e-002
2.306543e+003;2.594095e-002
2.308472e+003;2.590170e-002
2.310400e+003;2.610570e-002
2.312329e+003;2.608681e-002
2.314258e+003;2.623873e-002
2.316186e+003;2.667008e-002
2.318115e+003;2.663643e-002
2.320043e+003;2.641077e-002
2.321972e+003;2.627347e-002
2.323900e+003;2.639000e-002
2.325829e+003;2.665398e-002
2.327757e+003;2.691610e-002
2.329686e+003;2.693757e-002
2.331615e+003;2.697272e-002
2.333543e+003;2.724076e-002
2.335472e+003;2.753643e-002
2.337400e+003;2.745227e-002
2.339329e+003;2.744133e-002
2.341257e+003;2.755920e-002
2.343186e+003;2.777104e-002
2.345114e+003;2.792529e-002
2.347043e+003;2.790451e-002
2.348971e+003;2.800480e-002
2.350900e+003;2.796175e-002
2.352829e+003;2.781757e-002
2.354757e+003;2.799631e-002
2.356686e+003;2.845818e-002
2.358614e+003;2.872596e-002
2.360543e+003;2.874657e-002
2.362471e+003;2.861787e-002
2.364400e+003;2.840331e-002
2.366328e+003;2.827726e-002
2.368257e+003;2.856807e-002
2.370186e+003;2.899441e-002
2.372114e+003;2.889082e-002
2.374042e+003;2.879241e-002
2.375971e+003;2.875372e-002
2.377900e+003;2.865064e-002
2.379828e+003;2.861981e-002
2.381757e+003;2.861528e-002
2.383685e+003;2.864714e-002
2.385614e+003;2.860268e-002
2.387542e+003;2.851602e-002
2.389471e+003;2.863914e-002
2.391399e+003;2.902697e-002
2.393328e+003;2.913995e-002
2.395257e+003;2.932130e-002
2.397185e+003;2.932403e-002
2.399114e+003;2.959501e-002
2.401042e+003;2.986151e-002
2.402971e+003;2.978056e-002
2.404899e+003;2.971247e-002
2.406828e+003;2.973099e-002
2.408756e+003;2.953042e-002
2.410685e+003;2.936646e-002
2.412614e+003;2.949092e-002
2.414542e+003;2.953294e-002
2.416471e+003;2.973018e-002
2.418399e+003;3.000674e-002
2.420328e+003;3.024021e-002
2.422256e+003;3.057041e-002
2.424185e+003;3.071225e-002
2.426113e+003;3.051126e-002
2.428042e+003;3.035375e-002
2.429970e+003;3.042710e-002
2.431899e+003;3.050991e-002
2.433828e+003;3.044348e-002
2.435756e+003;3.010840e-002
2.437685e+003;2.983660e-002
2.439613e+003;2.984050e-002
2.441542e+003;2.973383e-002
2.443470e+003;2.965982e-002
2.445399e+003;2.974742e-002
2.447327e+003;2.969995e-002
2.449256e+003;2.953131e-002
2.451185e+003;2.956639e-002
2.453113e+003;2.959643e-002
2.455042e+003;2.925466e-002
2.456970e+003;2.917262e-002
2.458899e+003;2.935115e-002
2.460827e+003;2.925087e-002
2.462756e+003;2.887895e-002
2.464684e+003;2.885661e-002
2.466613e+003;2.914130e-002
2.468542e+003;2.931269e-002
2.470470e+003;2.931715e-002
2.472398e+003;2.947677e-002
2.474327e+003;2.966933e-002
2.476256e+003;2.974284e-002
2.478184e+003;3.006223e-002
2.480113e+003;3.033375e-002
2.482041e+003;3.017105e-002
2.483970e+003;3.030785e-002
2.485898e+003;3.034647e-002
2.487827e+003;3.012711e-002
2.489755e+003;3.051642e-002
2.491684e+003;3.094044e-002
2.493613e+003;3.094104e-002
2.495541e+003;3.061596e-002
2.497470e+003;3.054560e-002
2.499398e+003;3.065649e-002
2.501327e+003;3.060956e-002
2.503255e+003;3.041171e-002
2.505184e+003;3.032256e-002
2.507112e+003;3.034920e-002
2.509041e+003;3.051176e-002
2.510969e+003;3.079764e-002
2.512898e+003;3.110197e-002
2.514827e+003;3.160246e-002
2.516755e+003;3.201270e-002
2.518684e+003;3.206275e-002
2.520612e+003;3.200746e-002
2.522541e+003;3.230814e-002
2.524469e+003;3.277136e-002
2.526398e+003;3.296818e-002
2.528326e+003;3.321801e-002
2.530255e+003;3.331929e-002
2.532184e+003;3.327811e-002
2.534112e+003;3.351621e-002
2.536041e+003;3.358400e-002
2.537969e+003;3.341307e-002
2.539898e+003;3.345973e-002
2.541826e+003;3.392189e-002
2.543755e+003;3.442489e-002
2.545683e+003;3.483199e-002
2.547612e+003;3.529263e-002
2.549541e+003;3.581633e-002
2.551469e+003;3.603202e-002
2.553397e+003;3.613161e-002
2.555326e+003;3.632528e-002
2.557255e+003;3.678061e-002
2.559183e+003;3.716987e-002
2.561112e+003;3.745215e-002
2.563040e+003;3.773233e-002
2.564969e+003;3.785180e-002
2.566897e+003;3.820547e-002
2.568826e+003;3.907504e-002
2.570754e+003;3.972537e-002
2.572683e+003;3.991606e-002
2.574612e+003;4.040911e-002
2.576540e+003;4.127083e-002
2.578469e+003;4.171301e-002
2.580397e+003;4.236190e-002
2.582326e+003;4.292678e-002
2.584254e+003;4.257827e-002
2.586183e+003;4.172274e-002
2.588111e+003;4.096403e-002
2.590040e+003;4.032879e-002
2.591969e+003;3.988646e-002
2.593897e+003;3.955283e-002
2.595826e+003;3.956441e-002
2.597754e+003;3.992870e-002
2.599683e+003;3.995955e-002
2.601611e+003;3.974639e-002
2.603540e+003;3.990128e-002
2.605468e+003;4.044781e-002
2.607397e+003;4.088503e-002
2.609325e+003;4.139900e-002
2.611254e+003;4.185134e-002
2.613183e+003;4.201841e-002
2.615111e+003;4.196187e-002
2.617040e+003;4.193045e-002
2.618968e+003;4.198238e-002
2.620897e+003;4.181325e-002
2.622825e+003;4.156597e-002
2.624754e+003;4.147854e-002
2.626682e+003;4.123739e-002
2.628611e+003;4.106570e-002
2.630540e+003;4.111892e-002
2.632468e+003;4.100478e-002
2.634396e+003;4.095835e-002
2.636325e+003;4.127918e-002
2.638254e+003;4.144763e-002
2.640182e+003;4.135968e-002
2.642111e+003;4.139959e-002
2.644039e+003;4.199092e-002
2.645968e+003;4.254239e-002
2.647896e+003;4.286559e-002
2.649825e+003;4.302551e-002
2.651753e+003;4.312485e-002
2.653682e+003;4.360423e-002
2.655611e+003;4.419788e-002
2.657539e+003;4.461499e-002
2.659468e+003;4.476898e-002
2.661396e+003;4.469574e-002
2.663325e+003;4.474657e-002
2.665253e+003;4.503988e-002
2.667182e+003;4.535392e-002
2.669110e+003;4.549758e-002
2.671039e+003;4.552179e-002
2.672968e+003;4.569767e-002
2.674896e+003;4.591439e-002
2.676825e+003;4.625302e-002
2.678753e+003;4.640084e-002
2.680682e+003;4.644457e-002
2.682610e+003;4.647256e-002
2.684539e+003;4.619803e-002
2.686467e+003;4.588787e-002
2.688396e+003;4.607315e-002
2.690324e+003;4.645132e-002
2.692253e+003;4.628088e-002
2.694182e+003;4.632032e-002
2.696110e+003;4.664064e-002
2.698039e+003;4.698507e-002
2.699967e+003;4.722157e-002
2.701896e+003;4.746219e-002
2.703824e+003;4.828008e-002
2.705753e+003;4.917116e-002
2.707681e+003;4.991195e-002
2.709610e+003;5.079938e-002
2.711539e+003;5.163650e-002
2.713467e+003;5.288409e-002
2.715396e+003;5.421456e-002
2.717324e+003;5.581055e-002
2.719253e+003;5.739209e-002
2.721181e+003;5.840297e-002
2.723110e+003;5.917312e-002
2.725038e+003;5.896198e-002
2.726967e+003;5.761658e-002
2.728896e+003;5.632753e-002
2.730824e+003;5.523856e-002
2.732752e+003;5.414616e-002
2.734681e+003;5.308665e-002
2.736610e+003;5.204349e-002
2.738538e+003;5.122710e-002
2.740467e+003;5.066156e-002
2.742395e+003;4.996250e-002
2.744324e+003;4.918389e-002
2.746252e+003;4.844501e-002
2.748181e+003;4.807980e-002
2.750109e+003;4.833874e-002
2.752038e+003;4.851388e-002
2.753967e+003;4.849895e-002
2.755895e+003;4.869086e-002
2.757824e+003;4.885814e-002
2.759752e+003;4.945842e-002
2.761681e+003;5.014610e-002
2.763609e+003;5.069135e-002
2.765538e+003;5.095264e-002
2.767466e+003;5.101609e-002
2.769395e+003;5.126397e-002
2.771323e+003;5.161956e-002
2.773252e+003;5.216699e-002
2.775181e+003;5.254587e-002
2.777109e+003;5.286059e-002
2.779038e+003;5.380118e-002
2.780966e+003;5.526618e-002
2.782895e+003;5.667245e-002
2.784823e+003;5.781968e-002
2.786752e+003;5.920384e-002
2.788680e+003;6.099966e-002
2.790609e+003;6.262849e-002
2.792538e+003;6.393878e-002
2.794466e+003;6.520779e-002
2.796395e+003;6.617875e-002
2.798323e+003;6.746722e-002
2.800252e+003;6.908063e-002
2.802180e+003;7.061218e-002
2.804109e+003;7.251357e-002
2.806037e+003;7.478317e-002
2.807966e+003;7.670358e-002
2.809895e+003;7.816470e-002
2.811823e+003;7.970074e-002
2.813751e+003;8.143044e-002
2.815680e+003;8.340719e-002
2.817609e+003;8.520745e-002
2.819537e+003;8.713251e-002
2.821466e+003;8.970229e-002
2.823394e+003;9.313773e-002
2.825323e+003;9.732339e-002
2.827251e+003;1.022179e-001
2.829180e+003;1.085717e-001
2.831108e+003;1.161254e-001
2.833037e+003;1.242240e-001
2.834966e+003;1.311448e-001
2.836894e+003;1.351629e-001
2.838823e+003;1.360862e-001
2.840751e+003;1.342299e-001
2.842680e+003;1.304270e-001
2.844608e+003;1.260444e-001
2.846537e+003;1.217652e-001
2.848465e+003;1.181220e-001
2.850394e+003;1.154686e-001
2.852323e+003;1.141576e-001
2.854251e+003;1.140062e-001
2.856180e+003;1.148515e-001
2.858108e+003;1.174549e-001
2.860037e+003;1.220793e-001
2.861965e+003;1.283204e-001
2.863894e+003;1.352625e-001
2.865822e+003;1.409894e-001
2.867751e+003;1.436664e-001
2.869679e+003;1.438924e-001
2.871608e+003;1.429531e-001
2.873536e+003;1.427188e-001
2.875465e+003;1.431026e-001
2.877394e+003;1.423000e-001
2.879322e+003;1.408204e-001
2.881251e+003;1.396008e-001
2.883179e+003;1.393390e-001
2.885108e+003;1.393089e-001
2.887036e+003;1.396412e-001
2.888965e+003;1.410080e-001
2.890893e+003;1.428784e-001
2.892822e+003;1.451547e-001
2.894750e+003;1.482879e-001
2.896679e+003;1.521700e-001
2.898608e+003;1.572406e-001
2.900536e+003;1.623317e-001
2.902465e+003;1.665517e-001
2.904393e+003;1.712117e-001
2.906322e+003;1.758868e-001
2.908250e+003;1.796989e-001
2.910179e+003;1.835660e-001
2.912107e+003;1.873719e-001
2.914036e+003;1.905111e-001
2.915965e+003;1.929235e-001
2.917893e+003;1.940347e-001
2.919822e+003;1.927048e-001
2.921750e+003;1.893205e-001
2.923679e+003;1.844357e-001
2.925607e+003;1.779778e-001
2.927536e+003;1.704847e-001
2.929464e+003;1.624488e-001
2.931393e+003;1.545436e-001
2.933322e+003;1.469607e-001
2.935250e+003;1.401330e-001
2.937178e+003;1.352252e-001
2.939107e+003;1.331715e-001
2.941036e+003;1.344517e-001
2.942964e+003;1.386737e-001
2.944893e+003;1.451100e-001
2.946821e+003;1.530900e-001
2.948750e+003;1.603526e-001
2.950678e+003;1.640488e-001
2.952607e+003;1.643197e-001
2.954535e+003;1.617774e-001
2.956464e+003;1.576705e-001
2.958393e+003;1.531862e-001
2.960321e+003;1.483811e-001
2.962250e+003;1.430415e-001
2.964178e+003;1.364506e-001
2.966107e+003;1.289435e-001
2.968035e+003;1.219366e-001
2.969964e+003;1.156293e-001
2.971892e+003;1.095077e-001
2.973821e+003;1.039717e-001
2.975750e+003;9.922087e-002
2.977678e+003;9.477036e-002
2.979607e+003;9.042175e-002
2.981535e+003;8.682942e-002
2.983464e+003;8.373883e-002
2.985392e+003;8.111010e-002
2.987321e+003;7.879572e-002
2.989249e+003;7.655243e-002
2.991178e+003;7.465680e-002
2.993106e+003;7.284381e-002
2.995035e+003;7.098003e-002
2.996964e+003;6.872075e-002
2.998892e+003;6.666213e-002
3.000821e+003;6.508953e-002
3.002749e+003;6.330141e-002
3.004678e+003;6.178472e-002
3.006606e+003;6.045877e-002
3.008535e+003;5.895196e-002
3.010463e+003;5.760674e-002
3.012392e+003;5.620235e-002
3.014321e+003;5.499721e-002
3.016249e+003;5.386783e-002
3.018177e+003;5.291358e-002
3.020106e+003;5.247983e-002
3.022035e+003;5.168669e-002
3.023963e+003;5.062492e-002
3.025892e+003;4.965986e-002
3.027820e+003;4.915008e-002
3.029749e+003;4.908675e-002
3.031677e+003;4.883118e-002
3.033606e+003;4.826257e-002
3.035534e+003;4.774492e-002
3.037463e+003;4.721810e-002
3.039392e+003;4.667897e-002
3.041320e+003;4.607289e-002
3.043249e+003;4.568515e-002
3.045177e+003;4.578142e-002
3.047106e+003;4.614640e-002
3.049034e+003;4.609482e-002
3.050963e+003;4.559446e-002
3.052891e+003;4.550089e-002
3.054820e+003;4.536073e-002
3.056749e+003;4.479961e-002
3.058677e+003;4.474095e-002
3.060606e+003;4.461807e-002
3.062534e+003;4.412092e-002
3.064463e+003;4.394003e-002
3.066391e+003;4.402025e-002
3.068320e+003;4.400137e-002
3.070248e+003;4.413313e-002
3.072177e+003;4.448645e-002
3.074105e+003;4.449321e-002
3.076034e+003;4.397959e-002
3.077963e+003;4.340649e-002
3.079891e+003;4.323281e-002
3.081820e+003;4.344054e-002
3.083748e+003;4.387155e-002
3.085677e+003;4.419142e-002
3.087605e+003;4.395323e-002
3.089534e+003;4.365969e-002
3.091462e+003;4.382867e-002
3.093391e+003;4.375236e-002
3.095320e+003;4.333553e-002
3.097248e+003;4.331690e-002
3.099177e+003;4.340085e-002
3.101105e+003;4.332279e-002
3.103034e+003;4.351738e-002
3.104962e+003;4.369457e-002
3.106891e+003;4.373719e-002
3.108819e+003;4.370059e-002
3.110748e+003;4.345787e-002
3.112677e+003;4.364775e-002
3.114605e+003;4.374613e-002
3.116533e+003;4.368981e-002
3.118462e+003;4.357320e-002
3.120391e+003;4.338123e-002
3.122319e+003;4.356994e-002
3.124248e+003;4.414465e-002
3.126176e+003;4.425636e-002
3.128105e+003;4.395477e-002
3.130033e+003;4.428813e-002
3.131962e+003;4.431789e-002
3.133890e+003;4.435693e-002
3.135819e+003;4.453127e-002
3.137748e+003;4.462057e-002
3.139676e+003;4.474451e-002
3.141605e+003;4.502434e-002
3.143533e+003;4.513821e-002
3.145462e+003;4.536374e-002
3.147390e+003;4.544452e-002
3.149319e+003;4.549077e-002
3.151247e+003;4.597951e-002
3.153176e+003;4.636751e-002
3.155104e+003;4.644741e-002
3.157033e+003;4.608885e-002
3.158962e+003;4.582645e-002
3.160890e+003;4.587222e-002
3.162819e+003;4.576600e-002
3.164747e+003;4.583691e-002
3.166676e+003;4.609681e-002
3.168604e+003;4.620411e-002
3.170533e+003;4.602725e-002
3.172461e+003;4.584781e-002
3.174390e+003;4.614128e-002
3.176319e+003;4.675416e-002
3.178247e+003;4.720425e-002
3.180176e+003;4.689972e-002
3.182104e+003;4.683580e-002
3.184033e+003;4.712809e-002
3.185961e+003;4.691504e-002
3.187890e+003;4.686484e-002
3.189818e+003;4.770879e-002
3.191747e+003;4.798687e-002
3.193676e+003;4.797850e-002
3.195604e+003;4.819651e-002
3.197532e+003;4.825523e-002
3.199461e+003;4.819795e-002
3.201390e+003;4.812473e-002
3.203318e+003;4.823368e-002
3.205247e+003;4.807661e-002
3.207175e+003;4.815401e-002
3.209104e+003;4.855419e-002
3.211032e+003;4.825668e-002
3.212961e+003;4.804674e-002
3.214889e+003;4.791256e-002
3.216818e+003;4.730820e-002
3.218747e+003;4.705135e-002
3.220675e+003;4.736751e-002
3.222604e+003;4.762566e-002
3.224532e+003;4.774177e-002
3.226461e+003;4.769374e-002
3.228389e+003;4.739637e-002
3.230318e+003;4.722220e-002
3.232246e+003;4.713296e-002
3.234175e+003;4.687890e-002
3.236104e+003;4.654141e-002
3.238032e+003;4.671361e-002
3.239961e+003;4.689566e-002
3.241889e+003;4.685174e-002
3.243818e+003;4.711531e-002
3.245746e+003;4.746419e-002
3.247675e+003;4.730643e-002
3.249603e+003;4.693745e-002
3.251532e+003;4.710102e-002
3.253460e+003;4.710216e-002
3.255389e+003;4.662846e-002
3.257318e+003;4.639955e-002
3.259246e+003;4.675682e-002
3.261175e+003;4.739482e-002
3.263103e+003;4.758488e-002
3.265032e+003;4.781098e-002
3.266960e+003;4.765128e-002
3.268889e+003;4.734519e-002
3.270817e+003;4.726398e-002
3.272746e+003;4.746075e-002
3.274675e+003;4.741078e-002
3.276603e+003;4.723975e-002
3.278531e+003;4.756865e-002
3.280460e+003;4.788670e-002
3.282389e+003;4.796426e-002
3.284317e+003;4.761475e-002
3.286246e+003;4.735916e-002
3.288174e+003;4.777580e-002
3.290103e+003;4.771034e-002
3.292031e+003;4.695262e-002
3.293960e+003;4.697477e-002
3.295888e+003;4.741477e-002
3.297817e+003;4.810874e-002
3.299746e+003;4.825616e-002
3.301674e+003;4.772358e-002
3.303603e+003;4.761028e-002
3.305531e+003;4.807024e-002
3.307460e+003;4.799545e-002
3.309388e+003;4.755642e-002
3.311317e+003;4.756377e-002
3.313245e+003;4.752810e-002
3.315174e+003;4.731641e-002
3.317103e+003;4.752044e-002
3.319031e+003;4.765236e-002
3.320960e+003;4.704961e-002
3.322888e+003;4.638624e-002
3.324817e+003;4.660508e-002
3.326745e+003;4.675453e-002
3.328674e+003;4.653378e-002
3.330602e+003;4.616092e-002
3.332531e+003;4.610351e-002
3.334459e+003;4.630930e-002
3.336388e+003;4.666734e-002
3.338317e+003;4.689961e-002
3.340245e+003;4.689825e-002
3.342174e+003;4.659707e-002
3.344102e+003;4.615959e-002
3.346031e+003;4.608365e-002
3.347959e+003;4.614950e-002
3.349888e+003;4.634428e-002
3.351816e+003;4.648163e-002
3.353745e+003;4.608903e-002
3.355674e+003;4.565836e-002
3.357602e+003;4.547488e-002
3.359531e+003;4.528411e-002
3.361459e+003;4.518976e-002
3.363388e+003;4.526749e-002
3.365316e+003;4.536190e-002
3.367245e+003;4.514311e-002
3.369173e+003;4.474510e-002
3.371102e+003;4.496561e-002
3.373031e+003;4.492320e-002
3.374959e+003;4.467723e-002
3.376887e+003;4.496454e-002
3.378816e+003;4.448535e-002
3.380745e+003;4.382027e-002
3.382673e+003;4.362529e-002
3.384602e+003;4.366101e-002
3.386530e+003;4.388512e-002
3.388459e+003;4.360807e-002
3.390387e+003;4.332330e-002
3.392316e+003;4.358053e-002
3.394244e+003;4.356697e-002
3.396173e+003;4.337863e-002
3.398102e+003;4.319844e-002
3.400030e+003;4.279275e-002
3.401959e+003;4.263939e-002
3.403887e+003;4.310465e-002
3.405816e+003;4.366538e-002
3.407744e+003;4.338412e-002
3.409673e+003;4.286044e-002
3.411601e+003;4.262071e-002
3.413530e+003;4.262860e-002
3.415458e+003;4.254049e-002
3.417387e+003;4.223487e-002
3.419316e+003;4.205958e-002
3.421244e+003;4.198493e-002
3.423173e+003;4.242265e-002
3.425101e+003;4.274043e-002
3.427030e+003;4.256197e-002
3.428958e+003;4.189837e-002
3.430887e+003;4.118351e-002
3.432815e+003;4.071643e-002
3.434744e+003;4.064890e-002
3.436673e+003;4.051578e-002
3.438601e+003;4.028393e-002
3.440530e+003;4.004463e-002
3.442458e+003;4.009144e-002
3.444387e+003;3.978764e-002
3.446315e+003;3.955026e-002
3.448244e+003;3.950388e-002
3.450172e+003;3.950881e-002
3.452101e+003;3.957922e-002
3.454030e+003;3.935773e-002
3.455958e+003;3.862562e-002
3.457886e+003;3.829198e-002
3.459815e+003;3.800482e-002
3.461744e+003;3.784110e-002
3.463672e+003;3.811669e-002
3.465601e+003;3.815601e-002
3.467529e+003;3.799180e-002
3.469458e+003;3.767534e-002
3.471386e+003;3.756759e-002
3.473315e+003;3.736905e-002
3.475243e+003;3.718968e-002
3.477172e+003;3.735077e-002
3.479101e+003;3.706159e-002
3.481029e+003;3.671257e-002
3.482958e+003;3.668297e-002
3.484886e+003;3.642183e-002
3.486815e+003;3.602508e-002
3.488743e+003;3.559344e-002
3.490672e+003;3.525960e-002
3.492600e+003;3.489705e-002
3.494529e+003;3.466092e-002
3.496458e+003;3.476336e-002
3.498386e+003;3.480212e-002
3.500315e+003;3.472028e-002
3.502243e+003;3.462274e-002
3.504172e+003;3.476110e-002
3.506100e+003;3.505546e-002
3.508029e+003;3.461320e-002
3.509957e+003;3.356184e-002
3.511886e+003;3.331467e-002
3.513814e+003;3.375376e-002
3.515743e+003;3.386185e-002
3.517672e+003;3.372113e-002
3.519600e+003;3.349001e-002
3.521529e+003;3.387847e-002
3.523457e+003;3.390423e-002
3.525386e+003;3.331549e-002
3.527314e+003;3.265743e-002
3.529243e+003;3.229808e-002
3.531171e+003;3.219166e-002
3.533100e+003;3.201014e-002
3.535029e+003;3.193250e-002
3.536957e+003;3.202751e-002
3.538885e+003;3.204206e-002
3.540814e+003;3.164576e-002
3.542743e+003;3.113557e-002
3.544671e+003;3.100292e-002
3.546600e+003;3.083570e-002
3.548528e+003;3.038129e-002
3.550457e+003;3.002037e-002
3.552385e+003;2.971698e-002
3.554314e+003;2.975530e-002
3.556242e+003;3.004484e-002
3.558171e+003;2.989640e-002
3.560100e+003;2.909215e-002
3.562028e+003;2.888189e-002
3.563957e+003;2.909796e-002
3.565885e+003;2.881525e-002
3.567814e+003;2.850732e-002
3.569742e+003;2.829048e-002
3.571671e+003;2.818055e-002
3.573599e+003;2.825653e-002
3.575528e+003;2.794486e-002
3.577457e+003;2.715391e-002
3.579385e+003;2.671563e-002
3.581314e+003;2.685361e-002
3.583242e+003;2.724210e-002
3.585171e+003;2.716037e-002
3.587099e+003;2.661033e-002
3.589028e+003;2.621377e-002
3.590956e+003;2.593054e-002
3.592885e+003;2.587128e-002
3.594813e+003;2.590627e-002
3.596742e+003;2.603794e-002
3.598671e+003;2.612727e-002
3.600599e+003;2.593430e-002
3.602528e+003;2.558106e-002
3.604456e+003;2.497304e-002
3.606385e+003;2.440736e-002
3.608313e+003;2.437578e-002
3.610242e+003;2.467108e-002
3.612170e+003;2.495461e-002
3.614099e+003;2.461560e-002
3.616028e+003;2.417924e-002
3.617956e+003;2.404734e-002
3.619885e+003;2.392093e-002
3.621813e+003;2.383114e-002
3.623742e+003;2.366862e-002
3.625670e+003;2.328267e-002
3.627599e+003;2.296578e-002
3.629527e+003;2.295747e-002
3.631456e+003;2.327704e-002
3.633385e+003;2.364423e-002
3.635313e+003;2.381948e-002
3.637241e+003;2.385424e-002
3.639170e+003;2.315963e-002
3.641099e+003;2.251496e-002
3.643027e+003;2.289787e-002
3.644956e+003;2.288453e-002
3.646884e+003;2.189291e-002
3.648813e+003;2.116055e-002
3.650741e+003;2.144998e-002
3.652670e+003;2.189503e-002
3.654598e+003;2.160370e-002
3.656527e+003;2.136105e-002
3.658456e+003;2.169551e-002
3.660384e+003;2.172578e-002
3.662313e+003;2.134723e-002
3.664241e+003;2.133181e-002
3.666170e+003;2.141646e-002
3.668098e+003;2.104917e-002
3.670027e+003;2.097280e-002
3.671955e+003;2.145458e-002
3.673884e+003;2.165406e-002
3.675813e+003;2.166938e-002
3.677741e+003;2.161495e-002
3.679669e+003;2.153723e-002
3.681598e+003;2.168067e-002
3.683527e+003;2.184709e-002
3.685455e+003;2.169467e-002
3.687384e+003;2.145489e-002
3.689312e+003;2.176594e-002
3.691241e+003;2.245026e-002
3.693169e+003;2.251569e-002
3.695098e+003;2.220326e-002
3.697026e+003;2.217481e-002
3.698955e+003;2.209001e-002
3.700884e+003;2.166959e-002
3.702812e+003;2.170348e-002
3.704741e+003;2.190291e-002
3.706669e+003;2.172358e-002
3.708598e+003;2.140553e-002
3.710526e+003;2.141093e-002
3.712455e+003;2.157825e-002
3.714383e+003;2.182503e-002
3.716312e+003;2.170188e-002
3.718240e+003;2.136770e-002
3.720169e+003;2.072640e-002
3.722098e+003;2.024724e-002
3.724026e+003;2.087819e-002
3.725955e+003;2.159005e-002
3.727883e+003;2.141841e-002
3.729812e+003;2.145729e-002
3.731740e+003;2.136512e-002
3.733669e+003;2.097051e-002
3.735597e+003;2.113585e-002
3.737526e+003;2.183106e-002
3.739455e+003;2.180569e-002
3.741383e+003;2.146060e-002
3.743312e+003;2.123660e-002
3.745240e+003;2.137901e-002
3.747169e+003;2.112976e-002
3.749097e+003;2.088664e-002
3.751026e+003;2.099513e-002
3.752954e+003;2.097006e-002
3.754883e+003;2.132398e-002
3.756812e+003;2.163957e-002
3.758740e+003;2.170965e-002
3.760668e+003;2.194508e-002
3.762597e+003;2.258863e-002
3.764526e+003;2.266650e-002
3.766454e+003;2.232163e-002
3.768383e+003;2.176281e-002
3.770311e+003;2.161868e-002
3.772240e+003;2.196965e-002
3.774168e+003;2.225631e-002
3.776097e+003;2.217784e-002
3.778025e+003;2.201210e-002
3.779954e+003;2.147087e-002
3.781883e+003;2.131580e-002
3.783811e+003;2.152260e-002
3.785740e+003;2.160886e-002
3.787668e+003;2.158162e-002
3.789597e+003;2.182618e-002
3.791525e+003;2.184973e-002
3.793454e+003;2.214953e-002
3.795382e+003;2.262776e-002
3.797311e+003;2.244988e-002
3.799240e+003;2.192779e-002
3.801168e+003;2.150290e-002
3.803097e+003;2.160764e-002
3.805025e+003;2.157936e-002
3.806954e+003;2.205679e-002
3.808882e+003;2.273081e-002
3.810811e+003;2.262716e-002
3.812739e+003;2.195257e-002
3.814668e+003;2.125209e-002
3.816596e+003;2.166468e-002
3.818525e+003;2.250815e-002
3.820454e+003;2.215019e-002
3.822382e+003;2.225899e-002
3.824311e+003;2.302332e-002
3.826239e+003;2.285139e-002
3.828168e+003;2.217421e-002
3.830096e+003;2.196526e-002
3.832025e+003;2.239224e-002
3.833953e+003;2.262525e-002
3.835882e+003;2.247378e-002
3.837811e+003;2.238453e-002
3.839739e+003;2.268270e-002
3.841667e+003;2.253851e-002
3.843596e+003;2.183820e-002
3.845525e+003;2.190333e-002
3.847453e+003;2.210145e-002
3.849382e+003;2.237061e-002
3.851310e+003;2.225509e-002
3.853239e+003;2.194445e-002
3.855167e+003;2.216801e-002
3.857096e+003;2.250812e-002
3.859024e+003;2.258294e-002
3.860953e+003;2.261572e-002
3.862882e+003;2.273095e-002
3.864810e+003;2.263338e-002
3.866739e+003;2.309156e-002
3.868667e+003;2.297350e-002
3.870596e+003;2.261425e-002
3.872524e+003;2.262465e-002
3.874453e+003;2.241663e-002
3.876381e+003;2.300693e-002
3.878310e+003;2.327089e-002
3.880239e+003;2.283190e-002
3.882167e+003;2.301242e-002
3.884096e+003;2.324911e-002
3.886024e+003;2.322594e-002
3.887953e+003;2.292543e-002
3.889881e+003;2.329197e-002
3.891810e+003;2.374546e-002
3.893738e+003;2.366298e-002
3.895667e+003;2.384069e-002
3.897595e+003;2.393304e-002
3.899524e+003;2.341767e-002
3.901453e+003;2.287580e-002
3.903381e+003;2.308031e-002
3.905310e+003;2.320755e-002
3.907238e+003;2.304537e-002
3.909167e+003;2.325474e-002
3.911095e+003;2.333158e-002
3.913024e+003;2.315156e-002
3.914952e+003;2.365343e-002
3.916881e+003;2.378875e-002
3.918810e+003;2.334920e-002
3.920738e+003;2.331333e-002
3.922667e+003;2.372873e-002
3.924595e+003;2.393977e-002
3.926524e+003;2.389366e-002
3.928452e+003;2.422731e-002
3.930381e+003;2.428435e-002
3.932309e+003;2.404720e-002
3.934238e+003;2.391960e-002
3.936167e+003;2.374035e-002
3.938095e+003;2.370109e-002
3.940023e+003;2.427243e-002
3.941952e+003;2.495075e-002
3.943881e+003;2.477448e-002
3.945809e+003;2.398994e-002
3.947738e+003;2.341309e-002
3.949666e+003;2.318176e-002
3.951595e+003;2.326939e-002
3.953523e+003;2.319130e-002
3.955452e+003;2.359612e-002
3.957380e+003;2.407062e-002
3.959309e+003;2.431315e-002
3.961238e+003;2.445667e-002
3.963166e+003;2.426599e-002
3.965095e+003;2.475238e-002
3.967023e+003;2.508974e-002
3.968952e+003;2.444605e-002
3.970880e+003;2.409598e-002
3.972809e+003;2.433442e-002
3.974737e+003;2.452384e-002
3.976666e+003;2.466473e-002
3.978594e+003;2.470731e-002
3.980523e+003;2.490924e-002
3.982452e+003;2.546468e-002
3.984380e+003;2.542365e-002
3.986309e+003;2.514995e-002
3.988237e+003;2.514602e-002
3.990166e+003;2.522562e-002
3.992094e+003;2.558672e-002
3.994023e+003;2.638876e-002
3.995951e+003;2.660187e-002
3.997880e+003;2.620508e-002
3.999809e+003;2.567990e-002
4.001737e+003;0.000000e+000
