3.992094e+002;0.000000e+000
4.011380e+002;0.000000e+000
4.030665e+002;0.000000e+000
4.049951e+002;0.000000e+000
4.069236e+002;0.000000e+000
4.088522e+002;0.000000e+000
4.107807e+002;0.000000e+000
4.127093e+002;0.000000e+000
4.146378e+002;0.000000e+000
4.165664e+002;0.000000e+000
4.184949e+002;0.000000e+000
4.204235e+002;0.000000e+000
4.223520e+002;0.000000e+000
4.242806e+002;0.000000e+000
4.262091e+002;0.000000e+000
4.281377e+002;0.000000e+000
4.300662e+002;0.000000e+000
4.319948e+002;0.000000e+000
4.339233e+002;0.000000e+000
4.358519e+002;0.000000e+000
4.377804e+002;0.000000e+000
4.397090e+002;0.000000e+000
4.416375e+002;0.000000e+000
4.435660e+002;0.000000e+000
4.454946e+002;0.000000e+000
4.474232e+002;0.000000e+000
4.493517e+002;0.000000e+000
4.512802e+002;0.000000e+000
4.532088e+002;0.000000e+000
4.551373e+002;0.000000e+000
4.570659e+002;0.000000e+000
4.589944e+002;0.000000e+000
4.609230e+002;0.000000e+000
4.628515e+002;0.000000e+000
4.647801e+002;0.000000e+000
4.667086e+002;0.000000e+000
4.686372e+002;0.000000e+000
4.705657e+002;0.000000e+000
4.724943e+002;0.000000e+000
4.744228e+002;0.000000e+000
4.763513e+002;0.000000e+000
4.782799e+002;0.000000e+000
4.802085e+002;0.000000e+000
4.821370e+002;0.000000e+000
4.840656e+002;0.000000e+000
4.859941e+002;0.000000e+000
4.879226e+002;0.000000e+000
4.898512e+002;0.000000e+000
4.917798e+002;0.000000e+000
4.937083e+002;0.000000e+000
4.956368e+002;0.000000e+000
4.975654e+002;0.000000e+000
4.994939e+002;0.000000e+000
5.014225e+002;0.000000e+000
5.033510e+002;0.000000e+000
5.052796e+002;0.000000e+000
5.072081e+002;0.000000e+000
5.091367e+002;0.000000e+000
5.110652e+002;0.000000e+000
5.129938e+002;0.000000e+000
5.149223e+002;0.000000e+000
5.168509e+002;0.000000e+000
5.187794e+002;0.000000e+000
5.207079e+002;0.000000e+000
5.226365e+002;0.000000e+000
5.245651e+002;0.000000e+000
5.264936e+002;0.000000e+000
5.284222e+002;0.000000e+000
5.303507e+002;0.000000e+000
5.322792e+002;0.000000e+000
5.342078e+002;0.000000e+000
5.361364e+002;0.000000e+000
5.380649e+002;0.000000e+000
5.399935e+002;0.000000e+000
5.419220e+002;0.000000e+000
5.438505e+002;0.000000e+000
5.457791e+002;0.000000e+000
5.477076e+002;0.000000e+000
5.496362e+002;0.000000e+000
5.515648e+002;0.000000e+000
5.534933e+002;0.000000e+000
5.554218e+002;0.000000e+000
5.573504e+002;0.000000e+000
5.592789e+002;0.000000e+000
5.612075e+002;0.000000e+000
5.631360e+002;0.000000e+000
5.650646e+002;0.000000e+000
5.669931e+002;0.000000e+000
5.689217e+002;0.000000e+000
5.708502e+002;0.000000e+000
5.727787e+002;0.000000e+000
5.747073e+002;0.000000e+000
5.766359e+002;0.000000e+000
5.785644e+002;0.000000e+000
5.804930e+002;0.000000e+000
5.824215e+002;0.000000e+000
5.843500e+002;0.000000e+000
5.862786e+002;0.000000e+000
5.882072e+002;0.000000e+000
5.901357e+002;0.000000e+000
5.920643e+002;0.000000e+000
5.939928e+002;0.000000e+000
5.959213e+002;0.000000e+000
5.978499e+002;0.000000e+000
5.997784e+002;3.000503e-002
6.017070e+002;2.644641e-002
6.036355e+002;2.992217e-002
6.055641e+002;3.750539e-002
6.074926e+002;4.115021e-002
6.094211e+002;3.760192e-002
6.113497e+002;2.987156e-002
6.132783e+002;2.787511e-002
6.152068e+002;3.250218e-002
6.171354e+002;3.297712e-002
6.190639e+002;3.238792e-002
6.209924e+002;3.143301e-002
6.229210e+002;2.916922e-002
6.248495e+002;2.910781e-002
6.267781e+002;3.002474e-002
6.287067e+002;3.150426e-002
6.306352e+002;3.147576e-002
6.325637e+002;3.036004e-002
6.344923e+002;3.213428e-002
6.364208e+002;3.128510e-002
6.383494e+002;3.025818e-002
6.402780e+002;3.064828e-002
6.422065e+002;3.209814e-002
6.441350e+002;3.086370e-002
6.460636e+002;2.934377e-002
6.479921e+002;3.159622e-002
6.499207e+002;3.462012e-002
6.518492e+002;3.148314e-002
6.537778e+002;2.928646e-002
6.557063e+002;2.908872e-002
6.576349e+002;2.736948e-002
6.595634e+002;2.704860e-002
6.614919e+002;3.024234e-002
6.634205e+002;3.207941e-002
6.653491e+002;2.982159e-002
6.672776e+002;2.773565e-002
6.692062e+002;2.680557e-002
6.711347e+002;2.703831e-002
6.730632e+002;2.842255e-002
6.749918e+002;2.645824e-002
6.769203e+002;2.493612e-002
6.788489e+002;2.576526e-002
6.807775e+002;2.821262e-002
6.827060e+002;2.934920e-002
6.846345e+002;2.770210e-002
6.865631e+002;2.749597e-002
6.884916e+002;2.842881e-002
6.904202e+002;2.755969e-002
6.923488e+002;2.632828e-002
6.942773e+002;2.582809e-002
6.962058e+002;2.667304e-002
6.981344e+002;2.755133e-002
7.000629e+002;2.721324e-002
7.019915e+002;2.591587e-002
7.039200e+002;2.489190e-002
7.058486e+002;2.446533e-002
7.077771e+002;2.491011e-002
7.097057e+002;2.516638e-002
7.116342e+002;2.491313e-002
7.135627e+002;2.516958e-002
7.154913e+002;2.573647e-002
7.174199e+002;2.643901e-002
7.193484e+002;2.717998e-002
7.212770e+002;2.754762e-002
7.232055e+002;2.675788e-002
7.251340e+002;2.527601e-002
7.270626e+002;2.459764e-002
7.289911e+002;2.463846e-002
7.309197e+002;2.470790e-002
7.328483e+002;2.395269e-002
7.347768e+002;2.350206e-002
7.367053e+002;2.331263e-002
7.386339e+002;2.307489e-002
7.405624e+002;2.356981e-002
7.424910e+002;2.390840e-002
7.444196e+002;2.312958e-002
7.463481e+002;2.292529e-002
7.482766e+002;2.263949e-002
7.502052e+002;2.168374e-002
7.521337e+002;2.193455e-002
7.540623e+002;2.236468e-002
7.559908e+002;2.168879e-002
7.579194e+002;2.058459e-002
7.598479e+002;1.981486e-002
7.617765e+002;2.023811e-002
7.637050e+002;2.107251e-002
7.656335e+002;2.190573e-002
7.675621e+002;2.208583e-002
7.694907e+002;2.166413e-002
7.714192e+002;2.098414e-002
7.733478e+002;2.060728e-002
7.752763e+002;2.022665e-002
7.772048e+002;1.939085e-002
7.791334e+002;1.898048e-002
7.810620e+002;2.025279e-002
7.829905e+002;2.153058e-002
7.849191e+002;2.185332e-002
7.868476e+002;2.280410e-002
7.887761e+002;2.393696e-002
7.907047e+002;2.438527e-002
7.926332e+002;2.518141e-002
7.945618e+002;2.660666e-002
7.964903e+002;2.863676e-002
7.984189e+002;2.947453e-002
8.003474e+002;3.000933e-002
8.022759e+002;3.186881e-002
8.042045e+002;3.459134e-002
8.061331e+002;3.676352e-002
8.080616e+002;3.845240e-002
8.099902e+002;3.920887e-002
8.119187e+002;3.851807e-002
8.138472e+002;3.607044e-002
8.157758e+002;3.326133e-002
8.177043e+002;3.088010e-002
8.196329e+002;2.916075e-002
8.215615e+002;2.813293e-002
8.234900e+002;2.767491e-002
8.254185e+002;2.752192e-002
8.273471e+002;2.752651e-002
8.292756e+002;2.765082e-002
8.312042e+002;2.867269e-002
8.331328e+002;3.059391e-002
8.350613e+002;3.251300e-002
8.369898e+002;3.465647e-002
8.389184e+002;3.937151e-002
8.408469e+002;4.388867e-002
8.427755e+002;4.338613e-002
8.447040e+002;3.938113e-002
8.466326e+002;3.510780e-002
8.485611e+002;3.172417e-002
8.504897e+002;2.912723e-002
8.524182e+002;2.808598e-002
8.543467e+002;2.723176e-002
8.562753e+002;2.593561e-002
8.582039e+002;2.503376e-002
8.601324e+002;2.418604e-002
8.620610e+002;2.361068e-002
8.639895e+002;2.385519e-002
8.659180e+002;2.403088e-002
8.678466e+002;2.372996e-002
8.697751e+002;2.384045e-002
8.717037e+002;2.475399e-002
8.736323e+002;2.499143e-002
8.755608e+002;2.435752e-002
8.774893e+002;2.409521e-002
8.794179e+002;2.351853e-002
8.813464e+002;2.296948e-002
8.832750e+002;2.254650e-002
8.852036e+002;2.247647e-002
8.871321e+002;2.297808e-002
8.890606e+002;2.358594e-002
8.909892e+002;2.528606e-002
8.929177e+002;2.821414e-002
8.948463e+002;3.188806e-002
8.967748e+002;3.613997e-002
8.987034e+002;3.884370e-002
9.006319e+002;3.839542e-002
9.025605e+002;3.494007e-002
9.044890e+002;3.039334e-002
9.064175e+002;2.636588e-002
9.083461e+002;2.347439e-002
9.102747e+002;2.153998e-002
9.122032e+002;2.025845e-002
9.141318e+002;1.963872e-002
9.160603e+002;1.949259e-002
9.179888e+002;1.958929e-002
9.199174e+002;1.978712e-002
9.218459e+002;1.963664e-002
9.237745e+002;1.912862e-002
9.257031e+002;1.881917e-002
9.276316e+002;1.934658e-002
9.295601e+002;2.015771e-002
9.314887e+002;2.073655e-002
9.334172e+002;2.126110e-002
9.353458e+002;2.220358e-002
9.372744e+002;2.322213e-002
9.392029e+002;2.425838e-002
9.411314e+002;2.528680e-002
9.430600e+002;2.547905e-002
9.449885e+002;2.556275e-002
9.469171e+002;2.593181e-002
9.488456e+002;2.658313e-002
9.507742e+002;2.729238e-002
9.527027e+002;2.799162e-002
9.546313e+002;2.868589e-002
9.565598e+002;2.941745e-002
9.584883e+002;3.072879e-002
9.604169e+002;3.293587e-002
9.623455e+002;3.552001e-002
9.642740e+002;3.861157e-002
9.662026e+002;4.305774e-002
9.681311e+002;4.967383e-002
9.700596e+002;5.772518e-002
9.719882e+002;6.463357e-002
9.739167e+002;6.737763e-002
9.758453e+002;6.396934e-002
9.777739e+002;5.620680e-002
9.797024e+002;4.763095e-002
9.816309e+002;4.061874e-002
9.835595e+002;3.568584e-002
9.854880e+002;3.306624e-002
9.874166e+002;3.258789e-002
9.893452e+002;3.371526e-002
9.912737e+002;3.715333e-002
9.932022e+002;4.287101e-002
9.951307e+002;4.917635e-002
9.970593e+002;5.409981e-002
9.989879e+002;5.484786e-002
1.000916e+003;5.104721e-002
1.002845e+003;4.514428e-002
1.004773e+003;4.002788e-002
1.006702e+003;3.677322e-002
1.008631e+003;3.525195e-002
1.010559e+003;3.446937e-002
1.012488e+003;3.342566e-002
1.014416e+003;3.228373e-002
1.016345e+003;3.174873e-002
1.018273e+003;3.172292e-002
1.020202e+003;3.179711e-002
1.022130e+003;3.176584e-002
1.024059e+003;3.191976e-002
1.025988e+003;3.246776e-002
1.027916e+003;3.302488e-002
1.029845e+003;3.369524e-002
1.031773e+003;3.506175e-002
1.033702e+003;3.658030e-002
1.035630e+003;3.767733e-002
1.037559e+003;3.876700e-002
1.039487e+003;3.964140e-002
1.041416e+003;3.971644e-002
1.043344e+003;3.921286e-002
1.045273e+003;3.862692e-002
1.047202e+003;3.811383e-002
1.049130e+003;3.719084e-002
1.051059e+003;3.646839e-002
1.052987e+003;3.636346e-002
1.054916e+003;3.596133e-002
1.056844e+003;3.557765e-002
1.058773e+003;3.552580e-002
1.060701e+003;3.520703e-002
1.062630e+003;3.465181e-002
1.064558e+003;3.458083e-002
1.066487e+003;3.500518e-002
1.068416e+003;3.503136e-002
1.070344e+003;3.501786e-002
1.072273e+003;3.504738e-002
1.074201e+003;3.489321e-002
1.076130e+003;3.453505e-002
1.078058e+003;3.466462e-002
1.079987e+003;3.575826e-002
1.081915e+003;3.660845e-002
1.083844e+003;3.634714e-002
1.085773e+003;3.636627e-002
1.087701e+003;3.683839e-002
1.089630e+003;3.814769e-002
1.091558e+003;3.864547e-002
1.093487e+003;3.929095e-002
1.095415e+003;4.130341e-002
1.097344e+003;4.293088e-002
1.099272e+003;4.363878e-002
1.101201e+003;4.412664e-002
1.103129e+003;4.427804e-002
1.105058e+003;4.350017e-002
1.106987e+003;4.259728e-002
1.108915e+003;4.132684e-002
1.110844e+003;3.959744e-002
1.112772e+003;3.799596e-002
1.114701e+003;3.694823e-002
1.116629e+003;3.658314e-002
1.118558e+003;3.615149e-002
1.120486e+003;3.559265e-002
1.122415e+003;3.476601e-002
1.124344e+003;3.423573e-002
1.126272e+003;3.416059e-002
1.128201e+003;3.403873e-002
1.130129e+003;3.417730e-002
1.132058e+003;3.506753e-002
1.133986e+003;3.629440e-002
1.135915e+003;3.775731e-002
1.137843e+003;3.976665e-002
1.139772e+003;4.263058e-002
1.141700e+003;4.607813e-002
1.143629e+003;4.962001e-002
1.145557e+003;5.298994e-002
1.147486e+003;5.592680e-002
1.149415e+003;5.881141e-002
1.151343e+003;6.181146e-002
1.153272e+003;6.393083e-002
1.155200e+003;6.463876e-002
1.157129e+003;6.484999e-002
1.159057e+003;6.513761e-002
1.160986e+003;6.523968e-002
1.162914e+003;6.569315e-002
1.164843e+003;6.605683e-002
1.166771e+003;6.563021e-002
1.168700e+003;6.447768e-002
1.170629e+003;6.140026e-002
1.172557e+003;5.637823e-002
1.174486e+003;5.096843e-002
1.176414e+003;4.634406e-002
1.178343e+003;4.308354e-002
1.180271e+003;4.084626e-002
1.182200e+003;3.904267e-002
1.184128e+003;3.796229e-002
1.186057e+003;3.740148e-002
1.187986e+003;3.703966e-002
1.189914e+003;3.657276e-002
1.191843e+003;3.600467e-002
1.193771e+003;3.611739e-002
1.195700e+003;3.652291e-002
1.197628e+003;3.655146e-002
1.199557e+003;3.619856e-002
1.201485e+003;3.573199e-002
1.203414e+003;3.546118e-002
1.205343e+003;3.528951e-002
1.207271e+003;3.550404e-002
1.209200e+003;3.612071e-002
1.211128e+003;3.691316e-002
1.213057e+003;3.809835e-002
1.214985e+003;3.892124e-002
1.216914e+003;3.873479e-002
1.218842e+003;3.831616e-002
1.220771e+003;3.783065e-002
1.222699e+003;3.711021e-002
1.224628e+003;3.614011e-002
1.226557e+003;3.528731e-002
1.228485e+003;3.520412e-002
1.230414e+003;3.521983e-002
1.232342e+003;3.494348e-002
1.234271e+003;3.507299e-002
1.236199e+003;3.561362e-002
1.238128e+003;3.562476e-002
1.240056e+003;3.571055e-002
1.241985e+003;3.598166e-002
1.243913e+003;3.609276e-002
1.245842e+003;3.641099e-002
1.247771e+003;3.692655e-002
1.249699e+003;3.783875e-002
1.251628e+003;3.995664e-002
1.253556e+003;4.249152e-002
1.255485e+003;4.393087e-002
1.257413e+003;4.380048e-002
1.259342e+003;4.224009e-002
1.261270e+003;4.019803e-002
1.263199e+003;3.810124e-002
1.265127e+003;3.680463e-002
1.267056e+003;3.626130e-002
1.268985e+003;3.588938e-002
1.270913e+003;3.503251e-002
1.272842e+003;3.456705e-002
1.274770e+003;3.472491e-002
1.276699e+003;3.464014e-002
1.278627e+003;3.407435e-002
1.280556e+003;3.384491e-002
1.282484e+003;3.444892e-002
1.284413e+003;3.507102e-002
1.286342e+003;3.540830e-002
1.288270e+003;3.621214e-002
1.290199e+003;3.689975e-002
1.292127e+003;3.734250e-002
1.294056e+003;3.801241e-002
1.295984e+003;3.847582e-002
1.297913e+003;3.850384e-002
1.299841e+003;3.838203e-002
1.301770e+003;3.878007e-002
1.303698e+003;3.888316e-002
1.305627e+003;3.768000e-002
1.307556e+003;3.556118e-002
1.309484e+003;3.355161e-002
1.311413e+003;3.237315e-002
1.313341e+003;3.220250e-002
1.315270e+003;3.299578e-002
1.317198e+003;3.410823e-002
1.319127e+003;3.534378e-002
1.321055e+003;3.690635e-002
1.322984e+003;3.830526e-002
1.324912e+003;3.981404e-002
1.326841e+003;4.139875e-002
1.328770e+003;4.225857e-002
1.330698e+003;4.244782e-002
1.332627e+003;4.223509e-002
1.334555e+003;4.148405e-002
1.336484e+003;4.051607e-002
1.338412e+003;4.010237e-002
1.340341e+003;4.084051e-002
1.342269e+003;4.248315e-002
1.344198e+003;4.430695e-002
1.346126e+003;4.669465e-002
1.348055e+003;4.958383e-002
1.349984e+003;5.318374e-002
1.351912e+003;5.791577e-002
1.353841e+003;6.380632e-002
1.355769e+003;7.036404e-002
1.357698e+003;7.596495e-002
1.359626e+003;7.806090e-002
1.361555e+003;7.721961e-002
1.363483e+003;7.697305e-002
1.365412e+003;7.935538e-002
1.367341e+003;8.654746e-002
1.369269e+003;1.014116e-001
1.371198e+003;1.231647e-001
1.373126e+003;1.478080e-001
1.375055e+003;1.676491e-001
1.376983e+003;1.695372e-001
1.378912e+003;1.506907e-001
1.380840e+003;1.237770e-001
1.382769e+003;9.889580e-002
1.384698e+003;7.896090e-002
1.386626e+003;6.402586e-002
1.388555e+003;5.489076e-002
1.390483e+003;4.949540e-002
1.392412e+003;4.508495e-002
1.394340e+003;4.162592e-002
1.396269e+003;4.028400e-002
1.398197e+003;3.994073e-002
1.400126e+003;4.027800e-002
1.402054e+003;4.087291e-002
1.403983e+003;4.085216e-002
1.405911e+003;4.113353e-002
1.407840e+003;4.190925e-002
1.409769e+003;4.245454e-002
1.411697e+003;4.301238e-002
1.413626e+003;4.368095e-002
1.415554e+003;4.384586e-002
1.417483e+003;4.311021e-002
1.419411e+003;4.342864e-002
1.421340e+003;4.607514e-002
1.423268e+003;4.825787e-002
1.425197e+003;5.066923e-002
1.427125e+003;5.423584e-002
1.429054e+003;5.940876e-002
1.430983e+003;6.779225e-002
1.432911e+003;7.788216e-002
1.434840e+003;8.395715e-002
1.436768e+003;8.565124e-002
1.438697e+003;8.862080e-002
1.440625e+003;9.262590e-002
1.442554e+003;9.754860e-002
1.444482e+003;1.044763e-001
1.446411e+003;1.133411e-001
1.448340e+003;1.230460e-001
1.450268e+003;1.318445e-001
1.452197e+003;1.375509e-001
1.454125e+003;1.390773e-001
1.456054e+003;1.365110e-001
1.457982e+003;1.358028e-001
1.459911e+003;1.357178e-001
1.461839e+003;1.314216e-001
1.463768e+003;1.235568e-001
1.465697e+003;1.143616e-001
1.467625e+003;1.047176e-001
1.469554e+003;9.335939e-002
1.471482e+003;8.085920e-002
1.473411e+003;7.104743e-002
1.475339e+003;6.461300e-002
1.477268e+003;5.879965e-002
1.479196e+003;5.344249e-002
1.481125e+003;4.827812e-002
1.483053e+003;4.429774e-002
1.484982e+003;4.081688e-002
1.486911e+003;3.709093e-002
1.488839e+003;3.388900e-002
1.490768e+003;3.225047e-002
1.492696e+003;3.176449e-002
1.494625e+003;2.983965e-002
1.496553e+003;2.733648e-002
1.498482e+003;2.693616e-002
1.500410e+003;2.724475e-002
1.502339e+003;2.645933e-002
1.504267e+003;2.257941e-002
1.506196e+003;1.854653e-002
1.508125e+003;1.988968e-002
1.510053e+003;2.215350e-002
1.511982e+003;2.217020e-002
1.513910e+003;2.195428e-002
1.515839e+003;2.100866e-002
1.517767e+003;1.998657e-002
1.519696e+003;1.813754e-002
1.521624e+003;1.678158e-002
1.523553e+003;1.820039e-002
1.525481e+003;1.917236e-002
1.527410e+003;2.011582e-002
1.529339e+003;2.107710e-002
1.531267e+003;2.092071e-002
1.533196e+003;2.010874e-002
1.535124e+003;2.140274e-002
1.537053e+003;2.071326e-002
1.538981e+003;1.752866e-002
1.540910e+003;1.826279e-002
1.542838e+003;2.164166e-002
1.544767e+003;2.384797e-002
1.546695e+003;2.510280e-002
1.548624e+003;2.503614e-002
1.550553e+003;2.477111e-002
1.552481e+003;2.374322e-002
1.554410e+003;2.211417e-002
1.556338e+003;1.966219e-002
1.558267e+003;1.509962e-002
1.560195e+003;1.625463e-002
1.562124e+003;2.060346e-002
1.564052e+003;2.144288e-002
1.565981e+003;2.113164e-002
1.567910e+003;2.034976e-002
1.569838e+003;1.992388e-002
1.571767e+003;2.124172e-002
1.573695e+003;2.052331e-002
1.575624e+003;1.807322e-002
1.577552e+003;1.966118e-002
1.579481e+003;2.211512e-002
1.581409e+003;2.257303e-002
1.583338e+003;2.230444e-002
1.585266e+003;2.153406e-002
1.587195e+003;2.119144e-002
1.589124e+003;2.120773e-002
1.591052e+003;2.132127e-002
1.592981e+003;2.121322e-002
1.594909e+003;2.086133e-002
1.596838e+003;2.079139e-002
1.598766e+003;2.130857e-002
1.600695e+003;2.171867e-002
1.602623e+003;2.208806e-002
1.604552e+003;2.252490e-002
1.606480e+003;2.265785e-002
1.608409e+003;2.288185e-002
1.610338e+003;2.355162e-002
1.612266e+003;2.407843e-002
1.614195e+003;2.344484e-002
1.616123e+003;2.179716e-002
1.618052e+003;2.369104e-002
1.619980e+003;2.621360e-002
1.621909e+003;2.595456e-002
1.623837e+003;2.586512e-002
1.625766e+003;2.688487e-002
1.627694e+003;2.744684e-002
1.629623e+003;2.785575e-002
1.631552e+003;2.799444e-002
1.633480e+003;2.609842e-002
1.635409e+003;2.385491e-002
1.637337e+003;2.584649e-002
1.639266e+003;2.828256e-002
1.641194e+003;2.901347e-002
1.643123e+003;2.861818e-002
1.645051e+003;2.695309e-002
1.646980e+003;2.659972e-002
1.648909e+003;2.812282e-002
1.650837e+003;2.542263e-002
1.652766e+003;2.092631e-002
1.654694e+003;2.456469e-002
1.656623e+003;2.906558e-002
1.658551e+003;2.967713e-002
1.660480e+003;2.900249e-002
1.662408e+003;2.802243e-002
1.664337e+003;2.834972e-002
1.666266e+003;2.845096e-002
1.668194e+003;2.684575e-002
1.670123e+003;2.623732e-002
1.672051e+003;2.660592e-002
1.673980e+003;2.549448e-002
1.675908e+003;2.540682e-002
1.677837e+003;2.662209e-002
1.679765e+003;2.639616e-002
1.681694e+003;2.458569e-002
1.683622e+003;2.106128e-002
1.685551e+003;2.235334e-002
1.687479e+003;2.568285e-002
1.689408e+003;2.626882e-002
1.691337e+003;2.658746e-002
1.693265e+003;2.577771e-002
1.695194e+003;2.305822e-002
1.697122e+003;2.396592e-002
1.699051e+003;2.404215e-002
1.700979e+003;2.483945e-002
1.702908e+003;2.881044e-002
1.704836e+003;3.012321e-002
1.706765e+003;3.137488e-002
1.708693e+003;3.247229e-002
1.710622e+003;3.287360e-002
1.712551e+003;3.238693e-002
1.714479e+003;3.091834e-002
1.716408e+003;2.869382e-002
1.718336e+003;2.936898e-002
1.720265e+003;3.235458e-002
1.722193e+003;3.327954e-002
1.724122e+003;3.311595e-002
1.726050e+003;3.341611e-002
1.727979e+003;3.368883e-002
1.729908e+003;3.384100e-002
1.731836e+003;3.268319e-002
1.733765e+003;3.127122e-002
1.735693e+003;3.437364e-002
1.737622e+003;3.681080e-002
1.739550e+003;3.661115e-002
1.741479e+003;3.693095e-002
1.743407e+003;3.619096e-002
1.745336e+003;3.449921e-002
1.747265e+003;3.195172e-002
1.749193e+003;2.850268e-002
1.751122e+003;2.537885e-002
1.753050e+003;2.384692e-002
1.754979e+003;2.143714e-002
1.756907e+003;1.849802e-002
1.758836e+003;1.635405e-002
1.760764e+003;1.366818e-002
1.762693e+003;1.217397e-002
1.764621e+003;1.183614e-002
1.766550e+003;1.044136e-002
1.768479e+003;9.039551e-003
1.770407e+003;7.542342e-003
1.772336e+003;6.150817e-003
1.774264e+003;7.000820e-003
1.776193e+003;7.912550e-003
1.778121e+003;7.768861e-003
1.780050e+003;7.018398e-003
1.781978e+003;6.515501e-003
1.783907e+003;5.904885e-003
1.785835e+003;5.331554e-003
1.787764e+003;4.963304e-003
1.789693e+003;3.923878e-003
1.791621e+003;2.316937e-003
1.793550e+003;2.051461e-003
1.795478e+003;2.583209e-003
1.797407e+003;2.331261e-003
1.799335e+003;1.838618e-003
1.801264e+003;1.452937e-003
1.803192e+003;1.295018e-003
1.805121e+003;9.706522e-004
1.807049e+003;6.911957e-004
1.808978e+003;4.922199e-004
1.810907e+003;6.526343e-004
1.812835e+003;6.931869e-004
1.814764e+003;4.540079e-004
1.816692e+003;3.490085e-004
1.818621e+003;5.291415e-004
1.820549e+003;3.809434e-004
1.822478e+003;-1.113492e-004
1.824406e+003;-7.603235e-004
1.826335e+003;-5.580162e-004
1.828264e+003;-5.046033e-004
1.830192e+003;-7.034289e-004
1.832121e+003;-1.403994e-004
1.834049e+003;1.222155e-004
1.835978e+003;1.460131e-004
1.837906e+003;1.971260e-004
1.839835e+003;1.215527e-004
1.841763e+003;-7.103427e-004
1.843692e+003;-2.065329e-003
1.845620e+003;-1.746062e-003
1.847549e+003;-7.708085e-004
1.849478e+003;-4.043452e-004
1.851406e+003;-5.225738e-004
1.853335e+003;-4.779936e-004
1.855263e+003;-3.299228e-004
1.857192e+003;-3.239301e-004
1.859120e+003;-3.185994e-004
1.861049e+003;-3.249565e-004
1.862977e+003;-5.140023e-004
1.864906e+003;-1.005084e-003
1.866834e+003;-1.675731e-003
1.868763e+003;-1.857690e-003
1.870692e+003;-8.498182e-004
1.872620e+003;-2.490965e-004
1.874549e+003;-4.704473e-004
1.876477e+003;-6.097682e-004
1.878406e+003;-6.421597e-004
1.880334e+003;-7.560898e-004
1.882263e+003;-8.048086e-004
1.884191e+003;-7.112689e-004
1.886120e+003;-7.385589e-004
1.888048e+003;-9.609498e-004
1.889977e+003;-9.192581e-004
1.891906e+003;-4.334420e-004
1.893834e+003;-2.810183e-004
1.895763e+003;-2.233323e-004
1.897691e+003;-2.695943e-004
1.899620e+003;-3.685592e-004
1.901548e+003;-3.944803e-004
1.903477e+003;-3.425371e-004
1.905405e+003;-5.863747e-004
1.907334e+003;-6.865246e-004
1.909262e+003;-7.249307e-004
1.911191e+003;-8.106624e-004
1.913120e+003;-8.662533e-004
1.915048e+003;-8.012037e-004
1.916977e+003;-1.255422e-003
1.918905e+003;-1.301673e-003
1.920834e+003;-8.539518e-004
1.922762e+003;-7.747114e-004
1.924691e+003;-5.460700e-004
1.926619e+003;-7.055792e-004
1.928548e+003;-1.173380e-003
1.930477e+003;-1.320403e-003
1.932405e+003;-1.448950e-003
1.934334e+003;-1.535266e-003
1.936262e+003;-1.373287e-003
1.938191e+003;-1.406315e-003
1.940119e+003;-1.616051e-003
1.942048e+003;-1.811960e-003
1.943976e+003;-1.840534e-003
1.945905e+003;-1.674279e-003
1.947833e+003;-1.504262e-003
1.949762e+003;-1.511526e-003
1.951691e+003;-1.370050e-003
1.953619e+003;-1.316010e-003
1.955548e+003;-1.346400e-003
1.957476e+003;-1.378571e-003
1.959405e+003;-1.341974e-003
1.961333e+003;-1.377118e-003
1.963262e+003;-1.567985e-003
1.965190e+003;-1.836871e-003
1.967119e+003;-1.793053e-003
1.969047e+003;-1.666654e-003
1.970976e+003;-1.622092e-003
1.972905e+003;-1.680121e-003
1.974833e+003;-1.723885e-003
1.976762e+003;-1.636848e-003
1.978690e+003;-1.752200e-003
1.980619e+003;-1.600998e-003
1.982547e+003;-1.364005e-003
1.984476e+003;-1.550288e-003
1.986404e+003;-1.640446e-003
1.988333e+003;-1.466948e-003
1.990261e+003;-1.546789e-003
1.992190e+003;-1.712664e-003
1.994119e+003;-1.583600e-003
1.996047e+003;-1.447498e-003
1.997976e+003;-1.332890e-003
1.999904e+003;-1.335731e-003
2.001833e+003;-1.571286e-003
2.003761e+003;-1.400898e-003
2.005690e+003;-1.054403e-003
2.007618e+003;-1.143176e-003
2.009547e+003;-1.337746e-003
2.011476e+003;-1.355483e-003
2.013404e+003;-1.498450e-003
2.015333e+003;-1.440232e-003
2.017261e+003;-1.078630e-003
2.019190e+003;-1.054502e-003
2.021118e+003;-1.193041e-003
2.023047e+003;-9.417410e-004
2.024975e+003;-8.476687e-004
2.026904e+003;-9.238209e-004
2.028833e+003;-1.054766e-003
2.030761e+003;-1.172917e-003
2.032690e+003;-1.002406e-003
2.034618e+003;-1.030736e-003
2.036547e+003;-1.285618e-003
2.038475e+003;-1.185110e-003
2.040404e+003;-7.039913e-004
2.042332e+003;-5.461693e-004
2.044261e+003;-6.925784e-004
2.046189e+003;-6.434500e-004
2.048118e+003;-4.402938e-004
2.050047e+003;-4.948069e-004
2.051975e+003;-6.281976e-004
2.053904e+003;-7.380628e-004
2.055832e+003;-8.731314e-004
2.057761e+003;-8.025597e-004
2.059689e+003;-7.951513e-004
2.061618e+003;-6.093050e-004
2.063546e+003;-5.926947e-004
2.065475e+003;-8.521661e-004
2.067404e+003;-9.219694e-004
2.069332e+003;-7.940929e-004
2.071260e+003;-6.265102e-004
2.073189e+003;-4.138788e-004
2.075118e+003;-6.457329e-004
2.077046e+003;-9.753641e-004
2.078975e+003;-6.377263e-004
2.080903e+003;-2.359080e-005
2.082832e+003;1.147915e-004
2.084760e+003;2.037890e-004
2.086689e+003;5.195874e-004
2.088617e+003;4.395466e-004
2.090546e+003;2.082974e-004
2.092475e+003;2.448633e-004
2.094403e+003;2.369730e-004
2.096332e+003;5.706056e-005
2.098260e+003;6.276040e-005
2.100189e+003;1.776021e-005
2.102117e+003;-2.100647e-005
2.104046e+003;2.253368e-004
2.105974e+003;6.018659e-004
2.107903e+003;7.333118e-004
2.109832e+003;4.897321e-004
2.111760e+003;3.380325e-004
2.113688e+003;4.285019e-004
2.115617e+003;5.960263e-004
2.117546e+003;5.910826e-004
2.119474e+003;7.026453e-004
2.121403e+003;1.015087e-003
2.123331e+003;1.203936e-003
2.125260e+003;1.267236e-003
2.127188e+003;1.549923e-003
2.129117e+003;1.939884e-003
2.131045e+003;2.150479e-003
2.132974e+003;2.306944e-003
2.134903e+003;2.287591e-003
2.136831e+003;2.001195e-003
2.138760e+003;1.834359e-003
2.140688e+003;1.817056e-003
2.142617e+003;1.846071e-003
2.144545e+003;1.698321e-003
2.146474e+003;1.720542e-003
2.148402e+003;1.837054e-003
2.150331e+003;1.688542e-003
2.152260e+003;1.790871e-003
2.154188e+003;1.958323e-003
2.156117e+003;2.038977e-003
2.158045e+003;2.434542e-003
2.159974e+003;2.596676e-003
2.161902e+003;2.561278e-003
2.163831e+003;2.787881e-003
2.165759e+003;2.953749e-003
2.167688e+003;3.077900e-003
2.169616e+003;3.324105e-003
2.171545e+003;3.494855e-003
2.173474e+003;3.680708e-003
2.175402e+003;3.806270e-003
2.177331e+003;3.776422e-003
2.179259e+003;3.513059e-003
2.181188e+003;3.260504e-003
2.183116e+003;3.118480e-003
2.185045e+003;3.360233e-003
2.186973e+003;3.475716e-003
2.188902e+003;3.335123e-003
2.190831e+003;3.302670e-003
2.192759e+003;3.521343e-003
2.194688e+003;3.668378e-003
2.196616e+003;3.675328e-003
2.198545e+003;3.560427e-003
2.200473e+003;3.343805e-003
2.202402e+003;3.143877e-003
2.204330e+003;3.095119e-003
2.206259e+003;3.133431e-003
2.208188e+003;3.167507e-003
2.210116e+003;3.099991e-003
2.212044e+003;3.062350e-003
2.213973e+003;3.189937e-003
2.215902e+003;3.425618e-003
2.217830e+003;3.643618e-003
2.219759e+003;3.295792e-003
2.221687e+003;3.138671e-003
2.223616e+003;3.389819e-003
2.225544e+003;3.522646e-003
2.227473e+003;3.566173e-003
2.229401e+003;3.717701e-003
2.231330e+003;3.714059e-003
2.233259e+003;3.624640e-003
2.235187e+003;3.468401e-003
2.237116e+003;3.516767e-003
2.239044e+003;3.552443e-003
2.240973e+003;3.354957e-003
2.242901e+003;3.166139e-003
2.244830e+003;3.179990e-003
2.246758e+003;3.458415e-003
2.248687e+003;3.779330e-003
2.250615e+003;3.936383e-003
2.252544e+003;4.196055e-003
2.254473e+003;4.376319e-003
2.256401e+003;4.508042e-003
2.258330e+003;4.464420e-003
2.260258e+003;4.072354e-003
2.262187e+003;3.772879e-003
2.264115e+003;3.797847e-003
2.266044e+003;4.096703e-003
2.267972e+003;4.154405e-003
2.269901e+003;3.922641e-003
2.271830e+003;3.752024e-003
2.273758e+003;3.719873e-003
2.275687e+003;3.634396e-003
2.277615e+003;3.537811e-003
2.279544e+003;3.467767e-003
2.281472e+003;3.434101e-003
2.283401e+003;3.244380e-003
2.285329e+003;3.240241e-003
2.287258e+003;3.238805e-003
2.289187e+003;2.969796e-003
2.291115e+003;2.904312e-003
2.293043e+003;3.089146e-003
2.294972e+003;3.171479e-003
2.296901e+003;3.138170e-003
2.298829e+003;3.000990e-003
2.300758e+003;3.249020e-003
2.302686e+003;3.540016e-003
2.304615e+003;3.521777e-003
2.306543e+003;3.507247e-003
2.308472e+003;3.379467e-003
2.310400e+003;3.349348e-003
2.312329e+003;3.370818e-003
2.314258e+003;3.351317e-003
2.316186e+003;3.568311e-003
2.318115e+003;3.560260e-003
2.320043e+003;3.517835e-003
2.321972e+003;3.548501e-003
2.323900e+003;3.675696e-003
2.325829e+003;3.922440e-003
2.327757e+003;4.411999e-003
2.329686e+003;4.791708e-003
2.331615e+003;4.707125e-003
2.333543e+003;4.543699e-003
2.335472e+003;4.726418e-003
2.337400e+003;4.840087e-003
2.339329e+003;4.705517e-003
2.341257e+003;4.945206e-003
2.343186e+003;5.267289e-003
2.345114e+003;5.197468e-003
2.347043e+003;5.114683e-003
2.348971e+003;5.090411e-003
2.350900e+003;5.101943e-003
2.352829e+003;5.684036e-003
2.354757e+003;6.142314e-003
2.356686e+003;5.891719e-003
2.358614e+003;5.702063e-003
2.360543e+003;5.670440e-003
2.362471e+003;5.602165e-003
2.364400e+003;5.672219e-003
2.366328e+003;5.907371e-003
2.368257e+003;5.969211e-003
2.370186e+003;6.007474e-003
2.372114e+003;5.892022e-003
2.374042e+003;5.831939e-003
2.375971e+003;5.825592e-003
2.377900e+003;5.918992e-003
2.379828e+003;6.019300e-003
2.381757e+003;6.145607e-003
2.383685e+003;6.355328e-003
2.385614e+003;6.364002e-003
2.387542e+003;6.192726e-003
2.389471e+003;6.196322e-003
2.391399e+003;6.429034e-003
2.393328e+003;6.491587e-003
2.395257e+003;6.671225e-003
2.397185e+003;7.000383e-003
2.399114e+003;6.929037e-003
2.401042e+003;6.931697e-003
2.402971e+003;7.065948e-003
2.404899e+003;6.681386e-003
2.406828e+003;6.339895e-003
2.408756e+003;6.456879e-003
2.410685e+003;6.640102e-003
2.412614e+003;6.677281e-003
2.414542e+003;6.611001e-003
2.416471e+003;6.636839e-003
2.418399e+003;6.792976e-003
2.420328e+003;6.998160e-003
2.422256e+003;7.132062e-003
2.424185e+003;7.218837e-003
2.426113e+003;7.381857e-003
2.428042e+003;7.425200e-003
2.429970e+003;7.219511e-003
2.431899e+003;7.220825e-003
2.433828e+003;7.144323e-003
2.435756e+003;6.877361e-003
2.437685e+003;6.525490e-003
2.439613e+003;6.517183e-003
2.441542e+003;6.502888e-003
2.443470e+003;6.247043e-003
2.445399e+003;5.981203e-003
2.447327e+003;5.749302e-003
2.449256e+003;5.756454e-003
2.451185e+003;6.012009e-003
2.453113e+003;6.120908e-003
2.455042e+003;6.054880e-003
2.456970e+003;5.730936e-003
2.458899e+003;5.594210e-003
2.460827e+003;6.068992e-003
2.462756e+003;6.201465e-003
2.464684e+003;5.972771e-003
2.466613e+003;5.849201e-003
2.468542e+003;5.756017e-003
2.470470e+003;5.597970e-003
2.472398e+003;5.692999e-003
2.474327e+003;6.020409e-003
2.476256e+003;5.887655e-003
2.478184e+003;6.137273e-003
2.480113e+003;6.653358e-003
2.482041e+003;6.949439e-003
2.483970e+003;7.107272e-003
2.485898e+003;7.163152e-003
2.487827e+003;7.043654e-003
2.489755e+003;7.034629e-003
2.491684e+003;6.994591e-003
2.493613e+003;6.701340e-003
2.495541e+003;6.637175e-003
2.497470e+003;6.470769e-003
2.499398e+003;6.416424e-003
2.501327e+003;6.647201e-003
2.503255e+003;6.504637e-003
2.505184e+003;6.530200e-003
2.507112e+003;6.801357e-003
2.509041e+003;7.027524e-003
2.510969e+003;7.356413e-003
2.512898e+003;7.504246e-003
2.514827e+003;7.728419e-003
2.516755e+003;7.999853e-003
2.518684e+003;8.193418e-003
2.520612e+003;8.335120e-003
2.522541e+003;8.525253e-003
2.524469e+003;9.045607e-003
2.526398e+003;9.277617e-003
2.528326e+003;9.181326e-003
2.530255e+003;9.389944e-003
2.532184e+003;9.683255e-003
2.534112e+003;9.857812e-003
2.536041e+003;9.892285e-003
2.537969e+003;1.011349e-002
2.539898e+003;1.041601e-002
2.541826e+003;1.065673e-002
2.543755e+003;1.083702e-002
2.545683e+003;1.087381e-002
2.547612e+003;1.117703e-002
2.549541e+003;1.182524e-002
2.551469e+003;1.230109e-002
2.553397e+003;1.277924e-002
2.555326e+003;1.311726e-002
2.557255e+003;1.308837e-002
2.559183e+003;1.312566e-002
2.561112e+003;1.347879e-002
2.563040e+003;1.388399e-002
2.564969e+003;1.421168e-002
2.566897e+003;1.464917e-002
2.568826e+003;1.503296e-002
2.570754e+003;1.561816e-002
2.572683e+003;1.634666e-002
2.574612e+003;1.684234e-002
2.576540e+003;1.737445e-002
2.578469e+003;1.796070e-002
2.580397e+003;1.843299e-002
2.582326e+003;1.855836e-002
2.584254e+003;1.822271e-002
2.586183e+003;1.740904e-002
2.588111e+003;1.675117e-002
2.590040e+003;1.640498e-002
2.591969e+003;1.594788e-002
2.593897e+003;1.558062e-002
2.595826e+003;1.534453e-002
2.597754e+003;1.524833e-002
2.599683e+003;1.538596e-002
2.601611e+003;1.555208e-002
2.603540e+003;1.567621e-002
2.605468e+003;1.607539e-002
2.607397e+003;1.659933e-002
2.609325e+003;1.668495e-002
2.611254e+003;1.687695e-002
2.613183e+003;1.752173e-002
2.615111e+003;1.773267e-002
2.617040e+003;1.747209e-002
2.618968e+003;1.736465e-002
2.620897e+003;1.752908e-002
2.622825e+003;1.753242e-002
2.624754e+003;1.703582e-002
2.626682e+003;1.639765e-002
2.628611e+003;1.620393e-002
2.630540e+003;1.623819e-002
2.632468e+003;1.630052e-002
2.634396e+003;1.657950e-002
2.636325e+003;1.696880e-002
2.638254e+003;1.701328e-002
2.640182e+003;1.721387e-002
2.642111e+003;1.761640e-002
2.644039e+003;1.784921e-002
2.645968e+003;1.798052e-002
2.647896e+003;1.834726e-002
2.649825e+003;1.878111e-002
2.651753e+003;1.930747e-002
2.653682e+003;1.972470e-002
2.655611e+003;1.996395e-002
2.657539e+003;1.999722e-002
2.659468e+003;2.029855e-002
2.661396e+003;2.059137e-002
2.663325e+003;2.070694e-002
2.665253e+003;2.078642e-002
2.667182e+003;2.063049e-002
2.669110e+003;2.042047e-002
2.671039e+003;2.033351e-002
2.672968e+003;2.051820e-002
2.674896e+003;2.096599e-002
2.676825e+003;2.125908e-002
2.678753e+003;2.132075e-002
2.680682e+003;2.135468e-002
2.682610e+003;2.113571e-002
2.684539e+003;2.109547e-002
2.686467e+003;2.127130e-002
2.688396e+003;2.141103e-002
2.690324e+003;2.134090e-002
2.692253e+003;2.148114e-002
2.694182e+003;2.163731e-002
2.696110e+003;2.157863e-002
2.698039e+003;2.180047e-002
2.699967e+003;2.219106e-002
2.701896e+003;2.251524e-002
2.703824e+003;2.324768e-002
2.705753e+003;2.422419e-002
2.707681e+003;2.512011e-002
2.709610e+003;2.587480e-002
2.711539e+003;2.651726e-002
2.713467e+003;2.755207e-002
2.715396e+003;2.925480e-002
2.717324e+003;3.138372e-002
2.719253e+003;3.326595e-002
2.721181e+003;3.416199e-002
2.723110e+003;3.447658e-002
2.725038e+003;3.397756e-002
2.726967e+003;3.280213e-002
2.728896e+003;3.152233e-002
2.730824e+003;2.999385e-002
2.732752e+003;2.889850e-002
2.734681e+003;2.822542e-002
2.736610e+003;2.755796e-002
2.738538e+003;2.672268e-002
2.740467e+003;2.547094e-002
2.742395e+003;2.416320e-002
2.744324e+003;2.346187e-002
2.746252e+003;2.338948e-002
2.748181e+003;2.336469e-002
2.750109e+003;2.324125e-002
2.752038e+003;2.317767e-002
2.753967e+003;2.331249e-002
2.755895e+003;2.349933e-002
2.757824e+003;2.332707e-002
2.759752e+003;2.353760e-002
2.761681e+003;2.429335e-002
2.763609e+003;2.458053e-002
2.765538e+003;2.492615e-002
2.767466e+003;2.537903e-002
2.769395e+003;2.563765e-002
2.771323e+003;2.618935e-002
2.773252e+003;2.699603e-002
2.775181e+003;2.778146e-002
2.777109e+003;2.855431e-002
2.779038e+003;2.940777e-002
2.780966e+003;3.036448e-002
2.782895e+003;3.144772e-002
2.784823e+003;3.274049e-002
2.786752e+003;3.422576e-002
2.788680e+003;3.596280e-002
2.790609e+003;3.781547e-002
2.792538e+003;3.921373e-002
2.794466e+003;4.047850e-002
2.796395e+003;4.158799e-002
2.798323e+003;4.256537e-002
2.800252e+003;4.408212e-002
2.802180e+003;4.604316e-002
2.804109e+003;4.805144e-002
2.806037e+003;5.018482e-002
2.807966e+003;5.212840e-002
2.809895e+003;5.381307e-002
2.811823e+003;5.558413e-002
2.813751e+003;5.750449e-002
2.815680e+003;5.954045e-002
2.817609e+003;6.153897e-002
2.819537e+003;6.384708e-002
2.821466e+003;6.669014e-002
2.823394e+003;7.004514e-002
2.825323e+003;7.431719e-002
2.827251e+003;8.000554e-002
2.829180e+003;8.716819e-002
2.831108e+003;9.556144e-002
2.833037e+003;1.045402e-001
2.834966e+003;1.121914e-001
2.836894e+003;1.161480e-001
2.838823e+003;1.160134e-001
2.840751e+003;1.138770e-001
2.842680e+003;1.106632e-001
2.844608e+003;1.063209e-001
2.846537e+003;1.015993e-001
2.848465e+003;9.800012e-002
2.850394e+003;9.605294e-002
2.852323e+003;9.485123e-002
2.854251e+003;9.407288e-002
2.856180e+003;9.464777e-002
2.858108e+003;9.762410e-002
2.860037e+003;1.027286e-001
2.861965e+003;1.093823e-001
2.863894e+003;1.166422e-001
2.865822e+003;1.226286e-001
2.867751e+003;1.257143e-001
2.869679e+003;1.265466e-001
2.871608e+003;1.264407e-001
2.873536e+003;1.262130e-001
2.875465e+003;1.258988e-001
2.877394e+003;1.252928e-001
2.879322e+003;1.241539e-001
2.881251e+003;1.227559e-001
2.883179e+003;1.218567e-001
2.885108e+003;1.217328e-001
2.887036e+003;1.224447e-001
2.888965e+003;1.237394e-001
2.890893e+003;1.259044e-001
2.892822e+003;1.288321e-001
2.894750e+003;1.326314e-001
2.896679e+003;1.373995e-001
2.898608e+003;1.424555e-001
2.900536e+003;1.477681e-001
2.902465e+003;1.530394e-001
2.904393e+003;1.585944e-001
2.906322e+003;1.646633e-001
2.908250e+003;1.698113e-001
2.910179e+003;1.737572e-001
2.912107e+003;1.774667e-001
2.914036e+003;1.806661e-001
2.915965e+003;1.818761e-001
2.917893e+003;1.815084e-001
2.919822e+003;1.800994e-001
2.921750e+003;1.765873e-001
2.923679e+003;1.708509e-001
2.925607e+003;1.645579e-001
2.927536e+003;1.576187e-001
2.929464e+003;1.492479e-001
2.931393e+003;1.405278e-001
2.933322e+003;1.322481e-001
2.935250e+003;1.251976e-001
2.937178e+003;1.200400e-001
2.939107e+003;1.173477e-001
2.941036e+003;1.181703e-001
2.942964e+003;1.227685e-001
2.944893e+003;1.299885e-001
2.946821e+003;1.384013e-001
2.948750e+003;1.450894e-001
2.950678e+003;1.481870e-001
2.952607e+003;1.482399e-001
2.954535e+003;1.460042e-001
2.956464e+003;1.418806e-001
2.958393e+003;1.367821e-001
2.960321e+003;1.307485e-001
2.962250e+003;1.235444e-001
2.964178e+003;1.166035e-001
2.966107e+003;1.097490e-001
2.968035e+003;1.025587e-001
2.969964e+003;9.515869e-002
2.971892e+003;8.795125e-002
2.973821e+003;8.178288e-002
2.975750e+003;7.677973e-002
2.977678e+003;7.248734e-002
2.979607e+003;6.855644e-002
2.981535e+003;6.476010e-002
2.983464e+003;6.147316e-002
2.985392e+003;5.870315e-002
2.987321e+003;5.643091e-002
2.989249e+003;5.404469e-002
2.991178e+003;5.153963e-002
2.993106e+003;4.941409e-002
2.995035e+003;4.734212e-002
2.996964e+003;4.525768e-002
2.998892e+003;4.323739e-002
3.000821e+003;4.151540e-002
3.002749e+003;3.959915e-002
3.004678e+003;3.796905e-002
3.006606e+003;3.640310e-002
3.008535e+003;3.490265e-002
3.010463e+003;3.338709e-002
3.012392e+003;3.170018e-002
3.014321e+003;3.071438e-002
3.016249e+003;2.985729e-002
3.018177e+003;2.830505e-002
3.020106e+003;2.692256e-002
3.022035e+003;2.590293e-002
3.023963e+003;2.543513e-002
3.025892e+003;2.481303e-002
3.027820e+003;2.388323e-002
3.029749e+003;2.278671e-002
3.031677e+003;2.209106e-002
3.033606e+003;2.157027e-002
3.035534e+003;2.101116e-002
3.037463e+003;2.052168e-002
3.039392e+003;1.995760e-002
3.041320e+003;1.946930e-002
3.043249e+003;1.922448e-002
3.045177e+003;1.903303e-002
3.047106e+003;1.861113e-002
3.049034e+003;1.834823e-002
3.050963e+003;1.847817e-002
3.052891e+003;1.833703e-002
3.054820e+003;1.781458e-002
3.056749e+003;1.750703e-002
3.058677e+003;1.744101e-002
3.060606e+003;1.717833e-002
3.062534e+003;1.686851e-002
3.064463e+003;1.671873e-002
3.066391e+003;1.683948e-002
3.068320e+003;1.669515e-002
3.070248e+003;1.658811e-002
3.072177e+003;1.646768e-002
3.074105e+003;1.645136e-002
3.076034e+003;1.619365e-002
3.077963e+003;1.616308e-002
3.079891e+003;1.633706e-002
3.081820e+003;1.608354e-002
3.083748e+003;1.607979e-002
3.085677e+003;1.612690e-002
3.087605e+003;1.576361e-002
3.089534e+003;1.545432e-002
3.091462e+003;1.536633e-002
3.093391e+003;1.513845e-002
3.095320e+003;1.490326e-002
3.097248e+003;1.507945e-002
3.099177e+003;1.552454e-002
3.101105e+003;1.570695e-002
3.103034e+003;1.567446e-002
3.104962e+003;1.586931e-002
3.106891e+003;1.589460e-002
3.108819e+003;1.575687e-002
3.110748e+003;1.570352e-002
3.112677e+003;1.566906e-002
3.114605e+003;1.558069e-002
3.116533e+003;1.565876e-002
3.118462e+003;1.550974e-002
3.120391e+003;1.523453e-002
3.122319e+003;1.509018e-002
3.124248e+003;1.501197e-002
3.126176e+003;1.543032e-002
3.128105e+003;1.599126e-002
3.130033e+003;1.594623e-002
3.131962e+003;1.626051e-002
3.133890e+003;1.670964e-002
3.135819e+003;1.627820e-002
3.137748e+003;1.589828e-002
3.139676e+003;1.627820e-002
3.141605e+003;1.659654e-002
3.143533e+003;1.709806e-002
3.145462e+003;1.754719e-002
3.147390e+003;1.740900e-002
3.149319e+003;1.726010e-002
3.151247e+003;1.739286e-002
3.153176e+003;1.709216e-002
3.155104e+003;1.675486e-002
3.157033e+003;1.702696e-002
3.158962e+003;1.738379e-002
3.160890e+003;1.755005e-002
3.162819e+003;1.748354e-002
3.164747e+003;1.739341e-002
3.166676e+003;1.763711e-002
3.168604e+003;1.765591e-002
3.170533e+003;1.770112e-002
3.172461e+003;1.757417e-002
3.174390e+003;1.762209e-002
3.176319e+003;1.801951e-002
3.178247e+003;1.814622e-002
3.180176e+003;1.849888e-002
3.182104e+003;1.843900e-002
3.184033e+003;1.832051e-002
3.185961e+003;1.844599e-002
3.187890e+003;1.844578e-002
3.189818e+003;1.854269e-002
3.191747e+003;1.894784e-002
3.193676e+003;1.895989e-002
3.195604e+003;1.867882e-002
3.197532e+003;1.857641e-002
3.199461e+003;1.873510e-002
3.201390e+003;1.917665e-002
3.203318e+003;1.927335e-002
3.205247e+003;1.916865e-002
3.207175e+003;1.898699e-002
3.209104e+003;1.886295e-002
3.211032e+003;1.909040e-002
3.212961e+003;1.908586e-002
3.214889e+003;1.888202e-002
3.216818e+003;1.884066e-002
3.218747e+003;1.880357e-002
3.220675e+003;1.846037e-002
3.222604e+003;1.812338e-002
3.224532e+003;1.808217e-002
3.226461e+003;1.806966e-002
3.228389e+003;1.758518e-002
3.230318e+003;1.712404e-002
3.232246e+003;1.698472e-002
3.234175e+003;1.675004e-002
3.236104e+003;1.669563e-002
3.238032e+003;1.702693e-002
3.239961e+003;1.717354e-002
3.241889e+003;1.689938e-002
3.243818e+003;1.643467e-002
3.245746e+003;1.635942e-002
3.247675e+003;1.650058e-002
3.249603e+003;1.656604e-002
3.251532e+003;1.675362e-002
3.253460e+003;1.672049e-002
3.255389e+003;1.647793e-002
3.257318e+003;1.626120e-002
3.259246e+003;1.608302e-002
3.261175e+003;1.620417e-002
3.263103e+003;1.645050e-002
3.265032e+003;1.678082e-002
3.266960e+003;1.680548e-002
3.268889e+003;1.645941e-002
3.270817e+003;1.666846e-002
3.272746e+003;1.668533e-002
3.274675e+003;1.650977e-002
3.276603e+003;1.683875e-002
3.278531e+003;1.729789e-002
3.280460e+003;1.707131e-002
3.282389e+003;1.677982e-002
3.284317e+003;1.701673e-002
3.286246e+003;1.736407e-002
3.288174e+003;1.726655e-002
3.290103e+003;1.694637e-002
3.292031e+003;1.651066e-002
3.293960e+003;1.613281e-002
3.295888e+003;1.647446e-002
3.297817e+003;1.684227e-002
3.299746e+003;1.660518e-002
3.301674e+003;1.642425e-002
3.303603e+003;1.668791e-002
3.305531e+003;1.712697e-002
3.307460e+003;1.724359e-002
3.309388e+003;1.714235e-002
3.311317e+003;1.674129e-002
3.313245e+003;1.631999e-002
3.315174e+003;1.634731e-002
3.317103e+003;1.696970e-002
3.319031e+003;1.697438e-002
3.320960e+003;1.644634e-002
3.322888e+003;1.620156e-002
3.324817e+003;1.650564e-002
3.326745e+003;1.677958e-002
3.328674e+003;1.700122e-002
3.330602e+003;1.704657e-002
3.332531e+003;1.701704e-002
3.334459e+003;1.694926e-002
3.336388e+003;1.650753e-002
3.338317e+003;1.632543e-002
3.340245e+003;1.661076e-002
3.342174e+003;1.708961e-002
3.344102e+003;1.723152e-002
3.346031e+003;1.703234e-002
3.347959e+003;1.664684e-002
3.349888e+003;1.640384e-002
3.351816e+003;1.654033e-002
3.353745e+003;1.673326e-002
3.355674e+003;1.665569e-002
3.357602e+003;1.661179e-002
3.359531e+003;1.676391e-002
3.361459e+003;1.629443e-002
3.363388e+003;1.596648e-002
3.365316e+003;1.642531e-002
3.367245e+003;1.666578e-002
3.369173e+003;1.648832e-002
3.371102e+003;1.606514e-002
3.373031e+003;1.567827e-002
3.374959e+003;1.535572e-002
3.376887e+003;1.500083e-002
3.378816e+003;1.525667e-002
3.380745e+003;1.570551e-002
3.382673e+003;1.514614e-002
3.384602e+003;1.496190e-002
3.386530e+003;1.541497e-002
3.388459e+003;1.544625e-002
3.390387e+003;1.518388e-002
3.392316e+003;1.502796e-002
3.394244e+003;1.495754e-002
3.396173e+003;1.466322e-002
3.398102e+003;1.462682e-002
3.400030e+003;1.476125e-002
3.401959e+003;1.469345e-002
3.403887e+003;1.463604e-002
3.405816e+003;1.462919e-002
3.407744e+003;1.482645e-002
3.409673e+003;1.474692e-002
3.411601e+003;1.438095e-002
3.413530e+003;1.443338e-002
3.415458e+003;1.453530e-002
3.417387e+003;1.426294e-002
3.419316e+003;1.372522e-002
3.421244e+003;1.386330e-002
3.423173e+003;1.404933e-002
3.425101e+003;1.380217e-002
3.427030e+003;1.394424e-002
3.428958e+003;1.390432e-002
3.430887e+003;1.352128e-002
3.432815e+003;1.266784e-002
3.434744e+003;1.203381e-002
3.436673e+003;1.245754e-002
3.438601e+003;1.261811e-002
3.440530e+003;1.253161e-002
3.442458e+003;1.226568e-002
3.444387e+003;1.209921e-002
3.446315e+003;1.181094e-002
3.448244e+003;1.180941e-002
3.450172e+003;1.200989e-002
3.452101e+003;1.167644e-002
3.454030e+003;1.133223e-002
3.455958e+003;1.132957e-002
3.457886e+003;1.134107e-002
3.459815e+003;1.163298e-002
3.461744e+003;1.136814e-002
3.463672e+003;1.092222e-002
3.465601e+003;1.070560e-002
3.467529e+003;1.050348e-002
3.469458e+003;1.035672e-002
3.471386e+003;1.024812e-002
3.473315e+003;1.006533e-002
3.475243e+003;9.727100e-003
3.477172e+003;9.605980e-003
3.479101e+003;9.669331e-003
3.481029e+003;9.716901e-003
3.482958e+003;9.475614e-003
3.484886e+003;9.166571e-003
3.486815e+003;8.899886e-003
3.488743e+003;8.700461e-003
3.490672e+003;8.713645e-003
3.492600e+003;8.918115e-003
3.494529e+003;8.415278e-003
3.496458e+003;8.226239e-003
3.498386e+003;8.199159e-003
3.500315e+003;7.782996e-003
3.502243e+003;7.238108e-003
3.504172e+003;7.017691e-003
3.506100e+003;7.659280e-003
3.508029e+003;8.101790e-003
3.509957e+003;7.896792e-003
3.511886e+003;7.569449e-003
3.513814e+003;7.258154e-003
3.515743e+003;6.940147e-003
3.517672e+003;7.164533e-003
3.519600e+003;7.492009e-003
3.521529e+003;7.052039e-003
3.523457e+003;6.319017e-003
3.525386e+003;6.359631e-003
3.527314e+003;6.777226e-003
3.529243e+003;6.836765e-003
3.531171e+003;6.440266e-003
3.533100e+003;6.035594e-003
3.535029e+003;5.857530e-003
3.536957e+003;6.115027e-003
3.538885e+003;6.067917e-003
3.540814e+003;5.637106e-003
3.542743e+003;5.519941e-003
3.544671e+003;5.153174e-003
3.546600e+003;5.199849e-003
3.548528e+003;5.491350e-003
3.550457e+003;5.270610e-003
3.552385e+003;4.722399e-003
3.554314e+003;4.416015e-003
3.556242e+003;4.468035e-003
3.558171e+003;4.496692e-003
3.560100e+003;4.167552e-003
3.562028e+003;3.706139e-003
3.563957e+003;2.967160e-003
3.565885e+003;1.837253e-003
3.567814e+003;1.675370e-003
3.569742e+003;2.516085e-003
3.571671e+003;2.752501e-003
3.573599e+003;2.434642e-003
3.575528e+003;2.612109e-003
3.577457e+003;2.607109e-003
3.579385e+003;2.541180e-003
3.581314e+003;2.340989e-003
3.583242e+003;1.585305e-003
3.585171e+003;8.685822e-004
3.587099e+003;2.062089e-004
3.589028e+003;5.970881e-004
3.590956e+003;1.293356e-003
3.592885e+003;8.306027e-004
3.594813e+003;6.454003e-004
3.596742e+003;8.857471e-004
3.598671e+003;8.874405e-004
3.600599e+003;1.150113e-003
3.602528e+003;1.235967e-003
3.604456e+003;7.003553e-004
3.606385e+003;-2.717135e-004
3.608313e+003;-9.663717e-004
3.610242e+003;-8.436342e-004
3.612170e+003;-6.654841e-004
3.614099e+003;-2.395525e-005
3.616028e+003;2.168170e-004
3.617956e+003;-9.280200e-004
3.619885e+003;-1.284825e-003
3.621813e+003;-4.610804e-004
3.623742e+003;3.180984e-005
3.625670e+003;-8.374832e-004
3.627599e+003;-3.646588e-003
3.629527e+003;-4.230820e-003
3.631456e+003;-1.864190e-003
3.633385e+003;-9.639583e-004
3.635313e+003;-8.174753e-004
3.637241e+003;-7.206966e-004
3.639170e+003;-4.836532e-004
3.641099e+003;-1.051878e-004
3.643027e+003;-3.316114e-004
3.644956e+003;-1.654639e-003
3.646884e+003;-3.341404e-003
3.648813e+003;-4.405644e-003
3.650741e+003;-3.388486e-003
3.652670e+003;-1.705337e-003
3.654598e+003;-2.407428e-003
3.656527e+003;-2.702337e-003
3.658456e+003;-1.927530e-003
3.660384e+003;-1.320403e-003
3.662313e+003;-5.666199e-004
3.664241e+003;-6.993270e-004
3.666170e+003;-1.643714e-003
3.668098e+003;-3.252981e-003
3.670027e+003;-4.164795e-003
3.671955e+003;-2.832747e-003
3.673884e+003;-3.656544e-003
3.675813e+003;-4.350111e-003
3.677741e+003;-1.986178e-003
3.679669e+003;-7.723300e-004
3.681598e+003;-5.331968e-004
3.683527e+003;-3.360810e-004
3.685455e+003;-7.425613e-004
3.687384e+003;-2.698583e-003
3.689312e+003;-2.912074e-003
3.691241e+003;-1.581652e-003
3.693169e+003;-4.143422e-004
3.695098e+003;1.330867e-004
3.697026e+003;2.939321e-004
3.698955e+003;1.871482e-004
3.700884e+003;-6.852343e-004
3.702812e+003;-4.721684e-004
3.704741e+003;1.898622e-005
3.706669e+003;-6.349802e-004
3.708598e+003;-1.584492e-003
3.710526e+003;-2.637529e-003
3.712455e+003;-2.477904e-003
3.714383e+003;-1.233484e-003
3.716312e+003;-1.268108e-003
3.718240e+003;-1.001216e-003
3.720169e+003;-7.390220e-004
3.722098e+003;-8.989563e-004
3.724026e+003;-1.106162e-003
3.725955e+003;-1.400304e-003
3.727883e+003;-1.357664e-003
3.729812e+003;-1.747151e-003
3.731740e+003;-3.047850e-003
3.733669e+003;-3.465739e-003
3.735597e+003;-3.722547e-003
3.737526e+003;-2.990037e-003
3.739455e+003;-1.621102e-003
3.741383e+003;-2.367127e-003
3.743312e+003;-6.198080e-003
3.745240e+003;-5.982931e-003
3.747169e+003;-4.224028e-003
3.749097e+003;-5.903673e-003
3.751026e+003;-6.174888e-003
3.752954e+003;-3.669029e-003
3.754883e+003;-1.096544e-003
3.756812e+003;-1.087918e-003
3.758740e+003;-1.480619e-003
3.760668e+003;-1.002968e-003
3.762597e+003;2.047732e-005
3.764526e+003;1.742885e-005
3.766454e+003;-2.033622e-004
3.768383e+003;-1.094726e-003
3.770311e+003;-1.451130e-003
3.772240e+003;-7.795403e-004
3.774168e+003;-2.963491e-004
3.776097e+003;-5.177751e-004
3.778025e+003;-6.163195e-004
3.779954e+003;-7.344903e-004
3.781883e+003;-6.093050e-004
3.783811e+003;-6.616133e-004
3.785740e+003;-3.405175e-004
3.787668e+003;3.243944e-005
3.789597e+003;9.012552e-006
3.791525e+003;-2.063760e-004
3.793454e+003;-6.284292e-004
3.795382e+003;-1.060088e-003
3.797311e+003;-1.032355e-003
3.799240e+003;-2.501196e-003
3.801168e+003;-3.949326e-003
3.803097e+003;-2.300489e-003
3.805025e+003;-1.908166e-003
3.806954e+003;-2.231567e-003
3.808882e+003;-6.184371e-004
3.810811e+003;-2.775745e-004
3.812739e+003;-1.212139e-003
3.814668e+003;-2.939424e-003
3.816596e+003;-2.797161e-003
3.818525e+003;-2.204238e-003
3.820454e+003;-3.168157e-003
3.822382e+003;-1.639686e-003
3.824311e+003;2.974136e-004
3.826239e+003;4.512217e-004
3.828168e+003;-2.445223e-005
3.830096e+003;-6.753428e-004
3.832025e+003;-9.131412e-004
3.833953e+003;-1.127214e-003
3.835882e+003;-2.813588e-003
3.837811e+003;-4.103881e-003
3.839739e+003;-2.929287e-003
3.841667e+003;-1.957580e-003
3.843596e+003;-1.430028e-003
3.845525e+003;-8.790174e-004
3.847453e+003;-2.290946e-004
3.849382e+003;-6.672044e-004
3.851310e+003;-4.248637e-003
3.853239e+003;-7.194673e-003
3.855167e+003;-4.058847e-003
3.857096e+003;-1.986925e-004
3.859024e+003;2.594473e-005
3.860953e+003;-6.922145e-004
3.862882e+003;-8.220722e-004
3.864810e+003;-1.198063e-003
3.866739e+003;-7.699816e-004
3.868667e+003;-1.630279e-003
3.870596e+003;-1.879069e-003
3.872524e+003;-5.636748e-004
3.874453e+003;4.745054e-005
3.876381e+003;2.354812e-004
3.878310e+003;-6.564522e-004
3.880239e+003;-1.093636e-003
3.882167e+003;-4.825941e-004
3.884096e+003;-7.389889e-004
3.886024e+003;-5.039744e-004
3.887953e+003;3.535515e-004
3.889881e+003;-5.875659e-004
3.891810e+003;-8.301415e-004
3.893738e+003;2.139329e-004
3.895667e+003;8.237973e-004
3.897595e+003;4.283029e-004
3.899524e+003;-3.153878e-004
3.901453e+003;-9.568172e-004
3.903381e+003;-1.242669e-003
3.905310e+003;1.027167e-005
3.907238e+003;1.079290e-003
3.909167e+003;1.204933e-003
3.911095e+003;1.273251e-003
3.913024e+003;1.119882e-003
3.914952e+003;6.265194e-004
3.916881e+003;-3.698503e-004
3.918810e+003;-3.782260e-004
3.920738e+003;7.905684e-004
3.922667e+003;1.380103e-003
3.924595e+003;1.109252e-003
3.926524e+003;1.409920e-003
3.928452e+003;1.767615e-003
3.930381e+003;1.371959e-003
3.932309e+003;1.374319e-003
3.934238e+003;1.920381e-003
3.936167e+003;2.082955e-003
3.938095e+003;1.990044e-003
3.940023e+003;1.300402e-003
3.941952e+003;8.254903e-004
3.943881e+003;1.493896e-003
3.945809e+003;1.687976e-003
3.947738e+003;1.138153e-003
3.949666e+003;8.661586e-004
3.951595e+003;1.549225e-003
3.953523e+003;2.185944e-003
3.955452e+003;1.729657e-003
3.957380e+003;1.302529e-003
3.959309e+003;1.414175e-003
3.961238e+003;1.986615e-003
3.963166e+003;1.895055e-003
3.965095e+003;1.237828e-003
3.967023e+003;9.219385e-004
3.968952e+003;1.289435e-003
3.970880e+003;1.494661e-003
3.972809e+003;1.946008e-003
3.974737e+003;2.786747e-003
3.976666e+003;2.739730e-003
3.978594e+003;2.086784e-003
3.980523e+003;2.358578e-003
3.982452e+003;2.595042e-003
3.984380e+003;2.371338e-003
3.986309e+003;2.506653e-003
3.988237e+003;2.694518e-003
3.990166e+003;2.565377e-003
3.992094e+003;2.840740e-003
3.994023e+003;3.064553e-003
3.995951e+003;2.993817e-003
3.997880e+003;2.972164e-003
3.999809e+003;2.688150e-003
4.001737e+003;0.000000e+000
