3.992094e+002;0.000000e+000
4.011380e+002;0.000000e+000
4.030665e+002;0.000000e+000
4.049951e+002;0.000000e+000
4.069236e+002;0.000000e+000
4.088522e+002;0.000000e+000
4.107807e+002;0.000000e+000
4.127093e+002;0.000000e+000
4.146378e+002;0.000000e+000
4.165664e+002;0.000000e+000
4.184949e+002;0.000000e+000
4.204235e+002;0.000000e+000
4.223520e+002;0.000000e+000
4.242806e+002;0.000000e+000
4.262091e+002;0.000000e+000
4.281377e+002;0.000000e+000
4.300662e+002;0.000000e+000
4.319948e+002;0.000000e+000
4.339233e+002;0.000000e+000
4.358519e+002;0.000000e+000
4.377804e+002;0.000000e+000
4.397090e+002;0.000000e+000
4.416375e+002;0.000000e+000
4.435660e+002;0.000000e+000
4.454946e+002;0.000000e+000
4.474232e+002;0.000000e+000
4.493517e+002;0.000000e+000
4.512802e+002;0.000000e+000
4.532088e+002;0.000000e+000
4.551373e+002;0.000000e+000
4.570659e+002;0.000000e+000
4.589944e+002;0.000000e+000
4.609230e+002;0.000000e+000
4.628515e+002;0.000000e+000
4.647801e+002;0.000000e+000
4.667086e+002;0.000000e+000
4.686372e+002;0.000000e+000
4.705657e+002;0.000000e+000
4.724943e+002;0.000000e+000
4.744228e+002;0.000000e+000
4.763513e+002;0.000000e+000
4.782799e+002;0.000000e+000
4.802085e+002;0.000000e+000
4.821370e+002;0.000000e+000
4.840656e+002;0.000000e+000
4.859941e+002;0.000000e+000
4.879226e+002;0.000000e+000
4.898512e+002;0.000000e+000
4.917798e+002;0.000000e+000
4.937083e+002;0.000000e+000
4.956368e+002;0.000000e+000
4.975654e+002;0.000000e+000
4.994939e+002;0.000000e+000
5.014225e+002;0.000000e+000
5.033510e+002;0.000000e+000
5.052796e+002;0.000000e+000
5.072081e+002;0.000000e+000
5.091367e+002;0.000000e+000
5.110652e+002;0.000000e+000
5.129938e+002;0.000000e+000
5.149223e+002;0.000000e+000
5.168509e+002;0.000000e+000
5.187794e+002;0.000000e+000
5.207079e+002;0.000000e+000
5.226365e+002;0.000000e+000
5.245651e+002;0.000000e+000
5.264936e+002;0.000000e+000
5.284222e+002;0.000000e+000
5.303507e+002;0.000000e+000
5.322792e+002;0.000000e+000
5.342078e+002;0.000000e+000
5.361364e+002;0.000000e+000
5.380649e+002;0.000000e+000
5.399935e+002;0.000000e+000
5.419220e+002;0.000000e+000
5.438505e+002;0.000000e+000
5.457791e+002;0.000000e+000
5.477076e+002;0.000000e+000
5.496362e+002;0.000000e+000
5.515648e+002;0.000000e+000
5.534933e+002;0.000000e+000
5.554218e+002;0.000000e+000
5.573504e+002;0.000000e+000
5.592789e+002;0.000000e+000
5.612075e+002;0.000000e+000
5.631360e+002;0.000000e+000
5.650646e+002;0.000000e+000
5.669931e+002;0.000000e+000
5.689217e+002;0.000000e+000
5.708502e+002;0.000000e+000
5.727787e+002;0.000000e+000
5.747073e+002;0.000000e+000
5.766359e+002;0.000000e+000
5.785644e+002;0.000000e+000
5.804930e+002;0.000000e+000
5.824215e+002;0.000000e+000
5.843500e+002;0.000000e+000
5.862786e+002;0.000000e+000
5.882072e+002;0.000000e+000
5.901357e+002;0.000000e+000
5.920643e+002;0.000000e+000
5.939928e+002;0.000000e+000
5.959213e+002;0.000000e+000
5.978499e+002;0.000000e+000
5.997784e+002;4.725109e-002
6.017070e+002;4.231244e-002
6.036355e+002;4.185309e-002
6.055641e+002;4.271286e-002
6.074926e+002;4.614706e-002
6.094211e+002;4.525168e-002
6.113497e+002;4.370788e-002
6.132783e+002;4.436214e-002
6.152068e+002;4.518693e-002
6.171354e+002;4.791364e-002
6.190639e+002;5.042958e-002
6.209924e+002;4.858380e-002
6.229210e+002;4.643805e-002
6.248495e+002;4.511476e-002
6.267781e+002;4.322564e-002
6.287067e+002;4.260240e-002
6.306352e+002;4.676896e-002
6.325637e+002;4.837478e-002
6.344923e+002;4.429968e-002
6.364208e+002;4.161607e-002
6.383494e+002;4.089267e-002
6.402780e+002;4.306565e-002
6.422065e+002;4.480839e-002
6.441350e+002;4.387390e-002
6.460636e+002;4.206045e-002
6.479921e+002;3.982294e-002
6.499207e+002;4.222665e-002
6.518492e+002;4.447437e-002
6.537778e+002;4.562449e-002
6.557063e+002;4.597689e-002
6.576349e+002;4.422238e-002
6.595634e+002;4.507995e-002
6.614919e+002;4.792507e-002
6.634205e+002;4.920192e-002
6.653491e+002;4.765254e-002
6.672776e+002;4.548249e-002
6.692062e+002;4.398029e-002
6.711347e+002;4.483231e-002
6.730632e+002;4.557875e-002
6.749918e+002;4.604910e-002
6.769203e+002;4.592979e-002
6.788489e+002;4.512380e-002
6.807775e+002;4.578948e-002
6.827060e+002;4.589675e-002
6.846345e+002;4.530743e-002
6.865631e+002;4.531979e-002
6.884916e+002;4.449284e-002
6.904202e+002;4.423020e-002
6.923488e+002;4.404174e-002
6.942773e+002;4.433399e-002
6.962058e+002;4.554335e-002
6.981344e+002;4.669834e-002
7.000629e+002;4.761619e-002
7.019915e+002;4.812973e-002
7.039200e+002;4.802047e-002
7.058486e+002;4.748281e-002
7.077771e+002;4.841404e-002
7.097057e+002;4.861133e-002
7.116342e+002;4.888331e-002
7.135627e+002;4.996730e-002
7.154913e+002;5.049345e-002
7.174199e+002;5.089116e-002
7.193484e+002;5.088073e-002
7.212770e+002;5.067500e-002
7.232055e+002;5.086237e-002
7.251340e+002;5.070118e-002
7.270626e+002;5.082929e-002
7.289911e+002;5.175881e-002
7.309197e+002;5.168431e-002
7.328483e+002;5.030170e-002
7.347768e+002;4.965370e-002
7.367053e+002;4.983843e-002
7.386339e+002;4.993139e-002
7.405624e+002;4.981662e-002
7.424910e+002;4.981134e-002
7.444196e+002;4.954584e-002
7.463481e+002;4.936375e-002
7.482766e+002;4.931081e-002
7.502052e+002;4.958509e-002
7.521337e+002;5.090186e-002
7.540623e+002;5.104147e-002
7.559908e+002;4.979265e-002
7.579194e+002;4.935525e-002
7.598479e+002;4.956827e-002
7.617765e+002;5.038690e-002
7.637050e+002;5.141728e-002
7.656335e+002;5.222547e-002
7.675621e+002;5.200797e-002
7.694907e+002;5.177187e-002
7.714192e+002;5.179976e-002
7.733478e+002;5.195269e-002
7.752763e+002;5.128075e-002
7.772048e+002;5.049192e-002
7.791334e+002;5.113468e-002
7.810620e+002;5.191259e-002
7.829905e+002;5.286411e-002
7.849191e+002;5.403125e-002
7.868476e+002;5.420408e-002
7.887761e+002;5.401230e-002
7.907047e+002;5.487241e-002
7.926332e+002;5.587540e-002
7.945618e+002;5.679826e-002
7.964903e+002;5.831603e-002
7.984189e+002;5.993586e-002
8.003474e+002;6.131763e-002
8.022759e+002;6.274773e-002
8.042045e+002;6.462542e-002
8.061331e+002;6.664931e-002
8.080616e+002;6.900322e-002
8.099902e+002;7.024690e-002
8.119187e+002;6.985395e-002
8.138472e+002;6.717979e-002
8.157758e+002;6.369818e-002
8.177043e+002;6.127914e-002
8.196329e+002;5.951583e-002
8.215615e+002;5.892194e-002
8.234900e+002;5.900654e-002
8.254185e+002;5.889739e-002
8.273471e+002;5.864615e-002
8.292756e+002;5.811166e-002
8.312042e+002;5.797135e-002
8.331328e+002;5.816329e-002
8.350613e+002;5.995998e-002
8.369898e+002;6.337283e-002
8.389184e+002;6.780491e-002
8.408469e+002;7.232598e-002
8.427755e+002;7.275331e-002
8.447040e+002;6.877882e-002
8.466326e+002;6.358574e-002
8.485611e+002;6.012769e-002
8.504897e+002;5.818341e-002
8.524182e+002;5.674283e-002
8.543467e+002;5.576425e-002
8.562753e+002;5.468168e-002
8.582039e+002;5.338909e-002
8.601324e+002;5.264771e-002
8.620610e+002;5.305546e-002
8.639895e+002;5.349956e-002
8.659180e+002;5.331008e-002
8.678466e+002;5.286751e-002
8.697751e+002;5.304467e-002
8.717037e+002;5.396454e-002
8.736323e+002;5.475490e-002
8.755608e+002;5.444308e-002
8.774893e+002;5.356669e-002
8.794179e+002;5.283612e-002
8.813464e+002;5.260817e-002
8.832750e+002;5.286201e-002
8.852036e+002;5.277505e-002
8.871321e+002;5.261472e-002
8.890606e+002;5.333222e-002
8.909892e+002;5.465718e-002
8.929177e+002;5.681378e-002
8.948463e+002;6.044818e-002
8.967748e+002;6.466798e-002
8.987034e+002;6.723356e-002
9.006319e+002;6.712263e-002
9.025605e+002;6.413165e-002
9.044890e+002;5.920753e-002
9.064175e+002;5.444425e-002
9.083461e+002;5.183007e-002
9.102747e+002;5.075372e-002
9.122032e+002;4.944791e-002
9.141318e+002;4.879466e-002
9.160603e+002;4.898990e-002
9.179888e+002;4.869424e-002
9.199174e+002;4.804264e-002
9.218459e+002;4.775812e-002
9.237745e+002;4.770058e-002
9.257031e+002;4.791231e-002
9.276316e+002;4.818981e-002
9.295601e+002;4.838619e-002
9.314887e+002;4.886207e-002
9.334172e+002;4.928457e-002
9.353458e+002;5.010813e-002
9.372744e+002;5.111198e-002
9.392029e+002;5.228522e-002
9.411314e+002;5.367702e-002
9.430600e+002;5.460259e-002
9.449885e+002;5.497957e-002
9.469171e+002;5.525948e-002
9.488456e+002;5.513107e-002
9.507742e+002;5.523484e-002
9.527027e+002;5.637325e-002
9.546313e+002;5.741844e-002
9.565598e+002;5.811560e-002
9.584883e+002;5.920316e-002
9.604169e+002;6.070067e-002
9.623455e+002;6.276342e-002
9.642740e+002;6.582893e-002
9.662026e+002;7.002318e-002
9.681311e+002;7.583456e-002
9.700596e+002;8.284638e-002
9.719882e+002;8.906227e-002
9.739167e+002;9.160638e-002
9.758453e+002;8.846857e-002
9.777739e+002;8.104081e-002
9.797024e+002;7.280067e-002
9.816309e+002;6.584447e-002
9.835595e+002;6.119017e-002
9.854880e+002;5.890745e-002
9.874166e+002;5.893822e-002
9.893452e+002;6.071031e-002
9.912737e+002;6.377581e-002
9.932022e+002;6.850142e-002
9.951307e+002;7.450455e-002
9.970593e+002;7.926136e-002
9.989879e+002;7.994225e-002
1.000916e+003;7.624182e-002
1.002845e+003;7.079525e-002
1.004773e+003;6.590238e-002
1.006702e+003;6.301580e-002
1.008631e+003;6.120718e-002
1.010559e+003;6.000163e-002
1.012488e+003;5.894798e-002
1.014416e+003;5.791887e-002
1.016345e+003;5.726754e-002
1.018273e+003;5.729060e-002
1.020202e+003;5.801656e-002
1.022130e+003;5.833444e-002
1.024059e+003;5.779584e-002
1.025988e+003;5.735359e-002
1.027916e+003;5.795143e-002
1.029845e+003;5.917028e-002
1.031773e+003;6.010851e-002
1.033702e+003;6.042736e-002
1.035630e+003;6.148232e-002
1.037559e+003;6.306756e-002
1.039487e+003;6.407028e-002
1.041416e+003;6.401303e-002
1.043344e+003;6.395245e-002
1.045273e+003;6.379665e-002
1.047202e+003;6.291020e-002
1.049130e+003;6.174094e-002
1.051059e+003;6.107849e-002
1.052987e+003;6.081576e-002
1.054916e+003;6.092749e-002
1.056844e+003;6.106929e-002
1.058773e+003;6.046243e-002
1.060701e+003;5.953753e-002
1.062630e+003;5.936176e-002
1.064558e+003;5.946412e-002
1.066487e+003;5.956242e-002
1.068416e+003;5.955136e-002
1.070344e+003;5.953270e-002
1.072273e+003;6.052196e-002
1.074201e+003;6.084160e-002
1.076130e+003;5.983876e-002
1.078058e+003;5.935732e-002
1.079987e+003;5.941575e-002
1.081915e+003;5.954653e-002
1.083844e+003;5.965353e-002
1.085773e+003;6.001807e-002
1.087701e+003;6.087530e-002
1.089630e+003;6.127711e-002
1.091558e+003;6.102136e-002
1.093487e+003;6.099040e-002
1.095415e+003;6.186197e-002
1.097344e+003;6.364029e-002
1.099272e+003;6.556863e-002
1.101201e+003;6.629723e-002
1.103129e+003;6.590273e-002
1.105058e+003;6.539118e-002
1.106987e+003;6.438679e-002
1.108915e+003;6.295604e-002
1.110844e+003;6.151278e-002
1.112772e+003;6.017176e-002
1.114701e+003;5.917157e-002
1.116629e+003;5.870914e-002
1.118558e+003;5.787018e-002
1.120486e+003;5.720581e-002
1.122415e+003;5.699026e-002
1.124344e+003;5.663908e-002
1.126272e+003;5.630901e-002
1.128201e+003;5.632399e-002
1.130129e+003;5.686870e-002
1.132058e+003;5.739500e-002
1.133986e+003;5.790035e-002
1.135915e+003;5.904480e-002
1.137843e+003;6.082483e-002
1.139772e+003;6.316347e-002
1.141700e+003;6.608549e-002
1.143629e+003;6.918603e-002
1.145557e+003;7.211144e-002
1.147486e+003;7.525212e-002
1.149415e+003;7.863697e-002
1.151343e+003;8.132318e-002
1.153272e+003;8.286451e-002
1.155200e+003;8.339499e-002
1.157129e+003;8.301836e-002
1.159057e+003;8.309314e-002
1.160986e+003;8.393030e-002
1.162914e+003;8.467963e-002
1.164843e+003;8.528483e-002
1.166771e+003;8.513018e-002
1.168700e+003;8.381385e-002
1.170629e+003;8.058655e-002
1.172557e+003;7.637102e-002
1.174486e+003;7.199887e-002
1.176414e+003;6.767533e-002
1.178343e+003;6.419533e-002
1.180271e+003;6.219514e-002
1.182200e+003;6.090080e-002
1.184128e+003;5.949155e-002
1.186057e+003;5.860432e-002
1.187986e+003;5.846816e-002
1.189914e+003;5.862161e-002
1.191843e+003;5.881965e-002
1.193771e+003;5.860697e-002
1.195700e+003;5.813947e-002
1.197628e+003;5.826248e-002
1.199557e+003;5.864926e-002
1.201485e+003;5.852450e-002
1.203414e+003;5.839129e-002
1.205343e+003;5.868832e-002
1.207271e+003;5.890035e-002
1.209200e+003;5.934383e-002
1.211128e+003;6.034789e-002
1.213057e+003;6.124930e-002
1.214985e+003;6.186013e-002
1.216914e+003;6.243984e-002
1.218842e+003;6.260943e-002
1.220771e+003;6.236811e-002
1.222699e+003;6.165474e-002
1.224628e+003;6.082010e-002
1.226557e+003;6.025454e-002
1.228485e+003;5.991472e-002
1.230414e+003;5.962445e-002
1.232342e+003;5.970816e-002
1.234271e+003;5.997014e-002
1.236199e+003;5.972693e-002
1.238128e+003;5.955782e-002
1.240056e+003;6.002598e-002
1.241985e+003;6.023509e-002
1.243913e+003;6.037934e-002
1.245842e+003;6.099756e-002
1.247771e+003;6.183083e-002
1.249699e+003;6.323697e-002
1.251628e+003;6.542223e-002
1.253556e+003;6.760119e-002
1.255485e+003;6.872413e-002
1.257413e+003;6.872669e-002
1.259342e+003;6.758888e-002
1.261270e+003;6.556273e-002
1.263199e+003;6.334721e-002
1.265127e+003;6.188309e-002
1.267056e+003;6.108993e-002
1.268985e+003;6.057288e-002
1.270913e+003;6.015265e-002
1.272842e+003;5.969800e-002
1.274770e+003;5.947832e-002
1.276699e+003;5.931178e-002
1.278627e+003;5.897253e-002
1.280556e+003;5.896122e-002
1.282484e+003;5.916287e-002
1.284413e+003;5.962061e-002
1.286342e+003;6.052927e-002
1.288270e+003;6.128741e-002
1.290199e+003;6.209164e-002
1.292127e+003;6.309982e-002
1.294056e+003;6.382301e-002
1.295984e+003;6.408342e-002
1.297913e+003;6.383994e-002
1.299841e+003;6.364643e-002
1.301770e+003;6.408465e-002
1.303698e+003;6.433064e-002
1.305627e+003;6.315787e-002
1.307556e+003;6.083741e-002
1.309484e+003;5.853227e-002
1.311413e+003;5.764855e-002
1.313341e+003;5.763693e-002
1.315270e+003;5.778838e-002
1.317198e+003;5.843943e-002
1.319127e+003;5.946765e-002
1.321055e+003;6.062965e-002
1.322984e+003;6.180428e-002
1.324912e+003;6.324291e-002
1.326841e+003;6.484230e-002
1.328770e+003;6.587362e-002
1.330698e+003;6.570996e-002
1.332627e+003;6.499220e-002
1.334555e+003;6.419288e-002
1.336484e+003;6.379143e-002
1.338412e+003;6.393659e-002
1.340341e+003;6.454449e-002
1.342269e+003;6.556817e-002
1.344198e+003;6.703783e-002
1.346126e+003;6.890908e-002
1.348055e+003;7.165118e-002
1.349984e+003;7.531245e-002
1.351912e+003;7.956271e-002
1.353841e+003;8.509748e-002
1.355769e+003;9.193472e-002
1.357698e+003;9.790505e-002
1.359626e+003;1.003699e-001
1.361555e+003;9.974962e-002
1.363483e+003;9.913994e-002
1.365412e+003;1.015309e-001
1.367341e+003;1.091964e-001
1.369269e+003;1.242336e-001
1.371198e+003;1.463047e-001
1.373126e+003;1.715720e-001
1.375055e+003;1.913036e-001
1.376983e+003;1.934148e-001
1.378912e+003;1.749652e-001
1.380840e+003;1.477692e-001
1.382769e+003;1.224828e-001
1.384698e+003;1.023615e-001
1.386626e+003;8.773725e-002
1.388555e+003;7.789128e-002
1.390483e+003;7.191163e-002
1.392412e+003;6.794894e-002
1.394340e+003;6.537235e-002
1.396269e+003;6.410976e-002
1.398197e+003;6.316699e-002
1.400126e+003;6.283675e-002
1.402054e+003;6.303331e-002
1.403983e+003;6.330405e-002
1.405911e+003;6.361589e-002
1.407840e+003;6.388201e-002
1.409769e+003;6.397836e-002
1.411697e+003;6.460312e-002
1.413626e+003;6.545324e-002
1.415554e+003;6.577060e-002
1.417483e+003;6.550756e-002
1.419411e+003;6.579462e-002
1.421340e+003;6.725943e-002
1.423268e+003;6.910060e-002
1.425197e+003;7.156256e-002
1.427125e+003;7.527478e-002
1.429054e+003;8.101833e-002
1.430983e+003;8.930961e-002
1.432911e+003;9.877407e-002
1.434840e+003;1.056609e-001
1.436768e+003;1.087219e-001
1.438697e+003;1.103780e-001
1.440625e+003;1.131490e-001
1.442554e+003;1.183773e-001
1.444482e+003;1.261434e-001
1.446411e+003;1.357561e-001
1.448340e+003;1.456655e-001
1.450268e+003;1.537410e-001
1.452197e+003;1.590635e-001
1.454125e+003;1.614703e-001
1.456054e+003;1.612975e-001
1.457982e+003;1.600919e-001
1.459911e+003;1.579478e-001
1.461839e+003;1.531685e-001
1.463768e+003;1.458331e-001
1.465697e+003;1.366195e-001
1.467625e+003;1.263808e-001
1.469554e+003;1.157302e-001
1.471482e+003;1.056492e-001
1.473411e+003;9.646409e-002
1.475339e+003;8.822755e-002
1.477268e+003;8.124706e-002
1.479196e+003;7.559013e-002
1.481125e+003;7.065284e-002
1.483053e+003;6.643339e-002
1.484982e+003;6.282825e-002
1.486911e+003;5.970325e-002
1.488839e+003;5.706586e-002
1.490768e+003;5.502196e-002
1.492696e+003;5.364317e-002
1.494625e+003;5.245407e-002
1.496553e+003;5.116928e-002
1.498482e+003;5.024898e-002
1.500410e+003;4.952236e-002
1.502339e+003;4.858910e-002
1.504267e+003;4.752691e-002
1.506196e+003;4.656601e-002
1.508125e+003;4.618565e-002
1.510053e+003;4.616066e-002
1.511982e+003;4.584939e-002
1.513910e+003;4.539420e-002
1.515839e+003;4.512072e-002
1.517767e+003;4.466273e-002
1.519696e+003;4.408520e-002
1.521624e+003;4.390693e-002
1.523553e+003;4.425819e-002
1.525481e+003;4.448407e-002
1.527410e+003;4.489763e-002
1.529339e+003;4.507282e-002
1.531267e+003;4.516586e-002
1.533196e+003;4.559943e-002
1.535124e+003;4.613096e-002
1.537053e+003;4.638274e-002
1.538981e+003;4.626960e-002
1.540910e+003;4.662400e-002
1.542838e+003;4.749956e-002
1.544767e+003;4.831774e-002
1.546695e+003;4.882554e-002
1.548624e+003;4.915038e-002
1.550553e+003;4.920935e-002
1.552481e+003;4.891532e-002
1.554410e+003;4.852099e-002
1.556338e+003;4.796148e-002
1.558267e+003;4.688296e-002
1.560195e+003;4.678335e-002
1.562124e+003;4.741389e-002
1.564052e+003;4.732243e-002
1.565981e+003;4.715878e-002
1.567910e+003;4.704659e-002
1.569838e+003;4.671443e-002
1.571767e+003;4.687521e-002
1.573695e+003;4.687314e-002
1.575624e+003;4.658818e-002
1.577552e+003;4.689083e-002
1.579481e+003;4.714363e-002
1.581409e+003;4.719442e-002
1.583338e+003;4.745790e-002
1.585266e+003;4.739175e-002
1.587195e+003;4.681550e-002
1.589124e+003;4.630031e-002
1.591052e+003;4.618738e-002
1.592981e+003;4.665325e-002
1.594909e+003;4.684299e-002
1.596838e+003;4.658143e-002
1.598766e+003;4.675457e-002
1.600695e+003;4.707794e-002
1.602623e+003;4.747705e-002
1.604552e+003;4.789632e-002
1.606480e+003;4.831471e-002
1.608409e+003;4.854018e-002
1.610338e+003;4.857220e-002
1.612266e+003;4.868842e-002
1.614195e+003;4.878873e-002
1.616123e+003;4.903545e-002
1.618052e+003;4.971540e-002
1.619980e+003;5.023351e-002
1.621909e+003;5.039929e-002
1.623837e+003;5.051425e-002
1.625766e+003;5.097801e-002
1.627694e+003;5.139662e-002
1.629623e+003;5.169998e-002
1.631552e+003;5.198268e-002
1.633480e+003;5.174802e-002
1.635409e+003;5.118393e-002
1.637337e+003;5.132583e-002
1.639266e+003;5.188148e-002
1.641194e+003;5.245863e-002
1.643123e+003;5.284330e-002
1.645051e+003;5.279376e-002
1.646980e+003;5.293249e-002
1.648909e+003;5.335163e-002
1.650837e+003;5.297725e-002
1.652766e+003;5.244626e-002
1.654694e+003;5.313341e-002
1.656623e+003;5.375318e-002
1.658551e+003;5.387728e-002
1.660480e+003;5.379811e-002
1.662408e+003;5.357164e-002
1.664337e+003;5.341412e-002
1.666266e+003;5.297137e-002
1.668194e+003;5.235142e-002
1.670123e+003;5.193843e-002
1.672051e+003;5.191964e-002
1.673980e+003;5.167975e-002
1.675908e+003;5.122408e-002
1.677837e+003;5.091396e-002
1.679765e+003;5.055438e-002
1.681694e+003;5.012654e-002
1.683622e+003;4.934099e-002
1.685551e+003;4.920122e-002
1.687479e+003;4.936456e-002
1.689408e+003;4.917442e-002
1.691337e+003;4.925570e-002
1.693265e+003;4.935146e-002
1.695194e+003;4.883111e-002
1.697122e+003;4.910861e-002
1.699051e+003;4.938550e-002
1.700979e+003;4.933780e-002
1.702908e+003;5.023027e-002
1.704836e+003;5.084047e-002
1.706765e+003;5.083764e-002
1.708693e+003;5.071864e-002
1.710622e+003;5.090931e-002
1.712551e+003;5.092932e-002
1.714479e+003;5.054053e-002
1.716408e+003;4.992719e-002
1.718336e+003;4.973613e-002
1.720265e+003;4.998373e-002
1.722193e+003;5.000417e-002
1.724122e+003;4.988782e-002
1.726050e+003;4.984077e-002
1.727979e+003;4.988723e-002
1.729908e+003;5.000443e-002
1.731836e+003;5.003020e-002
1.733765e+003;5.037544e-002
1.735693e+003;5.138423e-002
1.737622e+003;5.200684e-002
1.739550e+003;5.196135e-002
1.741479e+003;5.144156e-002
1.743407e+003;5.027923e-002
1.745336e+003;4.870865e-002
1.747265e+003;4.678679e-002
1.749193e+003;4.459652e-002
1.751122e+003;4.234137e-002
1.753050e+003;4.046399e-002
1.754979e+003;3.871856e-002
1.756907e+003;3.682187e-002
1.758836e+003;3.512731e-002
1.760764e+003;3.347813e-002
1.762693e+003;3.224868e-002
1.764621e+003;3.125003e-002
1.766550e+003;3.034885e-002
1.768479e+003;2.992626e-002
1.770407e+003;2.945220e-002
1.772336e+003;2.897624e-002
1.774264e+003;2.877245e-002
1.776193e+003;2.833953e-002
1.778121e+003;2.790847e-002
1.780050e+003;2.750282e-002
1.781978e+003;2.701101e-002
1.783907e+003;2.665214e-002
1.785835e+003;2.621571e-002
1.787764e+003;2.573341e-002
1.789693e+003;2.521730e-002
1.791621e+003;2.471169e-002
1.793550e+003;2.455199e-002
1.795478e+003;2.434013e-002
1.797407e+003;2.374416e-002
1.799335e+003;2.319762e-002
1.801264e+003;2.271664e-002
1.803192e+003;2.233949e-002
1.805121e+003;2.211030e-002
1.807049e+003;2.205132e-002
1.808978e+003;2.192291e-002
1.810907e+003;2.164877e-002
1.812835e+003;2.151003e-002
1.814764e+003;2.131657e-002
1.816692e+003;2.109227e-002
1.818621e+003;2.102434e-002
1.820549e+003;2.081545e-002
1.822478e+003;2.082855e-002
1.824406e+003;2.100953e-002
1.826335e+003;2.089061e-002
1.828264e+003;2.072675e-002
1.830192e+003;2.083119e-002
1.832121e+003;2.075844e-002
1.834049e+003;2.064936e-002
1.835978e+003;2.077036e-002
1.837906e+003;2.065499e-002
1.839835e+003;2.039122e-002
1.841763e+003;2.020364e-002
1.843692e+003;1.999906e-002
1.845620e+003;2.013307e-002
1.847549e+003;2.012450e-002
1.849478e+003;1.997463e-002
1.851406e+003;1.988152e-002
1.853335e+003;1.974662e-002
1.855263e+003;1.983345e-002
1.857192e+003;1.986248e-002
1.859120e+003;1.961771e-002
1.861049e+003;1.958156e-002
1.862977e+003;1.962991e-002
1.864906e+003;1.940894e-002
1.866834e+003;1.909954e-002
1.868763e+003;1.914514e-002
1.870692e+003;1.926670e-002
1.872620e+003;1.903462e-002
1.874549e+003;1.902579e-002
1.876477e+003;1.913305e-002
1.878406e+003;1.928208e-002
1.880334e+003;1.937377e-002
1.882263e+003;1.935655e-002
1.884191e+003;1.935427e-002
1.886120e+003;1.920789e-002
1.888048e+003;1.912942e-002
1.889977e+003;1.931204e-002
1.891906e+003;1.950274e-002
1.893834e+003;1.957268e-002
1.895763e+003;1.947013e-002
1.897691e+003;1.917682e-002
1.899620e+003;1.904535e-002
1.901548e+003;1.903331e-002
1.903477e+003;1.908354e-002
1.905405e+003;1.885838e-002
1.907334e+003;1.860753e-002
1.909262e+003;1.852796e-002
1.911191e+003;1.860439e-002
1.913120e+003;1.892514e-002
1.915048e+003;1.882810e-002
1.916977e+003;1.847178e-002
1.918905e+003;1.860785e-002
1.920834e+003;1.845376e-002
1.922762e+003;1.826912e-002
1.924691e+003;1.847669e-002
1.926619e+003;1.849442e-002
1.928548e+003;1.831553e-002
1.930477e+003;1.814114e-002
1.932405e+003;1.800383e-002
1.934334e+003;1.797917e-002
1.936262e+003;1.801975e-002
1.938191e+003;1.773712e-002
1.940119e+003;1.726924e-002
1.942048e+003;1.716216e-002
1.943976e+003;1.742407e-002
1.945905e+003;1.752625e-002
1.947833e+003;1.773557e-002
1.949762e+003;1.790127e-002
1.951691e+003;1.788397e-002
1.953619e+003;1.762203e-002
1.955548e+003;1.759936e-002
1.957476e+003;1.767917e-002
1.959405e+003;1.756627e-002
1.961333e+003;1.743187e-002
1.963262e+003;1.747674e-002
1.965190e+003;1.767199e-002
1.967119e+003;1.749717e-002
1.969047e+003;1.731213e-002
1.970976e+003;1.723545e-002
1.972905e+003;1.721246e-002
1.974833e+003;1.734089e-002
1.976762e+003;1.735334e-002
1.978690e+003;1.741900e-002
1.980619e+003;1.746446e-002
1.982547e+003;1.745364e-002
1.984476e+003;1.755461e-002
1.986404e+003;1.759604e-002
1.988333e+003;1.744387e-002
1.990261e+003;1.735345e-002
1.992190e+003;1.731617e-002
1.994119e+003;1.733468e-002
1.996047e+003;1.736269e-002
1.997976e+003;1.727159e-002
1.999904e+003;1.734934e-002
2.001833e+003;1.741700e-002
2.003761e+003;1.739566e-002
2.005690e+003;1.740838e-002
2.007618e+003;1.747668e-002
2.009547e+003;1.734241e-002
2.011476e+003;1.731451e-002
2.013404e+003;1.722473e-002
2.015333e+003;1.714428e-002
2.017261e+003;1.719722e-002
2.019190e+003;1.745657e-002
2.021118e+003;1.764711e-002
2.023047e+003;1.748223e-002
2.024975e+003;1.736500e-002
2.026904e+003;1.732917e-002
2.028833e+003;1.705736e-002
2.030761e+003;1.691343e-002
2.032690e+003;1.700343e-002
2.034618e+003;1.698199e-002
2.036547e+003;1.704822e-002
2.038475e+003;1.705456e-002
2.040404e+003;1.707259e-002
2.042332e+003;1.732634e-002
2.044261e+003;1.748213e-002
2.046189e+003;1.743770e-002
2.048118e+003;1.740849e-002
2.050047e+003;1.737483e-002
2.051975e+003;1.732620e-002
2.053904e+003;1.726407e-002
2.055832e+003;1.721584e-002
2.057761e+003;1.719216e-002
2.059689e+003;1.717423e-002
2.061618e+003;1.700708e-002
2.063546e+003;1.690923e-002
2.065475e+003;1.694279e-002
2.067404e+003;1.710278e-002
2.069332e+003;1.712294e-002
2.071260e+003;1.680462e-002
2.073189e+003;1.682308e-002
2.075118e+003;1.723170e-002
2.077046e+003;1.733127e-002
2.078975e+003;1.730675e-002
2.080903e+003;1.732586e-002
2.082832e+003;1.721146e-002
2.084760e+003;1.715348e-002
2.086689e+003;1.743646e-002
2.088617e+003;1.742652e-002
2.090546e+003;1.739162e-002
2.092475e+003;1.741456e-002
2.094403e+003;1.735034e-002
2.096332e+003;1.724335e-002
2.098260e+003;1.717985e-002
2.100189e+003;1.717974e-002
2.102117e+003;1.729500e-002
2.104046e+003;1.752049e-002
2.105974e+003;1.765505e-002
2.107903e+003;1.756913e-002
2.109832e+003;1.749720e-002
2.111760e+003;1.748968e-002
2.113688e+003;1.754098e-002
2.115617e+003;1.751442e-002
2.117546e+003;1.745839e-002
2.119474e+003;1.744201e-002
2.121403e+003;1.771113e-002
2.123331e+003;1.812628e-002
2.125260e+003;1.818881e-002
2.127188e+003;1.831698e-002
2.129117e+003;1.882364e-002
2.131045e+003;1.905733e-002
2.132974e+003;1.892832e-002
2.134903e+003;1.884187e-002
2.136831e+003;1.872403e-002
2.138760e+003;1.862912e-002
2.140688e+003;1.842887e-002
2.142617e+003;1.833541e-002
2.144545e+003;1.830765e-002
2.146474e+003;1.837754e-002
2.148402e+003;1.825022e-002
2.150331e+003;1.833710e-002
2.152260e+003;1.876267e-002
2.154188e+003;1.895951e-002
2.156117e+003;1.870808e-002
2.158045e+003;1.830613e-002
2.159974e+003;1.819870e-002
2.161902e+003;1.854909e-002
2.163831e+003;1.889409e-002
2.165759e+003;1.890451e-002
2.167688e+003;1.907468e-002
2.169616e+003;1.923594e-002
2.171545e+003;1.925156e-002
2.173474e+003;1.931613e-002
2.175402e+003;1.949346e-002
2.177331e+003;1.962118e-002
2.179259e+003;1.967668e-002
2.181188e+003;1.959837e-002
2.183116e+003;1.951591e-002
2.185045e+003;1.943441e-002
2.186973e+003;1.931675e-002
2.188902e+003;1.935611e-002
2.190831e+003;1.957113e-002
2.192759e+003;1.967068e-002
2.194688e+003;1.945007e-002
2.196616e+003;1.927899e-002
2.198545e+003;1.945794e-002
2.200473e+003;1.962378e-002
2.202402e+003;1.937662e-002
2.204330e+003;1.912228e-002
2.206259e+003;1.894085e-002
2.208188e+003;1.882648e-002
2.210116e+003;1.906647e-002
2.212044e+003;1.921627e-002
2.213973e+003;1.893767e-002
2.215902e+003;1.866751e-002
2.217830e+003;1.872977e-002
2.219759e+003;1.902797e-002
2.221687e+003;1.924238e-002
2.223616e+003;1.915411e-002
2.225544e+003;1.925437e-002
2.227473e+003;1.935261e-002
2.229401e+003;1.938781e-002
2.231330e+003;1.929631e-002
2.233259e+003;1.915764e-002
2.235187e+003;1.917004e-002
2.237116e+003;1.918998e-002
2.239044e+003;1.913472e-002
2.240973e+003;1.913250e-002
2.242901e+003;1.925984e-002
2.244830e+003;1.925547e-002
2.246758e+003;1.928318e-002
2.248687e+003;1.954035e-002
2.250615e+003;1.967959e-002
2.252544e+003;1.997682e-002
2.254473e+003;2.024498e-002
2.256401e+003;2.013540e-002
2.258330e+003;2.005568e-002
2.260258e+003;1.981309e-002
2.262187e+003;1.969242e-002
2.264115e+003;1.995056e-002
2.266044e+003;1.994688e-002
2.267972e+003;1.988288e-002
2.269901e+003;1.964978e-002
2.271830e+003;1.923217e-002
2.273758e+003;1.940717e-002
2.275687e+003;1.974291e-002
2.277615e+003;1.967640e-002
2.279544e+003;1.948784e-002
2.281472e+003;1.927501e-002
2.283401e+003;1.908967e-002
2.285329e+003;1.917118e-002
2.287258e+003;1.900928e-002
2.289187e+003;1.886686e-002
2.291115e+003;1.869947e-002
2.293043e+003;1.862130e-002
2.294972e+003;1.899190e-002
2.296901e+003;1.895452e-002
2.298829e+003;1.887838e-002
2.300758e+003;1.895435e-002
2.302686e+003;1.895726e-002
2.304615e+003;1.927082e-002
2.306543e+003;1.955705e-002
2.308472e+003;1.938153e-002
2.310400e+003;1.910116e-002
2.312329e+003;1.911699e-002
2.314258e+003;1.940641e-002
2.316186e+003;1.973129e-002
2.318115e+003;1.963952e-002
2.320043e+003;1.939868e-002
2.321972e+003;1.949110e-002
2.323900e+003;1.975369e-002
2.325829e+003;1.988850e-002
2.327757e+003;1.985350e-002
2.329686e+003;1.979197e-002
2.331615e+003;2.005055e-002
2.333543e+003;2.038740e-002
2.335472e+003;2.045259e-002
2.337400e+003;2.026407e-002
2.339329e+003;2.031764e-002
2.341257e+003;2.063494e-002
2.343186e+003;2.087948e-002
2.345114e+003;2.085094e-002
2.347043e+003;2.081892e-002
2.348971e+003;2.107397e-002
2.350900e+003;2.103422e-002
2.352829e+003;2.082035e-002
2.354757e+003;2.100692e-002
2.356686e+003;2.131800e-002
2.358614e+003;2.132892e-002
2.360543e+003;2.131827e-002
2.362471e+003;2.151992e-002
2.364400e+003;2.151219e-002
2.366328e+003;2.149207e-002
2.368257e+003;2.156150e-002
2.370186e+003;2.180179e-002
2.372114e+003;2.175215e-002
2.374042e+003;2.162258e-002
2.375971e+003;2.161916e-002
2.377900e+003;2.140643e-002
2.379828e+003;2.139568e-002
2.381757e+003;2.167266e-002
2.383685e+003;2.184573e-002
2.385614e+003;2.169377e-002
2.387542e+003;2.140139e-002
2.389471e+003;2.141893e-002
2.391399e+003;2.169053e-002
2.393328e+003;2.192674e-002
2.395257e+003;2.215626e-002
2.397185e+003;2.214736e-002
2.399114e+003;2.211843e-002
2.401042e+003;2.237155e-002
2.402971e+003;2.257401e-002
2.404899e+003;2.263558e-002
2.406828e+003;2.281710e-002
2.408756e+003;2.270096e-002
2.410685e+003;2.240089e-002
2.412614e+003;2.233761e-002
2.414542e+003;2.230091e-002
2.416471e+003;2.248180e-002
2.418399e+003;2.271405e-002
2.420328e+003;2.289714e-002
2.422256e+003;2.319147e-002
2.424185e+003;2.351290e-002
2.426113e+003;2.334760e-002
2.428042e+003;2.301378e-002
2.429970e+003;2.302954e-002
2.431899e+003;2.337267e-002
2.433828e+003;2.329673e-002
2.435756e+003;2.275187e-002
2.437685e+003;2.242877e-002
2.439613e+003;2.257746e-002
2.441542e+003;2.256922e-002
2.443470e+003;2.239925e-002
2.445399e+003;2.243634e-002
2.447327e+003;2.241673e-002
2.449256e+003;2.244464e-002
2.451185e+003;2.242200e-002
2.453113e+003;2.219535e-002
2.455042e+003;2.193811e-002
2.456970e+003;2.200914e-002
2.458899e+003;2.227179e-002
2.460827e+003;2.220985e-002
2.462756e+003;2.201597e-002
2.464684e+003;2.199324e-002
2.466613e+003;2.234874e-002
2.468542e+003;2.244604e-002
2.470470e+003;2.212972e-002
2.472398e+003;2.216438e-002
2.474327e+003;2.222091e-002
2.476256e+003;2.225829e-002
2.478184e+003;2.291234e-002
2.480113e+003;2.321877e-002
2.482041e+003;2.280330e-002
2.483970e+003;2.281479e-002
2.485898e+003;2.292575e-002
2.487827e+003;2.280561e-002
2.489755e+003;2.318025e-002
2.491684e+003;2.345421e-002
2.493613e+003;2.317589e-002
2.495541e+003;2.270864e-002
2.497470e+003;2.261502e-002
2.499398e+003;2.303006e-002
2.501327e+003;2.321238e-002
2.503255e+003;2.285851e-002
2.505184e+003;2.273092e-002
2.507112e+003;2.292739e-002
2.509041e+003;2.309886e-002
2.510969e+003;2.328536e-002
2.512898e+003;2.351168e-002
2.514827e+003;2.392233e-002
2.516755e+003;2.424490e-002
2.518684e+003;2.441061e-002
2.520612e+003;2.465214e-002
2.522541e+003;2.496833e-002
2.524469e+003;2.511032e-002
2.526398e+003;2.525487e-002
2.528326e+003;2.544079e-002
2.530255e+003;2.557867e-002
2.532184e+003;2.575299e-002
2.534112e+003;2.570451e-002
2.536041e+003;2.572128e-002
2.537969e+003;2.616274e-002
2.539898e+003;2.656879e-002
2.541826e+003;2.688438e-002
2.543755e+003;2.692368e-002
2.545683e+003;2.710143e-002
2.547612e+003;2.743999e-002
2.549541e+003;2.758409e-002
2.551469e+003;2.780661e-002
2.553397e+003;2.832100e-002
2.555326e+003;2.891299e-002
2.557255e+003;2.920682e-002
2.559183e+003;2.927047e-002
2.561112e+003;2.954699e-002
2.563040e+003;2.999815e-002
2.564969e+003;3.030554e-002
2.566897e+003;3.084812e-002
2.568826e+003;3.156636e-002
2.570754e+003;3.205943e-002
2.572683e+003;3.235758e-002
2.574612e+003;3.271738e-002
2.576540e+003;3.309224e-002
2.578469e+003;3.333760e-002
2.580397e+003;3.395836e-002
2.582326e+003;3.459005e-002
2.584254e+003;3.417533e-002
2.586183e+003;3.354055e-002
2.588111e+003;3.306213e-002
2.590040e+003;3.246004e-002
2.591969e+003;3.202701e-002
2.593897e+003;3.162370e-002
2.595826e+003;3.164786e-002
2.597754e+003;3.190639e-002
2.599683e+003;3.185843e-002
2.601611e+003;3.178331e-002
2.603540e+003;3.200076e-002
2.605468e+003;3.238871e-002
2.607397e+003;3.261721e-002
2.609325e+003;3.276825e-002
2.611254e+003;3.307826e-002
2.613183e+003;3.345415e-002
2.615111e+003;3.371773e-002
2.617040e+003;3.381063e-002
2.618968e+003;3.379877e-002
2.620897e+003;3.369352e-002
2.622825e+003;3.367093e-002
2.624754e+003;3.349817e-002
2.626682e+003;3.324416e-002
2.628611e+003;3.321047e-002
2.630540e+003;3.316887e-002
2.632468e+003;3.292442e-002
2.634396e+003;3.295052e-002
2.636325e+003;3.318897e-002
2.638254e+003;3.317149e-002
2.640182e+003;3.324077e-002
2.642111e+003;3.378062e-002
2.644039e+003;3.443776e-002
2.645968e+003;3.469208e-002
2.647896e+003;3.502723e-002
2.649825e+003;3.536398e-002
2.651753e+003;3.561074e-002
2.653682e+003;3.600870e-002
2.655611e+003;3.642136e-002
2.657539e+003;3.681123e-002
2.659468e+003;3.703377e-002
2.661396e+003;3.687399e-002
2.663325e+003;3.677852e-002
2.665253e+003;3.718950e-002
2.667182e+003;3.747522e-002
2.669110e+003;3.735189e-002
2.671039e+003;3.720813e-002
2.672968e+003;3.730488e-002
2.674896e+003;3.757493e-002
2.676825e+003;3.797223e-002
2.678753e+003;3.809549e-002
2.680682e+003;3.795734e-002
2.682610e+003;3.776537e-002
2.684539e+003;3.759766e-002
2.686467e+003;3.776764e-002
2.688396e+003;3.814946e-002
2.690324e+003;3.822562e-002
2.692253e+003;3.811882e-002
2.694182e+003;3.823420e-002
2.696110e+003;3.837262e-002
2.698039e+003;3.855338e-002
2.699967e+003;3.883819e-002
2.701896e+003;3.910898e-002
2.703824e+003;3.978409e-002
2.705753e+003;4.062750e-002
2.707681e+003;4.128793e-002
2.709610e+003;4.193892e-002
2.711539e+003;4.284738e-002
2.713467e+003;4.411560e-002
2.715396e+003;4.559299e-002
2.717324e+003;4.731559e-002
2.719253e+003;4.882803e-002
2.721181e+003;5.016053e-002
2.723110e+003;5.094191e-002
2.725038e+003;5.048622e-002
2.726967e+003;4.926690e-002
2.728896e+003;4.814846e-002
2.730824e+003;4.710368e-002
2.732752e+003;4.574803e-002
2.734681e+003;4.465453e-002
2.736610e+003;4.411153e-002
2.738538e+003;4.364467e-002
2.740467e+003;4.279202e-002
2.742395e+003;4.175558e-002
2.744324e+003;4.101432e-002
2.746252e+003;4.050753e-002
2.748181e+003;4.021075e-002
2.750109e+003;3.998381e-002
2.752038e+003;4.003286e-002
2.753967e+003;4.029280e-002
2.755895e+003;4.061360e-002
2.757824e+003;4.092686e-002
2.759752e+003;4.126431e-002
2.761681e+003;4.156819e-002
2.763609e+003;4.207035e-002
2.765538e+003;4.249189e-002
2.767466e+003;4.299259e-002
2.769395e+003;4.335798e-002
2.771323e+003;4.363995e-002
2.773252e+003;4.419821e-002
2.775181e+003;4.447581e-002
2.777109e+003;4.467003e-002
2.779038e+003;4.538063e-002
2.780966e+003;4.662370e-002
2.782895e+003;4.807846e-002
2.784823e+003;4.951390e-002
2.786752e+003;5.075317e-002
2.788680e+003;5.215436e-002
2.790609e+003;5.381637e-002
2.792538e+003;5.534906e-002
2.794466e+003;5.668401e-002
2.796395e+003;5.793273e-002
2.798323e+003;5.934292e-002
2.800252e+003;6.097415e-002
2.802180e+003;6.275404e-002
2.804109e+003;6.460781e-002
2.806037e+003;6.668825e-002
2.807966e+003;6.861856e-002
2.809895e+003;7.018065e-002
2.811823e+003;7.182937e-002
2.813751e+003;7.392215e-002
2.815680e+003;7.605289e-002
2.817609e+003;7.801415e-002
2.819537e+003;8.038499e-002
2.821466e+003;8.328246e-002
2.823394e+003;8.685715e-002
2.825323e+003;9.167226e-002
2.827251e+003;9.778729e-002
2.829180e+003;1.052807e-001
2.831108e+003;1.137912e-001
2.833037e+003;1.227256e-001
2.834966e+003;1.299963e-001
2.836894e+003;1.338577e-001
2.838823e+003;1.343408e-001
2.840751e+003;1.325060e-001
2.842680e+003;1.286548e-001
2.844608e+003;1.238418e-001
2.846537e+003;1.191899e-001
2.848465e+003;1.153424e-001
2.850394e+003;1.127646e-001
2.852323e+003;1.108622e-001
2.854251e+003;1.101657e-001
2.856180e+003;1.111392e-001
2.858108e+003;1.140089e-001
2.860037e+003;1.192015e-001
2.861965e+003;1.263427e-001
2.863894e+003;1.335535e-001
2.865822e+003;1.396164e-001
2.867751e+003;1.434667e-001
2.869679e+003;1.446150e-001
2.871608e+003;1.444558e-001
2.873536e+003;1.444622e-001
2.875465e+003;1.445264e-001
2.877394e+003;1.435544e-001
2.879322e+003;1.418561e-001
2.881251e+003;1.403105e-001
2.883179e+003;1.396540e-001
2.885108e+003;1.401955e-001
2.887036e+003;1.408828e-001
2.888965e+003;1.424789e-001
2.890893e+003;1.447432e-001
2.892822e+003;1.472268e-001
2.894750e+003;1.510189e-001
2.896679e+003;1.554758e-001
2.898608e+003;1.597237e-001
2.900536e+003;1.646615e-001
2.902465e+003;1.698344e-001
2.904393e+003;1.748962e-001
2.906322e+003;1.796762e-001
2.908250e+003;1.840340e-001
2.910179e+003;1.883431e-001
2.912107e+003;1.914902e-001
2.914036e+003;1.938389e-001
2.915965e+003;1.955256e-001
2.917893e+003;1.953725e-001
2.919822e+003;1.932865e-001
2.921750e+003;1.896059e-001
2.923679e+003;1.848091e-001
2.925607e+003;1.788016e-001
2.927536e+003;1.716302e-001
2.929464e+003;1.638054e-001
2.931393e+003;1.557712e-001
2.933322e+003;1.475669e-001
2.935250e+003;1.404551e-001
2.937178e+003;1.353459e-001
2.939107e+003;1.325385e-001
2.941036e+003;1.330342e-001
2.942964e+003;1.372748e-001
2.944893e+003;1.440725e-001
2.946821e+003;1.516311e-001
2.948750e+003;1.586125e-001
2.950678e+003;1.629044e-001
2.952607e+003;1.635671e-001
2.954535e+003;1.613606e-001
2.956464e+003;1.575640e-001
2.958393e+003;1.523618e-001
2.960321e+003;1.465323e-001
2.962250e+003;1.405603e-001
2.964178e+003;1.340541e-001
2.966107e+003;1.273625e-001
2.968035e+003;1.202863e-001
2.969964e+003;1.135873e-001
2.971892e+003;1.071523e-001
2.973821e+003;1.012978e-001
2.975750e+003;9.650419e-002
2.977678e+003;9.181558e-002
2.979607e+003;8.724190e-002
2.981535e+003;8.336837e-002
2.983464e+003;7.989760e-002
2.985392e+003;7.661566e-002
2.987321e+003;7.380019e-002
2.989249e+003;7.174169e-002
2.991178e+003;6.988166e-002
2.993106e+003;6.758671e-002
2.995035e+003;6.516749e-002
2.996964e+003;6.277529e-002
2.998892e+003;6.068745e-002
3.000821e+003;5.879150e-002
3.002749e+003;5.680812e-002
3.004678e+003;5.508040e-002
3.006606e+003;5.331282e-002
3.008535e+003;5.174216e-002
3.010463e+003;5.033886e-002
3.012392e+003;4.892755e-002
3.014321e+003;4.757153e-002
3.016249e+003;4.635140e-002
3.018177e+003;4.509800e-002
3.020106e+003;4.414861e-002
3.022035e+003;4.309653e-002
3.023963e+003;4.192249e-002
3.025892e+003;4.089944e-002
3.027820e+003;4.037933e-002
3.029749e+003;4.024892e-002
3.031677e+003;3.970965e-002
3.033606e+003;3.893592e-002
3.035534e+003;3.840447e-002
3.037463e+003;3.802818e-002
3.039392e+003;3.796880e-002
3.041320e+003;3.778474e-002
3.043249e+003;3.701559e-002
3.045177e+003;3.671160e-002
3.047106e+003;3.681628e-002
3.049034e+003;3.662813e-002
3.050963e+003;3.614008e-002
3.052891e+003;3.576448e-002
3.054820e+003;3.571171e-002
3.056749e+003;3.551666e-002
3.058677e+003;3.532595e-002
3.060606e+003;3.518569e-002
3.062534e+003;3.497207e-002
3.064463e+003;3.493565e-002
3.066391e+003;3.478525e-002
3.068320e+003;3.463810e-002
3.070248e+003;3.470536e-002
3.072177e+003;3.485379e-002
3.074105e+003;3.488524e-002
3.076034e+003;3.437088e-002
3.077963e+003;3.404637e-002
3.079891e+003;3.406242e-002
3.081820e+003;3.412371e-002
3.083748e+003;3.429618e-002
3.085677e+003;3.438378e-002
3.087605e+003;3.423125e-002
3.089534e+003;3.413485e-002
3.091462e+003;3.424469e-002
3.093391e+003;3.428065e-002
3.095320e+003;3.400838e-002
3.097248e+003;3.399784e-002
3.099177e+003;3.412744e-002
3.101105e+003;3.400903e-002
3.103034e+003;3.411729e-002
3.104962e+003;3.414683e-002
3.106891e+003;3.419737e-002
3.108819e+003;3.431511e-002
3.110748e+003;3.430493e-002
3.112677e+003;3.430052e-002
3.114605e+003;3.431956e-002
3.116533e+003;3.433153e-002
3.118462e+003;3.405704e-002
3.120391e+003;3.377188e-002
3.122319e+003;3.406876e-002
3.124248e+003;3.442410e-002
3.126176e+003;3.437676e-002
3.128105e+003;3.437224e-002
3.130033e+003;3.450560e-002
3.131962e+003;3.457064e-002
3.133890e+003;3.493073e-002
3.135819e+003;3.534870e-002
3.137748e+003;3.530223e-002
3.139676e+003;3.529634e-002
3.141605e+003;3.544820e-002
3.143533e+003;3.535524e-002
3.145462e+003;3.529274e-002
3.147390e+003;3.545651e-002
3.149319e+003;3.587427e-002
3.151247e+003;3.614724e-002
3.153176e+003;3.622892e-002
3.155104e+003;3.608311e-002
3.157033e+003;3.594808e-002
3.158962e+003;3.595028e-002
3.160890e+003;3.603328e-002
3.162819e+003;3.584177e-002
3.164747e+003;3.590637e-002
3.166676e+003;3.599628e-002
3.168604e+003;3.621412e-002
3.170533e+003;3.629130e-002
3.172461e+003;3.625622e-002
3.174390e+003;3.615553e-002
3.176319e+003;3.622568e-002
3.178247e+003;3.645617e-002
3.180176e+003;3.654072e-002
3.182104e+003;3.683042e-002
3.184033e+003;3.690984e-002
3.185961e+003;3.646144e-002
3.187890e+003;3.651985e-002
3.189818e+003;3.719452e-002
3.191747e+003;3.739613e-002
3.193676e+003;3.731589e-002
3.195604e+003;3.722784e-002
3.197532e+003;3.724888e-002
3.199461e+003;3.729380e-002
3.201390e+003;3.718889e-002
3.203318e+003;3.720932e-002
3.205247e+003;3.729672e-002
3.207175e+003;3.723246e-002
3.209104e+003;3.735681e-002
3.211032e+003;3.727076e-002
3.212961e+003;3.675887e-002
3.214889e+003;3.663073e-002
3.216818e+003;3.669209e-002
3.218747e+003;3.662727e-002
3.220675e+003;3.679417e-002
3.222604e+003;3.687370e-002
3.224532e+003;3.647970e-002
3.226461e+003;3.634145e-002
3.228389e+003;3.639492e-002
3.230318e+003;3.641585e-002
3.232246e+003;3.655878e-002
3.234175e+003;3.666256e-002
3.236104e+003;3.628371e-002
3.238032e+003;3.607156e-002
3.239961e+003;3.602972e-002
3.241889e+003;3.579057e-002
3.243818e+003;3.567911e-002
3.245746e+003;3.569286e-002
3.247675e+003;3.572066e-002
3.249603e+003;3.575408e-002
3.251532e+003;3.569735e-002
3.253460e+003;3.533192e-002
3.255389e+003;3.526654e-002
3.257318e+003;3.577934e-002
3.259246e+003;3.622431e-002
3.261175e+003;3.640727e-002
3.263103e+003;3.642295e-002
3.265032e+003;3.649394e-002
3.266960e+003;3.637589e-002
3.268889e+003;3.591025e-002
3.270817e+003;3.570336e-002
3.272746e+003;3.562149e-002
3.274675e+003;3.571368e-002
3.276603e+003;3.561387e-002
3.278531e+003;3.590298e-002
3.280460e+003;3.627106e-002
3.282389e+003;3.608293e-002
3.284317e+003;3.594473e-002
3.286246e+003;3.606032e-002
3.288174e+003;3.637506e-002
3.290103e+003;3.607076e-002
3.292031e+003;3.543059e-002
3.293960e+003;3.535690e-002
3.295888e+003;3.562142e-002
3.297817e+003;3.634383e-002
3.299746e+003;3.641052e-002
3.301674e+003;3.575412e-002
3.303603e+003;3.564124e-002
3.305531e+003;3.574710e-002
3.307460e+003;3.568617e-002
3.309388e+003;3.591950e-002
3.311317e+003;3.594660e-002
3.313245e+003;3.595942e-002
3.315174e+003;3.613637e-002
3.317103e+003;3.596662e-002
3.319031e+003;3.557287e-002
3.320960e+003;3.531449e-002
3.322888e+003;3.495379e-002
3.324817e+003;3.504968e-002
3.326745e+003;3.555499e-002
3.328674e+003;3.559103e-002
3.330602e+003;3.490509e-002
3.332531e+003;3.444824e-002
3.334459e+003;3.500062e-002
3.336388e+003;3.583429e-002
3.338317e+003;3.554525e-002
3.340245e+003;3.529748e-002
3.342174e+003;3.518062e-002
3.344102e+003;3.461158e-002
3.346031e+003;3.441237e-002
3.347959e+003;3.468615e-002
3.349888e+003;3.504271e-002
3.351816e+003;3.545723e-002
3.353745e+003;3.559740e-002
3.355674e+003;3.536973e-002
3.357602e+003;3.485662e-002
3.359531e+003;3.423046e-002
3.361459e+003;3.420063e-002
3.363388e+003;3.467255e-002
3.365316e+003;3.510568e-002
3.367245e+003;3.503564e-002
3.369173e+003;3.458758e-002
3.371102e+003;3.431034e-002
3.373031e+003;3.390204e-002
3.374959e+003;3.373263e-002
3.376887e+003;3.397488e-002
3.378816e+003;3.399104e-002
3.380745e+003;3.373094e-002
3.382673e+003;3.320045e-002
3.384602e+003;3.299142e-002
3.386530e+003;3.339468e-002
3.388459e+003;3.335868e-002
3.390387e+003;3.303485e-002
3.392316e+003;3.334802e-002
3.394244e+003;3.360932e-002
3.396173e+003;3.350408e-002
3.398102e+003;3.310915e-002
3.400030e+003;3.234195e-002
3.401959e+003;3.222656e-002
3.403887e+003;3.284555e-002
3.405816e+003;3.310647e-002
3.407744e+003;3.321705e-002
3.409673e+003;3.304419e-002
3.411601e+003;3.261100e-002
3.413530e+003;3.231882e-002
3.415458e+003;3.201674e-002
3.417387e+003;3.195332e-002
3.419316e+003;3.197312e-002
3.421244e+003;3.178901e-002
3.423173e+003;3.249529e-002
3.425101e+003;3.286527e-002
3.427030e+003;3.225282e-002
3.428958e+003;3.172841e-002
3.430887e+003;3.155867e-002
3.432815e+003;3.118285e-002
3.434744e+003;3.100983e-002
3.436673e+003;3.090966e-002
3.438601e+003;3.039050e-002
3.440530e+003;2.981729e-002
3.442458e+003;2.981474e-002
3.444387e+003;3.020895e-002
3.446315e+003;3.014945e-002
3.448244e+003;2.970058e-002
3.450172e+003;2.957543e-002
3.452101e+003;2.977460e-002
3.454030e+003;2.967202e-002
3.455958e+003;2.900823e-002
3.457886e+003;2.880612e-002
3.459815e+003;2.873683e-002
3.461744e+003;2.820951e-002
3.463672e+003;2.827050e-002
3.465601e+003;2.869502e-002
3.467529e+003;2.870812e-002
3.469458e+003;2.819897e-002
3.471386e+003;2.816531e-002
3.473315e+003;2.831676e-002
3.475243e+003;2.815941e-002
3.477172e+003;2.788010e-002
3.479101e+003;2.745951e-002
3.481029e+003;2.737632e-002
3.482958e+003;2.760280e-002
3.484886e+003;2.742563e-002
3.486815e+003;2.704511e-002
3.488743e+003;2.687405e-002
3.490672e+003;2.668117e-002
3.492600e+003;2.643137e-002
3.494529e+003;2.621954e-002
3.496458e+003;2.608244e-002
3.498386e+003;2.616383e-002
3.500315e+003;2.624387e-002
3.502243e+003;2.610514e-002
3.504172e+003;2.594341e-002
3.506100e+003;2.565544e-002
3.508029e+003;2.547533e-002
3.509957e+003;2.544859e-002
3.511886e+003;2.528701e-002
3.513814e+003;2.521723e-002
3.515743e+003;2.500424e-002
3.517672e+003;2.465179e-002
3.519600e+003;2.455336e-002
3.521529e+003;2.485962e-002
3.523457e+003;2.523556e-002
3.525386e+003;2.510266e-002
3.527314e+003;2.462100e-002
3.529243e+003;2.429353e-002
3.531171e+003;2.415574e-002
3.533100e+003;2.409132e-002
3.535029e+003;2.384059e-002
3.536957e+003;2.365696e-002
3.538885e+003;2.333127e-002
3.540814e+003;2.274555e-002
3.542743e+003;2.261767e-002
3.544671e+003;2.268263e-002
3.546600e+003;2.250682e-002
3.548528e+003;2.217212e-002
3.550457e+003;2.182730e-002
3.552385e+003;2.155380e-002
3.554314e+003;2.172989e-002
3.556242e+003;2.191392e-002
3.558171e+003;2.168826e-002
3.560100e+003;2.126691e-002
3.562028e+003;2.092346e-002
3.563957e+003;2.095823e-002
3.565885e+003;2.039029e-002
3.567814e+003;1.965616e-002
3.569742e+003;1.996537e-002
3.571671e+003;2.053318e-002
3.573599e+003;2.061127e-002
3.575528e+003;2.027997e-002
3.577457e+003;1.967685e-002
3.579385e+003;1.906664e-002
3.581314e+003;1.893829e-002
3.583242e+003;1.897245e-002
3.585171e+003;1.883101e-002
3.587099e+003;1.832089e-002
3.589028e+003;1.796170e-002
3.590956e+003;1.837996e-002
3.592885e+003;1.855590e-002
3.594813e+003;1.858678e-002
3.596742e+003;1.878530e-002
3.598671e+003;1.864478e-002
3.600599e+003;1.801433e-002
3.602528e+003;1.762071e-002
3.604456e+003;1.788988e-002
3.606385e+003;1.796481e-002
3.608313e+003;1.771544e-002
3.610242e+003;1.739317e-002
3.612170e+003;1.713256e-002
3.614099e+003;1.713811e-002
3.616028e+003;1.711822e-002
3.617956e+003;1.698399e-002
3.619885e+003;1.677796e-002
3.621813e+003;1.654921e-002
3.623742e+003;1.645332e-002
3.625670e+003;1.637676e-002
3.627599e+003;1.587598e-002
3.629527e+003;1.567662e-002
3.631456e+003;1.595111e-002
3.633385e+003;1.648082e-002
3.635313e+003;1.676081e-002
3.637241e+003;1.611576e-002
3.639170e+003;1.531844e-002
3.641099e+003;1.518285e-002
3.643027e+003;1.528875e-002
3.644956e+003;1.535091e-002
3.646884e+003;1.524692e-002
3.648813e+003;1.508823e-002
3.650741e+003;1.485659e-002
3.652670e+003;1.471710e-002
3.654598e+003;1.406121e-002
3.656527e+003;1.383682e-002
3.658456e+003;1.413007e-002
3.660384e+003;1.415633e-002
3.662313e+003;1.414575e-002
3.664241e+003;1.432173e-002
3.666170e+003;1.423996e-002
3.668098e+003;1.376585e-002
3.670027e+003;1.348344e-002
3.671955e+003;1.368671e-002
3.673884e+003;1.399003e-002
3.675813e+003;1.452036e-002
3.677741e+003;1.478730e-002
3.679669e+003;1.428444e-002
3.681598e+003;1.409245e-002
3.683527e+003;1.420942e-002
3.685455e+003;1.429331e-002
3.687384e+003;1.411073e-002
3.689312e+003;1.433793e-002
3.691241e+003;1.495645e-002
3.693169e+003;1.502988e-002
3.695098e+003;1.484627e-002
3.697026e+003;1.482817e-002
3.698955e+003;1.472731e-002
3.700884e+003;1.444054e-002
3.702812e+003;1.463728e-002
3.704741e+003;1.468207e-002
3.706669e+003;1.451485e-002
3.708598e+003;1.489201e-002
3.710526e+003;1.520159e-002
3.712455e+003;1.490463e-002
3.714383e+003;1.458591e-002
3.716312e+003;1.440102e-002
3.718240e+003;1.410197e-002
3.720169e+003;1.342527e-002
3.722098e+003;1.358137e-002
3.724026e+003;1.423880e-002
3.725955e+003;1.434475e-002
3.727883e+003;1.421843e-002
3.729812e+003;1.458550e-002
3.731740e+003;1.453681e-002
3.733669e+003;1.375029e-002
3.735597e+003;1.348628e-002
3.737526e+003;1.404249e-002
3.739455e+003;1.439523e-002
3.741383e+003;1.459300e-002
3.743312e+003;1.451043e-002
3.745240e+003;1.434848e-002
3.747169e+003;1.386361e-002
3.749097e+003;1.361272e-002
3.751026e+003;1.343973e-002
3.752954e+003;1.328781e-002
3.754883e+003;1.411275e-002
3.756812e+003;1.495796e-002
3.758740e+003;1.504205e-002
3.760668e+003;1.522527e-002
3.762597e+003;1.552340e-002
3.764526e+003;1.541346e-002
3.766454e+003;1.529631e-002
3.768383e+003;1.494815e-002
3.770311e+003;1.530351e-002
3.772240e+003;1.575409e-002
3.774168e+003;1.542167e-002
3.776097e+003;1.490809e-002
3.778025e+003;1.471583e-002
3.779954e+003;1.455062e-002
3.781883e+003;1.479076e-002
3.783811e+003;1.505289e-002
3.785740e+003;1.501650e-002
3.787668e+003;1.496447e-002
3.789597e+003;1.488752e-002
3.791525e+003;1.450060e-002
3.793454e+003;1.476385e-002
3.795382e+003;1.539994e-002
3.797311e+003;1.561125e-002
3.799240e+003;1.514161e-002
3.801168e+003;1.415071e-002
3.803097e+003;1.411433e-002
3.805025e+003;1.437081e-002
3.806954e+003;1.463645e-002
3.808882e+003;1.522087e-002
3.810811e+003;1.544680e-002
3.812739e+003;1.508867e-002
3.814668e+003;1.417324e-002
3.816596e+003;1.421658e-002
3.818525e+003;1.468745e-002
3.820454e+003;1.468125e-002
3.822382e+003;1.551197e-002
3.824311e+003;1.627355e-002
3.826239e+003;1.567714e-002
3.828168e+003;1.484435e-002
3.830096e+003;1.454630e-002
3.832025e+003;1.490302e-002
3.833953e+003;1.522647e-002
3.835882e+003;1.510840e-002
3.837811e+003;1.498285e-002
3.839739e+003;1.539430e-002
3.841667e+003;1.553034e-002
3.843596e+003;1.534240e-002
3.845525e+003;1.552069e-002
3.847453e+003;1.537566e-002
3.849382e+003;1.528251e-002
3.851310e+003;1.509907e-002
3.853239e+003;1.466894e-002
3.855167e+003;1.500758e-002
3.857096e+003;1.585398e-002
3.859024e+003;1.593114e-002
3.860953e+003;1.585041e-002
3.862882e+003;1.558388e-002
3.864810e+003;1.525282e-002
3.866739e+003;1.591949e-002
3.868667e+003;1.618206e-002
3.870596e+003;1.642738e-002
3.872524e+003;1.623609e-002
3.874453e+003;1.548082e-002
3.876381e+003;1.573667e-002
3.878310e+003;1.588316e-002
3.880239e+003;1.571582e-002
3.882167e+003;1.573148e-002
3.884096e+003;1.577041e-002
3.886024e+003;1.635416e-002
3.887953e+003;1.681275e-002
3.889881e+003;1.669039e-002
3.891810e+003;1.644331e-002
3.893738e+003;1.628401e-002
3.895667e+003;1.660821e-002
3.897595e+003;1.648740e-002
3.899524e+003;1.588220e-002
3.901453e+003;1.550077e-002
3.903381e+003;1.564399e-002
3.905310e+003;1.600594e-002
3.907238e+003;1.612150e-002
3.909167e+003;1.612600e-002
3.911095e+003;1.618925e-002
3.913024e+003;1.640367e-002
3.914952e+003;1.656997e-002
3.916881e+003;1.636179e-002
3.918810e+003;1.636152e-002
3.920738e+003;1.683917e-002
3.922667e+003;1.681275e-002
3.924595e+003;1.652267e-002
3.926524e+003;1.642459e-002
3.928452e+003;1.685491e-002
3.930381e+003;1.727455e-002
3.932309e+003;1.705949e-002
3.934238e+003;1.668365e-002
3.936167e+003;1.653912e-002
3.938095e+003;1.650935e-002
3.940023e+003;1.666743e-002
3.941952e+003;1.720560e-002
3.943881e+003;1.749247e-002
3.945809e+003;1.710405e-002
3.947738e+003;1.676047e-002
3.949666e+003;1.657124e-002
3.951595e+003;1.609987e-002
3.953523e+003;1.608017e-002
3.955452e+003;1.665052e-002
3.957380e+003;1.714989e-002
3.959309e+003;1.716775e-002
3.961238e+003;1.710740e-002
3.963166e+003;1.739493e-002
3.965095e+003;1.733169e-002
3.967023e+003;1.695405e-002
3.968952e+003;1.649541e-002
3.970880e+003;1.641647e-002
3.972809e+003;1.663097e-002
3.974737e+003;1.697800e-002
3.976666e+003;1.733417e-002
3.978594e+003;1.711767e-002
3.980523e+003;1.696122e-002
3.982452e+003;1.751203e-002
3.984380e+003;1.754809e-002
3.986309e+003;1.756396e-002
3.988237e+003;1.805381e-002
3.990166e+003;1.804711e-002
3.992094e+003;1.780657e-002
3.994023e+003;1.839828e-002
3.995951e+003;1.876689e-002
3.997880e+003;1.894317e-002
3.999809e+003;1.896539e-002
4.001737e+003;0.000000e+000
