3.992094e+002;0.000000e+000
4.011380e+002;0.000000e+000
4.030665e+002;0.000000e+000
4.049951e+002;0.000000e+000
4.069236e+002;0.000000e+000
4.088522e+002;0.000000e+000
4.107807e+002;0.000000e+000
4.127093e+002;0.000000e+000
4.146378e+002;0.000000e+000
4.165664e+002;0.000000e+000
4.184949e+002;0.000000e+000
4.204235e+002;0.000000e+000
4.223520e+002;0.000000e+000
4.242806e+002;0.000000e+000
4.262091e+002;0.000000e+000
4.281377e+002;0.000000e+000
4.300662e+002;0.000000e+000
4.319948e+002;0.000000e+000
4.339233e+002;0.000000e+000
4.358519e+002;0.000000e+000
4.377804e+002;0.000000e+000
4.397090e+002;0.000000e+000
4.416375e+002;0.000000e+000
4.435660e+002;0.000000e+000
4.454946e+002;0.000000e+000
4.474232e+002;0.000000e+000
4.493517e+002;0.000000e+000
4.512802e+002;0.000000e+000
4.532088e+002;0.000000e+000
4.551373e+002;0.000000e+000
4.570659e+002;0.000000e+000
4.589944e+002;0.000000e+000
4.609230e+002;0.000000e+000
4.628515e+002;0.000000e+000
4.647801e+002;0.000000e+000
4.667086e+002;0.000000e+000
4.686372e+002;0.000000e+000
4.705657e+002;0.000000e+000
4.724943e+002;0.000000e+000
4.744228e+002;0.000000e+000
4.763513e+002;0.000000e+000
4.782799e+002;0.000000e+000
4.802085e+002;0.000000e+000
4.821370e+002;0.000000e+000
4.840656e+002;0.000000e+000
4.859941e+002;0.000000e+000
4.879226e+002;0.000000e+000
4.898512e+002;0.000000e+000
4.917798e+002;0.000000e+000
4.937083e+002;0.000000e+000
4.956368e+002;0.000000e+000
4.975654e+002;0.000000e+000
4.994939e+002;0.000000e+000
5.014225e+002;0.000000e+000
5.033510e+002;0.000000e+000
5.052796e+002;0.000000e+000
5.072081e+002;0.000000e+000
5.091367e+002;0.000000e+000
5.110652e+002;0.000000e+000
5.129938e+002;0.000000e+000
5.149223e+002;0.000000e+000
5.168509e+002;0.000000e+000
5.187794e+002;0.000000e+000
5.207079e+002;0.000000e+000
5.226365e+002;0.000000e+000
5.245651e+002;0.000000e+000
5.264936e+002;0.000000e+000
5.284222e+002;0.000000e+000
5.303507e+002;0.000000e+000
5.322792e+002;0.000000e+000
5.342078e+002;0.000000e+000
5.361364e+002;0.000000e+000
5.380649e+002;0.000000e+000
5.399935e+002;0.000000e+000
5.419220e+002;0.000000e+000
5.438505e+002;0.000000e+000
5.457791e+002;0.000000e+000
5.477076e+002;0.000000e+000
5.496362e+002;0.000000e+000
5.515648e+002;0.000000e+000
5.534933e+002;0.000000e+000
5.554218e+002;0.000000e+000
5.573504e+002;0.000000e+000
5.592789e+002;0.000000e+000
5.612075e+002;0.000000e+000
5.631360e+002;0.000000e+000
5.650646e+002;0.000000e+000
5.669931e+002;0.000000e+000
5.689217e+002;0.000000e+000
5.708502e+002;0.000000e+000
5.727787e+002;0.000000e+000
5.747073e+002;0.000000e+000
5.766359e+002;0.000000e+000
5.785644e+002;0.000000e+000
5.804930e+002;0.000000e+000
5.824215e+002;0.000000e+000
5.843500e+002;0.000000e+000
5.862786e+002;0.000000e+000
5.882072e+002;0.000000e+000
5.901357e+002;0.000000e+000
5.920643e+002;0.000000e+000
5.939928e+002;0.000000e+000
5.959213e+002;0.000000e+000
5.978499e+002;0.000000e+000
5.997784e+002;4.770128e-002
6.017070e+002;4.616648e-002
6.036355e+002;4.224739e-002
6.055641e+002;3.806474e-002
6.074926e+002;3.608844e-002
6.094211e+002;3.388101e-002
6.113497e+002;3.306485e-002
6.132783e+002;3.302895e-002
6.152068e+002;3.349001e-002
6.171354e+002;3.843966e-002
6.190639e+002;4.355404e-002
6.209924e+002;4.059298e-002
6.229210e+002;4.112249e-002
6.248495e+002;4.602272e-002
6.267781e+002;4.487680e-002
6.287067e+002;3.938098e-002
6.306352e+002;3.620277e-002
6.325637e+002;3.421049e-002
6.344923e+002;3.461657e-002
6.364208e+002;3.584202e-002
6.383494e+002;3.696814e-002
6.402780e+002;3.399684e-002
6.422065e+002;3.293765e-002
6.441350e+002;3.437213e-002
6.460636e+002;3.707098e-002
6.479921e+002;3.514013e-002
6.499207e+002;3.592627e-002
6.518492e+002;3.893716e-002
6.537778e+002;3.857387e-002
6.557063e+002;3.806214e-002
6.576349e+002;3.897782e-002
6.595634e+002;4.126861e-002
6.614919e+002;4.280610e-002
6.634205e+002;4.113564e-002
6.653491e+002;3.954910e-002
6.672776e+002;3.654977e-002
6.692062e+002;3.773302e-002
6.711347e+002;3.986729e-002
6.730632e+002;3.779399e-002
6.749918e+002;3.614648e-002
6.769203e+002;3.584526e-002
6.788489e+002;3.509537e-002
6.807775e+002;3.783860e-002
6.827060e+002;3.994367e-002
6.846345e+002;3.946008e-002
6.865631e+002;3.870230e-002
6.884916e+002;3.812222e-002
6.904202e+002;3.721484e-002
6.923488e+002;3.841341e-002
6.942773e+002;4.053997e-002
6.962058e+002;4.151434e-002
6.981344e+002;4.165316e-002
7.000629e+002;4.199052e-002
7.019915e+002;4.265503e-002
7.039200e+002;4.367622e-002
7.058486e+002;4.654432e-002
7.077771e+002;5.182253e-002
7.097057e+002;6.118231e-002
7.116342e+002;7.552873e-002
7.135627e+002;8.186658e-002
7.154913e+002;7.288108e-002
7.174199e+002;5.996675e-002
7.193484e+002;5.231658e-002
7.212770e+002;4.802472e-002
7.232055e+002;4.603513e-002
7.251340e+002;4.471046e-002
7.270626e+002;4.375684e-002
7.289911e+002;4.283850e-002
7.309197e+002;4.194563e-002
7.328483e+002;4.128665e-002
7.347768e+002;4.041329e-002
7.367053e+002;4.032584e-002
7.386339e+002;4.029345e-002
7.405624e+002;4.089591e-002
7.424910e+002;4.225798e-002
7.444196e+002;4.132903e-002
7.463481e+002;4.011258e-002
7.482766e+002;4.085995e-002
7.502052e+002;4.209772e-002
7.521337e+002;4.238947e-002
7.540623e+002;4.310999e-002
7.559908e+002;4.334867e-002
7.579194e+002;4.424744e-002
7.598479e+002;4.488856e-002
7.617765e+002;4.452305e-002
7.637050e+002;4.413504e-002
7.656335e+002;4.454960e-002
7.675621e+002;4.444160e-002
7.694907e+002;4.407097e-002
7.714192e+002;4.373027e-002
7.733478e+002;4.386664e-002
7.752763e+002;4.343395e-002
7.772048e+002;4.343542e-002
7.791334e+002;4.391748e-002
7.810620e+002;4.423038e-002
7.829905e+002;4.472813e-002
7.849191e+002;4.603167e-002
7.868476e+002;4.722080e-002
7.887761e+002;4.801525e-002
7.907047e+002;4.869353e-002
7.926332e+002;4.893111e-002
7.945618e+002;5.013543e-002
7.964903e+002;5.257478e-002
7.984189e+002;5.521885e-002
8.003474e+002;5.724354e-002
8.022759e+002;5.951389e-002
8.042045e+002;6.242243e-002
8.061331e+002;6.497650e-002
8.080616e+002;6.632316e-002
8.099902e+002;6.627889e-002
8.119187e+002;6.478044e-002
8.138472e+002;6.164329e-002
8.157758e+002;5.848974e-002
8.177043e+002;5.701807e-002
8.196329e+002;5.623297e-002
8.215615e+002;5.556865e-002
8.234900e+002;5.472179e-002
8.254185e+002;5.356013e-002
8.273471e+002;5.356362e-002
8.292756e+002;5.378524e-002
8.312042e+002;5.389971e-002
8.331328e+002;5.479279e-002
8.350613e+002;5.673033e-002
8.369898e+002;5.963528e-002
8.389184e+002;6.521735e-002
8.408469e+002;7.059254e-002
8.427755e+002;7.144072e-002
8.447040e+002;6.988554e-002
8.466326e+002;7.015444e-002
8.485611e+002;6.789835e-002
8.504897e+002;6.172307e-002
8.524182e+002;5.821588e-002
8.543467e+002;5.745974e-002
8.562753e+002;5.753206e-002
8.582039e+002;5.826286e-002
8.601324e+002;6.063502e-002
8.620610e+002;6.504581e-002
8.639895e+002;7.044817e-002
8.659180e+002;7.761399e-002
8.678466e+002;8.853405e-002
8.697751e+002;1.032073e-001
8.717037e+002;1.188712e-001
8.736323e+002;1.325072e-001
8.755608e+002;1.383015e-001
8.774893e+002;1.295421e-001
8.794179e+002;1.104751e-001
8.813464e+002;9.351330e-002
8.832750e+002;8.104484e-002
8.852036e+002;6.879345e-002
8.871321e+002;5.952643e-002
8.890606e+002;5.566043e-002
8.909892e+002;5.490181e-002
8.929177e+002;5.575897e-002
8.948463e+002;5.906393e-002
8.967748e+002;6.303281e-002
8.987034e+002;6.537146e-002
9.006319e+002;6.500752e-002
9.025605e+002;6.143003e-002
9.044890e+002;5.657242e-002
9.064175e+002;5.294435e-002
9.083461e+002;5.067578e-002
9.102747e+002;4.921818e-002
9.122032e+002;4.825705e-002
9.141318e+002;4.703787e-002
9.160603e+002;4.630167e-002
9.179888e+002;4.627521e-002
9.199174e+002;4.614032e-002
9.218459e+002;4.574541e-002
9.237745e+002;4.573467e-002
9.257031e+002;4.576051e-002
9.276316e+002;4.575024e-002
9.295601e+002;4.612669e-002
9.314887e+002;4.662345e-002
9.334172e+002;4.728700e-002
9.353458e+002;4.858528e-002
9.372744e+002;4.977024e-002
9.392029e+002;5.083898e-002
9.411314e+002;5.182585e-002
9.430600e+002;5.211050e-002
9.449885e+002;5.199575e-002
9.469171e+002;5.202544e-002
9.488456e+002;5.242147e-002
9.507742e+002;5.331503e-002
9.527027e+002;5.426580e-002
9.546313e+002;5.513228e-002
9.565598e+002;5.585068e-002
9.584883e+002;5.677047e-002
9.604169e+002;5.839273e-002
9.623455e+002;6.127024e-002
9.642740e+002;6.510593e-002
9.662026e+002;6.959682e-002
9.681311e+002;7.636750e-002
9.700596e+002;8.511247e-002
9.719882e+002;9.229052e-002
9.739167e+002;9.480688e-002
9.758453e+002;9.134693e-002
9.777739e+002;8.330575e-002
9.797024e+002;7.377494e-002
9.816309e+002;6.509669e-002
9.835595e+002;5.921151e-002
9.854880e+002;5.669537e-002
9.874166e+002;5.674144e-002
9.893452e+002;5.864053e-002
9.912737e+002;6.249524e-002
9.932022e+002;6.794535e-002
9.951307e+002;7.398025e-002
9.970593e+002;7.895489e-002
9.989879e+002;7.942548e-002
1.000916e+003;7.506236e-002
1.002845e+003;6.964295e-002
1.004773e+003;6.571890e-002
1.006702e+003;6.311388e-002
1.008631e+003;6.135355e-002
1.010559e+003;6.033974e-002
1.012488e+003;5.955851e-002
1.014416e+003;5.894270e-002
1.016345e+003;5.822330e-002
1.018273e+003;5.726898e-002
1.020202e+003;5.631705e-002
1.022130e+003;5.587133e-002
1.024059e+003;5.567316e-002
1.025988e+003;5.618515e-002
1.027916e+003;5.683569e-002
1.029845e+003;5.799058e-002
1.031773e+003;5.969158e-002
1.033702e+003;6.130535e-002
1.035630e+003;6.270362e-002
1.037559e+003;6.336543e-002
1.039487e+003;6.310679e-002
1.041416e+003;6.220057e-002
1.043344e+003;6.095616e-002
1.045273e+003;5.924254e-002
1.047202e+003;5.731510e-002
1.049130e+003;5.512426e-002
1.051059e+003;5.373863e-002
1.052987e+003;5.284543e-002
1.054916e+003;5.191053e-002
1.056844e+003;5.098848e-002
1.058773e+003;5.012587e-002
1.060701e+003;4.953198e-002
1.062630e+003;4.939189e-002
1.064558e+003;4.945207e-002
1.066487e+003;4.935673e-002
1.068416e+003;4.921576e-002
1.070344e+003;4.921098e-002
1.072273e+003;4.934017e-002
1.074201e+003;4.985698e-002
1.076130e+003;5.034902e-002
1.078058e+003;5.059782e-002
1.079987e+003;5.120286e-002
1.081915e+003;5.182178e-002
1.083844e+003;5.239205e-002
1.085773e+003;5.350594e-002
1.087701e+003;5.464614e-002
1.089630e+003;5.550652e-002
1.091558e+003;5.674068e-002
1.093487e+003;5.795154e-002
1.095415e+003;5.847298e-002
1.097344e+003;5.964958e-002
1.099272e+003;6.181325e-002
1.101201e+003;6.370497e-002
1.103129e+003;6.456845e-002
1.105058e+003;6.454791e-002
1.106987e+003;6.320677e-002
1.108915e+003;6.073047e-002
1.110844e+003;5.802732e-002
1.112772e+003;5.566054e-002
1.114701e+003;5.390377e-002
1.116629e+003;5.222965e-002
1.118558e+003;5.068796e-002
1.120486e+003;4.926293e-002
1.122415e+003;4.822087e-002
1.124344e+003;4.744319e-002
1.126272e+003;4.670221e-002
1.128201e+003;4.644122e-002
1.130129e+003;4.701760e-002
1.132058e+003;4.787572e-002
1.133986e+003;4.926946e-002
1.135915e+003;5.104471e-002
1.137843e+003;5.315476e-002
1.139772e+003;5.572428e-002
1.141700e+003;5.874211e-002
1.143629e+003;6.182036e-002
1.145557e+003;6.447115e-002
1.147486e+003;6.726465e-002
1.149415e+003;7.049879e-002
1.151343e+003;7.375661e-002
1.153272e+003;7.578652e-002
1.155200e+003;7.668650e-002
1.157129e+003;7.734309e-002
1.159057e+003;7.786293e-002
1.160986e+003;7.837968e-002
1.162914e+003;7.875107e-002
1.164843e+003;7.868415e-002
1.166771e+003;7.851837e-002
1.168700e+003;7.717267e-002
1.170629e+003;7.332041e-002
1.172557e+003;6.830889e-002
1.174486e+003;6.343364e-002
1.176414e+003;5.928618e-002
1.178343e+003;5.632033e-002
1.180271e+003;5.492170e-002
1.182200e+003;5.450157e-002
1.184128e+003;5.459590e-002
1.186057e+003;5.483132e-002
1.187986e+003;5.532783e-002
1.189914e+003;5.592880e-002
1.191843e+003;5.609240e-002
1.193771e+003;5.599314e-002
1.195700e+003;5.626880e-002
1.197628e+003;5.674729e-002
1.199557e+003;5.675446e-002
1.201485e+003;5.641325e-002
1.203414e+003;5.604229e-002
1.205343e+003;5.568404e-002
1.207271e+003;5.614153e-002
1.209200e+003;5.769214e-002
1.211128e+003;5.990350e-002
1.213057e+003;6.213588e-002
1.214985e+003;6.270891e-002
1.216914e+003;6.086607e-002
1.218842e+003;5.876088e-002
1.220771e+003;5.759418e-002
1.222699e+003;5.745842e-002
1.224628e+003;5.759596e-002
1.226557e+003;5.787276e-002
1.228485e+003;5.834896e-002
1.230414e+003;5.848701e-002
1.232342e+003;5.887739e-002
1.234271e+003;5.967869e-002
1.236199e+003;6.021846e-002
1.238128e+003;6.030316e-002
1.240056e+003;6.026760e-002
1.241985e+003;6.070783e-002
1.243913e+003;6.107654e-002
1.245842e+003;6.171509e-002
1.247771e+003;6.278467e-002
1.249699e+003;6.468583e-002
1.251628e+003;6.774670e-002
1.253556e+003;7.146236e-002
1.255485e+003;7.449523e-002
1.257413e+003;7.513043e-002
1.259342e+003;7.317615e-002
1.261270e+003;7.034803e-002
1.263199e+003;6.806722e-002
1.265127e+003;6.656248e-002
1.267056e+003;6.543721e-002
1.268985e+003;6.401979e-002
1.270913e+003;6.256592e-002
1.272842e+003;6.134465e-002
1.274770e+003;6.060107e-002
1.276699e+003;6.028378e-002
1.278627e+003;5.995256e-002
1.280556e+003;5.982488e-002
1.282484e+003;6.013599e-002
1.284413e+003;6.106086e-002
1.286342e+003;6.226485e-002
1.288270e+003;6.305292e-002
1.290199e+003;6.426641e-002
1.292127e+003;6.578120e-002
1.294056e+003;6.665789e-002
1.295984e+003;6.720288e-002
1.297913e+003;6.773338e-002
1.299841e+003;6.813904e-002
1.301770e+003;6.881449e-002
1.303698e+003;6.935237e-002
1.305627e+003;6.848672e-002
1.307556e+003;6.679899e-002
1.309484e+003;6.556319e-002
1.311413e+003;6.544557e-002
1.313341e+003;6.614332e-002
1.315270e+003;6.732748e-002
1.317198e+003;6.860331e-002
1.319127e+003;6.995642e-002
1.321055e+003;7.104875e-002
1.322984e+003;7.229029e-002
1.324912e+003;7.413743e-002
1.326841e+003;7.585627e-002
1.328770e+003;7.744648e-002
1.330698e+003;7.840099e-002
1.332627e+003;7.834861e-002
1.334555e+003;7.823762e-002
1.336484e+003;7.840643e-002
1.338412e+003;7.865667e-002
1.340341e+003;7.941111e-002
1.342269e+003;8.110782e-002
1.344198e+003;8.350196e-002
1.346126e+003;8.631223e-002
1.348055e+003;8.933940e-002
1.349984e+003;9.311174e-002
1.351912e+003;9.806403e-002
1.353841e+003;1.041898e-001
1.355769e+003;1.111681e-001
1.357698e+003;1.169352e-001
1.359626e+003;1.195195e-001
1.361555e+003;1.197192e-001
1.363483e+003;1.205323e-001
1.365412e+003;1.239596e-001
1.367341e+003;1.320195e-001
1.369269e+003;1.472271e-001
1.371198e+003;1.694712e-001
1.373126e+003;1.950843e-001
1.375055e+003;2.152885e-001
1.376983e+003;2.166748e-001
1.378912e+003;1.973263e-001
1.380840e+003;1.702251e-001
1.382769e+003;1.456217e-001
1.384698e+003;1.273929e-001
1.386626e+003;1.159629e-001
1.388555e+003;1.109716e-001
1.390483e+003;1.102933e-001
1.392412e+003;1.105120e-001
1.394340e+003;1.111681e-001
1.396269e+003;1.135099e-001
1.398197e+003;1.158851e-001
1.400126e+003;1.180178e-001
1.402054e+003;1.201267e-001
1.403983e+003;1.214937e-001
1.405911e+003;1.229898e-001
1.407840e+003;1.250391e-001
1.409769e+003;1.269785e-001
1.411697e+003;1.294697e-001
1.413626e+003;1.325148e-001
1.415554e+003;1.353227e-001
1.417483e+003;1.366162e-001
1.419411e+003;1.386266e-001
1.421340e+003;1.430171e-001
1.423268e+003;1.462909e-001
1.425197e+003;1.493791e-001
1.427125e+003;1.526858e-001
1.429054e+003;1.555502e-001
1.430983e+003;1.597222e-001
1.432911e+003;1.643109e-001
1.434840e+003;1.661154e-001
1.436768e+003;1.656365e-001
1.438697e+003;1.670141e-001
1.440625e+003;1.690989e-001
1.442554e+003;1.715331e-001
1.444482e+003;1.753925e-001
1.446411e+003;1.806686e-001
1.448340e+003;1.863638e-001
1.450268e+003;1.912258e-001
1.452197e+003;1.934640e-001
1.454125e+003;1.922093e-001
1.456054e+003;1.871374e-001
1.457982e+003;1.843978e-001
1.459911e+003;1.830918e-001
1.461839e+003;1.779007e-001
1.463768e+003;1.688991e-001
1.465697e+003;1.594725e-001
1.467625e+003;1.507369e-001
1.469554e+003;1.407422e-001
1.471482e+003;1.298047e-001
1.473411e+003;1.220725e-001
1.475339e+003;1.175817e-001
1.477268e+003;1.137242e-001
1.479196e+003;1.103464e-001
1.481125e+003;1.065751e-001
1.483053e+003;1.032255e-001
1.484982e+003;1.000065e-001
1.486911e+003;9.650199e-002
1.488839e+003;9.309121e-002
1.490768e+003;9.105131e-002
1.492696e+003;9.003405e-002
1.494625e+003;8.743966e-002
1.496553e+003;8.465692e-002
1.498482e+003;8.352228e-002
1.500410e+003;8.268975e-002
1.502339e+003;8.091524e-002
1.504267e+003;7.602561e-002
1.506196e+003;7.100688e-002
1.508125e+003;7.104114e-002
1.510053e+003;7.199089e-002
1.511982e+003;7.114113e-002
1.513910e+003;6.976134e-002
1.515839e+003;6.712078e-002
1.517767e+003;6.485610e-002
1.519696e+003;6.209608e-002
1.521624e+003;6.005928e-002
1.523553e+003;6.082399e-002
1.525481e+003;6.066897e-002
1.527410e+003;6.034549e-002
1.529339e+003;5.991346e-002
1.531267e+003;5.831928e-002
1.533196e+003;5.625971e-002
1.535124e+003;5.621544e-002
1.537053e+003;5.404806e-002
1.538981e+003;4.908252e-002
1.540910e+003;4.844212e-002
1.542838e+003;5.054600e-002
1.544767e+003;5.215171e-002
1.546695e+003;5.369828e-002
1.548624e+003;5.361074e-002
1.550553e+003;5.301993e-002
1.552481e+003;5.215985e-002
1.554410e+003;5.072523e-002
1.556338e+003;4.792988e-002
1.558267e+003;4.297715e-002
1.560195e+003;4.375643e-002
1.562124e+003;4.782333e-002
1.564052e+003;4.867812e-002
1.565981e+003;4.834633e-002
1.567910e+003;4.682402e-002
1.569838e+003;4.534848e-002
1.571767e+003;4.594540e-002
1.573695e+003;4.492534e-002
1.575624e+003;4.212076e-002
1.577552e+003;4.314930e-002
1.579481e+003;4.506095e-002
1.581409e+003;4.503874e-002
1.583338e+003;4.472931e-002
1.585266e+003;4.431396e-002
1.587195e+003;4.399818e-002
1.589124e+003;4.330251e-002
1.591052e+003;4.265254e-002
1.592981e+003;4.213577e-002
1.594909e+003;4.197767e-002
1.596838e+003;4.226584e-002
1.598766e+003;4.231163e-002
1.600695e+003;4.181146e-002
1.602623e+003;4.159390e-002
1.604552e+003;4.177910e-002
1.606480e+003;4.164856e-002
1.608409e+003;4.108599e-002
1.610338e+003;4.097579e-002
1.612266e+003;4.142882e-002
1.614195e+003;4.097212e-002
1.616123e+003;3.944487e-002
1.618052e+003;4.060171e-002
1.619980e+003;4.192913e-002
1.621909e+003;4.069733e-002
1.623837e+003;3.985228e-002
1.625766e+003;3.987411e-002
1.627694e+003;3.945460e-002
1.629623e+003;3.981666e-002
1.631552e+003;3.985853e-002
1.633480e+003;3.751066e-002
1.635409e+003;3.525472e-002
1.637337e+003;3.720607e-002
1.639266e+003;3.907671e-002
1.641194e+003;3.936622e-002
1.643123e+003;3.876656e-002
1.645051e+003;3.635572e-002
1.646980e+003;3.565840e-002
1.648909e+003;3.722094e-002
1.650837e+003;3.444257e-002
1.652766e+003;3.008031e-002
1.654694e+003;3.405920e-002
1.656623e+003;3.844009e-002
1.658551e+003;3.889236e-002
1.660480e+003;3.804858e-002
1.662408e+003;3.690873e-002
1.664337e+003;3.712663e-002
1.666266e+003;3.711172e-002
1.668194e+003;3.555816e-002
1.670123e+003;3.496438e-002
1.672051e+003;3.552738e-002
1.673980e+003;3.445642e-002
1.675908e+003;3.436700e-002
1.677837e+003;3.589805e-002
1.679765e+003;3.559455e-002
1.681694e+003;3.359789e-002
1.683622e+003;2.975487e-002
1.685551e+003;3.042522e-002
1.687479e+003;3.316920e-002
1.689408e+003;3.346843e-002
1.691337e+003;3.376708e-002
1.693265e+003;3.226378e-002
1.695194e+003;2.871131e-002
1.697122e+003;2.868465e-002
1.699051e+003;2.762876e-002
1.700979e+003;2.743318e-002
1.702908e+003;3.022102e-002
1.704836e+003;3.029204e-002
1.706765e+003;3.043712e-002
1.708693e+003;3.090205e-002
1.710622e+003;3.104050e-002
1.712551e+003;3.013599e-002
1.714479e+003;2.813791e-002
1.716408e+003;2.576428e-002
1.718336e+003;2.647638e-002
1.720265e+003;2.920597e-002
1.722193e+003;3.006326e-002
1.724122e+003;3.017399e-002
1.726050e+003;3.044068e-002
1.727979e+003;2.996232e-002
1.729908e+003;2.912535e-002
1.731836e+003;2.671803e-002
1.733765e+003;2.402020e-002
1.735693e+003;2.613881e-002
1.737622e+003;2.786501e-002
1.739550e+003;2.697847e-002
1.741479e+003;2.721995e-002
1.743407e+003;2.737869e-002
1.745336e+003;2.706750e-002
1.747265e+003;2.601644e-002
1.749193e+003;2.448766e-002
1.751122e+003;2.369685e-002
1.753050e+003;2.465642e-002
1.754979e+003;2.456241e-002
1.756907e+003;2.401908e-002
1.758836e+003;2.425369e-002
1.760764e+003;2.347537e-002
1.762693e+003;2.293364e-002
1.764621e+003;2.347341e-002
1.766550e+003;2.300197e-002
1.768479e+003;2.225446e-002
1.770407e+003;2.141997e-002
1.772336e+003;2.041192e-002
1.774264e+003;2.155638e-002
1.776193e+003;2.263251e-002
1.778121e+003;2.261076e-002
1.780050e+003;2.246708e-002
1.781978e+003;2.312130e-002
1.783907e+003;2.355099e-002
1.785835e+003;2.443000e-002
1.787764e+003;2.638535e-002
1.789693e+003;2.838209e-002
1.791621e+003;3.037845e-002
1.793550e+003;3.332701e-002
1.795478e+003;3.603516e-002
1.797407e+003;3.657824e-002
1.799335e+003;3.549128e-002
1.801264e+003;3.348471e-002
1.803192e+003;3.082354e-002
1.805121e+003;2.785148e-002
1.807049e+003;2.519395e-002
1.808978e+003;2.307524e-002
1.810907e+003;2.217648e-002
1.812835e+003;2.197637e-002
1.814764e+003;2.167426e-002
1.816692e+003;2.113700e-002
1.818621e+003;2.096546e-002
1.820549e+003;2.087938e-002
1.822478e+003;2.051647e-002
1.824406e+003;1.975820e-002
1.826335e+003;1.973434e-002
1.828264e+003;1.952725e-002
1.830192e+003;1.930792e-002
1.832121e+003;2.016105e-002
1.834049e+003;2.059112e-002
1.835978e+003;2.031448e-002
1.837906e+003;2.023325e-002
1.839835e+003;2.030136e-002
1.841763e+003;1.959383e-002
1.843692e+003;1.818857e-002
1.845620e+003;1.836675e-002
1.847549e+003;1.908759e-002
1.849478e+003;1.928436e-002
1.851406e+003;1.950403e-002
1.853335e+003;1.963037e-002
1.855263e+003;1.923275e-002
1.857192e+003;1.895909e-002
1.859120e+003;1.908977e-002
1.861049e+003;1.911429e-002
1.862977e+003;1.915667e-002
1.864906e+003;1.892939e-002
1.866834e+003;1.802407e-002
1.868763e+003;1.748771e-002
1.870692e+003;1.814639e-002
1.872620e+003;1.867962e-002
1.874549e+003;1.839686e-002
1.876477e+003;1.814014e-002
1.878406e+003;1.840903e-002
1.880334e+003;1.869335e-002
1.882263e+003;1.848225e-002
1.884191e+003;1.842725e-002
1.886120e+003;1.852316e-002
1.888048e+003;1.826148e-002
1.889977e+003;1.813485e-002
1.891906e+003;1.848913e-002
1.893834e+003;1.860387e-002
1.895763e+003;1.854899e-002
1.897691e+003;1.851181e-002
1.899620e+003;1.841563e-002
1.901548e+003;1.829383e-002
1.903477e+003;1.843288e-002
1.905405e+003;1.843423e-002
1.907334e+003;1.821134e-002
1.909262e+003;1.787510e-002
1.911191e+003;1.786674e-002
1.913120e+003;1.801851e-002
1.915048e+003;1.779663e-002
1.916977e+003;1.720884e-002
1.918905e+003;1.735617e-002
1.920834e+003;1.768856e-002
1.922762e+003;1.765084e-002
1.924691e+003;1.777316e-002
1.926619e+003;1.772369e-002
1.928548e+003;1.751555e-002
1.930477e+003;1.750313e-002
1.932405e+003;1.752801e-002
1.934334e+003;1.743153e-002
1.936262e+003;1.725711e-002
1.938191e+003;1.720398e-002
1.940119e+003;1.701435e-002
1.942048e+003;1.682618e-002
1.943976e+003;1.677611e-002
1.945905e+003;1.679195e-002
1.947833e+003;1.686552e-002
1.949762e+003;1.699802e-002
1.951691e+003;1.700325e-002
1.953619e+003;1.685129e-002
1.955548e+003;1.691130e-002
1.957476e+003;1.707042e-002
1.959405e+003;1.705436e-002
1.961333e+003;1.686731e-002
1.963262e+003;1.661940e-002
1.965190e+003;1.649834e-002
1.967119e+003;1.638206e-002
1.969047e+003;1.637184e-002
1.970976e+003;1.638306e-002
1.972905e+003;1.630327e-002
1.974833e+003;1.629842e-002
1.976762e+003;1.635244e-002
1.978690e+003;1.624875e-002
1.980619e+003;1.616249e-002
1.982547e+003;1.624806e-002
1.984476e+003;1.630888e-002
1.986404e+003;1.629085e-002
1.988333e+003;1.630451e-002
1.990261e+003;1.609196e-002
1.992190e+003;1.591131e-002
1.994119e+003;1.618326e-002
1.996047e+003;1.642731e-002
1.997976e+003;1.620232e-002
1.999904e+003;1.602375e-002
2.001833e+003;1.597545e-002
2.003761e+003;1.583728e-002
2.005690e+003;1.579120e-002
2.007618e+003;1.595513e-002
2.009547e+003;1.600556e-002
2.011476e+003;1.608883e-002
2.013404e+003;1.604084e-002
2.015333e+003;1.594369e-002
2.017261e+003;1.593564e-002
2.019190e+003;1.598920e-002
2.021118e+003;1.590203e-002
2.023047e+003;1.570706e-002
2.024975e+003;1.556719e-002
2.026904e+003;1.560047e-002
2.028833e+003;1.565422e-002
2.030761e+003;1.569658e-002
2.032690e+003;1.579285e-002
2.034618e+003;1.568194e-002
2.036547e+003;1.535071e-002
2.038475e+003;1.530018e-002
2.040404e+003;1.523539e-002
2.042332e+003;1.531903e-002
2.044261e+003;1.564220e-002
2.046189e+003;1.581652e-002
2.048118e+003;1.573379e-002
2.050047e+003;1.579223e-002
2.051975e+003;1.574378e-002
2.053904e+003;1.575052e-002
2.055832e+003;1.575076e-002
2.057761e+003;1.565628e-002
2.059689e+003;1.568816e-002
2.061618e+003;1.565628e-002
2.063546e+003;1.528845e-002
2.065475e+003;1.495806e-002
2.067404e+003;1.505835e-002
2.069332e+003;1.539633e-002
2.071260e+003;1.557962e-002
2.073189e+003;1.556808e-002
2.075118e+003;1.543526e-002
2.077046e+003;1.558086e-002
2.078975e+003;1.577862e-002
2.080903e+003;1.572059e-002
2.082832e+003;1.545435e-002
2.084760e+003;1.568950e-002
2.086689e+003;1.613439e-002
2.088617e+003;1.609327e-002
2.090546e+003;1.588718e-002
2.092475e+003;1.582298e-002
2.094403e+003;1.605644e-002
2.096332e+003;1.637408e-002
2.098260e+003;1.631387e-002
2.100189e+003;1.619877e-002
2.102117e+003;1.619296e-002
2.104046e+003;1.627775e-002
2.105974e+003;1.639569e-002
2.107903e+003;1.626189e-002
2.109832e+003;1.592344e-002
2.111760e+003;1.587113e-002
2.113688e+003;1.600921e-002
2.115617e+003;1.633733e-002
2.117546e+003;1.658105e-002
2.119474e+003;1.670888e-002
2.121403e+003;1.672255e-002
2.123331e+003;1.704071e-002
2.125260e+003;1.746926e-002
2.127188e+003;1.741404e-002
2.129117e+003;1.753232e-002
2.131045e+003;1.792865e-002
2.132974e+003;1.811695e-002
2.134903e+003;1.809149e-002
2.136831e+003;1.804642e-002
2.138760e+003;1.789965e-002
2.140688e+003;1.769256e-002
2.142617e+003;1.754591e-002
2.144545e+003;1.747895e-002
2.146474e+003;1.729489e-002
2.148402e+003;1.699709e-002
2.150331e+003;1.710164e-002
2.152260e+003;1.747336e-002
2.154188e+003;1.760353e-002
2.156117e+003;1.769760e-002
2.158045e+003;1.769291e-002
2.159974e+003;1.752601e-002
2.161902e+003;1.752231e-002
2.163831e+003;1.785159e-002
2.165759e+003;1.820284e-002
2.167688e+003;1.835341e-002
2.169616e+003;1.834902e-002
2.171545e+003;1.828087e-002
2.173474e+003;1.816390e-002
2.175402e+003;1.812908e-002
2.177331e+003;1.833157e-002
2.179259e+003;1.853481e-002
2.181188e+003;1.856655e-002
2.183116e+003;1.832421e-002
2.185045e+003;1.782911e-002
2.186973e+003;1.768659e-002
2.188902e+003;1.764653e-002
2.190831e+003;1.774502e-002
2.192759e+003;1.787720e-002
2.194688e+003;1.777067e-002
2.196616e+003;1.762727e-002
2.198545e+003;1.744518e-002
2.200473e+003;1.707727e-002
2.202402e+003;1.707586e-002
2.204330e+003;1.733551e-002
2.206259e+003;1.744939e-002
2.208188e+003;1.734934e-002
2.210116e+003;1.716037e-002
2.212044e+003;1.704150e-002
2.213973e+003;1.687313e-002
2.215902e+003;1.690606e-002
2.217830e+003;1.725679e-002
2.219759e+003;1.722652e-002
2.221687e+003;1.681282e-002
2.223616e+003;1.649345e-002
2.225544e+003;1.639827e-002
2.227473e+003;1.670028e-002
2.229401e+003;1.690989e-002
2.231330e+003;1.691939e-002
2.233259e+003;1.720050e-002
2.235187e+003;1.727796e-002
2.237116e+003;1.700601e-002
2.239044e+003;1.700339e-002
2.240973e+003;1.683224e-002
2.242901e+003;1.676632e-002
2.244830e+003;1.681671e-002
2.246758e+003;1.685009e-002
2.248687e+003;1.720629e-002
2.250615e+003;1.750938e-002
2.252544e+003;1.767527e-002
2.254473e+003;1.777274e-002
2.256401e+003;1.799993e-002
2.258330e+003;1.796550e-002
2.260258e+003;1.762589e-002
2.262187e+003;1.761074e-002
2.264115e+003;1.754753e-002
2.266044e+003;1.724018e-002
2.267972e+003;1.716678e-002
2.269901e+003;1.718223e-002
2.271830e+003;1.702493e-002
2.273758e+003;1.695491e-002
2.275687e+003;1.672004e-002
2.277615e+003;1.639885e-002
2.279544e+003;1.635041e-002
2.281472e+003;1.627118e-002
2.283401e+003;1.614550e-002
2.285329e+003;1.632570e-002
2.287258e+003;1.663217e-002
2.289187e+003;1.654883e-002
2.291115e+003;1.637865e-002
2.293043e+003;1.625983e-002
2.294972e+003;1.628621e-002
2.296901e+003;1.625904e-002
2.298829e+003;1.596359e-002
2.300758e+003;1.590058e-002
2.302686e+003;1.593929e-002
2.304615e+003;1.581972e-002
2.306543e+003;1.580896e-002
2.308472e+003;1.572523e-002
2.310400e+003;1.523748e-002
2.312329e+003;1.475878e-002
2.314258e+003;1.434988e-002
2.316186e+003;1.404409e-002
2.318115e+003;1.376301e-002
2.320043e+003;1.316829e-002
2.321972e+003;1.253587e-002
2.323900e+003;1.228800e-002
2.325829e+003;1.207949e-002
2.327757e+003;1.153123e-002
2.329686e+003;1.103440e-002
2.331615e+003;1.085505e-002
2.333543e+003;1.085176e-002
2.335472e+003;1.052293e-002
2.337400e+003;1.043895e-002
2.339329e+003;1.097296e-002
2.341257e+003;1.176811e-002
2.343186e+003;1.285842e-002
2.345114e+003;1.397357e-002
2.347043e+003;1.532623e-002
2.348971e+003;1.604781e-002
2.350900e+003;1.493786e-002
2.352829e+003;1.306932e-002
2.354757e+003;1.166126e-002
2.356686e+003;1.049492e-002
2.358614e+003;9.308827e-003
2.360543e+003;8.918994e-003
2.362471e+003;9.116659e-003
2.364400e+003;9.557134e-003
2.366328e+003;1.032761e-002
2.368257e+003;1.129216e-002
2.370186e+003;1.270424e-002
2.372114e+003;1.432320e-002
2.374042e+003;1.571321e-002
2.375971e+003;1.683421e-002
2.377900e+003;1.755454e-002
2.379828e+003;1.805108e-002
2.381757e+003;1.857603e-002
2.383685e+003;1.873904e-002
2.385614e+003;1.885942e-002
2.387542e+003;1.891877e-002
2.389471e+003;1.905782e-002
2.391399e+003;1.924533e-002
2.393328e+003;1.929261e-002
2.395257e+003;1.916321e-002
2.397185e+003;1.925308e-002
2.399114e+003;1.942266e-002
2.401042e+003;1.933262e-002
2.402971e+003;1.934616e-002
2.404899e+003;1.949987e-002
2.406828e+003;1.937024e-002
2.408756e+003;1.964714e-002
2.410685e+003;1.999507e-002
2.412614e+003;1.985152e-002
2.414542e+003;1.940274e-002
2.416471e+003;1.926161e-002
2.418399e+003;1.970754e-002
2.420328e+003;2.006491e-002
2.422256e+003;1.995739e-002
2.424185e+003;1.977075e-002
2.426113e+003;1.982613e-002
2.428042e+003;2.002737e-002
2.429970e+003;2.022790e-002
2.431899e+003;2.012523e-002
2.433828e+003;1.973320e-002
2.435756e+003;1.967262e-002
2.437685e+003;1.960610e-002
2.439613e+003;1.947797e-002
2.441542e+003;1.954094e-002
2.443470e+003;1.928571e-002
2.445399e+003;1.914209e-002
2.447327e+003;1.918281e-002
2.449256e+003;1.935818e-002
2.451185e+003;1.941819e-002
2.453113e+003;1.933601e-002
2.455042e+003;1.925042e-002
2.456970e+003;1.914999e-002
2.458899e+003;1.912346e-002
2.460827e+003;1.915019e-002
2.462756e+003;1.915681e-002
2.464684e+003;1.921225e-002
2.466613e+003;1.925669e-002
2.468542e+003;1.907720e-002
2.470470e+003;1.924643e-002
2.472398e+003;1.969721e-002
2.474327e+003;2.002095e-002
2.476256e+003;2.051258e-002
2.478184e+003;2.104468e-002
2.480113e+003;2.122408e-002
2.482041e+003;2.122046e-002
2.483970e+003;2.160673e-002
2.485898e+003;2.205794e-002
2.487827e+003;2.244684e-002
2.489755e+003;2.293969e-002
2.491684e+003;2.351493e-002
2.493613e+003;2.393655e-002
2.495541e+003;2.439088e-002
2.497470e+003;2.506777e-002
2.499398e+003;2.603136e-002
2.501327e+003;2.739750e-002
2.503255e+003;2.861960e-002
2.505184e+003;2.944950e-002
2.507112e+003;2.996726e-002
2.509041e+003;3.049317e-002
2.510969e+003;3.123141e-002
2.512898e+003;3.178655e-002
2.514827e+003;3.203325e-002
2.516755e+003;3.214998e-002
2.518684e+003;3.236575e-002
2.520612e+003;3.252785e-002
2.522541e+003;3.231724e-002
2.524469e+003;3.191227e-002
2.526398e+003;3.148403e-002
2.528326e+003;3.083890e-002
2.530255e+003;3.019087e-002
2.532184e+003;2.950964e-002
2.534112e+003;2.871035e-002
2.536041e+003;2.815566e-002
2.537969e+003;2.758268e-002
2.539898e+003;2.731700e-002
2.541826e+003;2.728903e-002
2.543755e+003;2.715666e-002
2.545683e+003;2.755016e-002
2.547612e+003;2.815251e-002
2.549541e+003;2.832072e-002
2.551469e+003;2.821502e-002
2.553397e+003;2.860028e-002
2.555326e+003;2.910689e-002
2.557255e+003;2.917060e-002
2.559183e+003;2.940451e-002
2.561112e+003;2.956344e-002
2.563040e+003;2.948744e-002
2.564969e+003;2.974675e-002
2.566897e+003;3.014665e-002
2.568826e+003;3.066492e-002
2.570754e+003;3.125630e-002
2.572683e+003;3.184085e-002
2.574612e+003;3.235751e-002
2.576540e+003;3.286052e-002
2.578469e+003;3.310840e-002
2.580397e+003;3.332047e-002
2.582326e+003;3.366993e-002
2.584254e+003;3.353335e-002
2.586183e+003;3.286699e-002
2.588111e+003;3.226050e-002
2.590040e+003;3.183098e-002
2.591969e+003;3.157570e-002
2.593897e+003;3.132246e-002
2.595826e+003;3.117124e-002
2.597754e+003;3.104399e-002
2.599683e+003;3.087252e-002
2.601611e+003;3.091084e-002
2.603540e+003;3.106606e-002
2.605468e+003;3.127385e-002
2.607397e+003;3.191826e-002
2.609325e+003;3.229661e-002
2.611254e+003;3.228609e-002
2.613183e+003;3.213920e-002
2.615111e+003;3.207335e-002
2.617040e+003;3.214117e-002
2.618968e+003;3.208954e-002
2.620897e+003;3.189470e-002
2.622825e+003;3.176969e-002
2.624754e+003;3.163539e-002
2.626682e+003;3.116145e-002
2.628611e+003;3.064778e-002
2.630540e+003;3.048389e-002
2.632468e+003;3.050376e-002
2.634396e+003;3.066904e-002
2.636325e+003;3.074795e-002
2.638254e+003;3.068785e-002
2.640182e+003;3.077399e-002
2.642111e+003;3.085182e-002
2.644039e+003;3.105534e-002
2.645968e+003;3.151035e-002
2.647896e+003;3.165894e-002
2.649825e+003;3.201898e-002
2.651753e+003;3.240120e-002
2.653682e+003;3.270637e-002
2.655611e+003;3.306013e-002
2.657539e+003;3.323179e-002
2.659468e+003;3.363734e-002
2.661396e+003;3.381898e-002
2.663325e+003;3.367261e-002
2.665253e+003;3.366914e-002
2.667182e+003;3.357412e-002
2.669110e+003;3.358225e-002
2.671039e+003;3.406880e-002
2.672968e+003;3.460889e-002
2.674896e+003;3.490391e-002
2.676825e+003;3.503725e-002
2.678753e+003;3.511441e-002
2.680682e+003;3.503984e-002
2.682610e+003;3.484183e-002
2.684539e+003;3.479498e-002
2.686467e+003;3.504954e-002
2.688396e+003;3.513176e-002
2.690324e+003;3.511498e-002
2.692253e+003;3.523140e-002
2.694182e+003;3.526988e-002
2.696110e+003;3.520481e-002
2.698039e+003;3.543663e-002
2.699967e+003;3.599279e-002
2.701896e+003;3.662316e-002
2.703824e+003;3.725545e-002
2.705753e+003;3.790878e-002
2.707681e+003;3.862794e-002
2.709610e+003;3.957563e-002
2.711539e+003;4.071156e-002
2.713467e+003;4.215968e-002
2.715396e+003;4.385040e-002
2.717324e+003;4.557227e-002
2.719253e+003;4.706150e-002
2.721181e+003;4.806418e-002
2.723110e+003;4.859595e-002
2.725038e+003;4.825138e-002
2.726967e+003;4.717736e-002
2.728896e+003;4.580340e-002
2.730824e+003;4.445848e-002
2.732752e+003;4.343446e-002
2.734681e+003;4.234772e-002
2.736610e+003;4.111597e-002
2.738538e+003;4.013184e-002
2.740467e+003;3.933771e-002
2.742395e+003;3.838033e-002
2.744324e+003;3.757609e-002
2.746252e+003;3.713937e-002
2.748181e+003;3.709328e-002
2.750109e+003;3.688160e-002
2.752038e+003;3.664432e-002
2.753967e+003;3.693629e-002
2.755895e+003;3.701003e-002
2.757824e+003;3.684560e-002
2.759752e+003;3.725650e-002
2.761681e+003;3.798659e-002
2.763609e+003;3.821556e-002
2.765538e+003;3.821292e-002
2.767466e+003;3.873088e-002
2.769395e+003;3.925000e-002
2.771323e+003;3.968013e-002
2.773252e+003;4.047105e-002
2.775181e+003;4.139642e-002
2.777109e+003;4.231105e-002
2.779038e+003;4.307823e-002
2.780966e+003;4.400973e-002
2.782895e+003;4.508675e-002
2.784823e+003;4.651685e-002
2.786752e+003;4.790180e-002
2.788680e+003;4.956191e-002
2.790609e+003;5.153516e-002
2.792538e+003;5.344875e-002
2.794466e+003;5.463625e-002
2.796395e+003;5.557554e-002
2.798323e+003;5.702547e-002
2.800252e+003;5.867372e-002
2.802180e+003;6.032695e-002
2.804109e+003;6.227617e-002
2.806037e+003;6.450155e-002
2.807966e+003;6.650636e-002
2.809895e+003;6.849161e-002
2.811823e+003;7.066532e-002
2.813751e+003;7.282896e-002
2.815680e+003;7.467104e-002
2.817609e+003;7.670584e-002
2.819537e+003;7.931664e-002
2.821466e+003;8.233672e-002
2.823394e+003;8.611306e-002
2.825323e+003;9.087576e-002
2.827251e+003;9.649716e-002
2.829180e+003;1.036059e-001
2.831108e+003;1.127747e-001
2.833037e+003;1.223355e-001
2.834966e+003;1.298175e-001
2.836894e+003;1.337219e-001
2.838823e+003;1.341452e-001
2.840751e+003;1.315264e-001
2.842680e+003;1.269236e-001
2.844608e+003;1.213818e-001
2.846537e+003;1.163167e-001
2.848465e+003;1.124983e-001
2.850394e+003;1.095066e-001
2.852323e+003;1.076409e-001
2.854251e+003;1.070906e-001
2.856180e+003;1.079842e-001
2.858108e+003;1.109005e-001
2.860037e+003;1.164302e-001
2.861965e+003;1.240957e-001
2.863894e+003;1.320894e-001
2.865822e+003;1.383528e-001
2.867751e+003;1.420470e-001
2.869679e+003;1.435909e-001
2.871608e+003;1.438068e-001
2.873536e+003;1.436657e-001
2.875465e+003;1.437136e-001
2.877394e+003;1.430467e-001
2.879322e+003;1.415743e-001
2.881251e+003;1.402362e-001
2.883179e+003;1.394869e-001
2.885108e+003;1.395760e-001
2.887036e+003;1.406398e-001
2.888965e+003;1.419901e-001
2.890893e+003;1.441270e-001
2.892822e+003;1.469889e-001
2.894750e+003;1.504783e-001
2.896679e+003;1.548394e-001
2.898608e+003;1.598656e-001
2.900536e+003;1.650204e-001
2.902465e+003;1.700367e-001
2.904393e+003;1.749096e-001
2.906322e+003;1.795630e-001
2.908250e+003;1.837513e-001
2.910179e+003;1.873485e-001
2.912107e+003;1.906381e-001
2.914036e+003;1.928875e-001
2.915965e+003;1.935921e-001
2.917893e+003;1.928452e-001
2.919822e+003;1.903496e-001
2.921750e+003;1.859087e-001
2.923679e+003;1.803604e-001
2.925607e+003;1.746832e-001
2.927536e+003;1.680374e-001
2.929464e+003;1.596974e-001
2.931393e+003;1.511259e-001
2.933322e+003;1.432758e-001
2.935250e+003;1.365790e-001
2.937178e+003;1.319853e-001
2.939107e+003;1.298940e-001
2.941036e+003;1.309920e-001
2.942964e+003;1.359919e-001
2.944893e+003;1.434119e-001
2.946821e+003;1.516993e-001
2.948750e+003;1.590426e-001
2.950678e+003;1.630798e-001
2.952607e+003;1.634782e-001
2.954535e+003;1.612820e-001
2.956464e+003;1.573120e-001
2.958393e+003;1.519494e-001
2.960321e+003;1.466020e-001
2.962250e+003;1.406243e-001
2.964178e+003;1.336471e-001
2.966107e+003;1.265836e-001
2.968035e+003;1.198065e-001
2.969964e+003;1.131268e-001
2.971892e+003;1.065160e-001
2.973821e+003;1.005912e-001
2.975750e+003;9.544221e-002
2.977678e+003;9.112614e-002
2.979607e+003;8.729387e-002
2.981535e+003;8.369705e-002
2.983464e+003;8.038918e-002
2.985392e+003;7.743020e-002
2.987321e+003;7.475577e-002
2.989249e+003;7.204694e-002
2.991178e+003;6.947573e-002
2.993106e+003;6.706107e-002
2.995035e+003;6.424147e-002
2.996964e+003;6.163958e-002
2.998892e+003;5.954197e-002
3.000821e+003;5.744514e-002
3.002749e+003;5.510877e-002
3.004678e+003;5.309866e-002
3.006606e+003;5.127061e-002
3.008535e+003;4.939426e-002
3.010463e+003;4.745421e-002
3.012392e+003;4.555045e-002
3.014321e+003;4.418056e-002
3.016249e+003;4.269009e-002
3.018177e+003;4.148470e-002
3.020106e+003;4.060455e-002
3.022035e+003;3.948544e-002
3.023963e+003;3.836751e-002
3.025892e+003;3.765691e-002
3.027820e+003;3.718593e-002
3.029749e+003;3.624797e-002
3.031677e+003;3.534522e-002
3.033606e+003;3.486818e-002
3.035534e+003;3.437210e-002
3.037463e+003;3.410862e-002
3.039392e+003;3.356922e-002
3.041320e+003;3.298023e-002
3.043249e+003;3.264625e-002
3.045177e+003;3.198357e-002
3.047106e+003;3.126598e-002
3.049034e+003;3.094058e-002
3.050963e+003;3.091286e-002
3.052891e+003;3.089088e-002
3.054820e+003;3.057937e-002
3.056749e+003;3.006873e-002
3.058677e+003;2.969125e-002
3.060606e+003;2.953081e-002
3.062534e+003;2.939816e-002
3.064463e+003;2.935792e-002
3.066391e+003;2.926512e-002
3.068320e+003;2.893289e-002
3.070248e+003;2.863489e-002
3.072177e+003;2.864664e-002
3.074105e+003;2.865616e-002
3.076034e+003;2.849264e-002
3.077963e+003;2.854440e-002
3.079891e+003;2.843076e-002
3.081820e+003;2.829469e-002
3.083748e+003;2.826665e-002
3.085677e+003;2.800038e-002
3.087605e+003;2.795232e-002
3.089534e+003;2.782032e-002
3.091462e+003;2.749241e-002
3.093391e+003;2.752644e-002
3.095320e+003;2.759383e-002
3.097248e+003;2.729513e-002
3.099177e+003;2.701549e-002
3.101105e+003;2.695446e-002
3.103034e+003;2.699296e-002
3.104962e+003;2.726574e-002
3.106891e+003;2.728405e-002
3.108819e+003;2.735413e-002
3.110748e+003;2.753678e-002
3.112677e+003;2.735395e-002
3.114605e+003;2.737262e-002
3.116533e+003;2.738906e-002
3.118462e+003;2.736168e-002
3.120391e+003;2.759443e-002
3.122319e+003;2.761622e-002
3.124248e+003;2.777786e-002
3.126176e+003;2.792405e-002
3.128105e+003;2.756167e-002
3.130033e+003;2.721148e-002
3.131962e+003;2.767424e-002
3.133890e+003;2.808573e-002
3.135819e+003;2.827248e-002
3.137748e+003;2.826895e-002
3.139676e+003;2.797062e-002
3.141605e+003;2.811387e-002
3.143533e+003;2.825943e-002
3.145462e+003;2.823595e-002
3.147390e+003;2.852165e-002
3.149319e+003;2.868249e-002
3.151247e+003;2.874122e-002
3.153176e+003;2.847212e-002
3.155104e+003;2.800476e-002
3.157033e+003;2.778100e-002
3.158962e+003;2.755366e-002
3.160890e+003;2.766304e-002
3.162819e+003;2.798303e-002
3.164747e+003;2.777970e-002
3.166676e+003;2.788536e-002
3.168604e+003;2.804668e-002
3.170533e+003;2.782004e-002
3.172461e+003;2.747663e-002
3.174390e+003;2.757904e-002
3.176319e+003;2.770369e-002
3.178247e+003;2.755860e-002
3.180176e+003;2.775628e-002
3.182104e+003;2.818104e-002
3.184033e+003;2.819685e-002
3.185961e+003;2.824936e-002
3.187890e+003;2.862884e-002
3.189818e+003;2.855116e-002
3.191747e+003;2.841293e-002
3.193676e+003;2.836631e-002
3.195604e+003;2.818362e-002
3.197532e+003;2.816029e-002
3.199461e+003;2.801784e-002
3.201390e+003;2.801416e-002
3.203318e+003;2.799889e-002
3.205247e+003;2.787646e-002
3.207175e+003;2.806587e-002
3.209104e+003;2.815138e-002
3.211032e+003;2.771266e-002
3.212961e+003;2.754995e-002
3.214889e+003;2.770906e-002
3.216818e+003;2.729185e-002
3.218747e+003;2.688484e-002
3.220675e+003;2.642067e-002
3.222604e+003;2.609173e-002
3.224532e+003;2.617900e-002
3.226461e+003;2.615950e-002
3.228389e+003;2.619399e-002
3.230318e+003;2.576624e-002
3.232246e+003;2.539723e-002
3.234175e+003;2.510579e-002
3.236104e+003;2.476704e-002
3.238032e+003;2.431056e-002
3.239961e+003;2.428508e-002
3.241889e+003;2.470853e-002
3.243818e+003;2.453169e-002
3.245746e+003;2.405325e-002
3.247675e+003;2.395864e-002
3.249603e+003;2.371246e-002
3.251532e+003;2.308981e-002
3.253460e+003;2.302825e-002
3.255389e+003;2.324069e-002
3.257318e+003;2.334232e-002
3.259246e+003;2.336850e-002
3.261175e+003;2.331249e-002
3.263103e+003;2.363023e-002
3.265032e+003;2.414453e-002
3.266960e+003;2.382956e-002
3.268889e+003;2.331683e-002
3.270817e+003;2.355022e-002
3.272746e+003;2.363678e-002
3.274675e+003;2.356173e-002
3.276603e+003;2.362775e-002
3.278531e+003;2.357153e-002
3.280460e+003;2.366697e-002
3.282389e+003;2.382172e-002
3.284317e+003;2.360452e-002
3.286246e+003;2.303600e-002
3.288174e+003;2.285059e-002
3.290103e+003;2.334676e-002
3.292031e+003;2.362271e-002
3.293960e+003;2.383425e-002
3.295888e+003;2.353746e-002
3.297817e+003;2.340526e-002
3.299746e+003;2.364279e-002
3.301674e+003;2.358227e-002
3.303603e+003;2.356334e-002
3.305531e+003;2.308957e-002
3.307460e+003;2.282111e-002
3.309388e+003;2.313957e-002
3.311317e+003;2.319263e-002
3.313245e+003;2.328438e-002
3.315174e+003;2.363782e-002
3.317103e+003;2.374388e-002
3.319031e+003;2.274527e-002
3.320960e+003;2.176368e-002
3.322888e+003;2.202022e-002
3.324817e+003;2.246251e-002
3.326745e+003;2.261380e-002
3.328674e+003;2.291335e-002
3.330602e+003;2.296068e-002
3.332531e+003;2.279398e-002
3.334459e+003;2.268389e-002
3.336388e+003;2.280554e-002
3.338317e+003;2.315890e-002
3.340245e+003;2.342862e-002
3.342174e+003;2.330536e-002
3.344102e+003;2.298007e-002
3.346031e+003;2.299209e-002
3.347959e+003;2.303925e-002
3.349888e+003;2.283714e-002
3.351816e+003;2.293850e-002
3.353745e+003;2.330061e-002
3.355674e+003;2.306783e-002
3.357602e+003;2.267178e-002
3.359531e+003;2.235830e-002
3.361459e+003;2.255010e-002
3.363388e+003;2.269859e-002
3.365316e+003;2.266130e-002
3.367245e+003;2.310875e-002
3.369173e+003;2.333057e-002
3.371102e+003;2.283602e-002
3.373031e+003;2.248020e-002
3.374959e+003;2.259456e-002
3.376887e+003;2.259194e-002
3.378816e+003;2.250389e-002
3.380745e+003;2.262420e-002
3.382673e+003;2.242936e-002
3.384602e+003;2.181660e-002
3.386530e+003;2.172898e-002
3.388459e+003;2.199603e-002
3.390387e+003;2.204162e-002
3.392316e+003;2.162961e-002
3.394244e+003;2.190967e-002
3.396173e+003;2.221351e-002
3.398102e+003;2.217833e-002
3.400030e+003;2.214064e-002
3.401959e+003;2.197554e-002
3.403887e+003;2.169596e-002
3.405816e+003;2.155199e-002
3.407744e+003;2.139481e-002
3.409673e+003;2.183057e-002
3.411601e+003;2.236632e-002
3.413530e+003;2.200572e-002
3.415458e+003;2.126712e-002
3.417387e+003;2.109289e-002
3.419316e+003;2.106061e-002
3.421244e+003;2.087886e-002
3.423173e+003;2.066169e-002
3.425101e+003;2.070284e-002
3.427030e+003;2.089074e-002
3.428958e+003;2.095277e-002
3.430887e+003;2.127067e-002
3.432815e+003;2.126914e-002
3.434744e+003;2.102743e-002
3.436673e+003;2.066228e-002
3.438601e+003;2.033476e-002
3.440530e+003;2.030209e-002
3.442458e+003;2.028341e-002
3.444387e+003;2.022353e-002
3.446315e+003;2.008633e-002
3.448244e+003;1.989946e-002
3.450172e+003;2.006485e-002
3.452101e+003;2.015372e-002
3.454030e+003;2.004073e-002
3.455958e+003;1.978833e-002
3.457886e+003;1.976184e-002
3.459815e+003;1.946175e-002
3.461744e+003;1.911065e-002
3.463672e+003;1.900658e-002
3.465601e+003;1.861501e-002
3.467529e+003;1.869636e-002
3.469458e+003;1.907052e-002
3.471386e+003;1.902607e-002
3.473315e+003;1.881769e-002
3.475243e+003;1.844778e-002
3.477172e+003;1.820637e-002
3.479101e+003;1.819911e-002
3.481029e+003;1.801879e-002
3.482958e+003;1.832853e-002
3.484886e+003;1.889146e-002
3.486815e+003;1.859370e-002
3.488743e+003;1.792233e-002
3.490672e+003;1.805478e-002
3.492600e+003;1.825395e-002
3.494529e+003;1.788138e-002
3.496458e+003;1.754653e-002
3.498386e+003;1.756699e-002
3.500315e+003;1.765781e-002
3.502243e+003;1.782093e-002
3.504172e+003;1.816155e-002
3.506100e+003;1.821542e-002
3.508029e+003;1.766737e-002
3.509957e+003;1.738300e-002
3.511886e+003;1.733313e-002
3.513814e+003;1.721735e-002
3.515743e+003;1.694065e-002
3.517672e+003;1.716778e-002
3.519600e+003;1.765681e-002
3.521529e+003;1.730465e-002
3.523457e+003;1.686662e-002
3.525386e+003;1.715320e-002
3.527314e+003;1.730517e-002
3.529243e+003;1.695774e-002
3.531171e+003;1.686324e-002
3.533100e+003;1.737231e-002
3.535029e+003;1.735944e-002
3.536957e+003;1.688353e-002
3.538885e+003;1.656608e-002
3.540814e+003;1.629753e-002
3.542743e+003;1.536883e-002
3.544671e+003;1.487428e-002
3.546600e+003;1.528162e-002
3.548528e+003;1.594592e-002
3.550457e+003;1.617769e-002
3.552385e+003;1.616015e-002
3.554314e+003;1.600302e-002
3.556242e+003;1.608835e-002
3.558171e+003;1.582467e-002
3.560100e+003;1.566535e-002
3.562028e+003;1.531813e-002
3.563957e+003;1.486077e-002
3.565885e+003;1.432591e-002
3.567814e+003;1.429978e-002
3.569742e+003;1.482680e-002
3.571671e+003;1.494204e-002
3.573599e+003;1.506744e-002
3.575528e+003;1.537240e-002
3.577457e+003;1.549095e-002
3.579385e+003;1.552643e-002
3.581314e+003;1.539805e-002
3.583242e+003;1.525001e-002
3.585171e+003;1.461301e-002
3.587099e+003;1.352917e-002
3.589028e+003;1.360493e-002
3.590956e+003;1.427324e-002
3.592885e+003;1.435553e-002
3.594813e+003;1.449419e-002
3.596742e+003;1.464650e-002
3.598671e+003;1.447449e-002
3.600599e+003;1.461175e-002
3.602528e+003;1.485796e-002
3.604456e+003;1.483598e-002
3.606385e+003;1.426218e-002
3.608313e+003;1.338067e-002
3.610242e+003;1.347172e-002
3.612170e+003;1.371616e-002
3.614099e+003;1.438485e-002
3.616028e+003;1.492716e-002
3.617956e+003;1.447014e-002
3.619885e+003;1.457912e-002
3.621813e+003;1.513832e-002
3.623742e+003;1.500336e-002
3.625670e+003;1.401097e-002
3.627599e+003;1.177298e-002
3.629527e+003;1.180199e-002
3.631456e+003;1.389665e-002
3.633385e+003;1.460246e-002
3.635313e+003;1.496975e-002
3.637241e+003;1.510226e-002
3.639170e+003;1.501643e-002
3.641099e+003;1.516806e-002
3.643027e+003;1.562090e-002
3.644956e+003;1.490981e-002
3.646884e+003;1.231244e-002
3.648813e+003;1.067242e-002
3.650741e+003;1.229884e-002
3.652670e+003;1.416690e-002
3.654598e+003;1.335406e-002
3.656527e+003;1.315032e-002
3.658456e+003;1.468954e-002
3.660384e+003;1.500714e-002
3.662313e+003;1.498971e-002
3.664241e+003;1.553106e-002
3.666170e+003;1.515276e-002
3.668098e+003;1.322137e-002
3.670027e+003;1.198022e-002
3.671955e+003;1.330281e-002
3.673884e+003;1.245209e-002
3.675813e+003;1.190806e-002
3.677741e+003;1.465451e-002
3.679669e+003;1.605142e-002
3.681598e+003;1.655207e-002
3.683527e+003;1.646988e-002
3.685455e+003;1.549476e-002
3.687384e+003;1.363594e-002
3.689312e+003;1.427215e-002
3.691241e+003;1.644593e-002
3.693169e+003;1.789354e-002
3.695098e+003;1.814922e-002
3.697026e+003;1.819648e-002
3.698955e+003;1.747833e-002
3.700884e+003;1.631191e-002
3.702812e+003;1.646774e-002
3.704741e+003;1.653286e-002
3.706669e+003;1.541126e-002
3.708598e+003;1.411244e-002
3.710526e+003;1.245151e-002
3.712455e+003;1.256848e-002
3.714383e+003;1.453976e-002
3.716312e+003;1.519510e-002
3.718240e+003;1.529833e-002
3.720169e+003;1.526473e-002
3.722098e+003;1.493806e-002
3.724026e+003;1.448600e-002
3.725955e+003;1.408516e-002
3.727883e+003;1.430684e-002
3.729812e+003;1.410888e-002
3.731740e+003;1.315736e-002
3.733669e+003;1.272004e-002
3.735597e+003;1.218212e-002
3.737526e+003;1.349537e-002
3.739455e+003;1.502058e-002
3.741383e+003;1.389823e-002
3.743312e+003;1.004282e-002
3.745240e+003;1.097659e-002
3.747169e+003;1.345483e-002
3.749097e+003;1.184662e-002
3.751026e+003;1.098454e-002
3.752954e+003;1.261060e-002
3.754883e+003;1.481713e-002
3.756812e+003;1.531408e-002
3.758740e+003;1.551379e-002
3.760668e+003;1.561603e-002
3.762597e+003;1.607116e-002
3.764526e+003;1.543159e-002
3.766454e+003;1.503941e-002
3.768383e+003;1.460520e-002
3.770311e+003;1.495343e-002
3.772240e+003;1.565721e-002
3.774168e+003;1.578649e-002
3.776097e+003;1.600773e-002
3.778025e+003;1.598645e-002
3.779954e+003;1.584549e-002
3.781883e+003;1.635037e-002
3.783811e+003;1.620156e-002
3.785740e+003;1.577814e-002
3.787668e+003;1.609093e-002
3.789597e+003;1.655468e-002
3.791525e+003;1.632271e-002
3.793454e+003;1.607260e-002
3.795382e+003;1.563231e-002
3.797311e+003;1.553714e-002
3.799240e+003;1.399136e-002
3.801168e+003;1.237537e-002
3.803097e+003;1.419922e-002
3.805025e+003;1.412682e-002
3.806954e+003;1.303678e-002
3.808882e+003;1.493590e-002
3.810811e+003;1.655806e-002
3.812739e+003;1.634580e-002
3.814668e+003;1.386090e-002
3.816596e+003;1.358072e-002
3.818525e+003;1.457145e-002
3.820454e+003;1.318277e-002
3.822382e+003;1.390928e-002
3.824311e+003;1.568957e-002
3.826239e+003;1.592162e-002
3.828168e+003;1.592856e-002
3.830096e+003;1.566209e-002
3.832025e+003;1.507694e-002
3.833953e+003;1.460589e-002
3.835882e+003;1.372395e-002
3.837811e+003;1.335071e-002
3.839739e+003;1.450008e-002
3.841667e+003;1.513880e-002
3.843596e+003;1.582896e-002
3.845525e+003;1.667793e-002
3.847453e+003;1.648516e-002
3.849382e+003;1.497630e-002
3.851310e+003;1.133471e-002
3.853239e+003;8.615654e-003
3.855167e+003;1.200792e-002
3.857096e+003;1.570843e-002
3.859024e+003;1.645360e-002
3.860953e+003;1.579598e-002
3.862882e+003;1.530962e-002
3.864810e+003;1.530386e-002
3.866739e+003;1.577491e-002
3.868667e+003;1.482152e-002
3.870596e+003;1.461106e-002
3.872524e+003;1.547341e-002
3.874453e+003;1.587336e-002
3.876381e+003;1.678099e-002
3.878310e+003;1.675654e-002
3.880239e+003;1.643615e-002
3.882167e+003;1.662876e-002
3.884096e+003;1.557066e-002
3.886024e+003;1.542500e-002
3.887953e+003;1.695371e-002
3.889881e+003;1.654023e-002
3.891810e+003;1.612948e-002
3.893738e+003;1.702055e-002
3.895667e+003;1.742445e-002
3.897595e+003;1.671956e-002
3.899524e+003;1.587962e-002
3.901453e+003;1.507557e-002
3.903381e+003;1.457443e-002
3.905310e+003;1.563458e-002
3.907238e+003;1.688884e-002
3.909167e+003;1.747426e-002
3.911095e+003;1.789222e-002
3.913024e+003;1.833534e-002
3.914952e+003;1.817430e-002
3.916881e+003;1.781468e-002
3.918810e+003;1.770140e-002
3.920738e+003;1.788504e-002
3.922667e+003;1.833613e-002
3.924595e+003;1.839230e-002
3.926524e+003;1.851496e-002
3.928452e+003;1.822938e-002
3.930381e+003;1.810624e-002
3.932309e+003;1.766796e-002
3.934238e+003;1.752297e-002
3.936167e+003;1.798201e-002
3.938095e+003;1.872448e-002
3.940023e+003;1.898467e-002
3.941952e+003;1.890704e-002
3.943881e+003;1.841854e-002
3.945809e+003;1.736296e-002
3.947738e+003;1.696611e-002
3.949666e+003;1.740642e-002
3.951595e+003;1.752456e-002
3.953523e+003;1.779352e-002
3.955452e+003;1.850134e-002
3.957380e+003;1.870328e-002
3.959309e+003;1.848851e-002
3.961238e+003;1.831892e-002
3.963166e+003;1.894348e-002
3.965095e+003;1.916869e-002
3.967023e+003;1.864257e-002
3.968952e+003;1.874925e-002
3.970880e+003;1.892950e-002
3.972809e+003;1.898872e-002
3.974737e+003;1.881305e-002
3.976666e+003;1.846628e-002
3.978594e+003;1.883921e-002
3.980523e+003;1.936307e-002
3.982452e+003;1.926393e-002
3.984380e+003;1.932125e-002
3.986309e+003;1.980151e-002
3.988237e+003;2.040817e-002
3.990166e+003;2.118727e-002
3.992094e+003;2.111230e-002
3.994023e+003;2.039129e-002
3.995951e+003;1.978767e-002
3.997880e+003;1.961910e-002
3.999809e+003;1.995798e-002
4.001737e+003;0.000000e+000
