3.992094e+002;0.000000e+000
4.011380e+002;0.000000e+000
4.030665e+002;0.000000e+000
4.049951e+002;0.000000e+000
4.069236e+002;0.000000e+000
4.088522e+002;0.000000e+000
4.107807e+002;0.000000e+000
4.127093e+002;0.000000e+000
4.146378e+002;0.000000e+000
4.165664e+002;0.000000e+000
4.184949e+002;0.000000e+000
4.204235e+002;0.000000e+000
4.223520e+002;0.000000e+000
4.242806e+002;0.000000e+000
4.262091e+002;0.000000e+000
4.281377e+002;0.000000e+000
4.300662e+002;0.000000e+000
4.319948e+002;0.000000e+000
4.339233e+002;0.000000e+000
4.358519e+002;0.000000e+000
4.377804e+002;0.000000e+000
4.397090e+002;0.000000e+000
4.416375e+002;0.000000e+000
4.435660e+002;0.000000e+000
4.454946e+002;0.000000e+000
4.474232e+002;0.000000e+000
4.493517e+002;0.000000e+000
4.512802e+002;0.000000e+000
4.532088e+002;0.000000e+000
4.551373e+002;0.000000e+000
4.570659e+002;0.000000e+000
4.589944e+002;0.000000e+000
4.609230e+002;0.000000e+000
4.628515e+002;0.000000e+000
4.647801e+002;0.000000e+000
4.667086e+002;0.000000e+000
4.686372e+002;0.000000e+000
4.705657e+002;0.000000e+000
4.724943e+002;0.000000e+000
4.744228e+002;0.000000e+000
4.763513e+002;0.000000e+000
4.782799e+002;0.000000e+000
4.802085e+002;0.000000e+000
4.821370e+002;0.000000e+000
4.840656e+002;0.000000e+000
4.859941e+002;0.000000e+000
4.879226e+002;0.000000e+000
4.898512e+002;0.000000e+000
4.917798e+002;0.000000e+000
4.937083e+002;0.000000e+000
4.956368e+002;0.000000e+000
4.975654e+002;0.000000e+000
4.994939e+002;0.000000e+000
5.014225e+002;0.000000e+000
5.033510e+002;0.000000e+000
5.052796e+002;0.000000e+000
5.072081e+002;0.000000e+000
5.091367e+002;0.000000e+000
5.110652e+002;0.000000e+000
5.129938e+002;0.000000e+000
5.149223e+002;0.000000e+000
5.168509e+002;0.000000e+000
5.187794e+002;0.000000e+000
5.207079e+002;0.000000e+000
5.226365e+002;0.000000e+000
5.245651e+002;0.000000e+000
5.264936e+002;0.000000e+000
5.284222e+002;0.000000e+000
5.303507e+002;0.000000e+000
5.322792e+002;0.000000e+000
5.342078e+002;0.000000e+000
5.361364e+002;0.000000e+000
5.380649e+002;0.000000e+000
5.399935e+002;0.000000e+000
5.419220e+002;0.000000e+000
5.438505e+002;0.000000e+000
5.457791e+002;0.000000e+000
5.477076e+002;0.000000e+000
5.496362e+002;0.000000e+000
5.515648e+002;0.000000e+000
5.534933e+002;0.000000e+000
5.554218e+002;0.000000e+000
5.573504e+002;0.000000e+000
5.592789e+002;0.000000e+000
5.612075e+002;0.000000e+000
5.631360e+002;0.000000e+000
5.650646e+002;0.000000e+000
5.669931e+002;0.000000e+000
5.689217e+002;0.000000e+000
5.708502e+002;0.000000e+000
5.727787e+002;0.000000e+000
5.747073e+002;0.000000e+000
5.766359e+002;0.000000e+000
5.785644e+002;0.000000e+000
5.804930e+002;0.000000e+000
5.824215e+002;0.000000e+000
5.843500e+002;0.000000e+000
5.862786e+002;0.000000e+000
5.882072e+002;0.000000e+000
5.901357e+002;0.000000e+000
5.920643e+002;0.000000e+000
5.939928e+002;0.000000e+000
5.959213e+002;0.000000e+000
5.978499e+002;0.000000e+000
5.997784e+002;2.928337e-002
6.017070e+002;3.143996e-002
6.036355e+002;3.414163e-002
6.055641e+002;3.091027e-002
6.074926e+002;3.187551e-002
6.094211e+002;3.219940e-002
6.113497e+002;3.209172e-002
6.132783e+002;3.288686e-002
6.152068e+002;3.429715e-002
6.171354e+002;3.696035e-002
6.190639e+002;3.726665e-002
6.209924e+002;3.502946e-002
6.229210e+002;3.554342e-002
6.248495e+002;3.970351e-002
6.267781e+002;4.476953e-002
6.287067e+002;4.077674e-002
6.306352e+002;3.293354e-002
6.325637e+002;3.179432e-002
6.344923e+002;3.182406e-002
6.364208e+002;2.926572e-002
6.383494e+002;3.017460e-002
6.402780e+002;2.848121e-002
6.422065e+002;2.878438e-002
6.441350e+002;3.144897e-002
6.460636e+002;3.298366e-002
6.479921e+002;2.996108e-002
6.499207e+002;3.012406e-002
6.518492e+002;3.390537e-002
6.537778e+002;3.464962e-002
6.557063e+002;3.484126e-002
6.576349e+002;3.643999e-002
6.595634e+002;3.522439e-002
6.614919e+002;3.516169e-002
6.634205e+002;3.483436e-002
6.653491e+002;3.407063e-002
6.672776e+002;3.265790e-002
6.692062e+002;3.351610e-002
6.711347e+002;3.426896e-002
6.730632e+002;3.371515e-002
6.749918e+002;3.323951e-002
6.769203e+002;3.344316e-002
6.788489e+002;3.255846e-002
6.807775e+002;3.246840e-002
6.827060e+002;3.265258e-002
6.846345e+002;3.282868e-002
6.865631e+002;3.333331e-002
6.884916e+002;3.423741e-002
6.904202e+002;3.289597e-002
6.923488e+002;3.312900e-002
6.942773e+002;3.549509e-002
6.962058e+002;3.724235e-002
6.981344e+002;3.826698e-002
7.000629e+002;3.902603e-002
7.019915e+002;3.882605e-002
7.039200e+002;4.016532e-002
7.058486e+002;4.385590e-002
7.077771e+002;4.975780e-002
7.097057e+002;6.036262e-002
7.116342e+002;7.425284e-002
7.135627e+002;7.817569e-002
7.154913e+002;6.856986e-002
7.174199e+002;5.630158e-002
7.193484e+002;4.976058e-002
7.212770e+002;4.607971e-002
7.232055e+002;4.294858e-002
7.251340e+002;4.079206e-002
7.270626e+002;4.026578e-002
7.289911e+002;3.961777e-002
7.309197e+002;3.903168e-002
7.328483e+002;3.816321e-002
7.347768e+002;3.725401e-002
7.367053e+002;3.769782e-002
7.386339e+002;3.823134e-002
7.405624e+002;3.806576e-002
7.424910e+002;3.893476e-002
7.444196e+002;3.876768e-002
7.463481e+002;3.837139e-002
7.482766e+002;3.965748e-002
7.502052e+002;4.151853e-002
7.521337e+002;4.207703e-002
7.540623e+002;4.194483e-002
7.559908e+002;4.183386e-002
7.579194e+002;4.215114e-002
7.598479e+002;4.288212e-002
7.617765e+002;4.318231e-002
7.637050e+002;4.262696e-002
7.656335e+002;4.239956e-002
7.675621e+002;4.238374e-002
7.694907e+002;4.221442e-002
7.714192e+002;4.105707e-002
7.733478e+002;4.081350e-002
7.752763e+002;4.098045e-002
7.772048e+002;4.115542e-002
7.791334e+002;4.156958e-002
7.810620e+002;4.142138e-002
7.829905e+002;4.249411e-002
7.849191e+002;4.526661e-002
7.868476e+002;4.669664e-002
7.887761e+002;4.745964e-002
7.907047e+002;4.880293e-002
7.926332e+002;4.987608e-002
7.945618e+002;5.105880e-002
7.964903e+002;5.357397e-002
7.984189e+002;5.663791e-002
8.003474e+002;5.883547e-002
8.022759e+002;6.099989e-002
8.042045e+002;6.378391e-002
8.061331e+002;6.663973e-002
8.080616e+002;6.865442e-002
8.099902e+002;6.916443e-002
8.119187e+002;6.806063e-002
8.138472e+002;6.512864e-002
8.157758e+002;6.227540e-002
8.177043e+002;6.075413e-002
8.196329e+002;5.960491e-002
8.215615e+002;5.819379e-002
8.234900e+002;5.671708e-002
8.254185e+002;5.655895e-002
8.273471e+002;5.723840e-002
8.292756e+002;5.713733e-002
8.312042e+002;5.709556e-002
8.331328e+002;5.802622e-002
8.350613e+002;6.005851e-002
8.369898e+002;6.358152e-002
8.389184e+002;6.984297e-002
8.408469e+002;7.575018e-002
8.427755e+002;7.692103e-002
8.447040e+002;7.598918e-002
8.466326e+002;7.667907e-002
8.485611e+002;7.379211e-002
8.504897e+002;6.727286e-002
8.524182e+002;6.359836e-002
8.543467e+002;6.313028e-002
8.562753e+002;6.363986e-002
8.582039e+002;6.469464e-002
8.601324e+002;6.717987e-002
8.620610e+002;7.156865e-002
8.639895e+002;7.718962e-002
8.659180e+002;8.403020e-002
8.678466e+002;9.358789e-002
8.697751e+002;1.059008e-001
8.717037e+002;1.199628e-001
8.736323e+002;1.332793e-001
8.755608e+002;1.396178e-001
8.774893e+002;1.316269e-001
8.794179e+002;1.127037e-001
8.813464e+002;9.555149e-002
8.832750e+002;8.240557e-002
8.852036e+002;6.911641e-002
8.871321e+002;5.890103e-002
8.890606e+002;5.405343e-002
8.909892e+002;5.350980e-002
8.929177e+002;5.530540e-002
8.948463e+002;5.831955e-002
8.967748e+002;6.143438e-002
8.987034e+002;6.319665e-002
9.006319e+002;6.257541e-002
9.025605e+002;5.973925e-002
9.044890e+002;5.562013e-002
9.064175e+002;5.224098e-002
9.083461e+002;5.042556e-002
9.102747e+002;4.894665e-002
9.122032e+002;4.762455e-002
9.141318e+002;4.686683e-002
9.160603e+002;4.639819e-002
9.179888e+002;4.616936e-002
9.199174e+002;4.626367e-002
9.218459e+002;4.607934e-002
9.237745e+002;4.581345e-002
9.257031e+002;4.587591e-002
9.276316e+002;4.601273e-002
9.295601e+002;4.587163e-002
9.314887e+002;4.599594e-002
9.334172e+002;4.691729e-002
9.353458e+002;4.820510e-002
9.372744e+002;4.916919e-002
9.392029e+002;4.963657e-002
9.411314e+002;5.039579e-002
9.430600e+002;5.097976e-002
9.449885e+002;5.070885e-002
9.469171e+002;5.021127e-002
9.488456e+002;5.025609e-002
9.507742e+002;5.083738e-002
9.527027e+002;5.167393e-002
9.546313e+002;5.258454e-002
9.565598e+002;5.327311e-002
9.584883e+002;5.419267e-002
9.604169e+002;5.580720e-002
9.623455e+002;5.852556e-002
9.642740e+002;6.222091e-002
9.662026e+002;6.667198e-002
9.681311e+002;7.309651e-002
9.700596e+002;8.157622e-002
9.719882e+002;8.905828e-002
9.739167e+002;9.201584e-002
9.758453e+002;8.871951e-002
9.777739e+002;8.080480e-002
9.797024e+002;7.186116e-002
9.816309e+002;6.425788e-002
9.835595e+002;5.873585e-002
9.854880e+002;5.609579e-002
9.874166e+002;5.572846e-002
9.893452e+002;5.711541e-002
9.912737e+002;6.086889e-002
9.932022e+002;6.682797e-002
9.951307e+002;7.341347e-002
9.970593e+002;7.867986e-002
9.989879e+002;7.968940e-002
1.000916e+003;7.559127e-002
1.002845e+003;7.052631e-002
1.004773e+003;6.695548e-002
1.006702e+003;6.444732e-002
1.008631e+003;6.276174e-002
1.010559e+003;6.204402e-002
1.012488e+003;6.147625e-002
1.014416e+003;6.061536e-002
1.016345e+003;6.014371e-002
1.018273e+003;5.976625e-002
1.020202e+003;5.929191e-002
1.022130e+003;5.881289e-002
1.024059e+003;5.857140e-002
1.025988e+003;5.889174e-002
1.027916e+003;5.938475e-002
1.029845e+003;6.021408e-002
1.031773e+003;6.150805e-002
1.033702e+003;6.320225e-002
1.035630e+003;6.464192e-002
1.037559e+003;6.502064e-002
1.039487e+003;6.440969e-002
1.041416e+003;6.344675e-002
1.043344e+003;6.216734e-002
1.045273e+003;6.045001e-002
1.047202e+003;5.854251e-002
1.049130e+003;5.669145e-002
1.051059e+003;5.494065e-002
1.052987e+003;5.352426e-002
1.054916e+003;5.279338e-002
1.056844e+003;5.163015e-002
1.058773e+003;5.075398e-002
1.060701e+003;5.037202e-002
1.062630e+003;5.018675e-002
1.064558e+003;5.039676e-002
1.066487e+003;5.034240e-002
1.068416e+003;5.040904e-002
1.070344e+003;5.061286e-002
1.072273e+003;5.033376e-002
1.074201e+003;5.046508e-002
1.076130e+003;5.101360e-002
1.078058e+003;5.146588e-002
1.079987e+003;5.243111e-002
1.081915e+003;5.302206e-002
1.083844e+003;5.337594e-002
1.085773e+003;5.454623e-002
1.087701e+003;5.611321e-002
1.089630e+003;5.722392e-002
1.091558e+003;5.823899e-002
1.093487e+003;5.906940e-002
1.095415e+003;5.950986e-002
1.097344e+003;6.072502e-002
1.099272e+003;6.254445e-002
1.101201e+003;6.374899e-002
1.103129e+003;6.380720e-002
1.105058e+003;6.361044e-002
1.106987e+003;6.261119e-002
1.108915e+003;6.081267e-002
1.110844e+003;5.845141e-002
1.112772e+003;5.542983e-002
1.114701e+003;5.313532e-002
1.116629e+003;5.174720e-002
1.118558e+003;5.015507e-002
1.120486e+003;4.860881e-002
1.122415e+003;4.743806e-002
1.124344e+003;4.655764e-002
1.126272e+003;4.592805e-002
1.128201e+003;4.566922e-002
1.130129e+003;4.576743e-002
1.132058e+003;4.631771e-002
1.133986e+003;4.766116e-002
1.135915e+003;4.946733e-002
1.137843e+003;5.182790e-002
1.139772e+003;5.438126e-002
1.141700e+003;5.698096e-002
1.143629e+003;5.982519e-002
1.145557e+003;6.268468e-002
1.147486e+003;6.585376e-002
1.149415e+003;6.976985e-002
1.151343e+003;7.354721e-002
1.153272e+003;7.578707e-002
1.155200e+003;7.650761e-002
1.157129e+003;7.696969e-002
1.159057e+003;7.720429e-002
1.160986e+003;7.753939e-002
1.162914e+003;7.821005e-002
1.164843e+003;7.893538e-002
1.166771e+003;7.948440e-002
1.168700e+003;7.825337e-002
1.170629e+003;7.448295e-002
1.172557e+003;6.941768e-002
1.174486e+003;6.424697e-002
1.176414e+003;5.983671e-002
1.178343e+003;5.689053e-002
1.180271e+003;5.537044e-002
1.182200e+003;5.466357e-002
1.184128e+003;5.462870e-002
1.186057e+003;5.498386e-002
1.187986e+003;5.533524e-002
1.189914e+003;5.571136e-002
1.191843e+003;5.577796e-002
1.193771e+003;5.570409e-002
1.195700e+003;5.596706e-002
1.197628e+003;5.656118e-002
1.199557e+003;5.686636e-002
1.201485e+003;5.681809e-002
1.203414e+003;5.658023e-002
1.205343e+003;5.625587e-002
1.207271e+003;5.631927e-002
1.209200e+003;5.730039e-002
1.211128e+003;5.916959e-002
1.213057e+003;6.137782e-002
1.214985e+003;6.227682e-002
1.216914e+003;6.093812e-002
1.218842e+003;5.903960e-002
1.220771e+003;5.790062e-002
1.222699e+003;5.762498e-002
1.224628e+003;5.741531e-002
1.226557e+003;5.745097e-002
1.228485e+003;5.802516e-002
1.230414e+003;5.837211e-002
1.232342e+003;5.871438e-002
1.234271e+003;5.938243e-002
1.236199e+003;5.965695e-002
1.238128e+003;5.971249e-002
1.240056e+003;5.999806e-002
1.241985e+003;6.055441e-002
1.243913e+003;6.072235e-002
1.245842e+003;6.139117e-002
1.247771e+003;6.302051e-002
1.249699e+003;6.516314e-002
1.251628e+003;6.792915e-002
1.253556e+003;7.157405e-002
1.255485e+003;7.517068e-002
1.257413e+003;7.652259e-002
1.259342e+003;7.486008e-002
1.261270e+003;7.184606e-002
1.263199e+003;6.922726e-002
1.265127e+003;6.752489e-002
1.267056e+003;6.619511e-002
1.268985e+003;6.447457e-002
1.270913e+003;6.268977e-002
1.272842e+003;6.138129e-002
1.274770e+003;6.069373e-002
1.276699e+003;6.047279e-002
1.278627e+003;6.035569e-002
1.280556e+003;5.998687e-002
1.282484e+003;5.992392e-002
1.284413e+003;6.089043e-002
1.286342e+003;6.233338e-002
1.288270e+003;6.321658e-002
1.290199e+003;6.406468e-002
1.292127e+003;6.519909e-002
1.294056e+003;6.615393e-002
1.295984e+003;6.674188e-002
1.297913e+003;6.716923e-002
1.299841e+003;6.748769e-002
1.301770e+003;6.785779e-002
1.303698e+003;6.860750e-002
1.305627e+003;6.805787e-002
1.307556e+003;6.602577e-002
1.309484e+003;6.455264e-002
1.311413e+003;6.434552e-002
1.313341e+003;6.484722e-002
1.315270e+003;6.600390e-002
1.317198e+003;6.745414e-002
1.319127e+003;6.874097e-002
1.321055e+003;6.985679e-002
1.322984e+003;7.124836e-002
1.324912e+003;7.300944e-002
1.326841e+003;7.458618e-002
1.328770e+003;7.605704e-002
1.330698e+003;7.693151e-002
1.332627e+003;7.691609e-002
1.334555e+003;7.697867e-002
1.336484e+003;7.714485e-002
1.338412e+003;7.728793e-002
1.340341e+003;7.811318e-002
1.342269e+003;7.984363e-002
1.344198e+003;8.206098e-002
1.346126e+003;8.466554e-002
1.348055e+003;8.756603e-002
1.349984e+003;9.155782e-002
1.351912e+003;9.690947e-002
1.353841e+003;1.033489e-001
1.355769e+003;1.103254e-001
1.357698e+003;1.162177e-001
1.359626e+003;1.189275e-001
1.361555e+003;1.190382e-001
1.363483e+003;1.199068e-001
1.365412e+003;1.235050e-001
1.367341e+003;1.313515e-001
1.369269e+003;1.465083e-001
1.371198e+003;1.692501e-001
1.373126e+003;1.956460e-001
1.375055e+003;2.166490e-001
1.376983e+003;2.189251e-001
1.378912e+003;2.001758e-001
1.380840e+003;1.730142e-001
1.382769e+003;1.479171e-001
1.384698e+003;1.290242e-001
1.386626e+003;1.173385e-001
1.388555e+003;1.120938e-001
1.390483e+003;1.106549e-001
1.392412e+003;1.106310e-001
1.394340e+003;1.115524e-001
1.396269e+003;1.138935e-001
1.398197e+003;1.158347e-001
1.400126e+003;1.177569e-001
1.402054e+003;1.197675e-001
1.403983e+003;1.209586e-001
1.405911e+003;1.225304e-001
1.407840e+003;1.245938e-001
1.409769e+003;1.266654e-001
1.411697e+003;1.291346e-001
1.413626e+003;1.316922e-001
1.415554e+003;1.341902e-001
1.417483e+003;1.358067e-001
1.419411e+003;1.378542e-001
1.421340e+003;1.416213e-001
1.423268e+003;1.447737e-001
1.425197e+003;1.475061e-001
1.427125e+003;1.505676e-001
1.429054e+003;1.534666e-001
1.430983e+003;1.574277e-001
1.432911e+003;1.620898e-001
1.434840e+003;1.642828e-001
1.436768e+003;1.642489e-001
1.438697e+003;1.653589e-001
1.440625e+003;1.670349e-001
1.442554e+003;1.698574e-001
1.444482e+003;1.741287e-001
1.446411e+003;1.794680e-001
1.448340e+003;1.850801e-001
1.450268e+003;1.902715e-001
1.452197e+003;1.929788e-001
1.454125e+003;1.920696e-001
1.456054e+003;1.880355e-001
1.457982e+003;1.852739e-001
1.459911e+003;1.832571e-001
1.461839e+003;1.781421e-001
1.463768e+003;1.696424e-001
1.465697e+003;1.605311e-001
1.467625e+003;1.520051e-001
1.469554e+003;1.423612e-001
1.471482e+003;1.320322e-001
1.473411e+003;1.242721e-001
1.475339e+003;1.192734e-001
1.477268e+003;1.152444e-001
1.479196e+003;1.117599e-001
1.481125e+003;1.078381e-001
1.483053e+003;1.045018e-001
1.484982e+003;1.015227e-001
1.486911e+003;9.841903e-002
1.488839e+003;9.537192e-002
1.490768e+003;9.328984e-002
1.492696e+003;9.203808e-002
1.494625e+003;8.947483e-002
1.496553e+003;8.681506e-002
1.498482e+003;8.554410e-002
1.500410e+003;8.457684e-002
1.502339e+003;8.255465e-002
1.504267e+003;7.790951e-002
1.506196e+003;7.353225e-002
1.508125e+003;7.339487e-002
1.510053e+003;7.358049e-002
1.511982e+003;7.213030e-002
1.513910e+003;7.055457e-002
1.515839e+003;6.825359e-002
1.517767e+003;6.612966e-002
1.519696e+003;6.348260e-002
1.521624e+003;6.128509e-002
1.523553e+003;6.161828e-002
1.525481e+003;6.154306e-002
1.527410e+003;6.085265e-002
1.529339e+003;5.973435e-002
1.531267e+003;5.795033e-002
1.533196e+003;5.628687e-002
1.535124e+003;5.635285e-002
1.537053e+003;5.482410e-002
1.538981e+003;5.072572e-002
1.540910e+003;4.966090e-002
1.542838e+003;5.107684e-002
1.544767e+003;5.227237e-002
1.546695e+003;5.339430e-002
1.548624e+003;5.337733e-002
1.550553e+003;5.284764e-002
1.552481e+003;5.182118e-002
1.554410e+003;5.023109e-002
1.556338e+003;4.768549e-002
1.558267e+003;4.349244e-002
1.560195e+003;4.392859e-002
1.562124e+003;4.705630e-002
1.564052e+003;4.729387e-002
1.565981e+003;4.680468e-002
1.567910e+003;4.586339e-002
1.569838e+003;4.482797e-002
1.571767e+003;4.517722e-002
1.573695e+003;4.409422e-002
1.575624e+003;4.154150e-002
1.577552e+003;4.211843e-002
1.579481e+003;4.356631e-002
1.581409e+003;4.361712e-002
1.583338e+003;4.354558e-002
1.585266e+003;4.338917e-002
1.587195e+003;4.308409e-002
1.589124e+003;4.224856e-002
1.591052e+003;4.142390e-002
1.592981e+003;4.076647e-002
1.594909e+003;4.056646e-002
1.596838e+003;4.081437e-002
1.598766e+003;4.089216e-002
1.600695e+003;4.068328e-002
1.602623e+003;4.059709e-002
1.604552e+003;4.063623e-002
1.606480e+003;4.033228e-002
1.608409e+003;3.975460e-002
1.610338e+003;3.984430e-002
1.612266e+003;4.024659e-002
1.614195e+003;3.972537e-002
1.616123e+003;3.852086e-002
1.618052e+003;3.962779e-002
1.619980e+003;4.079570e-002
1.621909e+003;3.969687e-002
1.623837e+003;3.865717e-002
1.625766e+003;3.840404e-002
1.627694e+003;3.801321e-002
1.629623e+003;3.814722e-002
1.631552e+003;3.807629e-002
1.633480e+003;3.631821e-002
1.635409e+003;3.444261e-002
1.637337e+003;3.603109e-002
1.639266e+003;3.755654e-002
1.641194e+003;3.769804e-002
1.643123e+003;3.725672e-002
1.645051e+003;3.550631e-002
1.646980e+003;3.484995e-002
1.648909e+003;3.607620e-002
1.650837e+003;3.402461e-002
1.652766e+003;3.054923e-002
1.654694e+003;3.358322e-002
1.656623e+003;3.706726e-002
1.658551e+003;3.729632e-002
1.660480e+003;3.650547e-002
1.662408e+003;3.570404e-002
1.664337e+003;3.604628e-002
1.666266e+003;3.606576e-002
1.668194e+003;3.474842e-002
1.670123e+003;3.430170e-002
1.672051e+003;3.463243e-002
1.673980e+003;3.361150e-002
1.675908e+003;3.343990e-002
1.677837e+003;3.460735e-002
1.679765e+003;3.423494e-002
1.681694e+003;3.253557e-002
1.683622e+003;2.941560e-002
1.685551e+003;2.976449e-002
1.687479e+003;3.187512e-002
1.689408e+003;3.210099e-002
1.691337e+003;3.235619e-002
1.693265e+003;3.126605e-002
1.695194e+003;2.851542e-002
1.697122e+003;2.842623e-002
1.699051e+003;2.758596e-002
1.700979e+003;2.729485e-002
1.702908e+003;2.943376e-002
1.704836e+003;2.956685e-002
1.706765e+003;2.964549e-002
1.708693e+003;2.989083e-002
1.710622e+003;2.997926e-002
1.712551e+003;2.938178e-002
1.714479e+003;2.798942e-002
1.716408e+003;2.611752e-002
1.718336e+003;2.668769e-002
1.720265e+003;2.879659e-002
1.722193e+003;2.938869e-002
1.724122e+003;2.936203e-002
1.726050e+003;2.954589e-002
1.727979e+003;2.942571e-002
1.729908e+003;2.903497e-002
1.731836e+003;2.751105e-002
1.733765e+003;2.561656e-002
1.735693e+003;2.703436e-002
1.737622e+003;2.810709e-002
1.739550e+003;2.742891e-002
1.741479e+003;2.761445e-002
1.743407e+003;2.735988e-002
1.745336e+003;2.673001e-002
1.747265e+003;2.571042e-002
1.749193e+003;2.424924e-002
1.751122e+003;2.326953e-002
1.753050e+003;2.366658e-002
1.754979e+003;2.321636e-002
1.756907e+003;2.259505e-002
1.758836e+003;2.270906e-002
1.760764e+003;2.194326e-002
1.762693e+003;2.148096e-002
1.764621e+003;2.175838e-002
1.766550e+003;2.094008e-002
1.768479e+003;2.014553e-002
1.770407e+003;1.949349e-002
1.772336e+003;1.868384e-002
1.774264e+003;1.943701e-002
1.776193e+003;2.027622e-002
1.778121e+003;2.039077e-002
1.780050e+003;2.017163e-002
1.781978e+003;2.062861e-002
1.783907e+003;2.121994e-002
1.785835e+003;2.191071e-002
1.787764e+003;2.329152e-002
1.789693e+003;2.510080e-002
1.791621e+003;2.721017e-002
1.793550e+003;3.030671e-002
1.795478e+003;3.270641e-002
1.797407e+003;3.305366e-002
1.799335e+003;3.221585e-002
1.801264e+003;3.031446e-002
1.803192e+003;2.772018e-002
1.805121e+003;2.503084e-002
1.807049e+003;2.268075e-002
1.808978e+003;2.088595e-002
1.810907e+003;1.986703e-002
1.812835e+003;1.943274e-002
1.814764e+003;1.911366e-002
1.816692e+003;1.872099e-002
1.818621e+003;1.854767e-002
1.820549e+003;1.837909e-002
1.822478e+003;1.816525e-002
1.824406e+003;1.774243e-002
1.826335e+003;1.775710e-002
1.828264e+003;1.743905e-002
1.830192e+003;1.701986e-002
1.832121e+003;1.756475e-002
1.834049e+003;1.786447e-002
1.835978e+003;1.758932e-002
1.837906e+003;1.746712e-002
1.839835e+003;1.759494e-002
1.841763e+003;1.700270e-002
1.843692e+003;1.581055e-002
1.845620e+003;1.617188e-002
1.847549e+003;1.686696e-002
1.849478e+003;1.693624e-002
1.851406e+003;1.682825e-002
1.853335e+003;1.664901e-002
1.855263e+003;1.634098e-002
1.857192e+003;1.625305e-002
1.859120e+003;1.622516e-002
1.861049e+003;1.615138e-002
1.862977e+003;1.628449e-002
1.864906e+003;1.629629e-002
1.866834e+003;1.554329e-002
1.868763e+003;1.506209e-002
1.870692e+003;1.575162e-002
1.872620e+003;1.612876e-002
1.874549e+003;1.573695e-002
1.876477e+003;1.556369e-002
1.878406e+003;1.572901e-002
1.880334e+003;1.596146e-002
1.882263e+003;1.581920e-002
1.884191e+003;1.573124e-002
1.886120e+003;1.576921e-002
1.888048e+003;1.570833e-002
1.889977e+003;1.574639e-002
1.891906e+003;1.587938e-002
1.893834e+003;1.579213e-002
1.895763e+003;1.588226e-002
1.897691e+003;1.591945e-002
1.899620e+003;1.585257e-002
1.901548e+003;1.585354e-002
1.903477e+003;1.586419e-002
1.905405e+003;1.565254e-002
1.907334e+003;1.536904e-002
1.909262e+003;1.525697e-002
1.911191e+003;1.536540e-002
1.913120e+003;1.547708e-002
1.915048e+003;1.525152e-002
1.916977e+003;1.465859e-002
1.918905e+003;1.480623e-002
1.920834e+003;1.493906e-002
1.922762e+003;1.482076e-002
1.924691e+003;1.500566e-002
1.926619e+003;1.510919e-002
1.928548e+003;1.495034e-002
1.930477e+003;1.459951e-002
1.932405e+003;1.453993e-002
1.934334e+003;1.465051e-002
1.936262e+003;1.456436e-002
1.938191e+003;1.447980e-002
1.940119e+003;1.428971e-002
1.942048e+003;1.410252e-002
1.943976e+003;1.417926e-002
1.945905e+003;1.426705e-002
1.947833e+003;1.431673e-002
1.949762e+003;1.438889e-002
1.951691e+003;1.429437e-002
1.953619e+003;1.419775e-002
1.955548e+003;1.450913e-002
1.957476e+003;1.467785e-002
1.959405e+003;1.428889e-002
1.961333e+003;1.406213e-002
1.963262e+003;1.402770e-002
1.965190e+003;1.393949e-002
1.967119e+003;1.382393e-002
1.969047e+003;1.371893e-002
1.970976e+003;1.370258e-002
1.972905e+003;1.384099e-002
1.974833e+003;1.383138e-002
1.976762e+003;1.378161e-002
1.978690e+003;1.371677e-002
1.980619e+003;1.371845e-002
1.982547e+003;1.382081e-002
1.984476e+003;1.375655e-002
1.986404e+003;1.362783e-002
1.988333e+003;1.381667e-002
1.990261e+003;1.367885e-002
1.992190e+003;1.353594e-002
1.994119e+003;1.383385e-002
1.996047e+003;1.399519e-002
1.997976e+003;1.384746e-002
1.999904e+003;1.376852e-002
2.001833e+003;1.371749e-002
2.003761e+003;1.354387e-002
2.005690e+003;1.334838e-002
2.007618e+003;1.355891e-002
2.009547e+003;1.368148e-002
2.011476e+003;1.358069e-002
2.013404e+003;1.333612e-002
2.015333e+003;1.339592e-002
2.017261e+003;1.352538e-002
2.019190e+003;1.370969e-002
2.021118e+003;1.364654e-002
2.023047e+003;1.346003e-002
2.024975e+003;1.343614e-002
2.026904e+003;1.350166e-002
2.028833e+003;1.347609e-002
2.030761e+003;1.312792e-002
2.032690e+003;1.306003e-002
2.034618e+003;1.332477e-002
2.036547e+003;1.338252e-002
2.038475e+003;1.337999e-002
2.040404e+003;1.303856e-002
2.042332e+003;1.292801e-002
2.044261e+003;1.309319e-002
2.046189e+003;1.333359e-002
2.048118e+003;1.333369e-002
2.050047e+003;1.321149e-002
2.051975e+003;1.325426e-002
2.053904e+003;1.344762e-002
2.055832e+003;1.346765e-002
2.057761e+003;1.333499e-002
2.059689e+003;1.326499e-002
2.061618e+003;1.326820e-002
2.063546e+003;1.323950e-002
2.065475e+003;1.325382e-002
2.067404e+003;1.324217e-002
2.069332e+003;1.313188e-002
2.071260e+003;1.318485e-002
2.073189e+003;1.326495e-002
2.075118e+003;1.317782e-002
2.077046e+003;1.325546e-002
2.078975e+003;1.317843e-002
2.080903e+003;1.315336e-002
2.082832e+003;1.338597e-002
2.084760e+003;1.355843e-002
2.086689e+003;1.364360e-002
2.088617e+003;1.351266e-002
2.090546e+003;1.334138e-002
2.092475e+003;1.334603e-002
2.094403e+003;1.339530e-002
2.096332e+003;1.355423e-002
2.098260e+003;1.358537e-002
2.100189e+003;1.372105e-002
2.102117e+003;1.380426e-002
2.104046e+003;1.372019e-002
2.105974e+003;1.370049e-002
2.107903e+003;1.354602e-002
2.109832e+003;1.335221e-002
2.111760e+003;1.345029e-002
2.113688e+003;1.364777e-002
2.115617e+003;1.400358e-002
2.117546e+003;1.420251e-002
2.119474e+003;1.400436e-002
2.121403e+003;1.389450e-002
2.123331e+003;1.415961e-002
2.125260e+003;1.446589e-002
2.127188e+003;1.464149e-002
2.129117e+003;1.478480e-002
2.131045e+003;1.483657e-002
2.132974e+003;1.496591e-002
2.134903e+003;1.508929e-002
2.136831e+003;1.502003e-002
2.138760e+003;1.489208e-002
2.140688e+003;1.487901e-002
2.142617e+003;1.481363e-002
2.144545e+003;1.468138e-002
2.146474e+003;1.459674e-002
2.148402e+003;1.456031e-002
2.150331e+003;1.459465e-002
2.152260e+003;1.463107e-002
2.154188e+003;1.452869e-002
2.156117e+003;1.472087e-002
2.158045e+003;1.488460e-002
2.159974e+003;1.477451e-002
2.161902e+003;1.468601e-002
2.163831e+003;1.491804e-002
2.165759e+003;1.522918e-002
2.167688e+003;1.519390e-002
2.169616e+003;1.523007e-002
2.171545e+003;1.543485e-002
2.173474e+003;1.540189e-002
2.175402e+003;1.526977e-002
2.177331e+003;1.528405e-002
2.179259e+003;1.540622e-002
2.181188e+003;1.549700e-002
2.183116e+003;1.528453e-002
2.185045e+003;1.501060e-002
2.186973e+003;1.504957e-002
2.188902e+003;1.498673e-002
2.190831e+003;1.482621e-002
2.192759e+003;1.500823e-002
2.194688e+003;1.505224e-002
2.196616e+003;1.480345e-002
2.198545e+003;1.457721e-002
2.200473e+003;1.446339e-002
2.202402e+003;1.468927e-002
2.204330e+003;1.472053e-002
2.206259e+003;1.448970e-002
2.208188e+003;1.453749e-002
2.210116e+003;1.466041e-002
2.212044e+003;1.472618e-002
2.213973e+003;1.461696e-002
2.215902e+003;1.445712e-002
2.217830e+003;1.457858e-002
2.219759e+003;1.457762e-002
2.221687e+003;1.440917e-002
2.223616e+003;1.435317e-002
2.225544e+003;1.441715e-002
2.227473e+003;1.440907e-002
2.229401e+003;1.427413e-002
2.231330e+003;1.434457e-002
2.233259e+003;1.459115e-002
2.235187e+003;1.448384e-002
2.237116e+003;1.431872e-002
2.239044e+003;1.443969e-002
2.240973e+003;1.434105e-002
2.242901e+003;1.411792e-002
2.244830e+003;1.428653e-002
2.246758e+003;1.435820e-002
2.248687e+003;1.450440e-002
2.250615e+003;1.476320e-002
2.252544e+003;1.477897e-002
2.254473e+003;1.483533e-002
2.256401e+003;1.521178e-002
2.258330e+003;1.530997e-002
2.260258e+003;1.497946e-002
2.262187e+003;1.493734e-002
2.264115e+003;1.487541e-002
2.266044e+003;1.476355e-002
2.267972e+003;1.487061e-002
2.269901e+003;1.482899e-002
2.271830e+003;1.426520e-002
2.273758e+003;1.408575e-002
2.275687e+003;1.427136e-002
2.277615e+003;1.415872e-002
2.279544e+003;1.403078e-002
2.281472e+003;1.384513e-002
2.283401e+003;1.372111e-002
2.285329e+003;1.396183e-002
2.287258e+003;1.418926e-002
2.289187e+003;1.409030e-002
2.291115e+003;1.399191e-002
2.293043e+003;1.392074e-002
2.294972e+003;1.403581e-002
2.296901e+003;1.414965e-002
2.298829e+003;1.387442e-002
2.300758e+003;1.373001e-002
2.302686e+003;1.373753e-002
2.304615e+003;1.365522e-002
2.306543e+003;1.360947e-002
2.308472e+003;1.337736e-002
2.310400e+003;1.284903e-002
2.312329e+003;1.229359e-002
2.314258e+003;1.194736e-002
2.316186e+003;1.181550e-002
2.318115e+003;1.146400e-002
2.320043e+003;1.084201e-002
2.321972e+003;1.053342e-002
2.323900e+003;1.026742e-002
2.325829e+003;9.865676e-003
2.327757e+003;9.235105e-003
2.329686e+003;8.753909e-003
2.331615e+003;8.453961e-003
2.333543e+003;8.371160e-003
2.335472e+003;8.187544e-003
2.337400e+003;8.182918e-003
2.339329e+003;8.536709e-003
2.341257e+003;9.080556e-003
2.343186e+003;1.009148e-002
2.345114e+003;1.142137e-002
2.347043e+003;1.270728e-002
2.348971e+003;1.329573e-002
2.350900e+003;1.246845e-002
2.352829e+003;1.071222e-002
2.354757e+003;9.076023e-003
2.356686e+003;7.898648e-003
2.358614e+003;6.948261e-003
2.360543e+003;6.378427e-003
2.362471e+003;6.401056e-003
2.364400e+003;6.713723e-003
2.366328e+003;7.523833e-003
2.368257e+003;8.853352e-003
2.370186e+003;1.040977e-002
2.372114e+003;1.167607e-002
2.374042e+003;1.261384e-002
2.375971e+003;1.360199e-002
2.377900e+003;1.456162e-002
2.379828e+003;1.527533e-002
2.381757e+003;1.589388e-002
2.383685e+003;1.617494e-002
2.385614e+003;1.620428e-002
2.387542e+003;1.625095e-002
2.389471e+003;1.632649e-002
2.391399e+003;1.631036e-002
2.393328e+003;1.642862e-002
2.395257e+003;1.671498e-002
2.397185e+003;1.686510e-002
2.399114e+003;1.694330e-002
2.401042e+003;1.679446e-002
2.402971e+003;1.657365e-002
2.404899e+003;1.671481e-002
2.406828e+003;1.681075e-002
2.408756e+003;1.681805e-002
2.410685e+003;1.681337e-002
2.412614e+003;1.680524e-002
2.414542e+003;1.670823e-002
2.416471e+003;1.668027e-002
2.418399e+003;1.712952e-002
2.420328e+003;1.732051e-002
2.422256e+003;1.727348e-002
2.424185e+003;1.752935e-002
2.426113e+003;1.755726e-002
2.428042e+003;1.761361e-002
2.429970e+003;1.771783e-002
2.431899e+003;1.750503e-002
2.433828e+003;1.711836e-002
2.435756e+003;1.689573e-002
2.437685e+003;1.692859e-002
2.439613e+003;1.705598e-002
2.441542e+003;1.683217e-002
2.443470e+003;1.640883e-002
2.445399e+003;1.641616e-002
2.447327e+003;1.645418e-002
2.449256e+003;1.653909e-002
2.451185e+003;1.656684e-002
2.453113e+003;1.659685e-002
2.455042e+003;1.670630e-002
2.456970e+003;1.681451e-002
2.458899e+003;1.693431e-002
2.460827e+003;1.681867e-002
2.462756e+003;1.654763e-002
2.464684e+003;1.642187e-002
2.466613e+003;1.663699e-002
2.468542e+003;1.682429e-002
2.470470e+003;1.710374e-002
2.472398e+003;1.750827e-002
2.474327e+003;1.769967e-002
2.476256e+003;1.772528e-002
2.478184e+003;1.809744e-002
2.480113e+003;1.854868e-002
2.482041e+003;1.884821e-002
2.483970e+003;1.929441e-002
2.485898e+003;1.946733e-002
2.487827e+003;1.950787e-002
2.489755e+003;2.011447e-002
2.491684e+003;2.087951e-002
2.493613e+003;2.136829e-002
2.495541e+003;2.169889e-002
2.497470e+003;2.230290e-002
2.499398e+003;2.329805e-002
2.501327e+003;2.435604e-002
2.503255e+003;2.539898e-002
2.505184e+003;2.615401e-002
2.507112e+003;2.674294e-002
2.509041e+003;2.748598e-002
2.510969e+003;2.836889e-002
2.512898e+003;2.875127e-002
2.514827e+003;2.875060e-002
2.516755e+003;2.874335e-002
2.518684e+003;2.877662e-002
2.520612e+003;2.894787e-002
2.522541e+003;2.905998e-002
2.524469e+003;2.878332e-002
2.526398e+003;2.813646e-002
2.528326e+003;2.766933e-002
2.530255e+003;2.738042e-002
2.532184e+003;2.681635e-002
2.534112e+003;2.602953e-002
2.536041e+003;2.562408e-002
2.537969e+003;2.503962e-002
2.539898e+003;2.464783e-002
2.541826e+003;2.463503e-002
2.543755e+003;2.444496e-002
2.545683e+003;2.458537e-002
2.547612e+003;2.502716e-002
2.549541e+003;2.528297e-002
2.551469e+003;2.533277e-002
2.553397e+003;2.540527e-002
2.555326e+003;2.586625e-002
2.557255e+003;2.620054e-002
2.559183e+003;2.625868e-002
2.561112e+003;2.639489e-002
2.563040e+003;2.637250e-002
2.564969e+003;2.644289e-002
2.566897e+003;2.681935e-002
2.568826e+003;2.716217e-002
2.570754e+003;2.756584e-002
2.572683e+003;2.809164e-002
2.574612e+003;2.860222e-002
2.576540e+003;2.905081e-002
2.578469e+003;2.960519e-002
2.580397e+003;3.026791e-002
2.582326e+003;3.036591e-002
2.584254e+003;2.987280e-002
2.586183e+003;2.934105e-002
2.588111e+003;2.893197e-002
2.590040e+003;2.850038e-002
2.591969e+003;2.795889e-002
2.593897e+003;2.769472e-002
2.595826e+003;2.783975e-002
2.597754e+003;2.781382e-002
2.599683e+003;2.765965e-002
2.601611e+003;2.759083e-002
2.603540e+003;2.753057e-002
2.605468e+003;2.781039e-002
2.607397e+003;2.844144e-002
2.609325e+003;2.865400e-002
2.611254e+003;2.874632e-002
2.613183e+003;2.887768e-002
2.615111e+003;2.898573e-002
2.617040e+003;2.903653e-002
2.618968e+003;2.873623e-002
2.620897e+003;2.828900e-002
2.622825e+003;2.807421e-002
2.624754e+003;2.799882e-002
2.626682e+003;2.777161e-002
2.628611e+003;2.727968e-002
2.630540e+003;2.697121e-002
2.632468e+003;2.694209e-002
2.634396e+003;2.689739e-002
2.636325e+003;2.674936e-002
2.638254e+003;2.675499e-002
2.640182e+003;2.686376e-002
2.642111e+003;2.711000e-002
2.644039e+003;2.765658e-002
2.645968e+003;2.824189e-002
2.647896e+003;2.828673e-002
2.649825e+003;2.835389e-002
2.651753e+003;2.878261e-002
2.653682e+003;2.918173e-002
2.655611e+003;2.946138e-002
2.657539e+003;2.948953e-002
2.659468e+003;2.948617e-002
2.661396e+003;2.951822e-002
2.663325e+003;2.963442e-002
2.665253e+003;2.980342e-002
2.667182e+003;2.998121e-002
2.669110e+003;3.016472e-002
2.671039e+003;3.034793e-002
2.672968e+003;3.068053e-002
2.674896e+003;3.080614e-002
2.676825e+003;3.096841e-002
2.678753e+003;3.109578e-002
2.680682e+003;3.091998e-002
2.682610e+003;3.082599e-002
2.684539e+003;3.094094e-002
2.686467e+003;3.112763e-002
2.688396e+003;3.113956e-002
2.690324e+003;3.106175e-002
2.692253e+003;3.086196e-002
2.694182e+003;3.065713e-002
2.696110e+003;3.067943e-002
2.698039e+003;3.094638e-002
2.699967e+003;3.148641e-002
2.701896e+003;3.225382e-002
2.703824e+003;3.314263e-002
2.705753e+003;3.358497e-002
2.707681e+003;3.404615e-002
2.709610e+003;3.502968e-002
2.711539e+003;3.615225e-002
2.713467e+003;3.743586e-002
2.715396e+003;3.880377e-002
2.717324e+003;4.031152e-002
2.719253e+003;4.191195e-002
2.721181e+003;4.313630e-002
2.723110e+003;4.374441e-002
2.725038e+003;4.332136e-002
2.726967e+003;4.215461e-002
2.728896e+003;4.074173e-002
2.730824e+003;3.942114e-002
2.732752e+003;3.861269e-002
2.734681e+003;3.786293e-002
2.736610e+003;3.683222e-002
2.738538e+003;3.579186e-002
2.740467e+003;3.482589e-002
2.742395e+003;3.390462e-002
2.744324e+003;3.326473e-002
2.746252e+003;3.275796e-002
2.748181e+003;3.262732e-002
2.750109e+003;3.263050e-002
2.752038e+003;3.257107e-002
2.753967e+003;3.281817e-002
2.755895e+003;3.289658e-002
2.757824e+003;3.293647e-002
2.759752e+003;3.345336e-002
2.761681e+003;3.391591e-002
2.763609e+003;3.403071e-002
2.765538e+003;3.420350e-002
2.767466e+003;3.457150e-002
2.769395e+003;3.496654e-002
2.771323e+003;3.529335e-002
2.773252e+003;3.581230e-002
2.775181e+003;3.665185e-002
2.777109e+003;3.743596e-002
2.779038e+003;3.804330e-002
2.780966e+003;3.894295e-002
2.782895e+003;3.989583e-002
2.784823e+003;4.133184e-002
2.786752e+003;4.289610e-002
2.788680e+003;4.439627e-002
2.790609e+003;4.621026e-002
2.792538e+003;4.811203e-002
2.794466e+003;4.925518e-002
2.796395e+003;5.031639e-002
2.798323e+003;5.189059e-002
2.800252e+003;5.343575e-002
2.802180e+003;5.522219e-002
2.804109e+003;5.748300e-002
2.806037e+003;5.997767e-002
2.807966e+003;6.211118e-002
2.809895e+003;6.379446e-002
2.811823e+003;6.565623e-002
2.813751e+003;6.768695e-002
2.815680e+003;6.982838e-002
2.817609e+003;7.226481e-002
2.819537e+003;7.525965e-002
2.821466e+003;7.874964e-002
2.823394e+003;8.264654e-002
2.825323e+003;8.750430e-002
2.827251e+003;9.390926e-002
2.829180e+003;1.021823e-001
2.831108e+003;1.122073e-001
2.833037e+003;1.222121e-001
2.834966e+003;1.299875e-001
2.836894e+003;1.339752e-001
2.838823e+003;1.341610e-001
2.840751e+003;1.314961e-001
2.842680e+003;1.268786e-001
2.844608e+003;1.210791e-001
2.846537e+003;1.157776e-001
2.848465e+003;1.118688e-001
2.850394e+003;1.092020e-001
2.852323e+003;1.077801e-001
2.854251e+003;1.067415e-001
2.856180e+003;1.066486e-001
2.858108e+003;1.091972e-001
2.860037e+003;1.153202e-001
2.861965e+003;1.236830e-001
2.863894e+003;1.320438e-001
2.865822e+003;1.384579e-001
2.867751e+003;1.420949e-001
2.869679e+003;1.435879e-001
2.871608e+003;1.440099e-001
2.873536e+003;1.443958e-001
2.875465e+003;1.441182e-001
2.877394e+003;1.429747e-001
2.879322e+003;1.414301e-001
2.881251e+003;1.398810e-001
2.883179e+003;1.389695e-001
2.885108e+003;1.391011e-001
2.887036e+003;1.400098e-001
2.888965e+003;1.415964e-001
2.890893e+003;1.438829e-001
2.892822e+003;1.466486e-001
2.894750e+003;1.503468e-001
2.896679e+003;1.549340e-001
2.898608e+003;1.599914e-001
2.900536e+003;1.651434e-001
2.902465e+003;1.702279e-001
2.904393e+003;1.751541e-001
2.906322e+003;1.802189e-001
2.908250e+003;1.847102e-001
2.910179e+003;1.879167e-001
2.912107e+003;1.910201e-001
2.914036e+003;1.935266e-001
2.915965e+003;1.941926e-001
2.917893e+003;1.930975e-001
2.919822e+003;1.905386e-001
2.921750e+003;1.867100e-001
2.923679e+003;1.817333e-001
2.925607e+003;1.762097e-001
2.927536e+003;1.691674e-001
2.929464e+003;1.605929e-001
2.931393e+003;1.518606e-001
2.933322e+003;1.440054e-001
2.935250e+003;1.375044e-001
2.937178e+003;1.331446e-001
2.939107e+003;1.312603e-001
2.941036e+003;1.323438e-001
2.942964e+003;1.370802e-001
2.944893e+003;1.444850e-001
2.946821e+003;1.529663e-001
2.948750e+003;1.601448e-001
2.950678e+003;1.639074e-001
2.952607e+003;1.644539e-001
2.954535e+003;1.625133e-001
2.956464e+003;1.585754e-001
2.958393e+003;1.533449e-001
2.960321e+003;1.474881e-001
2.962250e+003;1.413638e-001
2.964178e+003;1.345000e-001
2.966107e+003;1.269150e-001
2.968035e+003;1.198122e-001
2.969964e+003;1.133806e-001
2.971892e+003;1.070665e-001
2.973821e+003;1.012544e-001
2.975750e+003;9.550814e-002
2.977678e+003;9.072793e-002
2.979607e+003;8.695987e-002
2.981535e+003;8.311821e-002
2.983464e+003;7.961480e-002
2.985392e+003;7.650492e-002
2.987321e+003;7.342131e-002
2.989249e+003;7.020114e-002
2.991178e+003;6.712696e-002
2.993106e+003;6.461369e-002
2.995035e+003;6.198589e-002
2.996964e+003;5.910668e-002
2.998892e+003;5.632776e-002
3.000821e+003;5.371373e-002
3.002749e+003;5.182854e-002
3.004678e+003;5.034578e-002
3.006606e+003;4.828367e-002
3.008535e+003;4.603370e-002
3.010463e+003;4.403019e-002
3.012392e+003;4.242835e-002
3.014321e+003;4.125233e-002
3.016249e+003;3.989100e-002
3.018177e+003;3.836202e-002
3.020106e+003;3.726564e-002
3.022035e+003;3.647754e-002
3.023963e+003;3.573333e-002
3.025892e+003;3.495986e-002
3.027820e+003;3.410937e-002
3.029749e+003;3.285798e-002
3.031677e+003;3.204948e-002
3.033606e+003;3.195849e-002
3.035534e+003;3.155692e-002
3.037463e+003;3.110503e-002
3.039392e+003;3.064714e-002
3.041320e+003;3.012857e-002
3.043249e+003;2.970676e-002
3.045177e+003;2.918605e-002
3.047106e+003;2.876848e-002
3.049034e+003;2.859426e-002
3.050963e+003;2.857508e-002
3.052891e+003;2.829692e-002
3.054820e+003;2.774039e-002
3.056749e+003;2.734933e-002
3.058677e+003;2.723893e-002
3.060606e+003;2.719014e-002
3.062534e+003;2.700837e-002
3.064463e+003;2.672761e-002
3.066391e+003;2.670013e-002
3.068320e+003;2.650064e-002
3.070248e+003;2.615936e-002
3.072177e+003;2.635324e-002
3.074105e+003;2.668984e-002
3.076034e+003;2.643528e-002
3.077963e+003;2.591348e-002
3.079891e+003;2.560268e-002
3.081820e+003;2.531047e-002
3.083748e+003;2.529027e-002
3.085677e+003;2.522418e-002
3.087605e+003;2.503368e-002
3.089534e+003;2.515199e-002
3.091462e+003;2.509842e-002
3.093391e+003;2.521923e-002
3.095320e+003;2.546482e-002
3.097248e+003;2.517253e-002
3.099177e+003;2.462079e-002
3.101105e+003;2.458373e-002
3.103034e+003;2.482556e-002
3.104962e+003;2.490173e-002
3.106891e+003;2.464797e-002
3.108819e+003;2.474575e-002
3.110748e+003;2.511126e-002
3.112677e+003;2.510786e-002
3.114605e+003;2.489208e-002
3.116533e+003;2.455231e-002
3.118462e+003;2.456689e-002
3.120391e+003;2.505303e-002
3.122319e+003;2.521856e-002
3.124248e+003;2.550031e-002
3.126176e+003;2.555453e-002
3.128105e+003;2.515785e-002
3.130033e+003;2.535255e-002
3.131962e+003;2.568461e-002
3.133890e+003;2.557013e-002
3.135819e+003;2.556926e-002
3.137748e+003;2.578769e-002
3.139676e+003;2.601123e-002
3.141605e+003;2.583260e-002
3.143533e+003;2.568015e-002
3.145462e+003;2.582426e-002
3.147390e+003;2.610376e-002
3.149319e+003;2.633317e-002
3.151247e+003;2.633599e-002
3.153176e+003;2.598165e-002
3.155104e+003;2.550646e-002
3.157033e+003;2.519925e-002
3.158962e+003;2.477925e-002
3.160890e+003;2.485373e-002
3.162819e+003;2.539129e-002
3.164747e+003;2.566542e-002
3.166676e+003;2.577627e-002
3.168604e+003;2.537963e-002
3.170533e+003;2.503425e-002
3.172461e+003;2.517934e-002
3.174390e+003;2.543672e-002
3.176319e+003;2.536747e-002
3.178247e+003;2.521600e-002
3.180176e+003;2.527208e-002
3.182104e+003;2.529659e-002
3.184033e+003;2.558518e-002
3.185961e+003;2.591112e-002
3.187890e+003;2.608979e-002
3.189818e+003;2.606861e-002
3.191747e+003;2.626023e-002
3.193676e+003;2.626600e-002
3.195604e+003;2.573569e-002
3.197532e+003;2.543784e-002
3.199461e+003;2.580123e-002
3.201390e+003;2.602129e-002
3.203318e+003;2.580067e-002
3.205247e+003;2.580559e-002
3.207175e+003;2.595428e-002
3.209104e+003;2.538261e-002
3.211032e+003;2.476645e-002
3.212961e+003;2.470948e-002
3.214889e+003;2.482321e-002
3.216818e+003;2.479693e-002
3.218747e+003;2.464008e-002
3.220675e+003;2.409199e-002
3.222604e+003;2.372684e-002
3.224532e+003;2.380919e-002
3.226461e+003;2.388932e-002
3.228389e+003;2.403816e-002
3.230318e+003;2.371410e-002
3.232246e+003;2.317288e-002
3.234175e+003;2.290025e-002
3.236104e+003;2.287713e-002
3.238032e+003;2.274296e-002
3.239961e+003;2.264521e-002
3.241889e+003;2.262025e-002
3.243818e+003;2.251415e-002
3.245746e+003;2.228055e-002
3.247675e+003;2.200091e-002
3.249603e+003;2.143226e-002
3.251532e+003;2.127001e-002
3.253460e+003;2.143293e-002
3.255389e+003;2.146930e-002
3.257318e+003;2.178883e-002
3.259246e+003;2.209304e-002
3.261175e+003;2.211571e-002
3.263103e+003;2.214151e-002
3.265032e+003;2.204218e-002
3.266960e+003;2.166273e-002
3.268889e+003;2.172376e-002
3.270817e+003;2.208307e-002
3.272746e+003;2.191490e-002
3.274675e+003;2.176284e-002
3.276603e+003;2.197237e-002
3.278531e+003;2.192661e-002
3.280460e+003;2.179618e-002
3.282389e+003;2.189322e-002
3.284317e+003;2.168210e-002
3.286246e+003;2.133575e-002
3.288174e+003;2.122631e-002
3.290103e+003;2.138151e-002
3.292031e+003;2.182872e-002
3.293960e+003;2.222070e-002
3.295888e+003;2.182294e-002
3.297817e+003;2.142582e-002
3.299746e+003;2.133609e-002
3.301674e+003;2.147703e-002
3.303603e+003;2.145875e-002
3.305531e+003;2.114938e-002
3.307460e+003;2.144253e-002
3.309388e+003;2.170718e-002
3.311317e+003;2.184154e-002
3.313245e+003;2.187953e-002
3.315174e+003;2.170791e-002
3.317103e+003;2.151843e-002
3.319031e+003;2.126395e-002
3.320960e+003;2.090875e-002
3.322888e+003;2.074485e-002
3.324817e+003;2.119363e-002
3.326745e+003;2.175448e-002
3.328674e+003;2.176288e-002
3.330602e+003;2.139307e-002
3.332531e+003;2.116528e-002
3.334459e+003;2.128782e-002
3.336388e+003;2.145983e-002
3.338317e+003;2.148608e-002
3.340245e+003;2.190841e-002
3.342174e+003;2.189747e-002
3.344102e+003;2.163010e-002
3.346031e+003;2.173421e-002
3.347959e+003;2.154391e-002
3.349888e+003;2.104618e-002
3.351816e+003;2.132572e-002
3.353745e+003;2.189420e-002
3.355674e+003;2.136630e-002
3.357602e+003;2.065860e-002
3.359531e+003;2.065836e-002
3.361459e+003;2.095813e-002
3.363388e+003;2.106034e-002
3.365316e+003;2.081941e-002
3.367245e+003;2.060297e-002
3.369173e+003;2.063799e-002
3.371102e+003;2.064352e-002
3.373031e+003;2.072595e-002
3.374959e+003;2.097962e-002
3.376887e+003;2.106754e-002
3.378816e+003;2.079991e-002
3.380745e+003;2.059595e-002
3.382673e+003;2.030244e-002
3.384602e+003;1.976236e-002
3.386530e+003;1.978168e-002
3.388459e+003;2.033011e-002
3.390387e+003;2.020239e-002
3.392316e+003;1.933851e-002
3.394244e+003;1.934370e-002
3.396173e+003;1.985447e-002
3.398102e+003;2.033584e-002
3.400030e+003;2.080088e-002
3.401959e+003;2.086081e-002
3.403887e+003;2.013738e-002
3.405816e+003;1.947142e-002
3.407744e+003;1.896875e-002
3.409673e+003;1.948164e-002
3.411601e+003;2.017680e-002
3.413530e+003;1.998952e-002
3.415458e+003;1.972394e-002
3.417387e+003;1.975081e-002
3.419316e+003;1.945586e-002
3.421244e+003;1.967068e-002
3.423173e+003;1.959840e-002
3.425101e+003;1.905390e-002
3.427030e+003;1.928589e-002
3.428958e+003;1.961289e-002
3.430887e+003;1.951914e-002
3.432815e+003;1.907371e-002
3.434744e+003;1.854283e-002
3.436673e+003;1.817769e-002
3.438601e+003;1.820592e-002
3.440530e+003;1.816290e-002
3.442458e+003;1.802628e-002
3.444387e+003;1.803523e-002
3.446315e+003;1.787158e-002
3.448244e+003;1.774689e-002
3.450172e+003;1.776156e-002
3.452101e+003;1.757410e-002
3.454030e+003;1.742714e-002
3.455958e+003;1.746453e-002
3.457886e+003;1.773653e-002
3.459815e+003;1.757890e-002
3.461744e+003;1.724052e-002
3.463672e+003;1.729386e-002
3.465601e+003;1.677115e-002
3.467529e+003;1.667449e-002
3.469458e+003;1.688777e-002
3.471386e+003;1.688932e-002
3.473315e+003;1.683328e-002
3.475243e+003;1.651304e-002
3.477172e+003;1.606305e-002
3.479101e+003;1.590237e-002
3.481029e+003;1.598349e-002
3.482958e+003;1.618216e-002
3.484886e+003;1.652639e-002
3.486815e+003;1.622966e-002
3.488743e+003;1.590979e-002
3.490672e+003;1.562966e-002
3.492600e+003;1.557636e-002
3.494529e+003;1.566099e-002
3.496458e+003;1.557382e-002
3.498386e+003;1.551815e-002
3.500315e+003;1.543564e-002
3.502243e+003;1.520162e-002
3.504172e+003;1.516631e-002
3.506100e+003;1.546960e-002
3.508029e+003;1.517304e-002
3.509957e+003;1.465294e-002
3.511886e+003;1.489218e-002
3.513814e+003;1.516817e-002
3.515743e+003;1.516343e-002
3.517672e+003;1.504089e-002
3.519600e+003;1.483091e-002
3.521529e+003;1.452814e-002
3.523457e+003;1.431612e-002
3.525386e+003;1.443787e-002
3.527314e+003;1.437971e-002
3.529243e+003;1.404793e-002
3.531171e+003;1.426807e-002
3.533100e+003;1.467031e-002
3.535029e+003;1.452252e-002
3.536957e+003;1.403154e-002
3.538885e+003;1.398541e-002
3.540814e+003;1.398482e-002
3.542743e+003;1.352076e-002
3.544671e+003;1.334873e-002
3.546600e+003;1.332580e-002
3.548528e+003;1.351044e-002
3.550457e+003;1.393569e-002
3.552385e+003;1.400498e-002
3.554314e+003;1.365495e-002
3.556242e+003;1.358944e-002
3.558171e+003;1.334364e-002
3.560100e+003;1.317665e-002
3.562028e+003;1.296788e-002
3.563957e+003;1.259228e-002
3.565885e+003;1.190152e-002
3.567814e+003;1.178820e-002
3.569742e+003;1.243214e-002
3.571671e+003;1.270721e-002
3.573599e+003;1.268872e-002
3.575528e+003;1.310989e-002
3.577457e+003;1.356182e-002
3.579385e+003;1.342049e-002
3.581314e+003;1.276453e-002
3.583242e+003;1.252881e-002
3.585171e+003;1.180325e-002
3.587099e+003;1.075977e-002
3.589028e+003;1.117061e-002
3.590956e+003;1.225242e-002
3.592885e+003;1.253246e-002
3.594813e+003;1.250661e-002
3.596742e+003;1.240272e-002
3.598671e+003;1.246317e-002
3.600599e+003;1.267518e-002
3.602528e+003;1.257438e-002
3.604456e+003;1.233368e-002
3.606385e+003;1.182381e-002
3.608313e+003;1.124170e-002
3.610242e+003;1.155369e-002
3.612170e+003;1.168437e-002
3.614099e+003;1.204852e-002
3.616028e+003;1.276358e-002
3.617956e+003;1.267838e-002
3.619885e+003;1.282671e-002
3.621813e+003;1.324702e-002
3.623742e+003;1.261220e-002
3.625670e+003;1.149618e-002
3.627599e+003;9.635351e-003
3.629527e+003;9.807345e-003
3.631456e+003;1.153970e-002
3.633385e+003;1.196347e-002
3.635313e+003;1.222301e-002
3.637241e+003;1.266934e-002
3.639170e+003;1.296317e-002
3.641099e+003;1.300605e-002
3.643027e+003;1.328853e-002
3.644956e+003;1.288036e-002
3.646884e+003;1.111679e-002
3.648813e+003;9.593276e-003
3.650741e+003;1.059419e-002
3.652670e+003;1.236791e-002
3.654598e+003;1.226813e-002
3.656527e+003;1.222161e-002
3.658456e+003;1.311723e-002
3.660384e+003;1.305809e-002
3.662313e+003;1.323318e-002
3.664241e+003;1.370887e-002
3.666170e+003;1.310176e-002
3.668098e+003;1.138273e-002
3.670027e+003;1.061914e-002
3.671955e+003;1.160106e-002
3.673884e+003;1.050002e-002
3.675813e+003;1.021253e-002
3.677741e+003;1.236051e-002
3.679669e+003;1.324114e-002
3.681598e+003;1.384052e-002
3.683527e+003;1.414298e-002
3.685455e+003;1.350196e-002
3.687384e+003;1.203319e-002
3.689312e+003;1.218876e-002
3.691241e+003;1.398188e-002
3.693169e+003;1.554624e-002
3.695098e+003;1.597081e-002
3.697026e+003;1.598507e-002
3.698955e+003;1.546654e-002
3.700884e+003;1.471329e-002
3.702812e+003;1.436646e-002
3.704741e+003;1.414862e-002
3.706669e+003;1.358862e-002
3.708598e+003;1.263291e-002
3.710526e+003;1.103120e-002
3.712455e+003;1.089222e-002
3.714383e+003;1.235942e-002
3.716312e+003;1.296979e-002
3.718240e+003;1.276460e-002
3.720169e+003;1.234916e-002
3.722098e+003;1.225614e-002
3.724026e+003;1.212439e-002
3.725955e+003;1.202427e-002
3.727883e+003;1.244479e-002
3.729812e+003;1.235591e-002
3.731740e+003;1.137562e-002
3.733669e+003;1.051634e-002
3.735597e+003;1.003322e-002
3.737526e+003;1.125414e-002
3.739455e+003;1.240701e-002
3.741383e+003;1.172181e-002
3.743312e+003;8.937326e-003
3.745240e+003;9.847305e-003
3.747169e+003;1.175855e-002
3.749097e+003;1.024394e-002
3.751026e+003;9.504400e-003
3.752954e+003;1.084116e-002
3.754883e+003;1.272782e-002
3.756812e+003;1.312522e-002
3.758740e+003;1.321303e-002
3.760668e+003;1.341369e-002
3.762597e+003;1.375822e-002
3.764526e+003;1.344988e-002
3.766454e+003;1.306567e-002
3.768383e+003;1.228102e-002
3.770311e+003;1.247122e-002
3.772240e+003;1.317546e-002
3.774168e+003;1.334627e-002
3.776097e+003;1.364838e-002
3.778025e+003;1.375962e-002
3.779954e+003;1.335361e-002
3.781883e+003;1.348115e-002
3.783811e+003;1.351116e-002
3.785740e+003;1.319315e-002
3.787668e+003;1.329153e-002
3.789597e+003;1.375805e-002
3.791525e+003;1.376441e-002
3.793454e+003;1.357963e-002
3.795382e+003;1.303617e-002
3.797311e+003;1.304262e-002
3.799240e+003;1.201197e-002
3.801168e+003;1.092188e-002
3.803097e+003;1.243490e-002
3.805025e+003;1.229370e-002
3.806954e+003;1.158122e-002
3.808882e+003;1.318338e-002
3.810811e+003;1.443390e-002
3.812739e+003;1.454233e-002
3.814668e+003;1.251579e-002
3.816596e+003;1.201255e-002
3.818525e+003;1.263438e-002
3.820454e+003;1.176825e-002
3.822382e+003;1.277146e-002
3.824311e+003;1.366743e-002
3.826239e+003;1.337053e-002
3.828168e+003;1.344058e-002
3.830096e+003;1.314274e-002
3.832025e+003;1.264819e-002
3.833953e+003;1.258011e-002
3.835882e+003;1.183620e-002
3.837811e+003;1.145570e-002
3.839739e+003;1.233453e-002
3.841667e+003;1.272513e-002
3.843596e+003;1.308957e-002
3.845525e+003;1.361477e-002
3.847453e+003;1.415085e-002
3.849382e+003;1.317898e-002
3.851310e+003;1.012773e-002
3.853239e+003;8.152869e-003
3.855167e+003;1.093456e-002
3.857096e+003;1.362476e-002
3.859024e+003;1.455853e-002
3.860953e+003;1.450844e-002
3.862882e+003;1.399533e-002
3.864810e+003;1.386422e-002
3.866739e+003;1.395095e-002
3.868667e+003;1.257155e-002
3.870596e+003;1.214525e-002
3.872524e+003;1.338300e-002
3.874453e+003;1.413418e-002
3.876381e+003;1.459054e-002
3.878310e+003;1.452691e-002
3.880239e+003;1.444328e-002
3.882167e+003;1.464955e-002
3.884096e+003;1.384585e-002
3.886024e+003;1.338618e-002
3.887953e+003;1.450964e-002
3.889881e+003;1.431742e-002
3.891810e+003;1.392228e-002
3.893738e+003;1.475933e-002
3.895667e+003;1.535648e-002
3.897595e+003;1.449950e-002
3.899524e+003;1.345295e-002
3.901453e+003;1.300875e-002
3.903381e+003;1.298314e-002
3.905310e+003;1.397042e-002
3.907238e+003;1.514110e-002
3.909167e+003;1.545717e-002
3.911095e+003;1.570032e-002
3.913024e+003;1.577209e-002
3.914952e+003;1.563200e-002
3.916881e+003;1.510610e-002
3.918810e+003;1.499067e-002
3.920738e+003;1.532208e-002
3.922667e+003;1.575433e-002
3.924595e+003;1.566439e-002
3.926524e+003;1.612742e-002
3.928452e+003;1.616878e-002
3.930381e+003;1.594369e-002
3.932309e+003;1.581470e-002
3.934238e+003;1.566721e-002
3.936167e+003;1.584096e-002
3.938095e+003;1.633833e-002
3.940023e+003;1.614915e-002
3.941952e+003;1.557492e-002
3.943881e+003;1.567068e-002
3.945809e+003;1.593245e-002
3.947738e+003;1.580972e-002
3.949666e+003;1.582663e-002
3.951595e+003;1.582979e-002
3.953523e+003;1.583061e-002
3.955452e+003;1.575801e-002
3.957380e+003;1.541023e-002
3.959309e+003;1.539935e-002
3.961238e+003;1.600250e-002
3.963166e+003;1.662460e-002
3.965095e+003;1.648320e-002
3.967023e+003;1.597593e-002
3.968952e+003;1.608258e-002
3.970880e+003;1.649338e-002
3.972809e+003;1.636468e-002
3.974737e+003;1.585663e-002
3.976666e+003;1.581821e-002
3.978594e+003;1.647353e-002
3.980523e+003;1.682725e-002
3.982452e+003;1.683262e-002
3.984380e+003;1.685901e-002
3.986309e+003;1.675155e-002
3.988237e+003;1.705312e-002
3.990166e+003;1.805381e-002
3.992094e+003;1.831550e-002
3.994023e+003;1.781078e-002
3.995951e+003;1.733493e-002
3.997880e+003;1.722187e-002
3.999809e+003;1.751862e-002
4.001737e+003;0.000000e+000
