3.992094e+002;0.000000e+000
4.011380e+002;0.000000e+000
4.030665e+002;0.000000e+000
4.049951e+002;0.000000e+000
4.069236e+002;0.000000e+000
4.088522e+002;0.000000e+000
4.107807e+002;0.000000e+000
4.127093e+002;0.000000e+000
4.146378e+002;0.000000e+000
4.165664e+002;0.000000e+000
4.184949e+002;0.000000e+000
4.204235e+002;0.000000e+000
4.223520e+002;0.000000e+000
4.242806e+002;0.000000e+000
4.262091e+002;0.000000e+000
4.281377e+002;0.000000e+000
4.300662e+002;0.000000e+000
4.319948e+002;0.000000e+000
4.339233e+002;0.000000e+000
4.358519e+002;0.000000e+000
4.377804e+002;0.000000e+000
4.397090e+002;0.000000e+000
4.416375e+002;0.000000e+000
4.435660e+002;0.000000e+000
4.454946e+002;0.000000e+000
4.474232e+002;0.000000e+000
4.493517e+002;0.000000e+000
4.512802e+002;0.000000e+000
4.532088e+002;0.000000e+000
4.551373e+002;0.000000e+000
4.570659e+002;0.000000e+000
4.589944e+002;0.000000e+000
4.609230e+002;0.000000e+000
4.628515e+002;0.000000e+000
4.647801e+002;0.000000e+000
4.667086e+002;0.000000e+000
4.686372e+002;0.000000e+000
4.705657e+002;0.000000e+000
4.724943e+002;0.000000e+000
4.744228e+002;0.000000e+000
4.763513e+002;0.000000e+000
4.782799e+002;0.000000e+000
4.802085e+002;0.000000e+000
4.821370e+002;0.000000e+000
4.840656e+002;0.000000e+000
4.859941e+002;0.000000e+000
4.879226e+002;0.000000e+000
4.898512e+002;0.000000e+000
4.917798e+002;0.000000e+000
4.937083e+002;0.000000e+000
4.956368e+002;0.000000e+000
4.975654e+002;0.000000e+000
4.994939e+002;0.000000e+000
5.014225e+002;0.000000e+000
5.033510e+002;0.000000e+000
5.052796e+002;0.000000e+000
5.072081e+002;0.000000e+000
5.091367e+002;0.000000e+000
5.110652e+002;0.000000e+000
5.129938e+002;0.000000e+000
5.149223e+002;0.000000e+000
5.168509e+002;0.000000e+000
5.187794e+002;0.000000e+000
5.207079e+002;0.000000e+000
5.226365e+002;0.000000e+000
5.245651e+002;0.000000e+000
5.264936e+002;0.000000e+000
5.284222e+002;0.000000e+000
5.303507e+002;0.000000e+000
5.322792e+002;0.000000e+000
5.342078e+002;0.000000e+000
5.361364e+002;0.000000e+000
5.380649e+002;0.000000e+000
5.399935e+002;0.000000e+000
5.419220e+002;0.000000e+000
5.438505e+002;0.000000e+000
5.457791e+002;0.000000e+000
5.477076e+002;0.000000e+000
5.496362e+002;0.000000e+000
5.515648e+002;0.000000e+000
5.534933e+002;0.000000e+000
5.554218e+002;0.000000e+000
5.573504e+002;0.000000e+000
5.592789e+002;0.000000e+000
5.612075e+002;0.000000e+000
5.631360e+002;0.000000e+000
5.650646e+002;0.000000e+000
5.669931e+002;0.000000e+000
5.689217e+002;0.000000e+000
5.708502e+002;0.000000e+000
5.727787e+002;0.000000e+000
5.747073e+002;0.000000e+000
5.766359e+002;0.000000e+000
5.785644e+002;0.000000e+000
5.804930e+002;0.000000e+000
5.824215e+002;0.000000e+000
5.843500e+002;0.000000e+000
5.862786e+002;0.000000e+000
5.882072e+002;0.000000e+000
5.901357e+002;0.000000e+000
5.920643e+002;0.000000e+000
5.939928e+002;0.000000e+000
5.959213e+002;0.000000e+000
5.978499e+002;0.000000e+000
5.997784e+002;2.180503e-002
6.017070e+002;1.832220e-002
6.036355e+002;2.074829e-002
6.055641e+002;2.526232e-002
6.074926e+002;3.074202e-002
6.094211e+002;3.321326e-002
6.113497e+002;3.349806e-002
6.132783e+002;3.122397e-002
6.152068e+002;2.696461e-002
6.171354e+002;2.598422e-002
6.190639e+002;2.788843e-002
6.209924e+002;2.762978e-002
6.229210e+002;2.825643e-002
6.248495e+002;2.850024e-002
6.267781e+002;2.753339e-002
6.287067e+002;2.689904e-002
6.306352e+002;3.105570e-002
6.325637e+002;3.507425e-002
6.344923e+002;3.564893e-002
6.364208e+002;3.505169e-002
6.383494e+002;3.499416e-002
6.402780e+002;3.258892e-002
6.422065e+002;2.846270e-002
6.441350e+002;2.907709e-002
6.460636e+002;2.910374e-002
6.479921e+002;2.843207e-002
6.499207e+002;3.244176e-002
6.518492e+002;3.546694e-002
6.537778e+002;3.146194e-002
6.557063e+002;2.702981e-002
6.576349e+002;2.737410e-002
6.595634e+002;2.825639e-002
6.614919e+002;2.859037e-002
6.634205e+002;2.852490e-002
6.653491e+002;2.720908e-002
6.672776e+002;2.694226e-002
6.692062e+002;2.710341e-002
6.711347e+002;2.721631e-002
6.730632e+002;2.698503e-002
6.749918e+002;2.664460e-002
6.769203e+002;2.732381e-002
6.788489e+002;2.693620e-002
6.807775e+002;2.540028e-002
6.827060e+002;2.512576e-002
6.846345e+002;2.597739e-002
6.865631e+002;2.609222e-002
6.884916e+002;2.506405e-002
6.904202e+002;2.382057e-002
6.923488e+002;2.406281e-002
6.942773e+002;2.539877e-002
6.962058e+002;2.566929e-002
6.981344e+002;2.529891e-002
7.000629e+002;2.605809e-002
7.019915e+002;2.720562e-002
7.039200e+002;2.885084e-002
7.058486e+002;3.166319e-002
7.077771e+002;3.652522e-002
7.097057e+002;4.373767e-002
7.116342e+002;5.125469e-002
7.135627e+002;5.577999e-002
7.154913e+002;5.511648e-002
7.174199e+002;4.991942e-002
7.193484e+002;4.356958e-002
7.212770e+002;3.835166e-002
7.232055e+002;3.548427e-002
7.251340e+002;3.396266e-002
7.270626e+002;3.314259e-002
7.289911e+002;3.194451e-002
7.309197e+002;3.117534e-002
7.328483e+002;2.997020e-002
7.347768e+002;2.806658e-002
7.367053e+002;2.635204e-002
7.386339e+002;2.614771e-002
7.405624e+002;2.650677e-002
7.424910e+002;2.608378e-002
7.444196e+002;2.520834e-002
7.463481e+002;2.518668e-002
7.482766e+002;2.461546e-002
7.502052e+002;2.277002e-002
7.521337e+002;2.161272e-002
7.540623e+002;2.166618e-002
7.559908e+002;2.168405e-002
7.579194e+002;2.190984e-002
7.598479e+002;2.248763e-002
7.617765e+002;2.306451e-002
7.637050e+002;2.379334e-002
7.656335e+002;2.345226e-002
7.675621e+002;2.294538e-002
7.694907e+002;2.274946e-002
7.714192e+002;2.182733e-002
7.733478e+002;2.202336e-002
7.752763e+002;2.329162e-002
7.772048e+002;2.393536e-002
7.791334e+002;2.379386e-002
7.810620e+002;2.415255e-002
7.829905e+002;2.411115e-002
7.849191e+002;2.409178e-002
7.868476e+002;2.492541e-002
7.887761e+002;2.606995e-002
7.907047e+002;2.682886e-002
7.926332e+002;2.784890e-002
7.945618e+002;2.857122e-002
7.964903e+002;2.907805e-002
7.984189e+002;2.978908e-002
8.003474e+002;3.090792e-002
8.022759e+002;3.285706e-002
8.042045e+002;3.682324e-002
8.061331e+002;4.173278e-002
8.080616e+002;4.582251e-002
8.099902e+002;4.817489e-002
8.119187e+002;4.740365e-002
8.138472e+002;4.395789e-002
8.157758e+002;4.033101e-002
8.177043e+002;3.757467e-002
8.196329e+002;3.511190e-002
8.215615e+002;3.333310e-002
8.234900e+002;3.333592e-002
8.254185e+002;3.400716e-002
8.273471e+002;3.473654e-002
8.292756e+002;3.605435e-002
8.312042e+002;3.701404e-002
8.331328e+002;3.823633e-002
8.350613e+002;4.140578e-002
8.369898e+002;4.661559e-002
8.389184e+002;5.331784e-002
8.408469e+002;5.737163e-002
8.427755e+002;5.519962e-002
8.447040e+002;5.028205e-002
8.466326e+002;4.716377e-002
8.485611e+002;4.360569e-002
8.504897e+002;3.958397e-002
8.524182e+002;3.752576e-002
8.543467e+002;3.682331e-002
8.562753e+002;3.682140e-002
8.582039e+002;3.746858e-002
8.601324e+002;3.907247e-002
8.620610e+002;4.277582e-002
8.639895e+002;4.859643e-002
8.659180e+002;5.651615e-002
8.678466e+002;6.917399e-002
8.697751e+002;8.780979e-002
8.717037e+002;1.073644e-001
8.736323e+002;1.214414e-001
8.755608e+002;1.242763e-001
8.774893e+002;1.147998e-001
8.794179e+002;9.921791e-002
8.813464e+002;8.487751e-002
8.832750e+002;7.231099e-002
8.852036e+002;5.811780e-002
8.871321e+002;4.437609e-002
8.890606e+002;3.678029e-002
8.909892e+002;3.520143e-002
8.929177e+002;3.678278e-002
8.948463e+002;4.049214e-002
8.967748e+002;4.513969e-002
8.987034e+002;4.832448e-002
9.006319e+002;4.807135e-002
9.025605e+002;4.399528e-002
9.044890e+002;3.868422e-002
9.064175e+002;3.410880e-002
9.083461e+002;3.081425e-002
9.102747e+002;2.868678e-002
9.122032e+002;2.730585e-002
9.141318e+002;2.627340e-002
9.160603e+002;2.606819e-002
9.179888e+002;2.624798e-002
9.199174e+002;2.584821e-002
9.218459e+002;2.562159e-002
9.237745e+002;2.599991e-002
9.257031e+002;2.589125e-002
9.276316e+002;2.558321e-002
9.295601e+002;2.580675e-002
9.314887e+002;2.631198e-002
9.334172e+002;2.708662e-002
9.353458e+002;2.813735e-002
9.372744e+002;2.972244e-002
9.392029e+002;3.173194e-002
9.411314e+002;3.266047e-002
9.430600e+002;3.255017e-002
9.449885e+002;3.166561e-002
9.469171e+002;3.081212e-002
9.488456e+002;3.117416e-002
9.507742e+002;3.203988e-002
9.527027e+002;3.268369e-002
9.546313e+002;3.367841e-002
9.565598e+002;3.461370e-002
9.584883e+002;3.551972e-002
9.604169e+002;3.716156e-002
9.623455e+002;3.949314e-002
9.642740e+002;4.262330e-002
9.662026e+002;4.691689e-002
9.681311e+002;5.280940e-002
9.700596e+002;5.934748e-002
9.719882e+002;6.375735e-002
9.739167e+002;6.378774e-002
9.758453e+002;5.923407e-002
9.777739e+002;5.226381e-002
9.797024e+002;4.481621e-002
9.816309e+002;3.841710e-002
9.835595e+002;3.442973e-002
9.854880e+002;3.269655e-002
9.874166e+002;3.280852e-002
9.893452e+002;3.457792e-002
9.912737e+002;3.800453e-002
9.932022e+002;4.282555e-002
9.951307e+002;4.853363e-002
9.970593e+002;5.275065e-002
9.989879e+002;5.245347e-002
1.000916e+003;4.827245e-002
1.002845e+003;4.255386e-002
1.004773e+003;3.739176e-002
1.006702e+003;3.326048e-002
1.008631e+003;3.044313e-002
1.010559e+003;2.886316e-002
1.012488e+003;2.775582e-002
1.014416e+003;2.652484e-002
1.016345e+003;2.541796e-002
1.018273e+003;2.461297e-002
1.020202e+003;2.403399e-002
1.022130e+003;2.387927e-002
1.024059e+003;2.399775e-002
1.025988e+003;2.376828e-002
1.027916e+003;2.331609e-002
1.029845e+003;2.333179e-002
1.031773e+003;2.373265e-002
1.033702e+003;2.414029e-002
1.035630e+003;2.512998e-002
1.037559e+003;2.592832e-002
1.039487e+003;2.595203e-002
1.041416e+003;2.646415e-002
1.043344e+003;2.694484e-002
1.045273e+003;2.708986e-002
1.047202e+003;2.720457e-002
1.049130e+003;2.697748e-002
1.051059e+003;2.604536e-002
1.052987e+003;2.478802e-002
1.054916e+003;2.344820e-002
1.056844e+003;2.254179e-002
1.058773e+003;2.209329e-002
1.060701e+003;2.192584e-002
1.062630e+003;2.149879e-002
1.064558e+003;2.142924e-002
1.066487e+003;2.176270e-002
1.068416e+003;2.178089e-002
1.070344e+003;2.210880e-002
1.072273e+003;2.236294e-002
1.074201e+003;2.199854e-002
1.076130e+003;2.153594e-002
1.078058e+003;2.151421e-002
1.079987e+003;2.176121e-002
1.081915e+003;2.186862e-002
1.083844e+003;2.221208e-002
1.085773e+003;2.268012e-002
1.087701e+003;2.297437e-002
1.089630e+003;2.339358e-002
1.091558e+003;2.385715e-002
1.093487e+003;2.446260e-002
1.095415e+003;2.547420e-002
1.097344e+003;2.711864e-002
1.099272e+003;2.868288e-002
1.101201e+003;3.005130e-002
1.103129e+003;3.101086e-002
1.105058e+003;3.000191e-002
1.106987e+003;2.733253e-002
1.108915e+003;2.443967e-002
1.110844e+003;2.267803e-002
1.112772e+003;2.187583e-002
1.114701e+003;2.108294e-002
1.116629e+003;2.062771e-002
1.118558e+003;2.038737e-002
1.120486e+003;2.038539e-002
1.122415e+003;2.041435e-002
1.124344e+003;2.024126e-002
1.126272e+003;2.012922e-002
1.128201e+003;2.069807e-002
1.130129e+003;2.119624e-002
1.132058e+003;2.133554e-002
1.133986e+003;2.239126e-002
1.135915e+003;2.423813e-002
1.137843e+003;2.600656e-002
1.139772e+003;2.820781e-002
1.141700e+003;3.137242e-002
1.143629e+003;3.504645e-002
1.145557e+003;3.851141e-002
1.147486e+003;4.216680e-002
1.149415e+003;4.651615e-002
1.151343e+003;5.022975e-002
1.153272e+003;5.207576e-002
1.155200e+003;5.250982e-002
1.157129e+003;5.250305e-002
1.159057e+003;5.288275e-002
1.160986e+003;5.345448e-002
1.162914e+003;5.378547e-002
1.164843e+003;5.359087e-002
1.166771e+003;5.236689e-002
1.168700e+003;4.921436e-002
1.170629e+003;4.493515e-002
1.172557e+003;4.008264e-002
1.174486e+003;3.507587e-002
1.176414e+003;3.075678e-002
1.178343e+003;2.734428e-002
1.180271e+003;2.495763e-002
1.182200e+003;2.335308e-002
1.184128e+003;2.217286e-002
1.186057e+003;2.157960e-002
1.187986e+003;2.133042e-002
1.189914e+003;2.119833e-002
1.191843e+003;2.123939e-002
1.193771e+003;2.176173e-002
1.195700e+003;2.218380e-002
1.197628e+003;2.217341e-002
1.199557e+003;2.195633e-002
1.201485e+003;2.203190e-002
1.203414e+003;2.239402e-002
1.205343e+003;2.285429e-002
1.207271e+003;2.341791e-002
1.209200e+003;2.430744e-002
1.211128e+003;2.568957e-002
1.213057e+003;2.748905e-002
1.214985e+003;2.923566e-002
1.216914e+003;3.060341e-002
1.218842e+003;3.084395e-002
1.220771e+003;2.977283e-002
1.222699e+003;2.811677e-002
1.224628e+003;2.684515e-002
1.226557e+003;2.581972e-002
1.228485e+003;2.496696e-002
1.230414e+003;2.441342e-002
1.232342e+003;2.436621e-002
1.234271e+003;2.457857e-002
1.236199e+003;2.477707e-002
1.238128e+003;2.480563e-002
1.240056e+003;2.498041e-002
1.241985e+003;2.501810e-002
1.243913e+003;2.486906e-002
1.245842e+003;2.528346e-002
1.247771e+003;2.642225e-002
1.249699e+003;2.809387e-002
1.251628e+003;3.049058e-002
1.253556e+003;3.371637e-002
1.255485e+003;3.588405e-002
1.257413e+003;3.494592e-002
1.259342e+003;3.228030e-002
1.261270e+003;3.003038e-002
1.263199e+003;2.833971e-002
1.265127e+003;2.735201e-002
1.267056e+003;2.720111e-002
1.268985e+003;2.692189e-002
1.270913e+003;2.671743e-002
1.272842e+003;2.706356e-002
1.274770e+003;2.724062e-002
1.276699e+003;2.741532e-002
1.278627e+003;2.786801e-002
1.280556e+003;2.856546e-002
1.282484e+003;2.982503e-002
1.284413e+003;3.119164e-002
1.286342e+003;3.253457e-002
1.288270e+003;3.432641e-002
1.290199e+003;3.663170e-002
1.292127e+003;3.877584e-002
1.294056e+003;4.046152e-002
1.295984e+003;4.146082e-002
1.297913e+003;4.127459e-002
1.299841e+003;4.136062e-002
1.301770e+003;4.275692e-002
1.303698e+003;4.434001e-002
1.305627e+003;4.430383e-002
1.307556e+003;4.204991e-002
1.309484e+003;3.917569e-002
1.311413e+003;3.772731e-002
1.313341e+003;3.768037e-002
1.315270e+003;3.825583e-002
1.317198e+003;3.922922e-002
1.319127e+003;4.052997e-002
1.321055e+003;4.247047e-002
1.322984e+003;4.529883e-002
1.324912e+003;4.857764e-002
1.326841e+003;5.147524e-002
1.328770e+003;5.305411e-002
1.330698e+003;5.324461e-002
1.332627e+003;5.251113e-002
1.334555e+003;5.135481e-002
1.336484e+003;5.055669e-002
1.338412e+003;5.054931e-002
1.340341e+003;5.175272e-002
1.342269e+003;5.400615e-002
1.344198e+003;5.660436e-002
1.346126e+003;5.958697e-002
1.348055e+003;6.310162e-002
1.349984e+003;6.745627e-002
1.351912e+003;7.318078e-002
1.353841e+003;8.052875e-002
1.355769e+003;8.883056e-002
1.357698e+003;9.534959e-002
1.359626e+003;9.775746e-002
1.361555e+003;9.714901e-002
1.363483e+003;9.741419e-002
1.365412e+003;1.015464e-001
1.367341e+003;1.107505e-001
1.369269e+003;1.273848e-001
1.371198e+003;1.518570e-001
1.373126e+003;1.802700e-001
1.375055e+003;2.031389e-001
1.376983e+003;2.071319e-001
1.378912e+003;1.893356e-001
1.380840e+003;1.619666e-001
1.382769e+003;1.356071e-001
1.384698e+003;1.149108e-001
1.386626e+003;1.008410e-001
1.388555e+003;9.481566e-002
1.390483e+003;9.376352e-002
1.392412e+003;9.357778e-002
1.394340e+003;9.446520e-002
1.396269e+003;9.751704e-002
1.398197e+003;1.005673e-001
1.400126e+003;1.043718e-001
1.402054e+003;1.079806e-001
1.403983e+003;1.098627e-001
1.405911e+003;1.122142e-001
1.407840e+003;1.152349e-001
1.409769e+003;1.177969e-001
1.411697e+003;1.203675e-001
1.413626e+003;1.228724e-001
1.415554e+003;1.249113e-001
1.417483e+003;1.247692e-001
1.419411e+003;1.252836e-001
1.421340e+003;1.289953e-001
1.423268e+003;1.316131e-001
1.425197e+003;1.336976e-001
1.427125e+003;1.363006e-001
1.429054e+003;1.394340e-001
1.430983e+003;1.442414e-001
1.432911e+003;1.496030e-001
1.434840e+003;1.510933e-001
1.436768e+003;1.499524e-001
1.438697e+003;1.518955e-001
1.440625e+003;1.543595e-001
1.442554e+003;1.575179e-001
1.444482e+003;1.628711e-001
1.446411e+003;1.691877e-001
1.448340e+003;1.757777e-001
1.450268e+003;1.811908e-001
1.452197e+003;1.833259e-001
1.454125e+003;1.817274e-001
1.456054e+003;1.753379e-001
1.457982e+003;1.727784e-001
1.459911e+003;1.731599e-001
1.461839e+003;1.688205e-001
1.463768e+003;1.597641e-001
1.465697e+003;1.504417e-001
1.467625e+003;1.424891e-001
1.469554e+003;1.323647e-001
1.471482e+003;1.201216e-001
1.473411e+003;1.114464e-001
1.475339e+003;1.070800e-001
1.477268e+003;1.032445e-001
1.479196e+003;9.958057e-002
1.481125e+003;9.545224e-002
1.483053e+003;9.240261e-002
1.484982e+003;8.934546e-002
1.486911e+003;8.556888e-002
1.488839e+003;8.189555e-002
1.490768e+003;7.997383e-002
1.492696e+003;7.943745e-002
1.494625e+003;7.616553e-002
1.496553e+003;7.261574e-002
1.498482e+003;7.207803e-002
1.500410e+003;7.205343e-002
1.502339e+003;7.075106e-002
1.504267e+003;6.465495e-002
1.506196e+003;5.769411e-002
1.508125e+003;5.869822e-002
1.510053e+003;6.135156e-002
1.511982e+003;6.054310e-002
1.513910e+003;5.922902e-002
1.515839e+003;5.680672e-002
1.517767e+003;5.445750e-002
1.519696e+003;5.058803e-002
1.521624e+003;4.778006e-002
1.523553e+003;4.894435e-002
1.525481e+003;4.910960e-002
1.527410e+003;4.919231e-002
1.529339e+003;4.904702e-002
1.531267e+003;4.710770e-002
1.533196e+003;4.404141e-002
1.535124e+003;4.371330e-002
1.537053e+003;4.078638e-002
1.538981e+003;3.383545e-002
1.540910e+003;3.244337e-002
1.542838e+003;3.480482e-002
1.544767e+003;3.609917e-002
1.546695e+003;3.698254e-002
1.548624e+003;3.610792e-002
1.550553e+003;3.477452e-002
1.552481e+003;3.255121e-002
1.554410e+003;2.966990e-002
1.556338e+003;2.616609e-002
1.558267e+003;1.988874e-002
1.560195e+003;2.119548e-002
1.562124e+003;2.736948e-002
1.564052e+003;2.857045e-002
1.565981e+003;2.774946e-002
1.567910e+003;2.606524e-002
1.569838e+003;2.472288e-002
1.571767e+003;2.585521e-002
1.573695e+003;2.416253e-002
1.575624e+003;2.046058e-002
1.577552e+003;2.251827e-002
1.579481e+003;2.550186e-002
1.581409e+003;2.537872e-002
1.583338e+003;2.500922e-002
1.585266e+003;2.479132e-002
1.587195e+003;2.444142e-002
1.589124e+003;2.361424e-002
1.591052e+003;2.300187e-002
1.592981e+003;2.239967e-002
1.594909e+003;2.207673e-002
1.596838e+003;2.194759e-002
1.598766e+003;2.146098e-002
1.600695e+003;2.090709e-002
1.602623e+003;2.083693e-002
1.604552e+003;2.084225e-002
1.606480e+003;2.033275e-002
1.608409e+003;1.961300e-002
1.610338e+003;1.943018e-002
1.612266e+003;1.937512e-002
1.614195e+003;1.734244e-002
1.616123e+003;1.393353e-002
1.618052e+003;1.571850e-002
1.619980e+003;1.815606e-002
1.621909e+003;1.677080e-002
1.623837e+003;1.609093e-002
1.625766e+003;1.702713e-002
1.627694e+003;1.726014e-002
1.629623e+003;1.777240e-002
1.631552e+003;1.781565e-002
1.633480e+003;1.481260e-002
1.635409e+003;1.185922e-002
1.637337e+003;1.433194e-002
1.639266e+003;1.710409e-002
1.641194e+003;1.751621e-002
1.643123e+003;1.632505e-002
1.645051e+003;1.297324e-002
1.646980e+003;1.209652e-002
1.648909e+003;1.449669e-002
1.650837e+003;1.057277e-002
1.652766e+003;4.095165e-003
1.654694e+003;9.139838e-003
1.656623e+003;1.509234e-002
1.658551e+003;1.587656e-002
1.660480e+003;1.477390e-002
1.662408e+003;1.351841e-002
1.664337e+003;1.447100e-002
1.666266e+003;1.467330e-002
1.668194e+003;1.202052e-002
1.670123e+003;1.130655e-002
1.672051e+003;1.274891e-002
1.673980e+003;1.159901e-002
1.675908e+003;1.143607e-002
1.677837e+003;1.353967e-002
1.679765e+003;1.361081e-002
1.681694e+003;1.120998e-002
1.683622e+003;5.860149e-003
1.685551e+003;7.153249e-003
1.687479e+003;1.196044e-002
1.689408e+003;1.313048e-002
1.691337e+003;1.345644e-002
1.693265e+003;1.140631e-002
1.695194e+003;6.729303e-003
1.697122e+003;6.862785e-003
1.699051e+003;5.344703e-003
1.700979e+003;5.574979e-003
1.702908e+003;1.004529e-002
1.704836e+003;1.002596e-002
1.706765e+003;1.033928e-002
1.708693e+003;1.119274e-002
1.710622e+003;1.158407e-002
1.712551e+003;1.062128e-002
1.714479e+003;8.034380e-003
1.716408e+003;4.234832e-003
1.718336e+003;4.600824e-003
1.720265e+003;8.672539e-003
1.722193e+003;1.008256e-002
1.724122e+003;9.878895e-003
1.726050e+003;1.000623e-002
1.727979e+003;9.508600e-003
1.729908e+003;8.331675e-003
1.731836e+003;5.057457e-003
1.733765e+003;1.913925e-003
1.735693e+003;5.116226e-003
1.737622e+003;7.584116e-003
1.739550e+003;6.810511e-003
1.741479e+003;7.382464e-003
1.743407e+003;7.751321e-003
1.745336e+003;7.595952e-003
1.747265e+003;6.602523e-003
1.749193e+003;5.128966e-003
1.751122e+003;4.546780e-003
1.753050e+003;6.467473e-003
1.754979e+003;6.996881e-003
1.756907e+003;6.348099e-003
1.758836e+003;6.549810e-003
1.760764e+003;5.859175e-003
1.762693e+003;5.935787e-003
1.764621e+003;6.770191e-003
1.766550e+003;5.782509e-003
1.768479e+003;5.066575e-003
1.770407e+003;3.741329e-003
1.772336e+003;2.189008e-003
1.774264e+003;4.097305e-003
1.776193e+003;5.899276e-003
1.778121e+003;6.063851e-003
1.780050e+003;5.687024e-003
1.781978e+003;6.034351e-003
1.783907e+003;6.300291e-003
1.785835e+003;7.187575e-003
1.787764e+003;8.604805e-003
1.789693e+003;8.791946e-003
1.791621e+003;8.793332e-003
1.793550e+003;1.145982e-002
1.795478e+003;1.463553e-002
1.797407e+003;1.532260e-002
1.799335e+003;1.462761e-002
1.801264e+003;1.379776e-002
1.803192e+003;1.317775e-002
1.805121e+003;1.156536e-002
1.807049e+003;9.756648e-003
1.808978e+003;8.039477e-003
1.810907e+003;6.511532e-003
1.812835e+003;5.675811e-003
1.814764e+003;5.370969e-003
1.816692e+003;5.012339e-003
1.818621e+003;4.951071e-003
1.820549e+003;4.792177e-003
1.822478e+003;4.255878e-003
1.824406e+003;3.435370e-003
1.826335e+003;3.584781e-003
1.828264e+003;3.322102e-003
1.830192e+003;2.903445e-003
1.832121e+003;3.606965e-003
1.834049e+003;4.051450e-003
1.835978e+003;3.912577e-003
1.837906e+003;3.618325e-003
1.839835e+003;3.444154e-003
1.841763e+003;2.319302e-003
1.843692e+003;5.910826e-004
1.845620e+003;1.373521e-003
1.847549e+003;2.559545e-003
1.849478e+003;2.796651e-003
1.851406e+003;2.969729e-003
1.853335e+003;2.826499e-003
1.855263e+003;2.631643e-003
1.857192e+003;2.625943e-003
1.859120e+003;2.532315e-003
1.861049e+003;2.503021e-003
1.862977e+003;2.372338e-003
1.864906e+003;1.818587e-003
1.866834e+003;9.847658e-004
1.868763e+003;5.526296e-004
1.870692e+003;1.228258e-003
1.872620e+003;1.915289e-003
1.874549e+003;2.057387e-003
1.876477e+003;1.998432e-003
1.878406e+003;2.018937e-003
1.880334e+003;2.089747e-003
1.882263e+003;1.846471e-003
1.884191e+003;1.760063e-003
1.886120e+003;1.874855e-003
1.888048e+003;1.740169e-003
1.889977e+003;1.473482e-003
1.891906e+003;1.774469e-003
1.893834e+003;2.120678e-003
1.895763e+003;2.298317e-003
1.897691e+003;2.324466e-003
1.899620e+003;2.424579e-003
1.901548e+003;2.407887e-003
1.903477e+003;2.228372e-003
1.905405e+003;1.923243e-003
1.907334e+003;1.702779e-003
1.909262e+003;1.835357e-003
1.911191e+003;2.113353e-003
1.913120e+003;2.028324e-003
1.915048e+003;1.667853e-003
1.916977e+003;8.340220e-004
1.918905e+003;1.127124e-003
1.920834e+003;1.756870e-003
1.922762e+003;1.306118e-003
1.924691e+003;1.292891e-003
1.926619e+003;1.594617e-003
1.928548e+003;1.662797e-003
1.930477e+003;1.498751e-003
1.932405e+003;1.150678e-003
1.934334e+003;9.967878e-004
1.936262e+003;1.049064e-003
1.938191e+003;7.445302e-004
1.940119e+003;5.080099e-004
1.942048e+003;5.366058e-004
1.943976e+003;7.138296e-004
1.945905e+003;8.187845e-004
1.947833e+003;8.425871e-004
1.949762e+003;8.977996e-004
1.951691e+003;9.881200e-004
1.953619e+003;8.222038e-004
1.955548e+003;7.125021e-004
1.957476e+003;7.584706e-004
1.959405e+003;8.990280e-004
1.961333e+003;1.245803e-003
1.963262e+003;1.389875e-003
1.965190e+003;1.106794e-003
1.967119e+003;7.593335e-004
1.969047e+003;7.827014e-004
1.970976e+003;9.537163e-004
1.972905e+003;1.105299e-003
1.974833e+003;1.101047e-003
1.976762e+003;1.079090e-003
1.978690e+003;1.009009e-003
1.980619e+003;1.074573e-003
1.982547e+003;1.089155e-003
1.984476e+003;1.022726e-003
1.986404e+003;8.381386e-004
1.988333e+003;1.010770e-003
1.990261e+003;1.166060e-003
1.992190e+003;1.091646e-003
1.994119e+003;1.288106e-003
1.996047e+003;1.338721e-003
1.997976e+003;1.227029e-003
1.999904e+003;1.155329e-003
2.001833e+003;1.175595e-003
2.003761e+003;1.230185e-003
2.005690e+003;1.050492e-003
2.007618e+003;7.969417e-004
2.009547e+003;9.213076e-004
2.011476e+003;1.210116e-003
2.013404e+003;1.270260e-003
2.015333e+003;1.228989e-003
2.017261e+003;1.381532e-003
2.019190e+003;1.496457e-003
2.021118e+003;1.559334e-003
2.023047e+003;1.659704e-003
2.024975e+003;1.684051e-003
2.026904e+003;1.699585e-003
2.028833e+003;1.722405e-003
2.030761e+003;1.594717e-003
2.032690e+003;1.432491e-003
2.034618e+003;1.662265e-003
2.036547e+003;1.890928e-003
2.038475e+003;1.808306e-003
2.040404e+003;1.595980e-003
2.042332e+003;1.735412e-003
2.044261e+003;1.981622e-003
2.046189e+003;2.023431e-003
2.048118e+003;2.079693e-003
2.050047e+003;2.173389e-003
2.051975e+003;2.008285e-003
2.053904e+003;1.826606e-003
2.055832e+003;1.615070e-003
2.057761e+003;1.525783e-003
2.059689e+003;1.658440e-003
2.061618e+003;1.771741e-003
2.063546e+003;1.740635e-003
2.065475e+003;1.803747e-003
2.067404e+003;1.775900e-003
2.069332e+003;1.757136e-003
2.071260e+003;1.735845e-003
2.073189e+003;1.769146e-003
2.075118e+003;2.025828e-003
2.077046e+003;2.113320e-003
2.078975e+003;1.997699e-003
2.080903e+003;1.970172e-003
2.082832e+003;2.183879e-003
2.084760e+003;2.322700e-003
2.086689e+003;2.386630e-003
2.088617e+003;2.518084e-003
2.090546e+003;2.475695e-003
2.092475e+003;2.262843e-003
2.094403e+003;2.087716e-003
2.096332e+003;2.088782e-003
2.098260e+003;2.335859e-003
2.100189e+003;2.473928e-003
2.102117e+003;2.371238e-003
2.104046e+003;2.525183e-003
2.105974e+003;2.552845e-003
2.107903e+003;2.449037e-003
2.109832e+003;2.517118e-003
2.111760e+003;2.478894e-003
2.113688e+003;2.149780e-003
2.115617e+003;2.181848e-003
2.117546e+003;2.338990e-003
2.119474e+003;2.560111e-003
2.121403e+003;2.945243e-003
2.123331e+003;3.454708e-003
2.125260e+003;3.713691e-003
2.127188e+003;3.697784e-003
2.129117e+003;3.758207e-003
2.131045e+003;4.150926e-003
2.132974e+003;4.554782e-003
2.134903e+003;4.614253e-003
2.136831e+003;4.300484e-003
2.138760e+003;4.103326e-003
2.140688e+003;4.174611e-003
2.142617e+003;4.316948e-003
2.144545e+003;4.208066e-003
2.146474e+003;4.086167e-003
2.148402e+003;4.029244e-003
2.150331e+003;4.156044e-003
2.152260e+003;4.362730e-003
2.154188e+003;4.306875e-003
2.156117e+003;4.185550e-003
2.158045e+003;4.520764e-003
2.159974e+003;4.757002e-003
2.161902e+003;4.710909e-003
2.163831e+003;4.692521e-003
2.165759e+003;4.653000e-003
2.167688e+003;4.777671e-003
2.169616e+003;4.872723e-003
2.171545e+003;4.826920e-003
2.173474e+003;4.849368e-003
2.175402e+003;4.984117e-003
2.177331e+003;5.140131e-003
2.179259e+003;4.996384e-003
2.181188e+003;4.885020e-003
2.183116e+003;4.916452e-003
2.185045e+003;4.960287e-003
2.186973e+003;5.002853e-003
2.188902e+003;4.807521e-003
2.190831e+003;4.696842e-003
2.192759e+003;4.726787e-003
2.194688e+003;4.783299e-003
2.196616e+003;4.886360e-003
2.198545e+003;4.864647e-003
2.200473e+003;4.696071e-003
2.202402e+003;4.628619e-003
2.204330e+003;4.712116e-003
2.206259e+003;4.441957e-003
2.208188e+003;4.134066e-003
2.210116e+003;4.155877e-003
2.212044e+003;4.350046e-003
2.213973e+003;4.520396e-003
2.215902e+003;4.438141e-003
2.217830e+003;4.283584e-003
2.219759e+003;4.593156e-003
2.221687e+003;4.700693e-003
2.223616e+003;4.471751e-003
2.225544e+003;4.453239e-003
2.227473e+003;4.483736e-003
2.229401e+003;4.498065e-003
2.231330e+003;4.638967e-003
2.233259e+003;4.663885e-003
2.235187e+003;4.666363e-003
2.237116e+003;4.514470e-003
2.239044e+003;4.246242e-003
2.240973e+003;4.225297e-003
2.242901e+003;4.513198e-003
2.244830e+003;4.672258e-003
2.246758e+003;4.688066e-003
2.248687e+003;4.723102e-003
2.250615e+003;4.796968e-003
2.252544e+003;4.841126e-003
2.254473e+003;5.293249e-003
2.256401e+003;5.584376e-003
2.258330e+003;5.427565e-003
2.260258e+003;5.237408e-003
2.262187e+003;5.142444e-003
2.264115e+003;4.879223e-003
2.266044e+003;4.730304e-003
2.267972e+003;4.657153e-003
2.269901e+003;4.515508e-003
2.271830e+003;4.545842e-003
2.273758e+003;4.565296e-003
2.275687e+003;4.488322e-003
2.277615e+003;4.300182e-003
2.279544e+003;3.931334e-003
2.281472e+003;3.791329e-003
2.283401e+003;4.055631e-003
2.285329e+003;4.339671e-003
2.287258e+003;4.237810e-003
2.289187e+003;4.001521e-003
2.291115e+003;4.062287e-003
2.293043e+003;4.179261e-003
2.294972e+003;4.237710e-003
2.296901e+003;4.232892e-003
2.298829e+003;4.288202e-003
2.300758e+003;4.320997e-003
2.302686e+003;4.204854e-003
2.304615e+003;4.121322e-003
2.306543e+003;4.229880e-003
2.308472e+003;4.475066e-003
2.310400e+003;4.227873e-003
2.312329e+003;3.956110e-003
2.314258e+003;4.079545e-003
2.316186e+003;4.148049e-003
2.318115e+003;4.213821e-003
2.320043e+003;4.379900e-003
2.321972e+003;4.457959e-003
2.323900e+003;4.424150e-003
2.325829e+003;4.352723e-003
2.327757e+003;4.247480e-003
2.329686e+003;4.254941e-003
2.331615e+003;4.278331e-003
2.333543e+003;4.170262e-003
2.335472e+003;4.259325e-003
2.337400e+003;4.600590e-003
2.339329e+003;4.864178e-003
2.341257e+003;4.996083e-003
2.343186e+003;4.833855e-003
2.345114e+003;4.961360e-003
2.347043e+003;5.593472e-003
2.348971e+003;5.898974e-003
2.350900e+003;5.790031e-003
2.352829e+003;5.722207e-003
2.354757e+003;5.658456e-003
2.356686e+003;5.647647e-003
2.358614e+003;5.539371e-003
2.360543e+003;5.723449e-003
2.362471e+003;5.908681e-003
2.364400e+003;5.741445e-003
2.366328e+003;5.477525e-003
2.368257e+003;5.584309e-003
2.370186e+003;5.899108e-003
2.372114e+003;6.146750e-003
2.374042e+003;6.205397e-003
2.375971e+003;6.366658e-003
2.377900e+003;6.587957e-003
2.379828e+003;6.808896e-003
2.381757e+003;6.948497e-003
2.383685e+003;6.838448e-003
2.385614e+003;6.687914e-003
2.387542e+003;6.755518e-003
2.389471e+003;7.017455e-003
2.391399e+003;7.166251e-003
2.393328e+003;7.158908e-003
2.395257e+003;7.020688e-003
2.397185e+003;6.885945e-003
2.399114e+003;6.863324e-003
2.401042e+003;7.084269e-003
2.402971e+003;7.235884e-003
2.404899e+003;7.036245e-003
2.406828e+003;6.873624e-003
2.408756e+003;6.984186e-003
2.410685e+003;7.264320e-003
2.412614e+003;7.203745e-003
2.414542e+003;7.064567e-003
2.416471e+003;7.285244e-003
2.418399e+003;7.577609e-003
2.420328e+003;7.532936e-003
2.422256e+003;7.531588e-003
2.424185e+003;7.748218e-003
2.426113e+003;8.062093e-003
2.428042e+003;8.225125e-003
2.429970e+003;8.106010e-003
2.431899e+003;8.042886e-003
2.433828e+003;7.947341e-003
2.435756e+003;7.813930e-003
2.437685e+003;7.602628e-003
2.439613e+003;7.349740e-003
2.441542e+003;7.403359e-003
2.443470e+003;7.370499e-003
2.445399e+003;7.118791e-003
2.447327e+003;7.022135e-003
2.449256e+003;7.122665e-003
2.451185e+003;7.189461e-003
2.453113e+003;7.153485e-003
2.455042e+003;6.999945e-003
2.456970e+003;6.902205e-003
2.458899e+003;6.940281e-003
2.460827e+003;7.000417e-003
2.462756e+003;7.023584e-003
2.464684e+003;6.876856e-003
2.466613e+003;7.034225e-003
2.468542e+003;7.092453e-003
2.470470e+003;7.076119e-003
2.472398e+003;7.180164e-003
2.474327e+003;7.210988e-003
2.476256e+003;7.471311e-003
2.478184e+003;7.813457e-003
2.480113e+003;8.272639e-003
2.482041e+003;8.528295e-003
2.483970e+003;8.528295e-003
2.485898e+003;8.886493e-003
2.487827e+003;9.502910e-003
2.489755e+003;1.017396e-002
2.491684e+003;1.046923e-002
2.493613e+003;1.065259e-002
2.495541e+003;1.112699e-002
2.497470e+003;1.157533e-002
2.499398e+003;1.187952e-002
2.501327e+003;1.209993e-002
2.503255e+003;1.273154e-002
2.505184e+003;1.339421e-002
2.507112e+003;1.403396e-002
2.509041e+003;1.483046e-002
2.510969e+003;1.562060e-002
2.512898e+003;1.606198e-002
2.514827e+003;1.645721e-002
2.516755e+003;1.679040e-002
2.518684e+003;1.701242e-002
2.520612e+003;1.735120e-002
2.522541e+003;1.740235e-002
2.524469e+003;1.735196e-002
2.526398e+003;1.723132e-002
2.528326e+003;1.698117e-002
2.530255e+003;1.681409e-002
2.532184e+003;1.663975e-002
2.534112e+003;1.621092e-002
2.536041e+003;1.547791e-002
2.537969e+003;1.481418e-002
2.539898e+003;1.481404e-002
2.541826e+003;1.489709e-002
2.543755e+003;1.458337e-002
2.545683e+003;1.438519e-002
2.547612e+003;1.449090e-002
2.549541e+003;1.469917e-002
2.551469e+003;1.496365e-002
2.553397e+003;1.516954e-002
2.555326e+003;1.524956e-002
2.557255e+003;1.548151e-002
2.559183e+003;1.597833e-002
2.561112e+003;1.613804e-002
2.563040e+003;1.601687e-002
2.564969e+003;1.606322e-002
2.566897e+003;1.651049e-002
2.568826e+003;1.723401e-002
2.570754e+003;1.769284e-002
2.572683e+003;1.836803e-002
2.574612e+003;1.940243e-002
2.576540e+003;2.028070e-002
2.578469e+003;2.087726e-002
2.580397e+003;2.112364e-002
2.582326e+003;2.111720e-002
2.584254e+003;2.072438e-002
2.586183e+003;1.993713e-002
2.588111e+003;1.898329e-002
2.590040e+003;1.823985e-002
2.591969e+003;1.787275e-002
2.593897e+003;1.751735e-002
2.595826e+003;1.725511e-002
2.597754e+003;1.696497e-002
2.599683e+003;1.681027e-002
2.601611e+003;1.712815e-002
2.603540e+003;1.739814e-002
2.605468e+003;1.741087e-002
2.607397e+003;1.772849e-002
2.609325e+003;1.831491e-002
2.611254e+003;1.886893e-002
2.613183e+003;1.928876e-002
2.615111e+003;1.953799e-002
2.617040e+003;1.946442e-002
2.618968e+003;1.906221e-002
2.620897e+003;1.870179e-002
2.622825e+003;1.871362e-002
2.624754e+003;1.859865e-002
2.626682e+003;1.830306e-002
2.628611e+003;1.792095e-002
2.630540e+003;1.753967e-002
2.632468e+003;1.740148e-002
2.634396e+003;1.723021e-002
2.636325e+003;1.711749e-002
2.638254e+003;1.698506e-002
2.640182e+003;1.712590e-002
2.642111e+003;1.769694e-002
2.644039e+003;1.826466e-002
2.645968e+003;1.864914e-002
2.647896e+003;1.877890e-002
2.649825e+003;1.897082e-002
2.651753e+003;1.945936e-002
2.653682e+003;1.998851e-002
2.655611e+003;2.019218e-002
2.657539e+003;2.044884e-002
2.659468e+003;2.075521e-002
2.661396e+003;2.098995e-002
2.663325e+003;2.111780e-002
2.665253e+003;2.114580e-002
2.667182e+003;2.099193e-002
2.669110e+003;2.070558e-002
2.671039e+003;2.064731e-002
2.672968e+003;2.065592e-002
2.674896e+003;2.105790e-002
2.676825e+003;2.174856e-002
2.678753e+003;2.182740e-002
2.680682e+003;2.149566e-002
2.682610e+003;2.119642e-002
2.684539e+003;2.114768e-002
2.686467e+003;2.148584e-002
2.688396e+003;2.164201e-002
2.690324e+003;2.137862e-002
2.692253e+003;2.131907e-002
2.694182e+003;2.126583e-002
2.696110e+003;2.107665e-002
2.698039e+003;2.134960e-002
2.699967e+003;2.190883e-002
2.701896e+003;2.239866e-002
2.703824e+003;2.291831e-002
2.705753e+003;2.364178e-002
2.707681e+003;2.438422e-002
2.709610e+003;2.508416e-002
2.711539e+003;2.642070e-002
2.713467e+003;2.804039e-002
2.715396e+003;2.931921e-002
2.717324e+003;3.091116e-002
2.719253e+003;3.266779e-002
2.721181e+003;3.405894e-002
2.723110e+003;3.453480e-002
2.725038e+003;3.428037e-002
2.726967e+003;3.346209e-002
2.728896e+003;3.228976e-002
2.730824e+003;3.096076e-002
2.732752e+003;2.955773e-002
2.734681e+003;2.841519e-002
2.736610e+003;2.745316e-002
2.738538e+003;2.646761e-002
2.740467e+003;2.535852e-002
2.742395e+003;2.447848e-002
2.744324e+003;2.365871e-002
2.746252e+003;2.303251e-002
2.748181e+003;2.287556e-002
2.750109e+003;2.287615e-002
2.752038e+003;2.283962e-002
2.753967e+003;2.292023e-002
2.755895e+003;2.341561e-002
2.757824e+003;2.395321e-002
2.759752e+003;2.414691e-002
2.761681e+003;2.454947e-002
2.763609e+003;2.512022e-002
2.765538e+003;2.538873e-002
2.767466e+003;2.591869e-002
2.769395e+003;2.660131e-002
2.771323e+003;2.686633e-002
2.773252e+003;2.697621e-002
2.775181e+003;2.737784e-002
2.777109e+003;2.818115e-002
2.779038e+003;2.946464e-002
2.780966e+003;3.083663e-002
2.782895e+003;3.235454e-002
2.784823e+003;3.400566e-002
2.786752e+003;3.554209e-002
2.788680e+003;3.715214e-002
2.790609e+003;3.892954e-002
2.792538e+003;4.069202e-002
2.794466e+003;4.213278e-002
2.796395e+003;4.348105e-002
2.798323e+003;4.505984e-002
2.800252e+003;4.669915e-002
2.802180e+003;4.845997e-002
2.804109e+003;5.079264e-002
2.806037e+003;5.312622e-002
2.807966e+003;5.511110e-002
2.809895e+003;5.698848e-002
2.811823e+003;5.850895e-002
2.813751e+003;6.027620e-002
2.815680e+003;6.234849e-002
2.817609e+003;6.459582e-002
2.819537e+003;6.746768e-002
2.821466e+003;7.090712e-002
2.823394e+003;7.469359e-002
2.825323e+003;7.942373e-002
2.827251e+003;8.544172e-002
2.829180e+003;9.286720e-002
2.831108e+003;1.021174e-001
2.833037e+003;1.117796e-001
2.834966e+003;1.193989e-001
2.836894e+003;1.235278e-001
2.838823e+003;1.236801e-001
2.840751e+003;1.206181e-001
2.842680e+003;1.158907e-001
2.844608e+003;1.109517e-001
2.846537e+003;1.063346e-001
2.848465e+003;1.025789e-001
2.850394e+003;1.002002e-001
2.852323e+003;9.909397e-002
2.854251e+003;9.860140e-002
2.856180e+003;9.921933e-002
2.858108e+003;1.018865e-001
2.860037e+003;1.070117e-001
2.861965e+003;1.140902e-001
2.863894e+003;1.217346e-001
2.865822e+003;1.283640e-001
2.867751e+003;1.326085e-001
2.869679e+003;1.346964e-001
2.871608e+003;1.357258e-001
2.873536e+003;1.365362e-001
2.875465e+003;1.367041e-001
2.877394e+003;1.354238e-001
2.879322e+003;1.335640e-001
2.881251e+003;1.320490e-001
2.883179e+003;1.312719e-001
2.885108e+003;1.311441e-001
2.887036e+003;1.317853e-001
2.888965e+003;1.338740e-001
2.890893e+003;1.368306e-001
2.892822e+003;1.398158e-001
2.894750e+003;1.433608e-001
2.896679e+003;1.475819e-001
2.898608e+003;1.527096e-001
2.900536e+003;1.586253e-001
2.902465e+003;1.641394e-001
2.904393e+003;1.696952e-001
2.906322e+003;1.751720e-001
2.908250e+003;1.801643e-001
2.910179e+003;1.843090e-001
2.912107e+003;1.876881e-001
2.914036e+003;1.901169e-001
2.915965e+003;1.911701e-001
2.917893e+003;1.903841e-001
2.919822e+003;1.872489e-001
2.921750e+003;1.822926e-001
2.923679e+003;1.764703e-001
2.925607e+003;1.697833e-001
2.927536e+003;1.622691e-001
2.929464e+003;1.543373e-001
2.931393e+003;1.457063e-001
2.933322e+003;1.373068e-001
2.935250e+003;1.301497e-001
2.937178e+003;1.247569e-001
2.939107e+003;1.214567e-001
2.941036e+003;1.208564e-001
2.942964e+003;1.242569e-001
2.944893e+003;1.314341e-001
2.946821e+003;1.390376e-001
2.948750e+003;1.449336e-001
2.950678e+003;1.493347e-001
2.952607e+003;1.512516e-001
2.954535e+003;1.498853e-001
2.956464e+003;1.463636e-001
2.958393e+003;1.421606e-001
2.960321e+003;1.373291e-001
2.962250e+003;1.310649e-001
2.964178e+003;1.236338e-001
2.966107e+003;1.160352e-001
2.968035e+003;1.086497e-001
2.969964e+003;1.015479e-001
2.971892e+003;9.496011e-002
2.973821e+003;8.928230e-002
2.975750e+003;8.429030e-002
2.977678e+003;7.929993e-002
2.979607e+003;7.470661e-002
2.981535e+003;7.097445e-002
2.983464e+003;6.758818e-002
2.985392e+003;6.416254e-002
2.987321e+003;6.090168e-002
2.989249e+003;5.815704e-002
2.991178e+003;5.526976e-002
2.993106e+003;5.265654e-002
2.995035e+003;5.031680e-002
2.996964e+003;4.816475e-002
2.998892e+003;4.590938e-002
3.000821e+003;4.358071e-002
3.002749e+003;4.128709e-002
3.004678e+003;3.915727e-002
3.006606e+003;3.692056e-002
3.008535e+003;3.474333e-002
3.010463e+003;3.301794e-002
3.012392e+003;3.112411e-002
3.014321e+003;2.961927e-002
3.016249e+003;2.851719e-002
3.018177e+003;2.697822e-002
3.020106e+003;2.564507e-002
3.022035e+003;2.461900e-002
3.023963e+003;2.321210e-002
3.025892e+003;2.211236e-002
3.027820e+003;2.154113e-002
3.029749e+003;2.078100e-002
3.031677e+003;1.975851e-002
3.033606e+003;1.899717e-002
3.035534e+003;1.843406e-002
3.037463e+003;1.763517e-002
3.039392e+003;1.701680e-002
3.041320e+003;1.676873e-002
3.043249e+003;1.643529e-002
3.045177e+003;1.588148e-002
3.047106e+003;1.555239e-002
3.049034e+003;1.531961e-002
3.050963e+003;1.479663e-002
3.052891e+003;1.420487e-002
3.054820e+003;1.397702e-002
3.056749e+003;1.410584e-002
3.058677e+003;1.407894e-002
3.060606e+003;1.346919e-002
3.062534e+003;1.289217e-002
3.064463e+003;1.277747e-002
3.066391e+003;1.242757e-002
3.068320e+003;1.187748e-002
3.070248e+003;1.182119e-002
3.072177e+003;1.190257e-002
3.074105e+003;1.224482e-002
3.076034e+003;1.206590e-002
3.077963e+003;1.138168e-002
3.079891e+003;1.104194e-002
3.081820e+003;1.101183e-002
3.083748e+003;1.084133e-002
3.085677e+003;1.075648e-002
3.087605e+003;1.091050e-002
3.089534e+003;1.069575e-002
3.091462e+003;1.048583e-002
3.093391e+003;1.069157e-002
3.095320e+003;1.091295e-002
3.097248e+003;1.090350e-002
3.099177e+003;1.065082e-002
3.101105e+003;1.026491e-002
3.103034e+003;1.005784e-002
3.104962e+003;1.008636e-002
3.106891e+003;9.813006e-003
3.108819e+003;9.734589e-003
3.110748e+003;9.924522e-003
3.112677e+003;9.978969e-003
3.114605e+003;9.832087e-003
3.116533e+003;9.737299e-003
3.118462e+003;1.000504e-002
3.120391e+003;1.058288e-002
3.122319e+003;1.052887e-002
3.124248e+003;1.016263e-002
3.126176e+003;1.007160e-002
3.128105e+003;9.983478e-003
3.130033e+003;1.032506e-002
3.131962e+003;1.084374e-002
3.133890e+003;1.082020e-002
3.135819e+003;1.052052e-002
3.137748e+003;1.043200e-002
3.139676e+003;1.069820e-002
3.141605e+003;1.078749e-002
3.143533e+003;1.107787e-002
3.145462e+003;1.120858e-002
3.147390e+003;1.111366e-002
3.149319e+003;1.102971e-002
3.151247e+003;1.075009e-002
3.153176e+003;1.051872e-002
3.155104e+003;1.071789e-002
3.157033e+003;1.062774e-002
3.158962e+003;1.087432e-002
3.160890e+003;1.109113e-002
3.162819e+003;1.069263e-002
3.164747e+003;1.039877e-002
3.166676e+003;1.016385e-002
3.168604e+003;1.016602e-002
3.170533e+003;1.085183e-002
3.172461e+003;1.109837e-002
3.174390e+003;1.045399e-002
3.176319e+003;1.000324e-002
3.178247e+003;1.023095e-002
3.180176e+003;1.066444e-002
3.182104e+003;1.088037e-002
3.184033e+003;1.056401e-002
3.185961e+003;1.054863e-002
3.187890e+003;1.062828e-002
3.189818e+003;1.057402e-002
3.191747e+003;1.061130e-002
3.193676e+003;1.093272e-002
3.195604e+003;1.081674e-002
3.197532e+003;1.067860e-002
3.199461e+003;1.102600e-002
3.201390e+003;1.121229e-002
3.203318e+003;1.090153e-002
3.205247e+003;1.059256e-002
3.207175e+003;1.021667e-002
3.209104e+003;9.793417e-003
3.211032e+003;9.784199e-003
3.212961e+003;9.951372e-003
3.214889e+003;9.754581e-003
3.216818e+003;9.532239e-003
3.218747e+003;9.116320e-003
3.220675e+003;8.686027e-003
3.222604e+003;8.699041e-003
3.224532e+003;8.610922e-003
3.226461e+003;8.366026e-003
3.228389e+003;8.148547e-003
3.230318e+003;7.852491e-003
3.232246e+003;7.691925e-003
3.234175e+003;7.404270e-003
3.236104e+003;7.181646e-003
3.238032e+003;7.430728e-003
3.239961e+003;7.303642e-003
3.241889e+003;6.760230e-003
3.243818e+003;6.194036e-003
3.245746e+003;5.963668e-003
3.247675e+003;6.206674e-003
3.249603e+003;6.136567e-003
3.251532e+003;5.843223e-003
3.253460e+003;5.919966e-003
3.255389e+003;5.629655e-003
3.257318e+003;5.326455e-003
3.259246e+003;5.335445e-003
3.261175e+003;5.138823e-003
3.263103e+003;5.191667e-003
3.265032e+003;5.086891e-003
3.266960e+003;4.788324e-003
3.268889e+003;4.841963e-003
3.270817e+003;5.209809e-003
3.272746e+003;5.720394e-003
3.274675e+003;5.757226e-003
3.276603e+003;5.484371e-003
3.278531e+003;5.633146e-003
3.280460e+003;5.522960e-003
3.282389e+003;5.310791e-003
3.284317e+003;5.196261e-003
3.286246e+003;5.153576e-003
3.288174e+003;5.445214e-003
3.290103e+003;5.787949e-003
3.292031e+003;5.830025e-003
3.293960e+003;5.490243e-003
3.295888e+003;5.077102e-003
3.297817e+003;4.849469e-003
3.299746e+003;5.207294e-003
3.301674e+003;5.513330e-003
3.303603e+003;5.463298e-003
3.305531e+003;5.508900e-003
3.307460e+003;5.438369e-003
3.309388e+003;5.297911e-003
3.311317e+003;5.437295e-003
3.313245e+003;5.334908e-003
3.315174e+003;4.921144e-003
3.317103e+003;4.803199e-003
3.319031e+003;4.837273e-003
3.320960e+003;4.893833e-003
3.322888e+003;5.143148e-003
3.324817e+003;5.032350e-003
3.326745e+003;4.961058e-003
3.328674e+003;5.329541e-003
3.330602e+003;5.292042e-003
3.332531e+003;5.135839e-003
3.334459e+003;5.676516e-003
3.336388e+003;5.722576e-003
3.338317e+003;5.333331e-003
3.340245e+003;5.409146e-003
3.342174e+003;5.572361e-003
3.344102e+003;5.632642e-003
3.346031e+003;5.753129e-003
3.347959e+003;5.801045e-003
3.349888e+003;5.940624e-003
3.351816e+003;5.471787e-003
3.353745e+003;5.220708e-003
3.355674e+003;5.426123e-003
3.357602e+003;5.467560e-003
3.359531e+003;5.357081e-003
3.361459e+003;5.143182e-003
3.363388e+003;5.304955e-003
3.365316e+003;5.662249e-003
3.367245e+003;5.658187e-003
3.369173e+003;5.803631e-003
3.371102e+003;5.579174e-003
3.373031e+003;5.083605e-003
3.374959e+003;5.207394e-003
3.376887e+003;5.311395e-003
3.378816e+003;4.987033e-003
3.380745e+003;4.979089e-003
3.382673e+003;5.146937e-003
3.384602e+003;4.711479e-003
3.386530e+003;4.356204e-003
3.388459e+003;4.593859e-003
3.390387e+003;4.913939e-003
3.392316e+003;5.040294e-003
3.394244e+003;5.006037e-003
3.396173e+003;5.142746e-003
3.398102e+003;5.255316e-003
3.400030e+003;5.015121e-003
3.401959e+003;4.860760e-003
3.403887e+003;4.573734e-003
3.405816e+003;4.419095e-003
3.407744e+003;4.717676e-003
3.409673e+003;4.599619e-003
3.411601e+003;4.606718e-003
3.413530e+003;4.756934e-003
3.415458e+003;5.024037e-003
3.417387e+003;5.165814e-003
3.419316e+003;5.049144e-003
3.421244e+003;4.727959e-003
3.423173e+003;4.465257e-003
3.425101e+003;4.386728e-003
3.427030e+003;4.458160e-003
3.428958e+003;4.251896e-003
3.430887e+003;3.486237e-003
3.432815e+003;3.119848e-003
3.434744e+003;3.517234e-003
3.436673e+003;3.938823e-003
3.438601e+003;4.085097e-003
3.440530e+003;4.065999e-003
3.442458e+003;4.190301e-003
3.444387e+003;4.085264e-003
3.446315e+003;3.424449e-003
3.448244e+003;3.398000e-003
3.450172e+003;3.624707e-003
3.452101e+003;3.167674e-003
3.454030e+003;2.686383e-003
3.455958e+003;2.360344e-003
3.457886e+003;2.121977e-003
3.459815e+003;2.174422e-003
3.461744e+003;2.239762e-003
3.463672e+003;2.351249e-003
3.465601e+003;2.114885e-003
3.467529e+003;1.991441e-003
3.469458e+003;2.256715e-003
3.471386e+003;2.306611e-003
3.473315e+003;2.142621e-003
3.475243e+003;2.136294e-003
3.477172e+003;2.201529e-003
3.479101e+003;1.959388e-003
3.481029e+003;1.751147e-003
3.482958e+003;1.617897e-003
3.484886e+003;1.295716e-003
3.486815e+003;1.405232e-003
3.488743e+003;1.630136e-003
3.490672e+003;1.560830e-003
3.492600e+003;1.430962e-003
3.494529e+003;1.271190e-003
3.496458e+003;1.118553e-003
3.498386e+003;1.391637e-003
3.500315e+003;1.629038e-003
3.502243e+003;1.849299e-003
3.504172e+003;1.986315e-003
3.506100e+003;1.736443e-003
3.508029e+003;7.835644e-004
3.509957e+003;7.357678e-004
3.511886e+003;1.427837e-003
3.513814e+003;1.455463e-003
3.515743e+003;9.858286e-004
3.517672e+003;1.146592e-003
3.519600e+003;1.313097e-003
3.521529e+003;8.160624e-004
3.523457e+003;5.591986e-004
3.525386e+003;8.480649e-004
3.527314e+003;6.307999e-004
3.529243e+003;5.417811e-004
3.531171e+003;1.058796e-003
3.533100e+003;1.257765e-003
3.535029e+003;6.979990e-004
3.536957e+003;4.698628e-004
3.538885e+003;7.271385e-004
3.540814e+003;9.198466e-004
3.542743e+003;7.711832e-004
3.544671e+003;4.810412e-004
3.546600e+003;4.491653e-004
3.548528e+003;7.278023e-004
3.550457e+003;5.900540e-004
3.552385e+003;2.859415e-004
3.554314e+003;5.409849e-004
3.556242e+003;5.787401e-004
3.558171e+003;1.609287e-004
3.560100e+003;1.619231e-004
3.562028e+003;4.980913e-004
3.563957e+003;-1.710705e-004
3.565885e+003;-2.001119e-003
3.567814e+003;-1.963254e-003
3.569742e+003;-7.292309e-004
3.571671e+003;-1.801787e-004
3.573599e+003;-5.874268e-005
3.575528e+003;1.315621e-004
3.577457e+003;2.816644e-004
3.579385e+003;3.505723e-005
3.581314e+003;-3.235659e-004
3.583242e+003;-5.979558e-004
3.585171e+003;-1.465759e-003
3.587099e+003;-2.604133e-003
3.589028e+003;-1.805526e-003
3.590956e+003;-5.729402e-004
3.592885e+003;-1.051097e-003
3.594813e+003;-1.397133e-003
3.596742e+003;-7.691548e-004
3.598671e+003;-3.400540e-004
3.600599e+003;-3.583624e-004
3.602528e+003;-2.712168e-004
3.604456e+003;-5.418010e-004
3.606385e+003;-1.643945e-003
3.608313e+003;-2.482648e-003
3.610242e+003;-2.129267e-003
3.612170e+003;-2.401793e-003
3.614099e+003;-2.090589e-003
3.616028e+003;-1.734148e-003
3.617956e+003;-2.540826e-003
3.619885e+003;-2.355396e-003
3.621813e+003;-1.115118e-003
3.623742e+003;-8.190296e-004
3.625670e+003;-2.028789e-003
3.627599e+003;-5.547798e-003
3.629527e+003;-5.154502e-003
3.631456e+003;-1.316538e-003
3.633385e+003;-6.575771e-004
3.635313e+003;-8.909544e-004
3.637241e+003;-4.931189e-004
3.639170e+003;-5.300199e-004
3.641099e+003;-9.754302e-004
3.643027e+003;-1.338505e-003
3.644956e+003;-2.141796e-003
3.646884e+003;-4.448183e-003
3.648813e+003;-6.228065e-003
3.650741e+003;-4.726273e-003
3.652670e+003;-2.234500e-003
3.654598e+003;-2.766872e-003
3.656527e+003;-2.996717e-003
3.658456e+003;-1.191389e-003
3.660384e+003;-3.761073e-004
3.662313e+003;-1.310585e-004
3.664241e+003;3.301736e-004
3.666170e+003;-1.768335e-004
3.668098e+003;-3.049594e-003
3.670027e+003;-5.329250e-003
3.671955e+003;-4.271604e-003
3.673884e+003;-5.714506e-003
3.675813e+003;-6.028322e-003
3.677741e+003;-2.238984e-003
3.679669e+003;-3.323398e-004
3.681598e+003;1.278499e-004
3.683527e+003;-1.644462e-004
3.685455e+003;-1.695732e-003
3.687384e+003;-4.912791e-003
3.689312e+003;-4.822459e-003
3.691241e+003;-2.171304e-003
3.693169e+003;1.218841e-004
3.695098e+003;8.909599e-004
3.697026e+003;6.741380e-004
3.698955e+003;7.687778e-005
3.700884e+003;-8.851347e-004
3.702812e+003;-4.881544e-004
3.704741e+003;7.179782e-004
3.706669e+003;3.962982e-004
3.708598e+003;-1.448785e-003
3.710526e+003;-3.278072e-003
3.712455e+003;-2.557131e-003
3.714383e+003;-3.618086e-005
3.716312e+003;7.619557e-004
3.718240e+003;4.546049e-004
3.720169e+003;-1.843187e-004
3.722098e+003;-7.160986e-004
3.724026e+003;-1.042073e-003
3.725955e+003;-1.376127e-003
3.727883e+003;-8.641370e-004
3.729812e+003;-1.506903e-003
3.731740e+003;-3.115986e-003
3.733669e+003;-3.871042e-003
3.735597e+003;-4.759965e-003
3.737526e+003;-2.606274e-003
3.739455e+003;-2.109132e-004
3.741383e+003;-1.459881e-003
3.743312e+003;-6.788319e-003
3.745240e+003;-6.358237e-003
3.747169e+003;-4.258415e-003
3.749097e+003;-7.108498e-003
3.751026e+003;-7.248378e-003
3.752954e+003;-3.583696e-003
3.754883e+003;-2.633358e-004
3.756812e+003;-2.970776e-004
3.758740e+003;-7.918109e-004
3.760668e+003;-1.393063e-004
3.762597e+003;6.889058e-004
3.764526e+003;6.219705e-005
3.766454e+003;1.597023e-004
3.768383e+003;-5.030808e-004
3.770311e+003;-5.258832e-004
3.772240e+003;7.491105e-004
3.774168e+003;1.220117e-003
3.776097e+003;6.652112e-004
3.778025e+003;-1.885580e-004
3.779954e+003;-2.890645e-004
3.781883e+003;4.654512e-004
3.783811e+003;5.804322e-004
3.785740e+003;8.486625e-004
3.787668e+003;1.146791e-003
3.789597e+003;1.304157e-003
3.791525e+003;1.336960e-003
3.793454e+003;1.264677e-003
3.795382e+003;2.161871e-004
3.797311e+003;-3.685261e-004
3.799240e+003;-2.632951e-003
3.801168e+003;-4.618462e-003
3.803097e+003;-1.671902e-003
3.805025e+003;-1.100708e-003
3.806954e+003;-1.873460e-003
3.808882e+003;2.133031e-004
3.810811e+003;1.263714e-003
3.812739e+003;7.228570e-004
3.814668e+003;-2.362382e-003
3.816596e+003;-2.775268e-003
3.818525e+003;-1.548307e-003
3.820454e+003;-3.233248e-003
3.822382e+003;-1.989476e-003
3.824311e+003;7.131031e-005
3.826239e+003;5.683886e-004
3.828168e+003;9.672649e-004
3.830096e+003;2.470514e-004
3.832025e+003;-2.961836e-004
3.833953e+003;-1.064980e-003
3.835882e+003;-3.325325e-003
3.837811e+003;-4.291224e-003
3.839739e+003;-2.233215e-003
3.841667e+003;-8.600695e-004
3.843596e+003;-2.856060e-005
3.845525e+003;1.269629e-003
3.847453e+003;1.706438e-003
3.849382e+003;-2.444935e-004
3.851310e+003;-5.823125e-003
3.853239e+003;-9.970828e-003
3.855167e+003;-5.118287e-003
3.857096e+003;4.504920e-004
3.859024e+003;1.449878e-003
3.860953e+003;4.890354e-004
3.862882e+003;-3.534957e-004
3.864810e+003;-6.597937e-004
3.866739e+003;-5.088394e-004
3.868667e+003;-2.239940e-003
3.870596e+003;-2.031131e-003
3.872524e+003;-4.644564e-004
3.874453e+003;5.218763e-004
3.876381e+003;1.707602e-003
3.878310e+003;1.072680e-003
3.880239e+003;2.802387e-004
3.882167e+003;3.757037e-004
3.884096e+003;-1.141887e-003
3.886024e+003;-9.188614e-004
3.887953e+003;1.379338e-003
3.889881e+003;6.229689e-004
3.891810e+003;3.900302e-004
3.893738e+003;1.888799e-003
3.895667e+003;1.934992e-003
3.897595e+003;4.049873e-004
3.899524e+003;-8.051393e-004
3.901453e+003;-8.888051e-004
3.903381e+003;-8.878462e-004
3.905310e+003;4.969303e-004
3.907238e+003;2.287824e-003
3.909167e+003;2.887668e-003
3.911095e+003;2.660479e-003
3.913024e+003;2.354481e-003
3.914952e+003;2.186843e-003
3.916881e+003;2.045868e-003
3.918810e+003;2.059484e-003
3.920738e+003;2.478827e-003
3.922667e+003;2.940506e-003
3.924595e+003;2.440540e-003
3.926524e+003;2.190073e-003
3.928452e+003;2.360977e-003
3.930381e+003;2.549579e-003
3.932309e+003;2.334926e-003
3.934238e+003;2.929597e-003
3.936167e+003;3.292287e-003
3.938095e+003;2.807823e-003
3.940023e+003;2.100202e-003
3.941952e+003;1.548094e-003
3.943881e+003;2.060050e-003
3.945809e+003;2.862219e-003
3.947738e+003;2.942841e-003
3.949666e+003;2.748866e-003
3.951595e+003;2.589243e-003
3.953523e+003;2.533848e-003
3.955452e+003;2.558445e-003
3.957380e+003;2.878395e-003
3.959309e+003;2.681082e-003
3.961238e+003;2.313739e-003
3.963166e+003;2.474362e-003
3.965095e+003;2.269038e-003
3.967023e+003;2.595742e-003
3.968952e+003;2.865454e-003
3.970880e+003;2.752401e-003
3.972809e+003;2.690317e-003
3.974737e+003;2.676481e-003
3.976666e+003;2.957919e-003
3.978594e+003;3.031119e-003
3.980523e+003;2.837671e-003
3.982452e+003;2.801420e-003
3.984380e+003;3.317694e-003
3.986309e+003;3.442350e-003
3.988237e+003;3.403076e-003
3.990166e+003;4.140790e-003
3.992094e+003;4.505497e-003
3.994023e+003;3.967713e-003
3.995951e+003;3.915820e-003
3.997880e+003;4.314137e-003
3.999809e+003;4.684013e-003
4.001737e+003;0.000000e+000
