3.992094e+002;0.000000e+000
4.011380e+002;0.000000e+000
4.030665e+002;0.000000e+000
4.049951e+002;0.000000e+000
4.069236e+002;0.000000e+000
4.088522e+002;0.000000e+000
4.107807e+002;0.000000e+000
4.127093e+002;0.000000e+000
4.146378e+002;0.000000e+000
4.165664e+002;0.000000e+000
4.184949e+002;0.000000e+000
4.204235e+002;0.000000e+000
4.223520e+002;0.000000e+000
4.242806e+002;0.000000e+000
4.262091e+002;0.000000e+000
4.281377e+002;0.000000e+000
4.300662e+002;0.000000e+000
4.319948e+002;0.000000e+000
4.339233e+002;0.000000e+000
4.358519e+002;0.000000e+000
4.377804e+002;0.000000e+000
4.397090e+002;0.000000e+000
4.416375e+002;0.000000e+000
4.435660e+002;0.000000e+000
4.454946e+002;0.000000e+000
4.474232e+002;0.000000e+000
4.493517e+002;0.000000e+000
4.512802e+002;0.000000e+000
4.532088e+002;0.000000e+000
4.551373e+002;0.000000e+000
4.570659e+002;0.000000e+000
4.589944e+002;0.000000e+000
4.609230e+002;0.000000e+000
4.628515e+002;0.000000e+000
4.647801e+002;0.000000e+000
4.667086e+002;0.000000e+000
4.686372e+002;0.000000e+000
4.705657e+002;0.000000e+000
4.724943e+002;0.000000e+000
4.744228e+002;0.000000e+000
4.763513e+002;0.000000e+000
4.782799e+002;0.000000e+000
4.802085e+002;0.000000e+000
4.821370e+002;0.000000e+000
4.840656e+002;0.000000e+000
4.859941e+002;0.000000e+000
4.879226e+002;0.000000e+000
4.898512e+002;0.000000e+000
4.917798e+002;0.000000e+000
4.937083e+002;0.000000e+000
4.956368e+002;0.000000e+000
4.975654e+002;0.000000e+000
4.994939e+002;0.000000e+000
5.014225e+002;0.000000e+000
5.033510e+002;0.000000e+000
5.052796e+002;0.000000e+000
5.072081e+002;0.000000e+000
5.091367e+002;0.000000e+000
5.110652e+002;0.000000e+000
5.129938e+002;0.000000e+000
5.149223e+002;0.000000e+000
5.168509e+002;0.000000e+000
5.187794e+002;0.000000e+000
5.207079e+002;0.000000e+000
5.226365e+002;0.000000e+000
5.245651e+002;0.000000e+000
5.264936e+002;0.000000e+000
5.284222e+002;0.000000e+000
5.303507e+002;0.000000e+000
5.322792e+002;0.000000e+000
5.342078e+002;0.000000e+000
5.361364e+002;0.000000e+000
5.380649e+002;0.000000e+000
5.399935e+002;0.000000e+000
5.419220e+002;0.000000e+000
5.438505e+002;0.000000e+000
5.457791e+002;0.000000e+000
5.477076e+002;0.000000e+000
5.496362e+002;0.000000e+000
5.515648e+002;0.000000e+000
5.534933e+002;0.000000e+000
5.554218e+002;0.000000e+000
5.573504e+002;0.000000e+000
5.592789e+002;0.000000e+000
5.612075e+002;0.000000e+000
5.631360e+002;0.000000e+000
5.650646e+002;0.000000e+000
5.669931e+002;0.000000e+000
5.689217e+002;0.000000e+000
5.708502e+002;0.000000e+000
5.727787e+002;0.000000e+000
5.747073e+002;0.000000e+000
5.766359e+002;0.000000e+000
5.785644e+002;0.000000e+000
5.804930e+002;0.000000e+000
5.824215e+002;0.000000e+000
5.843500e+002;0.000000e+000
5.862786e+002;0.000000e+000
5.882072e+002;0.000000e+000
5.901357e+002;0.000000e+000
5.920643e+002;0.000000e+000
5.939928e+002;0.000000e+000
5.959213e+002;0.000000e+000
5.978499e+002;0.000000e+000
5.997784e+002;3.501326e-002
6.017070e+002;3.787392e-002
6.036355e+002;3.258660e-002
6.055641e+002;2.449527e-002
6.074926e+002;2.576139e-002
6.094211e+002;2.679926e-002
6.113497e+002;2.467325e-002
6.132783e+002;2.462047e-002
6.152068e+002;2.491966e-002
6.171354e+002;2.929479e-002
6.190639e+002;3.424251e-002
6.209924e+002;3.423290e-002
6.229210e+002;3.369395e-002
6.248495e+002;3.364665e-002
6.267781e+002;3.411951e-002
6.287067e+002;3.054717e-002
6.306352e+002;2.963024e-002
6.325637e+002;3.177850e-002
6.344923e+002;3.145382e-002
6.364208e+002;2.968955e-002
6.383494e+002;2.950563e-002
6.402780e+002;3.042671e-002
6.422065e+002;3.242312e-002
6.441350e+002;3.078608e-002
6.460636e+002;2.740152e-002
6.479921e+002;2.446975e-002
6.499207e+002;2.821916e-002
6.518492e+002;3.230957e-002
6.537778e+002;3.081656e-002
6.557063e+002;3.018518e-002
6.576349e+002;3.331085e-002
6.595634e+002;3.568760e-002
6.614919e+002;3.439645e-002
6.634205e+002;3.139704e-002
6.653491e+002;2.901843e-002
6.672776e+002;2.626242e-002
6.692062e+002;2.805894e-002
6.711347e+002;3.016583e-002
6.730632e+002;2.928989e-002
6.749918e+002;2.919689e-002
6.769203e+002;2.985218e-002
6.788489e+002;2.935983e-002
6.807775e+002;2.985981e-002
6.827060e+002;3.091005e-002
6.846345e+002;3.035276e-002
6.865631e+002;2.876027e-002
6.884916e+002;2.841244e-002
6.904202e+002;2.909998e-002
6.923488e+002;3.070688e-002
6.942773e+002;3.221688e-002
6.962058e+002;3.353428e-002
6.981344e+002;3.429668e-002
7.000629e+002;3.538558e-002
7.019915e+002;3.585476e-002
7.039200e+002;3.660571e-002
7.058486e+002;3.944825e-002
7.077771e+002;4.531920e-002
7.097057e+002;5.560827e-002
7.116342e+002;6.972075e-002
7.135627e+002;7.478745e-002
7.154913e+002;6.519813e-002
7.174199e+002;5.220062e-002
7.193484e+002;4.479381e-002
7.212770e+002;4.034751e-002
7.232055e+002;3.820919e-002
7.251340e+002;3.718243e-002
7.270626e+002;3.642025e-002
7.289911e+002;3.547341e-002
7.309197e+002;3.543925e-002
7.328483e+002;3.571206e-002
7.347768e+002;3.525231e-002
7.367053e+002;3.531193e-002
7.386339e+002;3.549275e-002
7.405624e+002;3.631706e-002
7.424910e+002;3.749665e-002
7.444196e+002;3.635741e-002
7.463481e+002;3.550764e-002
7.482766e+002;3.633453e-002
7.502052e+002;3.762670e-002
7.521337e+002;3.834743e-002
7.540623e+002;3.816133e-002
7.559908e+002;3.845211e-002
7.579194e+002;3.941625e-002
7.598479e+002;3.955432e-002
7.617765e+002;3.939063e-002
7.637050e+002;3.922088e-002
7.656335e+002;3.896760e-002
7.675621e+002;3.881935e-002
7.694907e+002;3.911572e-002
7.714192e+002;3.847380e-002
7.733478e+002;3.822862e-002
7.752763e+002;3.794876e-002
7.772048e+002;3.798272e-002
7.791334e+002;3.850261e-002
7.810620e+002;3.866477e-002
7.829905e+002;3.991120e-002
7.849191e+002;4.196263e-002
7.868476e+002;4.274734e-002
7.887761e+002;4.333128e-002
7.907047e+002;4.470661e-002
7.926332e+002;4.534469e-002
7.945618e+002;4.617665e-002
7.964903e+002;4.868793e-002
7.984189e+002;5.236902e-002
8.003474e+002;5.482448e-002
8.022759e+002;5.651826e-002
8.042045e+002;5.928082e-002
8.061331e+002;6.243341e-002
8.080616e+002;6.445024e-002
8.099902e+002;6.412812e-002
8.119187e+002;6.198130e-002
8.138472e+002;5.869814e-002
8.157758e+002;5.539328e-002
8.177043e+002;5.372359e-002
8.196329e+002;5.292904e-002
8.215615e+002;5.190799e-002
8.234900e+002;5.093461e-002
8.254185e+002;5.057753e-002
8.273471e+002;5.155933e-002
8.292756e+002;5.169483e-002
8.312042e+002;5.156501e-002
8.331328e+002;5.286935e-002
8.350613e+002;5.554820e-002
8.369898e+002;5.969055e-002
8.389184e+002;6.675594e-002
8.408469e+002;7.267414e-002
8.427755e+002;7.286353e-002
8.447040e+002;7.043359e-002
8.466326e+002;6.960592e-002
8.485611e+002;6.673129e-002
8.504897e+002;6.117804e-002
8.524182e+002;5.820834e-002
8.543467e+002;5.749136e-002
8.562753e+002;5.781291e-002
8.582039e+002;5.858828e-002
8.601324e+002;6.074716e-002
8.620610e+002;6.481548e-002
8.639895e+002;6.973378e-002
8.659180e+002;7.568963e-002
8.678466e+002;8.379152e-002
8.697751e+002;9.487147e-002
8.717037e+002;1.085786e-001
8.736323e+002;1.224943e-001
8.755608e+002;1.298191e-001
8.774893e+002;1.220855e-001
8.794179e+002;1.031240e-001
8.813464e+002;8.568623e-002
8.832750e+002;7.355666e-002
8.852036e+002;6.213775e-002
8.871321e+002;5.331507e-002
8.890606e+002;4.866377e-002
8.909892e+002;4.731681e-002
8.929177e+002;4.899179e-002
8.948463e+002;5.270554e-002
8.967748e+002;5.678342e-002
8.987034e+002;5.919082e-002
9.006319e+002;5.823638e-002
9.025605e+002;5.434960e-002
9.044890e+002;4.949421e-002
9.064175e+002;4.564735e-002
9.083461e+002;4.374716e-002
9.102747e+002;4.226423e-002
9.122032e+002;4.114347e-002
9.141318e+002;4.034261e-002
9.160603e+002;3.971916e-002
9.179888e+002;3.982225e-002
9.199174e+002;3.960757e-002
9.218459e+002;3.918787e-002
9.237745e+002;3.940859e-002
9.257031e+002;3.951966e-002
9.276316e+002;3.936509e-002
9.295601e+002;3.943036e-002
9.314887e+002;3.992929e-002
9.334172e+002;4.121684e-002
9.353458e+002;4.276353e-002
9.372744e+002;4.414649e-002
9.392029e+002;4.520730e-002
9.411314e+002;4.586898e-002
9.430600e+002;4.585123e-002
9.449885e+002;4.555225e-002
9.469171e+002;4.561246e-002
9.488456e+002;4.574170e-002
9.507742e+002;4.608435e-002
9.527027e+002;4.682675e-002
9.546313e+002;4.738447e-002
9.565598e+002;4.783747e-002
9.584883e+002;4.871674e-002
9.604169e+002;5.050986e-002
9.623455e+002;5.333784e-002
9.642740e+002;5.709995e-002
9.662026e+002;6.210319e-002
9.681311e+002;6.918708e-002
9.700596e+002;7.782738e-002
9.719882e+002;8.499701e-002
9.739167e+002;8.719326e-002
9.758453e+002;8.302590e-002
9.777739e+002;7.446451e-002
9.797024e+002;6.485438e-002
9.816309e+002;5.644909e-002
9.835595e+002;5.066562e-002
9.854880e+002;4.811607e-002
9.874166e+002;4.808176e-002
9.893452e+002;4.982357e-002
9.912737e+002;5.366416e-002
9.932022e+002;5.975230e-002
9.951307e+002;6.659759e-002
9.970593e+002;7.141018e-002
9.989879e+002;7.107329e-002
1.000916e+003;6.594789e-002
1.002845e+003;5.995104e-002
1.004773e+003;5.545679e-002
1.006702e+003;5.249905e-002
1.008631e+003;5.046836e-002
1.010559e+003;4.901174e-002
1.012488e+003;4.789351e-002
1.014416e+003;4.680524e-002
1.016345e+003;4.624657e-002
1.018273e+003;4.588548e-002
1.020202e+003;4.542271e-002
1.022130e+003;4.512752e-002
1.024059e+003;4.461014e-002
1.025988e+003;4.440134e-002
1.027916e+003;4.511560e-002
1.029845e+003;4.630779e-002
1.031773e+003;4.802531e-002
1.033702e+003;4.991596e-002
1.035630e+003;5.118959e-002
1.037559e+003;5.163307e-002
1.039487e+003;5.152348e-002
1.041416e+003;5.090182e-002
1.043344e+003;4.962235e-002
1.045273e+003;4.829663e-002
1.047202e+003;4.686595e-002
1.049130e+003;4.476530e-002
1.051059e+003;4.298725e-002
1.052987e+003;4.230689e-002
1.054916e+003;4.193815e-002
1.056844e+003;4.120835e-002
1.058773e+003;4.063831e-002
1.060701e+003;4.036471e-002
1.062630e+003;4.022580e-002
1.064558e+003;4.013457e-002
1.066487e+003;4.020864e-002
1.068416e+003;4.038591e-002
1.070344e+003;4.065275e-002
1.072273e+003;4.058603e-002
1.074201e+003;4.082992e-002
1.076130e+003;4.171818e-002
1.078058e+003;4.256782e-002
1.079987e+003;4.343183e-002
1.081915e+003;4.407981e-002
1.083844e+003;4.463001e-002
1.085773e+003;4.556274e-002
1.087701e+003;4.667904e-002
1.089630e+003;4.745306e-002
1.091558e+003;4.872930e-002
1.093487e+003;5.034437e-002
1.095415e+003;5.155907e-002
1.097344e+003;5.353525e-002
1.099272e+003;5.606484e-002
1.101201e+003;5.769354e-002
1.103129e+003;5.779754e-002
1.105058e+003;5.762010e-002
1.106987e+003;5.705513e-002
1.108915e+003;5.542727e-002
1.110844e+003;5.281146e-002
1.112772e+003;4.984795e-002
1.114701e+003;4.787379e-002
1.116629e+003;4.656100e-002
1.118558e+003;4.514517e-002
1.120486e+003;4.422513e-002
1.122415e+003;4.303963e-002
1.124344e+003;4.208283e-002
1.126272e+003;4.189494e-002
1.128201e+003;4.195037e-002
1.130129e+003;4.266457e-002
1.132058e+003;4.340631e-002
1.133986e+003;4.480795e-002
1.135915e+003;4.728378e-002
1.137843e+003;4.975627e-002
1.139772e+003;5.190355e-002
1.141700e+003;5.437672e-002
1.143629e+003;5.759108e-002
1.145557e+003;6.094899e-002
1.147486e+003;6.458943e-002
1.149415e+003;6.840623e-002
1.151343e+003;7.154756e-002
1.153272e+003;7.334120e-002
1.155200e+003;7.427336e-002
1.157129e+003;7.492898e-002
1.159057e+003;7.537149e-002
1.160986e+003;7.594703e-002
1.162914e+003;7.687021e-002
1.164843e+003;7.748695e-002
1.166771e+003;7.771162e-002
1.168700e+003;7.638319e-002
1.170629e+003;7.254286e-002
1.172557e+003;6.756077e-002
1.174486e+003;6.272388e-002
1.176414e+003;5.835885e-002
1.178343e+003;5.545366e-002
1.180271e+003;5.447568e-002
1.182200e+003;5.419353e-002
1.184128e+003;5.428239e-002
1.186057e+003;5.471991e-002
1.187986e+003;5.535229e-002
1.189914e+003;5.604127e-002
1.191843e+003;5.614273e-002
1.193771e+003;5.604851e-002
1.195700e+003;5.629181e-002
1.197628e+003;5.688895e-002
1.199557e+003;5.705022e-002
1.201485e+003;5.695728e-002
1.203414e+003;5.672086e-002
1.205343e+003;5.651475e-002
1.207271e+003;5.704040e-002
1.209200e+003;5.884662e-002
1.211128e+003;6.115557e-002
1.213057e+003;6.338751e-002
1.214985e+003;6.398071e-002
1.216914e+003;6.228030e-002
1.218842e+003;6.034732e-002
1.220771e+003;5.939987e-002
1.222699e+003;5.940348e-002
1.224628e+003;5.983070e-002
1.226557e+003;6.007674e-002
1.228485e+003;6.025367e-002
1.230414e+003;6.029775e-002
1.232342e+003;6.065822e-002
1.234271e+003;6.140018e-002
1.236199e+003;6.170581e-002
1.238128e+003;6.187782e-002
1.240056e+003;6.234520e-002
1.241985e+003;6.307399e-002
1.243913e+003;6.376057e-002
1.245842e+003;6.484295e-002
1.247771e+003;6.627356e-002
1.249699e+003;6.794503e-002
1.251628e+003;7.055675e-002
1.253556e+003;7.459684e-002
1.255485e+003;7.806487e-002
1.257413e+003;7.820283e-002
1.259342e+003;7.573763e-002
1.261270e+003;7.301991e-002
1.263199e+003;7.103115e-002
1.265127e+003;6.980912e-002
1.267056e+003;6.867685e-002
1.268985e+003;6.743111e-002
1.270913e+003;6.603754e-002
1.272842e+003;6.475421e-002
1.274770e+003;6.428619e-002
1.276699e+003;6.414337e-002
1.278627e+003;6.412371e-002
1.280556e+003;6.434859e-002
1.282484e+003;6.470440e-002
1.284413e+003;6.556594e-002
1.286342e+003;6.683724e-002
1.288270e+003;6.789343e-002
1.290199e+003;6.913611e-002
1.292127e+003;7.056166e-002
1.294056e+003;7.151904e-002
1.295984e+003;7.202332e-002
1.297913e+003;7.249846e-002
1.299841e+003;7.305452e-002
1.301770e+003;7.384755e-002
1.303698e+003;7.441971e-002
1.305627e+003;7.347213e-002
1.307556e+003;7.133645e-002
1.309484e+003;6.965905e-002
1.311413e+003;6.931867e-002
1.313341e+003;7.015093e-002
1.315270e+003;7.125784e-002
1.317198e+003;7.216942e-002
1.319127e+003;7.297835e-002
1.321055e+003;7.395727e-002
1.322984e+003;7.539652e-002
1.324912e+003;7.737607e-002
1.326841e+003;7.906924e-002
1.328770e+003;8.042825e-002
1.330698e+003;8.113106e-002
1.332627e+003;8.110829e-002
1.334555e+003;8.098108e-002
1.336484e+003;8.074294e-002
1.338412e+003;8.089001e-002
1.340341e+003;8.181793e-002
1.342269e+003;8.350782e-002
1.344198e+003;8.581593e-002
1.346126e+003;8.860507e-002
1.348055e+003;9.166124e-002
1.349984e+003;9.517453e-002
1.351912e+003;9.968710e-002
1.353841e+003;1.058615e-001
1.355769e+003;1.126220e-001
1.357698e+003;1.175375e-001
1.359626e+003;1.191664e-001
1.361555e+003;1.185403e-001
1.363483e+003;1.190341e-001
1.365412e+003;1.224899e-001
1.367341e+003;1.302378e-001
1.369269e+003;1.451445e-001
1.371198e+003;1.676611e-001
1.373126e+003;1.944797e-001
1.375055e+003;2.165291e-001
1.376983e+003;2.180673e-001
1.378912e+003;1.961898e-001
1.380840e+003;1.661159e-001
1.382769e+003;1.401342e-001
1.384698e+003;1.221402e-001
1.386626e+003;1.117492e-001
1.388555e+003;1.080015e-001
1.390483e+003;1.079254e-001
1.392412e+003;1.080770e-001
1.394340e+003;1.085215e-001
1.396269e+003;1.107340e-001
1.398197e+003;1.127690e-001
1.400126e+003;1.145419e-001
1.402054e+003;1.165931e-001
1.403983e+003;1.182068e-001
1.405911e+003;1.198830e-001
1.407840e+003;1.217339e-001
1.409769e+003;1.234008e-001
1.411697e+003;1.256340e-001
1.413626e+003;1.286962e-001
1.415554e+003;1.316149e-001
1.417483e+003;1.329713e-001
1.419411e+003;1.350815e-001
1.421340e+003;1.397333e-001
1.423268e+003;1.433394e-001
1.425197e+003;1.462928e-001
1.427125e+003;1.491302e-001
1.429054e+003;1.519150e-001
1.430983e+003;1.560041e-001
1.432911e+003;1.608667e-001
1.434840e+003;1.625645e-001
1.436768e+003;1.616204e-001
1.438697e+003;1.630679e-001
1.440625e+003;1.654304e-001
1.442554e+003;1.683560e-001
1.444482e+003;1.725725e-001
1.446411e+003;1.781420e-001
1.448340e+003;1.842658e-001
1.450268e+003;1.898157e-001
1.452197e+003;1.924130e-001
1.454125e+003;1.907712e-001
1.456054e+003;1.850363e-001
1.457982e+003;1.822913e-001
1.459911e+003;1.813467e-001
1.461839e+003;1.763993e-001
1.463768e+003;1.670171e-001
1.465697e+003;1.571469e-001
1.467625e+003;1.484886e-001
1.469554e+003;1.385456e-001
1.471482e+003;1.277246e-001
1.473411e+003;1.200979e-001
1.475339e+003;1.160483e-001
1.477268e+003;1.131542e-001
1.479196e+003;1.104476e-001
1.481125e+003;1.067363e-001
1.483053e+003;1.035576e-001
1.484982e+003;1.006681e-001
1.486911e+003;9.752624e-002
1.488839e+003;9.451964e-002
1.490768e+003;9.238835e-002
1.492696e+003;9.126777e-002
1.494625e+003;8.866473e-002
1.496553e+003;8.593295e-002
1.498482e+003;8.493927e-002
1.500410e+003;8.426575e-002
1.502339e+003;8.266534e-002
1.504267e+003;7.752442e-002
1.506196e+003;7.218448e-002
1.508125e+003;7.254979e-002
1.510053e+003;7.371239e-002
1.511982e+003;7.265087e-002
1.513910e+003;7.107224e-002
1.515839e+003;6.850848e-002
1.517767e+003;6.660500e-002
1.519696e+003;6.377950e-002
1.521624e+003;6.142423e-002
1.523553e+003;6.224267e-002
1.525481e+003;6.192382e-002
1.527410e+003;6.150408e-002
1.529339e+003;6.118673e-002
1.531267e+003;5.940629e-002
1.533196e+003;5.708000e-002
1.535124e+003;5.691293e-002
1.537053e+003;5.414928e-002
1.538981e+003;4.862341e-002
1.540910e+003;4.814968e-002
1.542838e+003;5.082761e-002
1.544767e+003;5.267041e-002
1.546695e+003;5.418190e-002
1.548624e+003;5.444023e-002
1.550553e+003;5.420975e-002
1.552481e+003;5.311312e-002
1.554410e+003;5.134862e-002
1.556338e+003;4.819892e-002
1.558267e+003;4.252225e-002
1.560195e+003;4.330749e-002
1.562124e+003;4.812917e-002
1.564052e+003;4.949243e-002
1.565981e+003;4.941401e-002
1.567910e+003;4.791364e-002
1.569838e+003;4.653153e-002
1.571767e+003;4.735206e-002
1.573695e+003;4.617725e-002
1.575624e+003;4.308467e-002
1.577552e+003;4.425316e-002
1.579481e+003;4.617146e-002
1.581409e+003;4.609931e-002
1.583338e+003;4.585256e-002
1.585266e+003;4.559104e-002
1.587195e+003;4.532115e-002
1.589124e+003;4.466048e-002
1.591052e+003;4.399723e-002
1.592981e+003;4.337434e-002
1.594909e+003;4.324258e-002
1.596838e+003;4.343091e-002
1.598766e+003;4.348841e-002
1.600695e+003;4.321572e-002
1.602623e+003;4.293530e-002
1.604552e+003;4.308043e-002
1.606480e+003;4.288256e-002
1.608409e+003;4.205545e-002
1.610338e+003;4.194140e-002
1.612266e+003;4.261961e-002
1.614195e+003;4.189480e-002
1.616123e+003;3.985704e-002
1.618052e+003;4.124194e-002
1.619980e+003;4.261961e-002
1.621909e+003;4.079967e-002
1.623837e+003;3.940612e-002
1.625766e+003;3.933966e-002
1.627694e+003;3.878681e-002
1.629623e+003;3.906630e-002
1.631552e+003;3.902871e-002
1.633480e+003;3.632103e-002
1.635409e+003;3.332068e-002
1.637337e+003;3.501796e-002
1.639266e+003;3.706044e-002
1.641194e+003;3.734330e-002
1.643123e+003;3.641895e-002
1.645051e+003;3.357917e-002
1.646980e+003;3.269365e-002
1.648909e+003;3.429399e-002
1.650837e+003;3.094699e-002
1.652766e+003;2.573903e-002
1.654694e+003;2.984061e-002
1.656623e+003;3.480130e-002
1.658551e+003;3.550555e-002
1.660480e+003;3.471576e-002
1.662408e+003;3.359424e-002
1.664337e+003;3.405945e-002
1.666266e+003;3.418991e-002
1.668194e+003;3.254185e-002
1.670123e+003;3.196402e-002
1.672051e+003;3.275150e-002
1.673980e+003;3.175397e-002
1.675908e+003;3.178737e-002
1.677837e+003;3.380680e-002
1.679765e+003;3.374430e-002
1.681694e+003;3.169680e-002
1.683622e+003;2.781530e-002
1.685551e+003;2.902204e-002
1.687479e+003;3.251157e-002
1.689408e+003;3.305066e-002
1.691337e+003;3.327725e-002
1.693265e+003;3.167449e-002
1.695194e+003;2.806057e-002
1.697122e+003;2.841095e-002
1.699051e+003;2.734410e-002
1.700979e+003;2.741370e-002
1.702908e+003;3.082841e-002
1.704836e+003;3.100869e-002
1.706765e+003;3.135408e-002
1.708693e+003;3.207395e-002
1.710622e+003;3.247750e-002
1.712551e+003;3.178734e-002
1.714479e+003;2.988618e-002
1.716408e+003;2.725198e-002
1.718336e+003;2.787935e-002
1.720265e+003;3.088764e-002
1.722193e+003;3.195382e-002
1.724122e+003;3.197864e-002
1.726050e+003;3.215658e-002
1.727979e+003;3.164195e-002
1.729908e+003;3.068455e-002
1.731836e+003;2.822365e-002
1.733765e+003;2.560535e-002
1.735693e+003;2.819557e-002
1.737622e+003;3.023410e-002
1.739550e+003;2.939231e-002
1.741479e+003;2.965344e-002
1.743407e+003;2.980877e-002
1.745336e+003;2.976342e-002
1.747265e+003;2.896268e-002
1.749193e+003;2.739111e-002
1.751122e+003;2.673237e-002
1.753050e+003;2.819504e-002
1.754979e+003;2.836097e-002
1.756907e+003;2.792758e-002
1.758836e+003;2.810479e-002
1.760764e+003;2.711289e-002
1.762693e+003;2.689753e-002
1.764621e+003;2.758289e-002
1.766550e+003;2.667370e-002
1.768479e+003;2.571520e-002
1.770407e+003;2.494854e-002
1.772336e+003;2.411262e-002
1.774264e+003;2.552227e-002
1.776193e+003;2.671200e-002
1.778121e+003;2.664506e-002
1.780050e+003;2.649715e-002
1.781978e+003;2.727664e-002
1.783907e+003;2.795875e-002
1.785835e+003;2.903497e-002
1.787764e+003;3.129404e-002
1.789693e+003;3.393375e-002
1.791621e+003;3.674394e-002
1.793550e+003;4.042806e-002
1.795478e+003;4.294617e-002
1.797407e+003;4.304959e-002
1.799335e+003;4.187557e-002
1.801264e+003;3.929389e-002
1.803192e+003;3.597580e-002
1.805121e+003;3.270023e-002
1.807049e+003;2.991539e-002
1.808978e+003;2.759359e-002
1.810907e+003;2.634324e-002
1.812835e+003;2.633490e-002
1.814764e+003;2.624721e-002
1.816692e+003;2.569048e-002
1.818621e+003;2.538290e-002
1.820549e+003;2.514630e-002
1.822478e+003;2.465915e-002
1.824406e+003;2.401697e-002
1.826335e+003;2.420776e-002
1.828264e+003;2.394299e-002
1.830192e+003;2.358272e-002
1.832121e+003;2.439582e-002
1.834049e+003;2.476553e-002
1.835978e+003;2.435443e-002
1.837906e+003;2.420909e-002
1.839835e+003;2.430152e-002
1.841763e+003;2.328026e-002
1.843692e+003;2.189050e-002
1.845620e+003;2.268916e-002
1.847549e+003;2.355677e-002
1.849478e+003;2.346719e-002
1.851406e+003;2.350874e-002
1.853335e+003;2.345547e-002
1.855263e+003;2.317638e-002
1.857192e+003;2.305242e-002
1.859120e+003;2.306665e-002
1.861049e+003;2.305718e-002
1.862977e+003;2.305508e-002
1.864906e+003;2.297172e-002
1.866834e+003;2.211822e-002
1.868763e+003;2.156129e-002
1.870692e+003;2.240494e-002
1.872620e+003;2.283634e-002
1.874549e+003;2.234166e-002
1.876477e+003;2.207171e-002
1.878406e+003;2.229586e-002
1.880334e+003;2.258154e-002
1.882263e+003;2.242591e-002
1.884191e+003;2.247765e-002
1.886120e+003;2.250379e-002
1.888048e+003;2.222635e-002
1.889977e+003;2.229676e-002
1.891906e+003;2.265101e-002
1.893834e+003;2.251161e-002
1.895763e+003;2.247964e-002
1.897691e+003;2.257055e-002
1.899620e+003;2.255572e-002
1.901548e+003;2.242695e-002
1.903477e+003;2.236304e-002
1.905405e+003;2.235397e-002
1.907334e+003;2.210002e-002
1.909262e+003;2.173456e-002
1.911191e+003;2.176493e-002
1.913120e+003;2.182534e-002
1.915048e+003;2.163247e-002
1.916977e+003;2.101951e-002
1.918905e+003;2.107011e-002
1.920834e+003;2.144184e-002
1.922762e+003;2.136971e-002
1.924691e+003;2.150972e-002
1.926619e+003;2.164434e-002
1.928548e+003;2.152501e-002
1.930477e+003;2.133766e-002
1.932405e+003;2.120967e-002
1.934334e+003;2.103102e-002
1.936262e+003;2.078503e-002
1.938191e+003;2.070186e-002
1.940119e+003;2.055895e-002
1.942048e+003;2.042182e-002
1.943976e+003;2.055975e-002
1.945905e+003;2.072980e-002
1.947833e+003;2.081531e-002
1.949762e+003;2.096244e-002
1.951691e+003;2.100473e-002
1.953619e+003;2.086658e-002
1.955548e+003;2.082747e-002
1.957476e+003;2.094231e-002
1.959405e+003;2.066864e-002
1.961333e+003;2.037084e-002
1.963262e+003;2.038629e-002
1.965190e+003;2.036574e-002
1.967119e+003;2.019180e-002
1.969047e+003;2.020124e-002
1.970976e+003;2.014341e-002
1.972905e+003;2.023995e-002
1.974833e+003;2.015563e-002
1.976762e+003;1.995493e-002
1.978690e+003;2.006696e-002
1.980619e+003;2.013248e-002
1.982547e+003;2.014314e-002
1.984476e+003;2.005180e-002
1.986404e+003;1.987930e-002
1.988333e+003;2.001588e-002
1.990261e+003;1.992894e-002
1.992190e+003;1.967890e-002
1.994119e+003;1.991271e-002
1.996047e+003;2.013148e-002
1.997976e+003;1.988361e-002
1.999904e+003;1.985350e-002
2.001833e+003;2.006543e-002
2.003761e+003;1.986259e-002
2.005690e+003;1.950403e-002
2.007618e+003;1.959657e-002
2.009547e+003;1.973597e-002
2.011476e+003;1.981635e-002
2.013404e+003;1.971333e-002
2.015333e+003;1.979159e-002
2.017261e+003;1.998278e-002
2.019190e+003;2.001019e-002
2.021118e+003;1.973763e-002
2.023047e+003;1.938219e-002
2.024975e+003;1.925762e-002
2.026904e+003;1.934769e-002
2.028833e+003;1.938004e-002
2.030761e+003;1.946823e-002
2.032690e+003;1.971336e-002
2.034618e+003;1.975095e-002
2.036547e+003;1.945170e-002
2.038475e+003;1.929472e-002
2.040404e+003;1.927355e-002
2.042332e+003;1.944952e-002
2.044261e+003;1.961213e-002
2.046189e+003;1.969589e-002
2.048118e+003;1.962364e-002
2.050047e+003;1.964610e-002
2.051975e+003;1.956503e-002
2.053904e+003;1.950916e-002
2.055832e+003;1.958353e-002
2.057761e+003;1.949086e-002
2.059689e+003;1.939820e-002
2.061618e+003;1.937204e-002
2.063546e+003;1.939401e-002
2.065475e+003;1.936276e-002
2.067404e+003;1.933054e-002
2.069332e+003;1.930889e-002
2.071260e+003;1.930494e-002
2.073189e+003;1.928786e-002
2.075118e+003;1.926562e-002
2.077046e+003;1.936452e-002
2.078975e+003;1.966503e-002
2.080903e+003;1.991385e-002
2.082832e+003;1.980858e-002
2.084760e+003;1.983654e-002
2.086689e+003;1.997342e-002
2.088617e+003;1.996783e-002
2.090546e+003;1.983966e-002
2.092475e+003;1.985142e-002
2.094403e+003;1.996502e-002
2.096332e+003;1.998147e-002
2.098260e+003;1.989644e-002
2.100189e+003;2.009684e-002
2.102117e+003;2.021926e-002
2.104046e+003;2.016230e-002
2.105974e+003;2.017903e-002
2.107903e+003;2.015136e-002
2.109832e+003;2.016511e-002
2.111760e+003;2.020659e-002
2.113688e+003;2.023630e-002
2.115617e+003;2.043335e-002
2.117546e+003;2.061298e-002
2.119474e+003;2.081200e-002
2.121403e+003;2.100382e-002
2.123331e+003;2.121072e-002
2.125260e+003;2.143341e-002
2.127188e+003;2.162665e-002
2.129117e+003;2.194863e-002
2.131045e+003;2.229739e-002
2.132974e+003;2.237249e-002
2.134903e+003;2.229858e-002
2.136831e+003;2.215343e-002
2.138760e+003;2.201897e-002
2.140688e+003;2.188580e-002
2.142617e+003;2.177061e-002
2.144545e+003;2.166493e-002
2.146474e+003;2.158615e-002
2.148402e+003;2.164974e-002
2.150331e+003;2.155697e-002
2.152260e+003;2.152536e-002
2.154188e+003;2.151787e-002
2.156117e+003;2.168617e-002
2.158045e+003;2.189897e-002
2.159974e+003;2.182391e-002
2.161902e+003;2.190329e-002
2.163831e+003;2.222862e-002
2.165759e+003;2.249939e-002
2.167688e+003;2.256525e-002
2.169616e+003;2.279433e-002
2.171545e+003;2.297504e-002
2.173474e+003;2.264884e-002
2.175402e+003;2.244468e-002
2.177331e+003;2.263924e-002
2.179259e+003;2.272746e-002
2.181188e+003;2.271493e-002
2.183116e+003;2.251628e-002
2.185045e+003;2.212700e-002
2.186973e+003;2.210145e-002
2.188902e+003;2.211222e-002
2.190831e+003;2.218991e-002
2.192759e+003;2.233646e-002
2.194688e+003;2.226914e-002
2.196616e+003;2.218234e-002
2.198545e+003;2.191967e-002
2.200473e+003;2.175288e-002
2.202402e+003;2.186904e-002
2.204330e+003;2.163208e-002
2.206259e+003;2.161579e-002
2.208188e+003;2.184994e-002
2.210116e+003;2.173874e-002
2.212044e+003;2.151940e-002
2.213973e+003;2.128821e-002
2.215902e+003;2.117467e-002
2.217830e+003;2.142680e-002
2.219759e+003;2.140692e-002
2.221687e+003;2.110475e-002
2.223616e+003;2.110420e-002
2.225544e+003;2.137232e-002
2.227473e+003;2.139874e-002
2.229401e+003;2.128149e-002
2.231330e+003;2.142983e-002
2.233259e+003;2.156470e-002
2.235187e+003;2.138263e-002
2.237116e+003;2.116900e-002
2.239044e+003;2.106841e-002
2.240973e+003;2.076320e-002
2.242901e+003;2.070975e-002
2.244830e+003;2.099436e-002
2.246758e+003;2.111592e-002
2.248687e+003;2.138621e-002
2.250615e+003;2.193619e-002
2.252544e+003;2.219674e-002
2.254473e+003;2.228982e-002
2.256401e+003;2.244468e-002
2.258330e+003;2.225006e-002
2.260258e+003;2.181771e-002
2.262187e+003;2.179134e-002
2.264115e+003;2.178935e-002
2.266044e+003;2.149945e-002
2.267972e+003;2.149169e-002
2.269901e+003;2.151376e-002
2.271830e+003;2.110513e-002
2.273758e+003;2.079619e-002
2.275687e+003;2.054172e-002
2.277615e+003;2.041022e-002
2.279544e+003;2.047305e-002
2.281472e+003;2.035435e-002
2.283401e+003;2.008126e-002
2.285329e+003;2.019659e-002
2.287258e+003;2.046721e-002
2.289187e+003;2.033671e-002
2.291115e+003;2.030567e-002
2.293043e+003;2.029695e-002
2.294972e+003;2.025602e-002
2.296901e+003;2.027209e-002
2.298829e+003;2.014945e-002
2.300758e+003;2.003913e-002
2.302686e+003;1.982599e-002
2.304615e+003;1.954929e-002
2.306543e+003;1.957771e-002
2.308472e+003;1.955272e-002
2.310400e+003;1.901132e-002
2.312329e+003;1.854892e-002
2.314258e+003;1.816694e-002
2.316186e+003;1.788111e-002
2.318115e+003;1.746495e-002
2.320043e+003;1.678778e-002
2.321972e+003;1.644882e-002
2.323900e+003;1.639149e-002
2.325829e+003;1.599717e-002
2.327757e+003;1.520447e-002
2.329686e+003;1.453575e-002
2.331615e+003;1.447490e-002
2.333543e+003;1.470048e-002
2.335472e+003;1.434755e-002
2.337400e+003;1.416352e-002
2.339329e+003;1.467336e-002
2.341257e+003;1.532486e-002
2.343186e+003;1.640883e-002
2.345114e+003;1.766447e-002
2.347043e+003;1.891752e-002
2.348971e+003;1.963075e-002
2.350900e+003;1.874181e-002
2.352829e+003;1.686672e-002
2.354757e+003;1.530526e-002
2.356686e+003;1.421850e-002
2.358614e+003;1.328306e-002
2.360543e+003;1.262936e-002
2.362471e+003;1.243149e-002
2.364400e+003;1.275901e-002
2.366328e+003;1.368743e-002
2.368257e+003;1.497346e-002
2.370186e+003;1.638467e-002
2.372114e+003;1.775672e-002
2.374042e+003;1.909680e-002
2.375971e+003;2.049427e-002
2.377900e+003;2.130863e-002
2.379828e+003;2.174560e-002
2.381757e+003;2.227291e-002
2.383685e+003;2.248114e-002
2.385614e+003;2.252242e-002
2.387542e+003;2.271301e-002
2.389471e+003;2.304488e-002
2.391399e+003;2.305906e-002
2.393328e+003;2.300575e-002
2.395257e+003;2.306301e-002
2.397185e+003;2.317008e-002
2.399114e+003;2.311665e-002
2.401042e+003;2.292166e-002
2.402971e+003;2.285684e-002
2.404899e+003;2.307080e-002
2.406828e+003;2.320961e-002
2.408756e+003;2.333795e-002
2.410685e+003;2.348569e-002
2.412614e+003;2.355869e-002
2.414542e+003;2.332791e-002
2.416471e+003;2.319137e-002
2.418399e+003;2.347688e-002
2.420328e+003;2.365633e-002
2.422256e+003;2.365213e-002
2.424185e+003;2.358174e-002
2.426113e+003;2.356163e-002
2.428042e+003;2.376541e-002
2.429970e+003;2.387987e-002
2.431899e+003;2.373087e-002
2.433828e+003;2.377927e-002
2.435756e+003;2.391673e-002
2.437685e+003;2.375970e-002
2.439613e+003;2.332599e-002
2.441542e+003;2.313832e-002
2.443470e+003;2.287916e-002
2.445399e+003;2.296089e-002
2.447327e+003;2.300253e-002
2.449256e+003;2.295886e-002
2.451185e+003;2.300309e-002
2.453113e+003;2.303600e-002
2.455042e+003;2.289124e-002
2.456970e+003;2.283459e-002
2.458899e+003;2.295328e-002
2.460827e+003;2.292341e-002
2.462756e+003;2.262189e-002
2.464684e+003;2.233032e-002
2.466613e+003;2.262626e-002
2.468542e+003;2.277372e-002
2.470470e+003;2.289414e-002
2.472398e+003;2.324978e-002
2.474327e+003;2.358192e-002
2.476256e+003;2.389992e-002
2.478184e+003;2.439782e-002
2.480113e+003;2.489576e-002
2.482041e+003;2.518598e-002
2.483970e+003;2.555288e-002
2.485898e+003;2.594978e-002
2.487827e+003;2.628779e-002
2.489755e+003;2.695767e-002
2.491684e+003;2.764962e-002
2.493613e+003;2.826159e-002
2.495541e+003;2.904386e-002
2.497470e+003;2.979625e-002
2.499398e+003;3.072409e-002
2.501327e+003;3.216771e-002
2.503255e+003;3.357713e-002
2.505184e+003;3.465561e-002
2.507112e+003;3.551443e-002
2.509041e+003;3.626036e-002
2.510969e+003;3.714972e-002
2.512898e+003;3.741177e-002
2.514827e+003;3.720156e-002
2.516755e+003;3.712785e-002
2.518684e+003;3.734316e-002
2.520612e+003;3.751644e-002
2.522541e+003;3.730058e-002
2.524469e+003;3.684867e-002
2.526398e+003;3.618124e-002
2.528326e+003;3.532642e-002
2.530255e+003;3.461679e-002
2.532184e+003;3.390416e-002
2.534112e+003;3.304815e-002
2.536041e+003;3.246811e-002
2.537969e+003;3.192383e-002
2.539898e+003;3.148816e-002
2.541826e+003;3.125772e-002
2.543755e+003;3.132050e-002
2.545683e+003;3.156255e-002
2.547612e+003;3.186613e-002
2.549541e+003;3.205287e-002
2.551469e+003;3.201528e-002
2.553397e+003;3.210282e-002
2.555326e+003;3.244822e-002
2.557255e+003;3.266393e-002
2.559183e+003;3.290581e-002
2.561112e+003;3.315922e-002
2.563040e+003;3.346163e-002
2.564969e+003;3.388231e-002
2.566897e+003;3.437916e-002
2.568826e+003;3.499940e-002
2.570754e+003;3.545985e-002
2.572683e+003;3.590899e-002
2.574612e+003;3.648788e-002
2.576540e+003;3.696616e-002
2.578469e+003;3.711486e-002
2.580397e+003;3.734583e-002
2.582326e+003;3.760036e-002
2.584254e+003;3.733990e-002
2.586183e+003;3.672162e-002
2.588111e+003;3.602728e-002
2.590040e+003;3.549013e-002
2.591969e+003;3.516765e-002
2.593897e+003;3.498647e-002
2.595826e+003;3.498891e-002
2.597754e+003;3.487964e-002
2.599683e+003;3.474175e-002
2.601611e+003;3.477732e-002
2.603540e+003;3.481193e-002
2.605468e+003;3.505863e-002
2.607397e+003;3.555518e-002
2.609325e+003;3.574214e-002
2.611254e+003;3.575120e-002
2.613183e+003;3.578492e-002
2.615111e+003;3.589517e-002
2.617040e+003;3.605507e-002
2.618968e+003;3.599765e-002
2.620897e+003;3.557456e-002
2.622825e+003;3.499167e-002
2.624754e+003;3.452928e-002
2.626682e+003;3.407568e-002
2.628611e+003;3.374609e-002
2.630540e+003;3.369410e-002
2.632468e+003;3.355332e-002
2.634396e+003;3.349742e-002
2.636325e+003;3.345712e-002
2.638254e+003;3.343930e-002
2.640182e+003;3.353561e-002
2.642111e+003;3.369073e-002
2.644039e+003;3.422074e-002
2.645968e+003;3.482320e-002
2.647896e+003;3.505557e-002
2.649825e+003;3.538163e-002
2.651753e+003;3.581910e-002
2.653682e+003;3.612502e-002
2.655611e+003;3.653452e-002
2.657539e+003;3.691262e-002
2.659468e+003;3.709674e-002
2.661396e+003;3.709486e-002
2.663325e+003;3.705308e-002
2.665253e+003;3.696897e-002
2.667182e+003;3.686118e-002
2.669110e+003;3.701613e-002
2.671039e+003;3.739811e-002
2.672968e+003;3.792483e-002
2.674896e+003;3.810967e-002
2.676825e+003;3.804406e-002
2.678753e+003;3.812555e-002
2.680682e+003;3.810609e-002
2.682610e+003;3.794837e-002
2.684539e+003;3.800702e-002
2.686467e+003;3.834308e-002
2.688396e+003;3.839654e-002
2.690324e+003;3.821111e-002
2.692253e+003;3.806283e-002
2.694182e+003;3.796891e-002
2.696110e+003;3.808261e-002
2.698039e+003;3.852213e-002
2.699967e+003;3.900424e-002
2.701896e+003;3.940105e-002
2.703824e+003;3.992286e-002
2.705753e+003;4.063733e-002
2.707681e+003;4.171746e-002
2.709610e+003;4.270182e-002
2.711539e+003;4.359884e-002
2.713467e+003;4.492427e-002
2.715396e+003;4.666938e-002
2.717324e+003;4.841848e-002
2.719253e+003;4.988478e-002
2.721181e+003;5.094738e-002
2.723110e+003;5.139926e-002
2.725038e+003;5.117949e-002
2.726967e+003;5.030177e-002
2.728896e+003;4.882024e-002
2.730824e+003;4.732036e-002
2.732752e+003;4.620702e-002
2.734681e+003;4.497998e-002
2.736610e+003;4.387265e-002
2.738538e+003;4.304399e-002
2.740467e+003;4.214676e-002
2.742395e+003;4.116726e-002
2.744324e+003;4.033457e-002
2.746252e+003;3.981847e-002
2.748181e+003;3.975543e-002
2.750109e+003;3.977479e-002
2.752038e+003;3.959069e-002
2.753967e+003;3.978401e-002
2.755895e+003;3.985123e-002
2.757824e+003;3.983798e-002
2.759752e+003;4.021886e-002
2.761681e+003;4.062350e-002
2.763609e+003;4.087112e-002
2.765538e+003;4.124832e-002
2.767466e+003;4.175466e-002
2.769395e+003;4.208137e-002
2.771323e+003;4.252565e-002
2.773252e+003;4.342557e-002
2.775181e+003;4.430479e-002
2.777109e+003;4.498391e-002
2.779038e+003;4.563719e-002
2.780966e+003;4.665355e-002
2.782895e+003;4.802295e-002
2.784823e+003;4.934723e-002
2.786752e+003;5.059722e-002
2.788680e+003;5.236308e-002
2.790609e+003;5.442321e-002
2.792538e+003;5.612403e-002
2.794466e+003;5.704248e-002
2.796395e+003;5.796377e-002
2.798323e+003;5.950910e-002
2.800252e+003;6.080131e-002
2.802180e+003;6.226970e-002
2.804109e+003;6.464188e-002
2.806037e+003;6.711648e-002
2.807966e+003;6.886132e-002
2.809895e+003;7.035107e-002
2.811823e+003;7.195750e-002
2.813751e+003;7.370956e-002
2.815680e+003;7.550658e-002
2.817609e+003;7.769668e-002
2.819537e+003;8.023187e-002
2.821466e+003;8.297792e-002
2.823394e+003;8.635528e-002
2.825323e+003;9.065060e-002
2.827251e+003;9.595184e-002
2.829180e+003;1.029979e-001
2.831108e+003;1.121603e-001
2.833037e+003;1.217349e-001
2.834966e+003;1.291440e-001
2.836894e+003;1.329003e-001
2.838823e+003;1.326639e-001
2.840751e+003;1.288243e-001
2.842680e+003;1.232554e-001
2.844608e+003;1.171511e-001
2.846537e+003;1.120078e-001
2.848465e+003;1.081162e-001
2.850394e+003;1.048670e-001
2.852323e+003;1.027037e-001
2.854251e+003;1.019856e-001
2.856180e+003;1.032245e-001
2.858108e+003;1.068228e-001
2.860037e+003;1.131725e-001
2.861965e+003;1.216378e-001
2.863894e+003;1.301965e-001
2.865822e+003;1.365494e-001
2.867751e+003;1.395848e-001
2.869679e+003;1.403968e-001
2.871608e+003;1.405885e-001
2.873536e+003;1.408676e-001
2.875465e+003;1.406617e-001
2.877394e+003;1.395732e-001
2.879322e+003;1.377443e-001
2.881251e+003;1.360166e-001
2.883179e+003;1.349488e-001
2.885108e+003;1.344143e-001
2.887036e+003;1.347993e-001
2.888965e+003;1.359718e-001
2.890893e+003;1.381765e-001
2.892822e+003;1.414655e-001
2.894750e+003;1.455266e-001
2.896679e+003;1.498726e-001
2.898608e+003;1.549305e-001
2.900536e+003;1.604664e-001
2.902465e+003;1.659698e-001
2.904393e+003;1.713047e-001
2.906322e+003;1.766831e-001
2.908250e+003;1.821710e-001
2.910179e+003;1.867341e-001
2.912107e+003;1.903488e-001
2.914036e+003;1.931818e-001
2.915965e+003;1.944245e-001
2.917893e+003;1.929314e-001
2.919822e+003;1.894621e-001
2.921750e+003;1.841959e-001
2.923679e+003;1.774160e-001
2.925607e+003;1.706117e-001
2.927536e+003;1.627883e-001
2.929464e+003;1.538499e-001
2.931393e+003;1.450706e-001
2.933322e+003;1.363468e-001
2.935250e+003;1.291630e-001
2.937178e+003;1.249318e-001
2.939107e+003;1.240578e-001
2.941036e+003;1.266392e-001
2.942964e+003;1.332353e-001
2.944893e+003;1.428198e-001
2.946821e+003;1.529562e-001
2.948750e+003;1.603727e-001
2.950678e+003;1.635547e-001
2.952607e+003;1.628696e-001
2.954535e+003;1.591966e-001
2.956464e+003;1.540941e-001
2.958393e+003;1.485917e-001
2.960321e+003;1.427371e-001
2.962250e+003;1.358272e-001
2.964178e+003;1.283775e-001
2.966107e+003;1.206056e-001
2.968035e+003;1.129208e-001
2.969964e+003;1.057057e-001
2.971892e+003;9.915297e-002
2.973821e+003;9.329526e-002
2.975750e+003;8.760904e-002
2.977678e+003;8.313534e-002
2.979607e+003;7.985718e-002
2.981535e+003;7.674122e-002
2.983464e+003;7.380051e-002
2.985392e+003;7.113028e-002
2.987321e+003;6.861421e-002
2.989249e+003;6.634358e-002
2.991178e+003;6.420340e-002
2.993106e+003;6.251360e-002
2.995035e+003;6.083165e-002
2.996964e+003;5.871089e-002
2.998892e+003;5.640811e-002
3.000821e+003;5.420803e-002
3.002749e+003;5.261786e-002
3.004678e+003;5.144455e-002
3.006606e+003;4.978533e-002
3.008535e+003;4.798675e-002
3.010463e+003;4.657568e-002
3.012392e+003;4.513807e-002
3.014321e+003;4.368029e-002
3.016249e+003;4.240011e-002
3.018177e+003;4.121629e-002
3.020106e+003;4.025644e-002
3.022035e+003;3.927604e-002
3.023963e+003;3.846873e-002
3.025892e+003;3.783810e-002
3.027820e+003;3.707336e-002
3.029749e+003;3.597400e-002
3.031677e+003;3.518102e-002
3.033606e+003;3.479114e-002
3.035534e+003;3.415037e-002
3.037463e+003;3.360097e-002
3.039392e+003;3.334351e-002
3.041320e+003;3.316601e-002
3.043249e+003;3.297461e-002
3.045177e+003;3.273399e-002
3.047106e+003;3.240781e-002
3.049034e+003;3.196994e-002
3.050963e+003;3.175725e-002
3.052891e+003;3.165862e-002
3.054820e+003;3.123194e-002
3.056749e+003;3.046225e-002
3.058677e+003;2.988267e-002
3.060606e+003;2.975356e-002
3.062534e+003;2.983479e-002
3.064463e+003;2.972620e-002
3.066391e+003;2.951656e-002
3.068320e+003;2.935069e-002
3.070248e+003;2.904666e-002
3.072177e+003;2.890339e-002
3.074105e+003;2.899927e-002
3.076034e+003;2.890247e-002
3.077963e+003;2.872738e-002
3.079891e+003;2.848935e-002
3.081820e+003;2.840624e-002
3.083748e+003;2.847296e-002
3.085677e+003;2.829674e-002
3.087605e+003;2.798843e-002
3.089534e+003;2.781764e-002
3.091462e+003;2.778323e-002
3.093391e+003;2.789822e-002
3.095320e+003;2.798144e-002
3.097248e+003;2.781990e-002
3.099177e+003;2.761982e-002
3.101105e+003;2.730233e-002
3.103034e+003;2.727738e-002
3.104962e+003;2.742990e-002
3.106891e+003;2.728394e-002
3.108819e+003;2.735342e-002
3.110748e+003;2.739122e-002
3.112677e+003;2.742319e-002
3.114605e+003;2.768395e-002
3.116533e+003;2.768176e-002
3.118462e+003;2.770690e-002
3.120391e+003;2.820799e-002
3.122319e+003;2.847120e-002
3.124248e+003;2.828390e-002
3.126176e+003;2.777539e-002
3.128105e+003;2.737819e-002
3.130033e+003;2.764871e-002
3.131962e+003;2.821198e-002
3.133890e+003;2.858878e-002
3.135819e+003;2.864837e-002
3.137748e+003;2.861178e-002
3.139676e+003;2.861135e-002
3.141605e+003;2.877446e-002
3.143533e+003;2.864282e-002
3.145462e+003;2.837642e-002
3.147390e+003;2.850198e-002
3.149319e+003;2.859692e-002
3.151247e+003;2.882956e-002
3.153176e+003;2.896253e-002
3.155104e+003;2.847212e-002
3.157033e+003;2.771234e-002
3.158962e+003;2.737205e-002
3.160890e+003;2.756389e-002
3.162819e+003;2.805018e-002
3.164747e+003;2.808722e-002
3.166676e+003;2.790059e-002
3.168604e+003;2.808475e-002
3.170533e+003;2.798331e-002
3.172461e+003;2.765888e-002
3.174390e+003;2.785010e-002
3.176319e+003;2.806502e-002
3.178247e+003;2.771725e-002
3.180176e+003;2.754772e-002
3.182104e+003;2.786402e-002
3.184033e+003;2.792861e-002
3.185961e+003;2.781739e-002
3.187890e+003;2.821725e-002
3.189818e+003;2.828387e-002
3.191747e+003;2.819207e-002
3.193676e+003;2.824564e-002
3.195604e+003;2.826796e-002
3.197532e+003;2.835241e-002
3.199461e+003;2.831637e-002
3.201390e+003;2.797985e-002
3.203318e+003;2.768162e-002
3.205247e+003;2.758621e-002
3.207175e+003;2.766326e-002
3.209104e+003;2.728602e-002
3.211032e+003;2.662734e-002
3.212961e+003;2.647564e-002
3.214889e+003;2.638655e-002
3.216818e+003;2.604740e-002
3.218747e+003;2.575127e-002
3.220675e+003;2.529810e-002
3.222604e+003;2.502986e-002
3.224532e+003;2.518854e-002
3.226461e+003;2.519960e-002
3.228389e+003;2.500543e-002
3.230318e+003;2.429094e-002
3.232246e+003;2.368069e-002
3.234175e+003;2.341253e-002
3.236104e+003;2.324425e-002
3.238032e+003;2.268207e-002
3.239961e+003;2.236974e-002
3.241889e+003;2.278706e-002
3.243818e+003;2.283183e-002
3.245746e+003;2.228205e-002
3.247675e+003;2.191002e-002
3.249603e+003;2.139453e-002
3.251532e+003;2.085070e-002
3.253460e+003;2.102458e-002
3.255389e+003;2.127766e-002
3.257318e+003;2.155523e-002
3.259246e+003;2.203511e-002
3.261175e+003;2.213544e-002
3.263103e+003;2.206282e-002
3.265032e+003;2.205058e-002
3.266960e+003;2.184520e-002
3.268889e+003;2.163762e-002
3.270817e+003;2.141660e-002
3.272746e+003;2.121837e-002
3.274675e+003;2.135993e-002
3.276603e+003;2.179033e-002
3.278531e+003;2.191451e-002
3.280460e+003;2.162641e-002
3.282389e+003;2.145593e-002
3.284317e+003;2.125028e-002
3.286246e+003;2.093341e-002
3.288174e+003;2.077099e-002
3.290103e+003;2.106409e-002
3.292031e+003;2.137737e-002
3.293960e+003;2.158079e-002
3.295888e+003;2.143735e-002
3.297817e+003;2.131723e-002
3.299746e+003;2.120675e-002
3.301674e+003;2.132002e-002
3.303603e+003;2.154255e-002
3.305531e+003;2.132172e-002
3.307460e+003;2.100382e-002
3.309388e+003;2.093525e-002
3.311317e+003;2.095357e-002
3.313245e+003;2.093017e-002
3.315174e+003;2.111776e-002
3.317103e+003;2.118132e-002
3.319031e+003;2.068338e-002
3.320960e+003;2.014498e-002
3.322888e+003;2.039827e-002
3.324817e+003;2.092676e-002
3.326745e+003;2.104316e-002
3.328674e+003;2.097548e-002
3.330602e+003;2.110347e-002
3.332531e+003;2.126472e-002
3.334459e+003;2.116305e-002
3.336388e+003;2.112712e-002
3.338317e+003;2.135381e-002
3.340245e+003;2.144988e-002
3.342174e+003;2.121113e-002
3.344102e+003;2.136564e-002
3.346031e+003;2.188461e-002
3.347959e+003;2.141761e-002
3.349888e+003;2.065467e-002
3.351816e+003;2.090952e-002
3.353745e+003;2.143519e-002
3.355674e+003;2.137528e-002
3.357602e+003;2.133007e-002
3.359531e+003;2.147724e-002
3.361459e+003;2.163463e-002
3.363388e+003;2.134901e-002
3.365316e+003;2.074854e-002
3.367245e+003;2.053286e-002
3.369173e+003;2.072855e-002
3.371102e+003;2.086092e-002
3.373031e+003;2.089787e-002
3.374959e+003;2.113849e-002
3.376887e+003;2.124255e-002
3.378816e+003;2.114462e-002
3.380745e+003;2.110027e-002
3.382673e+003;2.089519e-002
3.384602e+003;2.060891e-002
3.386530e+003;2.071705e-002
3.388459e+003;2.111442e-002
3.390387e+003;2.112705e-002
3.392316e+003;2.073026e-002
3.394244e+003;2.069978e-002
3.396173e+003;2.076838e-002
3.398102e+003;2.086373e-002
3.400030e+003;2.093959e-002
3.401959e+003;2.090594e-002
3.403887e+003;2.072831e-002
3.405816e+003;2.053738e-002
3.407744e+003;2.013755e-002
3.409673e+003;2.040796e-002
3.411601e+003;2.092767e-002
3.413530e+003;2.104343e-002
3.415458e+003;2.083975e-002
3.417387e+003;2.059727e-002
3.419316e+003;2.032511e-002
3.421244e+003;2.021884e-002
3.423173e+003;2.003972e-002
3.425101e+003;1.991954e-002
3.427030e+003;2.016802e-002
3.428958e+003;2.047069e-002
3.430887e+003;2.063622e-002
3.432815e+003;2.057434e-002
3.434744e+003;2.045964e-002
3.436673e+003;2.007630e-002
3.438601e+003;1.961809e-002
3.440530e+003;1.947294e-002
3.442458e+003;1.955054e-002
3.444387e+003;1.925651e-002
3.446315e+003;1.881111e-002
3.448244e+003;1.905948e-002
3.450172e+003;1.940166e-002
3.452101e+003;1.930331e-002
3.454030e+003;1.925717e-002
3.455958e+003;1.903673e-002
3.457886e+003;1.860695e-002
3.459815e+003;1.869110e-002
3.461744e+003;1.903289e-002
3.463672e+003;1.921322e-002
3.465601e+003;1.862064e-002
3.467529e+003;1.815962e-002
3.469458e+003;1.818999e-002
3.471386e+003;1.831107e-002
3.473315e+003;1.844018e-002
3.475243e+003;1.830354e-002
3.477172e+003;1.813443e-002
3.479101e+003;1.807395e-002
3.481029e+003;1.819628e-002
3.482958e+003;1.825644e-002
3.484886e+003;1.816802e-002
3.486815e+003;1.790283e-002
3.488743e+003;1.768494e-002
3.490672e+003;1.785369e-002
3.492600e+003;1.810372e-002
3.494529e+003;1.818916e-002
3.496458e+003;1.794613e-002
3.498386e+003;1.736386e-002
3.500315e+003;1.746184e-002
3.502243e+003;1.773784e-002
3.504172e+003;1.771172e-002
3.506100e+003;1.765619e-002
3.508029e+003;1.730289e-002
3.509957e+003;1.723318e-002
3.511886e+003;1.755502e-002
3.513814e+003;1.747340e-002
3.515743e+003;1.723287e-002
3.517672e+003;1.723642e-002
3.519600e+003;1.741859e-002
3.521529e+003;1.722956e-002
3.523457e+003;1.709551e-002
3.525386e+003;1.735017e-002
3.527314e+003;1.695040e-002
3.529243e+003;1.653562e-002
3.531171e+003;1.684003e-002
3.533100e+003;1.736265e-002
3.535029e+003;1.750151e-002
3.536957e+003;1.727603e-002
3.538885e+003;1.685253e-002
3.540814e+003;1.664309e-002
3.542743e+003;1.634029e-002
3.544671e+003;1.611830e-002
3.546600e+003;1.629443e-002
3.548528e+003;1.679319e-002
3.550457e+003;1.696091e-002
3.552385e+003;1.658057e-002
3.554314e+003;1.626880e-002
3.556242e+003;1.640037e-002
3.558171e+003;1.598896e-002
3.560100e+003;1.588570e-002
3.562028e+003;1.595877e-002
3.563957e+003;1.554092e-002
3.565885e+003;1.458845e-002
3.567814e+003;1.436731e-002
3.569742e+003;1.481466e-002
3.571671e+003;1.497037e-002
3.573599e+003;1.533145e-002
3.575528e+003;1.624662e-002
3.577457e+003;1.669267e-002
3.579385e+003;1.638918e-002
3.581314e+003;1.621129e-002
3.583242e+003;1.621608e-002
3.585171e+003;1.554741e-002
3.587099e+003;1.457398e-002
3.589028e+003;1.508960e-002
3.590956e+003;1.591024e-002
3.592885e+003;1.589398e-002
3.594813e+003;1.627207e-002
3.596742e+003;1.635196e-002
3.598671e+003;1.581996e-002
3.600599e+003;1.566635e-002
3.602528e+003;1.571922e-002
3.604456e+003;1.577223e-002
3.606385e+003;1.518203e-002
3.608313e+003;1.467001e-002
3.610242e+003;1.555445e-002
3.612170e+003;1.605397e-002
3.614099e+003;1.653964e-002
3.616028e+003;1.661816e-002
3.617956e+003;1.594812e-002
3.619885e+003;1.616676e-002
3.621813e+003;1.682949e-002
3.623742e+003;1.662780e-002
3.625670e+003;1.551070e-002
3.627599e+003;1.335973e-002
3.629527e+003;1.363731e-002
3.631456e+003;1.547722e-002
3.633385e+003;1.589485e-002
3.635313e+003;1.658628e-002
3.637241e+003;1.714955e-002
3.639170e+003;1.722597e-002
3.641099e+003;1.722097e-002
3.643027e+003;1.740424e-002
3.644956e+003;1.694978e-002
3.646884e+003;1.447288e-002
3.648813e+003;1.210821e-002
3.650741e+003;1.339038e-002
3.652670e+003;1.601536e-002
3.654598e+003;1.600872e-002
3.656527e+003;1.587687e-002
3.658456e+003;1.709182e-002
3.660384e+003;1.729693e-002
3.662313e+003;1.743970e-002
3.664241e+003;1.792865e-002
3.666170e+003;1.740173e-002
3.668098e+003;1.521044e-002
3.670027e+003;1.416191e-002
3.671955e+003;1.561218e-002
3.673884e+003;1.381900e-002
3.675813e+003;1.313823e-002
3.677741e+003;1.663572e-002
3.679669e+003;1.809909e-002
3.681598e+003;1.865295e-002
3.683527e+003;1.889440e-002
3.685455e+003;1.776608e-002
3.687384e+003;1.538586e-002
3.689312e+003;1.596018e-002
3.691241e+003;1.874468e-002
3.693169e+003;2.062958e-002
3.695098e+003;2.102260e-002
3.697026e+003;2.098442e-002
3.698955e+003;2.014463e-002
3.700884e+003;1.869044e-002
3.702812e+003;1.851399e-002
3.704741e+003;1.873974e-002
3.706669e+003;1.799005e-002
3.708598e+003;1.683262e-002
3.710526e+003;1.528213e-002
3.712455e+003;1.552890e-002
3.714383e+003;1.761858e-002
3.716312e+003;1.828533e-002
3.718240e+003;1.770847e-002
3.720169e+003;1.712294e-002
3.722098e+003;1.707007e-002
3.724026e+003;1.698610e-002
3.725955e+003;1.662642e-002
3.727883e+003;1.699509e-002
3.729812e+003;1.670066e-002
3.731740e+003;1.545902e-002
3.733669e+003;1.500769e-002
3.735597e+003;1.444883e-002
3.737526e+003;1.545662e-002
3.739455e+003;1.650598e-002
3.741383e+003;1.554284e-002
3.743312e+003;1.182684e-002
3.745240e+003;1.274143e-002
3.747169e+003;1.493662e-002
3.749097e+003;1.333595e-002
3.751026e+003;1.314155e-002
3.752954e+003;1.530173e-002
3.754883e+003;1.765646e-002
3.756812e+003;1.793228e-002
3.758740e+003;1.794982e-002
3.760668e+003;1.800836e-002
3.762597e+003;1.837996e-002
3.764526e+003;1.790838e-002
3.766454e+003;1.765308e-002
3.768383e+003;1.701349e-002
3.770311e+003;1.744525e-002
3.772240e+003;1.841439e-002
3.774168e+003;1.853543e-002
3.776097e+003;1.862151e-002
3.778025e+003;1.850528e-002
3.779954e+003;1.832058e-002
3.781883e+003;1.848595e-002
3.783811e+003;1.835331e-002
3.785740e+003;1.833627e-002
3.787668e+003;1.867408e-002
3.789597e+003;1.883537e-002
3.791525e+003;1.871497e-002
3.793454e+003;1.890198e-002
3.795382e+003;1.854263e-002
3.797311e+003;1.797199e-002
3.799240e+003;1.583298e-002
3.801168e+003;1.403438e-002
3.803097e+003;1.606057e-002
3.805025e+003;1.638134e-002
3.806954e+003;1.575385e-002
3.808882e+003;1.758176e-002
3.810811e+003;1.864783e-002
3.812739e+003;1.806859e-002
3.814668e+003;1.566185e-002
3.816596e+003;1.581666e-002
3.818525e+003;1.705991e-002
3.820454e+003;1.573272e-002
3.822382e+003;1.674645e-002
3.824311e+003;1.818522e-002
3.826239e+003;1.789364e-002
3.828168e+003;1.819814e-002
3.830096e+003;1.825989e-002
3.832025e+003;1.781972e-002
3.833953e+003;1.708282e-002
3.835882e+003;1.533313e-002
3.837811e+003;1.484428e-002
3.839739e+003;1.659079e-002
3.841667e+003;1.738814e-002
3.843596e+003;1.778292e-002
3.845525e+003;1.864309e-002
3.847453e+003;1.907679e-002
3.849382e+003;1.763469e-002
3.851310e+003;1.358961e-002
3.853239e+003;1.045613e-002
3.855167e+003;1.434341e-002
3.857096e+003;1.827738e-002
3.859024e+003;1.872012e-002
3.860953e+003;1.833579e-002
3.862882e+003;1.808179e-002
3.864810e+003;1.815174e-002
3.866739e+003;1.850262e-002
3.868667e+003;1.691340e-002
3.870596e+003;1.680751e-002
3.872524e+003;1.811823e-002
3.874453e+003;1.880596e-002
3.876381e+003;1.984642e-002
3.878310e+003;1.942270e-002
3.880239e+003;1.843116e-002
3.882167e+003;1.864101e-002
3.884096e+003;1.801823e-002
3.886024e+003;1.788042e-002
3.887953e+003;1.938406e-002
3.889881e+003;1.882554e-002
3.891810e+003;1.856182e-002
3.893738e+003;1.988333e-002
3.895667e+003;2.040855e-002
3.897595e+003;1.917814e-002
3.899524e+003;1.773795e-002
3.901453e+003;1.709723e-002
3.903381e+003;1.699102e-002
3.905310e+003;1.840032e-002
3.907238e+003;2.008889e-002
3.909167e+003;2.071736e-002
3.911095e+003;2.069081e-002
3.913024e+003;2.075521e-002
3.914952e+003;2.061746e-002
3.916881e+003;2.004781e-002
3.918810e+003;1.989054e-002
3.920738e+003;2.026300e-002
3.922667e+003;2.080554e-002
3.924595e+003;2.109835e-002
3.926524e+003;2.118278e-002
3.928452e+003;2.091418e-002
3.930381e+003;2.073241e-002
3.932309e+003;2.057688e-002
3.934238e+003;2.082400e-002
3.936167e+003;2.103039e-002
3.938095e+003;2.149273e-002
3.940023e+003;2.175302e-002
3.941952e+003;2.154513e-002
3.943881e+003;2.149238e-002
3.945809e+003;2.095204e-002
3.947738e+003;2.033577e-002
3.949666e+003;2.032827e-002
3.951595e+003;2.057907e-002
3.953523e+003;2.100584e-002
3.955452e+003;2.117248e-002
3.957380e+003;2.099718e-002
3.959309e+003;2.095489e-002
3.961238e+003;2.119259e-002
3.963166e+003;2.150450e-002
3.965095e+003;2.146049e-002
3.967023e+003;2.125184e-002
3.968952e+003;2.133989e-002
3.970880e+003;2.130418e-002
3.972809e+003;2.120839e-002
3.974737e+003;2.114907e-002
3.976666e+003;2.128619e-002
3.978594e+003;2.166287e-002
3.980523e+003;2.207704e-002
3.982452e+003;2.212864e-002
3.984380e+003;2.190618e-002
3.986309e+003;2.207039e-002
3.988237e+003;2.308010e-002
3.990166e+003;2.434767e-002
3.992094e+003;2.412957e-002
3.994023e+003;2.296721e-002
3.995951e+003;2.183175e-002
3.997880e+003;2.170282e-002
3.999809e+003;2.252623e-002
4.001737e+003;0.000000e+000
