3.992094e+002;0.000000e+000
4.011380e+002;0.000000e+000
4.030665e+002;0.000000e+000
4.049951e+002;0.000000e+000
4.069236e+002;0.000000e+000
4.088522e+002;0.000000e+000
4.107807e+002;0.000000e+000
4.127093e+002;0.000000e+000
4.146378e+002;0.000000e+000
4.165664e+002;0.000000e+000
4.184949e+002;0.000000e+000
4.204235e+002;0.000000e+000
4.223520e+002;0.000000e+000
4.242806e+002;0.000000e+000
4.262091e+002;0.000000e+000
4.281377e+002;0.000000e+000
4.300662e+002;0.000000e+000
4.319948e+002;0.000000e+000
4.339233e+002;0.000000e+000
4.358519e+002;0.000000e+000
4.377804e+002;0.000000e+000
4.397090e+002;0.000000e+000
4.416375e+002;0.000000e+000
4.435660e+002;0.000000e+000
4.454946e+002;0.000000e+000
4.474232e+002;0.000000e+000
4.493517e+002;0.000000e+000
4.512802e+002;0.000000e+000
4.532088e+002;0.000000e+000
4.551373e+002;0.000000e+000
4.570659e+002;0.000000e+000
4.589944e+002;0.000000e+000
4.609230e+002;0.000000e+000
4.628515e+002;0.000000e+000
4.647801e+002;0.000000e+000
4.667086e+002;0.000000e+000
4.686372e+002;0.000000e+000
4.705657e+002;0.000000e+000
4.724943e+002;0.000000e+000
4.744228e+002;0.000000e+000
4.763513e+002;0.000000e+000
4.782799e+002;0.000000e+000
4.802085e+002;0.000000e+000
4.821370e+002;0.000000e+000
4.840656e+002;0.000000e+000
4.859941e+002;0.000000e+000
4.879226e+002;0.000000e+000
4.898512e+002;0.000000e+000
4.917798e+002;0.000000e+000
4.937083e+002;0.000000e+000
4.956368e+002;0.000000e+000
4.975654e+002;0.000000e+000
4.994939e+002;0.000000e+000
5.014225e+002;0.000000e+000
5.033510e+002;0.000000e+000
5.052796e+002;0.000000e+000
5.072081e+002;0.000000e+000
5.091367e+002;0.000000e+000
5.110652e+002;0.000000e+000
5.129938e+002;0.000000e+000
5.149223e+002;0.000000e+000
5.168509e+002;0.000000e+000
5.187794e+002;0.000000e+000
5.207079e+002;0.000000e+000
5.226365e+002;0.000000e+000
5.245651e+002;0.000000e+000
5.264936e+002;0.000000e+000
5.284222e+002;0.000000e+000
5.303507e+002;0.000000e+000
5.322792e+002;0.000000e+000
5.342078e+002;0.000000e+000
5.361364e+002;0.000000e+000
5.380649e+002;0.000000e+000
5.399935e+002;0.000000e+000
5.419220e+002;0.000000e+000
5.438505e+002;0.000000e+000
5.457791e+002;0.000000e+000
5.477076e+002;0.000000e+000
5.496362e+002;0.000000e+000
5.515648e+002;0.000000e+000
5.534933e+002;0.000000e+000
5.554218e+002;0.000000e+000
5.573504e+002;0.000000e+000
5.592789e+002;0.000000e+000
5.612075e+002;0.000000e+000
5.631360e+002;0.000000e+000
5.650646e+002;0.000000e+000
5.669931e+002;0.000000e+000
5.689217e+002;0.000000e+000
5.708502e+002;0.000000e+000
5.727787e+002;0.000000e+000
5.747073e+002;0.000000e+000
5.766359e+002;0.000000e+000
5.785644e+002;0.000000e+000
5.804930e+002;0.000000e+000
5.824215e+002;0.000000e+000
5.843500e+002;0.000000e+000
5.862786e+002;0.000000e+000
5.882072e+002;0.000000e+000
5.901357e+002;0.000000e+000
5.920643e+002;0.000000e+000
5.939928e+002;0.000000e+000
5.959213e+002;0.000000e+000
5.978499e+002;0.000000e+000
5.997784e+002;5.762861e-002
6.017070e+002;4.968264e-002
6.036355e+002;4.690216e-002
6.055641e+002;5.049032e-002
6.074926e+002;4.965708e-002
6.094211e+002;4.141085e-002
6.113497e+002;4.016786e-002
6.132783e+002;4.294723e-002
6.152068e+002;4.352305e-002
6.171354e+002;4.723373e-002
6.190639e+002;5.044119e-002
6.209924e+002;4.679911e-002
6.229210e+002;4.549114e-002
6.248495e+002;4.558140e-002
6.267781e+002;4.949953e-002
6.287067e+002;5.254101e-002
6.306352e+002;5.117010e-002
6.325637e+002;5.112995e-002
6.344923e+002;5.131785e-002
6.364208e+002;4.874784e-002
6.383494e+002;4.994031e-002
6.402780e+002;5.254355e-002
6.422065e+002;5.101408e-002
6.441350e+002;4.604548e-002
6.460636e+002;4.352357e-002
6.479921e+002;4.445544e-002
6.499207e+002;4.672785e-002
6.518492e+002;4.681826e-002
6.537778e+002;4.686909e-002
6.557063e+002;5.009423e-002
6.576349e+002;5.001176e-002
6.595634e+002;4.925963e-002
6.614919e+002;4.978366e-002
6.634205e+002;4.967558e-002
6.653491e+002;5.007329e-002
6.672776e+002;5.029775e-002
6.692062e+002;4.885687e-002
6.711347e+002;4.935380e-002
6.730632e+002;5.212701e-002
6.749918e+002;5.225237e-002
6.769203e+002;5.072873e-002
6.788489e+002;5.057135e-002
6.807775e+002;5.071049e-002
6.827060e+002;4.869472e-002
6.846345e+002;4.717824e-002
6.865631e+002;4.747660e-002
6.884916e+002;4.751601e-002
6.904202e+002;4.667277e-002
6.923488e+002;4.734793e-002
6.942773e+002;4.864420e-002
6.962058e+002;4.976121e-002
6.981344e+002;5.023749e-002
7.000629e+002;4.991856e-002
7.019915e+002;5.003447e-002
7.039200e+002;5.045961e-002
7.058486e+002;5.010553e-002
7.077771e+002;5.047829e-002
7.097057e+002;5.037860e-002
7.116342e+002;5.073894e-002
7.135627e+002;5.160236e-002
7.154913e+002;5.248795e-002
7.174199e+002;5.253925e-002
7.193484e+002;5.187155e-002
7.212770e+002;5.183888e-002
7.232055e+002;5.325329e-002
7.251340e+002;5.399703e-002
7.270626e+002;5.360752e-002
7.289911e+002;5.370259e-002
7.309197e+002;5.356201e-002
7.328483e+002;5.191543e-002
7.347768e+002;5.071123e-002
7.367053e+002;5.080787e-002
7.386339e+002;5.117677e-002
7.405624e+002;5.083186e-002
7.424910e+002;5.137252e-002
7.444196e+002;5.103186e-002
7.463481e+002;5.038515e-002
7.482766e+002;5.075011e-002
7.502052e+002;5.067139e-002
7.521337e+002;5.111429e-002
7.540623e+002;5.158672e-002
7.559908e+002;5.138382e-002
7.579194e+002;5.157392e-002
7.598479e+002;5.143891e-002
7.617765e+002;5.156112e-002
7.637050e+002;5.187581e-002
7.656335e+002;5.212010e-002
7.675621e+002;5.207767e-002
7.694907e+002;5.219774e-002
7.714192e+002;5.200901e-002
7.733478e+002;5.178706e-002
7.752763e+002;5.194825e-002
7.772048e+002;5.232656e-002
7.791334e+002;5.260829e-002
7.810620e+002;5.292713e-002
7.829905e+002;5.440541e-002
7.849191e+002;5.621694e-002
7.868476e+002;5.676881e-002
7.887761e+002;5.700167e-002
7.907047e+002;5.787393e-002
7.926332e+002;5.899007e-002
7.945618e+002;6.146335e-002
7.964903e+002;6.480821e-002
7.984189e+002;6.656989e-002
8.003474e+002;6.742701e-002
8.022759e+002;6.937227e-002
8.042045e+002;7.221207e-002
8.061331e+002;7.495107e-002
8.080616e+002;7.773694e-002
8.099902e+002;7.887856e-002
8.119187e+002;7.732931e-002
8.138472e+002;7.400685e-002
8.157758e+002;7.099026e-002
8.177043e+002;6.855489e-002
8.196329e+002;6.617859e-002
8.215615e+002;6.486361e-002
8.234900e+002;6.367938e-002
8.254185e+002;6.228638e-002
8.273471e+002;6.181463e-002
8.292756e+002;6.191710e-002
8.312042e+002;6.159350e-002
8.331328e+002;6.151492e-002
8.350613e+002;6.255814e-002
8.369898e+002;6.596541e-002
8.389184e+002;7.221899e-002
8.408469e+002;7.880673e-002
8.427755e+002;7.902456e-002
8.447040e+002;7.271754e-002
8.466326e+002;6.605717e-002
8.485611e+002;6.247397e-002
8.504897e+002;6.079026e-002
8.524182e+002;5.961882e-002
8.543467e+002;5.860807e-002
8.562753e+002;5.777907e-002
8.582039e+002;5.750868e-002
8.601324e+002;5.709802e-002
8.620610e+002;5.678678e-002
8.639895e+002;5.685654e-002
8.659180e+002;5.706046e-002
8.678466e+002;5.673449e-002
8.697751e+002;5.637782e-002
8.717037e+002;5.698470e-002
8.736323e+002;5.801198e-002
8.755608e+002;5.772083e-002
8.774893e+002;5.692305e-002
8.794179e+002;5.597802e-002
8.813464e+002;5.531210e-002
8.832750e+002;5.548024e-002
8.852036e+002;5.554749e-002
8.871321e+002;5.543367e-002
8.890606e+002;5.595371e-002
8.909892e+002;5.718325e-002
8.929177e+002;5.933540e-002
8.948463e+002;6.301718e-002
8.967748e+002;6.758276e-002
8.987034e+002;7.039876e-002
9.006319e+002;7.015775e-002
9.025605e+002;6.673233e-002
9.044890e+002;6.157650e-002
9.064175e+002;5.682141e-002
9.083461e+002;5.411134e-002
9.102747e+002;5.265515e-002
9.122032e+002;5.124100e-002
9.141318e+002;5.041600e-002
9.160603e+002;5.029076e-002
9.179888e+002;4.983230e-002
9.199174e+002;4.901341e-002
9.218459e+002;4.869224e-002
9.237745e+002;4.895544e-002
9.257031e+002;4.946120e-002
9.276316e+002;5.009494e-002
9.295601e+002;5.015202e-002
9.314887e+002;4.993994e-002
9.334172e+002;5.015153e-002
9.353458e+002;5.128989e-002
9.372744e+002;5.273651e-002
9.392029e+002;5.398108e-002
9.411314e+002;5.489711e-002
9.430600e+002;5.524150e-002
9.449885e+002;5.537175e-002
9.469171e+002;5.561411e-002
9.488456e+002;5.554052e-002
9.507742e+002;5.541391e-002
9.527027e+002;5.628238e-002
9.546313e+002;5.741803e-002
9.565598e+002;5.795336e-002
9.584883e+002;5.874339e-002
9.604169e+002;6.046631e-002
9.623455e+002;6.289626e-002
9.642740e+002;6.605632e-002
9.662026e+002;7.052635e-002
9.681311e+002;7.651117e-002
9.700596e+002;8.419809e-002
9.719882e+002;9.175042e-002
9.739167e+002;9.476195e-002
9.758453e+002;9.137466e-002
9.777739e+002;8.349457e-002
9.797024e+002;7.435899e-002
9.816309e+002;6.668474e-002
9.835595e+002;6.191710e-002
9.854880e+002;5.957872e-002
9.874166e+002;6.000255e-002
9.893452e+002;6.205732e-002
9.912737e+002;6.530657e-002
9.932022e+002;7.080617e-002
9.951307e+002;7.818478e-002
9.970593e+002;8.513670e-002
9.989879e+002;8.698727e-002
1.000916e+003;8.269039e-002
1.002845e+003;7.620419e-002
1.004773e+003;7.093138e-002
1.006702e+003;6.812326e-002
1.008631e+003;6.678867e-002
1.010559e+003;6.616065e-002
1.012488e+003;6.555553e-002
1.014416e+003;6.468087e-002
1.016345e+003;6.418528e-002
1.018273e+003;6.400543e-002
1.020202e+003;6.407401e-002
1.022130e+003;6.407044e-002
1.024059e+003;6.395471e-002
1.025988e+003;6.441442e-002
1.027916e+003;6.514716e-002
1.029845e+003;6.571054e-002
1.031773e+003;6.673878e-002
1.033702e+003;6.773864e-002
1.035630e+003;6.892123e-002
1.037559e+003;7.033120e-002
1.039487e+003;7.150103e-002
1.041416e+003;7.215334e-002
1.043344e+003;7.222670e-002
1.045273e+003;7.152154e-002
1.047202e+003;7.040250e-002
1.049130e+003;6.963206e-002
1.051059e+003;6.935385e-002
1.052987e+003;6.895944e-002
1.054916e+003;6.827445e-002
1.056844e+003;6.799231e-002
1.058773e+003;6.809647e-002
1.060701e+003;6.780670e-002
1.062630e+003;6.734961e-002
1.064558e+003;6.764494e-002
1.066487e+003;6.820641e-002
1.068416e+003;6.842563e-002
1.070344e+003;6.855796e-002
1.072273e+003;6.958111e-002
1.074201e+003;7.010273e-002
1.076130e+003;6.954000e-002
1.078058e+003;6.941224e-002
1.079987e+003;6.997296e-002
1.081915e+003;7.064135e-002
1.083844e+003;7.100454e-002
1.085773e+003;7.126242e-002
1.087701e+003;7.217251e-002
1.089630e+003;7.291181e-002
1.091558e+003;7.314427e-002
1.093487e+003;7.345898e-002
1.095415e+003;7.448857e-002
1.097344e+003;7.572766e-002
1.099272e+003;7.705495e-002
1.101201e+003;7.812754e-002
1.103129e+003;7.797252e-002
1.105058e+003;7.692970e-002
1.106987e+003;7.532609e-002
1.108915e+003;7.344360e-002
1.110844e+003;7.207878e-002
1.112772e+003;7.052023e-002
1.114701e+003;6.885561e-002
1.116629e+003;6.747728e-002
1.118558e+003;6.638145e-002
1.120486e+003;6.564856e-002
1.122415e+003;6.513931e-002
1.124344e+003;6.482884e-002
1.126272e+003;6.444013e-002
1.128201e+003;6.401042e-002
1.130129e+003;6.425891e-002
1.132058e+003;6.452911e-002
1.133986e+003;6.500582e-002
1.135915e+003;6.618658e-002
1.137843e+003;6.781878e-002
1.139772e+003;7.022053e-002
1.141700e+003;7.294638e-002
1.143629e+003;7.576024e-002
1.145557e+003;7.906451e-002
1.147486e+003;8.240517e-002
1.149415e+003;8.541049e-002
1.151343e+003;8.801942e-002
1.153272e+003;8.944707e-002
1.155200e+003;9.020285e-002
1.157129e+003;9.065116e-002
1.159057e+003;9.103256e-002
1.160986e+003;9.181988e-002
1.162914e+003;9.307533e-002
1.164843e+003;9.445597e-002
1.166771e+003;9.501322e-002
1.168700e+003;9.445181e-002
1.170629e+003;9.160183e-002
1.172557e+003;8.685917e-002
1.174486e+003;8.147368e-002
1.176414e+003;7.619195e-002
1.178343e+003;7.187417e-002
1.180271e+003;6.907213e-002
1.182200e+003;6.751429e-002
1.184128e+003;6.652899e-002
1.186057e+003;6.586155e-002
1.187986e+003;6.558462e-002
1.189914e+003;6.553519e-002
1.191843e+003;6.566952e-002
1.193771e+003;6.570768e-002
1.195700e+003;6.561831e-002
1.197628e+003;6.580634e-002
1.199557e+003;6.596170e-002
1.201485e+003;6.554952e-002
1.203414e+003;6.512514e-002
1.205343e+003;6.512645e-002
1.207271e+003;6.576627e-002
1.209200e+003;6.684729e-002
1.211128e+003;6.771917e-002
1.213057e+003;6.841426e-002
1.214985e+003;6.909800e-002
1.216914e+003;6.972970e-002
1.218842e+003;7.022516e-002
1.220771e+003;7.004140e-002
1.222699e+003;6.912942e-002
1.224628e+003;6.849646e-002
1.226557e+003;6.832870e-002
1.228485e+003;6.802467e-002
1.230414e+003;6.786596e-002
1.232342e+003;6.825294e-002
1.234271e+003;6.842260e-002
1.236199e+003;6.832952e-002
1.238128e+003;6.843238e-002
1.240056e+003;6.861080e-002
1.241985e+003;6.862620e-002
1.243913e+003;6.902609e-002
1.245842e+003;6.996736e-002
1.247771e+003;7.091734e-002
1.249699e+003;7.214888e-002
1.251628e+003;7.469107e-002
1.253556e+003;7.839543e-002
1.255485e+003;8.131714e-002
1.257413e+003;8.215185e-002
1.259342e+003;8.124846e-002
1.261270e+003;7.907604e-002
1.263199e+003;7.584301e-002
1.265127e+003;7.298126e-002
1.267056e+003;7.103646e-002
1.268985e+003;6.930577e-002
1.270913e+003;6.806799e-002
1.272842e+003;6.758311e-002
1.274770e+003;6.718428e-002
1.276699e+003;6.670822e-002
1.278627e+003;6.644694e-002
1.280556e+003;6.684203e-002
1.282484e+003;6.747484e-002
1.284413e+003;6.794012e-002
1.286342e+003;6.856575e-002
1.288270e+003;6.927246e-002
1.290199e+003;7.016756e-002
1.292127e+003;7.108548e-002
1.294056e+003;7.177018e-002
1.295984e+003;7.210890e-002
1.297913e+003;7.216316e-002
1.299841e+003;7.218526e-002
1.301770e+003;7.252689e-002
1.303698e+003;7.287332e-002
1.305627e+003;7.176921e-002
1.307556e+003;6.915099e-002
1.309484e+003;6.660149e-002
1.311413e+003;6.539823e-002
1.313341e+003;6.528022e-002
1.315270e+003;6.588646e-002
1.317198e+003;6.693553e-002
1.319127e+003;6.778512e-002
1.321055e+003;6.852040e-002
1.322984e+003;6.972698e-002
1.324912e+003;7.140330e-002
1.326841e+003;7.287160e-002
1.328770e+003;7.399011e-002
1.330698e+003;7.417874e-002
1.332627e+003;7.352452e-002
1.334555e+003;7.262130e-002
1.336484e+003;7.200740e-002
1.338412e+003;7.196727e-002
1.340341e+003;7.260196e-002
1.342269e+003;7.376972e-002
1.344198e+003;7.553351e-002
1.346126e+003;7.763269e-002
1.348055e+003;8.033089e-002
1.349984e+003;8.386791e-002
1.351912e+003;8.818354e-002
1.353841e+003;9.388573e-002
1.355769e+003;1.013368e-001
1.357698e+003;1.079248e-001
1.359626e+003;1.103929e-001
1.361555e+003;1.093519e-001
1.363483e+003;1.084312e-001
1.365412e+003;1.103912e-001
1.367341e+003;1.176535e-001
1.369269e+003;1.321853e-001
1.371198e+003;1.534261e-001
1.373126e+003;1.773710e-001
1.375055e+003;1.951046e-001
1.376983e+003;1.949883e-001
1.378912e+003;1.757999e-001
1.380840e+003;1.506350e-001
1.382769e+003;1.280519e-001
1.384698e+003;1.097180e-001
1.386626e+003;9.612871e-002
1.388555e+003;8.713397e-002
1.390483e+003;8.150522e-002
1.392412e+003;7.785755e-002
1.394340e+003;7.586499e-002
1.396269e+003;7.519227e-002
1.398197e+003;7.492264e-002
1.400126e+003;7.503743e-002
1.402054e+003;7.541835e-002
1.403983e+003;7.564664e-002
1.405911e+003;7.610457e-002
1.407840e+003;7.696261e-002
1.409769e+003;7.770203e-002
1.411697e+003;7.842378e-002
1.413626e+003;7.925722e-002
1.415554e+003;7.976241e-002
1.417483e+003;8.000534e-002
1.419411e+003;8.069666e-002
1.421340e+003;8.169470e-002
1.423268e+003;8.291772e-002
1.425197e+003;8.479932e-002
1.427125e+003;8.784403e-002
1.429054e+003;9.312820e-002
1.430983e+003;1.011912e-001
1.432911e+003;1.105604e-001
1.434840e+003;1.174094e-001
1.436768e+003;1.199774e-001
1.438697e+003;1.213062e-001
1.440625e+003;1.237566e-001
1.442554e+003;1.287118e-001
1.444482e+003;1.366162e-001
1.446411e+003;1.459011e-001
1.448340e+003;1.547709e-001
1.450268e+003;1.616532e-001
1.452197e+003;1.658381e-001
1.454125e+003;1.676731e-001
1.456054e+003;1.676578e-001
1.457982e+003;1.662690e-001
1.459911e+003;1.641298e-001
1.461839e+003;1.603768e-001
1.463768e+003;1.540691e-001
1.465697e+003;1.455681e-001
1.467625e+003;1.362398e-001
1.469554e+003;1.264859e-001
1.471482e+003;1.167869e-001
1.473411e+003;1.076731e-001
1.475339e+003;9.923453e-002
1.477268e+003;9.173074e-002
1.479196e+003;8.525934e-002
1.481125e+003;7.970615e-002
1.483053e+003;7.498848e-002
1.484982e+003;7.069335e-002
1.486911e+003;6.718200e-002
1.488839e+003;6.460458e-002
1.490768e+003;6.254353e-002
1.492696e+003;6.115175e-002
1.494625e+003;6.011304e-002
1.496553e+003;5.893967e-002
1.498482e+003;5.824645e-002
1.500410e+003;5.790285e-002
1.502339e+003;5.745679e-002
1.504267e+003;5.691263e-002
1.506196e+003;5.642989e-002
1.508125e+003;5.642487e-002
1.510053e+003;5.686122e-002
1.511982e+003;5.712969e-002
1.513910e+003;5.741220e-002
1.515839e+003;5.772809e-002
1.517767e+003;5.777532e-002
1.519696e+003;5.775988e-002
1.521624e+003;5.798312e-002
1.523553e+003;5.863860e-002
1.525481e+003;5.937624e-002
1.527410e+003;6.038242e-002
1.529339e+003;6.121889e-002
1.531267e+003;6.228749e-002
1.533196e+003;6.399357e-002
1.535124e+003;6.588607e-002
1.537053e+003;6.737655e-002
1.538981e+003;6.858566e-002
1.540910e+003;7.021177e-002
1.542838e+003;7.171500e-002
1.544767e+003;7.231502e-002
1.546695e+003;7.181967e-002
1.548624e+003;7.059530e-002
1.550553e+003;6.911291e-002
1.552481e+003;6.757796e-002
1.554410e+003;6.610262e-002
1.556338e+003;6.473890e-002
1.558267e+003;6.326599e-002
1.560195e+003;6.275631e-002
1.562124e+003;6.270520e-002
1.564052e+003;6.254368e-002
1.565981e+003;6.273900e-002
1.567910e+003;6.295355e-002
1.569838e+003;6.331138e-002
1.571767e+003;6.412881e-002
1.573695e+003;6.491490e-002
1.575624e+003;6.552555e-002
1.577552e+003;6.624469e-002
1.579481e+003;6.649844e-002
1.581409e+003;6.581474e-002
1.583338e+003;6.469479e-002
1.585266e+003;6.330482e-002
1.587195e+003;6.175622e-002
1.589124e+003;6.034153e-002
1.591052e+003;5.919909e-002
1.592981e+003;5.876745e-002
1.594909e+003;5.871658e-002
1.596838e+003;5.851844e-002
1.598766e+003;5.862324e-002
1.600695e+003;5.906496e-002
1.602623e+003;5.922811e-002
1.604552e+003;5.957340e-002
1.606480e+003;6.007541e-002
1.608409e+003;6.042168e-002
1.610338e+003;6.098483e-002
1.612266e+003;6.145789e-002
1.614195e+003;6.209562e-002
1.616123e+003;6.298351e-002
1.618052e+003;6.397568e-002
1.619980e+003;6.474402e-002
1.621909e+003;6.542804e-002
1.623837e+003;6.628248e-002
1.625766e+003;6.732118e-002
1.627694e+003;6.816637e-002
1.629623e+003;6.874365e-002
1.631552e+003;6.926069e-002
1.633480e+003;6.970103e-002
1.635409e+003;7.012846e-002
1.637337e+003;7.096349e-002
1.639266e+003;7.211477e-002
1.641194e+003;7.297362e-002
1.643123e+003;7.362206e-002
1.645051e+003;7.411809e-002
1.646980e+003;7.472075e-002
1.648909e+003;7.538442e-002
1.650837e+003;7.551770e-002
1.652766e+003;7.518766e-002
1.654694e+003;7.535596e-002
1.656623e+003;7.542651e-002
1.658551e+003;7.500352e-002
1.660480e+003;7.433103e-002
1.662408e+003;7.340170e-002
1.664337e+003;7.266407e-002
1.666266e+003;7.172371e-002
1.668194e+003;7.057534e-002
1.670123e+003;6.960651e-002
1.672051e+003;6.868865e-002
1.673980e+003;6.755613e-002
1.675908e+003;6.653050e-002
1.677837e+003;6.559695e-002
1.679765e+003;6.451258e-002
1.681694e+003;6.345335e-002
1.683622e+003;6.188573e-002
1.685551e+003;6.080433e-002
1.687479e+003;6.050878e-002
1.689408e+003;5.995964e-002
1.691337e+003;5.944911e-002
1.693265e+003;5.896358e-002
1.695194e+003;5.823660e-002
1.697122e+003;5.778868e-002
1.699051e+003;5.704021e-002
1.700979e+003;5.655634e-002
1.702908e+003;5.686058e-002
1.704836e+003;5.676632e-002
1.706765e+003;5.661662e-002
1.708693e+003;5.651660e-002
1.710622e+003;5.616837e-002
1.712551e+003;5.567101e-002
1.714479e+003;5.533347e-002
1.716408e+003;5.489151e-002
1.718336e+003;5.459966e-002
1.720265e+003;5.448012e-002
1.722193e+003;5.446524e-002
1.724122e+003;5.435133e-002
1.726050e+003;5.393745e-002
1.727979e+003;5.361317e-002
1.729908e+003;5.353086e-002
1.731836e+003;5.371733e-002
1.733765e+003;5.417597e-002
1.735693e+003;5.483166e-002
1.737622e+003;5.497953e-002
1.739550e+003;5.452395e-002
1.741479e+003;5.365205e-002
1.743407e+003;5.225174e-002
1.745336e+003;5.014752e-002
1.747265e+003;4.758473e-002
1.749193e+003;4.509521e-002
1.751122e+003;4.280251e-002
1.753050e+003;4.089646e-002
1.754979e+003;3.878254e-002
1.756907e+003;3.652900e-002
1.758836e+003;3.476486e-002
1.760764e+003;3.320571e-002
1.762693e+003;3.182869e-002
1.764621e+003;3.072260e-002
1.766550e+003;2.981147e-002
1.768479e+003;2.925619e-002
1.770407e+003;2.863570e-002
1.772336e+003;2.801388e-002
1.774264e+003;2.775183e-002
1.776193e+003;2.746632e-002
1.778121e+003;2.703140e-002
1.780050e+003;2.652931e-002
1.781978e+003;2.592853e-002
1.783907e+003;2.532957e-002
1.785835e+003;2.495201e-002
1.787764e+003;2.468739e-002
1.789693e+003;2.418120e-002
1.791621e+003;2.339137e-002
1.793550e+003;2.314971e-002
1.795478e+003;2.314083e-002
1.797407e+003;2.256441e-002
1.799335e+003;2.191751e-002
1.801264e+003;2.149033e-002
1.803192e+003;2.106235e-002
1.805121e+003;2.084326e-002
1.807049e+003;2.086112e-002
1.808978e+003;2.072125e-002
1.810907e+003;2.046186e-002
1.812835e+003;2.036251e-002
1.814764e+003;2.031365e-002
1.816692e+003;2.032653e-002
1.818621e+003;2.034063e-002
1.820549e+003;2.010850e-002
1.822478e+003;1.997265e-002
1.824406e+003;2.009715e-002
1.826335e+003;2.000645e-002
1.828264e+003;1.992717e-002
1.830192e+003;2.010159e-002
1.832121e+003;1.990119e-002
1.834049e+003;1.965942e-002
1.835978e+003;1.968050e-002
1.837906e+003;1.968240e-002
1.839835e+003;1.942543e-002
1.841763e+003;1.909891e-002
1.843692e+003;1.876309e-002
1.845620e+003;1.861770e-002
1.847549e+003;1.868594e-002
1.849478e+003;1.871002e-002
1.851406e+003;1.863572e-002
1.853335e+003;1.857361e-002
1.855263e+003;1.864932e-002
1.857192e+003;1.870462e-002
1.859120e+003;1.856704e-002
1.861049e+003;1.835680e-002
1.862977e+003;1.813837e-002
1.864906e+003;1.798239e-002
1.866834e+003;1.794651e-002
1.868763e+003;1.813796e-002
1.870692e+003;1.806061e-002
1.872620e+003;1.784358e-002
1.874549e+003;1.784451e-002
1.876477e+003;1.781589e-002
1.878406e+003;1.785949e-002
1.880334e+003;1.797721e-002
1.882263e+003;1.805453e-002
1.884191e+003;1.819590e-002
1.886120e+003;1.816770e-002
1.888048e+003;1.797769e-002
1.889977e+003;1.818190e-002
1.891906e+003;1.839624e-002
1.893834e+003;1.834633e-002
1.895763e+003;1.831888e-002
1.897691e+003;1.818221e-002
1.899620e+003;1.795911e-002
1.901548e+003;1.794164e-002
1.903477e+003;1.802656e-002
1.905405e+003;1.784037e-002
1.907334e+003;1.757179e-002
1.909262e+003;1.733899e-002
1.911191e+003;1.732069e-002
1.913120e+003;1.743473e-002
1.915048e+003;1.722611e-002
1.916977e+003;1.722446e-002
1.918905e+003;1.754954e-002
1.920834e+003;1.742359e-002
1.922762e+003;1.714393e-002
1.924691e+003;1.721108e-002
1.926619e+003;1.729531e-002
1.928548e+003;1.713207e-002
1.930477e+003;1.688078e-002
1.932405e+003;1.661338e-002
1.934334e+003;1.646599e-002
1.936262e+003;1.644252e-002
1.938191e+003;1.627145e-002
1.940119e+003;1.593661e-002
1.942048e+003;1.560985e-002
1.943976e+003;1.569953e-002
1.945905e+003;1.587714e-002
1.947833e+003;1.594420e-002
1.949762e+003;1.591457e-002
1.951691e+003;1.600477e-002
1.953619e+003;1.601233e-002
1.955548e+003;1.598005e-002
1.957476e+003;1.608172e-002
1.959405e+003;1.603953e-002
1.961333e+003;1.585426e-002
1.963262e+003;1.554270e-002
1.965190e+003;1.550373e-002
1.967119e+003;1.555407e-002
1.969047e+003;1.562863e-002
1.970976e+003;1.568483e-002
1.972905e+003;1.562022e-002
1.974833e+003;1.560696e-002
1.976762e+003;1.561393e-002
1.978690e+003;1.560892e-002
1.980619e+003;1.538009e-002
1.982547e+003;1.532761e-002
1.984476e+003;1.562022e-002
1.986404e+003;1.587567e-002
1.988333e+003;1.593654e-002
1.990261e+003;1.585103e-002
1.992190e+003;1.562623e-002
1.994119e+003;1.547482e-002
1.996047e+003;1.534824e-002
1.997976e+003;1.541446e-002
1.999904e+003;1.580831e-002
2.001833e+003;1.574059e-002
2.003761e+003;1.557993e-002
2.005690e+003;1.566243e-002
2.007618e+003;1.568882e-002
2.009547e+003;1.552969e-002
2.011476e+003;1.562218e-002
2.013404e+003;1.586312e-002
2.015333e+003;1.586292e-002
2.017261e+003;1.576636e-002
2.019190e+003;1.572461e-002
2.021118e+003;1.583309e-002
2.023047e+003;1.568782e-002
2.024975e+003;1.545215e-002
2.026904e+003;1.537199e-002
2.028833e+003;1.525454e-002
2.030761e+003;1.522183e-002
2.032690e+003;1.526936e-002
2.034618e+003;1.507114e-002
2.036547e+003;1.508740e-002
2.038475e+003;1.521277e-002
2.040404e+003;1.520667e-002
2.042332e+003;1.532740e-002
2.044261e+003;1.550047e-002
2.046189e+003;1.550077e-002
2.048118e+003;1.549452e-002
2.050047e+003;1.546496e-002
2.051975e+003;1.525739e-002
2.053904e+003;1.510449e-002
2.055832e+003;1.509492e-002
2.057761e+003;1.513904e-002
2.059689e+003;1.524472e-002
2.061618e+003;1.527173e-002
2.063546e+003;1.529843e-002
2.065475e+003;1.519143e-002
2.067404e+003;1.509578e-002
2.069332e+003;1.513866e-002
2.071260e+003;1.513784e-002
2.073189e+003;1.520862e-002
2.075118e+003;1.534209e-002
2.077046e+003;1.546764e-002
2.078975e+003;1.557680e-002
2.080903e+003;1.558378e-002
2.082832e+003;1.551399e-002
2.084760e+003;1.548676e-002
2.086689e+003;1.546221e-002
2.088617e+003;1.554318e-002
2.090546e+003;1.556053e-002
2.092475e+003;1.549442e-002
2.094403e+003;1.565618e-002
2.096332e+003;1.558041e-002
2.098260e+003;1.535311e-002
2.100189e+003;1.553638e-002
2.102117e+003;1.585745e-002
2.104046e+003;1.599391e-002
2.105974e+003;1.604967e-002
2.107903e+003;1.597318e-002
2.109832e+003;1.583061e-002
2.111760e+003;1.592629e-002
2.113688e+003;1.613931e-002
2.115617e+003;1.602365e-002
2.117546e+003;1.579137e-002
2.119474e+003;1.570087e-002
2.121403e+003;1.600666e-002
2.123331e+003;1.652532e-002
2.125260e+003;1.674167e-002
2.127188e+003;1.696673e-002
2.129117e+003;1.730927e-002
2.131045e+003;1.754460e-002
2.132974e+003;1.750041e-002
2.134903e+003;1.743018e-002
2.136831e+003;1.737907e-002
2.138760e+003;1.700343e-002
2.140688e+003;1.655599e-002
2.142617e+003;1.658670e-002
2.144545e+003;1.678420e-002
2.146474e+003;1.696070e-002
2.148402e+003;1.687000e-002
2.150331e+003;1.678530e-002
2.152260e+003;1.700143e-002
2.154188e+003;1.707655e-002
2.156117e+003;1.699512e-002
2.158045e+003;1.685115e-002
2.159974e+003;1.699102e-002
2.161902e+003;1.728586e-002
2.163831e+003;1.748734e-002
2.165759e+003;1.765539e-002
2.167688e+003;1.749727e-002
2.169616e+003;1.746564e-002
2.171545e+003;1.776056e-002
2.173474e+003;1.806307e-002
2.175402e+003;1.810676e-002
2.177331e+003;1.809353e-002
2.179259e+003;1.801305e-002
2.181188e+003;1.798114e-002
2.183116e+003;1.803771e-002
2.185045e+003;1.801226e-002
2.186973e+003;1.792741e-002
2.188902e+003;1.780591e-002
2.190831e+003;1.772897e-002
2.192759e+003;1.783778e-002
2.194688e+003;1.793666e-002
2.196616e+003;1.819579e-002
2.198545e+003;1.843088e-002
2.200473e+003;1.831470e-002
2.202402e+003;1.796684e-002
2.204330e+003;1.777312e-002
2.206259e+003;1.762068e-002
2.208188e+003;1.748827e-002
2.210116e+003;1.743598e-002
2.212044e+003;1.745205e-002
2.213973e+003;1.746319e-002
2.215902e+003;1.750317e-002
2.217830e+003;1.761216e-002
2.219759e+003;1.770689e-002
2.221687e+003;1.764932e-002
2.223616e+003;1.750517e-002
2.225544e+003;1.774813e-002
2.227473e+003;1.782500e-002
2.229401e+003;1.769570e-002
2.231330e+003;1.763852e-002
2.233259e+003;1.759349e-002
2.235187e+003;1.739762e-002
2.237116e+003;1.732531e-002
2.239044e+003;1.754253e-002
2.240973e+003;1.767800e-002
2.242901e+003;1.786678e-002
2.244830e+003;1.771962e-002
2.246758e+003;1.757048e-002
2.248687e+003;1.791467e-002
2.250615e+003;1.815644e-002
2.252544e+003;1.821891e-002
2.254473e+003;1.843496e-002
2.256401e+003;1.856603e-002
2.258330e+003;1.861002e-002
2.260258e+003;1.835213e-002
2.262187e+003;1.813119e-002
2.264115e+003;1.856282e-002
2.266044e+003;1.867080e-002
2.267972e+003;1.849394e-002
2.269901e+003;1.822413e-002
2.271830e+003;1.796833e-002
2.273758e+003;1.794412e-002
2.275687e+003;1.778575e-002
2.277615e+003;1.768487e-002
2.279544e+003;1.774792e-002
2.281472e+003;1.770005e-002
2.283401e+003;1.752970e-002
2.285329e+003;1.752401e-002
2.287258e+003;1.745760e-002
2.289187e+003;1.740110e-002
2.291115e+003;1.721753e-002
2.293043e+003;1.738238e-002
2.294972e+003;1.784796e-002
2.296901e+003;1.766161e-002
2.298829e+003;1.741894e-002
2.300758e+003;1.744032e-002
2.302686e+003;1.733817e-002
2.304615e+003;1.743321e-002
2.306543e+003;1.757682e-002
2.308472e+003;1.765132e-002
2.310400e+003;1.764059e-002
2.312329e+003;1.740586e-002
2.314258e+003;1.741797e-002
2.316186e+003;1.770682e-002
2.318115e+003;1.777606e-002
2.320043e+003;1.779090e-002
2.321972e+003;1.786743e-002
2.323900e+003;1.805001e-002
2.325829e+003;1.836523e-002
2.327757e+003;1.850061e-002
2.329686e+003;1.847700e-002
2.331615e+003;1.868114e-002
2.333543e+003;1.880620e-002
2.335472e+003;1.894843e-002
2.337400e+003;1.911207e-002
2.339329e+003;1.917980e-002
2.341257e+003;1.938912e-002
2.343186e+003;1.959612e-002
2.345114e+003;1.966548e-002
2.347043e+003;1.970771e-002
2.348971e+003;1.998924e-002
2.350900e+003;1.980498e-002
2.352829e+003;1.943028e-002
2.354757e+003;1.965127e-002
2.356686e+003;1.998865e-002
2.358614e+003;2.004107e-002
2.360543e+003;2.013564e-002
2.362471e+003;2.042151e-002
2.364400e+003;2.041512e-002
2.366328e+003;2.015667e-002
2.368257e+003;2.014702e-002
2.370186e+003;2.023036e-002
2.372114e+003;2.016278e-002
2.374042e+003;2.018423e-002
2.375971e+003;2.028966e-002
2.377900e+003;2.019544e-002
2.379828e+003;2.019961e-002
2.381757e+003;2.046009e-002
2.383685e+003;2.057924e-002
2.385614e+003;2.038212e-002
2.387542e+003;2.011978e-002
2.389471e+003;2.006897e-002
2.391399e+003;2.025046e-002
2.393328e+003;2.068744e-002
2.395257e+003;2.113415e-002
2.397185e+003;2.111049e-002
2.399114e+003;2.096755e-002
2.401042e+003;2.104802e-002
2.402971e+003;2.106201e-002
2.404899e+003;2.101391e-002
2.406828e+003;2.111286e-002
2.408756e+003;2.110917e-002
2.410685e+003;2.106604e-002
2.412614e+003;2.131768e-002
2.414542e+003;2.122690e-002
2.416471e+003;2.088908e-002
2.418399e+003;2.091578e-002
2.420328e+003;2.125898e-002
2.422256e+003;2.189705e-002
2.424185e+003;2.248418e-002
2.426113e+003;2.229987e-002
2.428042e+003;2.181956e-002
2.429970e+003;2.177601e-002
2.431899e+003;2.202942e-002
2.433828e+003;2.196557e-002
2.435756e+003;2.146815e-002
2.437685e+003;2.102681e-002
2.439613e+003;2.084586e-002
2.441542e+003;2.080425e-002
2.443470e+003;2.100382e-002
2.445399e+003;2.120157e-002
2.447327e+003;2.123149e-002
2.449256e+003;2.111338e-002
2.451185e+003;2.093202e-002
2.453113e+003;2.099130e-002
2.455042e+003;2.112166e-002
2.456970e+003;2.095587e-002
2.458899e+003;2.080172e-002
2.460827e+003;2.053182e-002
2.462756e+003;2.027858e-002
2.464684e+003;2.038820e-002
2.466613e+003;2.070906e-002
2.468542e+003;2.083620e-002
2.470470e+003;2.056545e-002
2.472398e+003;2.042498e-002
2.474327e+003;2.046909e-002
2.476256e+003;2.075962e-002
2.478184e+003;2.135555e-002
2.480113e+003;2.181831e-002
2.482041e+003;2.190001e-002
2.483970e+003;2.193124e-002
2.485898e+003;2.157884e-002
2.487827e+003;2.123163e-002
2.489755e+003;2.158876e-002
2.491684e+003;2.200276e-002
2.493613e+003;2.211762e-002
2.495541e+003;2.175441e-002
2.497470e+003;2.131692e-002
2.499398e+003;2.151756e-002
2.501327e+003;2.161164e-002
2.503255e+003;2.137838e-002
2.505184e+003;2.120828e-002
2.507112e+003;2.126040e-002
2.509041e+003;2.165127e-002
2.510969e+003;2.189646e-002
2.512898e+003;2.193107e-002
2.514827e+003;2.232941e-002
2.516755e+003;2.285932e-002
2.518684e+003;2.309055e-002
2.520612e+003;2.339658e-002
2.522541e+003;2.373409e-002
2.524469e+003;2.376527e-002
2.526398e+003;2.396525e-002
2.528326e+003;2.451728e-002
2.530255e+003;2.462387e-002
2.532184e+003;2.436821e-002
2.534112e+003;2.448514e-002
2.536041e+003;2.476918e-002
2.537969e+003;2.513215e-002
2.539898e+003;2.546943e-002
2.541826e+003;2.546981e-002
2.543755e+003;2.566285e-002
2.545683e+003;2.613149e-002
2.547612e+003;2.644070e-002
2.549541e+003;2.669463e-002
2.551469e+003;2.695375e-002
2.553397e+003;2.743413e-002
2.555326e+003;2.776348e-002
2.557255e+003;2.793995e-002
2.559183e+003;2.825993e-002
2.561112e+003;2.851004e-002
2.563040e+003;2.886628e-002
2.564969e+003;2.931322e-002
2.566897e+003;2.991401e-002
2.568826e+003;3.069717e-002
2.570754e+003;3.115729e-002
2.572683e+003;3.149350e-002
2.574612e+003;3.191712e-002
2.576540e+003;3.249589e-002
2.578469e+003;3.312045e-002
2.580397e+003;3.362209e-002
2.582326e+003;3.390827e-002
2.584254e+003;3.368235e-002
2.586183e+003;3.315010e-002
2.588111e+003;3.256299e-002
2.590040e+003;3.177768e-002
2.591969e+003;3.135825e-002
2.593897e+003;3.110613e-002
2.595826e+003;3.101378e-002
2.597754e+003;3.102282e-002
2.599683e+003;3.091916e-002
2.601611e+003;3.088497e-002
2.603540e+003;3.124501e-002
2.605468e+003;3.171323e-002
2.607397e+003;3.229494e-002
2.609325e+003;3.265897e-002
2.611254e+003;3.289569e-002
2.613183e+003;3.305141e-002
2.615111e+003;3.320525e-002
2.617040e+003;3.330680e-002
2.618968e+003;3.318393e-002
2.620897e+003;3.305713e-002
2.622825e+003;3.301186e-002
2.624754e+003;3.290348e-002
2.626682e+003;3.257335e-002
2.628611e+003;3.237675e-002
2.630540e+003;3.216593e-002
2.632468e+003;3.223512e-002
2.634396e+003;3.256749e-002
2.636325e+003;3.271802e-002
2.638254e+003;3.269226e-002
2.640182e+003;3.272720e-002
2.642111e+003;3.297572e-002
2.644039e+003;3.358916e-002
2.645968e+003;3.391799e-002
2.647896e+003;3.419149e-002
2.649825e+003;3.459992e-002
2.651753e+003;3.471458e-002
2.653682e+003;3.487993e-002
2.655611e+003;3.554579e-002
2.657539e+003;3.607163e-002
2.659468e+003;3.619960e-002
2.661396e+003;3.624751e-002
2.663325e+003;3.635990e-002
2.665253e+003;3.662006e-002
2.667182e+003;3.678123e-002
2.669110e+003;3.702749e-002
2.671039e+003;3.689188e-002
2.672968e+003;3.670734e-002
2.674896e+003;3.710739e-002
2.676825e+003;3.748068e-002
2.678753e+003;3.753328e-002
2.680682e+003;3.747905e-002
2.682610e+003;3.720094e-002
2.684539e+003;3.701559e-002
2.686467e+003;3.701844e-002
2.688396e+003;3.722131e-002
2.690324e+003;3.750550e-002
2.692253e+003;3.740830e-002
2.694182e+003;3.736338e-002
2.696110e+003;3.756926e-002
2.698039e+003;3.790751e-002
2.699967e+003;3.842453e-002
2.701896e+003;3.899855e-002
2.703824e+003;3.971397e-002
2.705753e+003;4.054445e-002
2.707681e+003;4.139882e-002
2.709610e+003;4.214333e-002
2.711539e+003;4.266227e-002
2.713467e+003;4.388303e-002
2.715396e+003;4.566226e-002
2.717324e+003;4.728245e-002
2.719253e+003;4.874042e-002
2.721181e+003;5.013097e-002
2.723110e+003;5.088424e-002
2.725038e+003;5.062436e-002
2.726967e+003;4.955623e-002
2.728896e+003;4.822224e-002
2.730824e+003;4.663935e-002
2.732752e+003;4.532917e-002
2.734681e+003;4.470808e-002
2.736610e+003;4.401109e-002
2.738538e+003;4.289127e-002
2.740467e+003;4.215421e-002
2.742395e+003;4.161056e-002
2.744324e+003;4.081783e-002
2.746252e+003;4.012930e-002
2.748181e+003;3.976876e-002
2.750109e+003;3.963505e-002
2.752038e+003;3.993855e-002
2.753967e+003;4.017786e-002
2.755895e+003;4.027520e-002
2.757824e+003;4.046170e-002
2.759752e+003;4.096600e-002
2.761681e+003;4.135199e-002
2.763609e+003;4.177385e-002
2.765538e+003;4.214442e-002
2.767466e+003;4.255898e-002
2.769395e+003;4.303096e-002
2.771323e+003;4.323973e-002
2.773252e+003;4.366003e-002
2.775181e+003;4.397548e-002
2.777109e+003;4.425305e-002
2.779038e+003;4.525094e-002
2.780966e+003;4.664075e-002
2.782895e+003;4.789754e-002
2.784823e+003;4.928728e-002
2.786752e+003;5.078735e-002
2.788680e+003;5.267475e-002
2.790609e+003;5.435993e-002
2.792538e+003;5.577027e-002
2.794466e+003;5.739235e-002
2.796395e+003;5.902157e-002
2.798323e+003;6.067586e-002
2.800252e+003;6.237898e-002
2.802180e+003;6.406606e-002
2.804109e+003;6.598812e-002
2.806037e+003;6.829799e-002
2.807966e+003;7.035185e-002
2.809895e+003;7.189368e-002
2.811823e+003;7.353151e-002
2.813751e+003;7.555106e-002
2.815680e+003;7.761510e-002
2.817609e+003;7.949072e-002
2.819537e+003;8.167918e-002
2.821466e+003;8.442043e-002
2.823394e+003;8.775359e-002
2.825323e+003;9.221156e-002
2.827251e+003;9.798646e-002
2.829180e+003;1.050285e-001
2.831108e+003;1.128343e-001
2.833037e+003;1.206980e-001
2.834966e+003;1.274133e-001
2.836894e+003;1.315464e-001
2.838823e+003;1.327151e-001
2.840751e+003;1.316640e-001
2.842680e+003;1.289198e-001
2.844608e+003;1.253076e-001
2.846537e+003;1.217703e-001
2.848465e+003;1.192583e-001
2.850394e+003;1.171370e-001
2.852323e+003;1.151461e-001
2.854251e+003;1.142914e-001
2.856180e+003;1.145768e-001
2.858108e+003;1.165092e-001
2.860037e+003;1.204851e-001
2.861965e+003;1.262100e-001
2.863894e+003;1.328700e-001
2.865822e+003;1.379139e-001
2.867751e+003;1.398459e-001
2.869679e+003;1.405914e-001
2.871608e+003;1.406142e-001
2.873536e+003;1.402337e-001
2.875465e+003;1.398118e-001
2.877394e+003;1.391400e-001
2.879322e+003;1.383505e-001
2.881251e+003;1.375324e-001
2.883179e+003;1.371316e-001
2.885108e+003;1.368828e-001
2.887036e+003;1.374993e-001
2.888965e+003;1.389965e-001
2.890893e+003;1.405140e-001
2.892822e+003;1.429753e-001
2.894750e+003;1.464403e-001
2.896679e+003;1.504447e-001
2.898608e+003;1.548223e-001
2.900536e+003;1.591450e-001
2.902465e+003;1.632794e-001
2.904393e+003;1.677836e-001
2.906322e+003;1.726872e-001
2.908250e+003;1.775972e-001
2.910179e+003;1.816506e-001
2.912107e+003;1.849541e-001
2.914036e+003;1.886992e-001
2.915965e+003;1.922121e-001
2.917893e+003;1.938959e-001
2.919822e+003;1.929884e-001
2.921750e+003;1.894777e-001
2.923679e+003;1.844738e-001
2.925607e+003;1.779091e-001
2.927536e+003;1.704211e-001
2.929464e+003;1.623583e-001
2.931393e+003;1.541975e-001
2.933322e+003;1.461740e-001
2.935250e+003;1.391429e-001
2.937178e+003;1.341354e-001
2.939107e+003;1.315520e-001
2.941036e+003;1.317213e-001
2.942964e+003;1.350661e-001
2.944893e+003;1.407807e-001
2.946821e+003;1.480332e-001
2.948750e+003;1.549185e-001
2.950678e+003;1.593352e-001
2.952607e+003;1.603506e-001
2.954535e+003;1.586728e-001
2.956464e+003;1.551743e-001
2.958393e+003;1.499061e-001
2.960321e+003;1.443327e-001
2.962250e+003;1.391135e-001
2.964178e+003;1.333237e-001
2.966107e+003;1.267231e-001
2.968035e+003;1.202570e-001
2.969964e+003;1.138971e-001
2.971892e+003;1.076742e-001
2.973821e+003;1.021470e-001
2.975750e+003;9.731033e-002
2.977678e+003;9.270941e-002
2.979607e+003;8.828528e-002
2.981535e+003;8.485672e-002
2.983464e+003;8.157862e-002
2.985392e+003;7.818279e-002
2.987321e+003;7.551139e-002
2.989249e+003;7.315733e-002
2.991178e+003;7.094133e-002
2.993106e+003;6.858624e-002
2.995035e+003;6.634907e-002
2.996964e+003;6.444106e-002
2.998892e+003;6.215312e-002
3.000821e+003;5.962893e-002
3.002749e+003;5.758881e-002
3.004678e+003;5.602555e-002
3.006606e+003;5.429234e-002
3.008535e+003;5.238592e-002
3.010463e+003;5.080761e-002
3.012392e+003;4.932908e-002
3.014321e+003;4.797998e-002
3.016249e+003;4.687680e-002
3.018177e+003;4.586622e-002
3.020106e+003;4.504841e-002
3.022035e+003;4.382442e-002
3.023963e+003;4.255287e-002
3.025892e+003;4.182471e-002
3.027820e+003;4.159000e-002
3.029749e+003;4.111972e-002
3.031677e+003;4.027851e-002
3.033606e+003;3.967338e-002
3.035534e+003;3.926868e-002
3.037463e+003;3.871251e-002
3.039392e+003;3.826452e-002
3.041320e+003;3.782743e-002
3.043249e+003;3.711868e-002
3.045177e+003;3.725181e-002
3.047106e+003;3.760871e-002
3.049034e+003;3.722231e-002
3.050963e+003;3.668859e-002
3.052891e+003;3.655441e-002
3.054820e+003;3.646071e-002
3.056749e+003;3.633551e-002
3.058677e+003;3.615484e-002
3.060606e+003;3.591522e-002
3.062534e+003;3.573358e-002
3.064463e+003;3.550217e-002
3.066391e+003;3.533785e-002
3.068320e+003;3.522841e-002
3.070248e+003;3.553665e-002
3.072177e+003;3.568829e-002
3.074105e+003;3.518314e-002
3.076034e+003;3.471257e-002
3.077963e+003;3.450445e-002
3.079891e+003;3.436141e-002
3.081820e+003;3.433010e-002
3.083748e+003;3.475320e-002
3.085677e+003;3.493515e-002
3.087605e+003;3.473672e-002
3.089534e+003;3.446000e-002
3.091462e+003;3.419622e-002
3.093391e+003;3.403984e-002
3.095320e+003;3.391981e-002
3.097248e+003;3.380028e-002
3.099177e+003;3.386267e-002
3.101105e+003;3.414693e-002
3.103034e+003;3.411643e-002
3.104962e+003;3.387711e-002
3.106891e+003;3.400354e-002
3.108819e+003;3.447123e-002
3.110748e+003;3.477678e-002
3.112677e+003;3.492815e-002
3.114605e+003;3.479373e-002
3.116533e+003;3.466031e-002
3.118462e+003;3.428542e-002
3.120391e+003;3.412941e-002
3.122319e+003;3.469671e-002
3.124248e+003;3.514488e-002
3.126176e+003;3.500303e-002
3.128105e+003;3.495117e-002
3.130033e+003;3.537512e-002
3.131962e+003;3.546575e-002
3.133890e+003;3.548132e-002
3.135819e+003;3.569998e-002
3.137748e+003;3.592818e-002
3.139676e+003;3.624286e-002
3.141605e+003;3.662168e-002
3.143533e+003;3.628630e-002
3.145462e+003;3.614429e-002
3.147390e+003;3.689967e-002
3.149319e+003;3.738042e-002
3.151247e+003;3.710324e-002
3.153176e+003;3.664176e-002
3.155104e+003;3.669721e-002
3.157033e+003;3.699672e-002
3.158962e+003;3.710194e-002
3.160890e+003;3.703558e-002
3.162819e+003;3.675678e-002
3.164747e+003;3.688102e-002
3.166676e+003;3.723062e-002
3.168604e+003;3.739039e-002
3.170533e+003;3.755773e-002
3.172461e+003;3.773378e-002
3.174390e+003;3.797578e-002
3.176319e+003;3.822551e-002
3.178247e+003;3.815681e-002
3.180176e+003;3.778868e-002
3.182104e+003;3.791720e-002
3.184033e+003;3.817005e-002
3.185961e+003;3.818564e-002
3.187890e+003;3.831695e-002
3.189818e+003;3.914465e-002
3.191747e+003;3.956234e-002
3.193676e+003;3.954362e-002
3.195604e+003;3.976647e-002
3.197532e+003;3.972682e-002
3.199461e+003;3.951259e-002
3.201390e+003;3.932435e-002
3.203318e+003;3.932015e-002
3.205247e+003;3.926059e-002
3.207175e+003;3.910832e-002
3.209104e+003;3.943620e-002
3.211032e+003;3.943551e-002
3.212961e+003;3.891613e-002
3.214889e+003;3.857706e-002
3.216818e+003;3.885812e-002
3.218747e+003;3.927836e-002
3.220675e+003;3.920209e-002
3.222604e+003;3.876758e-002
3.224532e+003;3.889084e-002
3.226461e+003;3.926353e-002
3.228389e+003;3.899620e-002
3.230318e+003;3.851594e-002
3.232246e+003;3.847108e-002
3.234175e+003;3.864732e-002
3.236104e+003;3.844603e-002
3.238032e+003;3.831210e-002
3.239961e+003;3.828619e-002
3.241889e+003;3.839151e-002
3.243818e+003;3.891146e-002
3.245746e+003;3.908632e-002
3.247675e+003;3.859582e-002
3.249603e+003;3.826372e-002
3.251532e+003;3.856026e-002
3.253460e+003;3.886990e-002
3.255389e+003;3.847872e-002
3.257318e+003;3.880388e-002
3.259246e+003;3.939655e-002
3.261175e+003;3.936157e-002
3.263103e+003;3.906808e-002
3.265032e+003;3.923941e-002
3.266960e+003;3.944190e-002
3.268889e+003;3.924684e-002
3.270817e+003;3.913794e-002
3.272746e+003;3.908258e-002
3.274675e+003;3.915934e-002
3.276603e+003;3.928790e-002
3.278531e+003;3.965153e-002
3.280460e+003;3.993408e-002
3.282389e+003;3.983020e-002
3.284317e+003;3.976197e-002
3.286246e+003;3.953600e-002
3.288174e+003;3.934057e-002
3.290103e+003;3.912127e-002
3.292031e+003;3.899888e-002
3.293960e+003;3.907446e-002
3.295888e+003;3.918019e-002
3.297817e+003;3.974233e-002
3.299746e+003;4.041933e-002
3.301674e+003;3.993285e-002
3.303603e+003;3.953571e-002
3.305531e+003;4.002280e-002
3.307460e+003;3.991832e-002
3.309388e+003;3.932370e-002
3.311317e+003;3.908813e-002
3.313245e+003;3.930357e-002
3.315174e+003;3.921112e-002
3.317103e+003;3.910800e-002
3.319031e+003;3.906703e-002
3.320960e+003;3.865239e-002
3.322888e+003;3.830950e-002
3.324817e+003;3.859774e-002
3.326745e+003;3.895934e-002
3.328674e+003;3.871230e-002
3.330602e+003;3.811929e-002
3.332531e+003;3.798037e-002
3.334459e+003;3.823134e-002
3.336388e+003;3.858839e-002
3.338317e+003;3.855367e-002
3.340245e+003;3.847249e-002
3.342174e+003;3.809860e-002
3.344102e+003;3.773909e-002
3.346031e+003;3.786018e-002
3.347959e+003;3.742686e-002
3.349888e+003;3.706109e-002
3.351816e+003;3.745482e-002
3.353745e+003;3.769919e-002
3.355674e+003;3.737035e-002
3.357602e+003;3.699105e-002
3.359531e+003;3.692864e-002
3.361459e+003;3.668589e-002
3.363388e+003;3.647953e-002
3.365316e+003;3.660884e-002
3.367245e+003;3.667709e-002
3.369173e+003;3.649228e-002
3.371102e+003;3.647214e-002
3.373031e+003;3.624246e-002
3.374959e+003;3.593768e-002
3.376887e+003;3.592353e-002
3.378816e+003;3.565476e-002
3.380745e+003;3.549099e-002
3.382673e+003;3.507238e-002
3.384602e+003;3.457172e-002
3.386530e+003;3.440839e-002
3.388459e+003;3.425825e-002
3.390387e+003;3.428291e-002
3.392316e+003;3.436220e-002
3.394244e+003;3.418608e-002
3.396173e+003;3.423304e-002
3.398102e+003;3.428055e-002
3.400030e+003;3.380776e-002
3.401959e+003;3.375243e-002
3.403887e+003;3.387507e-002
3.405816e+003;3.367655e-002
3.407744e+003;3.386894e-002
3.409673e+003;3.400236e-002
3.411601e+003;3.357795e-002
3.413530e+003;3.321637e-002
3.415458e+003;3.304189e-002
3.417387e+003;3.315200e-002
3.419316e+003;3.320625e-002
3.421244e+003;3.276340e-002
3.423173e+003;3.267236e-002
3.425101e+003;3.264039e-002
3.427030e+003;3.226542e-002
3.428958e+003;3.176869e-002
3.430887e+003;3.141688e-002
3.432815e+003;3.095022e-002
3.434744e+003;3.076435e-002
3.436673e+003;3.062019e-002
3.438601e+003;3.015876e-002
3.440530e+003;2.944762e-002
3.442458e+003;2.955160e-002
3.444387e+003;2.970328e-002
3.446315e+003;2.952237e-002
3.448244e+003;2.954614e-002
3.450172e+003;2.939284e-002
3.452101e+003;2.919909e-002
3.454030e+003;2.912326e-002
3.455958e+003;2.881132e-002
3.457886e+003;2.853195e-002
3.459815e+003;2.812692e-002
3.461744e+003;2.813236e-002
3.463672e+003;2.819561e-002
3.465601e+003;2.805050e-002
3.467529e+003;2.766516e-002
3.469458e+003;2.720778e-002
3.471386e+003;2.707480e-002
3.473315e+003;2.721441e-002
3.475243e+003;2.712213e-002
3.477172e+003;2.654287e-002
3.479101e+003;2.610028e-002
3.481029e+003;2.621187e-002
3.482958e+003;2.598481e-002
3.484886e+003;2.585848e-002
3.486815e+003;2.573298e-002
3.488743e+003;2.537292e-002
3.490672e+003;2.483201e-002
3.492600e+003;2.455571e-002
3.494529e+003;2.464905e-002
3.496458e+003;2.458537e-002
3.498386e+003;2.441338e-002
3.500315e+003;2.437644e-002
3.502243e+003;2.441987e-002
3.504172e+003;2.435762e-002
3.506100e+003;2.444721e-002
3.508029e+003;2.413370e-002
3.509957e+003;2.327026e-002
3.511886e+003;2.281706e-002
3.513814e+003;2.288541e-002
3.515743e+003;2.318623e-002
3.517672e+003;2.324219e-002
3.519600e+003;2.284475e-002
3.521529e+003;2.294259e-002
3.523457e+003;2.301839e-002
3.525386e+003;2.245218e-002
3.527314e+003;2.183904e-002
3.529243e+003;2.164462e-002
3.531171e+003;2.172188e-002
3.533100e+003;2.204176e-002
3.535029e+003;2.195288e-002
3.536957e+003;2.144897e-002
3.538885e+003;2.115046e-002
3.540814e+003;2.093890e-002
3.542743e+003;2.082195e-002
3.544671e+003;2.075868e-002
3.546600e+003;2.054499e-002
3.548528e+003;2.039539e-002
3.550457e+003;2.013450e-002
3.552385e+003;1.975747e-002
3.554314e+003;1.954073e-002
3.556242e+003;1.941788e-002
3.558171e+003;1.935067e-002
3.560100e+003;1.875178e-002
3.562028e+003;1.796964e-002
3.563957e+003;1.835158e-002
3.565885e+003;1.829490e-002
3.567814e+003;1.812518e-002
3.569742e+003;1.844958e-002
3.571671e+003;1.811405e-002
3.573599e+003;1.766157e-002
3.575528e+003;1.754350e-002
3.577457e+003;1.742225e-002
3.579385e+003;1.708444e-002
3.581314e+003;1.655097e-002
3.583242e+003;1.631545e-002
3.585171e+003;1.622484e-002
3.587099e+003;1.588199e-002
3.589028e+003;1.543660e-002
3.590956e+003;1.553446e-002
3.592885e+003;1.596359e-002
3.594813e+003;1.624146e-002
3.596742e+003;1.625955e-002
3.598671e+003;1.583938e-002
3.600599e+003;1.510751e-002
3.602528e+003;1.490480e-002
3.604456e+003;1.493035e-002
3.606385e+003;1.458437e-002
3.608313e+003;1.420894e-002
3.610242e+003;1.459173e-002
3.612170e+003;1.495675e-002
3.614099e+003;1.487764e-002
3.616028e+003;1.471710e-002
3.617956e+003;1.457844e-002
3.619885e+003;1.416540e-002
3.621813e+003;1.370583e-002
3.623742e+003;1.381985e-002
3.625670e+003;1.380518e-002
3.627599e+003;1.346208e-002
3.629527e+003;1.355218e-002
3.631456e+003;1.394985e-002
3.633385e+003;1.408978e-002
3.635313e+003;1.404998e-002
3.637241e+003;1.382841e-002
3.639170e+003;1.317700e-002
3.641099e+003;1.275798e-002
3.643027e+003;1.296655e-002
3.644956e+003;1.302701e-002
3.646884e+003;1.245430e-002
3.648813e+003;1.207428e-002
3.650741e+003;1.231613e-002
3.652670e+003;1.274338e-002
3.654598e+003;1.235178e-002
3.656527e+003;1.196500e-002
3.658456e+003;1.236330e-002
3.660384e+003;1.257690e-002
3.662313e+003;1.218842e-002
3.664241e+003;1.192001e-002
3.666170e+003;1.191551e-002
3.668098e+003;1.160099e-002
3.670027e+003;1.159758e-002
3.671955e+003;1.236566e-002
3.673884e+003;1.253430e-002
3.675813e+003;1.260375e-002
3.677741e+003;1.295512e-002
3.679669e+003;1.268207e-002
3.681598e+003;1.249266e-002
3.683527e+003;1.274474e-002
3.685455e+003;1.303640e-002
3.687384e+003;1.270701e-002
3.689312e+003;1.263151e-002
3.691241e+003;1.302589e-002
3.693169e+003;1.293422e-002
3.695098e+003;1.268258e-002
3.697026e+003;1.286111e-002
3.698955e+003;1.311771e-002
3.700884e+003;1.288323e-002
3.702812e+003;1.311457e-002
3.704741e+003;1.319158e-002
3.706669e+003;1.291736e-002
3.708598e+003;1.285043e-002
3.710526e+003;1.325132e-002
3.712455e+003;1.313468e-002
3.714383e+003;1.271021e-002
3.716312e+003;1.258079e-002
3.718240e+003;1.248370e-002
3.720169e+003;1.214494e-002
3.722098e+003;1.213145e-002
3.724026e+003;1.271376e-002
3.725955e+003;1.291340e-002
3.727883e+003;1.266389e-002
3.729812e+003;1.302917e-002
3.731740e+003;1.295228e-002
3.733669e+003;1.215714e-002
3.735597e+003;1.237957e-002
3.737526e+003;1.327951e-002
3.739455e+003;1.324705e-002
3.741383e+003;1.301978e-002
3.743312e+003;1.293180e-002
3.745240e+003;1.281514e-002
3.747169e+003;1.274328e-002
3.749097e+003;1.256650e-002
3.751026e+003;1.249263e-002
3.752954e+003;1.263694e-002
3.754883e+003;1.289098e-002
3.756812e+003;1.298478e-002
3.758740e+003;1.313386e-002
3.760668e+003;1.358640e-002
3.762597e+003;1.389060e-002
3.764526e+003;1.406901e-002
3.766454e+003;1.426927e-002
3.768383e+003;1.368114e-002
3.770311e+003;1.340429e-002
3.772240e+003;1.390158e-002
3.774168e+003;1.415749e-002
3.776097e+003;1.399807e-002
3.778025e+003;1.358547e-002
3.779954e+003;1.295942e-002
3.781883e+003;1.297116e-002
3.783811e+003;1.314947e-002
3.785740e+003;1.311539e-002
3.787668e+003;1.323558e-002
3.789597e+003;1.319124e-002
3.791525e+003;1.284787e-002
3.793454e+003;1.308790e-002
3.795382e+003;1.378883e-002
3.797311e+003;1.391968e-002
3.799240e+003;1.333892e-002
3.801168e+003;1.293648e-002
3.803097e+003;1.291685e-002
3.805025e+003;1.298581e-002
3.806954e+003;1.326144e-002
3.808882e+003;1.361176e-002
3.810811e+003;1.362889e-002
3.812739e+003;1.359587e-002
3.814668e+003;1.291108e-002
3.816596e+003;1.231974e-002
3.818525e+003;1.265716e-002
3.820454e+003;1.308636e-002
3.822382e+003;1.402900e-002
3.824311e+003;1.465109e-002
3.826239e+003;1.424527e-002
3.828168e+003;1.347712e-002
3.830096e+003;1.302124e-002
3.832025e+003;1.359125e-002
3.833953e+003;1.410567e-002
3.835882e+003;1.377282e-002
3.837811e+003;1.312286e-002
3.839739e+003;1.334435e-002
3.841667e+003;1.379615e-002
3.843596e+003;1.397186e-002
3.845525e+003;1.407397e-002
3.847453e+003;1.414736e-002
3.849382e+003;1.423603e-002
3.851310e+003;1.383408e-002
3.853239e+003;1.352360e-002
3.855167e+003;1.392286e-002
3.857096e+003;1.431598e-002
3.859024e+003;1.418820e-002
3.860953e+003;1.419032e-002
3.862882e+003;1.456391e-002
3.864810e+003;1.475984e-002
3.866739e+003;1.516604e-002
3.868667e+003;1.538552e-002
3.870596e+003;1.535352e-002
3.872524e+003;1.513513e-002
3.874453e+003;1.443705e-002
3.876381e+003;1.450625e-002
3.878310e+003;1.469513e-002
3.880239e+003;1.444596e-002
3.882167e+003;1.438759e-002
3.884096e+003;1.471641e-002
3.886024e+003;1.496718e-002
3.887953e+003;1.489671e-002
3.889881e+003;1.492448e-002
3.891810e+003;1.499194e-002
3.893738e+003;1.494657e-002
3.895667e+003;1.500436e-002
3.897595e+003;1.460051e-002
3.899524e+003;1.449296e-002
3.901453e+003;1.458862e-002
3.903381e+003;1.461257e-002
3.905310e+003;1.443318e-002
3.907238e+003;1.425041e-002
3.909167e+003;1.471658e-002
3.911095e+003;1.544790e-002
3.913024e+003;1.578130e-002
3.914952e+003;1.578635e-002
3.916881e+003;1.528549e-002
3.918810e+003;1.478617e-002
3.920738e+003;1.502895e-002
3.922667e+003;1.498165e-002
3.924595e+003;1.489352e-002
3.926524e+003;1.524544e-002
3.928452e+003;1.570757e-002
3.930381e+003;1.550369e-002
3.932309e+003;1.497521e-002
3.934238e+003;1.477685e-002
3.936167e+003;1.483328e-002
3.938095e+003;1.486821e-002
3.940023e+003;1.515520e-002
3.941952e+003;1.570513e-002
3.943881e+003;1.586522e-002
3.945809e+003;1.523631e-002
3.947738e+003;1.469321e-002
3.949666e+003;1.484308e-002
3.951595e+003;1.534405e-002
3.953523e+003;1.512665e-002
3.955452e+003;1.493631e-002
3.957380e+003;1.535370e-002
3.959309e+003;1.560802e-002
3.961238e+003;1.601711e-002
3.963166e+003;1.647518e-002
3.965095e+003;1.672541e-002
3.967023e+003;1.661107e-002
3.968952e+003;1.608343e-002
3.970880e+003;1.535277e-002
3.972809e+003;1.525745e-002
3.974737e+003;1.575547e-002
3.976666e+003;1.593712e-002
3.978594e+003;1.564464e-002
3.980523e+003;1.576735e-002
3.982452e+003;1.655744e-002
3.984380e+003;1.655079e-002
3.986309e+003;1.643350e-002
3.988237e+003;1.667425e-002
3.990166e+003;1.645381e-002
3.992094e+003;1.637150e-002
3.994023e+003;1.716151e-002
3.995951e+003;1.735113e-002
3.997880e+003;1.691540e-002
3.999809e+003;1.702979e-002
4.001737e+003;0.000000e+000
