3.992094e+002;0.000000e+000
4.011380e+002;0.000000e+000
4.030665e+002;0.000000e+000
4.049951e+002;0.000000e+000
4.069236e+002;0.000000e+000
4.088522e+002;0.000000e+000
4.107807e+002;0.000000e+000
4.127093e+002;0.000000e+000
4.146378e+002;0.000000e+000
4.165664e+002;0.000000e+000
4.184949e+002;0.000000e+000
4.204235e+002;0.000000e+000
4.223520e+002;0.000000e+000
4.242806e+002;0.000000e+000
4.262091e+002;0.000000e+000
4.281377e+002;0.000000e+000
4.300662e+002;0.000000e+000
4.319948e+002;0.000000e+000
4.339233e+002;0.000000e+000
4.358519e+002;0.000000e+000
4.377804e+002;0.000000e+000
4.397090e+002;0.000000e+000
4.416375e+002;0.000000e+000
4.435660e+002;0.000000e+000
4.454946e+002;0.000000e+000
4.474232e+002;0.000000e+000
4.493517e+002;0.000000e+000
4.512802e+002;0.000000e+000
4.532088e+002;0.000000e+000
4.551373e+002;0.000000e+000
4.570659e+002;0.000000e+000
4.589944e+002;0.000000e+000
4.609230e+002;0.000000e+000
4.628515e+002;0.000000e+000
4.647801e+002;0.000000e+000
4.667086e+002;0.000000e+000
4.686372e+002;0.000000e+000
4.705657e+002;0.000000e+000
4.724943e+002;0.000000e+000
4.744228e+002;0.000000e+000
4.763513e+002;0.000000e+000
4.782799e+002;0.000000e+000
4.802085e+002;0.000000e+000
4.821370e+002;0.000000e+000
4.840656e+002;0.000000e+000
4.859941e+002;0.000000e+000
4.879226e+002;0.000000e+000
4.898512e+002;0.000000e+000
4.917798e+002;0.000000e+000
4.937083e+002;0.000000e+000
4.956368e+002;0.000000e+000
4.975654e+002;0.000000e+000
4.994939e+002;0.000000e+000
5.014225e+002;0.000000e+000
5.033510e+002;0.000000e+000
5.052796e+002;0.000000e+000
5.072081e+002;0.000000e+000
5.091367e+002;0.000000e+000
5.110652e+002;0.000000e+000
5.129938e+002;0.000000e+000
5.149223e+002;0.000000e+000
5.168509e+002;0.000000e+000
5.187794e+002;0.000000e+000
5.207079e+002;0.000000e+000
5.226365e+002;0.000000e+000
5.245651e+002;0.000000e+000
5.264936e+002;0.000000e+000
5.284222e+002;0.000000e+000
5.303507e+002;0.000000e+000
5.322792e+002;0.000000e+000
5.342078e+002;0.000000e+000
5.361364e+002;0.000000e+000
5.380649e+002;0.000000e+000
5.399935e+002;0.000000e+000
5.419220e+002;0.000000e+000
5.438505e+002;0.000000e+000
5.457791e+002;0.000000e+000
5.477076e+002;0.000000e+000
5.496362e+002;0.000000e+000
5.515648e+002;0.000000e+000
5.534933e+002;0.000000e+000
5.554218e+002;0.000000e+000
5.573504e+002;0.000000e+000
5.592789e+002;0.000000e+000
5.612075e+002;0.000000e+000
5.631360e+002;0.000000e+000
5.650646e+002;0.000000e+000
5.669931e+002;0.000000e+000
5.689217e+002;0.000000e+000
5.708502e+002;0.000000e+000
5.727787e+002;0.000000e+000
5.747073e+002;0.000000e+000
5.766359e+002;0.000000e+000
5.785644e+002;0.000000e+000
5.804930e+002;0.000000e+000
5.824215e+002;0.000000e+000
5.843500e+002;0.000000e+000
5.862786e+002;0.000000e+000
5.882072e+002;0.000000e+000
5.901357e+002;0.000000e+000
5.920643e+002;0.000000e+000
5.939928e+002;0.000000e+000
5.959213e+002;0.000000e+000
5.978499e+002;0.000000e+000
5.997784e+002;3.673251e-002
6.017070e+002;3.446352e-002
6.036355e+002;3.408030e-002
6.055641e+002;3.543372e-002
6.074926e+002;4.092263e-002
6.094211e+002;4.117760e-002
6.113497e+002;3.521458e-002
6.132783e+002;3.280231e-002
6.152068e+002;3.620119e-002
6.171354e+002;3.830136e-002
6.190639e+002;3.764015e-002
6.209924e+002;3.546151e-002
6.229210e+002;3.581899e-002
6.248495e+002;3.910198e-002
6.267781e+002;4.083730e-002
6.287067e+002;4.107058e-002
6.306352e+002;3.967821e-002
6.325637e+002;3.675155e-002
6.344923e+002;3.498108e-002
6.364208e+002;3.354473e-002
6.383494e+002;3.445889e-002
6.402780e+002;3.894995e-002
6.422065e+002;4.129456e-002
6.441350e+002;3.899920e-002
6.460636e+002;3.676990e-002
6.479921e+002;3.399777e-002
6.499207e+002;3.421487e-002
6.518492e+002;3.618696e-002
6.537778e+002;3.691338e-002
6.557063e+002;3.647628e-002
6.576349e+002;3.450954e-002
6.595634e+002;3.453448e-002
6.614919e+002;3.584616e-002
6.634205e+002;3.697958e-002
6.653491e+002;3.647664e-002
6.672776e+002;3.544953e-002
6.692062e+002;3.441926e-002
6.711347e+002;3.312904e-002
6.730632e+002;3.339646e-002
6.749918e+002;3.232089e-002
6.769203e+002;3.183847e-002
6.788489e+002;3.492603e-002
6.807775e+002;3.603487e-002
6.827060e+002;3.406393e-002
6.846345e+002;3.271638e-002
6.865631e+002;3.277226e-002
6.884916e+002;3.306149e-002
6.904202e+002;3.266418e-002
6.923488e+002;3.229090e-002
6.942773e+002;3.183262e-002
6.962058e+002;3.192012e-002
6.981344e+002;3.284058e-002
7.000629e+002;3.309632e-002
7.019915e+002;3.253057e-002
7.039200e+002;3.188047e-002
7.058486e+002;3.075208e-002
7.077771e+002;3.076979e-002
7.097057e+002;3.160107e-002
7.116342e+002;3.191064e-002
7.135627e+002;3.214655e-002
7.154913e+002;3.155429e-002
7.174199e+002;3.157570e-002
7.193484e+002;3.275075e-002
7.212770e+002;3.335388e-002
7.232055e+002;3.288200e-002
7.251340e+002;3.260882e-002
7.270626e+002;3.327775e-002
7.289911e+002;3.361780e-002
7.309197e+002;3.328505e-002
7.328483e+002;3.190689e-002
7.347768e+002;3.086434e-002
7.367053e+002;3.032298e-002
7.386339e+002;3.038047e-002
7.405624e+002;3.087665e-002
7.424910e+002;3.059729e-002
7.444196e+002;3.067235e-002
7.463481e+002;3.071584e-002
7.482766e+002;3.030604e-002
7.502052e+002;3.010652e-002
7.521337e+002;3.031435e-002
7.540623e+002;3.015290e-002
7.559908e+002;2.884078e-002
7.579194e+002;2.831467e-002
7.598479e+002;2.904999e-002
7.617765e+002;2.954216e-002
7.637050e+002;2.951670e-002
7.656335e+002;2.988611e-002
7.675621e+002;3.008290e-002
7.694907e+002;3.026632e-002
7.714192e+002;2.995771e-002
7.733478e+002;2.960845e-002
7.752763e+002;2.932428e-002
7.772048e+002;2.896827e-002
7.791334e+002;2.874027e-002
7.810620e+002;2.945425e-002
7.829905e+002;3.060579e-002
7.849191e+002;3.054485e-002
7.868476e+002;3.154744e-002
7.887761e+002;3.268637e-002
7.907047e+002;3.299274e-002
7.926332e+002;3.405633e-002
7.945618e+002;3.567843e-002
7.964903e+002;3.748552e-002
7.984189e+002;3.821842e-002
8.003474e+002;3.919252e-002
8.022759e+002;4.146811e-002
8.042045e+002;4.400687e-002
8.061331e+002;4.605838e-002
8.080616e+002;4.789185e-002
8.099902e+002;4.833385e-002
8.119187e+002;4.785470e-002
8.138472e+002;4.531880e-002
8.157758e+002;4.184360e-002
8.177043e+002;3.955828e-002
8.196329e+002;3.810953e-002
8.215615e+002;3.692976e-002
8.234900e+002;3.676244e-002
8.254185e+002;3.697085e-002
8.273471e+002;3.655899e-002
8.292756e+002;3.619240e-002
8.312042e+002;3.717427e-002
8.331328e+002;3.924909e-002
8.350613e+002;4.144373e-002
8.369898e+002;4.419902e-002
8.389184e+002;4.958078e-002
8.408469e+002;5.442945e-002
8.427755e+002;5.333387e-002
8.447040e+002;4.828045e-002
8.466326e+002;4.347588e-002
8.485611e+002;3.955432e-002
8.504897e+002;3.678004e-002
8.524182e+002;3.580517e-002
8.543467e+002;3.538353e-002
8.562753e+002;3.424401e-002
8.582039e+002;3.307272e-002
8.601324e+002;3.265350e-002
8.620610e+002;3.297064e-002
8.639895e+002;3.301276e-002
8.659180e+002;3.279312e-002
8.678466e+002;3.244590e-002
8.697751e+002;3.258660e-002
8.717037e+002;3.296843e-002
8.736323e+002;3.299592e-002
8.755608e+002;3.298352e-002
8.774893e+002;3.261432e-002
8.794179e+002;3.183657e-002
8.813464e+002;3.146757e-002
8.832750e+002;3.144480e-002
8.852036e+002;3.144331e-002
8.871321e+002;3.157656e-002
8.890606e+002;3.239838e-002
8.909892e+002;3.423817e-002
8.929177e+002;3.702793e-002
8.948463e+002;4.092082e-002
8.967748e+002;4.559130e-002
8.987034e+002;4.873186e-002
9.006319e+002;4.829238e-002
9.025605e+002;4.423449e-002
9.044890e+002;3.916547e-002
9.064175e+002;3.519712e-002
9.083461e+002;3.256728e-002
9.102747e+002;3.081973e-002
9.122032e+002;2.947460e-002
9.141318e+002;2.846755e-002
9.160603e+002;2.819625e-002
9.179888e+002;2.802671e-002
9.199174e+002;2.794751e-002
9.218459e+002;2.812992e-002
9.237745e+002;2.843575e-002
9.257031e+002;2.852144e-002
9.276316e+002;2.865797e-002
9.295601e+002;2.901255e-002
9.314887e+002;2.972762e-002
9.334172e+002;3.079928e-002
9.353458e+002;3.192508e-002
9.372744e+002;3.313011e-002
9.392029e+002;3.467036e-002
9.411314e+002;3.573922e-002
9.430600e+002;3.572214e-002
9.449885e+002;3.566422e-002
9.469171e+002;3.579244e-002
9.488456e+002;3.595712e-002
9.507742e+002;3.663339e-002
9.527027e+002;3.772153e-002
9.546313e+002;3.880870e-002
9.565598e+002;3.961893e-002
9.584883e+002;4.082405e-002
9.604169e+002;4.300850e-002
9.623455e+002;4.574755e-002
9.642740e+002;4.865599e-002
9.662026e+002;5.295300e-002
9.681311e+002;5.958348e-002
9.700596e+002;6.760556e-002
9.719882e+002;7.475530e-002
9.739167e+002;7.723596e-002
9.758453e+002;7.309177e-002
9.777739e+002;6.520337e-002
9.797024e+002;5.671655e-002
9.816309e+002;4.993146e-002
9.835595e+002;4.515296e-002
9.854880e+002;4.257889e-002
9.874166e+002;4.259563e-002
9.893452e+002;4.428329e-002
9.912737e+002;4.773382e-002
9.932022e+002;5.319670e-002
9.951307e+002;5.963684e-002
9.970593e+002;6.445950e-002
9.989879e+002;6.476848e-002
1.000916e+003;6.044933e-002
1.002845e+003;5.441919e-002
1.004773e+003;4.952559e-002
1.006702e+003;4.631122e-002
1.008631e+003;4.465296e-002
1.010559e+003;4.330229e-002
1.012488e+003;4.189264e-002
1.014416e+003;4.089992e-002
1.016345e+003;4.031039e-002
1.018273e+003;4.040446e-002
1.020202e+003;4.097044e-002
1.022130e+003;4.108017e-002
1.024059e+003;4.106654e-002
1.025988e+003;4.135228e-002
1.027916e+003;4.128388e-002
1.029845e+003;4.149228e-002
1.031773e+003;4.300041e-002
1.033702e+003;4.479631e-002
1.035630e+003;4.577656e-002
1.037559e+003;4.656646e-002
1.039487e+003;4.738724e-002
1.041416e+003;4.800219e-002
1.043344e+003;4.827268e-002
1.045273e+003;4.769976e-002
1.047202e+003;4.646017e-002
1.049130e+003;4.543231e-002
1.051059e+003;4.472218e-002
1.052987e+003;4.422902e-002
1.054916e+003;4.394667e-002
1.056844e+003;4.350280e-002
1.058773e+003;4.313982e-002
1.060701e+003;4.295286e-002
1.062630e+003;4.275432e-002
1.064558e+003;4.267605e-002
1.066487e+003;4.319489e-002
1.068416e+003;4.302339e-002
1.070344e+003;4.285477e-002
1.072273e+003;4.327538e-002
1.074201e+003;4.352159e-002
1.076130e+003;4.329804e-002
1.078058e+003;4.354749e-002
1.079987e+003;4.426670e-002
1.081915e+003;4.490535e-002
1.083844e+003;4.492059e-002
1.085773e+003;4.532865e-002
1.087701e+003;4.594769e-002
1.089630e+003;4.711476e-002
1.091558e+003;4.761764e-002
1.093487e+003;4.786088e-002
1.095415e+003;4.944361e-002
1.097344e+003;5.095730e-002
1.099272e+003;5.204909e-002
1.101201e+003;5.294356e-002
1.103129e+003;5.279136e-002
1.105058e+003;5.235885e-002
1.106987e+003;5.118967e-002
1.108915e+003;4.900856e-002
1.110844e+003;4.746352e-002
1.112772e+003;4.611132e-002
1.114701e+003;4.502044e-002
1.116629e+003;4.482206e-002
1.118558e+003;4.490028e-002
1.120486e+003;4.411212e-002
1.122415e+003;4.318897e-002
1.124344e+003;4.301384e-002
1.126272e+003;4.305551e-002
1.128201e+003;4.314772e-002
1.130129e+003;4.351811e-002
1.132058e+003;4.405634e-002
1.133986e+003;4.489138e-002
1.135915e+003;4.646537e-002
1.137843e+003;4.835726e-002
1.139772e+003;5.100879e-002
1.141700e+003;5.454920e-002
1.143629e+003;5.816572e-002
1.145557e+003;6.134320e-002
1.147486e+003;6.432373e-002
1.149415e+003;6.728249e-002
1.151343e+003;7.021722e-002
1.153272e+003;7.218210e-002
1.155200e+003;7.286772e-002
1.157129e+003;7.317035e-002
1.159057e+003;7.345863e-002
1.160986e+003;7.375519e-002
1.162914e+003;7.453448e-002
1.164843e+003;7.533838e-002
1.166771e+003;7.493630e-002
1.168700e+003;7.297146e-002
1.170629e+003;6.950773e-002
1.172557e+003;6.499732e-002
1.174486e+003;6.001164e-002
1.176414e+003;5.542867e-002
1.178343e+003;5.219401e-002
1.180271e+003;5.021644e-002
1.182200e+003;4.876904e-002
1.184128e+003;4.738074e-002
1.186057e+003;4.643554e-002
1.187986e+003;4.603878e-002
1.189914e+003;4.573400e-002
1.191843e+003;4.549827e-002
1.193771e+003;4.540612e-002
1.195700e+003;4.532358e-002
1.197628e+003;4.535731e-002
1.199557e+003;4.495815e-002
1.201485e+003;4.453212e-002
1.203414e+003;4.427110e-002
1.205343e+003;4.403749e-002
1.207271e+003;4.438981e-002
1.209200e+003;4.526584e-002
1.211128e+003;4.631151e-002
1.213057e+003;4.752529e-002
1.214985e+003;4.845434e-002
1.216914e+003;4.828001e-002
1.218842e+003;4.763420e-002
1.220771e+003;4.688603e-002
1.222699e+003;4.587635e-002
1.224628e+003;4.515950e-002
1.226557e+003;4.478330e-002
1.228485e+003;4.455235e-002
1.230414e+003;4.446028e-002
1.232342e+003;4.392716e-002
1.234271e+003;4.403173e-002
1.236199e+003;4.498770e-002
1.238128e+003;4.523146e-002
1.240056e+003;4.509884e-002
1.241985e+003;4.508462e-002
1.243913e+003;4.538202e-002
1.245842e+003;4.596621e-002
1.247771e+003;4.638130e-002
1.249699e+003;4.719376e-002
1.251628e+003;4.936579e-002
1.253556e+003;5.196181e-002
1.255485e+003;5.349188e-002
1.257413e+003;5.338535e-002
1.259342e+003;5.147953e-002
1.261270e+003;4.907310e-002
1.263199e+003;4.721836e-002
1.265127e+003;4.643189e-002
1.267056e+003;4.554508e-002
1.268985e+003;4.440508e-002
1.270913e+003;4.365724e-002
1.272842e+003;4.323358e-002
1.274770e+003;4.331565e-002
1.276699e+003;4.340795e-002
1.278627e+003;4.307783e-002
1.280556e+003;4.281860e-002
1.282484e+003;4.310634e-002
1.284413e+003;4.359012e-002
1.286342e+003;4.423566e-002
1.288270e+003;4.515623e-002
1.290199e+003;4.591524e-002
1.292127e+003;4.665399e-002
1.294056e+003;4.762958e-002
1.295984e+003;4.821621e-002
1.297913e+003;4.794031e-002
1.299841e+003;4.749172e-002
1.301770e+003;4.779467e-002
1.303698e+003;4.824242e-002
1.305627e+003;4.719054e-002
1.307556e+003;4.500908e-002
1.309484e+003;4.305873e-002
1.311413e+003;4.184718e-002
1.313341e+003;4.152597e-002
1.315270e+003;4.211598e-002
1.317198e+003;4.314520e-002
1.319127e+003;4.444031e-002
1.321055e+003;4.585028e-002
1.322984e+003;4.722497e-002
1.324912e+003;4.896078e-002
1.326841e+003;5.078054e-002
1.328770e+003;5.179427e-002
1.330698e+003;5.187954e-002
1.332627e+003;5.155792e-002
1.334555e+003;5.068926e-002
1.336484e+003;4.950495e-002
1.338412e+003;4.888639e-002
1.340341e+003;4.933932e-002
1.342269e+003;5.096352e-002
1.344198e+003;5.296445e-002
1.346126e+003;5.526641e-002
1.348055e+003;5.793250e-002
1.349984e+003;6.144800e-002
1.351912e+003;6.616022e-002
1.353841e+003;7.197032e-002
1.355769e+003;7.857526e-002
1.357698e+003;8.403712e-002
1.359626e+003;8.586708e-002
1.361555e+003;8.484033e-002
1.363483e+003;8.437600e-002
1.365412e+003;8.661184e-002
1.367341e+003;9.353964e-002
1.369269e+003;1.079520e-001
1.371198e+003;1.294385e-001
1.373126e+003;1.540061e-001
1.375055e+003;1.734269e-001
1.376983e+003;1.749352e-001
1.378912e+003;1.559964e-001
1.380840e+003;1.292335e-001
1.382769e+003;1.045966e-001
1.384698e+003;8.561189e-002
1.386626e+003;7.164621e-002
1.388555e+003;6.279210e-002
1.390483e+003;5.777392e-002
1.392412e+003;5.394559e-002
1.394340e+003;5.078325e-002
1.396269e+003;4.950599e-002
1.398197e+003;4.885691e-002
1.400126e+003;4.889970e-002
1.402054e+003;4.949195e-002
1.403983e+003;4.960597e-002
1.405911e+003;4.982948e-002
1.407840e+003;5.051875e-002
1.409769e+003;5.112313e-002
1.411697e+003;5.174122e-002
1.413626e+003;5.229543e-002
1.415554e+003;5.244499e-002
1.417483e+003;5.153986e-002
1.419411e+003;5.137014e-002
1.421340e+003;5.378794e-002
1.423268e+003;5.590449e-002
1.425197e+003;5.811924e-002
1.427125e+003;6.183472e-002
1.429054e+003;6.723433e-002
1.430983e+003;7.509667e-002
1.432911e+003;8.433423e-002
1.434840e+003;9.027831e-002
1.436768e+003;9.222639e-002
1.438697e+003;9.504823e-002
1.440625e+003;9.895418e-002
1.442554e+003;1.038525e-001
1.444482e+003;1.107870e-001
1.446411e+003;1.196859e-001
1.448340e+003;1.291499e-001
1.450268e+003;1.372383e-001
1.452197e+003;1.425787e-001
1.454125e+003;1.443034e-001
1.456054e+003;1.417718e-001
1.457982e+003;1.407135e-001
1.459911e+003;1.406280e-001
1.461839e+003;1.368015e-001
1.463768e+003;1.290704e-001
1.465697e+003;1.200101e-001
1.467625e+003;1.104494e-001
1.469554e+003;9.912919e-002
1.471482e+003;8.706189e-002
1.473411e+003;7.758895e-002
1.475339e+003;7.114952e-002
1.477268e+003;6.556717e-002
1.479196e+003;6.084495e-002
1.481125e+003;5.609345e-002
1.483053e+003;5.214928e-002
1.484982e+003;4.851903e-002
1.486911e+003;4.502096e-002
1.488839e+003;4.207465e-002
1.490768e+003;4.066876e-002
1.492696e+003;4.035577e-002
1.494625e+003;3.838829e-002
1.496553e+003;3.599599e-002
1.498482e+003;3.573707e-002
1.500410e+003;3.600096e-002
1.502339e+003;3.514218e-002
1.504267e+003;3.174684e-002
1.506196e+003;2.817051e-002
1.508125e+003;2.944634e-002
1.510053e+003;3.169648e-002
1.511982e+003;3.185618e-002
1.513910e+003;3.171872e-002
1.515839e+003;3.088099e-002
1.517767e+003;3.016444e-002
1.519696e+003;2.860237e-002
1.521624e+003;2.732565e-002
1.523553e+003;2.880675e-002
1.525481e+003;2.990553e-002
1.527410e+003;3.105211e-002
1.529339e+003;3.193817e-002
1.531267e+003;3.178238e-002
1.533196e+003;3.129664e-002
1.535124e+003;3.265618e-002
1.537053e+003;3.205844e-002
1.538981e+003;2.913694e-002
1.540910e+003;2.997308e-002
1.542838e+003;3.310854e-002
1.544767e+003;3.535769e-002
1.546695e+003;3.687056e-002
1.548624e+003;3.683237e-002
1.550553e+003;3.639823e-002
1.552481e+003;3.519776e-002
1.554410e+003;3.337453e-002
1.556338e+003;3.105015e-002
1.558267e+003;2.687765e-002
1.560195e+003;2.780301e-002
1.562124e+003;3.183354e-002
1.564052e+003;3.270819e-002
1.565981e+003;3.251521e-002
1.567910e+003;3.158254e-002
1.569838e+003;3.087715e-002
1.571767e+003;3.212001e-002
1.573695e+003;3.157566e-002
1.575624e+003;2.899455e-002
1.577552e+003;3.029946e-002
1.579481e+003;3.271130e-002
1.581409e+003;3.292786e-002
1.583338e+003;3.247222e-002
1.585266e+003;3.162299e-002
1.587195e+003;3.114874e-002
1.589124e+003;3.101655e-002
1.591052e+003;3.124423e-002
1.592981e+003;3.128176e-002
1.594909e+003;3.113967e-002
1.596838e+003;3.126954e-002
1.598766e+003;3.182784e-002
1.600695e+003;3.225461e-002
1.602623e+003;3.241577e-002
1.604552e+003;3.276818e-002
1.606480e+003;3.311770e-002
1.608409e+003;3.336262e-002
1.610338e+003;3.405403e-002
1.612266e+003;3.471063e-002
1.614195e+003;3.415937e-002
1.616123e+003;3.283418e-002
1.618052e+003;3.473102e-002
1.619980e+003;3.688333e-002
1.621909e+003;3.671311e-002
1.623837e+003;3.698669e-002
1.625766e+003;3.818123e-002
1.627694e+003;3.894625e-002
1.629623e+003;3.960916e-002
1.631552e+003;3.974044e-002
1.633480e+003;3.791406e-002
1.635409e+003;3.613809e-002
1.637337e+003;3.829984e-002
1.639266e+003;4.076906e-002
1.641194e+003;4.152528e-002
1.643123e+003;4.134849e-002
1.645051e+003;4.008340e-002
1.646980e+003;4.016041e-002
1.648909e+003;4.190804e-002
1.650837e+003;3.946135e-002
1.652766e+003;3.491605e-002
1.654694e+003;3.828771e-002
1.656623e+003;4.276712e-002
1.658551e+003;4.341484e-002
1.660480e+003;4.281293e-002
1.662408e+003;4.200318e-002
1.664337e+003;4.228560e-002
1.666266e+003;4.210835e-002
1.668194e+003;4.021624e-002
1.670123e+003;3.950754e-002
1.672051e+003;4.000772e-002
1.673980e+003;3.896604e-002
1.675908e+003;3.858694e-002
1.677837e+003;3.964899e-002
1.679765e+003;3.935483e-002
1.681694e+003;3.736272e-002
1.683622e+003;3.356836e-002
1.685551e+003;3.442442e-002
1.687479e+003;3.745298e-002
1.689408e+003;3.801809e-002
1.691337e+003;3.823879e-002
1.693265e+003;3.710887e-002
1.695194e+003;3.437263e-002
1.697122e+003;3.494811e-002
1.699051e+003;3.456404e-002
1.700979e+003;3.528307e-002
1.702908e+003;3.895441e-002
1.704836e+003;3.995068e-002
1.706765e+003;4.087684e-002
1.708693e+003;4.197362e-002
1.710622e+003;4.265032e-002
1.712551e+003;4.192253e-002
1.714479e+003;4.014344e-002
1.716408e+003;3.810670e-002
1.718336e+003;3.883221e-002
1.720265e+003;4.155849e-002
1.722193e+003;4.265803e-002
1.724122e+003;4.272182e-002
1.726050e+003;4.309766e-002
1.727979e+003;4.333425e-002
1.729908e+003;4.362628e-002
1.731836e+003;4.282749e-002
1.733765e+003;4.160032e-002
1.735693e+003;4.460353e-002
1.737622e+003;4.717824e-002
1.739550e+003;4.688931e-002
1.741479e+003;4.685764e-002
1.743407e+003;4.597685e-002
1.745336e+003;4.387357e-002
1.747265e+003;4.078631e-002
1.749193e+003;3.713706e-002
1.751122e+003;3.372271e-002
1.753050e+003;3.198025e-002
1.754979e+003;2.948563e-002
1.756907e+003;2.648814e-002
1.758836e+003;2.414761e-002
1.760764e+003;2.139063e-002
1.762693e+003;1.998102e-002
1.764621e+003;1.975085e-002
1.766550e+003;1.820927e-002
1.768479e+003;1.661820e-002
1.770407e+003;1.521140e-002
1.772336e+003;1.392707e-002
1.774264e+003;1.479855e-002
1.776193e+003;1.572578e-002
1.778121e+003;1.547718e-002
1.780050e+003;1.478175e-002
1.781978e+003;1.430601e-002
1.783907e+003;1.365532e-002
1.785835e+003;1.317382e-002
1.787764e+003;1.279494e-002
1.789693e+003;1.148309e-002
1.791621e+003;9.842729e-003
1.793550e+003;9.741873e-003
1.795478e+003;1.041465e-002
1.797407e+003;1.014554e-002
1.799335e+003;9.489770e-003
1.801264e+003;8.989687e-003
1.803192e+003;8.892411e-003
1.805121e+003;8.753030e-003
1.807049e+003;8.323772e-003
1.808978e+003;7.952065e-003
1.810907e+003;7.998401e-003
1.812835e+003;8.185990e-003
1.814764e+003;8.194905e-003
1.816692e+003;8.043156e-003
1.818621e+003;8.079477e-003
1.820549e+003;7.994622e-003
1.822478e+003;7.496459e-003
1.824406e+003;6.855447e-003
1.826335e+003;7.056282e-003
1.828264e+003;6.882949e-003
1.830192e+003;6.856389e-003
1.832121e+003;7.651422e-003
1.834049e+003;7.991449e-003
1.835978e+003;8.096355e-003
1.837906e+003;8.056827e-003
1.839835e+003;7.813222e-003
1.841763e+003;7.067228e-003
1.843692e+003;5.955807e-003
1.845620e+003;6.435692e-003
1.847549e+003;7.196535e-003
1.849478e+003;7.275136e-003
1.851406e+003;7.162579e-003
1.853335e+003;7.392844e-003
1.855263e+003;7.448895e-003
1.857192e+003;7.347617e-003
1.859120e+003;7.255021e-003
1.861049e+003;7.111887e-003
1.862977e+003;7.026210e-003
1.864906e+003;6.735865e-003
1.866834e+003;6.031899e-003
1.868763e+003;5.631602e-003
1.870692e+003;6.349612e-003
1.872620e+003;6.908029e-003
1.874549e+003;6.869148e-003
1.876477e+003;6.975432e-003
1.878406e+003;6.919644e-003
1.880334e+003;6.657531e-003
1.882263e+003;6.642491e-003
1.884191e+003;6.813474e-003
1.886120e+003;6.753768e-003
1.888048e+003;6.521992e-003
1.889977e+003;6.695855e-003
1.891906e+003;7.256436e-003
1.893834e+003;7.289692e-003
1.895763e+003;7.162411e-003
1.897691e+003;7.173864e-003
1.899620e+003;7.113873e-003
1.901548e+003;6.963042e-003
1.903477e+003;6.945938e-003
1.905405e+003;6.722270e-003
1.907334e+003;6.662375e-003
1.909262e+003;6.882747e-003
1.911191e+003;6.843565e-003
1.913120e+003;6.673378e-003
1.915048e+003;6.729909e-003
1.916977e+003;6.534438e-003
1.918905e+003;6.559531e-003
1.920834e+003;6.586611e-003
1.922762e+003;6.411918e-003
1.924691e+003;6.633239e-003
1.926619e+003;6.657665e-003
1.928548e+003;6.349040e-003
1.930477e+003;6.112036e-003
1.932405e+003;5.903340e-003
1.934334e+003;5.816962e-003
1.936262e+003;5.964474e-003
1.938191e+003;6.017922e-003
1.940119e+003;5.781804e-003
1.942048e+003;5.481619e-003
1.943976e+003;5.660805e-003
1.945905e+003;5.949962e-003
1.947833e+003;6.008684e-003
1.949762e+003;5.982715e-003
1.951691e+003;5.905087e-003
1.953619e+003;5.723214e-003
1.955548e+003;5.838622e-003
1.957476e+003;5.969950e-003
1.959405e+003;6.087875e-003
1.961333e+003;6.028270e-003
1.963262e+003;5.871769e-003
1.965190e+003;5.685613e-003
1.967119e+003;5.464607e-003
1.969047e+003;5.407569e-003
1.970976e+003;5.396431e-003
1.972905e+003;5.415219e-003
1.974833e+003;5.444374e-003
1.976762e+003;5.527894e-003
1.978690e+003;5.526249e-003
1.980619e+003;5.659261e-003
1.982547e+003;5.814611e-003
1.984476e+003;5.939146e-003
1.986404e+003;5.993095e-003
1.988333e+003;5.884565e-003
1.990261e+003;5.522256e-003
1.992190e+003;5.321994e-003
1.994119e+003;5.807526e-003
1.996047e+003;6.218539e-003
1.997976e+003;6.232286e-003
1.999904e+003;6.163957e-003
2.001833e+003;5.910192e-003
2.003761e+003;5.888999e-003
2.005690e+003;5.946368e-003
2.007618e+003;5.856824e-003
2.009547e+003;5.927289e-003
2.011476e+003;6.054342e-003
2.013404e+003;5.998740e-003
2.015333e+003;5.860753e-003
2.017261e+003;5.959670e-003
2.019190e+003;5.986142e-003
2.021118e+003;6.026221e-003
2.023047e+003;6.305468e-003
2.024975e+003;6.162646e-003
2.026904e+003;5.942169e-003
2.028833e+003;5.860384e-003
2.030761e+003;5.990643e-003
2.032690e+003;6.253295e-003
2.034618e+003;6.369987e-003
2.036547e+003;6.275750e-003
2.038475e+003;6.176392e-003
2.040404e+003;6.262304e-003
2.042332e+003;6.260791e-003
2.044261e+003;6.391103e-003
2.046189e+003;6.892610e-003
2.048118e+003;7.153822e-003
2.050047e+003;6.698648e-003
2.051975e+003;6.285701e-003
2.053904e+003;6.146885e-003
2.055832e+003;6.221430e-003
2.057761e+003;6.407412e-003
2.059689e+003;6.305569e-003
2.061618e+003;6.284726e-003
2.063546e+003;6.401998e-003
2.065475e+003;6.467238e-003
2.067404e+003;6.473930e-003
2.069332e+003;6.488963e-003
2.071260e+003;6.556066e-003
2.073189e+003;6.859452e-003
2.075118e+003;6.742999e-003
2.077046e+003;6.274237e-003
2.078975e+003;6.530940e-003
2.080903e+003;7.066453e-003
2.082832e+003;7.401000e-003
2.084760e+003;7.522620e-003
2.086689e+003;7.368747e-003
2.088617e+003;7.178850e-003
2.090546e+003;7.035538e-003
2.092475e+003;7.113503e-003
2.094403e+003;7.220690e-003
2.096332e+003;7.166083e-003
2.098260e+003;7.240803e-003
2.100189e+003;7.159784e-003
2.102117e+003;6.938497e-003
2.104046e+003;7.316412e-003
2.105974e+003;7.515506e-003
2.107903e+003;7.461435e-003
2.109832e+003;7.443030e-003
2.111760e+003;7.439997e-003
2.113688e+003;7.530306e-003
2.115617e+003;7.711926e-003
2.117546e+003;7.642013e-003
2.119474e+003;7.650208e-003
2.121403e+003;7.925102e-003
2.123331e+003;8.416055e-003
2.125260e+003;8.676833e-003
2.127188e+003;8.840231e-003
2.129117e+003;9.196657e-003
2.131045e+003;9.491565e-003
2.132974e+003;9.757427e-003
2.134903e+003;9.620783e-003
2.136831e+003;9.298367e-003
2.138760e+003;9.080421e-003
2.140688e+003;8.989687e-003
2.142617e+003;9.011270e-003
2.144545e+003;9.062625e-003
2.146474e+003;8.992968e-003
2.148402e+003;8.865729e-003
2.150331e+003;8.938815e-003
2.152260e+003;9.117877e-003
2.154188e+003;9.333540e-003
2.156117e+003;9.382597e-003
2.158045e+003;9.396140e-003
2.159974e+003;9.680646e-003
2.161902e+003;1.002623e-002
2.163831e+003;1.020188e-002
2.165759e+003;1.019645e-002
2.167688e+003;1.035326e-002
2.169616e+003;1.074992e-002
2.171545e+003;1.103586e-002
2.173474e+003;1.117064e-002
2.175402e+003;1.119413e-002
2.177331e+003;1.109881e-002
2.179259e+003;1.096908e-002
2.181188e+003;1.075101e-002
2.183116e+003;1.058988e-002
2.185045e+003;1.078834e-002
2.186973e+003;1.091227e-002
2.188902e+003;1.086885e-002
2.190831e+003;1.068709e-002
2.192759e+003;1.079010e-002
2.194688e+003;1.086032e-002
2.196616e+003;1.066373e-002
2.198545e+003;1.040617e-002
2.200473e+003;1.033436e-002
2.202402e+003;1.042538e-002
2.204330e+003;1.039151e-002
2.206259e+003;1.044951e-002
2.208188e+003;1.067857e-002
2.210116e+003;1.061045e-002
2.212044e+003;1.041296e-002
2.213973e+003;1.043332e-002
2.215902e+003;1.039578e-002
2.217830e+003;1.049795e-002
2.219759e+003;1.058197e-002
2.221687e+003;1.057205e-002
2.223616e+003;1.062502e-002
2.225544e+003;1.084051e-002
2.227473e+003;1.101982e-002
2.229401e+003;1.082723e-002
2.231330e+003;1.060672e-002
2.233259e+003;1.072785e-002
2.235187e+003;1.094061e-002
2.237116e+003;1.106285e-002
2.239044e+003;1.095753e-002
2.240973e+003;1.071548e-002
2.242901e+003;1.053583e-002
2.244830e+003;1.064397e-002
2.246758e+003;1.096222e-002
2.248687e+003;1.108351e-002
2.250615e+003;1.112804e-002
2.252544e+003;1.149908e-002
2.254473e+003;1.172280e-002
2.256401e+003;1.177958e-002
2.258330e+003;1.167222e-002
2.260258e+003;1.148785e-002
2.262187e+003;1.134923e-002
2.264115e+003;1.121239e-002
2.266044e+003;1.116194e-002
2.267972e+003;1.103708e-002
2.269901e+003;1.091750e-002
2.271830e+003;1.097530e-002
2.273758e+003;1.086871e-002
2.275687e+003;1.085883e-002
2.277615e+003;1.091274e-002
2.279544e+003;1.074296e-002
2.281472e+003;1.046380e-002
2.283401e+003;1.048060e-002
2.285329e+003;1.069018e-002
2.287258e+003;1.063626e-002
2.289187e+003;1.036836e-002
2.291115e+003;1.026827e-002
2.293043e+003;1.024218e-002
2.294972e+003;1.012186e-002
2.296901e+003;1.016351e-002
2.298829e+003;1.028635e-002
2.300758e+003;1.032045e-002
2.302686e+003;1.050484e-002
2.304615e+003;1.044700e-002
2.306543e+003;1.038095e-002
2.308472e+003;1.037206e-002
2.310400e+003;1.055382e-002
2.312329e+003;1.076262e-002
2.314258e+003;1.062424e-002
2.316186e+003;1.072482e-002
2.318115e+003;1.065290e-002
2.320043e+003;1.059507e-002
2.321972e+003;1.078698e-002
2.323900e+003;1.110173e-002
2.325829e+003;1.136617e-002
2.327757e+003;1.147893e-002
2.329686e+003;1.167763e-002
2.331615e+003;1.195706e-002
2.333543e+003;1.186263e-002
2.335472e+003;1.159435e-002
2.337400e+003;1.173220e-002
2.339329e+003;1.195608e-002
2.341257e+003;1.202621e-002
2.343186e+003;1.232045e-002
2.345114e+003;1.240418e-002
2.347043e+003;1.238342e-002
2.348971e+003;1.261180e-002
2.350900e+003;1.263305e-002
2.352829e+003;1.270332e-002
2.354757e+003;1.276262e-002
2.356686e+003;1.275617e-002
2.358614e+003;1.288224e-002
2.360543e+003;1.301366e-002
2.362471e+003;1.333882e-002
2.364400e+003;1.345719e-002
2.366328e+003;1.325706e-002
2.368257e+003;1.308629e-002
2.370186e+003;1.307202e-002
2.372114e+003;1.310688e-002
2.374042e+003;1.322167e-002
2.375971e+003;1.328108e-002
2.377900e+003;1.330318e-002
2.379828e+003;1.359836e-002
2.381757e+003;1.369625e-002
2.383685e+003;1.373278e-002
2.385614e+003;1.371359e-002
2.387542e+003;1.363368e-002
2.389471e+003;1.364349e-002
2.391399e+003;1.384667e-002
2.393328e+003;1.387917e-002
2.395257e+003;1.413651e-002
2.397185e+003;1.442496e-002
2.399114e+003;1.451433e-002
2.401042e+003;1.473019e-002
2.402971e+003;1.464591e-002
2.404899e+003;1.419672e-002
2.406828e+003;1.382345e-002
2.408756e+003;1.383829e-002
2.410685e+003;1.399577e-002
2.412614e+003;1.403639e-002
2.414542e+003;1.388300e-002
2.416471e+003;1.394890e-002
2.418399e+003;1.447035e-002
2.420328e+003;1.486122e-002
2.422256e+003;1.466212e-002
2.424185e+003;1.464461e-002
2.426113e+003;1.485803e-002
2.428042e+003;1.489636e-002
2.429970e+003;1.477455e-002
2.431899e+003;1.478442e-002
2.433828e+003;1.474329e-002
2.435756e+003;1.458557e-002
2.437685e+003;1.435276e-002
2.439613e+003;1.409707e-002
2.441542e+003;1.401798e-002
2.443470e+003;1.402620e-002
2.445399e+003;1.390305e-002
2.447327e+003;1.356695e-002
2.449256e+003;1.345107e-002
2.451185e+003;1.372303e-002
2.453113e+003;1.372662e-002
2.455042e+003;1.371373e-002
2.456970e+003;1.354237e-002
2.458899e+003;1.323469e-002
2.460827e+003;1.347448e-002
2.462756e+003;1.370528e-002
2.464684e+003;1.359173e-002
2.466613e+003;1.361170e-002
2.468542e+003;1.371017e-002
2.470470e+003;1.351847e-002
2.472398e+003;1.338115e-002
2.474327e+003;1.364866e-002
2.476256e+003;1.366524e-002
2.478184e+003;1.374779e-002
2.480113e+003;1.435570e-002
2.482041e+003;1.478466e-002
2.483970e+003;1.480818e-002
2.485898e+003;1.466202e-002
2.487827e+003;1.460548e-002
2.489755e+003;1.451327e-002
2.491684e+003;1.446658e-002
2.493613e+003;1.459746e-002
2.495541e+003;1.460760e-002
2.497470e+003;1.441157e-002
2.499398e+003;1.436481e-002
2.501327e+003;1.447477e-002
2.503255e+003;1.446843e-002
2.505184e+003;1.464807e-002
2.507112e+003;1.493186e-002
2.509041e+003;1.508922e-002
2.510969e+003;1.538335e-002
2.512898e+003;1.548628e-002
2.514827e+003;1.548546e-002
2.516755e+003;1.544158e-002
2.518684e+003;1.554243e-002
2.520612e+003;1.609932e-002
2.522541e+003;1.649917e-002
2.524469e+003;1.680152e-002
2.526398e+003;1.722459e-002
2.528326e+003;1.735382e-002
2.530255e+003;1.736169e-002
2.532184e+003;1.757672e-002
2.534112e+003;1.770792e-002
2.536041e+003;1.775876e-002
2.537969e+003;1.797513e-002
2.539898e+003;1.808034e-002
2.541826e+003;1.826926e-002
2.543755e+003;1.849090e-002
2.545683e+003;1.869224e-002
2.547612e+003;1.928866e-002
2.549541e+003;1.987490e-002
2.551469e+003;2.025914e-002
2.553397e+003;2.057886e-002
2.555326e+003;2.096028e-002
2.557255e+003;2.102371e-002
2.559183e+003;2.085619e-002
2.561112e+003;2.117213e-002
2.563040e+003;2.171999e-002
2.564969e+003;2.208001e-002
2.566897e+003;2.229575e-002
2.568826e+003;2.268413e-002
2.570754e+003;2.368702e-002
2.572683e+003;2.463334e-002
2.574612e+003;2.523812e-002
2.576540e+003;2.582180e-002
2.578469e+003;2.617678e-002
2.580397e+003;2.644200e-002
2.582326e+003;2.657520e-002
2.584254e+003;2.638619e-002
2.586183e+003;2.576181e-002
2.588111e+003;2.487839e-002
2.590040e+003;2.442733e-002
2.591969e+003;2.403448e-002
2.593897e+003;2.371267e-002
2.595826e+003;2.358167e-002
2.597754e+003;2.308206e-002
2.599683e+003;2.316827e-002
2.601611e+003;2.376534e-002
2.603540e+003;2.401438e-002
2.605468e+003;2.402149e-002
2.607397e+003;2.443045e-002
2.609325e+003;2.481980e-002
2.611254e+003;2.517878e-002
2.613183e+003;2.565470e-002
2.615111e+003;2.591345e-002
2.617040e+003;2.611590e-002
2.618968e+003;2.583875e-002
2.620897e+003;2.574065e-002
2.622825e+003;2.586400e-002
2.624754e+003;2.543665e-002
2.626682e+003;2.483871e-002
2.628611e+003;2.487236e-002
2.630540e+003;2.503365e-002
2.632468e+003;2.493770e-002
2.634396e+003;2.481959e-002
2.636325e+003;2.493047e-002
2.638254e+003;2.519865e-002
2.640182e+003;2.558226e-002
2.642111e+003;2.591883e-002
2.644039e+003;2.609022e-002
2.645968e+003;2.625259e-002
2.647896e+003;2.678308e-002
2.649825e+003;2.743957e-002
2.651753e+003;2.791811e-002
2.653682e+003;2.790331e-002
2.655611e+003;2.783767e-002
2.657539e+003;2.795674e-002
2.659468e+003;2.833586e-002
2.661396e+003;2.874129e-002
2.663325e+003;2.902916e-002
2.665253e+003;2.920955e-002
2.667182e+003;2.915834e-002
2.669110e+003;2.889478e-002
2.671039e+003;2.882747e-002
2.672968e+003;2.903841e-002
2.674896e+003;2.948028e-002
2.676825e+003;2.973596e-002
2.678753e+003;2.994663e-002
2.680682e+003;3.015187e-002
2.682610e+003;2.973440e-002
2.684539e+003;2.935122e-002
2.686467e+003;2.969101e-002
2.688396e+003;3.006944e-002
2.690324e+003;2.993779e-002
2.692253e+003;2.999033e-002
2.694182e+003;2.987202e-002
2.696110e+003;2.961615e-002
2.698039e+003;2.986666e-002
2.699967e+003;3.030167e-002
2.701896e+003;3.075937e-002
2.703824e+003;3.165966e-002
2.705753e+003;3.248986e-002
2.707681e+003;3.308387e-002
2.709610e+003;3.392759e-002
2.711539e+003;3.508804e-002
2.713467e+003;3.634124e-002
2.715396e+003;3.789894e-002
2.717324e+003;3.949611e-002
2.719253e+003;4.090236e-002
2.721181e+003;4.201607e-002
2.723110e+003;4.255901e-002
2.725038e+003;4.221646e-002
2.726967e+003;4.112402e-002
2.728896e+003;3.992972e-002
2.730824e+003;3.865938e-002
2.732752e+003;3.751604e-002
2.734681e+003;3.662914e-002
2.736610e+003;3.580665e-002
2.738538e+003;3.495307e-002
2.740467e+003;3.406497e-002
2.742395e+003;3.325883e-002
2.744324e+003;3.248818e-002
2.746252e+003;3.200322e-002
2.748181e+003;3.165937e-002
2.750109e+003;3.163610e-002
2.752038e+003;3.172966e-002
2.753967e+003;3.172560e-002
2.755895e+003;3.182046e-002
2.757824e+003;3.184253e-002
2.759752e+003;3.216907e-002
2.761681e+003;3.305974e-002
2.763609e+003;3.346378e-002
2.765538e+003;3.336004e-002
2.767466e+003;3.354735e-002
2.769395e+003;3.413736e-002
2.771323e+003;3.480830e-002
2.773252e+003;3.536980e-002
2.775181e+003;3.617648e-002
2.777109e+003;3.692734e-002
2.779038e+003;3.756290e-002
2.780966e+003;3.849512e-002
2.782895e+003;3.976858e-002
2.784823e+003;4.116267e-002
2.786752e+003;4.271937e-002
2.788680e+003;4.422591e-002
2.790609e+003;4.605473e-002
2.792538e+003;4.779293e-002
2.794466e+003;4.887746e-002
2.796395e+003;4.962569e-002
2.798323e+003;5.090644e-002
2.800252e+003;5.256505e-002
2.802180e+003;5.418107e-002
2.804109e+003;5.589141e-002
2.806037e+003;5.792663e-002
2.807966e+003;6.001921e-002
2.809895e+003;6.155493e-002
2.811823e+003;6.309292e-002
2.813751e+003;6.503688e-002
2.815680e+003;6.715333e-002
2.817609e+003;6.919066e-002
2.819537e+003;7.124594e-002
2.821466e+003;7.371514e-002
2.823394e+003;7.703765e-002
2.825323e+003;8.134755e-002
2.827251e+003;8.693024e-002
2.829180e+003;9.385107e-002
2.831108e+003;1.017731e-001
2.833037e+003;1.103051e-001
2.834966e+003;1.178042e-001
2.836894e+003;1.218610e-001
2.838823e+003;1.220537e-001
2.840751e+003;1.196486e-001
2.842680e+003;1.159471e-001
2.844608e+003;1.118538e-001
2.846537e+003;1.078573e-001
2.848465e+003;1.050111e-001
2.850394e+003;1.036258e-001
2.852323e+003;1.024845e-001
2.854251e+003;1.016970e-001
2.856180e+003;1.023568e-001
2.858108e+003;1.051435e-001
2.860037e+003;1.098405e-001
2.861965e+003;1.162449e-001
2.863894e+003;1.230686e-001
2.865822e+003;1.283755e-001
2.867751e+003;1.313772e-001
2.869679e+003;1.323101e-001
2.871608e+003;1.321057e-001
2.873536e+003;1.320043e-001
2.875465e+003;1.317528e-001
2.877394e+003;1.305109e-001
2.879322e+003;1.289030e-001
2.881251e+003;1.276003e-001
2.883179e+003;1.266496e-001
2.885108e+003;1.263950e-001
2.887036e+003;1.270574e-001
2.888965e+003;1.284053e-001
2.890893e+003;1.305860e-001
2.892822e+003;1.336116e-001
2.894750e+003;1.370886e-001
2.896679e+003;1.415140e-001
2.898608e+003;1.466122e-001
2.900536e+003;1.521206e-001
2.902465e+003;1.577724e-001
2.904393e+003;1.633618e-001
2.906322e+003;1.687230e-001
2.908250e+003;1.739581e-001
2.910179e+003;1.784107e-001
2.912107e+003;1.823512e-001
2.914036e+003;1.861838e-001
2.915965e+003;1.882267e-001
2.917893e+003;1.880262e-001
2.919822e+003;1.863458e-001
2.921750e+003;1.830064e-001
2.923679e+003;1.777238e-001
2.925607e+003;1.718712e-001
2.927536e+003;1.648730e-001
2.929464e+003;1.562570e-001
2.931393e+003;1.474931e-001
2.933322e+003;1.391265e-001
2.935250e+003;1.319404e-001
2.937178e+003;1.266255e-001
2.939107e+003;1.237472e-001
2.941036e+003;1.246112e-001
2.942964e+003;1.291888e-001
2.944893e+003;1.364540e-001
2.946821e+003;1.444501e-001
2.948750e+003;1.505785e-001
2.950678e+003;1.539137e-001
2.952607e+003;1.540806e-001
2.954535e+003;1.517026e-001
2.956464e+003;1.474823e-001
2.958393e+003;1.422051e-001
2.960321e+003;1.363913e-001
2.962250e+003;1.293163e-001
2.964178e+003;1.216090e-001
2.966107e+003;1.140409e-001
2.968035e+003;1.063696e-001
2.969964e+003;9.937251e-002
2.971892e+003;9.289986e-002
2.973821e+003;8.661439e-002
2.975750e+003;8.148427e-002
2.977678e+003;7.732318e-002
2.979607e+003;7.371216e-002
2.981535e+003;7.024308e-002
2.983464e+003;6.717499e-002
2.985392e+003;6.469437e-002
2.987321e+003;6.219598e-002
2.989249e+003;5.971937e-002
2.991178e+003;5.803398e-002
2.993106e+003;5.661440e-002
2.995035e+003;5.449882e-002
2.996964e+003;5.229864e-002
2.998892e+003;5.052002e-002
3.000821e+003;4.895192e-002
3.002749e+003;4.688854e-002
3.004678e+003;4.501879e-002
3.006606e+003;4.384912e-002
3.008535e+003;4.281681e-002
3.010463e+003;4.127983e-002
3.012392e+003;3.945195e-002
3.014321e+003;3.835948e-002
3.016249e+003;3.752699e-002
3.018177e+003;3.641945e-002
3.020106e+003;3.522561e-002
3.022035e+003;3.453100e-002
3.023963e+003;3.395811e-002
3.025892e+003;3.309392e-002
3.027820e+003;3.216907e-002
3.029749e+003;3.094289e-002
3.031677e+003;3.006806e-002
3.033606e+003;2.985896e-002
3.035534e+003;2.949120e-002
3.037463e+003;2.874221e-002
3.039392e+003;2.835952e-002
3.041320e+003;2.809394e-002
3.043249e+003;2.806255e-002
3.045177e+003;2.778196e-002
3.047106e+003;2.720735e-002
3.049034e+003;2.679091e-002
3.050963e+003;2.681533e-002
3.052891e+003;2.698425e-002
3.054820e+003;2.692848e-002
3.056749e+003;2.654759e-002
3.058677e+003;2.627678e-002
3.060606e+003;2.591584e-002
3.062534e+003;2.564981e-002
3.064463e+003;2.572360e-002
3.066391e+003;2.561716e-002
3.068320e+003;2.534819e-002
3.070248e+003;2.518661e-002
3.072177e+003;2.478890e-002
3.074105e+003;2.464463e-002
3.076034e+003;2.456391e-002
3.077963e+003;2.427783e-002
3.079891e+003;2.405325e-002
3.081820e+003;2.414530e-002
3.083748e+003;2.491601e-002
3.085677e+003;2.514518e-002
3.087605e+003;2.485303e-002
3.089534e+003;2.442979e-002
3.091462e+003;2.402611e-002
3.093391e+003;2.378252e-002
3.095320e+003;2.391683e-002
3.097248e+003;2.404590e-002
3.099177e+003;2.405984e-002
3.101105e+003;2.406684e-002
3.103034e+003;2.414565e-002
3.104962e+003;2.454481e-002
3.106891e+003;2.478220e-002
3.108819e+003;2.449029e-002
3.110748e+003;2.416337e-002
3.112677e+003;2.409430e-002
3.114605e+003;2.436835e-002
3.116533e+003;2.455764e-002
3.118462e+003;2.427321e-002
3.120391e+003;2.432317e-002
3.122319e+003;2.437763e-002
3.124248e+003;2.369720e-002
3.126176e+003;2.374913e-002
3.128105e+003;2.438983e-002
3.130033e+003;2.453033e-002
3.131962e+003;2.480121e-002
3.133890e+003;2.542136e-002
3.135819e+003;2.529003e-002
3.137748e+003;2.486008e-002
3.139676e+003;2.510793e-002
3.141605e+003;2.558026e-002
3.143533e+003;2.611006e-002
3.145462e+003;2.635613e-002
3.147390e+003;2.612678e-002
3.149319e+003;2.584364e-002
3.151247e+003;2.595523e-002
3.153176e+003;2.582331e-002
3.155104e+003;2.555703e-002
3.157033e+003;2.570177e-002
3.158962e+003;2.598284e-002
3.160890e+003;2.615489e-002
3.162819e+003;2.608487e-002
3.164747e+003;2.580253e-002
3.166676e+003;2.598341e-002
3.168604e+003;2.644183e-002
3.170533e+003;2.670418e-002
3.172461e+003;2.666356e-002
3.174390e+003;2.681920e-002
3.176319e+003;2.709470e-002
3.178247e+003;2.720619e-002
3.180176e+003;2.739309e-002
3.182104e+003;2.738253e-002
3.184033e+003;2.734950e-002
3.185961e+003;2.730508e-002
3.187890e+003;2.703880e-002
3.189818e+003;2.718696e-002
3.191747e+003;2.757788e-002
3.193676e+003;2.744521e-002
3.195604e+003;2.738253e-002
3.197532e+003;2.753269e-002
3.199461e+003;2.752188e-002
3.201390e+003;2.757614e-002
3.203318e+003;2.781004e-002
3.205247e+003;2.812080e-002
3.207175e+003;2.822421e-002
3.209104e+003;2.816581e-002
3.211032e+003;2.833108e-002
3.212961e+003;2.773103e-002
3.214889e+003;2.697766e-002
3.216818e+003;2.726669e-002
3.218747e+003;2.772117e-002
3.220675e+003;2.770945e-002
3.222604e+003;2.740477e-002
3.224532e+003;2.689333e-002
3.226461e+003;2.682351e-002
3.228389e+003;2.664408e-002
3.230318e+003;2.675108e-002
3.232246e+003;2.704758e-002
3.234175e+003;2.631356e-002
3.236104e+003;2.581389e-002
3.238032e+003;2.608322e-002
3.239961e+003;2.642412e-002
3.241889e+003;2.630318e-002
3.243818e+003;2.564454e-002
3.245746e+003;2.572620e-002
3.247675e+003;2.613828e-002
3.249603e+003;2.627921e-002
3.251532e+003;2.626453e-002
3.253460e+003;2.641394e-002
3.255389e+003;2.674502e-002
3.257318e+003;2.650892e-002
3.259246e+003;2.593796e-002
3.261175e+003;2.567554e-002
3.263103e+003;2.603297e-002
3.265032e+003;2.640274e-002
3.266960e+003;2.607255e-002
3.268889e+003;2.587430e-002
3.270817e+003;2.625795e-002
3.272746e+003;2.626587e-002
3.274675e+003;2.614057e-002
3.276603e+003;2.632659e-002
3.278531e+003;2.650504e-002
3.280460e+003;2.659109e-002
3.282389e+003;2.667540e-002
3.284317e+003;2.677748e-002
3.286246e+003;2.691840e-002
3.288174e+003;2.657165e-002
3.290103e+003;2.603635e-002
3.292031e+003;2.616890e-002
3.293960e+003;2.652610e-002
3.295888e+003;2.655467e-002
3.297817e+003;2.665736e-002
3.299746e+003;2.688512e-002
3.301674e+003;2.682509e-002
3.303603e+003;2.648944e-002
3.305531e+003;2.661987e-002
3.307460e+003;2.658827e-002
3.309388e+003;2.668061e-002
3.311317e+003;2.677286e-002
3.313245e+003;2.647331e-002
3.315174e+003;2.621585e-002
3.317103e+003;2.622796e-002
3.319031e+003;2.587465e-002
3.320960e+003;2.551422e-002
3.322888e+003;2.573843e-002
3.324817e+003;2.619832e-002
3.326745e+003;2.628801e-002
3.328674e+003;2.626115e-002
3.330602e+003;2.619132e-002
3.332531e+003;2.596332e-002
3.334459e+003;2.587515e-002
3.336388e+003;2.590420e-002
3.338317e+003;2.590726e-002
3.340245e+003;2.562292e-002
3.342174e+003;2.560837e-002
3.344102e+003;2.565895e-002
3.346031e+003;2.552930e-002
3.347959e+003;2.527338e-002
3.349888e+003;2.523117e-002
3.351816e+003;2.575914e-002
3.353745e+003;2.614029e-002
3.355674e+003;2.628065e-002
3.357602e+003;2.596589e-002
3.359531e+003;2.584149e-002
3.361459e+003;2.582416e-002
3.363388e+003;2.561192e-002
3.365316e+003;2.523018e-002
3.367245e+003;2.507033e-002
3.369173e+003;2.493882e-002
3.371102e+003;2.491103e-002
3.373031e+003;2.517095e-002
3.374959e+003;2.514971e-002
3.376887e+003;2.453776e-002
3.378816e+003;2.368527e-002
3.380745e+003;2.366833e-002
3.382673e+003;2.360046e-002
3.384602e+003;2.324170e-002
3.386530e+003;2.346806e-002
3.388459e+003;2.406120e-002
3.390387e+003;2.435331e-002
3.392316e+003;2.417147e-002
3.394244e+003;2.386128e-002
3.396173e+003;2.350968e-002
3.398102e+003;2.344767e-002
3.400030e+003;2.351273e-002
3.401959e+003;2.351171e-002
3.403887e+003;2.331690e-002
3.405816e+003;2.306595e-002
3.407744e+003;2.328840e-002
3.409673e+003;2.326509e-002
3.411601e+003;2.312525e-002
3.413530e+003;2.315663e-002
3.415458e+003;2.324586e-002
3.417387e+003;2.278797e-002
3.419316e+003;2.232781e-002
3.421244e+003;2.250498e-002
3.423173e+003;2.255094e-002
3.425101e+003;2.222506e-002
3.427030e+003;2.220110e-002
3.428958e+003;2.207460e-002
3.430887e+003;2.183834e-002
3.432815e+003;2.131695e-002
3.434744e+003;2.083978e-002
3.436673e+003;2.093664e-002
3.438601e+003;2.117537e-002
3.440530e+003;2.137034e-002
3.442458e+003;2.097451e-002
3.444387e+003;2.040150e-002
3.446315e+003;1.973840e-002
3.448244e+003;1.948916e-002
3.450172e+003;1.972359e-002
3.452101e+003;1.953390e-002
3.454030e+003;1.916006e-002
3.455958e+003;1.907267e-002
3.457886e+003;1.905979e-002
3.459815e+003;1.932378e-002
3.461744e+003;1.940960e-002
3.463672e+003;1.943191e-002
3.465601e+003;1.920030e-002
3.467529e+003;1.879876e-002
3.469458e+003;1.831564e-002
3.471386e+003;1.796280e-002
3.473315e+003;1.783402e-002
3.475243e+003;1.787140e-002
3.477172e+003;1.782680e-002
3.479101e+003;1.770802e-002
3.481029e+003;1.742049e-002
3.482958e+003;1.714479e-002
3.484886e+003;1.702600e-002
3.486815e+003;1.672972e-002
3.488743e+003;1.614605e-002
3.490672e+003;1.587642e-002
3.492600e+003;1.657096e-002
3.494529e+003;1.672297e-002
3.496458e+003;1.616961e-002
3.498386e+003;1.586216e-002
3.500315e+003;1.572489e-002
3.502243e+003;1.530128e-002
3.504172e+003;1.506058e-002
3.506100e+003;1.533530e-002
3.508029e+003;1.520680e-002
3.509957e+003;1.511224e-002
3.511886e+003;1.534549e-002
3.513814e+003;1.544223e-002
3.515743e+003;1.500645e-002
3.517672e+003;1.475422e-002
3.519600e+003;1.494400e-002
3.521529e+003;1.482611e-002
3.523457e+003;1.423192e-002
3.525386e+003;1.393750e-002
3.527314e+003;1.435714e-002
3.529243e+003;1.465332e-002
3.531171e+003;1.411080e-002
3.533100e+003;1.364240e-002
3.535029e+003;1.353909e-002
3.536957e+003;1.358746e-002
3.538885e+003;1.365266e-002
3.540814e+003;1.355761e-002
3.542743e+003;1.322379e-002
3.544671e+003;1.277504e-002
3.546600e+003;1.291084e-002
3.548528e+003;1.323636e-002
3.550457e+003;1.321768e-002
3.552385e+003;1.280190e-002
3.554314e+003;1.235141e-002
3.556242e+003;1.176392e-002
3.558171e+003;1.166885e-002
3.560100e+003;1.176566e-002
3.562028e+003;1.133733e-002
3.563957e+003;1.063436e-002
3.565885e+003;9.632234e-003
3.567814e+003;9.215271e-003
3.569742e+003;9.904657e-003
3.571671e+003;1.033691e-002
3.573599e+003;1.015015e-002
3.575528e+003;1.014289e-002
3.577457e+003;9.803414e-003
3.579385e+003;9.803482e-003
3.581314e+003;1.016904e-002
3.583242e+003;9.572004e-003
3.585171e+003;8.432846e-003
3.587099e+003;7.851513e-003
3.589028e+003;8.333532e-003
3.590956e+003;8.704179e-003
3.592885e+003;8.359000e-003
3.594813e+003;8.502648e-003
3.596742e+003;8.843613e-003
3.598671e+003;8.671085e-003
3.600599e+003;8.755532e-003
3.602528e+003;9.126742e-003
3.604456e+003;9.111820e-003
3.606385e+003;7.994891e-003
3.608313e+003;6.906076e-003
3.610242e+003;6.654300e-003
3.612170e+003;6.240925e-003
3.614099e+003;6.850162e-003
3.616028e+003;7.254213e-003
3.617956e+003;6.180559e-003
3.619885e+003;5.998672e-003
3.621813e+003;7.173696e-003
3.623742e+003;7.522855e-003
3.625670e+003;6.194776e-003
3.627599e+003;3.653542e-003
3.629527e+003;3.512925e-003
3.631456e+003;5.862399e-003
3.633385e+003;6.869652e-003
3.635313e+003;7.033854e-003
3.637241e+003;7.212470e-003
3.639170e+003;7.433660e-003
3.641099e+003;7.480548e-003
3.643027e+003;7.113436e-003
3.644956e+003;5.882181e-003
3.646884e+003;3.999414e-003
3.648813e+003;2.978036e-003
3.650741e+003;4.137311e-003
3.652670e+003;5.779185e-003
3.654598e+003;5.295563e-003
3.656527e+003;4.998529e-003
3.658456e+003;5.682290e-003
3.660384e+003;6.070974e-003
3.662313e+003;6.398165e-003
3.664241e+003;6.552669e-003
3.666170e+003;5.954464e-003
3.668098e+003;4.425723e-003
3.670027e+003;3.316292e-003
3.671955e+003;4.424786e-003
3.673884e+003;3.457647e-003
3.675813e+003;2.865754e-003
3.677741e+003;5.415353e-003
3.679669e+003;6.316428e-003
3.681598e+003;6.356639e-003
3.683527e+003;6.772076e-003
3.685455e+003;6.637209e-003
3.687384e+003;4.894637e-003
3.689312e+003;4.593357e-003
3.691241e+003;5.752760e-003
3.693169e+003;7.074805e-003
3.695098e+003;7.616892e-003
3.697026e+003;7.420144e-003
3.698955e+003;7.094407e-003
3.700884e+003;6.299719e-003
3.702812e+003;6.578100e-003
3.704741e+003;7.150588e-003
3.706669e+003;6.697604e-003
3.708598e+003;5.814981e-003
3.710526e+003;4.590209e-003
3.712455e+003;4.480288e-003
3.714383e+003;5.743560e-003
3.716312e+003;6.197868e-003
3.718240e+003;6.953782e-003
3.720169e+003;7.127346e-003
3.722098e+003;6.381924e-003
3.724026e+003;6.027363e-003
3.725955e+003;5.738390e-003
3.727883e+003;5.650836e-003
3.729812e+003;5.365836e-003
3.731740e+003;4.458494e-003
3.733669e+003;3.817869e-003
3.735597e+003;3.465495e-003
3.737526e+003;4.600790e-003
3.739455e+003;6.072789e-003
3.741383e+003;5.603876e-003
3.743312e+003;2.102565e-003
3.745240e+003;2.110024e-003
3.747169e+003;3.629985e-003
3.749097e+003;1.854556e-003
3.751026e+003;1.561928e-003
3.752954e+003;4.035698e-003
3.754883e+003;6.375031e-003
3.756812e+003;6.538070e-003
3.758740e+003;6.900387e-003
3.760668e+003;7.400630e-003
3.762597e+003;7.690003e-003
3.764526e+003;7.311156e-003
3.766454e+003;7.067598e-003
3.768383e+003;6.264657e-003
3.770311e+003;5.818742e-003
3.772240e+003;6.507933e-003
3.774168e+003;7.313549e-003
3.776097e+003;7.197378e-003
3.778025e+003;6.990988e-003
3.779954e+003;7.226384e-003
3.781883e+003;7.191381e-003
3.783811e+003;6.734754e-003
3.785740e+003;7.188451e-003
3.787668e+003;7.630312e-003
3.789597e+003;7.962864e-003
3.791525e+003;8.000460e-003
3.793454e+003;7.529228e-003
3.795382e+003;6.670114e-003
3.797311e+003;6.639429e-003
3.799240e+003;5.374961e-003
3.801168e+003;4.007205e-003
3.803097e+003;5.635831e-003
3.805025e+003;5.653152e-003
3.806954e+003;5.011903e-003
3.808882e+003;6.572146e-003
3.810811e+003;7.308629e-003
3.812739e+003;6.880727e-003
3.814668e+003;5.107006e-003
3.816596e+003;5.199581e-003
3.818525e+003;5.550949e-003
3.820454e+003;4.222988e-003
3.822382e+003;5.229259e-003
3.824311e+003;6.890490e-003
3.826239e+003;7.329656e-003
3.828168e+003;7.384317e-003
3.830096e+003;7.224935e-003
3.832025e+003;7.295925e-003
3.833953e+003;6.910924e-003
3.835882e+003;5.220573e-003
3.837811e+003;3.892049e-003
3.839739e+003;4.452569e-003
3.841667e+003;5.097183e-003
3.843596e+003;5.674972e-003
3.845525e+003;6.354521e-003
3.847453e+003;6.967419e-003
3.849382e+003;6.335457e-003
3.851310e+003;3.292120e-003
3.853239e+003;9.064655e-004
3.855167e+003;3.983998e-003
3.857096e+003;7.447851e-003
3.859024e+003;7.742990e-003
3.860953e+003;7.207315e-003
3.862882e+003;6.904393e-003
3.864810e+003;6.520277e-003
3.866739e+003;7.252966e-003
3.868667e+003;6.519470e-003
3.870596e+003;6.439594e-003
3.872524e+003;7.618139e-003
3.874453e+003;7.715872e-003
3.876381e+003;7.866392e-003
3.878310e+003;7.339597e-003
3.880239e+003;7.086593e-003
3.882167e+003;7.830326e-003
3.884096e+003;7.526665e-003
3.886024e+003;7.525890e-003
3.887953e+003;8.164348e-003
3.889881e+003;7.138361e-003
3.891810e+003;6.856726e-003
3.893738e+003;7.717018e-003
3.895667e+003;8.254504e-003
3.897595e+003;7.851952e-003
3.899524e+003;7.173258e-003
3.901453e+003;6.488526e-003
3.903381e+003;6.410606e-003
3.905310e+003;7.595445e-003
3.907238e+003;8.175524e-003
3.909167e+003;7.965598e-003
3.911095e+003;8.096085e-003
3.913024e+003;8.707053e-003
3.914952e+003;8.507007e-003
3.916881e+003;7.387081e-003
3.918810e+003;7.207282e-003
3.920738e+003;7.945181e-003
3.922667e+003;8.307829e-003
3.924595e+003;8.591590e-003
3.926524e+003;9.080082e-003
3.928452e+003;9.127115e-003
3.930381e+003;8.783966e-003
3.932309e+003;8.556038e-003
3.934238e+003;8.890281e-003
3.936167e+003;9.201564e-003
3.938095e+003;9.391942e-003
3.940023e+003;9.215982e-003
3.941952e+003;8.898465e-003
3.943881e+003;9.199263e-003
3.945809e+003;9.249963e-003
3.947738e+003;8.896537e-003
3.949666e+003;8.661418e-003
3.951595e+003;9.024801e-003
3.953523e+003;9.287873e-003
3.955452e+003;9.057042e-003
3.957380e+003;9.088981e-003
3.959309e+003;9.173407e-003
3.961238e+003;9.162916e-003
3.963166e+003;8.830965e-003
3.965095e+003;8.739946e-003
3.967023e+003;9.013096e-003
3.968952e+003;9.335808e-003
3.970880e+003;9.327277e-003
3.972809e+003;9.355072e-003
3.974737e+003;9.540165e-003
3.976666e+003;9.336451e-003
3.978594e+003;8.806553e-003
3.980523e+003;8.936210e-003
3.982452e+003;9.351686e-003
3.984380e+003;9.908623e-003
3.986309e+003;1.057942e-002
3.988237e+003;1.078426e-002
3.990166e+003;1.099678e-002
3.992094e+003;1.104623e-002
3.994023e+003;1.077604e-002
3.995951e+003;1.118502e-002
3.997880e+003;1.162130e-002
3.999809e+003;1.119243e-002
4.001737e+003;0.000000e+000
