3.992094e+002;0.000000e+000
4.011380e+002;0.000000e+000
4.030665e+002;0.000000e+000
4.049951e+002;0.000000e+000
4.069236e+002;0.000000e+000
4.088522e+002;0.000000e+000
4.107807e+002;0.000000e+000
4.127093e+002;0.000000e+000
4.146378e+002;0.000000e+000
4.165664e+002;0.000000e+000
4.184949e+002;0.000000e+000
4.204235e+002;0.000000e+000
4.223520e+002;0.000000e+000
4.242806e+002;0.000000e+000
4.262091e+002;0.000000e+000
4.281377e+002;0.000000e+000
4.300662e+002;0.000000e+000
4.319948e+002;0.000000e+000
4.339233e+002;0.000000e+000
4.358519e+002;0.000000e+000
4.377804e+002;0.000000e+000
4.397090e+002;0.000000e+000
4.416375e+002;0.000000e+000
4.435660e+002;0.000000e+000
4.454946e+002;0.000000e+000
4.474232e+002;0.000000e+000
4.493517e+002;0.000000e+000
4.512802e+002;0.000000e+000
4.532088e+002;0.000000e+000
4.551373e+002;0.000000e+000
4.570659e+002;0.000000e+000
4.589944e+002;0.000000e+000
4.609230e+002;0.000000e+000
4.628515e+002;0.000000e+000
4.647801e+002;0.000000e+000
4.667086e+002;0.000000e+000
4.686372e+002;0.000000e+000
4.705657e+002;0.000000e+000
4.724943e+002;0.000000e+000
4.744228e+002;0.000000e+000
4.763513e+002;0.000000e+000
4.782799e+002;0.000000e+000
4.802085e+002;0.000000e+000
4.821370e+002;0.000000e+000
4.840656e+002;0.000000e+000
4.859941e+002;0.000000e+000
4.879226e+002;0.000000e+000
4.898512e+002;0.000000e+000
4.917798e+002;0.000000e+000
4.937083e+002;0.000000e+000
4.956368e+002;0.000000e+000
4.975654e+002;0.000000e+000
4.994939e+002;0.000000e+000
5.014225e+002;0.000000e+000
5.033510e+002;0.000000e+000
5.052796e+002;0.000000e+000
5.072081e+002;0.000000e+000
5.091367e+002;0.000000e+000
5.110652e+002;0.000000e+000
5.129938e+002;0.000000e+000
5.149223e+002;0.000000e+000
5.168509e+002;0.000000e+000
5.187794e+002;0.000000e+000
5.207079e+002;0.000000e+000
5.226365e+002;0.000000e+000
5.245651e+002;0.000000e+000
5.264936e+002;0.000000e+000
5.284222e+002;0.000000e+000
5.303507e+002;0.000000e+000
5.322792e+002;0.000000e+000
5.342078e+002;0.000000e+000
5.361364e+002;0.000000e+000
5.380649e+002;0.000000e+000
5.399935e+002;0.000000e+000
5.419220e+002;0.000000e+000
5.438505e+002;0.000000e+000
5.457791e+002;0.000000e+000
5.477076e+002;0.000000e+000
5.496362e+002;0.000000e+000
5.515648e+002;0.000000e+000
5.534933e+002;0.000000e+000
5.554218e+002;0.000000e+000
5.573504e+002;0.000000e+000
5.592789e+002;0.000000e+000
5.612075e+002;0.000000e+000
5.631360e+002;0.000000e+000
5.650646e+002;0.000000e+000
5.669931e+002;0.000000e+000
5.689217e+002;0.000000e+000
5.708502e+002;0.000000e+000
5.727787e+002;0.000000e+000
5.747073e+002;0.000000e+000
5.766359e+002;0.000000e+000
5.785644e+002;0.000000e+000
5.804930e+002;0.000000e+000
5.824215e+002;0.000000e+000
5.843500e+002;0.000000e+000
5.862786e+002;0.000000e+000
5.882072e+002;0.000000e+000
5.901357e+002;0.000000e+000
5.920643e+002;0.000000e+000
5.939928e+002;0.000000e+000
5.959213e+002;0.000000e+000
5.978499e+002;0.000000e+000
5.997784e+002;6.492425e-002
6.017070e+002;5.899413e-002
6.036355e+002;5.869249e-002
6.055641e+002;5.666747e-002
6.074926e+002;5.977857e-002
6.094211e+002;5.897185e-002
6.113497e+002;5.215324e-002
6.132783e+002;5.181570e-002
6.152068e+002;5.301817e-002
6.171354e+002;5.421242e-002
6.190639e+002;5.776927e-002
6.209924e+002;5.681118e-002
6.229210e+002;5.567275e-002
6.248495e+002;5.503478e-002
6.267781e+002;5.369749e-002
6.287067e+002;5.530735e-002
6.306352e+002;5.875246e-002
6.325637e+002;5.982154e-002
6.344923e+002;5.617139e-002
6.364208e+002;5.204801e-002
6.383494e+002;5.360201e-002
6.402780e+002;5.795961e-002
6.422065e+002;5.862051e-002
6.441350e+002;5.764711e-002
6.460636e+002;5.672463e-002
6.479921e+002;5.941708e-002
6.499207e+002;6.054733e-002
6.518492e+002;5.770527e-002
6.537778e+002;5.680276e-002
6.557063e+002;5.772650e-002
6.576349e+002;5.794533e-002
6.595634e+002;5.738774e-002
6.614919e+002;5.912900e-002
6.634205e+002;6.028241e-002
6.653491e+002;5.797816e-002
6.672776e+002;5.646675e-002
6.692062e+002;5.671799e-002
6.711347e+002;5.820705e-002
6.730632e+002;5.818000e-002
6.749918e+002;5.695796e-002
6.769203e+002;5.762350e-002
6.788489e+002;5.820443e-002
6.807775e+002;5.848382e-002
6.827060e+002;5.712867e-002
6.846345e+002;5.676847e-002
6.865631e+002;5.795651e-002
6.884916e+002;5.750948e-002
6.904202e+002;5.665411e-002
6.923488e+002;5.639087e-002
6.942773e+002;5.680461e-002
6.962058e+002;5.872617e-002
6.981344e+002;6.078637e-002
7.000629e+002;6.072788e-002
7.019915e+002;5.993320e-002
7.039200e+002;5.924417e-002
7.058486e+002;5.860250e-002
7.077771e+002;5.893086e-002
7.097057e+002;5.853970e-002
7.116342e+002;5.760054e-002
7.135627e+002;5.881259e-002
7.154913e+002;5.980777e-002
7.174199e+002;5.924330e-002
7.193484e+002;5.936648e-002
7.212770e+002;5.996839e-002
7.232055e+002;6.122847e-002
7.251340e+002;6.159220e-002
7.270626e+002;6.113730e-002
7.289911e+002;6.020951e-002
7.309197e+002;6.025591e-002
7.328483e+002;6.010398e-002
7.347768e+002;5.846384e-002
7.367053e+002;5.800937e-002
7.386339e+002;5.885023e-002
7.405624e+002;5.927436e-002
7.424910e+002;5.910194e-002
7.444196e+002;5.827612e-002
7.463481e+002;5.794768e-002
7.482766e+002;5.762547e-002
7.502052e+002;5.782525e-002
7.521337e+002;5.884495e-002
7.540623e+002;5.900795e-002
7.559908e+002;5.841282e-002
7.579194e+002;5.849834e-002
7.598479e+002;5.812458e-002
7.617765e+002;5.769176e-002
7.637050e+002;5.817598e-002
7.656335e+002;5.937339e-002
7.675621e+002;5.983139e-002
7.694907e+002;5.973579e-002
7.714192e+002;5.989825e-002
7.733478e+002;5.995458e-002
7.752763e+002;5.986234e-002
7.772048e+002;5.977773e-002
7.791334e+002;5.978207e-002
7.810620e+002;5.956949e-002
7.829905e+002;6.015947e-002
7.849191e+002;6.139717e-002
7.868476e+002;6.202999e-002
7.887761e+002;6.231457e-002
7.907047e+002;6.322482e-002
7.926332e+002;6.455360e-002
7.945618e+002;6.612573e-002
7.964903e+002;6.799731e-002
7.984189e+002;6.989862e-002
8.003474e+002;7.101847e-002
8.022759e+002;7.212220e-002
8.042045e+002;7.372998e-002
8.061331e+002;7.561395e-002
8.080616e+002;7.770754e-002
8.099902e+002;7.825428e-002
8.119187e+002;7.630028e-002
8.138472e+002;7.304559e-002
8.157758e+002;7.020133e-002
8.177043e+002;6.791776e-002
8.196329e+002;6.666905e-002
8.215615e+002;6.595372e-002
8.234900e+002;6.535435e-002
8.254185e+002;6.508361e-002
8.273471e+002;6.443948e-002
8.292756e+002;6.489616e-002
8.312042e+002;6.622540e-002
8.331328e+002;6.740948e-002
8.350613e+002;6.881869e-002
8.369898e+002;7.178250e-002
8.389184e+002;7.735675e-002
8.408469e+002;8.295289e-002
8.427755e+002;8.253036e-002
8.447040e+002;7.693915e-002
8.466326e+002;7.162081e-002
8.485611e+002;6.834430e-002
8.504897e+002;6.592641e-002
8.524182e+002;6.478775e-002
8.543467e+002;6.423970e-002
8.562753e+002;6.323766e-002
8.582039e+002;6.271438e-002
8.601324e+002;6.232508e-002
8.620610e+002;6.181803e-002
8.639895e+002;6.166276e-002
8.659180e+002;6.164233e-002
8.678466e+002;6.154130e-002
8.697751e+002;6.183522e-002
8.717037e+002;6.224657e-002
8.736323e+002;6.291296e-002
8.755608e+002;6.252749e-002
8.774893e+002;6.171558e-002
8.794179e+002;6.093534e-002
8.813464e+002;5.991768e-002
8.832750e+002;5.987280e-002
8.852036e+002;6.046144e-002
8.871321e+002;6.044845e-002
8.890606e+002;6.098052e-002
8.909892e+002;6.269927e-002
8.929177e+002;6.519016e-002
8.948463e+002;6.886078e-002
8.967748e+002;7.360247e-002
8.987034e+002;7.661100e-002
9.006319e+002;7.620608e-002
9.025605e+002;7.233260e-002
9.044890e+002;6.747635e-002
9.064175e+002;6.353343e-002
9.083461e+002;6.108531e-002
9.102747e+002;5.976629e-002
9.122032e+002;5.853872e-002
9.141318e+002;5.786749e-002
9.160603e+002;5.760420e-002
9.179888e+002;5.718287e-002
9.199174e+002;5.681039e-002
9.218459e+002;5.654438e-002
9.237745e+002;5.645958e-002
9.257031e+002;5.644977e-002
9.276316e+002;5.678935e-002
9.295601e+002;5.676028e-002
9.314887e+002;5.699003e-002
9.334172e+002;5.767360e-002
9.353458e+002;5.868385e-002
9.372744e+002;6.007921e-002
9.392029e+002;6.135408e-002
9.411314e+002;6.210227e-002
9.430600e+002;6.253886e-002
9.449885e+002;6.273961e-002
9.469171e+002;6.278027e-002
9.488456e+002;6.249133e-002
9.507742e+002;6.293410e-002
9.527027e+002;6.380321e-002
9.546313e+002;6.421001e-002
9.565598e+002;6.490354e-002
9.584883e+002;6.600714e-002
9.604169e+002;6.742991e-002
9.623455e+002;6.953029e-002
9.642740e+002;7.250614e-002
9.662026e+002;7.666405e-002
9.681311e+002;8.277550e-002
9.700596e+002;9.002915e-002
9.719882e+002;9.617973e-002
9.739167e+002;9.805901e-002
9.758453e+002;9.449975e-002
9.777739e+002;8.699772e-002
9.797024e+002;7.872696e-002
9.816309e+002;7.199285e-002
9.835595e+002;6.780549e-002
9.854880e+002;6.601512e-002
9.874166e+002;6.592017e-002
9.893452e+002;6.762275e-002
9.912737e+002;7.112048e-002
9.932022e+002;7.653559e-002
9.951307e+002;8.335717e-002
9.970593e+002;8.846925e-002
9.989879e+002;8.887784e-002
1.000916e+003;8.460417e-002
1.002845e+003;7.869726e-002
1.004773e+003;7.381202e-002
1.006702e+003;7.109027e-002
1.008631e+003;6.957329e-002
1.010559e+003;6.891596e-002
1.012488e+003;6.853397e-002
1.014416e+003;6.805644e-002
1.016345e+003;6.788947e-002
1.018273e+003;6.780341e-002
1.020202e+003;6.816125e-002
1.022130e+003;6.861258e-002
1.024059e+003;6.820183e-002
1.025988e+003;6.838723e-002
1.027916e+003;6.949198e-002
1.029845e+003;7.031834e-002
1.031773e+003;7.085598e-002
1.033702e+003;7.170910e-002
1.035630e+003;7.307863e-002
1.037559e+003;7.436945e-002
1.039487e+003;7.499734e-002
1.041416e+003;7.494162e-002
1.043344e+003;7.484142e-002
1.045273e+003;7.457236e-002
1.047202e+003;7.410745e-002
1.049130e+003;7.333477e-002
1.051059e+003;7.273055e-002
1.052987e+003;7.228935e-002
1.054916e+003;7.211684e-002
1.056844e+003;7.169475e-002
1.058773e+003;7.073886e-002
1.060701e+003;7.028212e-002
1.062630e+003;7.045686e-002
1.064558e+003;7.099927e-002
1.066487e+003;7.115924e-002
1.068416e+003;7.088258e-002
1.070344e+003;7.044867e-002
1.072273e+003;7.106975e-002
1.074201e+003;7.174333e-002
1.076130e+003;7.147033e-002
1.078058e+003;7.139311e-002
1.079987e+003;7.184583e-002
1.081915e+003;7.239977e-002
1.083844e+003;7.278253e-002
1.085773e+003;7.342210e-002
1.087701e+003;7.438644e-002
1.089630e+003;7.492780e-002
1.091558e+003;7.502959e-002
1.093487e+003;7.561872e-002
1.095415e+003;7.680824e-002
1.097344e+003;7.887451e-002
1.099272e+003;8.116769e-002
1.101201e+003;8.211349e-002
1.103129e+003;8.167458e-002
1.105058e+003;8.096698e-002
1.106987e+003;7.955634e-002
1.108915e+003;7.778727e-002
1.110844e+003;7.665823e-002
1.112772e+003;7.555795e-002
1.114701e+003;7.404540e-002
1.116629e+003;7.269999e-002
1.118558e+003;7.125156e-002
1.120486e+003;7.058879e-002
1.122415e+003;7.028897e-002
1.124344e+003;6.966715e-002
1.126272e+003;6.914768e-002
1.128201e+003;6.895778e-002
1.130129e+003;6.933674e-002
1.132058e+003;6.988527e-002
1.133986e+003;7.073843e-002
1.135915e+003;7.225961e-002
1.137843e+003;7.383268e-002
1.139772e+003;7.614792e-002
1.141700e+003;7.906344e-002
1.143629e+003;8.204645e-002
1.145557e+003;8.528297e-002
1.147486e+003;8.866903e-002
1.149415e+003;9.143109e-002
1.151343e+003;9.392613e-002
1.153272e+003;9.604930e-002
1.155200e+003;9.702898e-002
1.157129e+003;9.689320e-002
1.159057e+003;9.713816e-002
1.160986e+003;9.801183e-002
1.162914e+003;9.924419e-002
1.164843e+003;1.000979e-001
1.166771e+003;1.002895e-001
1.168700e+003;9.922466e-002
1.170629e+003;9.616353e-002
1.172557e+003;9.190024e-002
1.174486e+003;8.734687e-002
1.176414e+003;8.338238e-002
1.178343e+003;8.022314e-002
1.180271e+003;7.755025e-002
1.182200e+003;7.563394e-002
1.184128e+003;7.470111e-002
1.186057e+003;7.390144e-002
1.187986e+003;7.354614e-002
1.189914e+003;7.367804e-002
1.191843e+003;7.347746e-002
1.193771e+003;7.316101e-002
1.195700e+003;7.298075e-002
1.197628e+003;7.300607e-002
1.199557e+003;7.296080e-002
1.201485e+003;7.270222e-002
1.203414e+003;7.283042e-002
1.205343e+003;7.331264e-002
1.207271e+003;7.377632e-002
1.209200e+003;7.426640e-002
1.211128e+003;7.521902e-002
1.213057e+003;7.625924e-002
1.214985e+003;7.677969e-002
1.216914e+003;7.682948e-002
1.218842e+003;7.722254e-002
1.220771e+003;7.743946e-002
1.222699e+003;7.691783e-002
1.224628e+003;7.661507e-002
1.226557e+003;7.634909e-002
1.228485e+003;7.617979e-002
1.230414e+003;7.655480e-002
1.232342e+003;7.694920e-002
1.234271e+003;7.720584e-002
1.236199e+003;7.729301e-002
1.238128e+003;7.761969e-002
1.240056e+003;7.807558e-002
1.241985e+003;7.836714e-002
1.243913e+003;7.904968e-002
1.245842e+003;8.001136e-002
1.247771e+003;8.073500e-002
1.249699e+003;8.160576e-002
1.251628e+003;8.362518e-002
1.253556e+003;8.582873e-002
1.255485e+003;8.687066e-002
1.257413e+003;8.687985e-002
1.259342e+003;8.557134e-002
1.261270e+003;8.329049e-002
1.263199e+003;8.122034e-002
1.265127e+003;8.000582e-002
1.267056e+003;7.877542e-002
1.268985e+003;7.752716e-002
1.270913e+003;7.689778e-002
1.272842e+003;7.671089e-002
1.274770e+003;7.653804e-002
1.276699e+003;7.621828e-002
1.278627e+003;7.583484e-002
1.280556e+003;7.579788e-002
1.282484e+003;7.596250e-002
1.284413e+003;7.646023e-002
1.286342e+003;7.721071e-002
1.288270e+003;7.790353e-002
1.290199e+003;7.843580e-002
1.292127e+003;7.909377e-002
1.294056e+003;7.984579e-002
1.295984e+003;8.034652e-002
1.297913e+003;8.053055e-002
1.299841e+003;8.037526e-002
1.301770e+003;8.063577e-002
1.303698e+003;8.102268e-002
1.305627e+003;7.985618e-002
1.307556e+003;7.700866e-002
1.309484e+003;7.444193e-002
1.311413e+003;7.348940e-002
1.313341e+003;7.335623e-002
1.315270e+003;7.360200e-002
1.317198e+003;7.412006e-002
1.319127e+003;7.497013e-002
1.321055e+003;7.601053e-002
1.322984e+003;7.707014e-002
1.324912e+003;7.848788e-002
1.326841e+003;7.989103e-002
1.328770e+003;8.076509e-002
1.330698e+003;8.090095e-002
1.332627e+003;8.035461e-002
1.334555e+003;7.946339e-002
1.336484e+003;7.873562e-002
1.338412e+003;7.880240e-002
1.340341e+003;7.955025e-002
1.342269e+003;8.063218e-002
1.344198e+003;8.217690e-002
1.346126e+003;8.396921e-002
1.348055e+003;8.661912e-002
1.349984e+003;9.013875e-002
1.351912e+003;9.414276e-002
1.353841e+003;9.953064e-002
1.355769e+003;1.058758e-001
1.357698e+003;1.109866e-001
1.359626e+003;1.125738e-001
1.361555e+003;1.114713e-001
1.363483e+003;1.108957e-001
1.365412e+003;1.130068e-001
1.367341e+003;1.197045e-001
1.369269e+003;1.329309e-001
1.371198e+003;1.525742e-001
1.373126e+003;1.750187e-001
1.375055e+003;1.919128e-001
1.376983e+003;1.913688e-001
1.378912e+003;1.724574e-001
1.380840e+003;1.477612e-001
1.382769e+003;1.261934e-001
1.384698e+003;1.098385e-001
1.386626e+003;9.859990e-002
1.388555e+003;9.137359e-002
1.390483e+003;8.678022e-002
1.392412e+003;8.365346e-002
1.394340e+003;8.159349e-002
1.396269e+003;8.070508e-002
1.398197e+003;8.037474e-002
1.400126e+003;8.023039e-002
1.402054e+003;8.023538e-002
1.403983e+003;8.033811e-002
1.405911e+003;8.086862e-002
1.407840e+003;8.134671e-002
1.409769e+003;8.142875e-002
1.411697e+003;8.202055e-002
1.413626e+003;8.262798e-002
1.415554e+003;8.275221e-002
1.417483e+003;8.253574e-002
1.419411e+003;8.256731e-002
1.421340e+003;8.322351e-002
1.423268e+003;8.414903e-002
1.425197e+003;8.587988e-002
1.427125e+003;8.883666e-002
1.429054e+003;9.364330e-002
1.430983e+003;1.008104e-001
1.432911e+003;1.094745e-001
1.434840e+003;1.158497e-001
1.436768e+003;1.184270e-001
1.438697e+003;1.201711e-001
1.440625e+003;1.228602e-001
1.442554e+003;1.271983e-001
1.444482e+003;1.341614e-001
1.446411e+003;1.427467e-001
1.448340e+003;1.511719e-001
1.450268e+003;1.579346e-001
1.452197e+003;1.621041e-001
1.454125e+003;1.638865e-001
1.456054e+003;1.634788e-001
1.457982e+003;1.619355e-001
1.459911e+003;1.599229e-001
1.461839e+003;1.560136e-001
1.463768e+003;1.493600e-001
1.465697e+003;1.406093e-001
1.467625e+003;1.310111e-001
1.469554e+003;1.210101e-001
1.471482e+003;1.114307e-001
1.473411e+003;1.029451e-001
1.475339e+003;9.582929e-002
1.477268e+003;8.987430e-002
1.479196e+003;8.496913e-002
1.481125e+003;8.085580e-002
1.483053e+003;7.738130e-002
1.484982e+003;7.416404e-002
1.486911e+003;7.154791e-002
1.488839e+003;7.006679e-002
1.490768e+003;6.918386e-002
1.492696e+003;6.839584e-002
1.494625e+003;6.752404e-002
1.496553e+003;6.661586e-002
1.498482e+003;6.606195e-002
1.500410e+003;6.566771e-002
1.502339e+003;6.534050e-002
1.504267e+003;6.499512e-002
1.506196e+003;6.452035e-002
1.508125e+003;6.463926e-002
1.510053e+003;6.513407e-002
1.511982e+003;6.555083e-002
1.513910e+003;6.589834e-002
1.515839e+003;6.622914e-002
1.517767e+003;6.641334e-002
1.519696e+003;6.616805e-002
1.521624e+003;6.609803e-002
1.523553e+003;6.647277e-002
1.525481e+003;6.670444e-002
1.527410e+003;6.730748e-002
1.529339e+003;6.776037e-002
1.531267e+003;6.826763e-002
1.533196e+003;6.916688e-002
1.535124e+003;7.016986e-002
1.537053e+003;7.063998e-002
1.538981e+003;7.081596e-002
1.540910e+003;7.187918e-002
1.542838e+003;7.337572e-002
1.544767e+003;7.444268e-002
1.546695e+003;7.507654e-002
1.548624e+003;7.512692e-002
1.550553e+003;7.492764e-002
1.552481e+003;7.471921e-002
1.554410e+003;7.417984e-002
1.556338e+003;7.286999e-002
1.558267e+003;7.076015e-002
1.560195e+003;6.946526e-002
1.562124e+003;6.886388e-002
1.564052e+003;6.780709e-002
1.565981e+003;6.687091e-002
1.567910e+003;6.616570e-002
1.569838e+003;6.534258e-002
1.571767e+003;6.477990e-002
1.573695e+003;6.415896e-002
1.575624e+003;6.357784e-002
1.577552e+003;6.365629e-002
1.579481e+003;6.379423e-002
1.581409e+003;6.362636e-002
1.583338e+003;6.374415e-002
1.585266e+003;6.394865e-002
1.587195e+003;6.384470e-002
1.589124e+003;6.358071e-002
1.591052e+003;6.372359e-002
1.592981e+003;6.414713e-002
1.594909e+003;6.429499e-002
1.596838e+003;6.432534e-002
1.598766e+003;6.476371e-002
1.600695e+003;6.535582e-002
1.602623e+003;6.599016e-002
1.604552e+003;6.685974e-002
1.606480e+003;6.772474e-002
1.608409e+003;6.834542e-002
1.610338e+003;6.904656e-002
1.612266e+003;6.984811e-002
1.614195e+003;7.073313e-002
1.616123e+003;7.159686e-002
1.618052e+003;7.279018e-002
1.619980e+003;7.394383e-002
1.621909e+003;7.506709e-002
1.623837e+003;7.642013e-002
1.625766e+003;7.783610e-002
1.627694e+003;7.921591e-002
1.629623e+003;8.055990e-002
1.631552e+003;8.164467e-002
1.633480e+003;8.272491e-002
1.635409e+003;8.356107e-002
1.637337e+003;8.466835e-002
1.639266e+003;8.604479e-002
1.641194e+003;8.754572e-002
1.643123e+003;8.907545e-002
1.645051e+003;9.041139e-002
1.646980e+003;9.172030e-002
1.648909e+003;9.304614e-002
1.650837e+003;9.331638e-002
1.652766e+003;9.306773e-002
1.654694e+003;9.330652e-002
1.656623e+003;9.291188e-002
1.658551e+003;9.182484e-002
1.660480e+003;9.044289e-002
1.662408e+003;8.876552e-002
1.664337e+003;8.718649e-002
1.666266e+003;8.560225e-002
1.668194e+003;8.393376e-002
1.670123e+003;8.247107e-002
1.672051e+003;8.136865e-002
1.673980e+003;8.012937e-002
1.675908e+003;7.892306e-002
1.677837e+003;7.778588e-002
1.679765e+003;7.656049e-002
1.681694e+003;7.525003e-002
1.683622e+003;7.336670e-002
1.685551e+003;7.202911e-002
1.687479e+003;7.109765e-002
1.689408e+003;7.018587e-002
1.691337e+003;6.944560e-002
1.693265e+003;6.858096e-002
1.695194e+003;6.756248e-002
1.697122e+003;6.730121e-002
1.699051e+003;6.678589e-002
1.700979e+003;6.636871e-002
1.702908e+003;6.671073e-002
1.704836e+003;6.694118e-002
1.706765e+003;6.693152e-002
1.708693e+003;6.685201e-002
1.710622e+003;6.679057e-002
1.712551e+003;6.636497e-002
1.714479e+003;6.561495e-002
1.716408e+003;6.499262e-002
1.718336e+003;6.472929e-002
1.720265e+003;6.473994e-002
1.722193e+003;6.506767e-002
1.724122e+003;6.535131e-002
1.726050e+003;6.554917e-002
1.727979e+003;6.580757e-002
1.729908e+003;6.629834e-002
1.731836e+003;6.685425e-002
1.733765e+003;6.771944e-002
1.735693e+003;6.917364e-002
1.737622e+003;7.002564e-002
1.739550e+003;7.021831e-002
1.741479e+003;6.984149e-002
1.743407e+003;6.856176e-002
1.745336e+003;6.642555e-002
1.747265e+003;6.367440e-002
1.749193e+003;6.054858e-002
1.751122e+003;5.711465e-002
1.753050e+003;5.382462e-002
1.754979e+003;5.065925e-002
1.756907e+003;4.755212e-002
1.758836e+003;4.473441e-002
1.760764e+003;4.229410e-002
1.762693e+003;4.045486e-002
1.764621e+003;3.901983e-002
1.766550e+003;3.781507e-002
1.768479e+003;3.709443e-002
1.770407e+003;3.649120e-002
1.772336e+003;3.577765e-002
1.774264e+003;3.521541e-002
1.776193e+003;3.478105e-002
1.778121e+003;3.428413e-002
1.780050e+003;3.368923e-002
1.781978e+003;3.315625e-002
1.783907e+003;3.267972e-002
1.785835e+003;3.210549e-002
1.787764e+003;3.145855e-002
1.789693e+003;3.088170e-002
1.791621e+003;3.017630e-002
1.793550e+003;2.984306e-002
1.795478e+003;2.973990e-002
1.797407e+003;2.921727e-002
1.799335e+003;2.862802e-002
1.801264e+003;2.806425e-002
1.803192e+003;2.748492e-002
1.805121e+003;2.719141e-002
1.807049e+003;2.724090e-002
1.808978e+003;2.713356e-002
1.810907e+003;2.684677e-002
1.812835e+003;2.679545e-002
1.814764e+003;2.666528e-002
1.816692e+003;2.645535e-002
1.818621e+003;2.638454e-002
1.820549e+003;2.607748e-002
1.822478e+003;2.599136e-002
1.824406e+003;2.613170e-002
1.826335e+003;2.607094e-002
1.828264e+003;2.592368e-002
1.830192e+003;2.597556e-002
1.832121e+003;2.592393e-002
1.834049e+003;2.585686e-002
1.835978e+003;2.599695e-002
1.837906e+003;2.577697e-002
1.839835e+003;2.531581e-002
1.841763e+003;2.509080e-002
1.843692e+003;2.502126e-002
1.845620e+003;2.510891e-002
1.847549e+003;2.503333e-002
1.849478e+003;2.499136e-002
1.851406e+003;2.495338e-002
1.853335e+003;2.481282e-002
1.855263e+003;2.469566e-002
1.857192e+003;2.456476e-002
1.859120e+003;2.427531e-002
1.861049e+003;2.414064e-002
1.862977e+003;2.424427e-002
1.864906e+003;2.428564e-002
1.866834e+003;2.423253e-002
1.868763e+003;2.410274e-002
1.870692e+003;2.404545e-002
1.872620e+003;2.407518e-002
1.874549e+003;2.404765e-002
1.876477e+003;2.393171e-002
1.878406e+003;2.388799e-002
1.880334e+003;2.402730e-002
1.882263e+003;2.403532e-002
1.884191e+003;2.395125e-002
1.886120e+003;2.394281e-002
1.888048e+003;2.410239e-002
1.889977e+003;2.450880e-002
1.891906e+003;2.459018e-002
1.893834e+003;2.443231e-002
1.895763e+003;2.438710e-002
1.897691e+003;2.430919e-002
1.899620e+003;2.428677e-002
1.901548e+003;2.425919e-002
1.903477e+003;2.393028e-002
1.905405e+003;2.353711e-002
1.907334e+003;2.345670e-002
1.909262e+003;2.343571e-002
1.911191e+003;2.344005e-002
1.913120e+003;2.361473e-002
1.915048e+003;2.355712e-002
1.916977e+003;2.345110e-002
1.918905e+003;2.365976e-002
1.920834e+003;2.350643e-002
1.922762e+003;2.342396e-002
1.924691e+003;2.350209e-002
1.926619e+003;2.348775e-002
1.928548e+003;2.344411e-002
1.930477e+003;2.322090e-002
1.932405e+003;2.289864e-002
1.934334e+003;2.285314e-002
1.936262e+003;2.280386e-002
1.938191e+003;2.257575e-002
1.940119e+003;2.242040e-002
1.942048e+003;2.241593e-002
1.943976e+003;2.253778e-002
1.945905e+003;2.233608e-002
1.947833e+003;2.225735e-002
1.949762e+003;2.235959e-002
1.951691e+003;2.245839e-002
1.953619e+003;2.236185e-002
1.955548e+003;2.240735e-002
1.957476e+003;2.248529e-002
1.959405e+003;2.241628e-002
1.961333e+003;2.244855e-002
1.963262e+003;2.231085e-002
1.965190e+003;2.220518e-002
1.967119e+003;2.214377e-002
1.969047e+003;2.215008e-002
1.970976e+003;2.198094e-002
1.972905e+003;2.182743e-002
1.974833e+003;2.200889e-002
1.976762e+003;2.213032e-002
1.978690e+003;2.213900e-002
1.980619e+003;2.206024e-002
1.982547e+003;2.211313e-002
1.984476e+003;2.229390e-002
1.986404e+003;2.233458e-002
1.988333e+003;2.228832e-002
1.990261e+003;2.231508e-002
1.992190e+003;2.231068e-002
1.994119e+003;2.211567e-002
1.996047e+003;2.192584e-002
1.997976e+003;2.178336e-002
1.999904e+003;2.192037e-002
2.001833e+003;2.187433e-002
2.003761e+003;2.166500e-002
2.005690e+003;2.157581e-002
2.007618e+003;2.177193e-002
2.009547e+003;2.199683e-002
2.011476e+003;2.208904e-002
2.013404e+003;2.204996e-002
2.015333e+003;2.202827e-002
2.017261e+003;2.193605e-002
2.019190e+003;2.186569e-002
2.021118e+003;2.189897e-002
2.023047e+003;2.175615e-002
2.024975e+003;2.173919e-002
2.026904e+003;2.169714e-002
2.028833e+003;2.142412e-002
2.030761e+003;2.127825e-002
2.032690e+003;2.138367e-002
2.034618e+003;2.142454e-002
2.036547e+003;2.150032e-002
2.038475e+003;2.160147e-002
2.040404e+003;2.174518e-002
2.042332e+003;2.194037e-002
2.044261e+003;2.198572e-002
2.046189e+003;2.188315e-002
2.048118e+003;2.176416e-002
2.050047e+003;2.172564e-002
2.051975e+003;2.171672e-002
2.053904e+003;2.166677e-002
2.055832e+003;2.169836e-002
2.057761e+003;2.166500e-002
2.059689e+003;2.152546e-002
2.061618e+003;2.143773e-002
2.063546e+003;2.120219e-002
2.065475e+003;2.116692e-002
2.067404e+003;2.150958e-002
2.069332e+003;2.173473e-002
2.071260e+003;2.152999e-002
2.073189e+003;2.133616e-002
2.075118e+003;2.155499e-002
2.077046e+003;2.175932e-002
2.078975e+003;2.169763e-002
2.080903e+003;2.164152e-002
2.082832e+003;2.159520e-002
2.084760e+003;2.167276e-002
2.086689e+003;2.193072e-002
2.088617e+003;2.198136e-002
2.090546e+003;2.186879e-002
2.092475e+003;2.191779e-002
2.094403e+003;2.209904e-002
2.096332e+003;2.196107e-002
2.098260e+003;2.178925e-002
2.100189e+003;2.190123e-002
2.102117e+003;2.201503e-002
2.104046e+003;2.194340e-002
2.105974e+003;2.208482e-002
2.107903e+003;2.209953e-002
2.109832e+003;2.196257e-002
2.111760e+003;2.189444e-002
2.113688e+003;2.188454e-002
2.115617e+003;2.202939e-002
2.117546e+003;2.207913e-002
2.119474e+003;2.184033e-002
2.121403e+003;2.193298e-002
2.123331e+003;2.226516e-002
2.125260e+003;2.257352e-002
2.127188e+003;2.291684e-002
2.129117e+003;2.329089e-002
2.131045e+003;2.364041e-002
2.132974e+003;2.384244e-002
2.134903e+003;2.384678e-002
2.136831e+003;2.369958e-002
2.138760e+003;2.342036e-002
2.140688e+003;2.310134e-002
2.142617e+003;2.309114e-002
2.144545e+003;2.308181e-002
2.146474e+003;2.301626e-002
2.148402e+003;2.305592e-002
2.150331e+003;2.309963e-002
2.152260e+003;2.320671e-002
2.154188e+003;2.322381e-002
2.156117e+003;2.307206e-002
2.158045e+003;2.289330e-002
2.159974e+003;2.304785e-002
2.161902e+003;2.342638e-002
2.163831e+003;2.371536e-002
2.165759e+003;2.384563e-002
2.167688e+003;2.393091e-002
2.169616e+003;2.396098e-002
2.171545e+003;2.426164e-002
2.173474e+003;2.451392e-002
2.175402e+003;2.441703e-002
2.177331e+003;2.424468e-002
2.179259e+003;2.426592e-002
2.181188e+003;2.424441e-002
2.183116e+003;2.410169e-002
2.185045e+003;2.402230e-002
2.186973e+003;2.396991e-002
2.188902e+003;2.401757e-002
2.190831e+003;2.414849e-002
2.192759e+003;2.409132e-002
2.194688e+003;2.393903e-002
2.196616e+003;2.392559e-002
2.198545e+003;2.410901e-002
2.200473e+003;2.405630e-002
2.202402e+003;2.373675e-002
2.204330e+003;2.373262e-002
2.206259e+003;2.364094e-002
2.208188e+003;2.340309e-002
2.210116e+003;2.342078e-002
2.212044e+003;2.354813e-002
2.213973e+003;2.350951e-002
2.215902e+003;2.348209e-002
2.217830e+003;2.362743e-002
2.219759e+003;2.372247e-002
2.221687e+003;2.365161e-002
2.223616e+003;2.356635e-002
2.225544e+003;2.386226e-002
2.227473e+003;2.410264e-002
2.229401e+003;2.407630e-002
2.231330e+003;2.389362e-002
2.233259e+003;2.381105e-002
2.235187e+003;2.377181e-002
2.237116e+003;2.377944e-002
2.239044e+003;2.383593e-002
2.240973e+003;2.378116e-002
2.242901e+003;2.382389e-002
2.244830e+003;2.397660e-002
2.246758e+003;2.399194e-002
2.248687e+003;2.405364e-002
2.250615e+003;2.407637e-002
2.252544e+003;2.402801e-002
2.254473e+003;2.439067e-002
2.256401e+003;2.476792e-002
2.258330e+003;2.482043e-002
2.260258e+003;2.454175e-002
2.262187e+003;2.434658e-002
2.264115e+003;2.450600e-002
2.266044e+003;2.447560e-002
2.267972e+003;2.437798e-002
2.269901e+003;2.432759e-002
2.271830e+003;2.405115e-002
2.273758e+003;2.393297e-002
2.275687e+003;2.388018e-002
2.277615e+003;2.369766e-002
2.279544e+003;2.361400e-002
2.281472e+003;2.363667e-002
2.283401e+003;2.373401e-002
2.285329e+003;2.385239e-002
2.287258e+003;2.371372e-002
2.289187e+003;2.356215e-002
2.291115e+003;2.335326e-002
2.293043e+003;2.327918e-002
2.294972e+003;2.355939e-002
2.296901e+003;2.360357e-002
2.298829e+003;2.354354e-002
2.300758e+003;2.372597e-002
2.302686e+003;2.388960e-002
2.304615e+003;2.397373e-002
2.306543e+003;2.392912e-002
2.308472e+003;2.386999e-002
2.310400e+003;2.377857e-002
2.312329e+003;2.359595e-002
2.314258e+003;2.383317e-002
2.316186e+003;2.438317e-002
2.318115e+003;2.439106e-002
2.320043e+003;2.435962e-002
2.321972e+003;2.448650e-002
2.323900e+003;2.450449e-002
2.325829e+003;2.477556e-002
2.327757e+003;2.493735e-002
2.329686e+003;2.474298e-002
2.331615e+003;2.509982e-002
2.333543e+003;2.537411e-002
2.335472e+003;2.528395e-002
2.337400e+003;2.534910e-002
2.339329e+003;2.554483e-002
2.341257e+003;2.568328e-002
2.343186e+003;2.576115e-002
2.345114e+003;2.584174e-002
2.347043e+003;2.579216e-002
2.348971e+003;2.609634e-002
2.350900e+003;2.623834e-002
2.352829e+003;2.602179e-002
2.354757e+003;2.619090e-002
2.356686e+003;2.647328e-002
2.358614e+003;2.637348e-002
2.360543e+003;2.635433e-002
2.362471e+003;2.656450e-002
2.364400e+003;2.649145e-002
2.366328e+003;2.634208e-002
2.368257e+003;2.665228e-002
2.370186e+003;2.707459e-002
2.372114e+003;2.688653e-002
2.374042e+003;2.653840e-002
2.375971e+003;2.634141e-002
2.377900e+003;2.633983e-002
2.379828e+003;2.656235e-002
2.381757e+003;2.690786e-002
2.383685e+003;2.702706e-002
2.385614e+003;2.688695e-002
2.387542e+003;2.656964e-002
2.389471e+003;2.648972e-002
2.391399e+003;2.682763e-002
2.393328e+003;2.720876e-002
2.395257e+003;2.761092e-002
2.397185e+003;2.755373e-002
2.399114e+003;2.755613e-002
2.401042e+003;2.794242e-002
2.402971e+003;2.810164e-002
2.404899e+003;2.792455e-002
2.406828e+003;2.781545e-002
2.408756e+003;2.772495e-002
2.410685e+003;2.756817e-002
2.412614e+003;2.781576e-002
2.414542e+003;2.788465e-002
2.416471e+003;2.781085e-002
2.418399e+003;2.800077e-002
2.420328e+003;2.812246e-002
2.422256e+003;2.835170e-002
2.424185e+003;2.857016e-002
2.426113e+003;2.827941e-002
2.428042e+003;2.808955e-002
2.429970e+003;2.827255e-002
2.431899e+003;2.859299e-002
2.433828e+003;2.866579e-002
2.435756e+003;2.829469e-002
2.437685e+003;2.794235e-002
2.439613e+003;2.802678e-002
2.441542e+003;2.799073e-002
2.443470e+003;2.779679e-002
2.445399e+003;2.782057e-002
2.447327e+003;2.784261e-002
2.449256e+003;2.756693e-002
2.451185e+003;2.744797e-002
2.453113e+003;2.761700e-002
2.455042e+003;2.776910e-002
2.456970e+003;2.760305e-002
2.458899e+003;2.744744e-002
2.460827e+003;2.720178e-002
2.462756e+003;2.693965e-002
2.464684e+003;2.699413e-002
2.466613e+003;2.755136e-002
2.468542e+003;2.794744e-002
2.470470e+003;2.777535e-002
2.472398e+003;2.775748e-002
2.474327e+003;2.790935e-002
2.476256e+003;2.802261e-002
2.478184e+003;2.819384e-002
2.480113e+003;2.845740e-002
2.482041e+003;2.840865e-002
2.483970e+003;2.847813e-002
2.485898e+003;2.864717e-002
2.487827e+003;2.859101e-002
2.489755e+003;2.864664e-002
2.491684e+003;2.863308e-002
2.493613e+003;2.847282e-002
2.495541e+003;2.826361e-002
2.497470e+003;2.823206e-002
2.499398e+003;2.851277e-002
2.501327e+003;2.859168e-002
2.503255e+003;2.835962e-002
2.505184e+003;2.833462e-002
2.507112e+003;2.838495e-002
2.509041e+003;2.877036e-002
2.510969e+003;2.925186e-002
2.512898e+003;2.936735e-002
2.514827e+003;2.970818e-002
2.516755e+003;2.998576e-002
2.518684e+003;3.023449e-002
2.520612e+003;3.046836e-002
2.522541e+003;3.081852e-002
2.524469e+003;3.124334e-002
2.526398e+003;3.149906e-002
2.528326e+003;3.176156e-002
2.530255e+003;3.187063e-002
2.532184e+003;3.198317e-002
2.534112e+003;3.231714e-002
2.536041e+003;3.246418e-002
2.537969e+003;3.256217e-002
2.539898e+003;3.279126e-002
2.541826e+003;3.300403e-002
2.543755e+003;3.318858e-002
2.545683e+003;3.343844e-002
2.547612e+003;3.389427e-002
2.549541e+003;3.447023e-002
2.551469e+003;3.492165e-002
2.553397e+003;3.514836e-002
2.555326e+003;3.526270e-002
2.557255e+003;3.546438e-002
2.559183e+003;3.569149e-002
2.561112e+003;3.605165e-002
2.563040e+003;3.650086e-002
2.564969e+003;3.681614e-002
2.566897e+003;3.750589e-002
2.568826e+003;3.814950e-002
2.570754e+003;3.845906e-002
2.572683e+003;3.873540e-002
2.574612e+003;3.930179e-002
2.576540e+003;4.013432e-002
2.578469e+003;4.074307e-002
2.580397e+003;4.134182e-002
2.582326e+003;4.158850e-002
2.584254e+003;4.120718e-002
2.586183e+003;4.069951e-002
2.588111e+003;4.009816e-002
2.590040e+003;3.931619e-002
2.591969e+003;3.917566e-002
2.593897e+003;3.906728e-002
2.595826e+003;3.870175e-002
2.597754e+003;3.850602e-002
2.599683e+003;3.856482e-002
2.601611e+003;3.873881e-002
2.603540e+003;3.896459e-002
2.605468e+003;3.933422e-002
2.607397e+003;3.965821e-002
2.609325e+003;4.003290e-002
2.611254e+003;4.035773e-002
2.613183e+003;4.073965e-002
2.615111e+003;4.110220e-002
2.617040e+003;4.094899e-002
2.618968e+003;4.072091e-002
2.620897e+003;4.062146e-002
2.622825e+003;4.059662e-002
2.624754e+003;4.054052e-002
2.626682e+003;4.027942e-002
2.628611e+003;4.005681e-002
2.630540e+003;3.994596e-002
2.632468e+003;4.006869e-002
2.634396e+003;4.044984e-002
2.636325e+003;4.057107e-002
2.638254e+003;4.011905e-002
2.640182e+003;4.000583e-002
2.642111e+003;4.058610e-002
2.644039e+003;4.117556e-002
2.645968e+003;4.154048e-002
2.647896e+003;4.198505e-002
2.649825e+003;4.239317e-002
2.651753e+003;4.257699e-002
2.653682e+003;4.302192e-002
2.655611e+003;4.345746e-002
2.657539e+003;4.376075e-002
2.659468e+003;4.396921e-002
2.661396e+003;4.397094e-002
2.663325e+003;4.390803e-002
2.665253e+003;4.403298e-002
2.667182e+003;4.421391e-002
2.669110e+003;4.433447e-002
2.671039e+003;4.425932e-002
2.672968e+003;4.429495e-002
2.674896e+003;4.464708e-002
2.676825e+003;4.512873e-002
2.678753e+003;4.540034e-002
2.680682e+003;4.526654e-002
2.682610e+003;4.500457e-002
2.684539e+003;4.500578e-002
2.686467e+003;4.530662e-002
2.688396e+003;4.559704e-002
2.690324e+003;4.582365e-002
2.692253e+003;4.580256e-002
2.694182e+003;4.550505e-002
2.696110e+003;4.533255e-002
2.698039e+003;4.589226e-002
2.699967e+003;4.653485e-002
2.701896e+003;4.690352e-002
2.703824e+003;4.749180e-002
2.705753e+003;4.812307e-002
2.707681e+003;4.893842e-002
2.709610e+003;4.987954e-002
2.711539e+003;5.089891e-002
2.713467e+003;5.224101e-002
2.715396e+003;5.350204e-002
2.717324e+003;5.504975e-002
2.719253e+003;5.664928e-002
2.721181e+003;5.771110e-002
2.723110e+003;5.855688e-002
2.725038e+003;5.829302e-002
2.726967e+003;5.674498e-002
2.728896e+003;5.542739e-002
2.730824e+003;5.435054e-002
2.732752e+003;5.313813e-002
2.734681e+003;5.203725e-002
2.736610e+003;5.138994e-002
2.738538e+003;5.068487e-002
2.740467e+003;5.002358e-002
2.742395e+003;4.951029e-002
2.744324e+003;4.867252e-002
2.746252e+003;4.777185e-002
2.748181e+003;4.741104e-002
2.750109e+003;4.750784e-002
2.752038e+003;4.778276e-002
2.753967e+003;4.799068e-002
2.755895e+003;4.806051e-002
2.757824e+003;4.831519e-002
2.759752e+003;4.898329e-002
2.761681e+003;4.944617e-002
2.763609e+003;4.983546e-002
2.765538e+003;5.025125e-002
2.767466e+003;5.061416e-002
2.769395e+003;5.098230e-002
2.771323e+003;5.134008e-002
2.773252e+003;5.199265e-002
2.775181e+003;5.243986e-002
2.777109e+003;5.270595e-002
2.779038e+003;5.366930e-002
2.780966e+003;5.512404e-002
2.782895e+003;5.626329e-002
2.784823e+003;5.738566e-002
2.786752e+003;5.895781e-002
2.788680e+003;6.063563e-002
2.790609e+003;6.206382e-002
2.792538e+003;6.347144e-002
2.794466e+003;6.494610e-002
2.796395e+003;6.631224e-002
2.798323e+003;6.748734e-002
2.800252e+003;6.882742e-002
2.802180e+003;7.062539e-002
2.804109e+003;7.287434e-002
2.806037e+003;7.503688e-002
2.807966e+003;7.675047e-002
2.809895e+003;7.824694e-002
2.811823e+003;7.974672e-002
2.813751e+003;8.142976e-002
2.815680e+003;8.310870e-002
2.817609e+003;8.478241e-002
2.819537e+003;8.698703e-002
2.821466e+003;8.976498e-002
2.823394e+003;9.277135e-002
2.825323e+003;9.641304e-002
2.827251e+003;1.012540e-001
2.829180e+003;1.074967e-001
2.831108e+003;1.146686e-001
2.833037e+003;1.216840e-001
2.834966e+003;1.272622e-001
2.836894e+003;1.307978e-001
2.838823e+003;1.313396e-001
2.840751e+003;1.294878e-001
2.842680e+003;1.264692e-001
2.844608e+003;1.228253e-001
2.846537e+003;1.194759e-001
2.848465e+003;1.172218e-001
2.850394e+003;1.162464e-001
2.852323e+003;1.156553e-001
2.854251e+003;1.155908e-001
2.856180e+003;1.164722e-001
2.858108e+003;1.185153e-001
2.860037e+003;1.221688e-001
2.861965e+003;1.276124e-001
2.863894e+003;1.336720e-001
2.865822e+003;1.382687e-001
2.867751e+003;1.402805e-001
2.869679e+003;1.402282e-001
2.871608e+003;1.392724e-001
2.873536e+003;1.387227e-001
2.875465e+003;1.387511e-001
2.877394e+003;1.380242e-001
2.879322e+003;1.368183e-001
2.881251e+003;1.356425e-001
2.883179e+003;1.349643e-001
2.885108e+003;1.353546e-001
2.887036e+003;1.361862e-001
2.888965e+003;1.369523e-001
2.890893e+003;1.382327e-001
2.892822e+003;1.405351e-001
2.894750e+003;1.436253e-001
2.896679e+003;1.472168e-001
2.898608e+003;1.515815e-001
2.900536e+003;1.562473e-001
2.902465e+003;1.607752e-001
2.904393e+003;1.654505e-001
2.906322e+003;1.700719e-001
2.908250e+003;1.741306e-001
2.910179e+003;1.778720e-001
2.912107e+003;1.812913e-001
2.914036e+003;1.844621e-001
2.915965e+003;1.872150e-001
2.917893e+003;1.882730e-001
2.919822e+003;1.870209e-001
2.921750e+003;1.834515e-001
2.923679e+003;1.790493e-001
2.925607e+003;1.733852e-001
2.927536e+003;1.663001e-001
2.929464e+003;1.591519e-001
2.931393e+003;1.521121e-001
2.933322e+003;1.448697e-001
2.935250e+003;1.384441e-001
2.937178e+003;1.337796e-001
2.939107e+003;1.315734e-001
2.941036e+003;1.325447e-001
2.942964e+003;1.365638e-001
2.944893e+003;1.425717e-001
2.946821e+003;1.491404e-001
2.948750e+003;1.547185e-001
2.950678e+003;1.575114e-001
2.952607e+003;1.571843e-001
2.954535e+003;1.542406e-001
2.956464e+003;1.499367e-001
2.958393e+003;1.454769e-001
2.960321e+003;1.407685e-001
2.962250e+003;1.358640e-001
2.964178e+003;1.302118e-001
2.966107e+003;1.236430e-001
2.968035e+003;1.167861e-001
2.969964e+003;1.108341e-001
2.971892e+003;1.058140e-001
2.973821e+003;1.008632e-001
2.975750e+003;9.623167e-002
2.977678e+003;9.197903e-002
2.979607e+003;8.801844e-002
2.981535e+003;8.529733e-002
2.983464e+003;8.310015e-002
2.985392e+003;8.053397e-002
2.987321e+003;7.820636e-002
2.989249e+003;7.634132e-002
2.991178e+003;7.464968e-002
2.993106e+003;7.265025e-002
2.995035e+003;7.076924e-002
2.996964e+003;6.915484e-002
2.998892e+003;6.727081e-002
3.000821e+003;6.527183e-002
3.002749e+003;6.350619e-002
3.004678e+003;6.232026e-002
3.006606e+003;6.125849e-002
3.008535e+003;5.989574e-002
3.010463e+003;5.853197e-002
3.012392e+003;5.710395e-002
3.014321e+003;5.566887e-002
3.016249e+003;5.472291e-002
3.018177e+003;5.360692e-002
3.020106e+003;5.258225e-002
3.022035e+003;5.176228e-002
3.023963e+003;5.100521e-002
3.025892e+003;5.021573e-002
3.027820e+003;4.968471e-002
3.029749e+003;4.916307e-002
3.031677e+003;4.863030e-002
3.033606e+003;4.811503e-002
3.035534e+003;4.764296e-002
3.037463e+003;4.730436e-002
3.039392e+003;4.705855e-002
3.041320e+003;4.658977e-002
3.043249e+003;4.570577e-002
3.045177e+003;4.559123e-002
3.047106e+003;4.596356e-002
3.049034e+003;4.599888e-002
3.050963e+003;4.567116e-002
3.052891e+003;4.533498e-002
3.054820e+003;4.507844e-002
3.056749e+003;4.510002e-002
3.058677e+003;4.506808e-002
3.060606e+003;4.472328e-002
3.062534e+003;4.458547e-002
3.064463e+003;4.451178e-002
3.066391e+003;4.439924e-002
3.068320e+003;4.438368e-002
3.070248e+003;4.418984e-002
3.072177e+003;4.411557e-002
3.074105e+003;4.399470e-002
3.076034e+003;4.367699e-002
3.077963e+003;4.325390e-002
3.079891e+003;4.352954e-002
3.081820e+003;4.376409e-002
3.083748e+003;4.375892e-002
3.085677e+003;4.366273e-002
3.087605e+003;4.337068e-002
3.089534e+003;4.323084e-002
3.091462e+003;4.348980e-002
3.093391e+003;4.339953e-002
3.095320e+003;4.296054e-002
3.097248e+003;4.313960e-002
3.099177e+003;4.331129e-002
3.101105e+003;4.302178e-002
3.103034e+003;4.284570e-002
3.104962e+003;4.285835e-002
3.106891e+003;4.292012e-002
3.108819e+003;4.293165e-002
3.110748e+003;4.283250e-002
3.112677e+003;4.295085e-002
3.114605e+003;4.325455e-002
3.116533e+003;4.353712e-002
3.118462e+003;4.312053e-002
3.120391e+003;4.253566e-002
3.122319e+003;4.288198e-002
3.124248e+003;4.337793e-002
3.126176e+003;4.324003e-002
3.128105e+003;4.327418e-002
3.130033e+003;4.392643e-002
3.131962e+003;4.385315e-002
3.133890e+003;4.369256e-002
3.135819e+003;4.388123e-002
3.137748e+003;4.384234e-002
3.139676e+003;4.411648e-002
3.141605e+003;4.435091e-002
3.143533e+003;4.459619e-002
3.145462e+003;4.492295e-002
3.147390e+003;4.482114e-002
3.149319e+003;4.499898e-002
3.151247e+003;4.518072e-002
3.153176e+003;4.512862e-002
3.155104e+003;4.543926e-002
3.157033e+003;4.552532e-002
3.158962e+003;4.532155e-002
3.160890e+003;4.529544e-002
3.162819e+003;4.545644e-002
3.164747e+003;4.595001e-002
3.166676e+003;4.591266e-002
3.168604e+003;4.566377e-002
3.170533e+003;4.556955e-002
3.172461e+003;4.544805e-002
3.174390e+003;4.553216e-002
3.176319e+003;4.583868e-002
3.178247e+003;4.630138e-002
3.180176e+003;4.632633e-002
3.182104e+003;4.650678e-002
3.184033e+003;4.668321e-002
3.185961e+003;4.660072e-002
3.187890e+003;4.677926e-002
3.189818e+003;4.746075e-002
3.191747e+003;4.734781e-002
3.193676e+003;4.669823e-002
3.195604e+003;4.668845e-002
3.197532e+003;4.739293e-002
3.199461e+003;4.770886e-002
3.201390e+003;4.742183e-002
3.203318e+003;4.747428e-002
3.205247e+003;4.770779e-002
3.207175e+003;4.759782e-002
3.209104e+003;4.787095e-002
3.211032e+003;4.752532e-002
3.212961e+003;4.677077e-002
3.214889e+003;4.651084e-002
3.216818e+003;4.665454e-002
3.218747e+003;4.711752e-002
3.220675e+003;4.739988e-002
3.222604e+003;4.699777e-002
3.224532e+003;4.682484e-002
3.226461e+003;4.692217e-002
3.228389e+003;4.655130e-002
3.230318e+003;4.602047e-002
3.232246e+003;4.594853e-002
3.234175e+003;4.608889e-002
3.236104e+003;4.584545e-002
3.238032e+003;4.593940e-002
3.239961e+003;4.617238e-002
3.241889e+003;4.652832e-002
3.243818e+003;4.697754e-002
3.245746e+003;4.683982e-002
3.247675e+003;4.644450e-002
3.249603e+003;4.616700e-002
3.251532e+003;4.640235e-002
3.253460e+003;4.669184e-002
3.255389e+003;4.675870e-002
3.257318e+003;4.714378e-002
3.259246e+003;4.742693e-002
3.261175e+003;4.794257e-002
3.263103e+003;4.821843e-002
3.265032e+003;4.817667e-002
3.266960e+003;4.782104e-002
3.268889e+003;4.746289e-002
3.270817e+003;4.747583e-002
3.272746e+003;4.783850e-002
3.274675e+003;4.805637e-002
3.276603e+003;4.796004e-002
3.278531e+003;4.830415e-002
3.280460e+003;4.872059e-002
3.282389e+003;4.854975e-002
3.284317e+003;4.823790e-002
3.286246e+003;4.829145e-002
3.288174e+003;4.835404e-002
3.290103e+003;4.809245e-002
3.292031e+003;4.791345e-002
3.293960e+003;4.784682e-002
3.295888e+003;4.772846e-002
3.297817e+003;4.827664e-002
3.299746e+003;4.869072e-002
3.301674e+003;4.823117e-002
3.303603e+003;4.789950e-002
3.305531e+003;4.772498e-002
3.307460e+003;4.771297e-002
3.309388e+003;4.807158e-002
3.311317e+003;4.803860e-002
3.313245e+003;4.791871e-002
3.315174e+003;4.748677e-002
3.317103e+003;4.694483e-002
3.319031e+003;4.705460e-002
3.320960e+003;4.719261e-002
3.322888e+003;4.657841e-002
3.324817e+003;4.626533e-002
3.326745e+003;4.632021e-002
3.328674e+003;4.589605e-002
3.330602e+003;4.539670e-002
3.332531e+003;4.538379e-002
3.334459e+003;4.579784e-002
3.336388e+003;4.601108e-002
3.338317e+003;4.583547e-002
3.340245e+003;4.552263e-002
3.342174e+003;4.516002e-002
3.344102e+003;4.483752e-002
3.346031e+003;4.506797e-002
3.347959e+003;4.522947e-002
3.349888e+003;4.524377e-002
3.351816e+003;4.520630e-002
3.353745e+003;4.504345e-002
3.355674e+003;4.494290e-002
3.357602e+003;4.453675e-002
3.359531e+003;4.419436e-002
3.361459e+003;4.422627e-002
3.363388e+003;4.410398e-002
3.365316e+003;4.376512e-002
3.367245e+003;4.355295e-002
3.369173e+003;4.312514e-002
3.371102e+003;4.288465e-002
3.373031e+003;4.260400e-002
3.374959e+003;4.237903e-002
3.376887e+003;4.254374e-002
3.378816e+003;4.229111e-002
3.380745e+003;4.191757e-002
3.382673e+003;4.142310e-002
3.384602e+003;4.103227e-002
3.386530e+003;4.131467e-002
3.388459e+003;4.137662e-002
3.390387e+003;4.123972e-002
3.392316e+003;4.118285e-002
3.394244e+003;4.091779e-002
3.396173e+003;4.068255e-002
3.398102e+003;4.023303e-002
3.400030e+003;3.966362e-002
3.401959e+003;3.984945e-002
3.403887e+003;4.050869e-002
3.405816e+003;4.055478e-002
3.407744e+003;4.024212e-002
3.409673e+003;4.003726e-002
3.411601e+003;4.007069e-002
3.413530e+003;4.007163e-002
3.415458e+003;3.972486e-002
3.417387e+003;3.939941e-002
3.419316e+003;3.941987e-002
3.421244e+003;3.940950e-002
3.423173e+003;3.948671e-002
3.425101e+003;3.924111e-002
3.427030e+003;3.883855e-002
3.428958e+003;3.848762e-002
3.430887e+003;3.793730e-002
3.432815e+003;3.741755e-002
3.434744e+003;3.764867e-002
3.436673e+003;3.776287e-002
3.438601e+003;3.747909e-002
3.440530e+003;3.728932e-002
3.442458e+003;3.727924e-002
3.444387e+003;3.666750e-002
3.446315e+003;3.635644e-002
3.448244e+003;3.655615e-002
3.450172e+003;3.629491e-002
3.452101e+003;3.562563e-002
3.454030e+003;3.537005e-002
3.455958e+003;3.534061e-002
3.457886e+003;3.525914e-002
3.459815e+003;3.485318e-002
3.461744e+003;3.457552e-002
3.463672e+003;3.463552e-002
3.465601e+003;3.436410e-002
3.467529e+003;3.400383e-002
3.469458e+003;3.363029e-002
3.471386e+003;3.328555e-002
3.473315e+003;3.300725e-002
3.475243e+003;3.292989e-002
3.477172e+003;3.277954e-002
3.479101e+003;3.259185e-002
3.481029e+003;3.293704e-002
3.482958e+003;3.311555e-002
3.484886e+003;3.266433e-002
3.486815e+003;3.207620e-002
3.488743e+003;3.147124e-002
3.490672e+003;3.121539e-002
3.492600e+003;3.110745e-002
3.494529e+003;3.096734e-002
3.496458e+003;3.061347e-002
3.498386e+003;3.016274e-002
3.500315e+003;3.020309e-002
3.502243e+003;3.039302e-002
3.504172e+003;3.062868e-002
3.506100e+003;3.083261e-002
3.508029e+003;3.048418e-002
3.509957e+003;2.939855e-002
3.511886e+003;2.875209e-002
3.513814e+003;2.910827e-002
3.515743e+003;2.919239e-002
3.517672e+003;2.897504e-002
3.519600e+003;2.876873e-002
3.521529e+003;2.874777e-002
3.523457e+003;2.884648e-002
3.525386e+003;2.872752e-002
3.527314e+003;2.846462e-002
3.529243e+003;2.799483e-002
3.531171e+003;2.749643e-002
3.533100e+003;2.727646e-002
3.535029e+003;2.736263e-002
3.536957e+003;2.752937e-002
3.538885e+003;2.727809e-002
3.540814e+003;2.675179e-002
3.542743e+003;2.649367e-002
3.544671e+003;2.626435e-002
3.546600e+003;2.603769e-002
3.548528e+003;2.583527e-002
3.550457e+003;2.565688e-002
3.552385e+003;2.526182e-002
3.554314e+003;2.479135e-002
3.556242e+003;2.507984e-002
3.558171e+003;2.528585e-002
3.560100e+003;2.463148e-002
3.562028e+003;2.395311e-002
3.563957e+003;2.392748e-002
3.565885e+003;2.359801e-002
3.567814e+003;2.372254e-002
3.569742e+003;2.371620e-002
3.571671e+003;2.347369e-002
3.573599e+003;2.340141e-002
3.575528e+003;2.307157e-002
3.577457e+003;2.255090e-002
3.579385e+003;2.238254e-002
3.581314e+003;2.229697e-002
3.583242e+003;2.229045e-002
3.585171e+003;2.227699e-002
3.587099e+003;2.167740e-002
3.589028e+003;2.098108e-002
3.590956e+003;2.085316e-002
3.592885e+003;2.104688e-002
3.594813e+003;2.128448e-002
3.596742e+003;2.132301e-002
3.598671e+003;2.126708e-002
3.600599e+003;2.138210e-002
3.602528e+003;2.126270e-002
3.604456e+003;2.088977e-002
3.606385e+003;2.091293e-002
3.608313e+003;2.070725e-002
3.610242e+003;2.027147e-002
3.612170e+003;2.075288e-002
3.614099e+003;2.086318e-002
3.616028e+003;2.006967e-002
3.617956e+003;1.973458e-002
3.619885e+003;1.992468e-002
3.621813e+003;1.980127e-002
3.623742e+003;1.976454e-002
3.625670e+003;1.974908e-002
3.627599e+003;1.928537e-002
3.629527e+003;1.940814e-002
3.631456e+003;1.967242e-002
3.633385e+003;1.968656e-002
3.635313e+003;2.008525e-002
3.637241e+003;2.023856e-002
3.639170e+003;1.958444e-002
3.641099e+003;1.917087e-002
3.643027e+003;1.931821e-002
3.644956e+003;1.925769e-002
3.646884e+003;1.840274e-002
3.648813e+003;1.791871e-002
3.650741e+003;1.811903e-002
3.652670e+003;1.856617e-002
3.654598e+003;1.821511e-002
3.656527e+003;1.806600e-002
3.658456e+003;1.852852e-002
3.660384e+003;1.828830e-002
3.662313e+003;1.794057e-002
3.664241e+003;1.805226e-002
3.666170e+003;1.842576e-002
3.668098e+003;1.809415e-002
3.670027e+003;1.749172e-002
3.671955e+003;1.771969e-002
3.673884e+003;1.811277e-002
3.675813e+003;1.863648e-002
3.677741e+003;1.941334e-002
3.679669e+003;1.945156e-002
3.681598e+003;1.902725e-002
3.683527e+003;1.896404e-002
3.685455e+003;1.903203e-002
3.687384e+003;1.892500e-002
3.689312e+003;1.920456e-002
3.691241e+003;1.983543e-002
3.693169e+003;1.998733e-002
3.695098e+003;1.985686e-002
3.697026e+003;1.979731e-002
3.698955e+003;1.957341e-002
3.700884e+003;1.937835e-002
3.702812e+003;1.927740e-002
3.704741e+003;1.920678e-002
3.706669e+003;1.884032e-002
3.708598e+003;1.857641e-002
3.710526e+003;1.850794e-002
3.712455e+003;1.846037e-002
3.714383e+003;1.857171e-002
3.716312e+003;1.853923e-002
3.718240e+003;1.863192e-002
3.720169e+003;1.829804e-002
3.722098e+003;1.795859e-002
3.724026e+003;1.844115e-002
3.725955e+003;1.884834e-002
3.727883e+003;1.879066e-002
3.729812e+003;1.884897e-002
3.731740e+003;1.839254e-002
3.733669e+003;1.777723e-002
3.735597e+003;1.789668e-002
3.737526e+003;1.856234e-002
3.739455e+003;1.881987e-002
3.741383e+003;1.875243e-002
3.743312e+003;1.857911e-002
3.745240e+003;1.821248e-002
3.747169e+003;1.781168e-002
3.749097e+003;1.779325e-002
3.751026e+003;1.781334e-002
3.752954e+003;1.811747e-002
3.754883e+003;1.862984e-002
3.756812e+003;1.887070e-002
3.758740e+003;1.935770e-002
3.760668e+003;1.962302e-002
3.762597e+003;1.971794e-002
3.764526e+003;1.957359e-002
3.766454e+003;1.921073e-002
3.768383e+003;1.875320e-002
3.770311e+003;1.875703e-002
3.772240e+003;1.887572e-002
3.774168e+003;1.884236e-002
3.776097e+003;1.869857e-002
3.778025e+003;1.843776e-002
3.779954e+003;1.824400e-002
3.781883e+003;1.876752e-002
3.783811e+003;1.894182e-002
3.785740e+003;1.867200e-002
3.787668e+003;1.878713e-002
3.789597e+003;1.920844e-002
3.791525e+003;1.915037e-002
3.793454e+003;1.913195e-002
3.795382e+003;1.969364e-002
3.797311e+003;1.982620e-002
3.799240e+003;1.910792e-002
3.801168e+003;1.830720e-002
3.803097e+003;1.834249e-002
3.805025e+003;1.839067e-002
3.806954e+003;1.879056e-002
3.808882e+003;1.948531e-002
3.810811e+003;1.915037e-002
3.812739e+003;1.848626e-002
3.814668e+003;1.826321e-002
3.816596e+003;1.902393e-002
3.818525e+003;1.955480e-002
3.820454e+003;1.913894e-002
3.822382e+003;1.956443e-002
3.824311e+003;2.033775e-002
3.826239e+003;2.023647e-002
3.828168e+003;1.982156e-002
3.830096e+003;1.950046e-002
3.832025e+003;1.937724e-002
3.833953e+003;1.940208e-002
3.835882e+003;1.934533e-002
3.837811e+003;1.904030e-002
3.839739e+003;1.907765e-002
3.841667e+003;1.904317e-002
3.843596e+003;1.878073e-002
3.845525e+003;1.896657e-002
3.847453e+003;1.922046e-002
3.849382e+003;1.945842e-002
3.851310e+003;1.913697e-002
3.853239e+003;1.881357e-002
3.855167e+003;1.926192e-002
3.857096e+003;1.980997e-002
3.859024e+003;1.997678e-002
3.860953e+003;1.993106e-002
3.862882e+003;2.008896e-002
3.864810e+003;2.007973e-002
3.866739e+003;2.017011e-002
3.868667e+003;1.991805e-002
3.870596e+003;2.014189e-002
3.872524e+003;2.037056e-002
3.874453e+003;1.960579e-002
3.876381e+003;1.951727e-002
3.878310e+003;1.986415e-002
3.880239e+003;2.026873e-002
3.882167e+003;2.050990e-002
3.884096e+003;2.038008e-002
3.886024e+003;2.057452e-002
3.887953e+003;2.057031e-002
3.889881e+003;2.058616e-002
3.891810e+003;2.094523e-002
3.893738e+003;2.055332e-002
3.895667e+003;1.996107e-002
3.897595e+003;1.983071e-002
3.899524e+003;1.978428e-002
3.901453e+003;1.954100e-002
3.903381e+003;1.955830e-002
3.905310e+003;1.982322e-002
3.907238e+003;1.989793e-002
3.909167e+003;2.006651e-002
3.911095e+003;2.034990e-002
3.913024e+003;2.050160e-002
3.914952e+003;2.089652e-002
3.916881e+003;2.092468e-002
3.918810e+003;2.068251e-002
3.920738e+003;2.085455e-002
3.922667e+003;2.097565e-002
3.924595e+003;2.083012e-002
3.926524e+003;2.081086e-002
3.928452e+003;2.146558e-002
3.930381e+003;2.132621e-002
3.932309e+003;2.084635e-002
3.934238e+003;2.045679e-002
3.936167e+003;2.063594e-002
3.938095e+003;2.154106e-002
3.940023e+003;2.209392e-002
3.941952e+003;2.205313e-002
3.943881e+003;2.159454e-002
3.945809e+003;2.090869e-002
3.947738e+003;2.044922e-002
3.949666e+003;2.048819e-002
3.951595e+003;2.087611e-002
3.953523e+003;2.096446e-002
3.955452e+003;2.102490e-002
3.957380e+003;2.107999e-002
3.959309e+003;2.111248e-002
3.961238e+003;2.120070e-002
3.963166e+003;2.104955e-002
3.965095e+003;2.102618e-002
3.967023e+003;2.121966e-002
3.968952e+003;2.119979e-002
3.970880e+003;2.113449e-002
3.972809e+003;2.140254e-002
3.974737e+003;2.159023e-002
3.976666e+003;2.191605e-002
3.978594e+003;2.191824e-002
3.980523e+003;2.166569e-002
3.982452e+003;2.199171e-002
3.984380e+003;2.221344e-002
3.986309e+003;2.227441e-002
3.988237e+003;2.265408e-002
3.990166e+003;2.291059e-002
3.992094e+003;2.245825e-002
3.994023e+003;2.231748e-002
3.995951e+003;2.257069e-002
3.997880e+003;2.270770e-002
3.999809e+003;2.265680e-002
4.001737e+003;0.000000e+000
