3.992094e+002;0.000000e+000
4.011380e+002;0.000000e+000
4.030665e+002;0.000000e+000
4.049951e+002;0.000000e+000
4.069236e+002;0.000000e+000
4.088522e+002;0.000000e+000
4.107807e+002;0.000000e+000
4.127093e+002;0.000000e+000
4.146378e+002;0.000000e+000
4.165664e+002;0.000000e+000
4.184949e+002;0.000000e+000
4.204235e+002;0.000000e+000
4.223520e+002;0.000000e+000
4.242806e+002;0.000000e+000
4.262091e+002;0.000000e+000
4.281377e+002;0.000000e+000
4.300662e+002;0.000000e+000
4.319948e+002;0.000000e+000
4.339233e+002;0.000000e+000
4.358519e+002;0.000000e+000
4.377804e+002;0.000000e+000
4.397090e+002;0.000000e+000
4.416375e+002;0.000000e+000
4.435660e+002;0.000000e+000
4.454946e+002;0.000000e+000
4.474232e+002;0.000000e+000
4.493517e+002;0.000000e+000
4.512802e+002;0.000000e+000
4.532088e+002;0.000000e+000
4.551373e+002;0.000000e+000
4.570659e+002;0.000000e+000
4.589944e+002;0.000000e+000
4.609230e+002;0.000000e+000
4.628515e+002;0.000000e+000
4.647801e+002;0.000000e+000
4.667086e+002;0.000000e+000
4.686372e+002;0.000000e+000
4.705657e+002;0.000000e+000
4.724943e+002;0.000000e+000
4.744228e+002;0.000000e+000
4.763513e+002;0.000000e+000
4.782799e+002;0.000000e+000
4.802085e+002;0.000000e+000
4.821370e+002;0.000000e+000
4.840656e+002;0.000000e+000
4.859941e+002;0.000000e+000
4.879226e+002;0.000000e+000
4.898512e+002;0.000000e+000
4.917798e+002;0.000000e+000
4.937083e+002;0.000000e+000
4.956368e+002;0.000000e+000
4.975654e+002;0.000000e+000
4.994939e+002;0.000000e+000
5.014225e+002;0.000000e+000
5.033510e+002;0.000000e+000
5.052796e+002;0.000000e+000
5.072081e+002;0.000000e+000
5.091367e+002;0.000000e+000
5.110652e+002;0.000000e+000
5.129938e+002;0.000000e+000
5.149223e+002;0.000000e+000
5.168509e+002;0.000000e+000
5.187794e+002;0.000000e+000
5.207079e+002;0.000000e+000
5.226365e+002;0.000000e+000
5.245651e+002;0.000000e+000
5.264936e+002;0.000000e+000
5.284222e+002;0.000000e+000
5.303507e+002;0.000000e+000
5.322792e+002;0.000000e+000
5.342078e+002;0.000000e+000
5.361364e+002;0.000000e+000
5.380649e+002;0.000000e+000
5.399935e+002;0.000000e+000
5.419220e+002;0.000000e+000
5.438505e+002;0.000000e+000
5.457791e+002;0.000000e+000
5.477076e+002;0.000000e+000
5.496362e+002;0.000000e+000
5.515648e+002;0.000000e+000
5.534933e+002;0.000000e+000
5.554218e+002;0.000000e+000
5.573504e+002;0.000000e+000
5.592789e+002;0.000000e+000
5.612075e+002;0.000000e+000
5.631360e+002;0.000000e+000
5.650646e+002;0.000000e+000
5.669931e+002;0.000000e+000
5.689217e+002;0.000000e+000
5.708502e+002;0.000000e+000
5.727787e+002;0.000000e+000
5.747073e+002;0.000000e+000
5.766359e+002;0.000000e+000
5.785644e+002;0.000000e+000
5.804930e+002;0.000000e+000
5.824215e+002;0.000000e+000
5.843500e+002;0.000000e+000
5.862786e+002;0.000000e+000
5.882072e+002;0.000000e+000
5.901357e+002;0.000000e+000
5.920643e+002;0.000000e+000
5.939928e+002;0.000000e+000
5.959213e+002;0.000000e+000
5.978499e+002;0.000000e+000
5.997784e+002;2.526987e-002
6.017070e+002;2.295163e-002
6.036355e+002;2.514704e-002
6.055641e+002;2.854851e-002
6.074926e+002;3.301283e-002
6.094211e+002;3.369152e-002
6.113497e+002;3.269441e-002
6.132783e+002;3.209728e-002
6.152068e+002;3.226096e-002
6.171354e+002;2.925881e-002
6.190639e+002;2.804986e-002
6.209924e+002;2.838916e-002
6.229210e+002;2.777104e-002
6.248495e+002;3.016732e-002
6.267781e+002;3.258039e-002
6.287067e+002;2.982428e-002
6.306352e+002;2.636077e-002
6.325637e+002;2.760097e-002
6.344923e+002;2.920738e-002
6.364208e+002;2.769373e-002
6.383494e+002;2.854479e-002
6.402780e+002;3.120834e-002
6.422065e+002;3.322199e-002
6.441350e+002;3.201706e-002
6.460636e+002;2.863722e-002
6.479921e+002;2.842609e-002
6.499207e+002;2.959313e-002
6.518492e+002;2.593307e-002
6.537778e+002;2.596550e-002
6.557063e+002;2.922071e-002
6.576349e+002;2.903887e-002
6.595634e+002;2.864908e-002
6.614919e+002;2.996843e-002
6.634205e+002;3.026145e-002
6.653491e+002;2.876175e-002
6.672776e+002;2.860959e-002
6.692062e+002;2.983880e-002
6.711347e+002;2.901953e-002
6.730632e+002;2.769190e-002
6.749918e+002;2.633543e-002
6.769203e+002;2.692862e-002
6.788489e+002;2.883685e-002
6.807775e+002;3.016085e-002
6.827060e+002;2.981829e-002
6.846345e+002;2.852215e-002
6.865631e+002;2.797409e-002
6.884916e+002;2.786105e-002
6.904202e+002;2.658972e-002
6.923488e+002;2.526544e-002
6.942773e+002;2.574620e-002
6.962058e+002;2.727022e-002
6.981344e+002;2.869892e-002
7.000629e+002;2.878123e-002
7.019915e+002;2.763578e-002
7.039200e+002;2.703637e-002
7.058486e+002;2.702445e-002
7.077771e+002;2.675411e-002
7.097057e+002;2.681258e-002
7.116342e+002;2.690408e-002
7.135627e+002;2.679718e-002
7.154913e+002;2.635021e-002
7.174199e+002;2.662329e-002
7.193484e+002;2.746840e-002
7.212770e+002;2.724513e-002
7.232055e+002;2.698746e-002
7.251340e+002;2.671384e-002
7.270626e+002;2.646997e-002
7.289911e+002;2.682245e-002
7.309197e+002;2.689048e-002
7.328483e+002;2.619501e-002
7.347768e+002;2.542519e-002
7.367053e+002;2.510782e-002
7.386339e+002;2.486748e-002
7.405624e+002;2.547044e-002
7.424910e+002;2.559526e-002
7.444196e+002;2.517818e-002
7.463481e+002;2.548629e-002
7.482766e+002;2.507623e-002
7.502052e+002;2.436747e-002
7.521337e+002;2.462871e-002
7.540623e+002;2.452209e-002
7.559908e+002;2.354438e-002
7.579194e+002;2.339571e-002
7.598479e+002;2.417655e-002
7.617765e+002;2.432139e-002
7.637050e+002;2.443767e-002
7.656335e+002;2.468931e-002
7.675621e+002;2.447164e-002
7.694907e+002;2.489994e-002
7.714192e+002;2.485085e-002
7.733478e+002;2.443729e-002
7.752763e+002;2.445120e-002
7.772048e+002;2.386688e-002
7.791334e+002;2.364027e-002
7.810620e+002;2.479079e-002
7.829905e+002;2.510143e-002
7.849191e+002;2.513745e-002
7.868476e+002;2.684892e-002
7.887761e+002;2.744536e-002
7.907047e+002;2.723596e-002
7.926332e+002;2.838003e-002
7.945618e+002;3.004182e-002
7.964903e+002;3.146212e-002
7.984189e+002;3.201370e-002
8.003474e+002;3.367476e-002
8.022759e+002;3.595424e-002
8.042045e+002;3.868162e-002
8.061331e+002;4.099021e-002
8.080616e+002;4.190647e-002
8.099902e+002;4.143994e-002
8.119187e+002;4.053823e-002
8.138472e+002;3.832090e-002
8.157758e+002;3.553932e-002
8.177043e+002;3.384938e-002
8.196329e+002;3.307558e-002
8.215615e+002;3.190603e-002
8.234900e+002;3.091379e-002
8.254185e+002;3.105584e-002
8.273471e+002;3.148043e-002
8.292756e+002;3.122991e-002
8.312042e+002;3.156811e-002
8.331328e+002;3.305491e-002
8.350613e+002;3.524972e-002
8.369898e+002;3.773815e-002
8.389184e+002;4.219992e-002
8.408469e+002;4.667008e-002
8.427755e+002;4.652865e-002
8.447040e+002;4.248889e-002
8.466326e+002;3.776107e-002
8.485611e+002;3.372614e-002
8.504897e+002;3.136406e-002
8.524182e+002;3.039359e-002
8.543467e+002;2.944244e-002
8.562753e+002;2.826300e-002
8.582039e+002;2.775321e-002
8.601324e+002;2.713243e-002
8.620610e+002;2.674798e-002
8.639895e+002;2.702187e-002
8.659180e+002;2.676310e-002
8.678466e+002;2.596888e-002
8.697751e+002;2.605236e-002
8.717037e+002;2.701147e-002
8.736323e+002;2.703542e-002
8.755608e+002;2.615447e-002
8.774893e+002;2.538964e-002
8.794179e+002;2.517853e-002
8.813464e+002;2.496981e-002
8.832750e+002;2.456991e-002
8.852036e+002;2.476911e-002
8.871321e+002;2.544483e-002
8.890606e+002;2.572553e-002
8.909892e+002;2.653012e-002
8.929177e+002;2.894872e-002
8.948463e+002;3.280970e-002
8.967748e+002;3.740570e-002
8.987034e+002;4.004278e-002
9.006319e+002;3.952540e-002
9.025605e+002;3.648259e-002
9.044890e+002;3.173697e-002
9.064175e+002;2.752781e-002
9.083461e+002;2.495152e-002
9.102747e+002;2.293004e-002
9.122032e+002;2.153033e-002
9.141318e+002;2.094582e-002
9.160603e+002;2.072244e-002
9.179888e+002;2.050243e-002
9.199174e+002;2.016053e-002
9.218459e+002;2.024314e-002
9.237745e+002;2.037806e-002
9.257031e+002;2.015344e-002
9.276316e+002;2.042015e-002
9.295601e+002;2.095562e-002
9.314887e+002;2.150882e-002
9.334172e+002;2.216483e-002
9.353458e+002;2.330344e-002
9.372744e+002;2.449965e-002
9.392029e+002;2.533839e-002
9.411314e+002;2.581466e-002
9.430600e+002;2.594563e-002
9.449885e+002;2.635532e-002
9.469171e+002;2.649356e-002
9.488456e+002;2.657031e-002
9.507742e+002;2.723127e-002
9.527027e+002;2.799875e-002
9.546313e+002;2.894635e-002
9.565598e+002;2.992423e-002
9.584883e+002;3.077858e-002
9.604169e+002;3.240578e-002
9.623455e+002;3.494894e-002
9.642740e+002;3.809173e-002
9.662026e+002;4.249828e-002
9.681311e+002;4.914248e-002
9.700596e+002;5.729911e-002
9.719882e+002;6.420536e-002
9.739167e+002;6.667067e-002
9.758453e+002;6.301768e-002
9.777739e+002;5.522287e-002
9.797024e+002;4.638676e-002
9.816309e+002;3.924333e-002
9.835595e+002;3.392705e-002
9.854880e+002;3.076104e-002
9.874166e+002;3.030152e-002
9.893452e+002;3.159683e-002
9.912737e+002;3.491655e-002
9.932022e+002;4.048538e-002
9.951307e+002;4.654399e-002
9.970593e+002;5.097537e-002
9.989879e+002;5.129861e-002
1.000916e+003;4.735055e-002
1.002845e+003;4.149006e-002
1.004773e+003;3.627704e-002
1.006702e+003;3.299406e-002
1.008631e+003;3.147419e-002
1.010559e+003;3.015514e-002
1.012488e+003;2.866519e-002
1.014416e+003;2.724355e-002
1.016345e+003;2.658461e-002
1.018273e+003;2.642236e-002
1.020202e+003;2.646746e-002
1.022130e+003;2.680740e-002
1.024059e+003;2.705936e-002
1.025988e+003;2.720259e-002
1.027916e+003;2.706906e-002
1.029845e+003;2.740427e-002
1.031773e+003;2.870094e-002
1.033702e+003;3.041200e-002
1.035630e+003;3.169626e-002
1.037559e+003;3.211091e-002
1.039487e+003;3.274431e-002
1.041416e+003;3.353024e-002
1.043344e+003;3.356253e-002
1.045273e+003;3.308652e-002
1.047202e+003;3.216500e-002
1.049130e+003;3.089145e-002
1.051059e+003;3.019278e-002
1.052987e+003;2.992388e-002
1.054916e+003;2.959384e-002
1.056844e+003;2.962197e-002
1.058773e+003;2.991206e-002
1.060701e+003;3.004281e-002
1.062630e+003;2.980334e-002
1.064558e+003;2.961317e-002
1.066487e+003;2.968998e-002
1.068416e+003;2.945468e-002
1.070344e+003;2.954146e-002
1.072273e+003;2.954812e-002
1.074201e+003;2.948893e-002
1.076130e+003;2.956738e-002
1.078058e+003;2.997897e-002
1.079987e+003;3.069347e-002
1.081915e+003;3.114832e-002
1.083844e+003;3.114191e-002
1.085773e+003;3.129878e-002
1.087701e+003;3.175540e-002
1.089630e+003;3.255003e-002
1.091558e+003;3.263457e-002
1.093487e+003;3.280427e-002
1.095415e+003;3.443880e-002
1.097344e+003;3.646803e-002
1.099272e+003;3.789001e-002
1.101201e+003;3.855798e-002
1.103129e+003;3.876754e-002
1.105058e+003;3.826987e-002
1.106987e+003;3.727069e-002
1.108915e+003;3.567379e-002
1.110844e+003;3.392329e-002
1.112772e+003;3.233520e-002
1.114701e+003;3.148681e-002
1.116629e+003;3.105677e-002
1.118558e+003;3.055563e-002
1.120486e+003;3.025601e-002
1.122415e+003;2.997574e-002
1.124344e+003;2.963332e-002
1.126272e+003;2.963417e-002
1.128201e+003;2.972202e-002
1.130129e+003;3.005098e-002
1.132058e+003;3.071296e-002
1.133986e+003;3.168938e-002
1.135915e+003;3.306471e-002
1.137843e+003;3.507634e-002
1.139772e+003;3.796092e-002
1.141700e+003;4.138479e-002
1.143629e+003;4.505150e-002
1.145557e+003;4.795312e-002
1.147486e+003;5.035773e-002
1.149415e+003;5.341345e-002
1.151343e+003;5.681443e-002
1.153272e+003;5.909859e-002
1.155200e+003;5.978359e-002
1.157129e+003;5.970439e-002
1.159057e+003;6.026048e-002
1.160986e+003;6.048520e-002
1.162914e+003;6.062572e-002
1.164843e+003;6.128696e-002
1.166771e+003;6.140114e-002
1.168700e+003;6.005589e-002
1.170629e+003;5.645396e-002
1.172557e+003;5.149356e-002
1.174486e+003;4.646688e-002
1.176414e+003;4.224075e-002
1.178343e+003;3.919063e-002
1.180271e+003;3.703504e-002
1.182200e+003;3.540801e-002
1.184128e+003;3.426642e-002
1.186057e+003;3.345010e-002
1.187986e+003;3.305563e-002
1.189914e+003;3.286045e-002
1.191843e+003;3.262921e-002
1.193771e+003;3.277097e-002
1.195700e+003;3.292504e-002
1.197628e+003;3.297858e-002
1.199557e+003;3.254796e-002
1.201485e+003;3.205362e-002
1.203414e+003;3.209504e-002
1.205343e+003;3.232049e-002
1.207271e+003;3.264061e-002
1.209200e+003;3.313275e-002
1.211128e+003;3.380733e-002
1.213057e+003;3.478134e-002
1.214985e+003;3.562639e-002
1.216914e+003;3.564689e-002
1.218842e+003;3.533580e-002
1.220771e+003;3.490538e-002
1.222699e+003;3.413898e-002
1.224628e+003;3.304472e-002
1.226557e+003;3.233324e-002
1.228485e+003;3.238832e-002
1.230414e+003;3.281832e-002
1.232342e+003;3.263304e-002
1.234271e+003;3.260900e-002
1.236199e+003;3.300979e-002
1.238128e+003;3.301437e-002
1.240056e+003;3.298777e-002
1.241985e+003;3.308380e-002
1.243913e+003;3.318182e-002
1.245842e+003;3.360960e-002
1.247771e+003;3.415995e-002
1.249699e+003;3.489389e-002
1.251628e+003;3.707123e-002
1.253556e+003;3.990448e-002
1.255485e+003;4.173274e-002
1.257413e+003;4.191884e-002
1.259342e+003;4.039820e-002
1.261270e+003;3.791481e-002
1.263199e+003;3.553324e-002
1.265127e+003;3.425624e-002
1.267056e+003;3.344542e-002
1.268985e+003;3.287174e-002
1.270913e+003;3.233920e-002
1.272842e+003;3.173066e-002
1.274770e+003;3.174010e-002
1.276699e+003;3.200062e-002
1.278627e+003;3.159858e-002
1.280556e+003;3.150693e-002
1.282484e+003;3.218738e-002
1.284413e+003;3.256457e-002
1.286342e+003;3.309685e-002
1.288270e+003;3.427090e-002
1.290199e+003;3.515109e-002
1.292127e+003;3.578182e-002
1.294056e+003;3.655308e-002
1.295984e+003;3.697760e-002
1.297913e+003;3.681430e-002
1.299841e+003;3.673500e-002
1.301770e+003;3.732445e-002
1.303698e+003;3.781301e-002
1.305627e+003;3.688972e-002
1.307556e+003;3.469839e-002
1.309484e+003;3.264275e-002
1.311413e+003;3.159484e-002
1.313341e+003;3.145164e-002
1.315270e+003;3.213428e-002
1.317198e+003;3.304658e-002
1.319127e+003;3.402497e-002
1.321055e+003;3.546787e-002
1.322984e+003;3.694227e-002
1.324912e+003;3.832213e-002
1.326841e+003;3.995697e-002
1.328770e+003;4.099484e-002
1.330698e+003;4.129959e-002
1.332627e+003;4.139674e-002
1.334555e+003;4.069056e-002
1.336484e+003;3.954133e-002
1.338412e+003;3.914328e-002
1.340341e+003;3.996768e-002
1.342269e+003;4.146425e-002
1.344198e+003;4.309664e-002
1.346126e+003;4.529831e-002
1.348055e+003;4.803309e-002
1.349984e+003;5.167695e-002
1.351912e+003;5.644962e-002
1.353841e+003;6.245476e-002
1.355769e+003;6.942814e-002
1.357698e+003;7.533314e-002
1.359626e+003;7.756257e-002
1.361555e+003;7.692151e-002
1.363483e+003;7.659262e-002
1.365412e+003;7.911937e-002
1.367341e+003;8.669388e-002
1.369269e+003;1.017625e-001
1.371198e+003;1.238387e-001
1.373126e+003;1.490422e-001
1.375055e+003;1.695664e-001
1.376983e+003;1.731934e-001
1.378912e+003;1.564164e-001
1.380840e+003;1.296828e-001
1.382769e+003;1.032935e-001
1.384698e+003;8.176201e-002
1.386626e+003;6.571832e-002
1.388555e+003;5.539667e-002
1.390483e+003;4.949425e-002
1.392412e+003;4.503926e-002
1.394340e+003;4.157909e-002
1.396269e+003;4.026669e-002
1.398197e+003;3.973212e-002
1.400126e+003;3.984161e-002
1.402054e+003;4.012749e-002
1.403983e+003;3.970206e-002
1.405911e+003;3.967814e-002
1.407840e+003;4.048861e-002
1.409769e+003;4.118613e-002
1.411697e+003;4.162384e-002
1.413626e+003;4.195753e-002
1.415554e+003;4.213434e-002
1.417483e+003;4.140498e-002
1.419411e+003;4.149597e-002
1.421340e+003;4.403360e-002
1.423268e+003;4.615867e-002
1.425197e+003;4.871726e-002
1.427125e+003;5.276053e-002
1.429054e+003;5.836586e-002
1.430983e+003;6.711331e-002
1.432911e+003;7.733846e-002
1.434840e+003;8.360992e-002
1.436768e+003;8.597778e-002
1.438697e+003;8.925373e-002
1.440625e+003;9.329966e-002
1.442554e+003;9.854902e-002
1.444482e+003;1.059878e-001
1.446411e+003;1.154649e-001
1.448340e+003;1.257081e-001
1.450268e+003;1.348802e-001
1.452197e+003;1.406310e-001
1.454125e+003;1.423184e-001
1.456054e+003;1.399441e-001
1.457982e+003;1.389988e-001
1.459911e+003;1.390100e-001
1.461839e+003;1.349130e-001
1.463768e+003;1.270010e-001
1.465697e+003;1.178170e-001
1.467625e+003;1.081027e-001
1.469554e+003;9.650580e-002
1.471482e+003;8.378010e-002
1.473411e+003;7.351667e-002
1.475339e+003;6.655838e-002
1.477268e+003;6.063262e-002
1.479196e+003;5.522174e-002
1.481125e+003;4.982360e-002
1.483053e+003;4.547506e-002
1.484982e+003;4.175251e-002
1.486911e+003;3.808156e-002
1.488839e+003;3.487030e-002
1.490768e+003;3.330018e-002
1.492696e+003;3.281328e-002
1.494625e+003;3.078797e-002
1.496553e+003;2.856064e-002
1.498482e+003;2.849044e-002
1.500410e+003;2.872203e-002
1.502339e+003;2.792031e-002
1.504267e+003;2.462103e-002
1.506196e+003;2.110872e-002
1.508125e+003;2.236545e-002
1.510053e+003;2.458706e-002
1.511982e+003;2.473947e-002
1.513910e+003;2.473151e-002
1.515839e+003;2.394306e-002
1.517767e+003;2.290821e-002
1.519696e+003;2.103077e-002
1.521624e+003;1.977980e-002
1.523553e+003;2.125731e-002
1.525481e+003;2.229432e-002
1.527410e+003;2.320857e-002
1.529339e+003;2.403098e-002
1.531267e+003;2.379621e-002
1.533196e+003;2.326498e-002
1.535124e+003;2.478156e-002
1.537053e+003;2.413087e-002
1.538981e+003;2.081131e-002
1.540910e+003;2.119778e-002
1.542838e+003;2.426091e-002
1.544767e+003;2.627625e-002
1.546695e+003;2.729672e-002
1.548624e+003;2.725628e-002
1.550553e+003;2.710485e-002
1.552481e+003;2.613969e-002
1.554410e+003;2.438156e-002
1.556338e+003;2.183761e-002
1.558267e+003;1.765615e-002
1.560195e+003;1.845670e-002
1.562124e+003;2.236859e-002
1.564052e+003;2.302887e-002
1.565981e+003;2.256092e-002
1.567910e+003;2.188900e-002
1.569838e+003;2.142405e-002
1.571767e+003;2.258873e-002
1.573695e+003;2.208712e-002
1.575624e+003;1.967412e-002
1.577552e+003;2.088240e-002
1.579481e+003;2.309432e-002
1.581409e+003;2.354851e-002
1.583338e+003;2.332008e-002
1.585266e+003;2.255034e-002
1.587195e+003;2.221072e-002
1.589124e+003;2.209420e-002
1.591052e+003;2.221397e-002
1.592981e+003;2.233716e-002
1.594909e+003;2.230667e-002
1.596838e+003;2.235223e-002
1.598766e+003;2.289892e-002
1.600695e+003;2.332358e-002
1.602623e+003;2.375298e-002
1.604552e+003;2.414964e-002
1.606480e+003;2.424546e-002
1.608409e+003;2.460094e-002
1.610338e+003;2.538023e-002
1.612266e+003;2.592579e-002
1.614195e+003;2.549866e-002
1.616123e+003;2.423309e-002
1.618052e+003;2.618104e-002
1.619980e+003;2.846564e-002
1.621909e+003;2.819317e-002
1.623837e+003;2.833607e-002
1.625766e+003;2.937859e-002
1.627694e+003;2.984260e-002
1.629623e+003;3.031595e-002
1.631552e+003;3.065667e-002
1.633480e+003;2.902849e-002
1.635409e+003;2.713857e-002
1.637337e+003;2.932935e-002
1.639266e+003;3.164006e-002
1.641194e+003;3.218092e-002
1.643123e+003;3.189027e-002
1.645051e+003;3.036999e-002
1.646980e+003;3.026504e-002
1.648909e+003;3.204417e-002
1.650837e+003;2.970126e-002
1.652766e+003;2.556244e-002
1.654694e+003;2.894008e-002
1.656623e+003;3.300153e-002
1.658551e+003;3.317806e-002
1.660480e+003;3.208954e-002
1.662408e+003;3.104716e-002
1.664337e+003;3.127314e-002
1.666266e+003;3.116932e-002
1.668194e+003;2.954653e-002
1.670123e+003;2.901000e-002
1.672051e+003;2.955156e-002
1.673980e+003;2.860905e-002
1.675908e+003;2.826838e-002
1.677837e+003;2.933201e-002
1.679765e+003;2.900929e-002
1.681694e+003;2.695770e-002
1.683622e+003;2.332148e-002
1.685551e+003;2.439610e-002
1.687479e+003;2.745778e-002
1.689408e+003;2.793479e-002
1.691337e+003;2.803162e-002
1.693265e+003;2.689100e-002
1.695194e+003;2.423912e-002
1.697122e+003;2.473537e-002
1.699051e+003;2.424055e-002
1.700979e+003;2.478641e-002
1.702908e+003;2.844831e-002
1.704836e+003;2.948836e-002
1.706765e+003;3.034572e-002
1.708693e+003;3.113710e-002
1.710622e+003;3.133418e-002
1.712551e+003;3.056874e-002
1.714479e+003;2.902275e-002
1.716408e+003;2.691462e-002
1.718336e+003;2.727738e-002
1.720265e+003;2.998281e-002
1.722193e+003;3.077573e-002
1.724122e+003;3.063761e-002
1.726050e+003;3.100203e-002
1.727979e+003;3.113148e-002
1.729908e+003;3.104278e-002
1.731836e+003;2.975987e-002
1.733765e+003;2.801922e-002
1.735693e+003;3.014707e-002
1.737622e+003;3.213296e-002
1.739550e+003;3.179322e-002
1.741479e+003;3.180388e-002
1.743407e+003;3.099036e-002
1.745336e+003;2.946049e-002
1.747265e+003;2.723924e-002
1.749193e+003;2.439652e-002
1.751122e+003;2.189385e-002
1.753050e+003;2.098915e-002
1.754979e+003;1.938348e-002
1.756907e+003;1.727672e-002
1.758836e+003;1.575327e-002
1.760764e+003;1.369543e-002
1.762693e+003;1.248254e-002
1.764621e+003;1.238008e-002
1.766550e+003;1.131223e-002
1.768479e+003;1.026393e-002
1.770407e+003;9.023109e-003
1.772336e+003;7.600908e-003
1.774264e+003;8.335830e-003
1.776193e+003;9.341970e-003
1.778121e+003;9.417404e-003
1.780050e+003;8.802935e-003
1.781978e+003;8.356365e-003
1.783907e+003;7.790619e-003
1.785835e+003;7.248923e-003
1.787764e+003;6.956409e-003
1.789693e+003;5.840200e-003
1.791621e+003;4.328527e-003
1.793550e+003;4.342114e-003
1.795478e+003;5.027724e-003
1.797407e+003;4.791541e-003
1.799335e+003;4.279201e-003
1.801264e+003;3.856746e-003
1.803192e+003;3.821881e-003
1.805121e+003;3.716097e-003
1.807049e+003;3.347043e-003
1.808978e+003;2.966727e-003
1.810907e+003;2.944676e-003
1.812835e+003;3.042930e-003
1.814764e+003;2.983007e-003
1.816692e+003;2.960188e-003
1.818621e+003;3.163268e-003
1.820549e+003;3.064152e-003
1.822478e+003;2.576543e-003
1.824406e+003;2.219213e-003
1.826335e+003;2.507853e-003
1.828264e+003;2.258114e-003
1.830192e+003;2.024430e-003
1.832121e+003;2.617476e-003
1.834049e+003;2.953182e-003
1.835978e+003;3.079502e-003
1.837906e+003;3.010999e-003
1.839835e+003;2.968895e-003
1.841763e+003;2.452402e-003
1.843692e+003;1.411316e-003
1.845620e+003;1.813696e-003
1.847549e+003;2.622609e-003
1.849478e+003;2.694485e-003
1.851406e+003;2.524416e-003
1.853335e+003;2.706688e-003
1.855263e+003;2.748466e-003
1.857192e+003;2.715223e-003
1.859120e+003;2.807656e-003
1.861049e+003;2.669814e-003
1.862977e+003;2.414350e-003
1.864906e+003;2.161701e-003
1.866834e+003;1.539848e-003
1.868763e+003;1.235468e-003
1.870692e+003;2.072535e-003
1.872620e+003;2.627109e-003
1.874549e+003;2.626409e-003
1.876477e+003;2.659112e-003
1.878406e+003;2.543680e-003
1.880334e+003;2.279830e-003
1.882263e+003;2.102133e-003
1.884191e+003;2.311541e-003
1.886120e+003;2.475361e-003
1.888048e+003;2.240561e-003
1.889977e+003;2.237098e-003
1.891906e+003;2.656012e-003
1.893834e+003;2.741931e-003
1.895763e+003;2.554278e-003
1.897691e+003;2.431043e-003
1.899620e+003;2.345053e-003
1.901548e+003;2.346952e-003
1.903477e+003;2.507753e-003
1.905405e+003;2.217481e-003
1.907334e+003;1.988745e-003
1.909262e+003;2.230270e-003
1.911191e+003;2.331794e-003
1.913120e+003;2.206325e-003
1.915048e+003;2.272602e-003
1.916977e+003;1.751048e-003
1.918905e+003;1.484454e-003
1.920834e+003;1.755140e-003
1.922762e+003;1.799289e-003
1.924691e+003;1.996335e-003
1.926619e+003;1.970938e-003
1.928548e+003;1.925872e-003
1.930477e+003;1.898416e-003
1.932405e+003;1.466833e-003
1.934334e+003;1.319345e-003
1.936262e+003;1.462644e-003
1.938191e+003;1.605525e-003
1.940119e+003;1.570108e-003
1.942048e+003;1.199916e-003
1.943976e+003;1.039764e-003
1.945905e+003;1.062018e-003
1.947833e+003;1.283519e-003
1.949762e+003;1.517769e-003
1.951691e+003;1.425178e-003
1.953619e+003;1.309342e-003
1.955548e+003;1.348759e-003
1.957476e+003;1.225400e-003
1.959405e+003;1.141874e-003
1.961333e+003;1.221479e-003
1.963262e+003;1.243178e-003
1.965190e+003;1.121277e-003
1.967119e+003;1.050027e-003
1.969047e+003;1.120414e-003
1.970976e+003;1.126892e-003
1.972905e+003;8.672210e-004
1.974833e+003;7.904356e-004
1.976762e+003;1.056902e-003
1.978690e+003;9.456471e-004
1.980619e+003;8.766832e-004
1.982547e+003;1.075437e-003
1.984476e+003;1.261919e-003
1.986404e+003;1.264810e-003
1.988333e+003;1.199716e-003
1.990261e+003;1.205365e-003
1.992190e+003;1.194234e-003
1.994119e+003;1.288637e-003
1.996047e+003;1.240652e-003
1.997976e+003;1.241915e-003
1.999904e+003;1.424446e-003
2.001833e+003;1.455496e-003
2.003761e+003;1.516439e-003
2.005690e+003;1.415404e-003
2.007618e+003;1.371726e-003
2.009547e+003;1.385222e-003
2.011476e+003;1.328651e-003
2.013404e+003;1.233375e-003
2.015333e+003;1.092510e-003
2.017261e+003;1.261122e-003
2.019190e+003;1.611877e-003
2.021118e+003;1.775534e-003
2.023047e+003;1.823079e-003
2.024975e+003;1.525483e-003
2.026904e+003;1.209883e-003
2.028833e+003;1.213771e-003
2.030761e+003;1.381465e-003
2.032690e+003;1.714754e-003
2.034618e+003;2.041607e-003
2.036547e+003;1.946175e-003
2.038475e+003;1.847435e-003
2.040404e+003;2.161368e-003
2.042332e+003;2.192637e-003
2.044261e+003;2.061215e-003
2.046189e+003;2.181515e-003
2.048118e+003;2.209688e-003
2.050047e+003;1.890662e-003
2.051975e+003;1.793633e-003
2.053904e+003;1.855488e-003
2.055832e+003;1.723004e-003
2.057761e+003;1.921280e-003
2.059689e+003;1.978393e-003
2.061618e+003;1.943112e-003
2.063546e+003;1.964480e-003
2.065475e+003;1.871894e-003
2.067404e+003;1.878782e-003
2.069332e+003;2.079526e-003
2.071260e+003;2.125107e-003
2.073189e+003;2.264075e-003
2.075118e+003;2.265574e-003
2.077046e+003;2.047899e-003
2.078975e+003;2.092378e-003
2.080903e+003;2.505687e-003
2.082832e+003;2.944642e-003
2.084760e+003;3.095019e-003
2.086689e+003;3.066855e-003
2.088617e+003;2.855982e-003
2.090546e+003;2.856682e-003
2.092475e+003;3.176652e-003
2.094403e+003;3.164269e-003
2.096332e+003;2.896540e-003
2.098260e+003;2.902878e-003
2.100189e+003;3.076265e-003
2.102117e+003;3.084841e-003
2.104046e+003;3.124086e-003
2.105974e+003;3.125521e-003
2.107903e+003;3.129593e-003
2.109832e+003;2.996953e-003
2.111760e+003;2.905913e-003
2.113688e+003;3.145045e-003
2.115617e+003;3.558256e-003
2.117546e+003;3.632659e-003
2.119474e+003;3.488976e-003
2.121403e+003;3.597978e-003
2.123331e+003;3.999614e-003
2.125260e+003;4.190435e-003
2.127188e+003;4.428936e-003
2.129117e+003;4.820487e-003
2.131045e+003;5.009087e-003
2.132974e+003;5.132687e-003
2.134903e+003;5.090679e-003
2.136831e+003;4.755628e-003
2.138760e+003;4.512126e-003
2.140688e+003;4.512930e-003
2.142617e+003;4.542929e-003
2.144545e+003;4.408217e-003
2.146474e+003;4.387899e-003
2.148402e+003;4.382979e-003
2.150331e+003;4.452703e-003
2.152260e+003;4.770569e-003
2.154188e+003;4.998127e-003
2.156117e+003;5.022093e-003
2.158045e+003;5.007914e-003
2.159974e+003;5.097988e-003
2.161902e+003;5.337625e-003
2.163831e+003;5.687191e-003
2.165759e+003;5.928733e-003
2.167688e+003;5.997396e-003
2.169616e+003;6.112439e-003
2.171545e+003;6.457148e-003
2.173474e+003;6.700296e-003
2.175402e+003;6.640270e-003
2.177331e+003;6.403208e-003
2.179259e+003;6.203717e-003
2.181188e+003;6.029984e-003
2.183116e+003;5.867504e-003
2.185045e+003;6.178576e-003
2.186973e+003;6.513214e-003
2.188902e+003;6.482943e-003
2.190831e+003;6.245900e-003
2.192759e+003;6.339491e-003
2.194688e+003;6.640910e-003
2.196616e+003;6.636603e-003
2.198545e+003;6.277969e-003
2.200473e+003;5.977575e-003
2.202402e+003;5.889502e-003
2.204330e+003;5.896690e-003
2.206259e+003;5.738793e-003
2.208188e+003;5.699445e-003
2.210116e+003;5.773779e-003
2.212044e+003;5.642612e-003
2.213973e+003;5.807559e-003
2.215902e+003;5.856656e-003
2.217830e+003;5.898638e-003
2.219759e+003;6.000822e-003
2.221687e+003;5.886446e-003
2.223616e+003;5.857899e-003
2.225544e+003;6.038350e-003
2.227473e+003;6.253329e-003
2.229401e+003;6.453886e-003
2.231330e+003;6.513920e-003
2.233259e+003;6.402872e-003
2.235187e+003;6.184290e-003
2.237116e+003;6.299854e-003
2.239044e+003;6.486576e-003
2.240973e+003;6.410674e-003
2.242901e+003;6.284860e-003
2.244830e+003;6.287516e-003
2.246758e+003;6.490309e-003
2.248687e+003;6.642558e-003
2.250615e+003;6.774668e-003
2.252544e+003;6.654031e-003
2.254473e+003;6.685996e-003
2.256401e+003;6.981223e-003
2.258330e+003;7.019543e-003
2.260258e+003;6.696057e-003
2.262187e+003;6.602287e-003
2.264115e+003;6.868340e-003
2.266044e+003;7.058202e-003
2.267972e+003;6.762384e-003
2.269901e+003;6.422443e-003
2.271830e+003;6.320698e-003
2.273758e+003;6.151925e-003
2.275687e+003;6.127057e-003
2.277615e+003;6.092345e-003
2.279544e+003;6.109919e-003
2.281472e+003;6.046077e-003
2.283401e+003;5.877176e-003
2.285329e+003;5.921814e-003
2.287258e+003;5.958763e-003
2.289187e+003;5.760382e-003
2.291115e+003;5.758938e-003
2.293043e+003;6.009490e-003
2.294972e+003;6.158513e-003
2.296901e+003;6.030387e-003
2.298829e+003;5.863944e-003
2.300758e+003;6.016478e-003
2.302686e+003;6.238942e-003
2.304615e+003;6.246135e-003
2.306543e+003;6.202944e-003
2.308472e+003;6.381352e-003
2.310400e+003;6.763494e-003
2.312329e+003;6.698143e-003
2.314258e+003;6.482607e-003
2.316186e+003;6.422376e-003
2.318115e+003;6.219212e-003
2.320043e+003;6.042314e-003
2.321972e+003;6.304022e-003
2.323900e+003;6.733510e-003
2.325829e+003;6.812161e-003
2.327757e+003;7.098785e-003
2.329686e+003;7.448121e-003
2.331615e+003;7.419268e-003
2.333543e+003;7.317221e-003
2.335472e+003;7.568843e-003
2.337400e+003;7.837545e-003
2.339329e+003;7.646903e-003
2.341257e+003;7.762790e-003
2.343186e+003;8.114888e-003
2.345114e+003;8.141795e-003
2.347043e+003;8.111040e-003
2.348971e+003;7.967960e-003
2.350900e+003;7.845575e-003
2.352829e+003;8.172620e-003
2.354757e+003;8.552185e-003
2.356686e+003;8.703266e-003
2.358614e+003;8.501127e-003
2.360543e+003;8.307323e-003
2.362471e+003;8.321745e-003
2.364400e+003;8.553199e-003
2.366328e+003;8.903504e-003
2.368257e+003;8.752793e-003
2.370186e+003;8.602000e-003
2.372114e+003;8.645836e-003
2.374042e+003;8.791641e-003
2.375971e+003;8.776731e-003
2.377900e+003;8.841922e-003
2.379828e+003;8.881421e-003
2.381757e+003;8.875739e-003
2.383685e+003;9.091925e-003
2.385614e+003;9.071354e-003
2.387542e+003;8.995844e-003
2.389471e+003;9.168974e-003
2.391399e+003;9.486586e-003
2.393328e+003;9.529259e-003
2.395257e+003;9.623189e-003
2.397185e+003;9.753395e-003
2.399114e+003;9.659810e-003
2.401042e+003;9.893064e-003
2.402971e+003;9.870082e-003
2.404899e+003;9.342985e-003
2.406828e+003;9.074906e-003
2.408756e+003;9.121261e-003
2.410685e+003;9.183221e-003
2.412614e+003;9.219637e-003
2.414542e+003;9.288279e-003
2.416471e+003;9.420587e-003
2.418399e+003;9.656355e-003
2.420328e+003;9.782742e-003
2.422256e+003;9.530377e-003
2.424185e+003;9.510733e-003
2.426113e+003;1.000609e-002
2.428042e+003;1.048983e-002
2.429970e+003;1.034203e-002
2.431899e+003;1.019079e-002
2.433828e+003;1.013513e-002
2.435756e+003;9.977410e-003
2.437685e+003;9.509142e-003
2.439613e+003;9.050242e-003
2.441542e+003;8.961070e-003
2.443470e+003;9.228436e-003
2.445399e+003;9.155167e-003
2.447327e+003;8.775649e-003
2.449256e+003;8.747993e-003
2.451185e+003;9.002508e-003
2.453113e+003;9.146504e-003
2.455042e+003;9.135202e-003
2.456970e+003;8.824508e-003
2.458899e+003;8.624103e-003
2.460827e+003;8.823121e-003
2.462756e+003;8.585980e-003
2.464684e+003;8.486159e-003
2.466613e+003;8.621974e-003
2.468542e+003;8.645160e-003
2.470470e+003;8.505723e-003
2.472398e+003;8.479537e-003
2.474327e+003;8.637724e-003
2.476256e+003;8.727877e-003
2.478184e+003;8.990669e-003
2.480113e+003;9.456278e-003
2.482041e+003;9.624103e-003
2.483970e+003;9.659098e-003
2.485898e+003;9.802397e-003
2.487827e+003;9.777218e-003
2.489755e+003;9.508498e-003
2.491684e+003;9.399560e-003
2.493613e+003;9.487500e-003
2.495541e+003;9.349621e-003
2.497470e+003;9.115136e-003
2.499398e+003;9.244750e-003
2.501327e+003;9.368309e-003
2.503255e+003;9.309809e-003
2.505184e+003;9.496509e-003
2.507112e+003;9.838357e-003
2.509041e+003;1.008463e-002
2.510969e+003;1.007262e-002
2.512898e+003;1.008883e-002
2.514827e+003;1.051689e-002
2.516755e+003;1.075668e-002
2.518684e+003;1.066600e-002
2.520612e+003;1.077298e-002
2.522541e+003;1.106526e-002
2.524469e+003;1.154477e-002
2.526398e+003;1.190523e-002
2.528326e+003;1.183767e-002
2.530255e+003;1.193435e-002
2.532184e+003;1.231923e-002
2.534112e+003;1.243756e-002
2.536041e+003;1.215894e-002
2.537969e+003;1.232901e-002
2.539898e+003;1.282384e-002
2.541826e+003;1.318653e-002
2.543755e+003;1.335826e-002
2.545683e+003;1.347882e-002
2.547612e+003;1.369844e-002
2.549541e+003;1.412049e-002
2.551469e+003;1.470198e-002
2.553397e+003;1.514693e-002
2.555326e+003;1.525519e-002
2.557255e+003;1.549511e-002
2.559183e+003;1.582048e-002
2.561112e+003;1.610902e-002
2.563040e+003;1.653964e-002
2.564969e+003;1.683645e-002
2.566897e+003;1.688040e-002
2.568826e+003;1.735179e-002
2.570754e+003;1.820954e-002
2.572683e+003;1.875316e-002
2.574612e+003;1.918870e-002
2.576540e+003;1.970414e-002
2.578469e+003;2.032952e-002
2.580397e+003;2.079741e-002
2.582326e+003;2.086359e-002
2.584254e+003;2.035212e-002
2.586183e+003;1.952378e-002
2.588111e+003;1.891576e-002
2.590040e+003;1.873839e-002
2.591969e+003;1.837512e-002
2.593897e+003;1.799078e-002
2.595826e+003;1.811333e-002
2.597754e+003;1.791363e-002
2.599683e+003;1.769605e-002
2.601611e+003;1.797020e-002
2.603540e+003;1.830319e-002
2.605468e+003;1.851842e-002
2.607397e+003;1.872874e-002
2.609325e+003;1.883388e-002
2.611254e+003;1.903421e-002
2.613183e+003;1.954880e-002
2.615111e+003;1.999403e-002
2.617040e+003;2.000266e-002
2.618968e+003;1.960683e-002
2.620897e+003;1.975130e-002
2.622825e+003;1.997820e-002
2.624754e+003;1.948798e-002
2.626682e+003;1.894576e-002
2.628611e+003;1.881042e-002
2.630540e+003;1.877790e-002
2.632468e+003;1.867702e-002
2.634396e+003;1.863759e-002
2.636325e+003;1.879277e-002
2.638254e+003;1.886084e-002
2.640182e+003;1.913936e-002
2.642111e+003;1.965286e-002
2.644039e+003;1.993380e-002
2.645968e+003;2.028817e-002
2.647896e+003;2.071069e-002
2.649825e+003;2.121524e-002
2.651753e+003;2.193887e-002
2.653682e+003;2.214280e-002
2.655611e+003;2.204623e-002
2.657539e+003;2.211229e-002
2.659468e+003;2.243822e-002
2.661396e+003;2.286106e-002
2.663325e+003;2.311315e-002
2.665253e+003;2.291370e-002
2.667182e+003;2.265757e-002
2.669110e+003;2.270470e-002
2.671039e+003;2.296529e-002
2.672968e+003;2.318655e-002
2.674896e+003;2.349968e-002
2.676825e+003;2.374056e-002
2.678753e+003;2.390822e-002
2.680682e+003;2.385802e-002
2.682610e+003;2.362687e-002
2.684539e+003;2.361473e-002
2.686467e+003;2.382092e-002
2.688396e+003;2.402328e-002
2.690324e+003;2.399229e-002
2.692253e+003;2.396382e-002
2.694182e+003;2.387465e-002
2.696110e+003;2.376992e-002
2.698039e+003;2.401603e-002
2.699967e+003;2.443466e-002
2.701896e+003;2.470864e-002
2.703824e+003;2.540155e-002
2.705753e+003;2.629022e-002
2.707681e+003;2.704307e-002
2.709610e+003;2.794433e-002
2.711539e+003;2.890385e-002
2.713467e+003;3.000297e-002
2.715396e+003;3.139540e-002
2.717324e+003;3.304325e-002
2.719253e+003;3.482058e-002
2.721181e+003;3.619251e-002
2.723110e+003;3.668812e-002
2.725038e+003;3.617764e-002
2.726967e+003;3.527905e-002
2.728896e+003;3.414952e-002
2.730824e+003;3.259282e-002
2.732752e+003;3.152639e-002
2.734681e+003;3.061510e-002
2.736610e+003;2.946645e-002
2.738538e+003;2.861864e-002
2.740467e+003;2.782965e-002
2.742395e+003;2.684624e-002
2.744324e+003;2.588148e-002
2.746252e+003;2.542512e-002
2.748181e+003;2.531314e-002
2.750109e+003;2.525698e-002
2.752038e+003;2.537496e-002
2.753967e+003;2.554142e-002
2.755895e+003;2.569083e-002
2.757824e+003;2.571168e-002
2.759752e+003;2.602657e-002
2.761681e+003;2.683101e-002
2.763609e+003;2.709131e-002
2.765538e+003;2.720982e-002
2.767466e+003;2.770514e-002
2.769395e+003;2.809673e-002
2.771323e+003;2.860881e-002
2.773252e+003;2.916667e-002
2.775181e+003;2.983245e-002
2.777109e+003;3.063907e-002
2.779038e+003;3.152471e-002
2.780966e+003;3.253310e-002
2.782895e+003;3.359202e-002
2.784823e+003;3.471924e-002
2.786752e+003;3.622471e-002
2.788680e+003;3.826492e-002
2.790609e+003;4.004699e-002
2.792538e+003;4.159131e-002
2.794466e+003;4.285203e-002
2.796395e+003;4.352342e-002
2.798323e+003;4.446245e-002
2.800252e+003;4.585083e-002
2.802180e+003;4.770039e-002
2.804109e+003;4.988366e-002
2.806037e+003;5.214782e-002
2.807966e+003;5.441987e-002
2.809895e+003;5.615253e-002
2.811823e+003;5.789452e-002
2.813751e+003;5.993351e-002
2.815680e+003;6.190594e-002
2.817609e+003;6.406219e-002
2.819537e+003;6.650247e-002
2.821466e+003;6.917294e-002
2.823394e+003;7.276475e-002
2.825323e+003;7.763467e-002
2.827251e+003;8.379228e-002
2.829180e+003;9.143076e-002
2.831108e+003;1.003302e-001
2.833037e+003;1.096244e-001
2.834966e+003;1.173120e-001
2.836894e+003;1.214532e-001
2.838823e+003;1.214687e-001
2.840751e+003;1.187997e-001
2.842680e+003;1.149194e-001
2.844608e+003;1.105614e-001
2.846537e+003;1.061039e-001
2.848465e+003;1.026311e-001
2.850394e+003;1.002761e-001
2.852323e+003;9.874500e-002
2.854251e+003;9.796612e-002
2.856180e+003;9.856265e-002
2.858108e+003;1.011112e-001
2.860037e+003;1.062215e-001
2.861965e+003;1.134325e-001
2.863894e+003;1.211879e-001
2.865822e+003;1.277532e-001
2.867751e+003;1.314498e-001
2.869679e+003;1.323476e-001
2.871608e+003;1.323973e-001
2.873536e+003;1.324505e-001
2.875465e+003;1.321782e-001
2.877394e+003;1.312174e-001
2.879322e+003;1.301143e-001
2.881251e+003;1.288504e-001
2.883179e+003;1.278888e-001
2.885108e+003;1.279032e-001
2.887036e+003;1.285957e-001
2.888965e+003;1.303825e-001
2.890893e+003;1.328229e-001
2.892822e+003;1.357859e-001
2.894750e+003;1.399047e-001
2.896679e+003;1.446804e-001
2.898608e+003;1.495502e-001
2.900536e+003;1.549626e-001
2.902465e+003;1.608187e-001
2.904393e+003;1.664233e-001
2.906322e+003;1.714473e-001
2.908250e+003;1.759493e-001
2.910179e+003;1.800111e-001
2.912107e+003;1.834262e-001
2.914036e+003;1.861378e-001
2.915965e+003;1.870690e-001
2.917893e+003;1.858468e-001
2.919822e+003;1.837211e-001
2.921750e+003;1.800303e-001
2.923679e+003;1.747101e-001
2.925607e+003;1.689406e-001
2.927536e+003;1.620801e-001
2.929464e+003;1.540997e-001
2.931393e+003;1.453166e-001
2.933322e+003;1.367470e-001
2.935250e+003;1.299733e-001
2.937178e+003;1.249771e-001
2.939107e+003;1.224872e-001
2.941036e+003;1.229072e-001
2.942964e+003;1.266851e-001
2.944893e+003;1.339328e-001
2.946821e+003;1.423783e-001
2.948750e+003;1.495895e-001
2.950678e+003;1.536898e-001
2.952607e+003;1.538236e-001
2.954535e+003;1.516740e-001
2.956464e+003;1.482568e-001
2.958393e+003;1.439914e-001
2.960321e+003;1.384240e-001
2.962250e+003;1.312381e-001
2.964178e+003;1.233561e-001
2.966107e+003;1.159254e-001
2.968035e+003;1.086976e-001
2.969964e+003;1.013637e-001
2.971892e+003;9.466589e-002
2.973821e+003;8.851012e-002
2.975750e+003;8.312981e-002
2.977678e+003;7.845906e-002
2.979607e+003;7.424591e-002
2.981535e+003;7.012372e-002
2.983464e+003;6.682925e-002
2.985392e+003;6.399437e-002
2.987321e+003;6.094060e-002
2.989249e+003;5.813049e-002
2.991178e+003;5.561968e-002
2.993106e+003;5.325539e-002
2.995035e+003;5.098926e-002
2.996964e+003;4.878042e-002
2.998892e+003;4.660168e-002
3.000821e+003;4.465821e-002
3.002749e+003;4.252762e-002
3.004678e+003;4.044541e-002
3.006606e+003;3.852339e-002
3.008535e+003;3.720733e-002
3.010463e+003;3.602922e-002
3.012392e+003;3.428707e-002
3.014321e+003;3.276508e-002
3.016249e+003;3.135961e-002
3.018177e+003;2.966003e-002
3.020106e+003;2.849242e-002
3.022035e+003;2.806760e-002
3.023963e+003;2.749770e-002
3.025892e+003;2.654424e-002
3.027820e+003;2.577574e-002
3.029749e+003;2.490412e-002
3.031677e+003;2.448756e-002
3.033606e+003;2.429237e-002
3.035534e+003;2.347660e-002
3.037463e+003;2.273567e-002
3.039392e+003;2.245581e-002
3.041320e+003;2.218077e-002
3.043249e+003;2.192253e-002
3.045177e+003;2.147449e-002
3.047106e+003;2.110360e-002
3.049034e+003;2.064043e-002
3.050963e+003;2.062416e-002
3.052891e+003;2.089085e-002
3.054820e+003;2.053596e-002
3.056749e+003;1.993751e-002
3.058677e+003;1.962503e-002
3.060606e+003;1.975182e-002
3.062534e+003;2.008459e-002
3.064463e+003;1.992336e-002
3.066391e+003;1.937176e-002
3.068320e+003;1.884513e-002
3.070248e+003;1.888226e-002
3.072177e+003;1.919095e-002
3.074105e+003;1.925004e-002
3.076034e+003;1.867066e-002
3.077963e+003;1.836817e-002
3.079891e+003;1.862766e-002
3.081820e+003;1.877606e-002
3.083748e+003;1.901305e-002
3.085677e+003;1.895847e-002
3.087605e+003;1.849798e-002
3.089534e+003;1.820744e-002
3.091462e+003;1.825789e-002
3.093391e+003;1.811429e-002
3.095320e+003;1.756761e-002
3.097248e+003;1.736020e-002
3.099177e+003;1.781541e-002
3.101105e+003;1.826604e-002
3.103034e+003;1.805930e-002
3.104962e+003;1.820827e-002
3.106891e+003;1.858710e-002
3.108819e+003;1.829442e-002
3.110748e+003;1.806075e-002
3.112677e+003;1.816411e-002
3.114605e+003;1.834557e-002
3.116533e+003;1.853650e-002
3.118462e+003;1.839430e-002
3.120391e+003;1.816338e-002
3.122319e+003;1.802369e-002
3.124248e+003;1.757682e-002
3.126176e+003;1.781541e-002
3.128105e+003;1.870705e-002
3.130033e+003;1.884253e-002
3.131962e+003;1.854356e-002
3.133890e+003;1.852468e-002
3.135819e+003;1.892780e-002
3.137748e+003;1.915802e-002
3.139676e+003;1.933206e-002
3.141605e+003;1.939144e-002
3.143533e+003;1.960523e-002
3.145462e+003;1.986831e-002
3.147390e+003;1.985048e-002
3.149319e+003;1.970799e-002
3.151247e+003;1.989533e-002
3.153176e+003;1.978788e-002
3.155104e+003;1.928876e-002
3.157033e+003;1.935115e-002
3.158962e+003;1.998591e-002
3.160890e+003;2.017663e-002
3.162819e+003;1.985610e-002
3.164747e+003;1.975033e-002
3.166676e+003;2.021808e-002
3.168604e+003;2.042953e-002
3.170533e+003;2.021103e-002
3.172461e+003;2.018152e-002
3.174390e+003;2.068709e-002
3.176319e+003;2.096839e-002
3.178247e+003;2.082487e-002
3.180176e+003;2.078614e-002
3.182104e+003;2.059602e-002
3.184033e+003;2.051424e-002
3.185961e+003;2.075583e-002
3.187890e+003;2.077360e-002
3.189818e+003;2.088285e-002
3.191747e+003;2.113822e-002
3.193676e+003;2.127645e-002
3.195604e+003;2.094095e-002
3.197532e+003;2.069039e-002
3.199461e+003;2.119339e-002
3.201390e+003;2.166141e-002
3.203318e+003;2.150405e-002
3.205247e+003;2.113435e-002
3.207175e+003;2.066221e-002
3.209104e+003;2.086585e-002
3.211032e+003;2.138029e-002
3.212961e+003;2.118727e-002
3.214889e+003;2.073081e-002
3.216818e+003;2.076008e-002
3.218747e+003;2.083189e-002
3.220675e+003;2.088157e-002
3.222604e+003;2.108913e-002
3.224532e+003;2.106660e-002
3.226461e+003;2.107150e-002
3.228389e+003;2.045408e-002
3.230318e+003;2.015119e-002
3.232246e+003;2.026862e-002
3.234175e+003;1.984459e-002
3.236104e+003;1.933068e-002
3.238032e+003;1.932489e-002
3.239961e+003;1.932482e-002
3.241889e+003;1.903701e-002
3.243818e+003;1.887108e-002
3.245746e+003;1.904442e-002
3.247675e+003;1.916065e-002
3.249603e+003;1.923632e-002
3.251532e+003;1.936913e-002
3.253460e+003;1.927802e-002
3.255389e+003;1.906218e-002
3.257318e+003;1.910234e-002
3.259246e+003;1.913814e-002
3.261175e+003;1.919584e-002
3.263103e+003;1.946213e-002
3.265032e+003;1.976198e-002
3.266960e+003;1.951879e-002
3.268889e+003;1.881045e-002
3.270817e+003;1.855407e-002
3.272746e+003;1.848018e-002
3.274675e+003;1.865748e-002
3.276603e+003;1.927491e-002
3.278531e+003;1.961106e-002
3.280460e+003;1.907104e-002
3.282389e+003;1.862504e-002
3.284317e+003;1.899121e-002
3.286246e+003;1.922084e-002
3.288174e+003;1.926167e-002
3.290103e+003;1.935247e-002
3.292031e+003;1.933539e-002
3.293960e+003;1.945842e-002
3.295888e+003;1.954222e-002
3.297817e+003;1.912848e-002
3.299746e+003;1.872804e-002
3.301674e+003;1.853848e-002
3.303603e+003;1.843226e-002
3.305531e+003;1.889790e-002
3.307460e+003;1.921014e-002
3.309388e+003;1.896563e-002
3.311317e+003;1.864596e-002
3.313245e+003;1.896574e-002
3.315174e+003;1.918829e-002
3.317103e+003;1.912415e-002
3.319031e+003;1.861262e-002
3.320960e+003;1.834837e-002
3.322888e+003;1.850922e-002
3.324817e+003;1.872216e-002
3.326745e+003;1.868141e-002
3.328674e+003;1.865602e-002
3.330602e+003;1.877475e-002
3.332531e+003;1.906021e-002
3.334459e+003;1.888932e-002
3.336388e+003;1.832386e-002
3.338317e+003;1.820063e-002
3.340245e+003;1.821013e-002
3.342174e+003;1.820709e-002
3.344102e+003;1.802756e-002
3.346031e+003;1.801247e-002
3.347959e+003;1.800773e-002
3.349888e+003;1.800618e-002
3.351816e+003;1.826190e-002
3.353745e+003;1.867744e-002
3.355674e+003;1.850825e-002
3.357602e+003;1.837142e-002
3.359531e+003;1.867242e-002
3.361459e+003;1.861618e-002
3.363388e+003;1.816100e-002
3.365316e+003;1.785176e-002
3.367245e+003;1.750938e-002
3.369173e+003;1.736313e-002
3.371102e+003;1.762179e-002
3.373031e+003;1.758000e-002
3.374959e+003;1.723828e-002
3.376887e+003;1.692143e-002
3.378816e+003;1.674942e-002
3.380745e+003;1.677032e-002
3.382673e+003;1.652398e-002
3.384602e+003;1.654670e-002
3.386530e+003;1.691874e-002
3.388459e+003;1.714131e-002
3.390387e+003;1.705618e-002
3.392316e+003;1.681075e-002
3.394244e+003;1.659668e-002
3.396173e+003;1.611352e-002
3.398102e+003;1.595008e-002
3.400030e+003;1.633231e-002
3.401959e+003;1.660807e-002
3.403887e+003;1.657857e-002
3.405816e+003;1.638963e-002
3.407744e+003;1.621704e-002
3.409673e+003;1.603791e-002
3.411601e+003;1.608536e-002
3.413530e+003;1.611565e-002
3.415458e+003;1.589203e-002
3.417387e+003;1.536235e-002
3.419316e+003;1.502943e-002
3.421244e+003;1.523065e-002
3.423173e+003;1.537463e-002
3.425101e+003;1.517016e-002
3.427030e+003;1.535812e-002
3.428958e+003;1.572052e-002
3.430887e+003;1.567095e-002
3.432815e+003;1.432071e-002
3.434744e+003;1.356753e-002
3.436673e+003;1.411145e-002
3.438601e+003;1.453160e-002
3.440530e+003;1.468485e-002
3.442458e+003;1.417848e-002
3.444387e+003;1.371188e-002
3.446315e+003;1.336267e-002
3.448244e+003;1.311457e-002
3.450172e+003;1.307687e-002
3.452101e+003;1.283719e-002
3.454030e+003;1.248509e-002
3.455958e+003;1.263144e-002
3.457886e+003;1.275116e-002
3.459815e+003;1.289279e-002
3.461744e+003;1.283882e-002
3.463672e+003;1.289572e-002
3.465601e+003;1.262257e-002
3.467529e+003;1.216610e-002
3.469458e+003;1.216109e-002
3.471386e+003;1.219851e-002
3.473315e+003;1.172287e-002
3.475243e+003;1.144410e-002
3.477172e+003;1.108885e-002
3.479101e+003;1.098125e-002
3.481029e+003;1.134433e-002
3.482958e+003;1.125952e-002
3.484886e+003;1.117618e-002
3.486815e+003;1.111988e-002
3.488743e+003;1.078100e-002
3.490672e+003;1.058017e-002
3.492600e+003;1.107889e-002
3.494529e+003;1.096942e-002
3.496458e+003;1.046580e-002
3.498386e+003;9.855643e-003
3.500315e+003;9.210431e-003
3.502243e+003;9.028455e-003
3.504172e+003;9.441818e-003
3.506100e+003;9.812972e-003
3.508029e+003;9.979409e-003
3.509957e+003;9.958627e-003
3.511886e+003;9.850796e-003
3.513814e+003;9.638433e-003
3.515743e+003;9.299857e-003
3.517672e+003;9.241129e-003
3.519600e+003;9.366752e-003
3.521529e+003;9.071218e-003
3.523457e+003;8.495451e-003
3.525386e+003;8.244643e-003
3.527314e+003;8.649622e-003
3.529243e+003;9.049125e-003
3.531171e+003;8.784203e-003
3.533100e+003;8.271052e-003
3.535029e+003;8.039814e-003
3.536957e+003;8.256091e-003
3.538885e+003;8.355758e-003
3.540814e+003;8.188320e-003
3.542743e+003;7.986151e-003
3.544671e+003;7.639046e-003
3.546600e+003;7.699109e-003
3.548528e+003;7.502898e-003
3.550457e+003;7.375218e-003
3.552385e+003;7.390519e-003
3.554314e+003;6.841646e-003
3.556242e+003;6.402401e-003
3.558171e+003;6.492563e-003
3.560100e+003;6.543250e-003
3.562028e+003;6.186306e-003
3.563957e+003;5.628380e-003
3.565885e+003;4.714963e-003
3.567814e+003;4.639503e-003
3.569742e+003;5.464741e-003
3.571671e+003;5.474707e-003
3.573599e+003;5.044183e-003
3.575528e+003;5.290600e-003
3.577457e+003;5.179730e-003
3.579385e+003;4.761122e-003
3.581314e+003;4.636757e-003
3.583242e+003;4.320897e-003
3.585171e+003;3.614048e-003
3.587099e+003;2.911117e-003
3.589028e+003;3.698152e-003
3.590956e+003;4.556121e-003
3.592885e+003;3.803429e-003
3.594813e+003;3.673424e-003
3.596742e+003;4.215962e-003
3.598671e+003;3.831842e-003
3.600599e+003;3.819641e-003
3.602528e+003;4.270066e-003
3.604456e+003;3.973197e-003
3.606385e+003;2.935702e-003
3.608313e+003;1.901478e-003
3.610242e+003;1.974899e-003
3.612170e+003;2.247256e-003
3.614099e+003;2.659179e-003
3.616028e+003;2.649478e-003
3.617956e+003;1.453768e-003
3.619885e+003;1.608551e-003
3.621813e+003;3.191405e-003
3.623742e+003;3.160331e-003
3.625670e+003;1.538651e-003
3.627599e+003;-1.115449e-003
3.629527e+003;-1.129891e-003
3.631456e+003;1.431095e-003
3.633385e+003;2.474328e-003
3.635313e+003;2.667680e-003
3.637241e+003;3.003826e-003
3.639170e+003;3.249287e-003
3.641099e+003;3.005360e-003
3.643027e+003;2.584243e-003
3.644956e+003;1.818786e-003
3.646884e+003;5.193883e-004
3.648813e+003;-6.490083e-004
3.650741e+003;1.205915e-004
3.652670e+003;1.313197e-003
3.654598e+003;5.413167e-004
3.656527e+003;4.922531e-004
3.658456e+003;1.747954e-003
3.660384e+003;1.871528e-003
3.662313e+003;1.947606e-003
3.664241e+003;2.237397e-003
3.666170e+003;1.749384e-003
3.668098e+003;3.821041e-004
3.670027e+003;-5.356127e-004
3.671955e+003;6.091656e-004
3.673884e+003;-5.649322e-004
3.675813e+003;-1.106723e-003
3.677741e+003;1.592455e-003
3.679669e+003;2.494156e-003
3.681598e+003;2.448637e-003
3.683527e+003;2.730060e-003
3.685455e+003;1.902476e-003
3.687384e+003;-3.095273e-004
3.689312e+003;-6.803713e-004
3.691241e+003;7.394520e-004
3.693169e+003;2.160536e-003
3.695098e+003;2.787881e-003
3.697026e+003;2.966426e-003
3.698955e+003;3.018139e-003
3.700884e+003;2.072135e-003
3.702812e+003;1.945109e-003
3.704741e+003;2.422814e-003
3.706669e+003;2.070171e-003
3.708598e+003;1.101047e-003
3.710526e+003;4.306578e-004
3.712455e+003;1.090152e-003
3.714383e+003;2.363376e-003
3.716312e+003;2.469297e-003
3.718240e+003;2.881864e-003
3.720169e+003;2.959721e-003
3.722098e+003;2.695852e-003
3.724026e+003;2.320235e-003
3.725955e+003;2.233600e-003
3.727883e+003;2.341755e-003
3.729812e+003;1.668352e-003
3.731740e+003;4.876422e-004
3.733669e+003;-3.065473e-004
3.735597e+003;-1.193569e-003
3.737526e+003;-3.267775e-004
3.739455e+003;1.313928e-003
3.741383e+003;7.388545e-004
3.743312e+003;-2.481265e-003
3.745240e+003;-1.897214e-003
3.747169e+003;-2.606866e-004
3.749097e+003;-2.034693e-003
3.751026e+003;-2.231171e-003
3.752954e+003;-6.331453e-005
3.754883e+003;2.210587e-003
3.756812e+003;2.616276e-003
3.758740e+003;2.841940e-003
3.760668e+003;3.295158e-003
3.762597e+003;3.933407e-003
3.764526e+003;3.625141e-003
3.766454e+003;3.277130e-003
3.768383e+003;2.378701e-003
3.770311e+003;2.163033e-003
3.772240e+003;2.927596e-003
3.774168e+003;3.202654e-003
3.776097e+003;2.863419e-003
3.778025e+003;2.743364e-003
3.779954e+003;2.896007e-003
3.781883e+003;2.967260e-003
3.783811e+003;2.810791e-003
3.785740e+003;3.164703e-003
3.787668e+003;3.648296e-003
3.789597e+003;3.875400e-003
3.791525e+003;3.322235e-003
3.793454e+003;2.777977e-003
3.795382e+003;2.365008e-003
3.797311e+003;2.603675e-003
3.799240e+003;1.393565e-003
3.801168e+003;-1.014446e-004
3.803097e+003;1.411781e-003
3.805025e+003;1.638450e-003
3.806954e+003;8.727987e-004
3.808882e+003;2.298350e-003
3.810811e+003;2.995451e-003
3.812739e+003;2.224575e-003
3.814668e+003;4.203430e-004
3.816596e+003;5.390607e-004
3.818525e+003;1.085003e-003
3.820454e+003;7.654638e-005
3.822382e+003;1.363284e-003
3.824311e+003;2.805022e-003
3.826239e+003;2.926695e-003
3.828168e+003;2.878195e-003
3.830096e+003;2.666813e-003
3.832025e+003;2.680149e-003
3.833953e+003;2.579376e-003
3.835882e+003;9.731096e-004
3.837811e+003;-3.303863e-004
3.839739e+003;7.195050e-004
3.841667e+003;1.653517e-003
3.843596e+003;2.221544e-003
3.845525e+003;2.782645e-003
3.847453e+003;2.959587e-003
3.849382e+003;2.017272e-003
3.851310e+003;-1.091322e-003
3.853239e+003;-3.368957e-003
3.855167e+003;-1.303297e-004
3.857096e+003;3.326175e-003
3.859024e+003;3.565104e-003
3.860953e+003;2.889336e-003
3.862882e+003;2.494389e-003
3.864810e+003;2.180283e-003
3.866739e+003;2.686583e-003
3.868667e+003;1.740602e-003
3.870596e+003;1.684683e-003
3.872524e+003;2.877228e-003
3.874453e+003;3.540517e-003
3.876381e+003;4.320328e-003
3.878310e+003;3.631189e-003
3.880239e+003;3.278832e-003
3.882167e+003;3.729732e-003
3.884096e+003;2.938638e-003
3.886024e+003;2.785180e-003
3.887953e+003;3.562832e-003
3.889881e+003;2.735829e-003
3.891810e+003;2.715390e-003
3.893738e+003;3.797546e-003
3.895667e+003;4.202981e-003
3.897595e+003;3.676899e-003
3.899524e+003;3.187166e-003
3.901453e+003;2.720891e-003
3.903381e+003;2.647011e-003
3.905310e+003;3.732840e-003
3.907238e+003;4.161932e-003
3.909167e+003;4.166984e-003
3.911095e+003;4.492039e-003
3.913024e+003;4.895642e-003
3.914952e+003;4.444736e-003
3.916881e+003;3.349748e-003
3.918810e+003;3.278665e-003
3.920738e+003;3.930699e-003
3.922667e+003;3.993896e-003
3.924595e+003;3.523414e-003
3.926524e+003;4.127878e-003
3.928452e+003;4.748493e-003
3.930381e+003;4.495119e-003
3.932309e+003;4.550999e-003
3.934238e+003;5.041970e-003
3.936167e+003;5.391869e-003
3.938095e+003;5.570985e-003
3.940023e+003;5.614315e-003
3.941952e+003;5.097015e-003
3.943881e+003;4.665860e-003
3.945809e+003;4.910253e-003
3.947738e+003;4.643857e-003
3.949666e+003;3.965674e-003
3.951595e+003;4.440652e-003
3.953523e+003;5.053904e-003
3.955452e+003;4.864714e-003
3.957380e+003;4.979726e-003
3.959309e+003;5.042875e-003
3.961238e+003;5.386099e-003
3.963166e+003;5.177215e-003
3.965095e+003;4.741827e-003
3.967023e+003;4.957606e-003
3.968952e+003;5.111867e-003
3.970880e+003;4.831644e-003
3.972809e+003;4.973962e-003
3.974737e+003;5.204175e-003
3.976666e+003;5.300192e-003
3.978594e+003;5.582765e-003
3.980523e+003;5.850174e-003
3.982452e+003;5.747254e-003
3.984380e+003;5.953086e-003
3.986309e+003;6.441376e-003
3.988237e+003;6.612885e-003
3.990166e+003;6.417096e-003
3.992094e+003;6.844036e-003
3.994023e+003;6.848446e-003
3.995951e+003;5.989803e-003
3.997880e+003;5.899444e-003
3.999809e+003;6.174880e-003
4.001737e+003;0.000000e+000
