3.992094e+002;0.000000e+000
4.011380e+002;0.000000e+000
4.030665e+002;0.000000e+000
4.049951e+002;0.000000e+000
4.069236e+002;0.000000e+000
4.088522e+002;0.000000e+000
4.107807e+002;0.000000e+000
4.127093e+002;0.000000e+000
4.146378e+002;0.000000e+000
4.165664e+002;0.000000e+000
4.184949e+002;0.000000e+000
4.204235e+002;0.000000e+000
4.223520e+002;0.000000e+000
4.242806e+002;0.000000e+000
4.262091e+002;0.000000e+000
4.281377e+002;0.000000e+000
4.300662e+002;0.000000e+000
4.319948e+002;0.000000e+000
4.339233e+002;0.000000e+000
4.358519e+002;0.000000e+000
4.377804e+002;0.000000e+000
4.397090e+002;0.000000e+000
4.416375e+002;0.000000e+000
4.435660e+002;0.000000e+000
4.454946e+002;0.000000e+000
4.474232e+002;0.000000e+000
4.493517e+002;0.000000e+000
4.512802e+002;0.000000e+000
4.532088e+002;0.000000e+000
4.551373e+002;0.000000e+000
4.570659e+002;0.000000e+000
4.589944e+002;0.000000e+000
4.609230e+002;0.000000e+000
4.628515e+002;0.000000e+000
4.647801e+002;0.000000e+000
4.667086e+002;0.000000e+000
4.686372e+002;0.000000e+000
4.705657e+002;0.000000e+000
4.724943e+002;0.000000e+000
4.744228e+002;0.000000e+000
4.763513e+002;0.000000e+000
4.782799e+002;0.000000e+000
4.802085e+002;0.000000e+000
4.821370e+002;0.000000e+000
4.840656e+002;0.000000e+000
4.859941e+002;0.000000e+000
4.879226e+002;0.000000e+000
4.898512e+002;0.000000e+000
4.917798e+002;0.000000e+000
4.937083e+002;0.000000e+000
4.956368e+002;0.000000e+000
4.975654e+002;0.000000e+000
4.994939e+002;0.000000e+000
5.014225e+002;0.000000e+000
5.033510e+002;0.000000e+000
5.052796e+002;0.000000e+000
5.072081e+002;0.000000e+000
5.091367e+002;0.000000e+000
5.110652e+002;0.000000e+000
5.129938e+002;0.000000e+000
5.149223e+002;0.000000e+000
5.168509e+002;0.000000e+000
5.187794e+002;0.000000e+000
5.207079e+002;0.000000e+000
5.226365e+002;0.000000e+000
5.245651e+002;0.000000e+000
5.264936e+002;0.000000e+000
5.284222e+002;0.000000e+000
5.303507e+002;0.000000e+000
5.322792e+002;0.000000e+000
5.342078e+002;0.000000e+000
5.361364e+002;0.000000e+000
5.380649e+002;0.000000e+000
5.399935e+002;0.000000e+000
5.419220e+002;0.000000e+000
5.438505e+002;0.000000e+000
5.457791e+002;0.000000e+000
5.477076e+002;0.000000e+000
5.496362e+002;0.000000e+000
5.515648e+002;0.000000e+000
5.534933e+002;0.000000e+000
5.554218e+002;0.000000e+000
5.573504e+002;0.000000e+000
5.592789e+002;0.000000e+000
5.612075e+002;0.000000e+000
5.631360e+002;0.000000e+000
5.650646e+002;0.000000e+000
5.669931e+002;0.000000e+000
5.689217e+002;0.000000e+000
5.708502e+002;0.000000e+000
5.727787e+002;0.000000e+000
5.747073e+002;0.000000e+000
5.766359e+002;0.000000e+000
5.785644e+002;0.000000e+000
5.804930e+002;0.000000e+000
5.824215e+002;0.000000e+000
5.843500e+002;0.000000e+000
5.862786e+002;0.000000e+000
5.882072e+002;0.000000e+000
5.901357e+002;0.000000e+000
5.920643e+002;0.000000e+000
5.939928e+002;0.000000e+000
5.959213e+002;0.000000e+000
5.978499e+002;0.000000e+000
5.997784e+002;2.589597e-002
6.017070e+002;2.853725e-002
6.036355e+002;2.798260e-002
6.055641e+002;2.957320e-002
6.074926e+002;3.429747e-002
6.094211e+002;3.373610e-002
6.113497e+002;3.121272e-002
6.132783e+002;2.971162e-002
6.152068e+002;2.774717e-002
6.171354e+002;2.645236e-002
6.190639e+002;2.516895e-002
6.209924e+002;2.738868e-002
6.229210e+002;3.010275e-002
6.248495e+002;2.732367e-002
6.267781e+002;2.716019e-002
6.287067e+002;2.896041e-002
6.306352e+002;2.827107e-002
6.325637e+002;2.698415e-002
6.344923e+002;3.028639e-002
6.364208e+002;3.283593e-002
6.383494e+002;3.226656e-002
6.402780e+002;3.179051e-002
6.422065e+002;2.829900e-002
6.441350e+002;2.953624e-002
6.460636e+002;3.319244e-002
6.479921e+002;3.310304e-002
6.499207e+002;3.148160e-002
6.518492e+002;3.033709e-002
6.537778e+002;2.721624e-002
6.557063e+002;2.641327e-002
6.576349e+002;2.775194e-002
6.595634e+002;2.866770e-002
6.614919e+002;2.904443e-002
6.634205e+002;2.860739e-002
6.653491e+002;2.811338e-002
6.672776e+002;2.654932e-002
6.692062e+002;2.494812e-002
6.711347e+002;2.535827e-002
6.730632e+002;2.716845e-002
6.749918e+002;2.813286e-002
6.769203e+002;2.691557e-002
6.788489e+002;2.690592e-002
6.807775e+002;2.739873e-002
6.827060e+002;2.631465e-002
6.846345e+002;2.690017e-002
6.865631e+002;2.772908e-002
6.884916e+002;2.705548e-002
6.904202e+002;2.595375e-002
6.923488e+002;2.526031e-002
6.942773e+002;2.619315e-002
6.962058e+002;2.754889e-002
6.981344e+002;2.760160e-002
7.000629e+002;2.757258e-002
7.019915e+002;2.848432e-002
7.039200e+002;3.014935e-002
7.058486e+002;3.086612e-002
7.077771e+002;3.300640e-002
7.097057e+002;3.795032e-002
7.116342e+002;4.279088e-002
7.135627e+002;4.457757e-002
7.154913e+002;4.423093e-002
7.174199e+002;4.197672e-002
7.193484e+002;3.913519e-002
7.212770e+002;3.702544e-002
7.232055e+002;3.491738e-002
7.251340e+002;3.322617e-002
7.270626e+002;3.177693e-002
7.289911e+002;3.045564e-002
7.309197e+002;3.051457e-002
7.328483e+002;3.044295e-002
7.347768e+002;2.987454e-002
7.367053e+002;2.874791e-002
7.386339e+002;2.873481e-002
7.405624e+002;2.939632e-002
7.424910e+002;2.897100e-002
7.444196e+002;2.857869e-002
7.463481e+002;2.853234e-002
7.482766e+002;2.832465e-002
7.502052e+002;2.811624e-002
7.521337e+002;2.742372e-002
7.540623e+002;2.690176e-002
7.559908e+002;2.651659e-002
7.579194e+002;2.664894e-002
7.598479e+002;2.741924e-002
7.617765e+002;2.794433e-002
7.637050e+002;2.835842e-002
7.656335e+002;2.881405e-002
7.675621e+002;2.873393e-002
7.694907e+002;2.787243e-002
7.714192e+002;2.680895e-002
7.733478e+002;2.750819e-002
7.752763e+002;2.846076e-002
7.772048e+002;2.812596e-002
7.791334e+002;2.833883e-002
7.810620e+002;2.870246e-002
7.829905e+002;2.880222e-002
7.849191e+002;2.900635e-002
7.868476e+002;2.944525e-002
7.887761e+002;3.032710e-002
7.907047e+002;3.075485e-002
7.926332e+002;3.118690e-002
7.945618e+002;3.212376e-002
7.964903e+002;3.286281e-002
7.984189e+002;3.340430e-002
8.003474e+002;3.450201e-002
8.022759e+002;3.659439e-002
8.042045e+002;3.975351e-002
8.061331e+002;4.399459e-002
8.080616e+002;4.805189e-002
8.099902e+002;5.034820e-002
8.119187e+002;4.942263e-002
8.138472e+002;4.616553e-002
8.157758e+002;4.280405e-002
8.177043e+002;3.991487e-002
8.196329e+002;3.775593e-002
8.215615e+002;3.623090e-002
8.234900e+002;3.575045e-002
8.254185e+002;3.605787e-002
8.273471e+002;3.632261e-002
8.292756e+002;3.696883e-002
8.312042e+002;3.791171e-002
8.331328e+002;3.956909e-002
8.350613e+002;4.286424e-002
8.369898e+002;4.747088e-002
8.389184e+002;5.296535e-002
8.408469e+002;5.637510e-002
8.427755e+002;5.410045e-002
8.447040e+002;4.860555e-002
8.466326e+002;4.472516e-002
8.485611e+002;4.146786e-002
8.504897e+002;3.847380e-002
8.524182e+002;3.682926e-002
8.543467e+002;3.536053e-002
8.562753e+002;3.430643e-002
8.582039e+002;3.432318e-002
8.601324e+002;3.489382e-002
8.620610e+002;3.619312e-002
8.639895e+002;3.839477e-002
8.659180e+002;4.187057e-002
8.678466e+002;4.823643e-002
8.697751e+002;5.849982e-002
8.717037e+002;7.121662e-002
8.736323e+002;8.268682e-002
8.755608e+002;8.710311e-002
8.774893e+002;8.176281e-002
8.794179e+002;7.192160e-002
8.813464e+002;6.278349e-002
8.832750e+002;5.455562e-002
8.852036e+002;4.605363e-002
8.871321e+002;3.894147e-002
8.890606e+002;3.535610e-002
8.909892e+002;3.505374e-002
8.929177e+002;3.730690e-002
8.948463e+002;4.159167e-002
8.967748e+002;4.647097e-002
8.987034e+002;4.919005e-002
9.006319e+002;4.849847e-002
9.025605e+002;4.506676e-002
9.044890e+002;4.013453e-002
9.064175e+002;3.530801e-002
9.083461e+002;3.166126e-002
9.102747e+002;2.986939e-002
9.122032e+002;2.900394e-002
9.141318e+002;2.819915e-002
9.160603e+002;2.770726e-002
9.179888e+002;2.720002e-002
9.199174e+002;2.631413e-002
9.218459e+002;2.620539e-002
9.237745e+002;2.675101e-002
9.257031e+002;2.674407e-002
9.276316e+002;2.634757e-002
9.295601e+002;2.663108e-002
9.314887e+002;2.720206e-002
9.334172e+002;2.787077e-002
9.353458e+002;2.912446e-002
9.372744e+002;3.087298e-002
9.392029e+002;3.279687e-002
9.411314e+002;3.375658e-002
9.430600e+002;3.353296e-002
9.449885e+002;3.272038e-002
9.469171e+002;3.225682e-002
9.488456e+002;3.263089e-002
9.507742e+002;3.357452e-002
9.527027e+002;3.399516e-002
9.546313e+002;3.453344e-002
9.565598e+002;3.540945e-002
9.584883e+002;3.657547e-002
9.604169e+002;3.822417e-002
9.623455e+002;4.055969e-002
9.642740e+002;4.360797e-002
9.662026e+002;4.761294e-002
9.681311e+002;5.339865e-002
9.700596e+002;5.990596e-002
9.719882e+002;6.437176e-002
9.739167e+002;6.417505e-002
9.758453e+002;5.960628e-002
9.777739e+002;5.273666e-002
9.797024e+002;4.541579e-002
9.816309e+002;3.918969e-002
9.835595e+002;3.496478e-002
9.854880e+002;3.290491e-002
9.874166e+002;3.274992e-002
9.893452e+002;3.457789e-002
9.912737e+002;3.832481e-002
9.932022e+002;4.321235e-002
9.951307e+002;4.870154e-002
9.970593e+002;5.269847e-002
9.989879e+002;5.239395e-002
1.000916e+003;4.830941e-002
1.002845e+003;4.244479e-002
1.004773e+003;3.726668e-002
1.006702e+003;3.344581e-002
1.008631e+003;3.046516e-002
1.010559e+003;2.846677e-002
1.012488e+003;2.762173e-002
1.014416e+003;2.687602e-002
1.016345e+003;2.620297e-002
1.018273e+003;2.567811e-002
1.020202e+003;2.490225e-002
1.022130e+003;2.457033e-002
1.024059e+003;2.462966e-002
1.025988e+003;2.417462e-002
1.027916e+003;2.389376e-002
1.029845e+003;2.441237e-002
1.031773e+003;2.473333e-002
1.033702e+003;2.467949e-002
1.035630e+003;2.515364e-002
1.037559e+003;2.555906e-002
1.039487e+003;2.584364e-002
1.041416e+003;2.673607e-002
1.043344e+003;2.781463e-002
1.045273e+003;2.828238e-002
1.047202e+003;2.838735e-002
1.049130e+003;2.766883e-002
1.051059e+003;2.637257e-002
1.052987e+003;2.518756e-002
1.054916e+003;2.397825e-002
1.056844e+003;2.340249e-002
1.058773e+003;2.312308e-002
1.060701e+003;2.256629e-002
1.062630e+003;2.212453e-002
1.064558e+003;2.208607e-002
1.066487e+003;2.216529e-002
1.068416e+003;2.210839e-002
1.070344e+003;2.229896e-002
1.072273e+003;2.229223e-002
1.074201e+003;2.173034e-002
1.076130e+003;2.171878e-002
1.078058e+003;2.229146e-002
1.079987e+003;2.276678e-002
1.081915e+003;2.276035e-002
1.083844e+003;2.292820e-002
1.085773e+003;2.320283e-002
1.087701e+003;2.343236e-002
1.089630e+003;2.369906e-002
1.091558e+003;2.407903e-002
1.093487e+003;2.494563e-002
1.095415e+003;2.652639e-002
1.097344e+003;2.870334e-002
1.099272e+003;3.060799e-002
1.101201e+003;3.196509e-002
1.103129e+003;3.205926e-002
1.105058e+003;3.083737e-002
1.106987e+003;2.936891e-002
1.108915e+003;2.685357e-002
1.110844e+003;2.440581e-002
1.112772e+003;2.293371e-002
1.114701e+003;2.206714e-002
1.116629e+003;2.137838e-002
1.118558e+003;2.102358e-002
1.120486e+003;2.123337e-002
1.122415e+003;2.130898e-002
1.124344e+003;2.091042e-002
1.126272e+003;2.030754e-002
1.128201e+003;2.053856e-002
1.130129e+003;2.102709e-002
1.132058e+003;2.113022e-002
1.133986e+003;2.214524e-002
1.135915e+003;2.406803e-002
1.137843e+003;2.576304e-002
1.139772e+003;2.788416e-002
1.141700e+003;3.095442e-002
1.143629e+003;3.437403e-002
1.145557e+003;3.758389e-002
1.147486e+003;4.166786e-002
1.149415e+003;4.623053e-002
1.151343e+003;4.966358e-002
1.153272e+003;5.148468e-002
1.155200e+003;5.226048e-002
1.157129e+003;5.212604e-002
1.159057e+003;5.204155e-002
1.160986e+003;5.279492e-002
1.162914e+003;5.335062e-002
1.164843e+003;5.257896e-002
1.166771e+003;5.099802e-002
1.168700e+003;4.792725e-002
1.170629e+003;4.357807e-002
1.172557e+003;3.907635e-002
1.174486e+003;3.435216e-002
1.176414e+003;3.000464e-002
1.178343e+003;2.639472e-002
1.180271e+003;2.371596e-002
1.182200e+003;2.184625e-002
1.184128e+003;2.055294e-002
1.186057e+003;1.943049e-002
1.187986e+003;1.865225e-002
1.189914e+003;1.891645e-002
1.191843e+003;1.960312e-002
1.193771e+003;1.976049e-002
1.195700e+003;1.982131e-002
1.197628e+003;1.969003e-002
1.199557e+003;1.956305e-002
1.201485e+003;1.970494e-002
1.203414e+003;1.969849e-002
1.205343e+003;1.994278e-002
1.207271e+003;2.065655e-002
1.209200e+003;2.163146e-002
1.211128e+003;2.295995e-002
1.213057e+003;2.509490e-002
1.214985e+003;2.712908e-002
1.216914e+003;2.829027e-002
1.218842e+003;2.819405e-002
1.220771e+003;2.716492e-002
1.222699e+003;2.576670e-002
1.224628e+003;2.432990e-002
1.226557e+003;2.297259e-002
1.228485e+003;2.217000e-002
1.230414e+003;2.183569e-002
1.232342e+003;2.172898e-002
1.234271e+003;2.182224e-002
1.236199e+003;2.198436e-002
1.238128e+003;2.208768e-002
1.240056e+003;2.248369e-002
1.241985e+003;2.279230e-002
1.243913e+003;2.264399e-002
1.245842e+003;2.289110e-002
1.247771e+003;2.405112e-002
1.249699e+003;2.571984e-002
1.251628e+003;2.791861e-002
1.253556e+003;3.089191e-002
1.255485e+003;3.322907e-002
1.257413e+003;3.268472e-002
1.259342e+003;2.990400e-002
1.261270e+003;2.750399e-002
1.263199e+003;2.592059e-002
1.265127e+003;2.499020e-002
1.267056e+003;2.446060e-002
1.268985e+003;2.387997e-002
1.270913e+003;2.353683e-002
1.272842e+003;2.361120e-002
1.274770e+003;2.372373e-002
1.276699e+003;2.402464e-002
1.278627e+003;2.433905e-002
1.280556e+003;2.501968e-002
1.282484e+003;2.626446e-002
1.284413e+003;2.752474e-002
1.286342e+003;2.893222e-002
1.288270e+003;3.088024e-002
1.290199e+003;3.296797e-002
1.292127e+003;3.511258e-002
1.294056e+003;3.674001e-002
1.295984e+003;3.751409e-002
1.297913e+003;3.728462e-002
1.299841e+003;3.708859e-002
1.301770e+003;3.830136e-002
1.303698e+003;4.004536e-002
1.305627e+003;4.008595e-002
1.307556e+003;3.756976e-002
1.309484e+003;3.436101e-002
1.311413e+003;3.251539e-002
1.313341e+003;3.198210e-002
1.315270e+003;3.231860e-002
1.317198e+003;3.357710e-002
1.319127e+003;3.517448e-002
1.321055e+003;3.702057e-002
1.322984e+003;3.971971e-002
1.324912e+003;4.306642e-002
1.326841e+003;4.593560e-002
1.328770e+003;4.726542e-002
1.330698e+003;4.704182e-002
1.332627e+003;4.591317e-002
1.334555e+003;4.476626e-002
1.336484e+003;4.413732e-002
1.338412e+003;4.419267e-002
1.340341e+003;4.508006e-002
1.342269e+003;4.686683e-002
1.344198e+003;4.898797e-002
1.346126e+003;5.159176e-002
1.348055e+003;5.501274e-002
1.349984e+003;5.926176e-002
1.351912e+003;6.465868e-002
1.353841e+003;7.178797e-002
1.355769e+003;8.023789e-002
1.357698e+003;8.704399e-002
1.359626e+003;8.925609e-002
1.361555e+003;8.798825e-002
1.363483e+003;8.768331e-002
1.365412e+003;9.116729e-002
1.367341e+003;9.982976e-002
1.369269e+003;1.161905e-001
1.371198e+003;1.399089e-001
1.373126e+003;1.670659e-001
1.375055e+003;1.891493e-001
1.376983e+003;1.940923e-001
1.378912e+003;1.783883e-001
1.380840e+003;1.516287e-001
1.382769e+003;1.238003e-001
1.384698e+003;1.006080e-001
1.386626e+003;8.376588e-002
1.388555e+003;7.477707e-002
1.390483e+003;7.106698e-002
1.392412e+003;6.876632e-002
1.394340e+003;6.784857e-002
1.396269e+003;6.955918e-002
1.398197e+003;7.168557e-002
1.400126e+003;7.385612e-002
1.402054e+003;7.603978e-002
1.403983e+003;7.740767e-002
1.405911e+003;7.916819e-002
1.407840e+003;8.153324e-002
1.409769e+003;8.389098e-002
1.411697e+003;8.634538e-002
1.413626e+003;8.888614e-002
1.415554e+003;9.083055e-002
1.417483e+003;9.070865e-002
1.419411e+003;9.140430e-002
1.421340e+003;9.551640e-002
1.423268e+003;9.876001e-002
1.425197e+003;1.014097e-001
1.427125e+003;1.047284e-001
1.429054e+003;1.091712e-001
1.430983e+003;1.156384e-001
1.432911e+003;1.226965e-001
1.434840e+003;1.258925e-001
1.436768e+003;1.259011e-001
1.438697e+003;1.280097e-001
1.440625e+003;1.307438e-001
1.442554e+003;1.346754e-001
1.444482e+003;1.412845e-001
1.446411e+003;1.492854e-001
1.448340e+003;1.573287e-001
1.450268e+003;1.641717e-001
1.452197e+003;1.676987e-001
1.454125e+003;1.667501e-001
1.456054e+003;1.611342e-001
1.457982e+003;1.592266e-001
1.459911e+003;1.600019e-001
1.461839e+003;1.564457e-001
1.463768e+003;1.487111e-001
1.465697e+003;1.401167e-001
1.467625e+003;1.317979e-001
1.469554e+003;1.211783e-001
1.471482e+003;1.088708e-001
1.473411e+003;9.964813e-002
1.475339e+003;9.374941e-002
1.477268e+003;8.835038e-002
1.479196e+003;8.375868e-002
1.481125e+003;7.949669e-002
1.483053e+003;7.596250e-002
1.484982e+003;7.204491e-002
1.486911e+003;6.780364e-002
1.488839e+003;6.431370e-002
1.490768e+003;6.271947e-002
1.492696e+003;6.198894e-002
1.494625e+003;5.859901e-002
1.496553e+003;5.525320e-002
1.498482e+003;5.472502e-002
1.500410e+003;5.454612e-002
1.502339e+003;5.324457e-002
1.504267e+003;4.785970e-002
1.506196e+003;4.180945e-002
1.508125e+003;4.277202e-002
1.510053e+003;4.520145e-002
1.511982e+003;4.479164e-002
1.513910e+003;4.368311e-002
1.515839e+003;4.153002e-002
1.517767e+003;3.967803e-002
1.519696e+003;3.643387e-002
1.521624e+003;3.411016e-002
1.523553e+003;3.543260e-002
1.525481e+003;3.598390e-002
1.527410e+003;3.653632e-002
1.529339e+003;3.676540e-002
1.531267e+003;3.551598e-002
1.533196e+003;3.336340e-002
1.535124e+003;3.345379e-002
1.537053e+003;3.116223e-002
1.538981e+003;2.564320e-002
1.540910e+003;2.530987e-002
1.542838e+003;2.818079e-002
1.544767e+003;2.971045e-002
1.546695e+003;3.069226e-002
1.548624e+003;3.027662e-002
1.550553e+003;2.955805e-002
1.552481e+003;2.784183e-002
1.554410e+003;2.526751e-002
1.556338e+003;2.214266e-002
1.558267e+003;1.672590e-002
1.560195e+003;1.824673e-002
1.562124e+003;2.406761e-002
1.564052e+003;2.550428e-002
1.565981e+003;2.524609e-002
1.567910e+003;2.405108e-002
1.569838e+003;2.315341e-002
1.571767e+003;2.433614e-002
1.573695e+003;2.310239e-002
1.575624e+003;2.025057e-002
1.577552e+003;2.230360e-002
1.579481e+003;2.495752e-002
1.581409e+003;2.471600e-002
1.583338e+003;2.433782e-002
1.585266e+003;2.405987e-002
1.587195e+003;2.357538e-002
1.589124e+003;2.290741e-002
1.591052e+003;2.246697e-002
1.592981e+003;2.181534e-002
1.594909e+003;2.151428e-002
1.596838e+003;2.166214e-002
1.598766e+003;2.151045e-002
1.600695e+003;2.113359e-002
1.602623e+003;2.100963e-002
1.604552e+003;2.090806e-002
1.606480e+003;2.069630e-002
1.608409e+003;2.030407e-002
1.610338e+003;2.023981e-002
1.612266e+003;2.037508e-002
1.614195e+003;1.873652e-002
1.616123e+003;1.570754e-002
1.618052e+003;1.709816e-002
1.619980e+003;1.943787e-002
1.621909e+003;1.852561e-002
1.623837e+003;1.786367e-002
1.625766e+003;1.867477e-002
1.627694e+003;1.899152e-002
1.629623e+003;1.955074e-002
1.631552e+003;1.968258e-002
1.633480e+003;1.711305e-002
1.635409e+003;1.437348e-002
1.637337e+003;1.661672e-002
1.639266e+003;1.944986e-002
1.641194e+003;1.988114e-002
1.643123e+003;1.879361e-002
1.645051e+003;1.592633e-002
1.646980e+003;1.525924e-002
1.648909e+003;1.727900e-002
1.650837e+003;1.353198e-002
1.652766e+003;7.684506e-003
1.654694e+003;1.214296e-002
1.656623e+003;1.756658e-002
1.658551e+003;1.854283e-002
1.660480e+003;1.764283e-002
1.662408e+003;1.620730e-002
1.664337e+003;1.688594e-002
1.666266e+003;1.713173e-002
1.668194e+003;1.486869e-002
1.670123e+003;1.422137e-002
1.672051e+003;1.538383e-002
1.673980e+003;1.397456e-002
1.675908e+003;1.350053e-002
1.677837e+003;1.534995e-002
1.679765e+003;1.528697e-002
1.681694e+003;1.300243e-002
1.683622e+003;8.205912e-003
1.685551e+003;9.269324e-003
1.687479e+003;1.340049e-002
1.689408e+003;1.413942e-002
1.691337e+003;1.429441e-002
1.693265e+003;1.243613e-002
1.695194e+003;8.389976e-003
1.697122e+003;8.604805e-003
1.699051e+003;7.033787e-003
1.700979e+003;6.917153e-003
1.702908e+003;1.098580e-002
1.704836e+003;1.114909e-002
1.706765e+003;1.128832e-002
1.708693e+003;1.190472e-002
1.710622e+003;1.213622e-002
1.712551e+003;1.114215e-002
1.714479e+003;8.751475e-003
1.716408e+003;5.444173e-003
1.718336e+003;5.900922e-003
1.720265e+003;9.461018e-003
1.722193e+003;1.074642e-002
1.724122e+003;1.076544e-002
1.726050e+003;1.106512e-002
1.727979e+003;1.071239e-002
1.729908e+003;9.985444e-003
1.731836e+003;7.419032e-003
1.733765e+003;4.754623e-003
1.735693e+003;7.750377e-003
1.737622e+003;9.941405e-003
1.739550e+003;9.118824e-003
1.741479e+003;9.277144e-003
1.743407e+003;9.032109e-003
1.745336e+003;8.415683e-003
1.747265e+003;7.316514e-003
1.749193e+003;5.735099e-003
1.751122e+003;4.734357e-003
1.753050e+003;6.044867e-003
1.754979e+003;6.518225e-003
1.756907e+003;6.171620e-003
1.758836e+003;6.339794e-003
1.760764e+003;5.289996e-003
1.762693e+003;4.925098e-003
1.764621e+003;5.840704e-003
1.766550e+003;5.074654e-003
1.768479e+003;4.349511e-003
1.770407e+003;3.040895e-003
1.772336e+003;1.444226e-003
1.774264e+003;3.140707e-003
1.776193e+003;4.924529e-003
1.778121e+003;4.928684e-003
1.780050e+003;4.335421e-003
1.781978e+003;4.487251e-003
1.783907e+003;4.437773e-003
1.785835e+003;5.006808e-003
1.787764e+003;5.878822e-003
1.789693e+003;5.402672e-003
1.791621e+003;4.829968e-003
1.793550e+003;6.730178e-003
1.795478e+003;8.890620e-003
1.797407e+003;9.067834e-003
1.799335e+003;8.506669e-003
1.801264e+003;7.969580e-003
1.803192e+003;7.667880e-003
1.805121e+003;7.059448e-003
1.807049e+003;6.382697e-003
1.808978e+003;5.315453e-003
1.810907e+003;4.240320e-003
1.812835e+003;3.832477e-003
1.814764e+003;3.640778e-003
1.816692e+003;3.503272e-003
1.818621e+003;3.793068e-003
1.820549e+003;3.624873e-003
1.822478e+003;3.256866e-003
1.824406e+003;2.708588e-003
1.826335e+003;2.752334e-003
1.828264e+003;2.464131e-003
1.830192e+003;2.316005e-003
1.832121e+003;3.263509e-003
1.834049e+003;3.731804e-003
1.835978e+003;3.509117e-003
1.837906e+003;3.115810e-003
1.839835e+003;2.957085e-003
1.841763e+003;2.096572e-003
1.843692e+003;6.411528e-004
1.845620e+003;1.267635e-003
1.847549e+003;2.317637e-003
1.849478e+003;2.724225e-003
1.851406e+003;2.984609e-003
1.853335e+003;2.788348e-003
1.855263e+003;2.534648e-003
1.857192e+003;2.437174e-003
1.859120e+003;2.317370e-003
1.861049e+003;2.408820e-003
1.862977e+003;2.489224e-003
1.864906e+003;1.994537e-003
1.866834e+003;1.113072e-003
1.868763e+003;6.540944e-004
1.870692e+003;1.431062e-003
1.872620e+003;2.109025e-003
1.874549e+003;2.134896e-003
1.876477e+003;1.987980e-003
1.878406e+003;1.910064e-003
1.880334e+003;2.057354e-003
1.882263e+003;1.913792e-003
1.884191e+003;1.780990e-003
1.886120e+003;1.972236e-003
1.888048e+003;1.977262e-003
1.889977e+003;1.839150e-003
1.891906e+003;2.235232e-003
1.893834e+003;2.674281e-003
1.895763e+003;2.878529e-003
1.897691e+003;2.755969e-003
1.899620e+003;2.663146e-003
1.901548e+003;2.527749e-003
1.903477e+003;2.252052e-003
1.905405e+003;1.839117e-003
1.907334e+003;1.847868e-003
1.909262e+003;2.058452e-003
1.911191e+003;2.143953e-003
1.913120e+003;2.125573e-003
1.915048e+003;2.012046e-003
1.916977e+003;1.360060e-003
1.918905e+003;1.456926e-003
1.920834e+003;2.025761e-003
1.922762e+003;1.774469e-003
1.924691e+003;1.636588e-003
1.926619e+003;1.754607e-003
1.928548e+003;1.697257e-003
1.930477e+003;1.638750e-003
1.932405e+003;1.505666e-003
1.934334e+003;1.377776e-003
1.936262e+003;1.553515e-003
1.938191e+003;1.377377e-003
1.940119e+003;8.728983e-004
1.942048e+003;6.334544e-004
1.943976e+003;9.407658e-004
1.945905e+003;1.282921e-003
1.947833e+003;1.299803e-003
1.949762e+003;1.302163e-003
1.951691e+003;1.318049e-003
1.953619e+003;1.060689e-003
1.955548e+003;8.393337e-004
1.957476e+003;9.900462e-004
1.959405e+003;1.172671e-003
1.961333e+003;1.357633e-003
1.963262e+003;1.445988e-003
1.965190e+003;1.447418e-003
1.967119e+003;1.282157e-003
1.969047e+003;1.184931e-003
1.970976e+003;1.132041e-003
1.972905e+003;1.231548e-003
1.974833e+003;1.267070e-003
1.976762e+003;1.177555e-003
1.978690e+003;1.109119e-003
1.980619e+003;1.299205e-003
1.982547e+003;1.262584e-003
1.984476e+003;1.130180e-003
1.986404e+003;1.186493e-003
1.988333e+003;1.446554e-003
1.990261e+003;1.461348e-003
1.992190e+003;1.210382e-003
1.994119e+003;1.352349e-003
1.996047e+003;1.512882e-003
1.997976e+003;1.524120e-003
1.999904e+003;1.703444e-003
2.001833e+003;1.860114e-003
2.003761e+003;1.827404e-003
2.005690e+003;1.547197e-003
2.007618e+003;1.280063e-003
2.009547e+003;1.299571e-003
2.011476e+003;1.559799e-003
2.013404e+003;1.706538e-003
2.015333e+003;1.675370e-003
2.017261e+003;1.641277e-003
2.019190e+003;1.783618e-003
2.021118e+003;1.853758e-003
2.023047e+003;1.677532e-003
2.024975e+003;1.656910e-003
2.026904e+003;1.868932e-003
2.028833e+003;1.944410e-003
2.030761e+003;1.837686e-003
2.032690e+003;1.668485e-003
2.034618e+003;1.915422e-003
2.036547e+003;2.083421e-003
2.038475e+003;1.941349e-003
2.040404e+003;1.725399e-003
2.042332e+003;1.874556e-003
2.044261e+003;1.922411e-003
2.046189e+003;2.007652e-003
2.048118e+003;2.118880e-003
2.050047e+003;2.127804e-003
2.051975e+003;2.182947e-003
2.053904e+003;2.154076e-003
2.055832e+003;1.813330e-003
2.057761e+003;1.639614e-003
2.059689e+003;1.743330e-003
2.061618e+003;1.856786e-003
2.063546e+003;1.914657e-003
2.065475e+003;2.147083e-003
2.067404e+003;2.118581e-003
2.069332e+003;2.013944e-003
2.071260e+003;2.142754e-003
2.073189e+003;2.251652e-003
2.075118e+003;2.269938e-003
2.077046e+003;2.463332e-003
2.078975e+003;2.487391e-003
2.080903e+003;2.564177e-003
2.082832e+003;2.777410e-003
2.084760e+003;2.787147e-003
2.086689e+003;2.782145e-003
2.088617e+003;2.758936e-003
2.090546e+003;2.691118e-003
2.092475e+003;2.764972e-003
2.094403e+003;2.820262e-003
2.096332e+003;2.689384e-003
2.098260e+003;2.600909e-003
2.100189e+003;2.726126e-003
2.102117e+003;2.830001e-003
2.104046e+003;2.848911e-003
2.105974e+003;2.620043e-003
2.107903e+003;2.531782e-003
2.109832e+003;2.639110e-003
2.111760e+003;2.574010e-003
2.113688e+003;2.331728e-003
2.115617e+003;2.558745e-003
2.117546e+003;2.857616e-003
2.119474e+003;3.114241e-003
2.121403e+003;3.293255e-003
2.123331e+003;3.300633e-003
2.125260e+003;3.571251e-003
2.127188e+003;3.945745e-003
2.129117e+003;4.092155e-003
2.131045e+003;4.157282e-003
2.132974e+003;4.273747e-003
2.134903e+003;4.513298e-003
2.136831e+003;4.508510e-003
2.138760e+003;4.325615e-003
2.140688e+003;4.301387e-003
2.142617e+003;4.504694e-003
2.144545e+003;4.423045e-003
2.146474e+003;4.206159e-003
2.148402e+003;4.219575e-003
2.150331e+003;4.322536e-003
2.152260e+003;4.331639e-003
2.154188e+003;4.322536e-003
2.156117e+003;4.276892e-003
2.158045e+003;4.492608e-003
2.159974e+003;4.564124e-003
2.161902e+003;4.671286e-003
2.163831e+003;4.957673e-003
2.165759e+003;4.968298e-003
2.167688e+003;4.996183e-003
2.169616e+003;5.063391e-003
2.171545e+003;5.295094e-003
2.173474e+003;5.379288e-003
2.175402e+003;5.355471e-003
2.177331e+003;5.497055e-003
2.179259e+003;5.249011e-003
2.181188e+003;5.030305e-003
2.183116e+003;5.200285e-003
2.185045e+003;5.264036e-003
2.186973e+003;5.165244e-003
2.188902e+003;5.037579e-003
2.190831e+003;4.974766e-003
2.192759e+003;5.071537e-003
2.194688e+003;5.081192e-003
2.196616e+003;4.996485e-003
2.198545e+003;4.984553e-003
2.200473e+003;4.903785e-003
2.202402e+003;4.739784e-003
2.204330e+003;4.939107e-003
2.206259e+003;5.015490e-003
2.208188e+003;4.805310e-003
2.210116e+003;4.710842e-003
2.212044e+003;4.807219e-003
2.213973e+003;4.856974e-003
2.215902e+003;4.883881e-003
2.217830e+003;4.901105e-003
2.219759e+003;4.968867e-003
2.221687e+003;4.678688e-003
2.223616e+003;4.663650e-003
2.225544e+003;5.177617e-003
2.227473e+003;5.237576e-003
2.229401e+003;5.024137e-003
2.231330e+003;5.128731e-003
2.233259e+003;5.239487e-003
2.235187e+003;5.224195e-003
2.237116e+003;5.116360e-003
2.239044e+003;4.720121e-003
2.240973e+003;4.456787e-003
2.242901e+003;4.690042e-003
2.244830e+003;4.978252e-003
2.246758e+003;5.134598e-003
2.248687e+003;5.260448e-003
2.250615e+003;5.386736e-003
2.252544e+003;5.353693e-003
2.254473e+003;5.766627e-003
2.256401e+003;6.098696e-003
2.258330e+003;6.001797e-003
2.260258e+003;5.711531e-003
2.262187e+003;5.699445e-003
2.264115e+003;5.775928e-003
2.266044e+003;5.501719e-003
2.267972e+003;5.253975e-003
2.269901e+003;5.374458e-003
2.271830e+003;5.544304e-003
2.273758e+003;5.501987e-003
2.275687e+003;5.255551e-003
2.277615e+003;5.162931e-003
2.279544e+003;4.993435e-003
2.281472e+003;4.810704e-003
2.283401e+003;4.789497e-003
2.285329e+003;4.782529e-003
2.287258e+003;4.809397e-003
2.289187e+003;4.736300e-003
2.291115e+003;5.010462e-003
2.293043e+003;5.331017e-003
2.294972e+003;5.137214e-003
2.296901e+003;4.876844e-003
2.298829e+003;4.917324e-003
2.300758e+003;5.052496e-003
2.302686e+003;5.223223e-003
2.304615e+003;5.149754e-003
2.306543e+003;5.078644e-003
2.308472e+003;5.249716e-003
2.310400e+003;4.914542e-003
2.312329e+003;4.403932e-003
2.314258e+003;4.453071e-003
2.316186e+003;4.607823e-003
2.318115e+003;4.777604e-003
2.320043e+003;5.215744e-003
2.321972e+003;5.374894e-003
2.323900e+003;5.211955e-003
2.325829e+003;5.075057e-003
2.327757e+003;5.097451e-003
2.329686e+003;5.236670e-003
2.331615e+003;5.256591e-003
2.333543e+003;5.207093e-003
2.335472e+003;5.269336e-003
2.337400e+003;5.441724e-003
2.339329e+003;5.578872e-003
2.341257e+003;5.957957e-003
2.343186e+003;6.002569e-003
2.345114e+003;5.989367e-003
2.347043e+003;6.331490e-003
2.348971e+003;6.546917e-003
2.350900e+003;6.698749e-003
2.352829e+003;6.743908e-003
2.354757e+003;6.491621e-003
2.356686e+003;6.356370e-003
2.358614e+003;6.441678e-003
2.360543e+003;6.689091e-003
2.362471e+003;6.787053e-003
2.364400e+003;6.918398e-003
2.366328e+003;6.778403e-003
2.368257e+003;6.644106e-003
2.370186e+003;6.844945e-003
2.372114e+003;7.054565e-003
2.374042e+003;7.052073e-003
2.375971e+003;7.275945e-003
2.377900e+003;7.536374e-003
2.379828e+003;7.657897e-003
2.381757e+003;7.459986e-003
2.383685e+003;7.226047e-003
2.385614e+003;7.455536e-003
2.387542e+003;7.685450e-003
2.389471e+003;7.855528e-003
2.391399e+003;7.804012e-003
2.393328e+003;7.620533e-003
2.395257e+003;7.748150e-003
2.397185e+003;7.716546e-003
2.399114e+003;7.681943e-003
2.401042e+003;7.836499e-003
2.402971e+003;7.807217e-003
2.404899e+003;7.711892e-003
2.406828e+003;7.730915e-003
2.408756e+003;7.788561e-003
2.410685e+003;7.985678e-003
2.412614e+003;8.071442e-003
2.414542e+003;8.152025e-003
2.416471e+003;8.427170e-003
2.418399e+003;8.584053e-003
2.420328e+003;8.480111e-003
2.422256e+003;8.483524e-003
2.424185e+003;8.549888e-003
2.426113e+003;8.760232e-003
2.428042e+003;8.907800e-003
2.429970e+003;8.730244e-003
2.431899e+003;8.661080e-003
2.433828e+003;8.728554e-003
2.435756e+003;8.574016e-003
2.437685e+003;8.283952e-003
2.439613e+003;8.006535e-003
2.441542e+003;7.913124e-003
2.443470e+003;7.856237e-003
2.445399e+003;7.577811e-003
2.447327e+003;7.515742e-003
2.449256e+003;7.702786e-003
2.451185e+003;7.666699e-003
2.453113e+003;7.551580e-003
2.455042e+003;7.508764e-003
2.456970e+003;7.615407e-003
2.458899e+003;7.700998e-003
2.460827e+003;7.429042e-003
2.462756e+003;7.334407e-003
2.464684e+003;7.451963e-003
2.466613e+003;7.544769e-003
2.468542e+003;7.624546e-003
2.470470e+003;7.712431e-003
2.472398e+003;7.712094e-003
2.474327e+003;7.680830e-003
2.476256e+003;7.871048e-003
2.478184e+003;8.007919e-003
2.480113e+003;8.156650e-003
2.482041e+003;8.349644e-003
2.483970e+003;8.434162e-003
2.485898e+003;8.698466e-003
2.487827e+003;8.928160e-003
2.489755e+003;9.058159e-003
2.491684e+003;9.122851e-003
2.493613e+003;9.096695e-003
2.495541e+003;9.381006e-003
2.497470e+003;9.807210e-003
2.499398e+003;1.004183e-002
2.501327e+003;1.015676e-002
2.503255e+003;1.025687e-002
2.505184e+003;1.054449e-002
2.507112e+003;1.126163e-002
2.509041e+003;1.196619e-002
2.510969e+003;1.209860e-002
2.512898e+003;1.223749e-002
2.514827e+003;1.245638e-002
2.516755e+003;1.287985e-002
2.518684e+003;1.349868e-002
2.520612e+003;1.376451e-002
2.522541e+003;1.376393e-002
2.524469e+003;1.412477e-002
2.526398e+003;1.423312e-002
2.528326e+003;1.384797e-002
2.530255e+003;1.355973e-002
2.532184e+003;1.365912e-002
2.534112e+003;1.379591e-002
2.536041e+003;1.356824e-002
2.537969e+003;1.319903e-002
2.539898e+003;1.317918e-002
2.541826e+003;1.332778e-002
2.543755e+003;1.328781e-002
2.545683e+003;1.329037e-002
2.547612e+003;1.327165e-002
2.549541e+003;1.342018e-002
2.551469e+003;1.370053e-002
2.553397e+003;1.401254e-002
2.555326e+003;1.427704e-002
2.557255e+003;1.451019e-002
2.559183e+003;1.483204e-002
2.561112e+003;1.508411e-002
2.563040e+003;1.503866e-002
2.564969e+003;1.529160e-002
2.566897e+003;1.594643e-002
2.568826e+003;1.680107e-002
2.570754e+003;1.744549e-002
2.572683e+003;1.809491e-002
2.574612e+003;1.892780e-002
2.576540e+003;1.984289e-002
2.578469e+003;2.060023e-002
2.580397e+003;2.087086e-002
2.582326e+003;2.078190e-002
2.584254e+003;2.030004e-002
2.586183e+003;1.940679e-002
2.588111e+003;1.865208e-002
2.590040e+003;1.826414e-002
2.591969e+003;1.768877e-002
2.593897e+003;1.695009e-002
2.595826e+003;1.669787e-002
2.597754e+003;1.660425e-002
2.599683e+003;1.657947e-002
2.601611e+003;1.671653e-002
2.603540e+003;1.679870e-002
2.605468e+003;1.721342e-002
2.607397e+003;1.769546e-002
2.609325e+003;1.804017e-002
2.611254e+003;1.847326e-002
2.613183e+003;1.893780e-002
2.615111e+003;1.940599e-002
2.617040e+003;1.925433e-002
2.618968e+003;1.886001e-002
2.620897e+003;1.874593e-002
2.622825e+003;1.875572e-002
2.624754e+003;1.865187e-002
2.626682e+003;1.831837e-002
2.628611e+003;1.803661e-002
2.630540e+003;1.771890e-002
2.632468e+003;1.746812e-002
2.634396e+003;1.759494e-002
2.636325e+003;1.770288e-002
2.638254e+003;1.743894e-002
2.640182e+003;1.749341e-002
2.642111e+003;1.797658e-002
2.644039e+003;1.858678e-002
2.645968e+003;1.904549e-002
2.647896e+003;1.921467e-002
2.649825e+003;1.943590e-002
2.651753e+003;2.000714e-002
2.653682e+003;2.051952e-002
2.655611e+003;2.064050e-002
2.657539e+003;2.094095e-002
2.659468e+003;2.132370e-002
2.661396e+003;2.140689e-002
2.663325e+003;2.148646e-002
2.665253e+003;2.149329e-002
2.667182e+003;2.144399e-002
2.669110e+003;2.127568e-002
2.671039e+003;2.099812e-002
2.672968e+003;2.126507e-002
2.674896e+003;2.196832e-002
2.676825e+003;2.246959e-002
2.678753e+003;2.249967e-002
2.680682e+003;2.229697e-002
2.682610e+003;2.217198e-002
2.684539e+003;2.240752e-002
2.686467e+003;2.246771e-002
2.688396e+003;2.249971e-002
2.690324e+003;2.215898e-002
2.692253e+003;2.189238e-002
2.694182e+003;2.193769e-002
2.696110e+003;2.179907e-002
2.698039e+003;2.195184e-002
2.699967e+003;2.231438e-002
2.701896e+003;2.272278e-002
2.703824e+003;2.349167e-002
2.705753e+003;2.425895e-002
2.707681e+003;2.489875e-002
2.709610e+003;2.578942e-002
2.711539e+003;2.702558e-002
2.713467e+003;2.857699e-002
2.715396e+003;3.017289e-002
2.717324e+003;3.177304e-002
2.719253e+003;3.360724e-002
2.721181e+003;3.518213e-002
2.723110e+003;3.573376e-002
2.725038e+003;3.538170e-002
2.726967e+003;3.442575e-002
2.728896e+003;3.316319e-002
2.730824e+003;3.168753e-002
2.732752e+003;3.015514e-002
2.734681e+003;2.897943e-002
2.736610e+003;2.811928e-002
2.738538e+003;2.735900e-002
2.740467e+003;2.656038e-002
2.742395e+003;2.561052e-002
2.744324e+003;2.466648e-002
2.746252e+003;2.412418e-002
2.748181e+003;2.402289e-002
2.750109e+003;2.375974e-002
2.752038e+003;2.356233e-002
2.753967e+003;2.360641e-002
2.755895e+003;2.412144e-002
2.757824e+003;2.488783e-002
2.759752e+003;2.534745e-002
2.761681e+003;2.557179e-002
2.763609e+003;2.601247e-002
2.765538e+003;2.648923e-002
2.767466e+003;2.692312e-002
2.769395e+003;2.734943e-002
2.771323e+003;2.787420e-002
2.773252e+003;2.843168e-002
2.775181e+003;2.894514e-002
2.777109e+003;2.957745e-002
2.779038e+003;3.067619e-002
2.780966e+003;3.191837e-002
2.782895e+003;3.329968e-002
2.784823e+003;3.483659e-002
2.786752e+003;3.639513e-002
2.788680e+003;3.813141e-002
2.790609e+003;3.979690e-002
2.792538e+003;4.160721e-002
2.794466e+003;4.325598e-002
2.796395e+003;4.446571e-002
2.798323e+003;4.582476e-002
2.800252e+003;4.756555e-002
2.802180e+003;4.966625e-002
2.804109e+003;5.208159e-002
2.806037e+003;5.454935e-002
2.807966e+003;5.677636e-002
2.809895e+003;5.849352e-002
2.811823e+003;6.021777e-002
2.813751e+003;6.253220e-002
2.815680e+003;6.480067e-002
2.817609e+003;6.713095e-002
2.819537e+003;7.000570e-002
2.821466e+003;7.336070e-002
2.823394e+003;7.719947e-002
2.825323e+003;8.210921e-002
2.827251e+003;8.860487e-002
2.829180e+003;9.674520e-002
2.831108e+003;1.064519e-001
2.833037e+003;1.159899e-001
2.834966e+003;1.232830e-001
2.836894e+003;1.268764e-001
2.838823e+003;1.266448e-001
2.840751e+003;1.237643e-001
2.842680e+003;1.198527e-001
2.844608e+003;1.155864e-001
2.846537e+003;1.114355e-001
2.848465e+003;1.085362e-001
2.850394e+003;1.067780e-001
2.852323e+003;1.055115e-001
2.854251e+003;1.050789e-001
2.856180e+003;1.059465e-001
2.858108e+003;1.081928e-001
2.860037e+003;1.124766e-001
2.861965e+003;1.191718e-001
2.863894e+003;1.264441e-001
2.865822e+003;1.325544e-001
2.867751e+003;1.367342e-001
2.869679e+003;1.390572e-001
2.871608e+003;1.404514e-001
2.873536e+003;1.418095e-001
2.875465e+003;1.419589e-001
2.877394e+003;1.404271e-001
2.879322e+003;1.384836e-001
2.881251e+003;1.371106e-001
2.883179e+003;1.364968e-001
2.885108e+003;1.366898e-001
2.887036e+003;1.374131e-001
2.888965e+003;1.394341e-001
2.890893e+003;1.421989e-001
2.892822e+003;1.452122e-001
2.894750e+003;1.487268e-001
2.896679e+003;1.529619e-001
2.898608e+003;1.585418e-001
2.900536e+003;1.642112e-001
2.902465e+003;1.691475e-001
2.904393e+003;1.744081e-001
2.906322e+003;1.797810e-001
2.908250e+003;1.844154e-001
2.910179e+003;1.882181e-001
2.912107e+003;1.909920e-001
2.914036e+003;1.929852e-001
2.915965e+003;1.936041e-001
2.917893e+003;1.929856e-001
2.919822e+003;1.911327e-001
2.921750e+003;1.872796e-001
2.923679e+003;1.818186e-001
2.925607e+003;1.754986e-001
2.927536e+003;1.690354e-001
2.929464e+003;1.620549e-001
2.931393e+003;1.536125e-001
2.933322e+003;1.451836e-001
2.935250e+003;1.378621e-001
2.937178e+003;1.318079e-001
2.939107e+003;1.279755e-001
2.941036e+003;1.270575e-001
2.942964e+003;1.291568e-001
2.944893e+003;1.341406e-001
2.946821e+003;1.405242e-001
2.948750e+003;1.461795e-001
2.950678e+003;1.496777e-001
2.952607e+003;1.512009e-001
2.954535e+003;1.511622e-001
2.956464e+003;1.489435e-001
2.958393e+003;1.453433e-001
2.960321e+003;1.409556e-001
2.962250e+003;1.351679e-001
2.964178e+003;1.278949e-001
2.966107e+003;1.200974e-001
2.968035e+003;1.129337e-001
2.969964e+003;1.063804e-001
2.971892e+003;1.000221e-001
2.973821e+003;9.429587e-002
2.975750e+003;8.904425e-002
2.977678e+003;8.421990e-002
2.979607e+003;7.956521e-002
2.981535e+003;7.541149e-002
2.983464e+003;7.152623e-002
2.985392e+003;6.791268e-002
2.987321e+003;6.459574e-002
2.989249e+003;6.157181e-002
2.991178e+003;5.839846e-002
2.993106e+003;5.534382e-002
2.995035e+003;5.285789e-002
2.996964e+003;5.047543e-002
2.998892e+003;4.793669e-002
3.000821e+003;4.543775e-002
3.002749e+003;4.286512e-002
3.004678e+003;4.052488e-002
3.006606e+003;3.845931e-002
3.008535e+003;3.668751e-002
3.010463e+003;3.507479e-002
3.012392e+003;3.330394e-002
3.014321e+003;3.150989e-002
3.016249e+003;3.008315e-002
3.018177e+003;2.865931e-002
3.020106e+003;2.733112e-002
3.022035e+003;2.594802e-002
3.023963e+003;2.450323e-002
3.025892e+003;2.352105e-002
3.027820e+003;2.260702e-002
3.029749e+003;2.163205e-002
3.031677e+003;2.079782e-002
3.033606e+003;2.009233e-002
3.035534e+003;1.955196e-002
3.037463e+003;1.890801e-002
3.039392e+003;1.832676e-002
3.041320e+003;1.794727e-002
3.043249e+003;1.758628e-002
3.045177e+003;1.704247e-002
3.047106e+003;1.642937e-002
3.049034e+003;1.595530e-002
3.050963e+003;1.579463e-002
3.052891e+003;1.591182e-002
3.054820e+003;1.560603e-002
3.056749e+003;1.519081e-002
3.058677e+003;1.510288e-002
3.060606e+003;1.494345e-002
3.062534e+003;1.480612e-002
3.064463e+003;1.463419e-002
3.066391e+003;1.398756e-002
3.068320e+003;1.344943e-002
3.070248e+003;1.340094e-002
3.072177e+003;1.355529e-002
3.074105e+003;1.364678e-002
3.076034e+003;1.327196e-002
3.077963e+003;1.285456e-002
3.079891e+003;1.273925e-002
3.081820e+003;1.265440e-002
3.083748e+003;1.244175e-002
3.085677e+003;1.242396e-002
3.087605e+003;1.268255e-002
3.089534e+003;1.262735e-002
3.091462e+003;1.247275e-002
3.093391e+003;1.241782e-002
3.095320e+003;1.233399e-002
3.097248e+003;1.240752e-002
3.099177e+003;1.239706e-002
3.101105e+003;1.216320e-002
3.103034e+003;1.170442e-002
3.104962e+003;1.162719e-002
3.106891e+003;1.173434e-002
3.108819e+003;1.185459e-002
3.110748e+003;1.212415e-002
3.112677e+003;1.202764e-002
3.114605e+003;1.168716e-002
3.116533e+003;1.153143e-002
3.118462e+003;1.184036e-002
3.120391e+003;1.239412e-002
3.122319e+003;1.219633e-002
3.124248e+003;1.193155e-002
3.126176e+003;1.208368e-002
3.128105e+003;1.236627e-002
3.130033e+003;1.258618e-002
3.131962e+003;1.272980e-002
3.133890e+003;1.231619e-002
3.135819e+003;1.203203e-002
3.137748e+003;1.214167e-002
3.139676e+003;1.223746e-002
3.141605e+003;1.244660e-002
3.143533e+003;1.259293e-002
3.145462e+003;1.268087e-002
3.147390e+003;1.253597e-002
3.149319e+003;1.260630e-002
3.151247e+003;1.250590e-002
3.153176e+003;1.241045e-002
3.155104e+003;1.272441e-002
3.157033e+003;1.266491e-002
3.158962e+003;1.271902e-002
3.160890e+003;1.291504e-002
3.162819e+003;1.265406e-002
3.164747e+003;1.219108e-002
3.166676e+003;1.198418e-002
3.168604e+003;1.194644e-002
3.170533e+003;1.243852e-002
3.172461e+003;1.263144e-002
3.174390e+003;1.223712e-002
3.176319e+003;1.212899e-002
3.178247e+003;1.245877e-002
3.180176e+003;1.270435e-002
3.182104e+003;1.264621e-002
3.184033e+003;1.232949e-002
3.185961e+003;1.276447e-002
3.187890e+003;1.322956e-002
3.189818e+003;1.325067e-002
3.191747e+003;1.336024e-002
3.193676e+003;1.348566e-002
3.195604e+003;1.333492e-002
3.197532e+003;1.305300e-002
3.199461e+003;1.275993e-002
3.201390e+003;1.281907e-002
3.203318e+003;1.268930e-002
3.205247e+003;1.266119e-002
3.207175e+003;1.272229e-002
3.209104e+003;1.238901e-002
3.211032e+003;1.206682e-002
3.212961e+003;1.197457e-002
3.214889e+003;1.195710e-002
3.216818e+003;1.202253e-002
3.218747e+003;1.198714e-002
3.220675e+003;1.161793e-002
3.222604e+003;1.128465e-002
3.224532e+003;1.122528e-002
3.226461e+003;1.102944e-002
3.228389e+003;1.091624e-002
3.230318e+003;1.083032e-002
3.232246e+003;1.061188e-002
3.234175e+003;9.911912e-003
3.236104e+003;9.593886e-003
3.238032e+003;9.760511e-003
3.239961e+003;9.756987e-003
3.241889e+003;9.347555e-003
3.243818e+003;8.796882e-003
3.245746e+003;8.684945e-003
3.247675e+003;8.899717e-003
3.249603e+003;9.069898e-003
3.251532e+003;9.173880e-003
3.253460e+003;9.144101e-003
3.255389e+003;8.443318e-003
3.257318e+003;8.135684e-003
3.259246e+003;8.378254e-003
3.261175e+003;8.448522e-003
3.263103e+003;8.415008e-003
3.265032e+003;8.178765e-003
3.266960e+003;7.817067e-003
3.268889e+003;7.815651e-003
3.270817e+003;8.300433e-003
3.272746e+003;8.824203e-003
3.274675e+003;8.683390e-003
3.276603e+003;8.045148e-003
3.278531e+003;7.876008e-003
3.280460e+003;8.260211e-003
3.282389e+003;8.626401e-003
3.284317e+003;8.290234e-003
3.286246e+003;7.917207e-003
3.288174e+003;8.016728e-003
3.290103e+003;8.098853e-003
3.292031e+003;8.013656e-003
3.293960e+003;7.771391e-003
3.295888e+003;7.621410e-003
3.297817e+003;7.790282e-003
3.299746e+003;7.871048e-003
3.301674e+003;8.130687e-003
3.303603e+003;8.226172e-003
3.305531e+003;7.962864e-003
3.307460e+003;7.990977e-003
3.309388e+003;8.159284e-003
3.311317e+003;8.156886e-003
3.313245e+003;7.618847e-003
3.315174e+003;7.254415e-003
3.317103e+003;7.660325e-003
3.319031e+003;8.058717e-003
3.320960e+003;7.980211e-003
3.322888e+003;7.900842e-003
3.324817e+003;7.589241e-003
3.326745e+003;7.448929e-003
3.328674e+003;8.063847e-003
3.330602e+003;8.218811e-003
3.332531e+003;8.121674e-003
3.334459e+003;8.301346e-003
3.336388e+003;8.357143e-003
3.338317e+003;8.147568e-003
3.340245e+003;8.049974e-003
3.342174e+003;7.917477e-003
3.344102e+003;8.018382e-003
3.346031e+003;8.366364e-003
3.347959e+003;8.408961e-003
3.349888e+003;8.670917e-003
3.351816e+003;8.412407e-003
3.353745e+003;8.110669e-003
3.355674e+003;7.829179e-003
3.357602e+003;7.547838e-003
3.359531e+003;7.700121e-003
3.361459e+003;8.031579e-003
3.363388e+003;8.133118e-003
3.365316e+003;7.929490e-003
3.367245e+003;7.857586e-003
3.369173e+003;8.171640e-003
3.371102e+003;8.124070e-003
3.373031e+003;7.870778e-003
3.374959e+003;8.272740e-003
3.376887e+003;8.035089e-003
3.378816e+003;7.166184e-003
3.380745e+003;6.824244e-003
3.382673e+003;6.999271e-003
3.384602e+003;6.962840e-003
3.386530e+003;6.896011e-003
3.388459e+003;7.096528e-003
3.390387e+003;7.204486e-003
3.392316e+003;7.451727e-003
3.394244e+003;7.718739e-003
3.396173e+003;7.493088e-003
3.398102e+003;7.441682e-003
3.400030e+003;7.353110e-003
3.401959e+003;7.240028e-003
3.403887e+003;6.935972e-003
3.405816e+003;6.739971e-003
3.407744e+003;6.866791e-003
3.409673e+003;6.988193e-003
3.411601e+003;6.979608e-003
3.413530e+003;7.116501e-003
3.415458e+003;7.117141e-003
3.417387e+003;7.061300e-003
3.419316e+003;7.114244e-003
3.421244e+003;7.065510e-003
3.423173e+003;6.951527e-003
3.425101e+003;6.729909e-003
3.427030e+003;6.456408e-003
3.428958e+003;6.164864e-003
3.430887e+003;5.896220e-003
3.432815e+003;5.752626e-003
3.434744e+003;5.881106e-003
3.436673e+003;6.163688e-003
3.438601e+003;6.308225e-003
3.440530e+003;5.911939e-003
3.442458e+003;5.700822e-003
3.444387e+003;5.920336e-003
3.446315e+003;5.269637e-003
3.448244e+003;4.713254e-003
3.450172e+003;4.833989e-003
3.452101e+003;5.008115e-003
3.454030e+003;5.114248e-003
3.455958e+003;5.354967e-003
3.457886e+003;5.310053e-003
3.459815e+003;4.896145e-003
3.461744e+003;4.311058e-003
3.463672e+003;4.141493e-003
3.465601e+003;4.053491e-003
3.467529e+003;4.005734e-003
3.469458e+003;4.124199e-003
3.471386e+003;4.121322e-003
3.473315e+003;4.111922e-003
3.475243e+003;3.989215e-003
3.477172e+003;4.148886e-003
3.479101e+003;3.934377e-003
3.481029e+003;3.584380e-003
3.482958e+003;3.550472e-003
3.484886e+003;3.565371e-003
3.486815e+003;3.751255e-003
3.488743e+003;3.750420e-003
3.490672e+003;3.420542e-003
3.492600e+003;3.109035e-003
3.494529e+003;3.043798e-003
3.496458e+003;3.008130e-003
3.498386e+003;3.063952e-003
3.500315e+003;2.980972e-003
3.502243e+003;3.057245e-003
3.504172e+003;3.619828e-003
3.506100e+003;3.748882e-003
3.508029e+003;2.919857e-003
3.509957e+003;2.505553e-003
3.511886e+003;2.720658e-003
3.513814e+003;2.790682e-003
3.515743e+003;2.676415e-003
3.517672e+003;2.698486e-003
3.519600e+003;2.778210e-003
3.521529e+003;2.430677e-003
3.523457e+003;2.285459e-003
3.525386e+003;2.770607e-003
3.527314e+003;2.732028e-003
3.529243e+003;2.316637e-003
3.531171e+003;2.075132e-003
3.533100e+003;2.026294e-003
3.535029e+003;1.957491e-003
3.536957e+003;2.040042e-003
3.538885e+003;2.364842e-003
3.540814e+003;2.383298e-003
3.542743e+003;2.313873e-003
3.544671e+003;2.582809e-003
3.546600e+003;2.635577e-003
3.548528e+003;2.312474e-003
3.550457e+003;1.720908e-003
3.552385e+003;1.442464e-003
3.554314e+003;1.839450e-003
3.556242e+003;1.892559e-003
3.558171e+003;1.795063e-003
3.560100e+003;1.885637e-003
3.562028e+003;1.869231e-003
3.563957e+003;1.127722e-003
3.565885e+003;-4.944428e-004
3.567814e+003;-6.513573e-004
3.569742e+003;5.634452e-004
3.571671e+003;1.419925e-003
3.573599e+003;1.588398e-003
3.575528e+003;1.361954e-003
3.577457e+003;1.215665e-003
3.579385e+003;1.137954e-003
3.581314e+003;1.181741e-003
3.583242e+003;1.208056e-003
3.585171e+003;3.639642e-004
3.587099e+003;-5.894520e-004
3.589028e+003;-1.378489e-004
3.590956e+003;4.803778e-004
3.592885e+003;4.371254e-004
3.594813e+003;3.072281e-004
3.596742e+003;2.348181e-004
3.598671e+003;4.902628e-004
3.600599e+003;6.485527e-004
3.602528e+003;8.421223e-004
3.604456e+003;6.768592e-004
3.606385e+003;-4.215916e-004
3.608313e+003;-1.381907e-003
3.610242e+003;-1.191719e-003
3.612170e+003;-1.363246e-003
3.614099e+003;-1.261963e-003
3.616028e+003;-9.524861e-004
3.617956e+003;-1.793647e-003
3.619885e+003;-1.840303e-003
3.621813e+003;-3.973273e-004
3.623742e+003;6.882485e-005
3.625670e+003;-9.846207e-004
3.627599e+003;-3.828480e-003
3.629527e+003;-3.725077e-003
3.631456e+003;-7.497721e-004
3.633385e+003;-1.124755e-004
3.635313e+003;-1.495413e-004
3.637241e+003;1.119945e-005
3.639170e+003;2.395920e-004
3.641099e+003;2.071040e-004
3.643027e+003;-3.527342e-004
3.644956e+003;-1.381709e-003
3.646884e+003;-3.522371e-003
3.648813e+003;-5.051349e-003
3.650741e+003;-3.769095e-003
3.652670e+003;-1.686953e-003
3.654598e+003;-2.172095e-003
3.656527e+003;-2.221677e-003
3.658456e+003;-5.585126e-004
3.660384e+003;2.850463e-004
3.662313e+003;3.710277e-004
3.664241e+003;4.289662e-004
3.666170e+003;-2.277368e-004
3.668098e+003;-2.654358e-003
3.670027e+003;-4.314091e-003
3.671955e+003;-2.884459e-003
3.673884e+003;-4.089308e-003
3.675813e+003;-4.481372e-003
3.677741e+003;-1.275905e-003
3.679669e+003;4.373914e-005
3.681598e+003;2.278563e-004
3.683527e+003;2.627609e-005
3.685455e+003;-9.473285e-004
3.687384e+003;-3.435924e-003
3.689312e+003;-3.125526e-003
3.691241e+003;-9.353930e-004
3.693169e+003;6.301031e-004
3.695098e+003;1.369533e-003
3.697026e+003;1.230351e-003
3.698955e+003;7.037736e-004
3.700884e+003;-1.674934e-004
3.702812e+003;-6.046541e-005
3.704741e+003;5.721377e-004
3.706669e+003;4.142404e-004
3.708598e+003;-6.838780e-004
3.710526e+003;-2.145356e-003
3.712455e+003;-1.789060e-003
3.714383e+003;3.878082e-004
3.716312e+003;1.420391e-003
3.718240e+003;8.978992e-004
3.720169e+003;-7.749361e-005
3.722098e+003;-3.797819e-004
3.724026e+003;-5.854482e-004
3.725955e+003;-8.857961e-004
3.727883e+003;5.358105e-005
3.729812e+003;-2.106152e-004
3.731740e+003;-2.151786e-003
3.733669e+003;-3.038440e-003
3.735597e+003;-3.521287e-003
3.737526e+003;-1.690055e-003
3.739455e+003;-7.282251e-005
3.741383e+003;-1.391585e-003
3.743312e+003;-6.035021e-003
3.745240e+003;-5.384920e-003
3.747169e+003;-3.024259e-003
3.749097e+003;-5.370618e-003
3.751026e+003;-5.609589e-003
3.752954e+003;-2.495826e-003
3.754883e+003;2.749670e-004
3.756812e+003;1.132006e-004
3.758740e+003;-4.737909e-005
3.760668e+003;7.580722e-004
3.762597e+003;1.716584e-003
3.764526e+003;1.139715e-003
3.766454e+003;1.336362e-003
3.768383e+003;9.776923e-004
3.770311e+003;8.703418e-004
3.772240e+003;1.509058e-003
3.774168e+003;1.688010e-003
3.776097e+003;1.351185e-003
3.778025e+003;8.555015e-004
3.779954e+003;8.118465e-004
3.781883e+003;1.167621e-003
3.783811e+003;1.150013e-003
3.785740e+003;1.552018e-003
3.787668e+003;1.859648e-003
3.789597e+003;2.250087e-003
3.791525e+003;1.874356e-003
3.793454e+003;1.464473e-003
3.795382e+003;7.688598e-004
3.797311e+003;4.247873e-004
3.799240e+003;-1.626681e-003
3.801168e+003;-3.356430e-003
3.803097e+003;-4.282120e-004
3.805025e+003;-2.230673e-004
3.806954e+003;-1.115812e-003
3.808882e+003;9.205771e-004
3.810811e+003;1.643074e-003
3.812739e+003;7.975724e-004
3.814668e+003;-2.006890e-003
3.816596e+003;-2.141730e-003
3.818525e+003;-9.406500e-004
3.820454e+003;-2.199293e-003
3.822382e+003;-6.585696e-004
3.824311e+003;1.523887e-003
3.826239e+003;1.498185e-003
3.828168e+003;1.484620e-003
3.830096e+003;1.163169e-003
3.832025e+003;2.825596e-004
3.833953e+003;-9.248459e-004
3.835882e+003;-2.750443e-003
3.837811e+003;-3.659107e-003
3.839739e+003;-1.851257e-003
3.841667e+003;-3.041965e-004
3.843596e+003;5.702134e-004
3.845525e+003;1.756870e-003
3.847453e+003;2.440706e-003
3.849382e+003;6.646470e-004
3.851310e+003;-4.409744e-003
3.853239e+003;-8.243998e-003
3.855167e+003;-4.045519e-003
3.857096e+003;1.198188e-003
3.859024e+003;2.080858e-003
3.860953e+003;1.293655e-003
3.862882e+003;4.224324e-004
3.864810e+003;-9.809881e-005
3.866739e+003;2.656837e-004
3.868667e+003;-1.116275e-003
3.870596e+003;-1.178964e-003
3.872524e+003;-1.538472e-004
3.874453e+003;5.653695e-004
3.876381e+003;2.025162e-003
3.878310e+003;1.444625e-003
3.880239e+003;2.241102e-004
3.882167e+003;5.573075e-004
3.884096e+003;-4.721684e-004
3.886024e+003;-1.562320e-004
3.887953e+003;2.141522e-003
3.889881e+003;1.343607e-003
3.891810e+003;9.548786e-004
3.893738e+003;2.488858e-003
3.895667e+003;2.841807e-003
3.897595e+003;1.587933e-003
3.899524e+003;8.880013e-006
3.901453e+003;-4.812702e-004
3.903381e+003;-2.502555e-004
3.905310e+003;1.015120e-003
3.907238e+003;2.240961e-003
3.909167e+003;3.055677e-003
3.911095e+003;3.151453e-003
3.913024e+003;2.563077e-003
3.914952e+003;1.937621e-003
3.916881e+003;2.072035e-003
3.918810e+003;2.779177e-003
3.920738e+003;3.328546e-003
3.922667e+003;3.177854e-003
3.924595e+003;2.739030e-003
3.926524e+003;2.929330e-003
3.928452e+003;3.016304e-003
3.930381e+003;2.771574e-003
3.932309e+003;2.519384e-003
3.934238e+003;3.140339e-003
3.936167e+003;3.845213e-003
3.938095e+003;3.831942e-003
3.940023e+003;3.318329e-003
3.941952e+003;3.258134e-003
3.943881e+003;3.527757e-003
3.945809e+003;3.492149e-003
3.947738e+003;3.419139e-003
3.949666e+003;3.702529e-003
3.951595e+003;3.920768e-003
3.953523e+003;3.947918e-003
3.955452e+003;4.021619e-003
3.957380e+003;3.753962e-003
3.959309e+003;3.204457e-003
3.961238e+003;2.867722e-003
3.963166e+003;3.117545e-003
3.965095e+003;3.347544e-003
3.967023e+003;3.602421e-003
3.968952e+003;3.735247e-003
3.970880e+003;3.734612e-003
3.972809e+003;3.521844e-003
3.974737e+003;3.555550e-003
3.976666e+003;3.785881e-003
3.978594e+003;3.732339e-003
3.980523e+003;3.906894e-003
3.982452e+003;4.189163e-003
3.984380e+003;4.417689e-003
3.986309e+003;4.406309e-003
3.988237e+003;3.850595e-003
3.990166e+003;4.178793e-003
3.992094e+003;4.826651e-003
3.994023e+003;4.614788e-003
3.995951e+003;4.641479e-003
3.997880e+003;4.752580e-003
3.999809e+003;4.934046e-003
4.001737e+003;0.000000e+000
