3.992094e+002;0.000000e+000
4.011380e+002;0.000000e+000
4.030665e+002;0.000000e+000
4.049951e+002;0.000000e+000
4.069236e+002;0.000000e+000
4.088522e+002;0.000000e+000
4.107807e+002;0.000000e+000
4.127093e+002;0.000000e+000
4.146378e+002;0.000000e+000
4.165664e+002;0.000000e+000
4.184949e+002;0.000000e+000
4.204235e+002;0.000000e+000
4.223520e+002;0.000000e+000
4.242806e+002;0.000000e+000
4.262091e+002;0.000000e+000
4.281377e+002;0.000000e+000
4.300662e+002;0.000000e+000
4.319948e+002;0.000000e+000
4.339233e+002;0.000000e+000
4.358519e+002;0.000000e+000
4.377804e+002;0.000000e+000
4.397090e+002;0.000000e+000
4.416375e+002;0.000000e+000
4.435660e+002;0.000000e+000
4.454946e+002;0.000000e+000
4.474232e+002;0.000000e+000
4.493517e+002;0.000000e+000
4.512802e+002;0.000000e+000
4.532088e+002;0.000000e+000
4.551373e+002;0.000000e+000
4.570659e+002;0.000000e+000
4.589944e+002;0.000000e+000
4.609230e+002;0.000000e+000
4.628515e+002;0.000000e+000
4.647801e+002;0.000000e+000
4.667086e+002;0.000000e+000
4.686372e+002;0.000000e+000
4.705657e+002;0.000000e+000
4.724943e+002;0.000000e+000
4.744228e+002;0.000000e+000
4.763513e+002;0.000000e+000
4.782799e+002;0.000000e+000
4.802085e+002;0.000000e+000
4.821370e+002;0.000000e+000
4.840656e+002;0.000000e+000
4.859941e+002;0.000000e+000
4.879226e+002;0.000000e+000
4.898512e+002;0.000000e+000
4.917798e+002;0.000000e+000
4.937083e+002;0.000000e+000
4.956368e+002;0.000000e+000
4.975654e+002;0.000000e+000
4.994939e+002;0.000000e+000
5.014225e+002;0.000000e+000
5.033510e+002;0.000000e+000
5.052796e+002;0.000000e+000
5.072081e+002;0.000000e+000
5.091367e+002;0.000000e+000
5.110652e+002;0.000000e+000
5.129938e+002;0.000000e+000
5.149223e+002;0.000000e+000
5.168509e+002;0.000000e+000
5.187794e+002;0.000000e+000
5.207079e+002;0.000000e+000
5.226365e+002;0.000000e+000
5.245651e+002;0.000000e+000
5.264936e+002;0.000000e+000
5.284222e+002;0.000000e+000
5.303507e+002;0.000000e+000
5.322792e+002;0.000000e+000
5.342078e+002;0.000000e+000
5.361364e+002;0.000000e+000
5.380649e+002;0.000000e+000
5.399935e+002;0.000000e+000
5.419220e+002;0.000000e+000
5.438505e+002;0.000000e+000
5.457791e+002;0.000000e+000
5.477076e+002;0.000000e+000
5.496362e+002;0.000000e+000
5.515648e+002;0.000000e+000
5.534933e+002;0.000000e+000
5.554218e+002;0.000000e+000
5.573504e+002;0.000000e+000
5.592789e+002;0.000000e+000
5.612075e+002;0.000000e+000
5.631360e+002;0.000000e+000
5.650646e+002;0.000000e+000
5.669931e+002;0.000000e+000
5.689217e+002;0.000000e+000
5.708502e+002;0.000000e+000
5.727787e+002;0.000000e+000
5.747073e+002;0.000000e+000
5.766359e+002;0.000000e+000
5.785644e+002;0.000000e+000
5.804930e+002;0.000000e+000
5.824215e+002;0.000000e+000
5.843500e+002;0.000000e+000
5.862786e+002;0.000000e+000
5.882072e+002;0.000000e+000
5.901357e+002;0.000000e+000
5.920643e+002;0.000000e+000
5.939928e+002;0.000000e+000
5.959213e+002;0.000000e+000
5.978499e+002;0.000000e+000
5.997784e+002;3.031542e-002
6.017070e+002;3.240934e-002
6.036355e+002;3.223858e-002
6.055641e+002;2.864480e-002
6.074926e+002;2.700922e-002
6.094211e+002;2.853315e-002
6.113497e+002;3.162199e-002
6.132783e+002;3.237347e-002
6.152068e+002;3.244058e-002
6.171354e+002;3.432469e-002
6.190639e+002;3.276154e-002
6.209924e+002;3.057361e-002
6.229210e+002;3.058488e-002
6.248495e+002;2.927224e-002
6.267781e+002;2.737837e-002
6.287067e+002;2.637158e-002
6.306352e+002;2.693556e-002
6.325637e+002;2.913821e-002
6.344923e+002;3.287703e-002
6.364208e+002;3.410342e-002
6.383494e+002;3.499099e-002
6.402780e+002;3.523449e-002
6.422065e+002;3.364014e-002
6.441350e+002;3.190931e-002
6.460636e+002;3.048670e-002
6.479921e+002;3.105317e-002
6.499207e+002;3.277447e-002
6.518492e+002;3.283057e-002
6.537778e+002;3.245176e-002
6.557063e+002;3.174549e-002
6.576349e+002;3.194861e-002
6.595634e+002;3.250050e-002
6.614919e+002;3.219444e-002
6.634205e+002;3.121514e-002
6.653491e+002;3.020795e-002
6.672776e+002;2.948425e-002
6.692062e+002;2.891316e-002
6.711347e+002;2.906136e-002
6.730632e+002;2.977669e-002
6.749918e+002;3.084972e-002
6.769203e+002;3.106855e-002
6.788489e+002;3.060163e-002
6.807775e+002;3.105346e-002
6.827060e+002;3.050529e-002
6.846345e+002;3.017893e-002
6.865631e+002;3.061688e-002
6.884916e+002;3.054027e-002
6.904202e+002;2.973695e-002
6.923488e+002;2.966472e-002
6.942773e+002;3.076677e-002
6.962058e+002;3.128403e-002
6.981344e+002;3.164964e-002
7.000629e+002;3.232560e-002
7.019915e+002;3.219444e-002
7.039200e+002;3.378728e-002
7.058486e+002;3.679637e-002
7.077771e+002;3.999377e-002
7.097057e+002;4.498557e-002
7.116342e+002;5.125036e-002
7.135627e+002;5.378149e-002
7.154913e+002;5.260518e-002
7.174199e+002;4.895641e-002
7.193484e+002;4.506234e-002
7.212770e+002;4.124814e-002
7.232055e+002;3.857539e-002
7.251340e+002;3.709335e-002
7.270626e+002;3.601100e-002
7.289911e+002;3.538439e-002
7.309197e+002;3.511779e-002
7.328483e+002;3.412138e-002
7.347768e+002;3.333564e-002
7.367053e+002;3.260103e-002
7.386339e+002;3.205059e-002
7.405624e+002;3.253060e-002
7.424910e+002;3.372389e-002
7.444196e+002;3.386217e-002
7.463481e+002;3.368045e-002
7.482766e+002;3.292336e-002
7.502052e+002;3.173914e-002
7.521337e+002;3.102627e-002
7.540623e+002;3.153237e-002
7.559908e+002;3.193652e-002
7.579194e+002;3.242627e-002
7.598479e+002;3.381084e-002
7.617765e+002;3.415281e-002
7.637050e+002;3.399086e-002
7.656335e+002;3.417177e-002
7.675621e+002;3.468529e-002
7.694907e+002;3.566203e-002
7.714192e+002;3.583817e-002
7.733478e+002;3.514542e-002
7.752763e+002;3.485422e-002
7.772048e+002;3.458916e-002
7.791334e+002;3.457595e-002
7.810620e+002;3.543713e-002
7.829905e+002;3.680308e-002
7.849191e+002;3.750965e-002
7.868476e+002;3.820011e-002
7.887761e+002;3.943214e-002
7.907047e+002;3.988247e-002
7.926332e+002;4.001044e-002
7.945618e+002;4.092548e-002
7.964903e+002;4.214044e-002
7.984189e+002;4.342949e-002
8.003474e+002;4.578665e-002
8.022759e+002;4.847150e-002
8.042045e+002;5.147801e-002
8.061331e+002;5.487222e-002
8.080616e+002;5.861054e-002
8.099902e+002;6.083566e-002
8.119187e+002;5.956067e-002
8.138472e+002;5.576342e-002
8.157758e+002;5.186177e-002
8.177043e+002;4.943744e-002
8.196329e+002;4.811374e-002
8.215615e+002;4.652360e-002
8.234900e+002;4.582027e-002
8.254185e+002;4.649273e-002
8.273471e+002;4.728482e-002
8.292756e+002;4.812458e-002
8.312042e+002;4.908968e-002
8.331328e+002;5.059838e-002
8.350613e+002;5.371774e-002
8.369898e+002;5.829749e-002
8.389184e+002;6.342294e-002
8.408469e+002;6.642033e-002
8.427755e+002;6.485338e-002
8.447040e+002;6.065277e-002
8.466326e+002;5.742438e-002
8.485611e+002;5.438179e-002
8.504897e+002;5.090018e-002
8.524182e+002;4.906806e-002
8.543467e+002;4.814620e-002
8.562753e+002;4.731829e-002
8.582039e+002;4.716728e-002
8.601324e+002;4.795386e-002
8.620610e+002;4.983018e-002
8.639895e+002;5.224561e-002
8.659180e+002;5.473381e-002
8.678466e+002;6.047138e-002
8.697751e+002;7.135140e-002
8.717037e+002;8.437431e-002
8.736323e+002;9.484731e-002
8.755608e+002;9.846965e-002
8.774893e+002;9.337220e-002
8.794179e+002;8.353063e-002
8.813464e+002;7.470099e-002
8.832750e+002;6.694856e-002
8.852036e+002;5.782298e-002
8.871321e+002;4.914841e-002
8.890606e+002;4.513803e-002
8.909892e+002;4.581552e-002
8.929177e+002;4.936568e-002
8.948463e+002;5.406187e-002
8.967748e+002;5.836946e-002
8.987034e+002;6.103356e-002
9.006319e+002;6.031766e-002
9.025605e+002;5.578960e-002
9.044890e+002;5.020992e-002
9.064175e+002;4.601236e-002
9.083461e+002;4.325869e-002
9.102747e+002;4.102036e-002
9.122032e+002;3.968827e-002
9.141318e+002;3.891762e-002
9.160603e+002;3.834703e-002
9.179888e+002;3.836350e-002
9.199174e+002;3.831880e-002
9.218459e+002;3.844074e-002
9.237745e+002;3.852086e-002
9.257031e+002;3.830805e-002
9.276316e+002;3.851594e-002
9.295601e+002;3.899065e-002
9.314887e+002;3.941726e-002
9.334172e+002;4.023852e-002
9.353458e+002;4.165600e-002
9.372744e+002;4.342517e-002
9.392029e+002;4.543323e-002
9.411314e+002;4.650151e-002
9.430600e+002;4.613616e-002
9.449885e+002;4.543209e-002
9.469171e+002;4.503952e-002
9.488456e+002;4.548768e-002
9.507742e+002;4.615325e-002
9.527027e+002;4.638761e-002
9.546313e+002;4.734937e-002
9.565598e+002;4.855252e-002
9.584883e+002;4.974643e-002
9.604169e+002;5.142478e-002
9.623455e+002;5.369839e-002
9.642740e+002;5.696661e-002
9.662026e+002;6.136404e-002
9.681311e+002;6.715109e-002
9.700596e+002;7.359941e-002
9.719882e+002;7.764659e-002
9.739167e+002;7.688642e-002
9.758453e+002;7.209071e-002
9.777739e+002;6.503765e-002
9.797024e+002;5.758309e-002
9.816309e+002;5.145029e-002
9.835595e+002;4.737542e-002
9.854880e+002;4.538909e-002
9.874166e+002;4.540564e-002
9.893452e+002;4.738018e-002
9.912737e+002;5.133389e-002
9.932022e+002;5.633791e-002
9.951307e+002;6.099848e-002
9.970593e+002;6.413373e-002
9.989879e+002;6.372359e-002
1.000916e+003;5.973473e-002
1.002845e+003;5.429850e-002
1.004773e+003;4.959508e-002
1.006702e+003;4.598647e-002
1.008631e+003;4.300184e-002
1.010559e+003;4.105147e-002
1.012488e+003;3.994175e-002
1.014416e+003;3.857709e-002
1.016345e+003;3.775499e-002
1.018273e+003;3.729947e-002
1.020202e+003;3.684838e-002
1.022130e+003;3.658603e-002
1.024059e+003;3.634736e-002
1.025988e+003;3.582079e-002
1.027916e+003;3.514926e-002
1.029845e+003;3.516945e-002
1.031773e+003;3.574908e-002
1.033702e+003;3.620104e-002
1.035630e+003;3.695209e-002
1.037559e+003;3.739790e-002
1.039487e+003;3.735312e-002
1.041416e+003;3.787844e-002
1.043344e+003;3.913396e-002
1.045273e+003;3.934311e-002
1.047202e+003;3.867365e-002
1.049130e+003;3.805393e-002
1.051059e+003;3.720993e-002
1.052987e+003;3.650940e-002
1.054916e+003;3.555747e-002
1.056844e+003;3.439336e-002
1.058773e+003;3.359438e-002
1.060701e+003;3.362668e-002
1.062630e+003;3.410758e-002
1.064558e+003;3.415805e-002
1.066487e+003;3.357105e-002
1.068416e+003;3.339722e-002
1.070344e+003;3.372944e-002
1.072273e+003;3.376865e-002
1.074201e+003;3.338458e-002
1.076130e+003;3.330394e-002
1.078058e+003;3.385017e-002
1.079987e+003;3.445229e-002
1.081915e+003;3.443626e-002
1.083844e+003;3.502177e-002
1.085773e+003;3.584908e-002
1.087701e+003;3.572376e-002
1.089630e+003;3.548840e-002
1.091558e+003;3.621811e-002
1.093487e+003;3.764119e-002
1.095415e+003;3.934162e-002
1.097344e+003;4.161822e-002
1.099272e+003;4.402011e-002
1.101201e+003;4.519847e-002
1.103129e+003;4.482070e-002
1.105058e+003;4.321653e-002
1.106987e+003;4.089624e-002
1.108915e+003;3.831572e-002
1.110844e+003;3.623187e-002
1.112772e+003;3.473303e-002
1.114701e+003;3.405920e-002
1.116629e+003;3.382872e-002
1.118558e+003;3.376658e-002
1.120486e+003;3.395342e-002
1.122415e+003;3.410847e-002
1.124344e+003;3.367247e-002
1.126272e+003;3.311073e-002
1.128201e+003;3.309850e-002
1.130129e+003;3.355240e-002
1.132058e+003;3.397914e-002
1.133986e+003;3.544015e-002
1.135915e+003;3.771820e-002
1.137843e+003;3.964180e-002
1.139772e+003;4.198034e-002
1.141700e+003;4.519421e-002
1.143629e+003;4.859806e-002
1.145557e+003;5.187838e-002
1.147486e+003;5.571437e-002
1.149415e+003;5.964855e-002
1.151343e+003;6.272759e-002
1.153272e+003;6.422618e-002
1.155200e+003;6.463092e-002
1.157129e+003;6.457767e-002
1.159057e+003;6.469014e-002
1.160986e+003;6.496084e-002
1.162914e+003;6.480233e-002
1.164843e+003;6.436238e-002
1.166771e+003;6.315347e-002
1.168700e+003;5.994640e-002
1.170629e+003;5.568356e-002
1.172557e+003;5.154015e-002
1.174486e+003;4.736928e-002
1.176414e+003;4.348145e-002
1.178343e+003;4.035148e-002
1.180271e+003;3.805784e-002
1.182200e+003;3.636123e-002
1.184128e+003;3.505604e-002
1.186057e+003;3.393418e-002
1.187986e+003;3.347415e-002
1.189914e+003;3.370957e-002
1.191843e+003;3.419153e-002
1.193771e+003;3.458532e-002
1.195700e+003;3.489335e-002
1.197628e+003;3.493116e-002
1.199557e+003;3.465120e-002
1.201485e+003;3.464266e-002
1.203414e+003;3.502989e-002
1.205343e+003;3.546845e-002
1.207271e+003;3.600074e-002
1.209200e+003;3.680427e-002
1.211128e+003;3.776562e-002
1.213057e+003;3.947536e-002
1.214985e+003;4.134907e-002
1.216914e+003;4.239244e-002
1.218842e+003;4.265883e-002
1.220771e+003;4.205513e-002
1.222699e+003;4.065923e-002
1.224628e+003;3.929534e-002
1.226557e+003;3.786134e-002
1.228485e+003;3.694570e-002
1.230414e+003;3.647733e-002
1.232342e+003;3.631306e-002
1.234271e+003;3.648547e-002
1.236199e+003;3.683493e-002
1.238128e+003;3.714839e-002
1.240056e+003;3.742722e-002
1.241985e+003;3.759224e-002
1.243913e+003;3.770917e-002
1.245842e+003;3.812277e-002
1.247771e+003;3.947038e-002
1.249699e+003;4.153819e-002
1.251628e+003;4.390960e-002
1.253556e+003;4.668373e-002
1.255485e+003;4.862338e-002
1.257413e+003;4.799445e-002
1.259342e+003;4.545383e-002
1.261270e+003;4.312415e-002
1.263199e+003;4.133639e-002
1.265127e+003;4.028505e-002
1.267056e+003;3.972733e-002
1.268985e+003;3.892918e-002
1.270913e+003;3.839459e-002
1.272842e+003;3.864308e-002
1.274770e+003;3.909012e-002
1.276699e+003;3.929896e-002
1.278627e+003;3.948490e-002
1.280556e+003;3.983758e-002
1.282484e+003;4.068455e-002
1.284413e+003;4.198125e-002
1.286342e+003;4.354170e-002
1.288270e+003;4.531177e-002
1.290199e+003;4.730067e-002
1.292127e+003;4.914823e-002
1.294056e+003;5.050413e-002
1.295984e+003;5.116816e-002
1.297913e+003;5.114724e-002
1.299841e+003;5.118176e-002
1.301770e+003;5.224101e-002
1.303698e+003;5.368369e-002
1.305627e+003;5.339007e-002
1.307556e+003;5.077428e-002
1.309484e+003;4.783425e-002
1.311413e+003;4.640899e-002
1.313341e+003;4.611501e-002
1.315270e+003;4.636257e-002
1.317198e+003;4.723749e-002
1.319127e+003;4.851740e-002
1.321055e+003;5.017697e-002
1.322984e+003;5.276502e-002
1.324912e+003;5.552117e-002
1.326841e+003;5.766232e-002
1.328770e+003;5.902681e-002
1.330698e+003;5.920327e-002
1.332627e+003;5.817572e-002
1.334555e+003;5.697262e-002
1.336484e+003;5.624610e-002
1.338412e+003;5.618402e-002
1.340341e+003;5.700428e-002
1.342269e+003;5.875201e-002
1.344198e+003;6.065426e-002
1.346126e+003;6.288324e-002
1.348055e+003;6.592992e-002
1.349984e+003;6.962887e-002
1.351912e+003;7.417874e-002
1.353841e+003;8.035214e-002
1.355769e+003;8.748058e-002
1.357698e+003;9.281430e-002
1.359626e+003;9.427768e-002
1.361555e+003;9.277237e-002
1.363483e+003;9.199901e-002
1.365412e+003;9.481347e-002
1.367341e+003;1.027210e-001
1.369269e+003;1.178489e-001
1.371198e+003;1.409303e-001
1.373126e+003;1.688521e-001
1.375055e+003;1.913683e-001
1.376983e+003;1.941097e-001
1.378912e+003;1.745962e-001
1.380840e+003;1.456885e-001
1.382769e+003;1.184233e-001
1.384698e+003;9.775218e-002
1.386626e+003;8.455280e-002
1.388555e+003;7.782485e-002
1.390483e+003;7.518731e-002
1.392412e+003;7.425901e-002
1.394340e+003;7.428924e-002
1.396269e+003;7.551056e-002
1.398197e+003;7.690118e-002
1.400126e+003;7.854866e-002
1.402054e+003;8.029812e-002
1.403983e+003;8.127463e-002
1.405911e+003;8.252039e-002
1.407840e+003;8.435141e-002
1.409769e+003;8.615568e-002
1.411697e+003;8.779398e-002
1.413626e+003;8.956026e-002
1.415554e+003;9.130955e-002
1.417483e+003;9.235449e-002
1.419411e+003;9.367027e-002
1.421340e+003;9.614066e-002
1.423268e+003;9.834223e-002
1.425197e+003;1.002837e-001
1.427125e+003;1.027170e-001
1.429054e+003;1.067238e-001
1.430983e+003;1.125111e-001
1.432911e+003;1.188693e-001
1.434840e+003;1.223586e-001
1.436768e+003;1.227661e-001
1.438697e+003;1.236647e-001
1.440625e+003;1.256327e-001
1.442554e+003;1.295332e-001
1.444482e+003;1.360352e-001
1.446411e+003;1.442480e-001
1.448340e+003;1.527641e-001
1.450268e+003;1.595799e-001
1.452197e+003;1.635565e-001
1.454125e+003;1.646875e-001
1.456054e+003;1.626194e-001
1.457982e+003;1.605669e-001
1.459911e+003;1.587155e-001
1.461839e+003;1.538739e-001
1.463768e+003;1.460317e-001
1.465697e+003;1.367751e-001
1.467625e+003;1.274400e-001
1.469554e+003;1.173334e-001
1.471482e+003;1.069417e-001
1.473411e+003;9.860323e-002
1.475339e+003;9.302220e-002
1.477268e+003;8.836914e-002
1.479196e+003;8.448784e-002
1.481125e+003;8.098335e-002
1.483053e+003;7.813864e-002
1.484982e+003;7.560870e-002
1.486911e+003;7.296629e-002
1.488839e+003;7.070614e-002
1.490768e+003;6.957427e-002
1.492696e+003;6.878945e-002
1.494625e+003;6.657082e-002
1.496553e+003;6.447368e-002
1.498482e+003;6.380332e-002
1.500410e+003;6.336474e-002
1.502339e+003;6.238100e-002
1.504267e+003;5.963859e-002
1.506196e+003;5.657597e-002
1.508125e+003;5.627857e-002
1.510053e+003;5.667914e-002
1.511982e+003;5.601474e-002
1.513910e+003;5.523638e-002
1.515839e+003;5.384994e-002
1.517767e+003;5.226332e-002
1.519696e+003;5.032741e-002
1.521624e+003;4.909046e-002
1.523553e+003;4.896568e-002
1.525481e+003;4.871384e-002
1.527410e+003;4.853374e-002
1.529339e+003;4.809012e-002
1.531267e+003;4.710910e-002
1.533196e+003;4.578919e-002
1.535124e+003;4.530633e-002
1.537053e+003;4.416123e-002
1.538981e+003;4.165998e-002
1.540910e+003;4.091444e-002
1.542838e+003;4.147964e-002
1.544767e+003;4.147657e-002
1.546695e+003;4.100452e-002
1.548624e+003;4.019058e-002
1.550553e+003;3.956147e-002
1.552481e+003;3.846094e-002
1.554410e+003;3.682162e-002
1.556338e+003;3.537016e-002
1.558267e+003;3.326237e-002
1.560195e+003;3.318525e-002
1.562124e+003;3.494934e-002
1.564052e+003;3.542782e-002
1.565981e+003;3.525666e-002
1.567910e+003;3.468630e-002
1.569838e+003;3.388044e-002
1.571767e+003;3.400204e-002
1.573695e+003;3.357999e-002
1.575624e+003;3.255149e-002
1.577552e+003;3.303078e-002
1.579481e+003;3.373868e-002
1.581409e+003;3.359821e-002
1.583338e+003;3.333789e-002
1.585266e+003;3.315028e-002
1.587195e+003;3.299681e-002
1.589124e+003;3.269851e-002
1.591052e+003;3.226760e-002
1.592981e+003;3.160413e-002
1.594909e+003;3.141966e-002
1.596838e+003;3.160538e-002
1.598766e+003;3.161297e-002
1.600695e+003;3.148210e-002
1.602623e+003;3.131049e-002
1.604552e+003;3.137524e-002
1.606480e+003;3.120474e-002
1.608409e+003;3.089597e-002
1.610338e+003;3.097559e-002
1.612266e+003;3.117049e-002
1.614195e+003;3.041921e-002
1.616123e+003;2.899997e-002
1.618052e+003;2.934984e-002
1.619980e+003;3.020238e-002
1.621909e+003;2.998242e-002
1.623837e+003;2.999971e-002
1.625766e+003;3.052808e-002
1.627694e+003;3.067153e-002
1.629623e+003;3.084068e-002
1.631552e+003;3.102911e-002
1.633480e+003;3.021832e-002
1.635409e+003;2.932279e-002
1.637337e+003;3.021932e-002
1.639266e+003;3.124804e-002
1.641194e+003;3.139989e-002
1.643123e+003;3.090063e-002
1.645051e+003;2.967540e-002
1.646980e+003;2.940468e-002
1.648909e+003;3.027761e-002
1.650837e+003;2.903717e-002
1.652766e+003;2.692407e-002
1.654694e+003;2.859964e-002
1.656623e+003;3.045809e-002
1.658551e+003;3.034665e-002
1.660480e+003;2.969225e-002
1.662408e+003;2.920175e-002
1.664337e+003;2.946365e-002
1.666266e+003;2.937657e-002
1.668194e+003;2.839475e-002
1.670123e+003;2.803911e-002
1.672051e+003;2.836104e-002
1.673980e+003;2.782138e-002
1.675908e+003;2.755436e-002
1.677837e+003;2.808036e-002
1.679765e+003;2.811932e-002
1.681694e+003;2.737304e-002
1.683622e+003;2.545059e-002
1.685551e+003;2.570314e-002
1.687479e+003;2.720848e-002
1.689408e+003;2.741409e-002
1.691337e+003;2.733310e-002
1.693265e+003;2.663587e-002
1.695194e+003;2.521631e-002
1.697122e+003;2.509877e-002
1.699051e+003;2.431504e-002
1.700979e+003;2.423481e-002
1.702908e+003;2.563044e-002
1.704836e+003;2.564057e-002
1.706765e+003;2.545172e-002
1.708693e+003;2.539502e-002
1.710622e+003;2.537123e-002
1.712551e+003;2.506829e-002
1.714479e+003;2.431389e-002
1.716408e+003;2.293941e-002
1.718336e+003;2.281825e-002
1.720265e+003;2.389397e-002
1.722193e+003;2.428708e-002
1.724122e+003;2.431613e-002
1.726050e+003;2.449187e-002
1.727979e+003;2.430688e-002
1.729908e+003;2.375886e-002
1.731836e+003;2.256144e-002
1.733765e+003;2.146993e-002
1.735693e+003;2.245455e-002
1.737622e+003;2.322524e-002
1.739550e+003;2.296054e-002
1.741479e+003;2.302178e-002
1.743407e+003;2.286620e-002
1.745336e+003;2.244429e-002
1.747265e+003;2.176695e-002
1.749193e+003;2.092235e-002
1.751122e+003;2.043505e-002
1.753050e+003;2.070509e-002
1.754979e+003;2.073481e-002
1.756907e+003;2.047617e-002
1.758836e+003;2.034369e-002
1.760764e+003;1.991992e-002
1.762693e+003;1.985253e-002
1.764621e+003;2.002439e-002
1.766550e+003;1.944591e-002
1.768479e+003;1.904092e-002
1.770407e+003;1.856801e-002
1.772336e+003;1.801913e-002
1.774264e+003;1.848419e-002
1.776193e+003;1.901929e-002
1.778121e+003;1.908531e-002
1.780050e+003;1.894843e-002
1.781978e+003;1.916962e-002
1.783907e+003;1.930435e-002
1.785835e+003;1.982527e-002
1.787764e+003;2.066103e-002
1.789693e+003;2.137981e-002
1.791621e+003;2.229108e-002
1.793550e+003;2.399540e-002
1.795478e+003;2.556124e-002
1.797407e+003;2.587518e-002
1.799335e+003;2.538332e-002
1.801264e+003;2.468184e-002
1.803192e+003;2.362446e-002
1.805121e+003;2.231978e-002
1.807049e+003;2.113199e-002
1.808978e+003;1.994278e-002
1.810907e+003;1.884284e-002
1.812835e+003;1.814988e-002
1.814764e+003;1.778078e-002
1.816692e+003;1.763331e-002
1.818621e+003;1.763583e-002
1.820549e+003;1.748482e-002
1.822478e+003;1.731758e-002
1.824406e+003;1.730251e-002
1.826335e+003;1.751393e-002
1.828264e+003;1.735079e-002
1.830192e+003;1.718123e-002
1.832121e+003;1.747323e-002
1.834049e+003;1.762989e-002
1.835978e+003;1.739272e-002
1.837906e+003;1.708813e-002
1.839835e+003;1.696670e-002
1.841763e+003;1.646293e-002
1.843692e+003;1.587787e-002
1.845620e+003;1.623025e-002
1.847549e+003;1.664464e-002
1.849478e+003;1.670524e-002
1.851406e+003;1.665669e-002
1.853335e+003;1.639878e-002
1.855263e+003;1.620737e-002
1.857192e+003;1.614000e-002
1.859120e+003;1.604744e-002
1.861049e+003;1.611713e-002
1.862977e+003;1.605930e-002
1.864906e+003;1.579934e-002
1.866834e+003;1.561318e-002
1.868763e+003;1.527616e-002
1.870692e+003;1.528803e-002
1.872620e+003;1.550960e-002
1.874549e+003;1.556877e-002
1.876477e+003;1.555812e-002
1.878406e+003;1.558316e-002
1.880334e+003;1.564309e-002
1.882263e+003;1.556063e-002
1.884191e+003;1.561383e-002
1.886120e+003;1.586110e-002
1.888048e+003;1.586886e-002
1.889977e+003;1.578165e-002
1.891906e+003;1.596414e-002
1.893834e+003;1.637693e-002
1.895763e+003;1.647053e-002
1.897691e+003;1.619630e-002
1.899620e+003;1.622399e-002
1.901548e+003;1.618251e-002
1.903477e+003;1.583281e-002
1.905405e+003;1.554466e-002
1.907334e+003;1.555191e-002
1.909262e+003;1.550963e-002
1.911191e+003;1.546760e-002
1.913120e+003;1.565776e-002
1.915048e+003;1.569407e-002
1.916977e+003;1.528793e-002
1.918905e+003;1.534662e-002
1.920834e+003;1.551008e-002
1.922762e+003;1.518999e-002
1.924691e+003;1.509969e-002
1.926619e+003;1.518230e-002
1.928548e+003;1.488039e-002
1.930477e+003;1.464146e-002
1.932405e+003;1.471881e-002
1.934334e+003;1.460390e-002
1.936262e+003;1.451379e-002
1.938191e+003;1.420559e-002
1.940119e+003;1.385916e-002
1.942048e+003;1.397637e-002
1.943976e+003;1.439119e-002
1.945905e+003;1.458313e-002
1.947833e+003;1.448994e-002
1.949762e+003;1.444075e-002
1.951691e+003;1.453657e-002
1.953619e+003;1.444260e-002
1.955548e+003;1.425859e-002
1.957476e+003;1.419569e-002
1.959405e+003;1.412959e-002
1.961333e+003;1.437142e-002
1.963262e+003;1.472433e-002
1.965190e+003;1.472320e-002
1.967119e+003;1.444798e-002
1.969047e+003;1.422000e-002
1.970976e+003;1.413312e-002
1.972905e+003;1.419183e-002
1.974833e+003;1.419299e-002
1.976762e+003;1.418905e-002
1.978690e+003;1.428773e-002
1.980619e+003;1.441592e-002
1.982547e+003;1.434975e-002
1.984476e+003;1.437814e-002
1.986404e+003;1.443106e-002
1.988333e+003;1.471768e-002
1.990261e+003;1.497476e-002
1.992190e+003;1.477074e-002
1.994119e+003;1.470113e-002
1.996047e+003;1.473845e-002
1.997976e+003;1.464869e-002
1.999904e+003;1.476865e-002
2.001833e+003;1.500570e-002
2.003761e+003;1.488008e-002
2.005690e+003;1.454411e-002
2.007618e+003;1.431067e-002
2.009547e+003;1.439396e-002
2.011476e+003;1.475350e-002
2.013404e+003;1.504741e-002
2.015333e+003;1.517098e-002
2.017261e+003;1.522815e-002
2.019190e+003;1.514696e-002
2.021118e+003;1.492431e-002
2.023047e+003;1.477575e-002
2.024975e+003;1.476917e-002
2.026904e+003;1.502902e-002
2.028833e+003;1.522983e-002
2.030761e+003;1.513262e-002
2.032690e+003;1.505729e-002
2.034618e+003;1.540193e-002
2.036547e+003;1.559995e-002
2.038475e+003;1.551794e-002
2.040404e+003;1.542805e-002
2.042332e+003;1.542922e-002
2.044261e+003;1.539530e-002
2.046189e+003;1.545442e-002
2.048118e+003;1.546936e-002
2.050047e+003;1.547279e-002
2.051975e+003;1.559109e-002
2.053904e+003;1.561788e-002
2.055832e+003;1.527139e-002
2.057761e+003;1.514065e-002
2.059689e+003;1.528103e-002
2.061618e+003;1.535792e-002
2.063546e+003;1.537790e-002
2.065475e+003;1.544213e-002
2.067404e+003;1.537632e-002
2.069332e+003;1.543485e-002
2.071260e+003;1.563777e-002
2.073189e+003;1.569352e-002
2.075118e+003;1.583570e-002
2.077046e+003;1.614261e-002
2.078975e+003;1.635333e-002
2.080903e+003;1.631783e-002
2.082832e+003;1.625291e-002
2.084760e+003;1.623843e-002
2.086689e+003;1.633599e-002
2.088617e+003;1.635753e-002
2.090546e+003;1.634346e-002
2.092475e+003;1.635784e-002
2.094403e+003;1.627620e-002
2.096332e+003;1.623045e-002
2.098260e+003;1.637267e-002
2.100189e+003;1.654563e-002
2.102117e+003;1.647105e-002
2.104046e+003;1.639028e-002
2.105974e+003;1.633909e-002
2.107903e+003;1.637112e-002
2.109832e+003;1.635319e-002
2.111760e+003;1.614309e-002
2.113688e+003;1.592110e-002
2.115617e+003;1.617160e-002
2.117546e+003;1.645797e-002
2.119474e+003;1.669301e-002
2.121403e+003;1.721908e-002
2.123331e+003;1.762251e-002
2.125260e+003;1.776387e-002
2.127188e+003;1.797289e-002
2.129117e+003;1.825961e-002
2.131045e+003;1.852938e-002
2.132974e+003;1.859930e-002
2.134903e+003;1.849020e-002
2.136831e+003;1.831678e-002
2.138760e+003;1.827852e-002
2.140688e+003;1.841359e-002
2.142617e+003;1.837553e-002
2.144545e+003;1.815102e-002
2.146474e+003;1.807743e-002
2.148402e+003;1.799140e-002
2.150331e+003;1.808970e-002
2.152260e+003;1.843496e-002
2.154188e+003;1.855677e-002
2.156117e+003;1.838459e-002
2.158045e+003;1.853626e-002
2.159974e+003;1.853384e-002
2.161902e+003;1.873237e-002
2.163831e+003;1.906322e-002
2.165759e+003;1.893850e-002
2.167688e+003;1.888022e-002
2.169616e+003;1.920176e-002
2.171545e+003;1.951570e-002
2.173474e+003;1.963061e-002
2.175402e+003;1.960697e-002
2.177331e+003;1.951702e-002
2.179259e+003;1.934117e-002
2.181188e+003;1.926704e-002
2.183116e+003;1.943687e-002
2.185045e+003;1.958991e-002
2.186973e+003;1.954184e-002
2.188902e+003;1.929801e-002
2.190831e+003;1.920820e-002
2.192759e+003;1.923830e-002
2.194688e+003;1.916110e-002
2.196616e+003;1.915598e-002
2.198545e+003;1.923206e-002
2.200473e+003;1.910684e-002
2.202402e+003;1.880565e-002
2.204330e+003;1.887783e-002
2.206259e+003;1.897453e-002
2.208188e+003;1.904172e-002
2.210116e+003;1.912291e-002
2.212044e+003;1.897816e-002
2.213973e+003;1.872095e-002
2.215902e+003;1.873358e-002
2.217830e+003;1.880347e-002
2.219759e+003;1.890897e-002
2.221687e+003;1.890939e-002
2.223616e+003;1.903338e-002
2.225544e+003;1.926167e-002
2.227473e+003;1.928471e-002
2.229401e+003;1.930497e-002
2.231330e+003;1.933019e-002
2.233259e+003;1.918804e-002
2.235187e+003;1.907475e-002
2.237116e+003;1.882374e-002
2.239044e+003;1.840205e-002
2.240973e+003;1.828730e-002
2.242901e+003;1.866049e-002
2.244830e+003;1.905370e-002
2.246758e+003;1.907478e-002
2.248687e+003;1.907374e-002
2.250615e+003;1.924065e-002
2.252544e+003;1.923584e-002
2.254473e+003;1.960870e-002
2.256401e+003;2.016122e-002
2.258330e+003;2.020437e-002
2.260258e+003;1.989013e-002
2.262187e+003;1.974010e-002
2.264115e+003;1.976482e-002
2.266044e+003;1.965689e-002
2.267972e+003;1.943167e-002
2.269901e+003;1.929863e-002
2.271830e+003;1.927567e-002
2.273758e+003;1.913451e-002
2.275687e+003;1.890153e-002
2.277615e+003;1.878399e-002
2.279544e+003;1.841256e-002
2.281472e+003;1.803844e-002
2.283401e+003;1.813917e-002
2.285329e+003;1.847492e-002
2.287258e+003;1.882796e-002
2.289187e+003;1.879101e-002
2.291115e+003;1.874583e-002
2.293043e+003;1.855787e-002
2.294972e+003;1.838615e-002
2.296901e+003;1.847828e-002
2.298829e+003;1.876184e-002
2.300758e+003;1.898827e-002
2.302686e+003;1.909794e-002
2.304615e+003;1.906128e-002
2.306543e+003;1.892240e-002
2.308472e+003;1.889506e-002
2.310400e+003;1.848716e-002
2.312329e+003;1.813585e-002
2.314258e+003;1.839289e-002
2.316186e+003;1.868463e-002
2.318115e+003;1.880935e-002
2.320043e+003;1.905010e-002
2.321972e+003;1.930016e-002
2.323900e+003;1.949145e-002
2.325829e+003;1.972172e-002
2.327757e+003;1.981698e-002
2.329686e+003;1.969263e-002
2.331615e+003;1.962014e-002
2.333543e+003;1.961425e-002
2.335472e+003;1.974294e-002
2.337400e+003;1.997213e-002
2.339329e+003;2.027799e-002
2.341257e+003;2.055784e-002
2.343186e+003;2.050723e-002
2.345114e+003;2.075413e-002
2.347043e+003;2.092659e-002
2.348971e+003;2.076727e-002
2.350900e+003;2.076974e-002
2.352829e+003;2.086356e-002
2.354757e+003;2.111578e-002
2.356686e+003;2.138357e-002
2.358614e+003;2.149127e-002
2.360543e+003;2.166806e-002
2.362471e+003;2.190082e-002
2.364400e+003;2.173396e-002
2.366328e+003;2.146088e-002
2.368257e+003;2.162790e-002
2.370186e+003;2.163247e-002
2.372114e+003;2.150634e-002
2.374042e+003;2.153998e-002
2.375971e+003;2.159750e-002
2.377900e+003;2.157013e-002
2.379828e+003;2.166862e-002
2.381757e+003;2.177754e-002
2.383685e+003;2.179082e-002
2.385614e+003;2.180315e-002
2.387542e+003;2.192661e-002
2.389471e+003;2.196125e-002
2.391399e+003;2.202109e-002
2.393328e+003;2.197487e-002
2.395257e+003;2.196341e-002
2.397185e+003;2.201384e-002
2.399114e+003;2.197104e-002
2.401042e+003;2.196954e-002
2.402971e+003;2.198767e-002
2.404899e+003;2.188318e-002
2.406828e+003;2.195696e-002
2.408756e+003;2.201977e-002
2.410685e+003;2.200516e-002
2.412614e+003;2.208796e-002
2.414542e+003;2.222467e-002
2.416471e+003;2.237717e-002
2.418399e+003;2.244398e-002
2.420328e+003;2.254347e-002
2.422256e+003;2.279097e-002
2.424185e+003;2.282282e-002
2.426113e+003;2.297888e-002
2.428042e+003;2.332382e-002
2.429970e+003;2.346785e-002
2.431899e+003;2.336099e-002
2.433828e+003;2.308398e-002
2.435756e+003;2.274897e-002
2.437685e+003;2.235659e-002
2.439613e+003;2.191964e-002
2.441542e+003;2.196759e-002
2.443470e+003;2.232830e-002
2.445399e+003;2.222952e-002
2.447327e+003;2.189165e-002
2.449256e+003;2.174156e-002
2.451185e+003;2.158807e-002
2.453113e+003;2.150568e-002
2.455042e+003;2.153260e-002
2.456970e+003;2.153298e-002
2.458899e+003;2.154928e-002
2.460827e+003;2.136320e-002
2.462756e+003;2.130703e-002
2.464684e+003;2.131111e-002
2.466613e+003;2.128873e-002
2.468542e+003;2.128473e-002
2.470470e+003;2.141159e-002
2.472398e+003;2.175309e-002
2.474327e+003;2.201322e-002
2.476256e+003;2.212467e-002
2.478184e+003;2.239308e-002
2.480113e+003;2.274810e-002
2.482041e+003;2.286683e-002
2.483970e+003;2.275847e-002
2.485898e+003;2.296554e-002
2.487827e+003;2.331134e-002
2.489755e+003;2.360774e-002
2.491684e+003;2.392821e-002
2.493613e+003;2.425096e-002
2.495541e+003;2.475006e-002
2.497470e+003;2.494826e-002
2.499398e+003;2.511453e-002
2.501327e+003;2.555133e-002
2.503255e+003;2.601809e-002
2.505184e+003;2.641067e-002
2.507112e+003;2.705030e-002
2.509041e+003;2.770514e-002
2.510969e+003;2.809245e-002
2.512898e+003;2.849607e-002
2.514827e+003;2.874377e-002
2.516755e+003;2.902661e-002
2.518684e+003;2.948294e-002
2.520612e+003;2.981069e-002
2.522541e+003;2.976715e-002
2.524469e+003;2.984529e-002
2.526398e+003;2.979007e-002
2.528326e+003;2.951099e-002
2.530255e+003;2.942961e-002
2.532184e+003;2.940816e-002
2.534112e+003;2.936136e-002
2.536041e+003;2.909966e-002
2.537969e+003;2.866140e-002
2.539898e+003;2.859982e-002
2.541826e+003;2.865082e-002
2.543755e+003;2.840674e-002
2.545683e+003;2.835651e-002
2.547612e+003;2.848931e-002
2.549541e+003;2.865595e-002
2.551469e+003;2.893048e-002
2.553397e+003;2.930195e-002
2.555326e+003;2.959462e-002
2.557255e+003;2.967831e-002
2.559183e+003;2.976506e-002
2.561112e+003;2.989335e-002
2.563040e+003;3.030323e-002
2.564969e+003;3.092084e-002
2.566897e+003;3.139789e-002
2.568826e+003;3.190001e-002
2.570754e+003;3.248725e-002
2.572683e+003;3.345744e-002
2.574612e+003;3.457936e-002
2.576540e+003;3.537861e-002
2.578469e+003;3.592468e-002
2.580397e+003;3.607436e-002
2.582326e+003;3.583796e-002
2.584254e+003;3.530094e-002
2.586183e+003;3.458456e-002
2.588111e+003;3.368658e-002
2.590040e+003;3.267929e-002
2.591969e+003;3.214031e-002
2.593897e+003;3.197550e-002
2.595826e+003;3.196702e-002
2.597754e+003;3.174413e-002
2.599683e+003;3.161714e-002
2.601611e+003;3.195518e-002
2.603540e+003;3.227909e-002
2.605468e+003;3.244887e-002
2.607397e+003;3.281181e-002
2.609325e+003;3.335621e-002
2.611254e+003;3.411772e-002
2.613183e+003;3.468630e-002
2.615111e+003;3.470367e-002
2.617040e+003;3.439304e-002
2.618968e+003;3.394765e-002
2.620897e+003;3.361275e-002
2.622825e+003;3.363921e-002
2.624754e+003;3.361544e-002
2.626682e+003;3.331717e-002
2.628611e+003;3.295792e-002
2.630540e+003;3.258671e-002
2.632468e+003;3.231589e-002
2.634396e+003;3.228933e-002
2.636325e+003;3.242391e-002
2.638254e+003;3.233648e-002
2.640182e+003;3.225011e-002
2.642111e+003;3.271288e-002
2.644039e+003;3.344767e-002
2.645968e+003;3.394224e-002
2.647896e+003;3.445710e-002
2.649825e+003;3.468773e-002
2.651753e+003;3.483641e-002
2.653682e+003;3.527481e-002
2.655611e+003;3.561110e-002
2.657539e+003;3.610699e-002
2.659468e+003;3.651910e-002
2.661396e+003;3.652357e-002
2.663325e+003;3.648295e-002
2.665253e+003;3.648140e-002
2.667182e+003;3.649336e-002
2.669110e+003;3.644853e-002
2.671039e+003;3.618275e-002
2.672968e+003;3.627477e-002
2.674896e+003;3.698088e-002
2.676825e+003;3.743817e-002
2.678753e+003;3.739107e-002
2.680682e+003;3.703154e-002
2.682610e+003;3.678876e-002
2.684539e+003;3.680358e-002
2.686467e+003;3.700747e-002
2.688396e+003;3.705968e-002
2.690324e+003;3.692950e-002
2.692253e+003;3.700718e-002
2.694182e+003;3.693860e-002
2.696110e+003;3.674275e-002
2.698039e+003;3.702057e-002
2.699967e+003;3.768051e-002
2.701896e+003;3.817070e-002
2.703824e+003;3.867270e-002
2.705753e+003;3.947986e-002
2.707681e+003;4.053008e-002
2.709610e+003;4.149681e-002
2.711539e+003;4.243836e-002
2.713467e+003;4.366948e-002
2.715396e+003;4.508616e-002
2.717324e+003;4.677941e-002
2.719253e+003;4.843926e-002
2.721181e+003;4.975664e-002
2.723110e+003;5.018910e-002
2.725038e+003;4.973647e-002
2.726967e+003;4.879036e-002
2.728896e+003;4.764089e-002
2.730824e+003;4.644892e-002
2.732752e+003;4.522546e-002
2.734681e+003;4.407189e-002
2.736610e+003;4.305595e-002
2.738538e+003;4.210682e-002
2.740467e+003;4.119443e-002
2.742395e+003;4.048865e-002
2.744324e+003;3.961007e-002
2.746252e+003;3.888261e-002
2.748181e+003;3.871664e-002
2.750109e+003;3.867057e-002
2.752038e+003;3.848241e-002
2.753967e+003;3.858456e-002
2.755895e+003;3.922360e-002
2.757824e+003;3.973978e-002
2.759752e+003;4.004834e-002
2.761681e+003;4.072076e-002
2.763609e+003;4.117152e-002
2.765538e+003;4.126074e-002
2.767466e+003;4.168554e-002
2.769395e+003;4.209769e-002
2.771323e+003;4.259991e-002
2.773252e+003;4.318904e-002
2.775181e+003;4.347929e-002
2.777109e+003;4.422821e-002
2.779038e+003;4.559439e-002
2.780966e+003;4.651534e-002
2.782895e+003;4.774651e-002
2.784823e+003;4.941643e-002
2.786752e+003;5.104334e-002
2.788680e+003;5.261711e-002
2.790609e+003;5.426835e-002
2.792538e+003;5.586176e-002
2.794466e+003;5.701667e-002
2.796395e+003;5.815011e-002
2.798323e+003;5.965577e-002
2.800252e+003;6.118910e-002
2.802180e+003;6.267679e-002
2.804109e+003;6.465983e-002
2.806037e+003;6.665796e-002
2.807966e+003;6.836186e-002
2.809895e+003;6.981418e-002
2.811823e+003;7.128670e-002
2.813751e+003;7.314270e-002
2.815680e+003;7.498816e-002
2.817609e+003;7.686159e-002
2.819537e+003;7.931887e-002
2.821466e+003;8.218227e-002
2.823394e+003;8.548456e-002
2.825323e+003;8.955184e-002
2.827251e+003;9.499013e-002
2.829180e+003;1.024059e-001
2.831108e+003;1.114990e-001
2.833037e+003;1.209095e-001
2.834966e+003;1.284551e-001
2.836894e+003;1.319261e-001
2.838823e+003;1.313289e-001
2.840751e+003;1.277141e-001
2.842680e+003;1.223698e-001
2.844608e+003;1.168948e-001
2.846537e+003;1.122133e-001
2.848465e+003;1.085192e-001
2.850394e+003;1.059671e-001
2.852323e+003;1.047288e-001
2.854251e+003;1.042045e-001
2.856180e+003;1.052192e-001
2.858108e+003;1.087427e-001
2.860037e+003;1.143038e-001
2.861965e+003;1.220296e-001
2.863894e+003;1.303227e-001
2.865822e+003;1.368468e-001
2.867751e+003;1.406758e-001
2.869679e+003;1.424887e-001
2.871608e+003;1.436179e-001
2.873536e+003;1.442233e-001
2.875465e+003;1.440925e-001
2.877394e+003;1.426553e-001
2.879322e+003;1.407779e-001
2.881251e+003;1.395554e-001
2.883179e+003;1.388544e-001
2.885108e+003;1.389818e-001
2.887036e+003;1.398532e-001
2.888965e+003;1.416378e-001
2.890893e+003;1.443114e-001
2.892822e+003;1.478284e-001
2.894750e+003;1.519309e-001
2.896679e+003;1.566437e-001
2.898608e+003;1.619051e-001
2.900536e+003;1.676508e-001
2.902465e+003;1.735300e-001
2.904393e+003;1.795201e-001
2.906322e+003;1.848585e-001
2.908250e+003;1.892536e-001
2.910179e+003;1.937633e-001
2.912107e+003;1.973132e-001
2.914036e+003;1.988390e-001
2.915965e+003;1.983606e-001
2.917893e+003;1.962517e-001
2.919822e+003;1.922958e-001
2.921750e+003;1.877245e-001
2.923679e+003;1.820827e-001
2.925607e+003;1.747584e-001
2.927536e+003;1.670378e-001
2.929464e+003;1.593176e-001
2.931393e+003;1.507765e-001
2.933322e+003;1.426011e-001
2.935250e+003;1.354381e-001
2.937178e+003;1.300733e-001
2.939107e+003;1.274942e-001
2.941036e+003;1.281838e-001
2.942964e+003;1.329163e-001
2.944893e+003;1.406036e-001
2.946821e+003;1.486753e-001
2.948750e+003;1.552254e-001
2.950678e+003;1.590325e-001
2.952607e+003;1.595890e-001
2.954535e+003;1.578779e-001
2.956464e+003;1.542667e-001
2.958393e+003;1.495458e-001
2.960321e+003;1.436947e-001
2.962250e+003;1.367237e-001
2.964178e+003;1.293001e-001
2.966107e+003;1.215701e-001
2.968035e+003;1.140850e-001
2.969964e+003;1.069287e-001
2.971892e+003;1.005536e-001
2.973821e+003;9.495054e-002
2.975750e+003;8.969980e-002
2.977678e+003;8.485454e-002
2.979607e+003;8.033005e-002
2.981535e+003;7.665290e-002
2.983464e+003;7.355537e-002
2.985392e+003;7.073703e-002
2.987321e+003;6.783691e-002
2.989249e+003;6.530815e-002
2.991178e+003;6.298910e-002
2.993106e+003;6.091140e-002
2.995035e+003;5.928044e-002
2.996964e+003;5.769089e-002
2.998892e+003;5.586115e-002
3.000821e+003;5.390680e-002
3.002749e+003;5.169218e-002
3.004678e+003;4.965908e-002
3.006606e+003;4.804786e-002
3.008535e+003;4.660213e-002
3.010463e+003;4.548179e-002
3.012392e+003;4.432559e-002
3.014321e+003;4.299500e-002
3.016249e+003;4.160345e-002
3.018177e+003;4.039159e-002
3.020106e+003;3.927796e-002
3.022035e+003;3.817301e-002
3.023963e+003;3.690144e-002
3.025892e+003;3.577852e-002
3.027820e+003;3.508111e-002
3.029749e+003;3.443644e-002
3.031677e+003;3.362278e-002
3.033606e+003;3.301773e-002
3.035534e+003;3.235772e-002
3.037463e+003;3.157969e-002
3.039392e+003;3.128190e-002
3.041320e+003;3.094780e-002
3.043249e+003;3.042909e-002
3.045177e+003;2.974330e-002
3.047106e+003;2.948510e-002
3.049034e+003;2.923559e-002
3.050963e+003;2.864101e-002
3.052891e+003;2.830251e-002
3.054820e+003;2.833030e-002
3.056749e+003;2.831906e-002
3.058677e+003;2.792974e-002
3.060606e+003;2.781393e-002
3.062534e+003;2.787985e-002
3.064463e+003;2.737096e-002
3.066391e+003;2.661519e-002
3.068320e+003;2.641947e-002
3.070248e+003;2.665433e-002
3.072177e+003;2.661452e-002
3.074105e+003;2.634243e-002
3.076034e+003;2.616351e-002
3.077963e+003;2.584582e-002
3.079891e+003;2.551939e-002
3.081820e+003;2.543640e-002
3.083748e+003;2.537186e-002
3.085677e+003;2.500666e-002
3.087605e+003;2.484352e-002
3.089534e+003;2.484836e-002
3.091462e+003;2.497286e-002
3.093391e+003;2.522186e-002
3.095320e+003;2.526829e-002
3.097248e+003;2.529357e-002
3.099177e+003;2.519121e-002
3.101105e+003;2.486840e-002
3.103034e+003;2.468454e-002
3.104962e+003;2.459488e-002
3.106891e+003;2.467897e-002
3.108819e+003;2.468679e-002
3.110748e+003;2.482577e-002
3.112677e+003;2.489748e-002
3.114605e+003;2.481528e-002
3.116533e+003;2.484580e-002
3.118462e+003;2.477318e-002
3.120391e+003;2.502263e-002
3.122319e+003;2.488710e-002
3.124248e+003;2.468276e-002
3.126176e+003;2.470587e-002
3.128105e+003;2.498051e-002
3.130033e+003;2.541616e-002
3.131962e+003;2.579518e-002
3.133890e+003;2.555162e-002
3.135819e+003;2.522794e-002
3.137748e+003;2.533607e-002
3.139676e+003;2.564858e-002
3.141605e+003;2.580791e-002
3.143533e+003;2.572272e-002
3.145462e+003;2.597736e-002
3.147390e+003;2.630870e-002
3.149319e+003;2.632148e-002
3.151247e+003;2.598517e-002
3.153176e+003;2.587304e-002
3.155104e+003;2.596459e-002
3.157033e+003;2.561094e-002
3.158962e+003;2.563674e-002
3.160890e+003;2.592343e-002
3.162819e+003;2.568788e-002
3.164747e+003;2.530495e-002
3.166676e+003;2.510954e-002
3.168604e+003;2.523394e-002
3.170533e+003;2.562110e-002
3.172461e+003;2.594777e-002
3.174390e+003;2.584234e-002
3.176319e+003;2.553534e-002
3.178247e+003;2.549753e-002
3.180176e+003;2.582437e-002
3.182104e+003;2.627998e-002
3.184033e+003;2.643510e-002
3.185961e+003;2.646704e-002
3.187890e+003;2.641359e-002
3.189818e+003;2.628244e-002
3.191747e+003;2.595928e-002
3.193676e+003;2.592073e-002
3.195604e+003;2.597940e-002
3.197532e+003;2.603129e-002
3.199461e+003;2.620012e-002
3.201390e+003;2.633866e-002
3.203318e+003;2.612991e-002
3.205247e+003;2.579877e-002
3.207175e+003;2.535915e-002
3.209104e+003;2.496191e-002
3.211032e+003;2.503828e-002
3.212961e+003;2.527173e-002
3.214889e+003;2.492131e-002
3.216818e+003;2.423568e-002
3.218747e+003;2.424735e-002
3.220675e+003;2.418947e-002
3.222604e+003;2.384262e-002
3.224532e+003;2.365819e-002
3.226461e+003;2.334718e-002
3.228389e+003;2.313866e-002
3.230318e+003;2.297441e-002
3.232246e+003;2.293015e-002
3.234175e+003;2.257505e-002
3.236104e+003;2.223140e-002
3.238032e+003;2.212401e-002
3.239961e+003;2.202831e-002
3.241889e+003;2.157184e-002
3.243818e+003;2.088285e-002
3.245746e+003;2.066704e-002
3.247675e+003;2.097165e-002
3.249603e+003;2.117238e-002
3.251532e+003;2.135200e-002
3.253460e+003;2.131013e-002
3.255389e+003;2.079789e-002
3.257318e+003;2.067663e-002
3.259246e+003;2.068890e-002
3.261175e+003;2.008608e-002
3.263103e+003;1.996409e-002
3.265032e+003;2.012336e-002
3.266960e+003;1.970359e-002
3.268889e+003;1.956412e-002
3.270817e+003;1.999677e-002
3.272746e+003;2.043172e-002
3.274675e+003;2.043911e-002
3.276603e+003;2.003906e-002
3.278531e+003;1.959092e-002
3.280460e+003;1.980567e-002
3.282389e+003;2.022366e-002
3.284317e+003;1.990914e-002
3.286246e+003;1.970834e-002
3.288174e+003;1.976551e-002
3.290103e+003;1.980359e-002
3.292031e+003;2.025991e-002
3.293960e+003;2.048701e-002
3.295888e+003;2.003837e-002
3.297817e+003;1.973063e-002
3.299746e+003;1.974683e-002
3.301674e+003;2.009327e-002
3.303603e+003;2.027376e-002
3.305531e+003;1.996689e-002
3.307460e+003;1.968348e-002
3.309388e+003;1.959740e-002
3.311317e+003;1.950555e-002
3.313245e+003;1.924803e-002
3.315174e+003;1.953643e-002
3.317103e+003;1.985537e-002
3.319031e+003;1.954035e-002
3.320960e+003;1.935153e-002
3.322888e+003;1.979419e-002
3.324817e+003;1.966039e-002
3.326745e+003;1.931256e-002
3.328674e+003;1.957601e-002
3.330602e+003;1.964149e-002
3.332531e+003;1.942266e-002
3.334459e+003;1.961047e-002
3.336388e+003;1.980560e-002
3.338317e+003;1.974391e-002
3.340245e+003;1.975157e-002
3.342174e+003;1.973979e-002
3.344102e+003;1.981663e-002
3.346031e+003;2.007814e-002
3.347959e+003;2.043127e-002
3.349888e+003;2.076119e-002
3.351816e+003;2.019503e-002
3.353745e+003;1.981295e-002
3.355674e+003;1.974891e-002
3.357602e+003;1.995184e-002
3.359531e+003;1.985024e-002
3.361459e+003;1.963976e-002
3.363388e+003;1.984622e-002
3.365316e+003;1.983845e-002
3.367245e+003;1.978733e-002
3.369173e+003;2.006561e-002
3.371102e+003;1.997598e-002
3.373031e+003;1.925932e-002
3.374959e+003;1.903268e-002
3.376887e+003;1.925922e-002
3.378816e+003;1.929319e-002
3.380745e+003;1.895823e-002
3.382673e+003;1.868802e-002
3.384602e+003;1.863545e-002
3.386530e+003;1.862189e-002
3.388459e+003;1.850853e-002
3.390387e+003;1.875133e-002
3.392316e+003;1.922340e-002
3.394244e+003;1.948507e-002
3.396173e+003;1.948129e-002
3.398102e+003;1.946241e-002
3.400030e+003;1.902683e-002
3.401959e+003;1.836613e-002
3.403887e+003;1.806369e-002
3.405816e+003;1.834885e-002
3.407744e+003;1.882191e-002
3.409673e+003;1.882046e-002
3.411601e+003;1.894282e-002
3.413530e+003;1.900267e-002
3.415458e+003;1.903559e-002
3.417387e+003;1.891725e-002
3.419316e+003;1.861355e-002
3.421244e+003;1.876596e-002
3.423173e+003;1.902451e-002
3.425101e+003;1.878004e-002
3.427030e+003;1.860522e-002
3.428958e+003;1.857050e-002
3.430887e+003;1.818674e-002
3.432815e+003;1.789571e-002
3.434744e+003;1.780678e-002
3.436673e+003;1.791898e-002
3.438601e+003;1.815990e-002
3.440530e+003;1.801744e-002
3.442458e+003;1.775203e-002
3.444387e+003;1.741421e-002
3.446315e+003;1.681571e-002
3.448244e+003;1.664133e-002
3.450172e+003;1.683906e-002
3.452101e+003;1.688732e-002
3.454030e+003;1.682370e-002
3.455958e+003;1.659444e-002
3.457886e+003;1.673175e-002
3.459815e+003;1.701370e-002
3.461744e+003;1.671043e-002
3.463672e+003;1.641289e-002
3.465601e+003;1.628239e-002
3.467529e+003;1.598091e-002
3.469458e+003;1.561706e-002
3.471386e+003;1.591939e-002
3.473315e+003;1.608784e-002
3.475243e+003;1.570403e-002
3.477172e+003;1.586677e-002
3.479101e+003;1.587787e-002
3.481029e+003;1.560816e-002
3.482958e+003;1.526346e-002
3.484886e+003;1.500179e-002
3.486815e+003;1.530791e-002
3.488743e+003;1.544312e-002
3.490672e+003;1.540773e-002
3.492600e+003;1.556623e-002
3.494529e+003;1.566401e-002
3.496458e+003;1.539451e-002
3.498386e+003;1.527002e-002
3.500315e+003;1.544357e-002
3.502243e+003;1.535565e-002
3.504172e+003;1.537642e-002
3.506100e+003;1.555373e-002
3.508029e+003;1.513729e-002
3.509957e+003;1.503808e-002
3.511886e+003;1.540766e-002
3.513814e+003;1.517558e-002
3.515743e+003;1.490171e-002
3.517672e+003;1.525509e-002
3.519600e+003;1.536379e-002
3.521529e+003;1.486825e-002
3.523457e+003;1.488807e-002
3.525386e+003;1.515427e-002
3.527314e+003;1.518405e-002
3.529243e+003;1.497328e-002
3.531171e+003;1.484774e-002
3.533100e+003;1.476084e-002
3.535029e+003;1.435975e-002
3.536957e+003;1.406042e-002
3.538885e+003;1.431440e-002
3.540814e+003;1.477013e-002
3.542743e+003;1.466576e-002
3.544671e+003;1.468245e-002
3.546600e+003;1.471213e-002
3.548528e+003;1.465842e-002
3.550457e+003;1.491900e-002
3.552385e+003;1.495946e-002
3.554314e+003;1.445945e-002
3.556242e+003;1.387681e-002
3.558171e+003;1.396525e-002
3.560100e+003;1.449076e-002
3.562028e+003;1.439889e-002
3.563957e+003;1.377621e-002
3.565885e+003;1.307007e-002
3.567814e+003;1.289825e-002
3.569742e+003;1.360917e-002
3.571671e+003;1.412333e-002
3.573599e+003;1.380942e-002
3.575528e+003;1.380809e-002
3.577457e+003;1.395920e-002
3.579385e+003;1.354199e-002
3.581314e+003;1.332782e-002
3.583242e+003;1.361368e-002
3.585171e+003;1.337719e-002
3.587099e+003;1.275379e-002
3.589028e+003;1.270960e-002
3.590956e+003;1.328979e-002
3.592885e+003;1.346604e-002
3.594813e+003;1.341071e-002
3.596742e+003;1.335823e-002
3.598671e+003;1.316258e-002
3.600599e+003;1.313782e-002
3.602528e+003;1.323021e-002
3.604456e+003;1.313796e-002
3.606385e+003;1.304825e-002
3.608313e+003;1.274154e-002
3.610242e+003;1.239003e-002
3.612170e+003;1.232652e-002
3.614099e+003;1.254781e-002
3.616028e+003;1.286381e-002
3.617956e+003;1.275054e-002
3.619885e+003;1.273379e-002
3.621813e+003;1.289606e-002
3.623742e+003;1.274850e-002
3.625670e+003;1.252977e-002
3.627599e+003;1.139794e-002
3.629527e+003;1.140430e-002
3.631456e+003;1.287565e-002
3.633385e+003;1.334097e-002
3.635313e+003;1.318065e-002
3.637241e+003;1.325201e-002
3.639170e+003;1.312836e-002
3.641099e+003;1.296703e-002
3.643027e+003;1.298325e-002
3.644956e+003;1.291347e-002
3.646884e+003;1.232185e-002
3.648813e+003;1.168454e-002
3.650741e+003;1.178272e-002
3.652670e+003;1.251616e-002
3.654598e+003;1.250252e-002
3.656527e+003;1.239487e-002
3.658456e+003;1.288398e-002
3.660384e+003;1.314517e-002
3.662313e+003;1.334661e-002
3.664241e+003;1.377060e-002
3.666170e+003;1.390630e-002
3.668098e+003;1.280016e-002
3.670027e+003;1.196946e-002
3.671955e+003;1.250129e-002
3.673884e+003;1.184938e-002
3.675813e+003;1.183498e-002
3.677741e+003;1.313652e-002
3.679669e+003;1.371390e-002
3.681598e+003;1.415051e-002
3.683527e+003;1.427906e-002
3.685455e+003;1.362954e-002
3.687384e+003;1.240278e-002
3.689312e+003;1.255572e-002
3.691241e+003;1.356462e-002
3.693169e+003;1.459280e-002
3.695098e+003;1.489643e-002
3.697026e+003;1.438334e-002
3.698955e+003;1.395731e-002
3.700884e+003;1.372683e-002
3.702812e+003;1.415540e-002
3.704741e+003;1.469544e-002
3.706669e+003;1.464266e-002
3.708598e+003;1.409287e-002
3.710526e+003;1.377611e-002
3.712455e+003;1.413736e-002
3.714383e+003;1.457183e-002
3.716312e+003;1.444760e-002
3.718240e+003;1.434040e-002
3.720169e+003;1.426513e-002
3.722098e+003;1.413230e-002
3.724026e+003;1.409372e-002
3.725955e+003;1.416290e-002
3.727883e+003;1.458570e-002
3.729812e+003;1.434800e-002
3.731740e+003;1.360291e-002
3.733669e+003;1.329201e-002
3.735597e+003;1.305785e-002
3.737526e+003;1.392946e-002
3.739455e+003;1.469372e-002
3.741383e+003;1.427434e-002
3.743312e+003;1.255340e-002
3.745240e+003;1.267968e-002
3.747169e+003;1.335337e-002
3.749097e+003;1.202876e-002
3.751026e+003;1.193595e-002
3.752954e+003;1.329932e-002
3.754883e+003;1.445990e-002
3.756812e+003;1.446836e-002
3.758740e+003;1.462628e-002
3.760668e+003;1.486091e-002
3.762597e+003;1.489990e-002
3.764526e+003;1.460116e-002
3.766454e+003;1.512058e-002
3.768383e+003;1.532249e-002
3.770311e+003;1.505090e-002
3.772240e+003;1.534628e-002
3.774168e+003;1.565759e-002
3.776097e+003;1.513067e-002
3.778025e+003;1.484802e-002
3.779954e+003;1.521198e-002
3.781883e+003;1.559126e-002
3.783811e+003;1.550277e-002
3.785740e+003;1.518055e-002
3.787668e+003;1.488875e-002
3.789597e+003;1.511022e-002
3.791525e+003;1.493004e-002
3.793454e+003;1.469653e-002
3.795382e+003;1.465695e-002
3.797311e+003;1.503458e-002
3.799240e+003;1.433683e-002
3.801168e+003;1.323079e-002
3.803097e+003;1.413490e-002
3.805025e+003;1.443496e-002
3.806954e+003;1.448299e-002
3.808882e+003;1.557396e-002
3.810811e+003;1.600364e-002
3.812739e+003;1.557914e-002
3.814668e+003;1.451745e-002
3.816596e+003;1.427441e-002
3.818525e+003;1.467086e-002
3.820454e+003;1.411323e-002
3.822382e+003;1.448998e-002
3.824311e+003;1.540622e-002
3.826239e+003;1.543715e-002
3.828168e+003;1.550812e-002
3.830096e+003;1.534034e-002
3.832025e+003;1.493566e-002
3.833953e+003;1.429742e-002
3.835882e+003;1.362777e-002
3.837811e+003;1.338030e-002
3.839739e+003;1.388153e-002
3.841667e+003;1.434379e-002
3.843596e+003;1.447870e-002
3.845525e+003;1.519785e-002
3.847453e+003;1.586044e-002
3.849382e+003;1.501280e-002
3.851310e+003;1.298929e-002
3.853239e+003;1.169482e-002
3.855167e+003;1.314616e-002
3.857096e+003;1.525224e-002
3.859024e+003;1.587371e-002
3.860953e+003;1.535558e-002
3.862882e+003;1.497099e-002
3.864810e+003;1.481894e-002
3.866739e+003;1.481476e-002
3.868667e+003;1.430341e-002
3.870596e+003;1.428893e-002
3.872524e+003;1.493590e-002
3.874453e+003;1.521006e-002
3.876381e+003;1.563688e-002
3.878310e+003;1.565917e-002
3.880239e+003;1.553951e-002
3.882167e+003;1.603887e-002
3.884096e+003;1.555390e-002
3.886024e+003;1.552491e-002
3.887953e+003;1.670709e-002
3.889881e+003;1.604860e-002
3.891810e+003;1.528398e-002
3.893738e+003;1.589783e-002
3.895667e+003;1.606765e-002
3.897595e+003;1.566704e-002
3.899524e+003;1.499884e-002
3.901453e+003;1.506277e-002
3.903381e+003;1.568143e-002
3.905310e+003;1.594107e-002
3.907238e+003;1.596651e-002
3.909167e+003;1.622313e-002
3.911095e+003;1.678079e-002
3.913024e+003;1.672211e-002
3.914952e+003;1.618261e-002
3.916881e+003;1.612714e-002
3.918810e+003;1.678837e-002
3.920738e+003;1.720863e-002
3.922667e+003;1.714762e-002
3.924595e+003;1.707552e-002
3.926524e+003;1.685701e-002
3.928452e+003;1.685512e-002
3.930381e+003;1.729693e-002
3.932309e+003;1.694916e-002
3.934238e+003;1.687964e-002
3.936167e+003;1.735648e-002
3.938095e+003;1.725942e-002
3.940023e+003;1.670840e-002
3.941952e+003;1.627307e-002
3.943881e+003;1.626155e-002
3.945809e+003;1.639717e-002
3.947738e+003;1.622395e-002
3.949666e+003;1.632433e-002
3.951595e+003;1.722735e-002
3.953523e+003;1.794834e-002
3.955452e+003;1.786978e-002
3.957380e+003;1.753812e-002
3.959309e+003;1.707248e-002
3.961238e+003;1.672063e-002
3.963166e+003;1.653241e-002
3.965095e+003;1.637518e-002
3.967023e+003;1.699275e-002
3.968952e+003;1.726400e-002
3.970880e+003;1.666071e-002
3.972809e+003;1.630007e-002
3.974737e+003;1.663097e-002
3.976666e+003;1.701263e-002
3.978594e+003;1.695088e-002
3.980523e+003;1.721080e-002
3.982452e+003;1.789133e-002
3.984380e+003;1.813167e-002
3.986309e+003;1.817959e-002
3.988237e+003;1.823674e-002
3.990166e+003;1.838359e-002
3.992094e+003;1.874437e-002
3.994023e+003;1.843479e-002
3.995951e+003;1.827378e-002
3.997880e+003;1.865028e-002
3.999809e+003;1.877613e-002
4.001737e+003;0.000000e+000
