3.992094e+002;0.000000e+000
4.011380e+002;0.000000e+000
4.030665e+002;0.000000e+000
4.049951e+002;0.000000e+000
4.069236e+002;0.000000e+000
4.088522e+002;0.000000e+000
4.107807e+002;0.000000e+000
4.127093e+002;0.000000e+000
4.146378e+002;0.000000e+000
4.165664e+002;0.000000e+000
4.184949e+002;0.000000e+000
4.204235e+002;0.000000e+000
4.223520e+002;0.000000e+000
4.242806e+002;0.000000e+000
4.262091e+002;0.000000e+000
4.281377e+002;0.000000e+000
4.300662e+002;0.000000e+000
4.319948e+002;0.000000e+000
4.339233e+002;0.000000e+000
4.358519e+002;0.000000e+000
4.377804e+002;0.000000e+000
4.397090e+002;0.000000e+000
4.416375e+002;0.000000e+000
4.435660e+002;0.000000e+000
4.454946e+002;0.000000e+000
4.474232e+002;0.000000e+000
4.493517e+002;0.000000e+000
4.512802e+002;0.000000e+000
4.532088e+002;0.000000e+000
4.551373e+002;0.000000e+000
4.570659e+002;0.000000e+000
4.589944e+002;0.000000e+000
4.609230e+002;0.000000e+000
4.628515e+002;0.000000e+000
4.647801e+002;0.000000e+000
4.667086e+002;0.000000e+000
4.686372e+002;0.000000e+000
4.705657e+002;0.000000e+000
4.724943e+002;0.000000e+000
4.744228e+002;0.000000e+000
4.763513e+002;0.000000e+000
4.782799e+002;0.000000e+000
4.802085e+002;0.000000e+000
4.821370e+002;0.000000e+000
4.840656e+002;0.000000e+000
4.859941e+002;0.000000e+000
4.879226e+002;0.000000e+000
4.898512e+002;0.000000e+000
4.917798e+002;0.000000e+000
4.937083e+002;0.000000e+000
4.956368e+002;0.000000e+000
4.975654e+002;0.000000e+000
4.994939e+002;0.000000e+000
5.014225e+002;0.000000e+000
5.033510e+002;0.000000e+000
5.052796e+002;0.000000e+000
5.072081e+002;0.000000e+000
5.091367e+002;0.000000e+000
5.110652e+002;0.000000e+000
5.129938e+002;0.000000e+000
5.149223e+002;0.000000e+000
5.168509e+002;0.000000e+000
5.187794e+002;0.000000e+000
5.207079e+002;0.000000e+000
5.226365e+002;0.000000e+000
5.245651e+002;0.000000e+000
5.264936e+002;0.000000e+000
5.284222e+002;0.000000e+000
5.303507e+002;0.000000e+000
5.322792e+002;0.000000e+000
5.342078e+002;0.000000e+000
5.361364e+002;0.000000e+000
5.380649e+002;0.000000e+000
5.399935e+002;0.000000e+000
5.419220e+002;0.000000e+000
5.438505e+002;0.000000e+000
5.457791e+002;0.000000e+000
5.477076e+002;0.000000e+000
5.496362e+002;0.000000e+000
5.515648e+002;0.000000e+000
5.534933e+002;0.000000e+000
5.554218e+002;0.000000e+000
5.573504e+002;0.000000e+000
5.592789e+002;0.000000e+000
5.612075e+002;0.000000e+000
5.631360e+002;0.000000e+000
5.650646e+002;0.000000e+000
5.669931e+002;0.000000e+000
5.689217e+002;0.000000e+000
5.708502e+002;0.000000e+000
5.727787e+002;0.000000e+000
5.747073e+002;0.000000e+000
5.766359e+002;0.000000e+000
5.785644e+002;0.000000e+000
5.804930e+002;0.000000e+000
5.824215e+002;0.000000e+000
5.843500e+002;0.000000e+000
5.862786e+002;0.000000e+000
5.882072e+002;0.000000e+000
5.901357e+002;0.000000e+000
5.920643e+002;0.000000e+000
5.939928e+002;0.000000e+000
5.959213e+002;0.000000e+000
5.978499e+002;0.000000e+000
5.997784e+002;4.118390e-002
6.017070e+002;4.257590e-002
6.036355e+002;4.655037e-002
6.055641e+002;4.299851e-002
6.074926e+002;3.774827e-002
6.094211e+002;3.368396e-002
6.113497e+002;3.323662e-002
6.132783e+002;3.550814e-002
6.152068e+002;3.999660e-002
6.171354e+002;4.500173e-002
6.190639e+002;4.728382e-002
6.209924e+002;4.483863e-002
6.229210e+002;4.222051e-002
6.248495e+002;4.070221e-002
6.267781e+002;4.024198e-002
6.287067e+002;4.054128e-002
6.306352e+002;4.173628e-002
6.325637e+002;4.480777e-002
6.344923e+002;4.362676e-002
6.364208e+002;3.891182e-002
6.383494e+002;3.831558e-002
6.402780e+002;4.030734e-002
6.422065e+002;3.804934e-002
6.441350e+002;3.540222e-002
6.460636e+002;3.748032e-002
6.479921e+002;3.997847e-002
6.499207e+002;4.193983e-002
6.518492e+002;4.266000e-002
6.537778e+002;4.143731e-002
6.557063e+002;4.175714e-002
6.576349e+002;4.054743e-002
6.595634e+002;4.243306e-002
6.614919e+002;4.683956e-002
6.634205e+002;4.698581e-002
6.653491e+002;4.437730e-002
6.672776e+002;4.308036e-002
6.692062e+002;4.156538e-002
6.711347e+002;4.199888e-002
6.730632e+002;4.428006e-002
6.749918e+002;4.427804e-002
6.769203e+002;4.457419e-002
6.788489e+002;4.436368e-002
6.807775e+002;4.424751e-002
6.827060e+002;4.344842e-002
6.846345e+002;4.268552e-002
6.865631e+002;4.247252e-002
6.884916e+002;4.228633e-002
6.904202e+002;4.187703e-002
6.923488e+002;4.158088e-002
6.942773e+002;4.182690e-002
6.962058e+002;4.290224e-002
6.981344e+002;4.367633e-002
7.000629e+002;4.405186e-002
7.019915e+002;4.400302e-002
7.039200e+002;4.336724e-002
7.058486e+002;4.269590e-002
7.077771e+002;4.321546e-002
7.097057e+002;4.336852e-002
7.116342e+002;4.318033e-002
7.135627e+002;4.459468e-002
7.154913e+002;4.610926e-002
7.174199e+002;4.554832e-002
7.193484e+002;4.494040e-002
7.212770e+002;4.544658e-002
7.232055e+002;4.600610e-002
7.251340e+002;4.577001e-002
7.270626e+002;4.557316e-002
7.289911e+002;4.582299e-002
7.309197e+002;4.574998e-002
7.328483e+002;4.528743e-002
7.347768e+002;4.482136e-002
7.367053e+002;4.517579e-002
7.386339e+002;4.563823e-002
7.405624e+002;4.514961e-002
7.424910e+002;4.486331e-002
7.444196e+002;4.427936e-002
7.463481e+002;4.410592e-002
7.482766e+002;4.420045e-002
7.502052e+002;4.472670e-002
7.521337e+002;4.551550e-002
7.540623e+002;4.604081e-002
7.559908e+002;4.636287e-002
7.579194e+002;4.554530e-002
7.598479e+002;4.384281e-002
7.617765e+002;4.350214e-002
7.637050e+002;4.385106e-002
7.656335e+002;4.495275e-002
7.675621e+002;4.624137e-002
7.694907e+002;4.651681e-002
7.714192e+002;4.612871e-002
7.733478e+002;4.597914e-002
7.752763e+002;4.506290e-002
7.772048e+002;4.465053e-002
7.791334e+002;4.509726e-002
7.810620e+002;4.529570e-002
7.829905e+002;4.629128e-002
7.849191e+002;4.709607e-002
7.868476e+002;4.724211e-002
7.887761e+002;4.748721e-002
7.907047e+002;4.843693e-002
7.926332e+002;4.979224e-002
7.945618e+002;5.159235e-002
7.964903e+002;5.346846e-002
7.984189e+002;5.481549e-002
8.003474e+002;5.599057e-002
8.022759e+002;5.758851e-002
8.042045e+002;5.982659e-002
8.061331e+002;6.246207e-002
8.080616e+002;6.477045e-002
8.099902e+002;6.537393e-002
8.119187e+002;6.381883e-002
8.138472e+002;6.110751e-002
8.157758e+002;5.894695e-002
8.177043e+002;5.714069e-002
8.196329e+002;5.569836e-002
8.215615e+002;5.523552e-002
8.234900e+002;5.453207e-002
8.254185e+002;5.375561e-002
8.273471e+002;5.340408e-002
8.292756e+002;5.323749e-002
8.312042e+002;5.299346e-002
8.331328e+002;5.359132e-002
8.350613e+002;5.521651e-002
8.369898e+002;5.837594e-002
8.389184e+002;6.332859e-002
8.408469e+002;6.761269e-002
8.427755e+002;6.722779e-002
8.447040e+002;6.324559e-002
8.466326e+002;5.861285e-002
8.485611e+002;5.594926e-002
8.504897e+002;5.432035e-002
8.524182e+002;5.315083e-002
8.543467e+002;5.216998e-002
8.562753e+002;5.067400e-002
8.582039e+002;4.976552e-002
8.601324e+002;4.955516e-002
8.620610e+002;4.935113e-002
8.639895e+002;4.927927e-002
8.659180e+002;4.943057e-002
8.678466e+002;4.940648e-002
8.697751e+002;4.953339e-002
8.717037e+002;4.974364e-002
8.736323e+002;4.966975e-002
8.755608e+002;4.921190e-002
8.774893e+002;4.919105e-002
8.794179e+002;4.887119e-002
8.813464e+002;4.819992e-002
8.832750e+002;4.832974e-002
8.852036e+002;4.839597e-002
8.871321e+002;4.807491e-002
8.890606e+002;4.871374e-002
8.909892e+002;5.030467e-002
8.929177e+002;5.278253e-002
8.948463e+002;5.626364e-002
8.967748e+002;6.017766e-002
8.987034e+002;6.252994e-002
9.006319e+002;6.236417e-002
9.025605e+002;5.919754e-002
9.044890e+002;5.401343e-002
9.064175e+002;4.906690e-002
9.083461e+002;4.614330e-002
9.102747e+002;4.475759e-002
9.122032e+002;4.331858e-002
9.141318e+002;4.247040e-002
9.160603e+002;4.234225e-002
9.179888e+002;4.196085e-002
9.199174e+002;4.142091e-002
9.218459e+002;4.118201e-002
9.237745e+002;4.106651e-002
9.257031e+002;4.132568e-002
9.276316e+002;4.202939e-002
9.295601e+002;4.248662e-002
9.314887e+002;4.264852e-002
9.334172e+002;4.308581e-002
9.353458e+002;4.403213e-002
9.372744e+002;4.531037e-002
9.392029e+002;4.675667e-002
9.411314e+002;4.770084e-002
9.430600e+002;4.829948e-002
9.449885e+002;4.866444e-002
9.469171e+002;4.853837e-002
9.488456e+002;4.834126e-002
9.507742e+002;4.884968e-002
9.527027e+002;5.019918e-002
9.546313e+002;5.096698e-002
9.565598e+002;5.173626e-002
9.584883e+002;5.297882e-002
9.604169e+002;5.438701e-002
9.623455e+002;5.640438e-002
9.642740e+002;5.958583e-002
9.662026e+002;6.429422e-002
9.681311e+002;7.081795e-002
9.700596e+002;7.822195e-002
9.719882e+002;8.423108e-002
9.739167e+002;8.628216e-002
9.758453e+002;8.269688e-002
9.777739e+002;7.446568e-002
9.797024e+002;6.540459e-002
9.816309e+002;5.750192e-002
9.835595e+002;5.196296e-002
9.854880e+002;4.941483e-002
9.874166e+002;4.930339e-002
9.893452e+002;5.087541e-002
9.912737e+002;5.385444e-002
9.932022e+002;5.868259e-002
9.951307e+002;6.467695e-002
9.970593e+002;6.945007e-002
9.989879e+002;6.985624e-002
1.000916e+003;6.591816e-002
1.002845e+003;6.018675e-002
1.004773e+003;5.503519e-002
1.006702e+003;5.168546e-002
1.008631e+003;4.988738e-002
1.010559e+003;4.899865e-002
1.012488e+003;4.805070e-002
1.014416e+003;4.685532e-002
1.016345e+003;4.591130e-002
1.018273e+003;4.575775e-002
1.020202e+003;4.636788e-002
1.022130e+003;4.667532e-002
1.024059e+003;4.614515e-002
1.025988e+003;4.611250e-002
1.027916e+003;4.690500e-002
1.029845e+003;4.746755e-002
1.031773e+003;4.794139e-002
1.033702e+003;4.893861e-002
1.035630e+003;5.047216e-002
1.037559e+003;5.193335e-002
1.039487e+003;5.296621e-002
1.041416e+003;5.264071e-002
1.043344e+003;5.196102e-002
1.045273e+003;5.161426e-002
1.047202e+003;5.130599e-002
1.049130e+003;5.001057e-002
1.051059e+003;4.919476e-002
1.052987e+003;4.884138e-002
1.054916e+003;4.915369e-002
1.056844e+003;4.933260e-002
1.058773e+003;4.864650e-002
1.060701e+003;4.790816e-002
1.062630e+003;4.768327e-002
1.064558e+003;4.787834e-002
1.066487e+003;4.785145e-002
1.068416e+003;4.734578e-002
1.070344e+003;4.714925e-002
1.072273e+003;4.789910e-002
1.074201e+003;4.822562e-002
1.076130e+003;4.762559e-002
1.078058e+003;4.734537e-002
1.079987e+003;4.748755e-002
1.081915e+003;4.786092e-002
1.083844e+003;4.812714e-002
1.085773e+003;4.812158e-002
1.087701e+003;4.886166e-002
1.089630e+003;4.983516e-002
1.091558e+003;5.049121e-002
1.093487e+003;5.084766e-002
1.095415e+003;5.149662e-002
1.097344e+003;5.323314e-002
1.099272e+003;5.496938e-002
1.101201e+003;5.552320e-002
1.103129e+003;5.581123e-002
1.105058e+003;5.604648e-002
1.106987e+003;5.499477e-002
1.108915e+003;5.356827e-002
1.110844e+003;5.209328e-002
1.112772e+003;5.053324e-002
1.114701e+003;4.959913e-002
1.116629e+003;4.887338e-002
1.118558e+003;4.776841e-002
1.120486e+003;4.738713e-002
1.122415e+003;4.728837e-002
1.124344e+003;4.729712e-002
1.126272e+003;4.710264e-002
1.128201e+003;4.669184e-002
1.130129e+003;4.700800e-002
1.132058e+003;4.784805e-002
1.133986e+003;4.874698e-002
1.135915e+003;4.992856e-002
1.137843e+003;5.170920e-002
1.139772e+003;5.459605e-002
1.141700e+003;5.789202e-002
1.143629e+003;6.121374e-002
1.145557e+003;6.469241e-002
1.147486e+003;6.831858e-002
1.149415e+003;7.166877e-002
1.151343e+003;7.451756e-002
1.153272e+003;7.610824e-002
1.155200e+003;7.677416e-002
1.157129e+003;7.675941e-002
1.159057e+003;7.712435e-002
1.160986e+003;7.746688e-002
1.162914e+003;7.740628e-002
1.164843e+003;7.759933e-002
1.166771e+003;7.715855e-002
1.168700e+003;7.563793e-002
1.170629e+003;7.232720e-002
1.172557e+003;6.813911e-002
1.174486e+003;6.364428e-002
1.176414e+003;5.905657e-002
1.178343e+003;5.546401e-002
1.180271e+003;5.317266e-002
1.182200e+003;5.179774e-002
1.184128e+003;5.120074e-002
1.186057e+003;5.067657e-002
1.187986e+003;5.032659e-002
1.189914e+003;5.041983e-002
1.191843e+003;5.073734e-002
1.193771e+003;5.117013e-002
1.195700e+003;5.154262e-002
1.197628e+003;5.163829e-002
1.199557e+003;5.172570e-002
1.201485e+003;5.144205e-002
1.203414e+003;5.132949e-002
1.205343e+003;5.157519e-002
1.207271e+003;5.229744e-002
1.209200e+003;5.333690e-002
1.211128e+003;5.443786e-002
1.213057e+003;5.547064e-002
1.214985e+003;5.632150e-002
1.216914e+003;5.661462e-002
1.218842e+003;5.627046e-002
1.220771e+003;5.545005e-002
1.222699e+003;5.458166e-002
1.224628e+003;5.411257e-002
1.226557e+003;5.393505e-002
1.228485e+003;5.389814e-002
1.230414e+003;5.387623e-002
1.232342e+003;5.393250e-002
1.234271e+003;5.418862e-002
1.236199e+003;5.425746e-002
1.238128e+003;5.444657e-002
1.240056e+003;5.462731e-002
1.241985e+003;5.444518e-002
1.243913e+003;5.471942e-002
1.245842e+003;5.563682e-002
1.247771e+003;5.634538e-002
1.249699e+003;5.715853e-002
1.251628e+003;5.948003e-002
1.253556e+003;6.237492e-002
1.255485e+003;6.416208e-002
1.257413e+003;6.443221e-002
1.259342e+003;6.329224e-002
1.261270e+003;6.110118e-002
1.263199e+003;5.860015e-002
1.265127e+003;5.697624e-002
1.267056e+003;5.595104e-002
1.268985e+003;5.514857e-002
1.270913e+003;5.447678e-002
1.272842e+003;5.410908e-002
1.274770e+003;5.384911e-002
1.276699e+003;5.368786e-002
1.278627e+003;5.365554e-002
1.280556e+003;5.395572e-002
1.282484e+003;5.444173e-002
1.284413e+003;5.507149e-002
1.286342e+003;5.601523e-002
1.288270e+003;5.690065e-002
1.290199e+003;5.772620e-002
1.292127e+003;5.846358e-002
1.294056e+003;5.913018e-002
1.295984e+003;5.953935e-002
1.297913e+003;5.952236e-002
1.299841e+003;5.938900e-002
1.301770e+003;5.974910e-002
1.303698e+003;5.999064e-002
1.305627e+003;5.882496e-002
1.307556e+003;5.661168e-002
1.309484e+003;5.446915e-002
1.311413e+003;5.341578e-002
1.313341e+003;5.324397e-002
1.315270e+003;5.374103e-002
1.317198e+003;5.456922e-002
1.319127e+003;5.546996e-002
1.321055e+003;5.648471e-002
1.322984e+003;5.768745e-002
1.324912e+003;5.937867e-002
1.326841e+003;6.109748e-002
1.328770e+003;6.231892e-002
1.330698e+003;6.247136e-002
1.332627e+003;6.191584e-002
1.334555e+003;6.124285e-002
1.336484e+003;6.071313e-002
1.338412e+003;6.058542e-002
1.340341e+003;6.110209e-002
1.342269e+003;6.232095e-002
1.344198e+003;6.415862e-002
1.346126e+003;6.621363e-002
1.348055e+003;6.893137e-002
1.349984e+003;7.251968e-002
1.351912e+003;7.693844e-002
1.353841e+003;8.324277e-002
1.355769e+003;9.033697e-002
1.357698e+003;9.563647e-002
1.359626e+003;9.781165e-002
1.361555e+003;9.731912e-002
1.363483e+003;9.691892e-002
1.365412e+003;9.934805e-002
1.367341e+003;1.069944e-001
1.369269e+003;1.217137e-001
1.371198e+003;1.439552e-001
1.373126e+003;1.701717e-001
1.375055e+003;1.905951e-001
1.376983e+003;1.928956e-001
1.378912e+003;1.743445e-001
1.380840e+003;1.465551e-001
1.382769e+003;1.203777e-001
1.384698e+003;9.945715e-002
1.386626e+003;8.419959e-002
1.388555e+003;7.394230e-002
1.390483e+003;6.758021e-002
1.392412e+003;6.339875e-002
1.394340e+003;6.054192e-002
1.396269e+003;5.899815e-002
1.398197e+003;5.834187e-002
1.400126e+003;5.795378e-002
1.402054e+003;5.762547e-002
1.403983e+003;5.777952e-002
1.405911e+003;5.812776e-002
1.407840e+003;5.817670e-002
1.409769e+003;5.821792e-002
1.411697e+003;5.876100e-002
1.413626e+003;5.945085e-002
1.415554e+003;5.981743e-002
1.417483e+003;5.995526e-002
1.419411e+003;6.061250e-002
1.421340e+003;6.197029e-002
1.423268e+003;6.378371e-002
1.425197e+003;6.635045e-002
1.427125e+003;7.026447e-002
1.429054e+003;7.639192e-002
1.430983e+003;8.489104e-002
1.432911e+003;9.474266e-002
1.434840e+003;1.022052e-001
1.436768e+003;1.052369e-001
1.438697e+003;1.069814e-001
1.440625e+003;1.097634e-001
1.442554e+003;1.148220e-001
1.444482e+003;1.227517e-001
1.446411e+003;1.324436e-001
1.448340e+003;1.425428e-001
1.450268e+003;1.511034e-001
1.452197e+003;1.566445e-001
1.454125e+003;1.594511e-001
1.456054e+003;1.598124e-001
1.457982e+003;1.584104e-001
1.459911e+003;1.560884e-001
1.461839e+003;1.512397e-001
1.463768e+003;1.436006e-001
1.465697e+003;1.341729e-001
1.467625e+003;1.239201e-001
1.469554e+003;1.133966e-001
1.471482e+003;1.035021e-001
1.473411e+003;9.447286e-002
1.475339e+003;8.646974e-002
1.477268e+003;7.969103e-002
1.479196e+003;7.397510e-002
1.481125e+003;6.910786e-002
1.483053e+003;6.491332e-002
1.484982e+003;6.112750e-002
1.486911e+003;5.769460e-002
1.488839e+003;5.506348e-002
1.490768e+003;5.320385e-002
1.492696e+003;5.184542e-002
1.494625e+003;5.054280e-002
1.496553e+003;4.918893e-002
1.498482e+003;4.816382e-002
1.500410e+003;4.728511e-002
1.502339e+003;4.628394e-002
1.504267e+003;4.514149e-002
1.506196e+003;4.403580e-002
1.508125e+003;4.338137e-002
1.510053e+003;4.313506e-002
1.511982e+003;4.281253e-002
1.513910e+003;4.226974e-002
1.515839e+003;4.170404e-002
1.517767e+003;4.136259e-002
1.519696e+003;4.087709e-002
1.521624e+003;4.062470e-002
1.523553e+003;4.068652e-002
1.525481e+003;4.066211e-002
1.527410e+003;4.103974e-002
1.529339e+003;4.116216e-002
1.531267e+003;4.101447e-002
1.533196e+003;4.126442e-002
1.535124e+003;4.180694e-002
1.537053e+003;4.209842e-002
1.538981e+003;4.209273e-002
1.540910e+003;4.271370e-002
1.542838e+003;4.374910e-002
1.544767e+003;4.450569e-002
1.546695e+003;4.505404e-002
1.548624e+003;4.515016e-002
1.550553e+003;4.471278e-002
1.552481e+003;4.427074e-002
1.554410e+003;4.376050e-002
1.556338e+003;4.303414e-002
1.558267e+003;4.191677e-002
1.560195e+003;4.157505e-002
1.562124e+003;4.155941e-002
1.564052e+003;4.095995e-002
1.565981e+003;4.079741e-002
1.567910e+003;4.077932e-002
1.569838e+003;4.046515e-002
1.571767e+003;4.046079e-002
1.573695e+003;4.033526e-002
1.575624e+003;4.003842e-002
1.577552e+003;4.006578e-002
1.579481e+003;4.026084e-002
1.581409e+003;4.025059e-002
1.583338e+003;4.021838e-002
1.585266e+003;3.989394e-002
1.587195e+003;3.934278e-002
1.589124e+003;3.905992e-002
1.591052e+003;3.883428e-002
1.592981e+003;3.883366e-002
1.594909e+003;3.896956e-002
1.596838e+003;3.900852e-002
1.598766e+003;3.911793e-002
1.600695e+003;3.941465e-002
1.602623e+003;3.986583e-002
1.604552e+003;4.028538e-002
1.606480e+003;4.064544e-002
1.608409e+003;4.107102e-002
1.610338e+003;4.122208e-002
1.612266e+003;4.121502e-002
1.614195e+003;4.148689e-002
1.616123e+003;4.200034e-002
1.618052e+003;4.261939e-002
1.619980e+003;4.299460e-002
1.621909e+003;4.314593e-002
1.623837e+003;4.326700e-002
1.625766e+003;4.348379e-002
1.627694e+003;4.383768e-002
1.629623e+003;4.421233e-002
1.631552e+003;4.453087e-002
1.633480e+003;4.439913e-002
1.635409e+003;4.425621e-002
1.637337e+003;4.491549e-002
1.639266e+003;4.546671e-002
1.641194e+003;4.575068e-002
1.643123e+003;4.601108e-002
1.645051e+003;4.605068e-002
1.646980e+003;4.615049e-002
1.648909e+003;4.669579e-002
1.650837e+003;4.652743e-002
1.652766e+003;4.593759e-002
1.654694e+003;4.642577e-002
1.656623e+003;4.705663e-002
1.658551e+003;4.715025e-002
1.660480e+003;4.699039e-002
1.662408e+003;4.694908e-002
1.664337e+003;4.686037e-002
1.666266e+003;4.623779e-002
1.668194e+003;4.558368e-002
1.670123e+003;4.536779e-002
1.672051e+003;4.542061e-002
1.673980e+003;4.508425e-002
1.675908e+003;4.476468e-002
1.677837e+003;4.458091e-002
1.679765e+003;4.409407e-002
1.681694e+003;4.334736e-002
1.683622e+003;4.264458e-002
1.685551e+003;4.261036e-002
1.687479e+003;4.297686e-002
1.689408e+003;4.293988e-002
1.691337e+003;4.274565e-002
1.693265e+003;4.253431e-002
1.695194e+003;4.201180e-002
1.697122e+003;4.212098e-002
1.699051e+003;4.222691e-002
1.700979e+003;4.227785e-002
1.702908e+003;4.278792e-002
1.704836e+003;4.301307e-002
1.706765e+003;4.302350e-002
1.708693e+003;4.325196e-002
1.710622e+003;4.350284e-002
1.712551e+003;4.308332e-002
1.714479e+003;4.239715e-002
1.716408e+003;4.181891e-002
1.718336e+003;4.183791e-002
1.720265e+003;4.213215e-002
1.722193e+003;4.189341e-002
1.724122e+003;4.160535e-002
1.726050e+003;4.153702e-002
1.727979e+003;4.134754e-002
1.729908e+003;4.104163e-002
1.731836e+003;4.088022e-002
1.733765e+003;4.098996e-002
1.735693e+003;4.141617e-002
1.737622e+003;4.152816e-002
1.739550e+003;4.129918e-002
1.741479e+003;4.075585e-002
1.743407e+003;3.966180e-002
1.745336e+003;3.820818e-002
1.747265e+003;3.661807e-002
1.749193e+003;3.514560e-002
1.751122e+003;3.382925e-002
1.753050e+003;3.270105e-002
1.754979e+003;3.168913e-002
1.756907e+003;3.063843e-002
1.758836e+003;2.969824e-002
1.760764e+003;2.865850e-002
1.762693e+003;2.768780e-002
1.764621e+003;2.683746e-002
1.766550e+003;2.613160e-002
1.768479e+003;2.597697e-002
1.770407e+003;2.566334e-002
1.772336e+003;2.508012e-002
1.774264e+003;2.494458e-002
1.776193e+003;2.483296e-002
1.778121e+003;2.443817e-002
1.780050e+003;2.403602e-002
1.781978e+003;2.380741e-002
1.783907e+003;2.346012e-002
1.785835e+003;2.299883e-002
1.787764e+003;2.270142e-002
1.789693e+003;2.236276e-002
1.791621e+003;2.151756e-002
1.793550e+003;2.119485e-002
1.795478e+003;2.130849e-002
1.797407e+003;2.112715e-002
1.799335e+003;2.076456e-002
1.801264e+003;2.036615e-002
1.803192e+003;1.993564e-002
1.805121e+003;1.959043e-002
1.807049e+003;1.956326e-002
1.808978e+003;1.956766e-002
1.810907e+003;1.946376e-002
1.812835e+003;1.935302e-002
1.814764e+003;1.923210e-002
1.816692e+003;1.913042e-002
1.818621e+003;1.917925e-002
1.820549e+003;1.893794e-002
1.822478e+003;1.883651e-002
1.824406e+003;1.902303e-002
1.826335e+003;1.901004e-002
1.828264e+003;1.880890e-002
1.830192e+003;1.885156e-002
1.832121e+003;1.901361e-002
1.834049e+003;1.895289e-002
1.835978e+003;1.907873e-002
1.837906e+003;1.917509e-002
1.839835e+003;1.876907e-002
1.841763e+003;1.832721e-002
1.843692e+003;1.804283e-002
1.845620e+003;1.807381e-002
1.847549e+003;1.820910e-002
1.849478e+003;1.817607e-002
1.851406e+003;1.804179e-002
1.853335e+003;1.794543e-002
1.855263e+003;1.783481e-002
1.857192e+003;1.789357e-002
1.859120e+003;1.789136e-002
1.861049e+003;1.780253e-002
1.862977e+003;1.761188e-002
1.864906e+003;1.742659e-002
1.866834e+003;1.736045e-002
1.868763e+003;1.731603e-002
1.870692e+003;1.717640e-002
1.872620e+003;1.702159e-002
1.874549e+003;1.714507e-002
1.876477e+003;1.724776e-002
1.878406e+003;1.722728e-002
1.880334e+003;1.726072e-002
1.882263e+003;1.719726e-002
1.884191e+003;1.711970e-002
1.886120e+003;1.716751e-002
1.888048e+003;1.725121e-002
1.889977e+003;1.751593e-002
1.891906e+003;1.770040e-002
1.893834e+003;1.754605e-002
1.895763e+003;1.735638e-002
1.897691e+003;1.715737e-002
1.899620e+003;1.720884e-002
1.901548e+003;1.747133e-002
1.903477e+003;1.739462e-002
1.905405e+003;1.692460e-002
1.907334e+003;1.663169e-002
1.909262e+003;1.662026e-002
1.911191e+003;1.662804e-002
1.913120e+003;1.664422e-002
1.915048e+003;1.647308e-002
1.916977e+003;1.644400e-002
1.918905e+003;1.677817e-002
1.920834e+003;1.671405e-002
1.922762e+003;1.657282e-002
1.924691e+003;1.649676e-002
1.926619e+003;1.636637e-002
1.928548e+003;1.638278e-002
1.930477e+003;1.629533e-002
1.932405e+003;1.605665e-002
1.934334e+003;1.595988e-002
1.936262e+003;1.587398e-002
1.938191e+003;1.566044e-002
1.940119e+003;1.549662e-002
1.942048e+003;1.555276e-002
1.943976e+003;1.568304e-002
1.945905e+003;1.557203e-002
1.947833e+003;1.559357e-002
1.949762e+003;1.566082e-002
1.951691e+003;1.589436e-002
1.953619e+003;1.579962e-002
1.955548e+003;1.548683e-002
1.957476e+003;1.548433e-002
1.959405e+003;1.560559e-002
1.961333e+003;1.561400e-002
1.963262e+003;1.534786e-002
1.965190e+003;1.526768e-002
1.967119e+003;1.511701e-002
1.969047e+003;1.500734e-002
1.970976e+003;1.505420e-002
1.972905e+003;1.524006e-002
1.974833e+003;1.536698e-002
1.976762e+003;1.535768e-002
1.978690e+003;1.543200e-002
1.980619e+003;1.533856e-002
1.982547e+003;1.518556e-002
1.984476e+003;1.512161e-002
1.986404e+003;1.524328e-002
1.988333e+003;1.535850e-002
1.990261e+003;1.533365e-002
1.992190e+003;1.518227e-002
1.994119e+003;1.499904e-002
1.996047e+003;1.483232e-002
1.997976e+003;1.490062e-002
1.999904e+003;1.526603e-002
2.001833e+003;1.523892e-002
2.003761e+003;1.507677e-002
2.005690e+003;1.503434e-002
2.007618e+003;1.503499e-002
2.009547e+003;1.502055e-002
2.011476e+003;1.515300e-002
2.013404e+003;1.523062e-002
2.015333e+003;1.537948e-002
2.017261e+003;1.533389e-002
2.019190e+003;1.515125e-002
2.021118e+003;1.516738e-002
2.023047e+003;1.513718e-002
2.024975e+003;1.513101e-002
2.026904e+003;1.517297e-002
2.028833e+003;1.488738e-002
2.030761e+003;1.465434e-002
2.032690e+003;1.495243e-002
2.034618e+003;1.512727e-002
2.036547e+003;1.508644e-002
2.038475e+003;1.510294e-002
2.040404e+003;1.509962e-002
2.042332e+003;1.500326e-002
2.044261e+003;1.493731e-002
2.046189e+003;1.507378e-002
2.048118e+003;1.504977e-002
2.050047e+003;1.498282e-002
2.051975e+003;1.507156e-002
2.053904e+003;1.491437e-002
2.055832e+003;1.472652e-002
2.057761e+003;1.465040e-002
2.059689e+003;1.454099e-002
2.061618e+003;1.457871e-002
2.063546e+003;1.472464e-002
2.065475e+003;1.479498e-002
2.067404e+003;1.485909e-002
2.069332e+003;1.484874e-002
2.071260e+003;1.482371e-002
2.073189e+003;1.491008e-002
2.075118e+003;1.500059e-002
2.077046e+003;1.491502e-002
2.078975e+003;1.493268e-002
2.080903e+003;1.500916e-002
2.082832e+003;1.499136e-002
2.084760e+003;1.497620e-002
2.086689e+003;1.519304e-002
2.088617e+003;1.518361e-002
2.090546e+003;1.512761e-002
2.092475e+003;1.508617e-002
2.094403e+003;1.509149e-002
2.096332e+003;1.516244e-002
2.098260e+003;1.522382e-002
2.100189e+003;1.528289e-002
2.102117e+003;1.545871e-002
2.104046e+003;1.548604e-002
2.105974e+003;1.546901e-002
2.107903e+003;1.545088e-002
2.109832e+003;1.534371e-002
2.111760e+003;1.549968e-002
2.113688e+003;1.565103e-002
2.115617e+003;1.555483e-002
2.117546e+003;1.538967e-002
2.119474e+003;1.543554e-002
2.121403e+003;1.570929e-002
2.123331e+003;1.605999e-002
2.125260e+003;1.619802e-002
2.127188e+003;1.626925e-002
2.129117e+003;1.666130e-002
2.131045e+003;1.695137e-002
2.132974e+003;1.687272e-002
2.134903e+003;1.679846e-002
2.136831e+003;1.693528e-002
2.138760e+003;1.676353e-002
2.140688e+003;1.628611e-002
2.142617e+003;1.611782e-002
2.144545e+003;1.624775e-002
2.146474e+003;1.651345e-002
2.148402e+003;1.649411e-002
2.150331e+003;1.643003e-002
2.152260e+003;1.645298e-002
2.154188e+003;1.648258e-002
2.156117e+003;1.638402e-002
2.158045e+003;1.621965e-002
2.159974e+003;1.645260e-002
2.161902e+003;1.680376e-002
2.163831e+003;1.689869e-002
2.165759e+003;1.687506e-002
2.167688e+003;1.704836e-002
2.169616e+003;1.721225e-002
2.171545e+003;1.746150e-002
2.173474e+003;1.761219e-002
2.175402e+003;1.751221e-002
2.177331e+003;1.757783e-002
2.179259e+003;1.766126e-002
2.181188e+003;1.767034e-002
2.183116e+003;1.781696e-002
2.185045e+003;1.775655e-002
2.186973e+003;1.748678e-002
2.188902e+003;1.742397e-002
2.190831e+003;1.763624e-002
2.192759e+003;1.791550e-002
2.194688e+003;1.777150e-002
2.196616e+003;1.750921e-002
2.198545e+003;1.766996e-002
2.200473e+003;1.765074e-002
2.202402e+003;1.724583e-002
2.204330e+003;1.704319e-002
2.206259e+003;1.677101e-002
2.208188e+003;1.659875e-002
2.210116e+003;1.691233e-002
2.212044e+003;1.727314e-002
2.213973e+003;1.718540e-002
2.215902e+003;1.700036e-002
2.217830e+003;1.707579e-002
2.219759e+003;1.725904e-002
2.221687e+003;1.733255e-002
2.223616e+003;1.729872e-002
2.225544e+003;1.750348e-002
2.227473e+003;1.748264e-002
2.229401e+003;1.757103e-002
2.231330e+003;1.752576e-002
2.233259e+003;1.733151e-002
2.235187e+003;1.740800e-002
2.237116e+003;1.733606e-002
2.239044e+003;1.723332e-002
2.240973e+003;1.732624e-002
2.242901e+003;1.732831e-002
2.244830e+003;1.708475e-002
2.246758e+003;1.707734e-002
2.248687e+003;1.743929e-002
2.250615e+003;1.781996e-002
2.252544e+003;1.814539e-002
2.254473e+003;1.834266e-002
2.256401e+003;1.835853e-002
2.258330e+003;1.826286e-002
2.260258e+003;1.790973e-002
2.262187e+003;1.764511e-002
2.264115e+003;1.784941e-002
2.266044e+003;1.808773e-002
2.267972e+003;1.792216e-002
2.269901e+003;1.739124e-002
2.271830e+003;1.702472e-002
2.273758e+003;1.697107e-002
2.275687e+003;1.696642e-002
2.277615e+003;1.716003e-002
2.279544e+003;1.727624e-002
2.281472e+003;1.726273e-002
2.283401e+003;1.728824e-002
2.285329e+003;1.714400e-002
2.287258e+003;1.694589e-002
2.289187e+003;1.690131e-002
2.291115e+003;1.669704e-002
2.293043e+003;1.662518e-002
2.294972e+003;1.695088e-002
2.296901e+003;1.708992e-002
2.298829e+003;1.706239e-002
2.300758e+003;1.699023e-002
2.302686e+003;1.691237e-002
2.304615e+003;1.693686e-002
2.306543e+003;1.694169e-002
2.308472e+003;1.712308e-002
2.310400e+003;1.717537e-002
2.312329e+003;1.703144e-002
2.314258e+003;1.711846e-002
2.316186e+003;1.736258e-002
2.318115e+003;1.733548e-002
2.320043e+003;1.732531e-002
2.321972e+003;1.741159e-002
2.323900e+003;1.764297e-002
2.325829e+003;1.795797e-002
2.327757e+003;1.808932e-002
2.329686e+003;1.822430e-002
2.331615e+003;1.829594e-002
2.333543e+003;1.835849e-002
2.335472e+003;1.846341e-002
2.337400e+003;1.859592e-002
2.339329e+003;1.883291e-002
2.341257e+003;1.893182e-002
2.343186e+003;1.896629e-002
2.345114e+003;1.891223e-002
2.347043e+003;1.891610e-002
2.348971e+003;1.916879e-002
2.350900e+003;1.901302e-002
2.352829e+003;1.880918e-002
2.354757e+003;1.916547e-002
2.356686e+003;1.952406e-002
2.358614e+003;1.939054e-002
2.360543e+003;1.942190e-002
2.362471e+003;1.956887e-002
2.364400e+003;1.933400e-002
2.366328e+003;1.925797e-002
2.368257e+003;1.948968e-002
2.370186e+003;1.972977e-002
2.372114e+003;1.977821e-002
2.374042e+003;1.980713e-002
2.375971e+003;1.966774e-002
2.377900e+003;1.957085e-002
2.379828e+003;1.983023e-002
2.381757e+003;2.006630e-002
2.383685e+003;1.999479e-002
2.385614e+003;1.978081e-002
2.387542e+003;1.955872e-002
2.389471e+003;1.957047e-002
2.391399e+003;2.005037e-002
2.393328e+003;2.031039e-002
2.395257e+003;2.044960e-002
2.397185e+003;2.050969e-002
2.399114e+003;2.055899e-002
2.401042e+003;2.076623e-002
2.402971e+003;2.077871e-002
2.404899e+003;2.055322e-002
2.406828e+003;2.059554e-002
2.408756e+003;2.054596e-002
2.410685e+003;2.049865e-002
2.412614e+003;2.069912e-002
2.414542e+003;2.064786e-002
2.416471e+003;2.058254e-002
2.418399e+003;2.079782e-002
2.420328e+003;2.108997e-002
2.422256e+003;2.126246e-002
2.424185e+003;2.136794e-002
2.426113e+003;2.120553e-002
2.428042e+003;2.099937e-002
2.429970e+003;2.101957e-002
2.431899e+003;2.099874e-002
2.433828e+003;2.080046e-002
2.435756e+003;2.048976e-002
2.437685e+003;2.032653e-002
2.439613e+003;2.054127e-002
2.441542e+003;2.051622e-002
2.443470e+003;2.041036e-002
2.445399e+003;2.031195e-002
2.447327e+003;2.019975e-002
2.449256e+003;2.018083e-002
2.451185e+003;2.008004e-002
2.453113e+003;1.996901e-002
2.455042e+003;1.989426e-002
2.456970e+003;1.992790e-002
2.458899e+003;1.984226e-002
2.460827e+003;1.960340e-002
2.462756e+003;1.968909e-002
2.464684e+003;1.970948e-002
2.466613e+003;1.974679e-002
2.468542e+003;1.979808e-002
2.470470e+003;1.954887e-002
2.472398e+003;1.984680e-002
2.474327e+003;2.008362e-002
2.476256e+003;2.023658e-002
2.478184e+003;2.063754e-002
2.480113e+003;2.091932e-002
2.482041e+003;2.084333e-002
2.483970e+003;2.094923e-002
2.485898e+003;2.075250e-002
2.487827e+003;2.041470e-002
2.489755e+003;2.060641e-002
2.491684e+003;2.083199e-002
2.493613e+003;2.076216e-002
2.495541e+003;2.045506e-002
2.497470e+003;2.025703e-002
2.499398e+003;2.042047e-002
2.501327e+003;2.064866e-002
2.503255e+003;2.066520e-002
2.505184e+003;2.049761e-002
2.507112e+003;2.058306e-002
2.509041e+003;2.085431e-002
2.510969e+003;2.086349e-002
2.512898e+003;2.105908e-002
2.514827e+003;2.158211e-002
2.516755e+003;2.176974e-002
2.518684e+003;2.178158e-002
2.520612e+003;2.222931e-002
2.522541e+003;2.288219e-002
2.524469e+003;2.304634e-002
2.526398e+003;2.293225e-002
2.528326e+003;2.306189e-002
2.530255e+003;2.310732e-002
2.532184e+003;2.332599e-002
2.534112e+003;2.366970e-002
2.536041e+003;2.371925e-002
2.537969e+003;2.389723e-002
2.539898e+003;2.415752e-002
2.541826e+003;2.444787e-002
2.543755e+003;2.463215e-002
2.545683e+003;2.476143e-002
2.547612e+003;2.516916e-002
2.549541e+003;2.576065e-002
2.551469e+003;2.611541e-002
2.553397e+003;2.648155e-002
2.555326e+003;2.689580e-002
2.557255e+003;2.733119e-002
2.559183e+003;2.763765e-002
2.561112e+003;2.776154e-002
2.563040e+003;2.809443e-002
2.564969e+003;2.843684e-002
2.566897e+003;2.909757e-002
2.568826e+003;3.001820e-002
2.570754e+003;3.047853e-002
2.572683e+003;3.070642e-002
2.574612e+003;3.094859e-002
2.576540e+003;3.151356e-002
2.578469e+003;3.214563e-002
2.580397e+003;3.269269e-002
2.582326e+003;3.299545e-002
2.584254e+003;3.255296e-002
2.586183e+003;3.191274e-002
2.588111e+003;3.130088e-002
2.590040e+003;3.074226e-002
2.591969e+003;3.032767e-002
2.593897e+003;2.994266e-002
2.595826e+003;2.990059e-002
2.597754e+003;2.999172e-002
2.599683e+003;2.967334e-002
2.601611e+003;2.957802e-002
2.603540e+003;3.012005e-002
2.605468e+003;3.064917e-002
2.607397e+003;3.087768e-002
2.609325e+003;3.107485e-002
2.611254e+003;3.148795e-002
2.613183e+003;3.189772e-002
2.615111e+003;3.215833e-002
2.617040e+003;3.210959e-002
2.618968e+003;3.188846e-002
2.620897e+003;3.160545e-002
2.622825e+003;3.158236e-002
2.624754e+003;3.166397e-002
2.626682e+003;3.142728e-002
2.628611e+003;3.120990e-002
2.630540e+003;3.111055e-002
2.632468e+003;3.101129e-002
2.634396e+003;3.107022e-002
2.636325e+003;3.124775e-002
2.638254e+003;3.132292e-002
2.640182e+003;3.124765e-002
2.642111e+003;3.144056e-002
2.644039e+003;3.208883e-002
2.645968e+003;3.271034e-002
2.647896e+003;3.312310e-002
2.649825e+003;3.350909e-002
2.651753e+003;3.353511e-002
2.653682e+003;3.362482e-002
2.655611e+003;3.403690e-002
2.657539e+003;3.458500e-002
2.659468e+003;3.503126e-002
2.661396e+003;3.514542e-002
2.663325e+003;3.496183e-002
2.665253e+003;3.499807e-002
2.667182e+003;3.520944e-002
2.669110e+003;3.534928e-002
2.671039e+003;3.534676e-002
2.672968e+003;3.545885e-002
2.674896e+003;3.569631e-002
2.676825e+003;3.603455e-002
2.678753e+003;3.612733e-002
2.680682e+003;3.598080e-002
2.682610e+003;3.584379e-002
2.684539e+003;3.598224e-002
2.686467e+003;3.616215e-002
2.688396e+003;3.628090e-002
2.690324e+003;3.627607e-002
2.692253e+003;3.630380e-002
2.694182e+003;3.655363e-002
2.696110e+003;3.644453e-002
2.698039e+003;3.674408e-002
2.699967e+003;3.735583e-002
2.701896e+003;3.778774e-002
2.703824e+003;3.844197e-002
2.705753e+003;3.922849e-002
2.707681e+003;3.985639e-002
2.709610e+003;4.066003e-002
2.711539e+003;4.144752e-002
2.713467e+003;4.248041e-002
2.715396e+003;4.392177e-002
2.717324e+003;4.610628e-002
2.719253e+003;4.799712e-002
2.721181e+003;4.903348e-002
2.723110e+003;4.960303e-002
2.725038e+003;4.927095e-002
2.726967e+003;4.821277e-002
2.728896e+003;4.722763e-002
2.730824e+003;4.591373e-002
2.732752e+003;4.439873e-002
2.734681e+003;4.329628e-002
2.736610e+003;4.243109e-002
2.738538e+003;4.168773e-002
2.740467e+003;4.099549e-002
2.742395e+003;3.999558e-002
2.744324e+003;3.893357e-002
2.746252e+003;3.819450e-002
2.748181e+003;3.797303e-002
2.750109e+003;3.819476e-002
2.752038e+003;3.862088e-002
2.753967e+003;3.875019e-002
2.755895e+003;3.870013e-002
2.757824e+003;3.868901e-002
2.759752e+003;3.890816e-002
2.761681e+003;3.948000e-002
2.763609e+003;4.032330e-002
2.765538e+003;4.051265e-002
2.767466e+003;4.056515e-002
2.769395e+003;4.100085e-002
2.771323e+003;4.146020e-002
2.773252e+003;4.207323e-002
2.775181e+003;4.256629e-002
2.777109e+003;4.316419e-002
2.779038e+003;4.413721e-002
2.780966e+003;4.538467e-002
2.782895e+003;4.648690e-002
2.784823e+003;4.748086e-002
2.786752e+003;4.897832e-002
2.788680e+003;5.064439e-002
2.790609e+003;5.224184e-002
2.792538e+003;5.402851e-002
2.794466e+003;5.557415e-002
2.796395e+003;5.668204e-002
2.798323e+003;5.805163e-002
2.800252e+003;5.978929e-002
2.802180e+003;6.164802e-002
2.804109e+003;6.357423e-002
2.806037e+003;6.599861e-002
2.807966e+003;6.835453e-002
2.809895e+003;7.009432e-002
2.811823e+003;7.171538e-002
2.813751e+003;7.364683e-002
2.815680e+003;7.563370e-002
2.817609e+003;7.759929e-002
2.819537e+003;8.010311e-002
2.821466e+003;8.315015e-002
2.823394e+003;8.682433e-002
2.825323e+003;9.158248e-002
2.827251e+003;9.789252e-002
2.829180e+003;1.056841e-001
2.831108e+003;1.143543e-001
2.833037e+003;1.231497e-001
2.834966e+003;1.303907e-001
2.836894e+003;1.340598e-001
2.838823e+003;1.339839e-001
2.840751e+003;1.311767e-001
2.842680e+003;1.267865e-001
2.844608e+003;1.220658e-001
2.846537e+003;1.172042e-001
2.848465e+003;1.129998e-001
2.850394e+003;1.099602e-001
2.852323e+003;1.080536e-001
2.854251e+003;1.079146e-001
2.856180e+003;1.092500e-001
2.858108e+003;1.122753e-001
2.860037e+003;1.172618e-001
2.861965e+003;1.244767e-001
2.863894e+003;1.329065e-001
2.865822e+003;1.394783e-001
2.867751e+003;1.431498e-001
2.869679e+003;1.442726e-001
2.871608e+003;1.439374e-001
2.873536e+003;1.437114e-001
2.875465e+003;1.439635e-001
2.877394e+003;1.436018e-001
2.879322e+003;1.421786e-001
2.881251e+003;1.404247e-001
2.883179e+003;1.393833e-001
2.885108e+003;1.394923e-001
2.887036e+003;1.405331e-001
2.888965e+003;1.424376e-001
2.890893e+003;1.446566e-001
2.892822e+003;1.475075e-001
2.894750e+003;1.514711e-001
2.896679e+003;1.562329e-001
2.898608e+003;1.615572e-001
2.900536e+003;1.668118e-001
2.902465e+003;1.714646e-001
2.904393e+003;1.765393e-001
2.906322e+003;1.813785e-001
2.908250e+003;1.852840e-001
2.910179e+003;1.892968e-001
2.912107e+003;1.920419e-001
2.914036e+003;1.936575e-001
2.915965e+003;1.945889e-001
2.917893e+003;1.937958e-001
2.919822e+003;1.907297e-001
2.921750e+003;1.859111e-001
2.923679e+003;1.808470e-001
2.925607e+003;1.745211e-001
2.927536e+003;1.672979e-001
2.929464e+003;1.596057e-001
2.931393e+003;1.518072e-001
2.933322e+003;1.441511e-001
2.935250e+003;1.369812e-001
2.937178e+003;1.321528e-001
2.939107e+003;1.297542e-001
2.941036e+003;1.304020e-001
2.942964e+003;1.348283e-001
2.944893e+003;1.423839e-001
2.946821e+003;1.510125e-001
2.948750e+003;1.577635e-001
2.950678e+003;1.613818e-001
2.952607e+003;1.622956e-001
2.954535e+003;1.602875e-001
2.956464e+003;1.562497e-001
2.958393e+003;1.510950e-001
2.960321e+003;1.456251e-001
2.962250e+003;1.396794e-001
2.964178e+003;1.326583e-001
2.966107e+003;1.250047e-001
2.968035e+003;1.178656e-001
2.969964e+003;1.113855e-001
2.971892e+003;1.049923e-001
2.973821e+003;9.895850e-002
2.975750e+003;9.380727e-002
2.977678e+003;8.932409e-002
2.979607e+003;8.513138e-002
2.981535e+003;8.148835e-002
2.983464e+003;7.837602e-002
2.985392e+003;7.544862e-002
2.987321e+003;7.278046e-002
2.989249e+003;7.045039e-002
2.991178e+003;6.841457e-002
2.993106e+003;6.595850e-002
2.995035e+003;6.342869e-002
2.996964e+003;6.112334e-002
2.998892e+003;5.883535e-002
3.000821e+003;5.668608e-002
3.002749e+003;5.474110e-002
3.004678e+003;5.308739e-002
3.006606e+003;5.135332e-002
3.008535e+003;4.966369e-002
3.010463e+003;4.785389e-002
3.012392e+003;4.598614e-002
3.014321e+003;4.461693e-002
3.016249e+003;4.362742e-002
3.018177e+003;4.240303e-002
3.020106e+003;4.139335e-002
3.022035e+003;4.060054e-002
3.023963e+003;3.950533e-002
3.025892e+003;3.826951e-002
3.027820e+003;3.736348e-002
3.029749e+003;3.679515e-002
3.031677e+003;3.620868e-002
3.033606e+003;3.543951e-002
3.035534e+003;3.482119e-002
3.037463e+003;3.441388e-002
3.039392e+003;3.423763e-002
3.041320e+003;3.349849e-002
3.043249e+003;3.235847e-002
3.045177e+003;3.212954e-002
3.047106e+003;3.243076e-002
3.049034e+003;3.247279e-002
3.050963e+003;3.188089e-002
3.052891e+003;3.133845e-002
3.054820e+003;3.120392e-002
3.056749e+003;3.105122e-002
3.058677e+003;3.120901e-002
3.060606e+003;3.105157e-002
3.062534e+003;3.075012e-002
3.064463e+003;3.061297e-002
3.066391e+003;3.052413e-002
3.068320e+003;3.017641e-002
3.070248e+003;2.994766e-002
3.072177e+003;3.000823e-002
3.074105e+003;2.957561e-002
3.076034e+003;2.936951e-002
3.077963e+003;2.953943e-002
3.079891e+003;2.923616e-002
3.081820e+003;2.885091e-002
3.083748e+003;2.916606e-002
3.085677e+003;2.943624e-002
3.087605e+003;2.947195e-002
3.089534e+003;2.908347e-002
3.091462e+003;2.870363e-002
3.093391e+003;2.881929e-002
3.095320e+003;2.887028e-002
3.097248e+003;2.870809e-002
3.099177e+003;2.826654e-002
3.101105e+003;2.812094e-002
3.103034e+003;2.838545e-002
3.104962e+003;2.856574e-002
3.106891e+003;2.882934e-002
3.108819e+003;2.904160e-002
3.110748e+003;2.907660e-002
3.112677e+003;2.913393e-002
3.114605e+003;2.910583e-002
3.116533e+003;2.901641e-002
3.118462e+003;2.877053e-002
3.120391e+003;2.859465e-002
3.122319e+003;2.871170e-002
3.124248e+003;2.909024e-002
3.126176e+003;2.932027e-002
3.128105e+003;2.929996e-002
3.130033e+003;2.946418e-002
3.131962e+003;2.937816e-002
3.133890e+003;2.928791e-002
3.135819e+003;2.950191e-002
3.137748e+003;2.970821e-002
3.139676e+003;2.987734e-002
3.141605e+003;3.013855e-002
3.143533e+003;3.018380e-002
3.145462e+003;3.007335e-002
3.147390e+003;3.021445e-002
3.149319e+003;3.051155e-002
3.151247e+003;3.054382e-002
3.153176e+003;3.070115e-002
3.155104e+003;3.072000e-002
3.157033e+003;3.034800e-002
3.158962e+003;3.008063e-002
3.160890e+003;2.998526e-002
3.162819e+003;2.991011e-002
3.164747e+003;3.003535e-002
3.166676e+003;3.017204e-002
3.168604e+003;3.040173e-002
3.170533e+003;3.060230e-002
3.172461e+003;3.040030e-002
3.174390e+003;3.032579e-002
3.176319e+003;3.057838e-002
3.178247e+003;3.080362e-002
3.180176e+003;3.062933e-002
3.182104e+003;3.058791e-002
3.184033e+003;3.063988e-002
3.185961e+003;3.067246e-002
3.187890e+003;3.080817e-002
3.189818e+003;3.115109e-002
3.191747e+003;3.103097e-002
3.193676e+003;3.079088e-002
3.195604e+003;3.107090e-002
3.197532e+003;3.126598e-002
3.199461e+003;3.113230e-002
3.201390e+003;3.078992e-002
3.203318e+003;3.084680e-002
3.205247e+003;3.106125e-002
3.207175e+003;3.121133e-002
3.209104e+003;3.137018e-002
3.211032e+003;3.113903e-002
3.212961e+003;3.071580e-002
3.214889e+003;3.045048e-002
3.216818e+003;3.051443e-002
3.218747e+003;3.080963e-002
3.220675e+003;3.080892e-002
3.222604e+003;3.029765e-002
3.224532e+003;2.983731e-002
3.226461e+003;3.000379e-002
3.228389e+003;3.005187e-002
3.230318e+003;2.971016e-002
3.232246e+003;2.947411e-002
3.234175e+003;2.960278e-002
3.236104e+003;2.944525e-002
3.238032e+003;2.938018e-002
3.239961e+003;2.956018e-002
3.241889e+003;2.959937e-002
3.243818e+003;2.952017e-002
3.245746e+003;2.942674e-002
3.247675e+003;2.909662e-002
3.249603e+003;2.875673e-002
3.251532e+003;2.905240e-002
3.253460e+003;2.938759e-002
3.255389e+003;2.915373e-002
3.257318e+003;2.909594e-002
3.259246e+003;2.917287e-002
3.261175e+003;2.950766e-002
3.263103e+003;2.949407e-002
3.265032e+003;2.910104e-002
3.266960e+003;2.895361e-002
3.268889e+003;2.920129e-002
3.270817e+003;2.935781e-002
3.272746e+003;2.949492e-002
3.274675e+003;2.955170e-002
3.276603e+003;2.913212e-002
3.278531e+003;2.905074e-002
3.280460e+003;2.911674e-002
3.282389e+003;2.900252e-002
3.284317e+003;2.901896e-002
3.286246e+003;2.899781e-002
3.288174e+003;2.912379e-002
3.290103e+003;2.892110e-002
3.292031e+003;2.825809e-002
3.293960e+003;2.826226e-002
3.295888e+003;2.889365e-002
3.297817e+003;2.958267e-002
3.299746e+003;2.966418e-002
3.301674e+003;2.894624e-002
3.303603e+003;2.862540e-002
3.305531e+003;2.896579e-002
3.307460e+003;2.900624e-002
3.309388e+003;2.900787e-002
3.311317e+003;2.880247e-002
3.313245e+003;2.869297e-002
3.315174e+003;2.898655e-002
3.317103e+003;2.889237e-002
3.319031e+003;2.866784e-002
3.320960e+003;2.862098e-002
3.322888e+003;2.861355e-002
3.324817e+003;2.878438e-002
3.326745e+003;2.851333e-002
3.328674e+003;2.796744e-002
3.330602e+003;2.772513e-002
3.332531e+003;2.790748e-002
3.334459e+003;2.795734e-002
3.336388e+003;2.814880e-002
3.338317e+003;2.826389e-002
3.340245e+003;2.841477e-002
3.342174e+003;2.858226e-002
3.344102e+003;2.840752e-002
3.346031e+003;2.799087e-002
3.347959e+003;2.769500e-002
3.349888e+003;2.814707e-002
3.351816e+003;2.861132e-002
3.353745e+003;2.861758e-002
3.355674e+003;2.837639e-002
3.357602e+003;2.798967e-002
3.359531e+003;2.769765e-002
3.361459e+003;2.798557e-002
3.363388e+003;2.824200e-002
3.365316e+003;2.822241e-002
3.367245e+003;2.790342e-002
3.369173e+003;2.729241e-002
3.371102e+003;2.733112e-002
3.373031e+003;2.724101e-002
3.374959e+003;2.694893e-002
3.376887e+003;2.683810e-002
3.378816e+003;2.687747e-002
3.380745e+003;2.694096e-002
3.382673e+003;2.651948e-002
3.384602e+003;2.629392e-002
3.386530e+003;2.655266e-002
3.388459e+003;2.648363e-002
3.390387e+003;2.635074e-002
3.392316e+003;2.652603e-002
3.394244e+003;2.626051e-002
3.396173e+003;2.615658e-002
3.398102e+003;2.635327e-002
3.400030e+003;2.597873e-002
3.401959e+003;2.585211e-002
3.403887e+003;2.635613e-002
3.405816e+003;2.627931e-002
3.407744e+003;2.597243e-002
3.409673e+003;2.619575e-002
3.411601e+003;2.634356e-002
3.413530e+003;2.587166e-002
3.415458e+003;2.531359e-002
3.417387e+003;2.495300e-002
3.419316e+003;2.489183e-002
3.421244e+003;2.498083e-002
3.423173e+003;2.531700e-002
3.425101e+003;2.540569e-002
3.427030e+003;2.504351e-002
3.428958e+003;2.453499e-002
3.430887e+003;2.401319e-002
3.432815e+003;2.359934e-002
3.434744e+003;2.390511e-002
3.436673e+003;2.421095e-002
3.438601e+003;2.391904e-002
3.440530e+003;2.354228e-002
3.442458e+003;2.351699e-002
3.444387e+003;2.316743e-002
3.446315e+003;2.278713e-002
3.448244e+003;2.306015e-002
3.450172e+003;2.319857e-002
3.452101e+003;2.274792e-002
3.454030e+003;2.243247e-002
3.455958e+003;2.221348e-002
3.457886e+003;2.223461e-002
3.459815e+003;2.214845e-002
3.461744e+003;2.202095e-002
3.463672e+003;2.183503e-002
3.465601e+003;2.191378e-002
3.467529e+003;2.177437e-002
3.469458e+003;2.123476e-002
3.471386e+003;2.101676e-002
3.473315e+003;2.103175e-002
3.475243e+003;2.076101e-002
3.477172e+003;2.018534e-002
3.479101e+003;2.024408e-002
3.481029e+003;2.084020e-002
3.482958e+003;2.097538e-002
3.484886e+003;2.032212e-002
3.486815e+003;1.978934e-002
3.488743e+003;1.985201e-002
3.490672e+003;1.987906e-002
3.492600e+003;1.964156e-002
3.494529e+003;1.946826e-002
3.496458e+003;1.989814e-002
3.498386e+003;1.975657e-002
3.500315e+003;1.912242e-002
3.502243e+003;1.908756e-002
3.504172e+003;1.924931e-002
3.506100e+003;1.939591e-002
3.508029e+003;1.936650e-002
3.509957e+003;1.880464e-002
3.511886e+003;1.849401e-002
3.513814e+003;1.888240e-002
3.515743e+003;1.901299e-002
3.517672e+003;1.871746e-002
3.519600e+003;1.848575e-002
3.521529e+003;1.866533e-002
3.523457e+003;1.887471e-002
3.525386e+003;1.881457e-002
3.527314e+003;1.830572e-002
3.529243e+003;1.749927e-002
3.531171e+003;1.735700e-002
3.533100e+003;1.773367e-002
3.535029e+003;1.763586e-002
3.536957e+003;1.795614e-002
3.538885e+003;1.820771e-002
3.540814e+003;1.800739e-002
3.542743e+003;1.732444e-002
3.544671e+003;1.676040e-002
3.546600e+003;1.652457e-002
3.548528e+003;1.632450e-002
3.550457e+003;1.629949e-002
3.552385e+003;1.634948e-002
3.554314e+003;1.639926e-002
3.556242e+003;1.640257e-002
3.558171e+003;1.601367e-002
3.560100e+003;1.565003e-002
3.562028e+003;1.563839e-002
3.563957e+003;1.594784e-002
3.565885e+003;1.570555e-002
3.567814e+003;1.564244e-002
3.569742e+003;1.585780e-002
3.571671e+003;1.553614e-002
3.573599e+003;1.541020e-002
3.575528e+003;1.530101e-002
3.577457e+003;1.496824e-002
3.579385e+003;1.446600e-002
3.581314e+003;1.444150e-002
3.583242e+003;1.449995e-002
3.585171e+003;1.423993e-002
3.587099e+003;1.426893e-002
3.589028e+003;1.442684e-002
3.590956e+003;1.429913e-002
3.592885e+003;1.400152e-002
3.594813e+003;1.415913e-002
3.596742e+003;1.444681e-002
3.598671e+003;1.439331e-002
3.600599e+003;1.410834e-002
3.602528e+003;1.420265e-002
3.604456e+003;1.417228e-002
3.606385e+003;1.363057e-002
3.608313e+003;1.328139e-002
3.610242e+003;1.333168e-002
3.612170e+003;1.357795e-002
3.614099e+003;1.377419e-002
3.616028e+003;1.348699e-002
3.617956e+003;1.324463e-002
3.619885e+003;1.325207e-002
3.621813e+003;1.298628e-002
3.623742e+003;1.289538e-002
3.625670e+003;1.295296e-002
3.627599e+003;1.274007e-002
3.629527e+003;1.281381e-002
3.631456e+003;1.298707e-002
3.633385e+003;1.304733e-002
3.635313e+003;1.341474e-002
3.637241e+003;1.343402e-002
3.639170e+003;1.279931e-002
3.641099e+003;1.245294e-002
3.643027e+003;1.250354e-002
3.644956e+003;1.255183e-002
3.646884e+003;1.213397e-002
3.648813e+003;1.169339e-002
3.650741e+003;1.185412e-002
3.652670e+003;1.243603e-002
3.654598e+003;1.232141e-002
3.656527e+003;1.203643e-002
3.658456e+003;1.192113e-002
3.660384e+003;1.180437e-002
3.662313e+003;1.178493e-002
3.664241e+003;1.197328e-002
3.666170e+003;1.225764e-002
3.668098e+003;1.199160e-002
3.670027e+003;1.172409e-002
3.671955e+003;1.198554e-002
3.673884e+003;1.209778e-002
3.675813e+003;1.229295e-002
3.677741e+003;1.273307e-002
3.679669e+003;1.283923e-002
3.681598e+003;1.268889e-002
3.683527e+003;1.268568e-002
3.685455e+003;1.246651e-002
3.687384e+003;1.220624e-002
3.689312e+003;1.257615e-002
3.691241e+003;1.329105e-002
3.693169e+003;1.329652e-002
3.695098e+003;1.292535e-002
3.697026e+003;1.335942e-002
3.698955e+003;1.346440e-002
3.700884e+003;1.293552e-002
3.702812e+003;1.295928e-002
3.704741e+003;1.314691e-002
3.706669e+003;1.316497e-002
3.708598e+003;1.330964e-002
3.710526e+003;1.356466e-002
3.712455e+003;1.350853e-002
3.714383e+003;1.335105e-002
3.716312e+003;1.333509e-002
3.718240e+003;1.346061e-002
3.720169e+003;1.300462e-002
3.722098e+003;1.283708e-002
3.724026e+003;1.315811e-002
3.725955e+003;1.305740e-002
3.727883e+003;1.289418e-002
3.729812e+003;1.315715e-002
3.731740e+003;1.323079e-002
3.733669e+003;1.309715e-002
3.735597e+003;1.305826e-002
3.737526e+003;1.313711e-002
3.739455e+003;1.330667e-002
3.741383e+003;1.381425e-002
3.743312e+003;1.353970e-002
3.745240e+003;1.326055e-002
3.747169e+003;1.321498e-002
3.749097e+003;1.319681e-002
3.751026e+003;1.319322e-002
3.752954e+003;1.315927e-002
3.754883e+003;1.345531e-002
3.756812e+003;1.372939e-002
3.758740e+003;1.386456e-002
3.760668e+003;1.422709e-002
3.762597e+003;1.476169e-002
3.764526e+003;1.478267e-002
3.766454e+003;1.437478e-002
3.768383e+003;1.366244e-002
3.770311e+003;1.390024e-002
3.772240e+003;1.438180e-002
3.774168e+003;1.412408e-002
3.776097e+003;1.399393e-002
3.778025e+003;1.395981e-002
3.779954e+003;1.357939e-002
3.781883e+003;1.359980e-002
3.783811e+003;1.400477e-002
3.785740e+003;1.424438e-002
3.787668e+003;1.401963e-002
3.789597e+003;1.368008e-002
3.791525e+003;1.354568e-002
3.793454e+003;1.389392e-002
3.795382e+003;1.447374e-002
3.797311e+003;1.469749e-002
3.799240e+003;1.411224e-002
3.801168e+003;1.351506e-002
3.803097e+003;1.363324e-002
3.805025e+003;1.343631e-002
3.806954e+003;1.367218e-002
3.808882e+003;1.444561e-002
3.810811e+003;1.430831e-002
3.812739e+003;1.375692e-002
3.814668e+003;1.329136e-002
3.816596e+003;1.323055e-002
3.818525e+003;1.360602e-002
3.820454e+003;1.393412e-002
3.822382e+003;1.456422e-002
3.824311e+003;1.522152e-002
3.826239e+003;1.507114e-002
3.828168e+003;1.452859e-002
3.830096e+003;1.406093e-002
3.832025e+003;1.440362e-002
3.833953e+003;1.464053e-002
3.835882e+003;1.396594e-002
3.837811e+003;1.367061e-002
3.839739e+003;1.415253e-002
3.841667e+003;1.406069e-002
3.843596e+003;1.389162e-002
3.845525e+003;1.425167e-002
3.847453e+003;1.461990e-002
3.849382e+003;1.464516e-002
3.851310e+003;1.430146e-002
3.853239e+003;1.398421e-002
3.855167e+003;1.412918e-002
3.857096e+003;1.479190e-002
3.859024e+003;1.492390e-002
3.860953e+003;1.469821e-002
3.862882e+003;1.461750e-002
3.864810e+003;1.469345e-002
3.866739e+003;1.505049e-002
3.868667e+003;1.519527e-002
3.870596e+003;1.553099e-002
3.872524e+003;1.548886e-002
3.874453e+003;1.498272e-002
3.876381e+003;1.531250e-002
3.878310e+003;1.525622e-002
3.880239e+003;1.499321e-002
3.882167e+003;1.508216e-002
3.884096e+003;1.515417e-002
3.886024e+003;1.534772e-002
3.887953e+003;1.506524e-002
3.889881e+003;1.485474e-002
3.891810e+003;1.528172e-002
3.893738e+003;1.544309e-002
3.895667e+003;1.561654e-002
3.897595e+003;1.545037e-002
3.899524e+003;1.513547e-002
3.901453e+003;1.505135e-002
3.903381e+003;1.526562e-002
3.905310e+003;1.542956e-002
3.907238e+003;1.536688e-002
3.909167e+003;1.547770e-002
3.911095e+003;1.568315e-002
3.913024e+003;1.590639e-002
3.914952e+003;1.634435e-002
3.916881e+003;1.612580e-002
3.918810e+003;1.550486e-002
3.920738e+003;1.580577e-002
3.922667e+003;1.572434e-002
3.924595e+003;1.488409e-002
3.926524e+003;1.512113e-002
3.928452e+003;1.577209e-002
3.930381e+003;1.556719e-002
3.932309e+003;1.570943e-002
3.934238e+003;1.573234e-002
3.936167e+003;1.572984e-002
3.938095e+003;1.590522e-002
3.940023e+003;1.608233e-002
3.941952e+003;1.648447e-002
3.943881e+003;1.622711e-002
3.945809e+003;1.563691e-002
3.947738e+003;1.546675e-002
3.949666e+003;1.560717e-002
3.951595e+003;1.564959e-002
3.953523e+003;1.510415e-002
3.955452e+003;1.509159e-002
3.957380e+003;1.597796e-002
3.959309e+003;1.636544e-002
3.961238e+003;1.667425e-002
3.963166e+003;1.698162e-002
3.965095e+003;1.673746e-002
3.967023e+003;1.614853e-002
3.968952e+003;1.561352e-002
3.970880e+003;1.573781e-002
3.972809e+003;1.618780e-002
3.974737e+003;1.678630e-002
3.976666e+003;1.711198e-002
3.978594e+003;1.662319e-002
3.980523e+003;1.646981e-002
3.982452e+003;1.720498e-002
3.984380e+003;1.721318e-002
3.986309e+003;1.662908e-002
3.988237e+003;1.684333e-002
3.990166e+003;1.731317e-002
3.992094e+003;1.751345e-002
3.994023e+003;1.795531e-002
3.995951e+003;1.803246e-002
3.997880e+003;1.801367e-002
3.999809e+003;1.791947e-002
4.001737e+003;0.000000e+000
