3.992094e+002;0.000000e+000
4.011380e+002;0.000000e+000
4.030665e+002;0.000000e+000
4.049951e+002;0.000000e+000
4.069236e+002;0.000000e+000
4.088522e+002;0.000000e+000
4.107807e+002;0.000000e+000
4.127093e+002;0.000000e+000
4.146378e+002;0.000000e+000
4.165664e+002;0.000000e+000
4.184949e+002;0.000000e+000
4.204235e+002;0.000000e+000
4.223520e+002;0.000000e+000
4.242806e+002;0.000000e+000
4.262091e+002;0.000000e+000
4.281377e+002;0.000000e+000
4.300662e+002;0.000000e+000
4.319948e+002;0.000000e+000
4.339233e+002;0.000000e+000
4.358519e+002;0.000000e+000
4.377804e+002;0.000000e+000
4.397090e+002;0.000000e+000
4.416375e+002;0.000000e+000
4.435660e+002;0.000000e+000
4.454946e+002;0.000000e+000
4.474232e+002;0.000000e+000
4.493517e+002;0.000000e+000
4.512802e+002;0.000000e+000
4.532088e+002;0.000000e+000
4.551373e+002;0.000000e+000
4.570659e+002;0.000000e+000
4.589944e+002;0.000000e+000
4.609230e+002;0.000000e+000
4.628515e+002;0.000000e+000
4.647801e+002;0.000000e+000
4.667086e+002;0.000000e+000
4.686372e+002;0.000000e+000
4.705657e+002;0.000000e+000
4.724943e+002;0.000000e+000
4.744228e+002;0.000000e+000
4.763513e+002;0.000000e+000
4.782799e+002;0.000000e+000
4.802085e+002;0.000000e+000
4.821370e+002;0.000000e+000
4.840656e+002;0.000000e+000
4.859941e+002;0.000000e+000
4.879226e+002;0.000000e+000
4.898512e+002;0.000000e+000
4.917798e+002;0.000000e+000
4.937083e+002;0.000000e+000
4.956368e+002;0.000000e+000
4.975654e+002;0.000000e+000
4.994939e+002;0.000000e+000
5.014225e+002;0.000000e+000
5.033510e+002;0.000000e+000
5.052796e+002;0.000000e+000
5.072081e+002;0.000000e+000
5.091367e+002;0.000000e+000
5.110652e+002;0.000000e+000
5.129938e+002;0.000000e+000
5.149223e+002;0.000000e+000
5.168509e+002;0.000000e+000
5.187794e+002;0.000000e+000
5.207079e+002;0.000000e+000
5.226365e+002;0.000000e+000
5.245651e+002;0.000000e+000
5.264936e+002;0.000000e+000
5.284222e+002;0.000000e+000
5.303507e+002;0.000000e+000
5.322792e+002;0.000000e+000
5.342078e+002;0.000000e+000
5.361364e+002;0.000000e+000
5.380649e+002;0.000000e+000
5.399935e+002;0.000000e+000
5.419220e+002;0.000000e+000
5.438505e+002;0.000000e+000
5.457791e+002;0.000000e+000
5.477076e+002;0.000000e+000
5.496362e+002;0.000000e+000
5.515648e+002;0.000000e+000
5.534933e+002;0.000000e+000
5.554218e+002;0.000000e+000
5.573504e+002;0.000000e+000
5.592789e+002;0.000000e+000
5.612075e+002;0.000000e+000
5.631360e+002;0.000000e+000
5.650646e+002;0.000000e+000
5.669931e+002;0.000000e+000
5.689217e+002;0.000000e+000
5.708502e+002;0.000000e+000
5.727787e+002;0.000000e+000
5.747073e+002;0.000000e+000
5.766359e+002;0.000000e+000
5.785644e+002;0.000000e+000
5.804930e+002;0.000000e+000
5.824215e+002;0.000000e+000
5.843500e+002;0.000000e+000
5.862786e+002;0.000000e+000
5.882072e+002;0.000000e+000
5.901357e+002;0.000000e+000
5.920643e+002;0.000000e+000
5.939928e+002;0.000000e+000
5.959213e+002;0.000000e+000
5.978499e+002;0.000000e+000
5.997784e+002;2.801819e-002
6.017070e+002;3.204089e-002
6.036355e+002;3.249529e-002
6.055641e+002;3.382843e-002
6.074926e+002;3.876406e-002
6.094211e+002;3.702208e-002
6.113497e+002;3.423333e-002
6.132783e+002;3.476845e-002
6.152068e+002;3.045745e-002
6.171354e+002;2.699070e-002
6.190639e+002;3.165346e-002
6.209924e+002;3.582525e-002
6.229210e+002;3.554809e-002
6.248495e+002;2.997777e-002
6.267781e+002;2.600807e-002
6.287067e+002;2.675422e-002
6.306352e+002;2.956933e-002
6.325637e+002;3.213207e-002
6.344923e+002;3.408869e-002
6.364208e+002;3.514966e-002
6.383494e+002;3.635132e-002
6.402780e+002;3.579449e-002
6.422065e+002;3.518763e-002
6.441350e+002;3.289665e-002
6.460636e+002;2.980690e-002
6.479921e+002;3.005566e-002
6.499207e+002;3.329099e-002
6.518492e+002;3.455579e-002
6.537778e+002;3.280052e-002
6.557063e+002;3.038506e-002
6.576349e+002;3.142710e-002
6.595634e+002;3.242663e-002
6.614919e+002;3.229208e-002
6.634205e+002;3.086003e-002
6.653491e+002;2.985083e-002
6.672776e+002;2.771499e-002
6.692062e+002;2.784731e-002
6.711347e+002;2.854889e-002
6.730632e+002;2.811815e-002
6.749918e+002;2.785378e-002
6.769203e+002;2.785438e-002
6.788489e+002;2.806499e-002
6.807775e+002;2.807573e-002
6.827060e+002;2.706994e-002
6.846345e+002;2.625703e-002
6.865631e+002;2.565994e-002
6.884916e+002;2.534362e-002
6.904202e+002;2.520845e-002
6.923488e+002;2.561895e-002
6.942773e+002;2.661772e-002
6.962058e+002;2.639042e-002
6.981344e+002;2.635363e-002
7.000629e+002;2.675031e-002
7.019915e+002;2.793391e-002
7.039200e+002;3.075948e-002
7.058486e+002;3.332440e-002
7.077771e+002;3.728080e-002
7.097057e+002;4.441591e-002
7.116342e+002;5.273408e-002
7.135627e+002;5.715327e-002
7.154913e+002;5.607505e-002
7.174199e+002;5.061867e-002
7.193484e+002;4.425617e-002
7.212770e+002;3.833491e-002
7.232055e+002;3.503021e-002
7.251340e+002;3.378717e-002
7.270626e+002;3.182039e-002
7.289911e+002;3.033226e-002
7.309197e+002;2.993357e-002
7.328483e+002;2.845351e-002
7.347768e+002;2.645658e-002
7.367053e+002;2.573028e-002
7.386339e+002;2.618023e-002
7.405624e+002;2.592959e-002
7.424910e+002;2.611284e-002
7.444196e+002;2.588950e-002
7.463481e+002;2.597620e-002
7.482766e+002;2.515413e-002
7.502052e+002;2.450417e-002
7.521337e+002;2.351567e-002
7.540623e+002;2.294688e-002
7.559908e+002;2.348618e-002
7.579194e+002;2.362145e-002
7.598479e+002;2.449685e-002
7.617765e+002;2.534510e-002
7.637050e+002;2.521723e-002
7.656335e+002;2.545737e-002
7.675621e+002;2.601644e-002
7.694907e+002;2.603020e-002
7.714192e+002;2.491548e-002
7.733478e+002;2.464309e-002
7.752763e+002;2.519008e-002
7.772048e+002;2.565343e-002
7.791334e+002;2.549529e-002
7.810620e+002;2.539477e-002
7.829905e+002;2.597781e-002
7.849191e+002;2.671144e-002
7.868476e+002;2.726320e-002
7.887761e+002;2.786900e-002
7.907047e+002;2.851118e-002
7.926332e+002;2.928383e-002
7.945618e+002;3.033599e-002
7.964903e+002;3.121364e-002
7.984189e+002;3.182352e-002
8.003474e+002;3.295216e-002
8.022759e+002;3.527039e-002
8.042045e+002;3.886395e-002
8.061331e+002;4.281381e-002
8.080616e+002;4.709909e-002
8.099902e+002;4.955196e-002
8.119187e+002;4.854311e-002
8.138472e+002;4.598201e-002
8.157758e+002;4.287441e-002
8.177043e+002;3.965356e-002
8.196329e+002;3.731066e-002
8.215615e+002;3.530223e-002
8.234900e+002;3.488341e-002
8.254185e+002;3.607202e-002
8.273471e+002;3.737750e-002
8.292756e+002;3.863565e-002
8.312042e+002;3.893657e-002
8.331328e+002;4.003530e-002
8.350613e+002;4.338174e-002
8.369898e+002;4.858291e-002
8.389184e+002;5.511080e-002
8.408469e+002;5.892551e-002
8.427755e+002;5.728054e-002
8.447040e+002;5.268657e-002
8.466326e+002;4.999358e-002
8.485611e+002;4.676678e-002
8.504897e+002;4.209787e-002
8.524182e+002;3.964681e-002
8.543467e+002;3.895557e-002
8.562753e+002;3.874903e-002
8.582039e+002;3.972185e-002
8.601324e+002;4.203447e-002
8.620610e+002;4.532097e-002
8.639895e+002;5.054645e-002
8.659180e+002;5.839868e-002
8.678466e+002;7.062548e-002
8.697751e+002;8.880564e-002
8.717037e+002;1.087095e-001
8.736323e+002;1.229084e-001
8.755608e+002;1.254560e-001
8.774893e+002;1.160888e-001
8.794179e+002;1.006557e-001
8.813464e+002;8.662932e-002
8.832750e+002;7.414010e-002
8.852036e+002;5.874324e-002
8.871321e+002;4.456252e-002
8.890606e+002;3.725315e-002
8.909892e+002;3.602058e-002
8.929177e+002;3.806547e-002
8.948463e+002;4.182022e-002
8.967748e+002;4.616357e-002
8.987034e+002;4.895248e-002
9.006319e+002;4.875866e-002
9.025605e+002;4.486107e-002
9.044890e+002;3.961232e-002
9.064175e+002;3.526435e-002
9.083461e+002;3.216233e-002
9.102747e+002;3.027104e-002
9.122032e+002;2.879004e-002
9.141318e+002;2.786674e-002
9.160603e+002;2.725635e-002
9.179888e+002;2.708147e-002
9.199174e+002;2.687972e-002
9.218459e+002;2.662466e-002
9.237745e+002;2.683937e-002
9.257031e+002;2.691554e-002
9.276316e+002;2.665031e-002
9.295601e+002;2.656517e-002
9.314887e+002;2.719599e-002
9.334172e+002;2.845475e-002
9.353458e+002;2.969125e-002
9.372744e+002;3.106257e-002
9.392029e+002;3.310601e-002
9.411314e+002;3.418479e-002
9.430600e+002;3.394747e-002
9.449885e+002;3.303632e-002
9.469171e+002;3.242323e-002
9.488456e+002;3.287989e-002
9.507742e+002;3.358969e-002
9.527027e+002;3.412948e-002
9.546313e+002;3.487289e-002
9.565598e+002;3.568091e-002
9.584883e+002;3.663343e-002
9.604169e+002;3.822244e-002
9.623455e+002;4.048396e-002
9.642740e+002;4.359027e-002
9.662026e+002;4.794516e-002
9.681311e+002;5.382368e-002
9.700596e+002;6.027963e-002
9.719882e+002;6.478071e-002
9.739167e+002;6.495945e-002
9.758453e+002;6.052398e-002
9.777739e+002;5.361317e-002
9.797024e+002;4.633854e-002
9.816309e+002;4.005346e-002
9.835595e+002;3.584602e-002
9.854880e+002;3.376736e-002
9.874166e+002;3.353776e-002
9.893452e+002;3.554018e-002
9.912737e+002;3.954569e-002
9.932022e+002;4.455723e-002
9.951307e+002;5.002425e-002
9.970593e+002;5.421275e-002
9.989879e+002;5.422259e-002
1.000916e+003;5.028484e-002
1.002845e+003;4.443951e-002
1.004773e+003;3.915909e-002
1.006702e+003;3.535046e-002
1.008631e+003;3.237540e-002
1.010559e+003;2.998746e-002
1.012488e+003;2.868136e-002
1.014416e+003;2.781477e-002
1.016345e+003;2.715363e-002
1.018273e+003;2.674425e-002
1.020202e+003;2.646986e-002
1.022130e+003;2.617633e-002
1.024059e+003;2.636919e-002
1.025988e+003;2.603164e-002
1.027916e+003;2.557495e-002
1.029845e+003;2.599804e-002
1.031773e+003;2.639246e-002
1.033702e+003;2.666993e-002
1.035630e+003;2.722471e-002
1.037559e+003;2.775331e-002
1.039487e+003;2.794730e-002
1.041416e+003;2.838559e-002
1.043344e+003;2.910537e-002
1.045273e+003;2.933832e-002
1.047202e+003;2.922904e-002
1.049130e+003;2.863846e-002
1.051059e+003;2.752241e-002
1.052987e+003;2.669238e-002
1.054916e+003;2.587019e-002
1.056844e+003;2.487906e-002
1.058773e+003;2.453383e-002
1.060701e+003;2.452896e-002
1.062630e+003;2.423508e-002
1.064558e+003;2.373678e-002
1.066487e+003;2.354837e-002
1.068416e+003;2.387486e-002
1.070344e+003;2.430404e-002
1.072273e+003;2.394029e-002
1.074201e+003;2.318099e-002
1.076130e+003;2.313217e-002
1.078058e+003;2.350517e-002
1.079987e+003;2.379390e-002
1.081915e+003;2.382487e-002
1.083844e+003;2.429073e-002
1.085773e+003;2.478139e-002
1.087701e+003;2.500203e-002
1.089630e+003;2.568331e-002
1.091558e+003;2.650416e-002
1.093487e+003;2.705781e-002
1.095415e+003;2.805636e-002
1.097344e+003;2.970353e-002
1.099272e+003;3.128468e-002
1.101201e+003;3.280735e-002
1.103129e+003;3.326416e-002
1.105058e+003;3.147904e-002
1.106987e+003;2.916210e-002
1.108915e+003;2.673093e-002
1.110844e+003;2.458765e-002
1.112772e+003;2.341316e-002
1.114701e+003;2.298258e-002
1.116629e+003;2.260406e-002
1.118558e+003;2.229512e-002
1.120486e+003;2.226865e-002
1.122415e+003;2.204476e-002
1.124344e+003;2.124819e-002
1.126272e+003;2.101871e-002
1.128201e+003;2.210849e-002
1.130129e+003;2.295317e-002
1.132058e+003;2.345040e-002
1.133986e+003;2.437543e-002
1.135915e+003;2.577521e-002
1.137843e+003;2.775684e-002
1.139772e+003;2.997081e-002
1.141700e+003;3.269312e-002
1.143629e+003;3.622971e-002
1.145557e+003;3.983514e-002
1.147486e+003;4.347618e-002
1.149415e+003;4.739755e-002
1.151343e+003;5.112935e-002
1.153272e+003;5.322722e-002
1.155200e+003;5.391434e-002
1.157129e+003;5.379889e-002
1.159057e+003;5.381194e-002
1.160986e+003;5.450641e-002
1.162914e+003;5.497032e-002
1.164843e+003;5.458831e-002
1.166771e+003;5.332507e-002
1.168700e+003;5.036665e-002
1.170629e+003;4.595082e-002
1.172557e+003;4.135428e-002
1.174486e+003;3.664976e-002
1.176414e+003;3.230379e-002
1.178343e+003;2.896505e-002
1.180271e+003;2.645792e-002
1.182200e+003;2.478220e-002
1.184128e+003;2.368569e-002
1.186057e+003;2.267059e-002
1.187986e+003;2.193406e-002
1.189914e+003;2.213321e-002
1.191843e+003;2.263146e-002
1.193771e+003;2.307133e-002
1.195700e+003;2.331085e-002
1.197628e+003;2.322384e-002
1.199557e+003;2.309442e-002
1.201485e+003;2.309194e-002
1.203414e+003;2.337060e-002
1.205343e+003;2.383835e-002
1.207271e+003;2.449460e-002
1.209200e+003;2.558851e-002
1.211128e+003;2.692019e-002
1.213057e+003;2.859277e-002
1.214985e+003;3.004803e-002
1.216914e+003;3.144014e-002
1.218842e+003;3.176770e-002
1.220771e+003;3.081041e-002
1.222699e+003;2.935696e-002
1.224628e+003;2.801353e-002
1.226557e+003;2.677188e-002
1.228485e+003;2.603449e-002
1.230414e+003;2.570528e-002
1.232342e+003;2.555292e-002
1.234271e+003;2.562349e-002
1.236199e+003;2.591098e-002
1.238128e+003;2.597373e-002
1.240056e+003;2.633004e-002
1.241985e+003;2.671109e-002
1.243913e+003;2.683320e-002
1.245842e+003;2.720591e-002
1.247771e+003;2.797667e-002
1.249699e+003;2.924336e-002
1.251628e+003;3.152788e-002
1.253556e+003;3.475058e-002
1.255485e+003;3.697500e-002
1.257413e+003;3.632358e-002
1.259342e+003;3.392572e-002
1.261270e+003;3.168667e-002
1.263199e+003;2.992583e-002
1.265127e+003;2.895449e-002
1.267056e+003;2.868111e-002
1.268985e+003;2.852218e-002
1.270913e+003;2.836461e-002
1.272842e+003;2.847134e-002
1.274770e+003;2.881433e-002
1.276699e+003;2.924612e-002
1.278627e+003;2.961654e-002
1.280556e+003;3.035294e-002
1.282484e+003;3.171865e-002
1.284413e+003;3.316087e-002
1.286342e+003;3.473091e-002
1.288270e+003;3.661086e-002
1.290199e+003;3.855269e-002
1.292127e+003;4.067728e-002
1.294056e+003;4.250658e-002
1.295984e+003;4.333699e-002
1.297913e+003;4.323271e-002
1.299841e+003;4.331173e-002
1.301770e+003;4.448355e-002
1.303698e+003;4.624542e-002
1.305627e+003;4.650250e-002
1.307556e+003;4.446847e-002
1.309484e+003;4.165972e-002
1.311413e+003;4.013501e-002
1.313341e+003;3.982207e-002
1.315270e+003;4.035417e-002
1.317198e+003;4.159098e-002
1.319127e+003;4.310681e-002
1.321055e+003;4.489814e-002
1.322984e+003;4.773560e-002
1.324912e+003;5.123015e-002
1.326841e+003;5.394717e-002
1.328770e+003;5.525881e-002
1.330698e+003;5.525189e-002
1.332627e+003;5.441334e-002
1.334555e+003;5.328607e-002
1.336484e+003;5.285988e-002
1.338412e+003;5.307661e-002
1.340341e+003;5.415701e-002
1.342269e+003;5.631426e-002
1.344198e+003;5.871332e-002
1.346126e+003;6.173915e-002
1.348055e+003;6.550995e-002
1.349984e+003;6.994307e-002
1.351912e+003;7.549921e-002
1.353841e+003;8.275613e-002
1.355769e+003;9.130911e-002
1.357698e+003;9.810801e-002
1.359626e+003;1.005840e-001
1.361555e+003;9.989610e-002
1.363483e+003;1.002683e-001
1.365412e+003;1.046358e-001
1.367341e+003;1.141031e-001
1.369269e+003;1.310564e-001
1.371198e+003;1.555394e-001
1.373126e+003;1.835432e-001
1.375055e+003;2.061509e-001
1.376983e+003;2.102698e-001
1.378912e+003;1.922886e-001
1.380840e+003;1.647376e-001
1.382769e+003;1.384530e-001
1.384698e+003;1.180200e-001
1.386626e+003;1.046869e-001
1.388555e+003;9.916653e-002
1.390483e+003;9.826046e-002
1.392412e+003;9.818315e-002
1.394340e+003;9.910218e-002
1.396269e+003;1.023741e-001
1.398197e+003;1.056840e-001
1.400126e+003;1.094080e-001
1.402054e+003;1.128147e-001
1.403983e+003;1.145170e-001
1.405911e+003;1.168158e-001
1.407840e+003;1.199186e-001
1.409769e+003;1.225935e-001
1.411697e+003;1.251104e-001
1.413626e+003;1.276253e-001
1.415554e+003;1.295879e-001
1.417483e+003;1.294113e-001
1.419411e+003;1.297577e-001
1.421340e+003;1.336139e-001
1.423268e+003;1.361796e-001
1.425197e+003;1.377812e-001
1.427125e+003;1.400848e-001
1.429054e+003;1.430440e-001
1.430983e+003;1.475926e-001
1.432911e+003;1.528500e-001
1.434840e+003;1.541226e-001
1.436768e+003;1.526164e-001
1.438697e+003;1.543045e-001
1.440625e+003;1.568313e-001
1.442554e+003;1.599715e-001
1.444482e+003;1.649992e-001
1.446411e+003;1.711391e-001
1.448340e+003;1.777591e-001
1.450268e+003;1.830774e-001
1.452197e+003;1.850338e-001
1.454125e+003;1.827959e-001
1.456054e+003;1.760133e-001
1.457982e+003;1.736178e-001
1.459911e+003;1.741024e-001
1.461839e+003;1.697794e-001
1.463768e+003;1.610328e-001
1.465697e+003;1.519575e-001
1.467625e+003;1.438302e-001
1.469554e+003;1.336243e-001
1.471482e+003;1.217941e-001
1.473411e+003;1.132836e-001
1.475339e+003;1.083402e-001
1.477268e+003;1.040169e-001
1.479196e+003;1.004900e-001
1.481125e+003;9.701171e-002
1.483053e+003;9.401182e-002
1.484982e+003;9.063957e-002
1.486911e+003;8.682659e-002
1.488839e+003;8.328692e-002
1.490768e+003;8.152185e-002
1.492696e+003;8.100068e-002
1.494625e+003;7.778323e-002
1.496553e+003;7.418931e-002
1.498482e+003;7.346479e-002
1.500410e+003;7.324883e-002
1.502339e+003;7.178953e-002
1.504267e+003;6.586220e-002
1.506196e+003;5.903205e-002
1.508125e+003;5.996317e-002
1.510053e+003;6.256511e-002
1.511982e+003;6.192119e-002
1.513910e+003;6.054340e-002
1.515839e+003;5.794291e-002
1.517767e+003;5.554444e-002
1.519696e+003;5.155109e-002
1.521624e+003;4.878239e-002
1.523553e+003;5.020598e-002
1.525481e+003;5.039177e-002
1.527410e+003;5.036286e-002
1.529339e+003;5.024920e-002
1.531267e+003;4.853578e-002
1.533196e+003;4.577207e-002
1.535124e+003;4.555597e-002
1.537053e+003;4.239441e-002
1.538981e+003;3.542753e-002
1.540910e+003;3.449853e-002
1.542838e+003;3.724506e-002
1.544767e+003;3.849649e-002
1.546695e+003;3.916978e-002
1.548624e+003;3.832683e-002
1.550553e+003;3.717340e-002
1.552481e+003;3.472585e-002
1.554410e+003;3.152421e-002
1.556338e+003;2.769959e-002
1.558267e+003;2.150648e-002
1.560195e+003;2.292725e-002
1.562124e+003;2.897298e-002
1.564052e+003;3.038613e-002
1.565981e+003;2.978365e-002
1.567910e+003;2.798737e-002
1.569838e+003;2.665651e-002
1.571767e+003;2.801738e-002
1.573695e+003;2.633712e-002
1.575624e+003;2.257903e-002
1.577552e+003;2.467465e-002
1.579481e+003;2.753251e-002
1.581409e+003;2.734855e-002
1.583338e+003;2.715737e-002
1.585266e+003;2.692996e-002
1.587195e+003;2.669537e-002
1.589124e+003;2.597894e-002
1.591052e+003;2.532494e-002
1.592981e+003;2.450943e-002
1.594909e+003;2.403193e-002
1.596838e+003;2.378585e-002
1.598766e+003;2.328952e-002
1.600695e+003;2.272250e-002
1.602623e+003;2.242933e-002
1.604552e+003;2.235638e-002
1.606480e+003;2.196508e-002
1.608409e+003;2.149503e-002
1.610338e+003;2.135054e-002
1.612266e+003;2.133839e-002
1.614195e+003;1.938701e-002
1.616123e+003;1.579405e-002
1.618052e+003;1.737486e-002
1.619980e+003;2.011090e-002
1.621909e+003;1.904947e-002
1.623837e+003;1.834785e-002
1.625766e+003;1.913520e-002
1.627694e+003;1.897612e-002
1.629623e+003;1.931433e-002
1.631552e+003;1.950243e-002
1.633480e+003;1.650089e-002
1.635409e+003;1.340128e-002
1.637337e+003;1.620149e-002
1.639266e+003;1.917329e-002
1.641194e+003;1.943950e-002
1.643123e+003;1.817016e-002
1.645051e+003;1.491073e-002
1.646980e+003;1.405778e-002
1.648909e+003;1.631569e-002
1.650837e+003;1.226547e-002
1.652766e+003;5.934544e-003
1.654694e+003;1.087996e-002
1.656623e+003;1.672996e-002
1.658551e+003;1.775182e-002
1.660480e+003;1.671088e-002
1.662408e+003;1.521446e-002
1.664337e+003;1.603723e-002
1.666266e+003;1.632023e-002
1.668194e+003;1.379249e-002
1.670123e+003;1.296710e-002
1.672051e+003;1.432033e-002
1.673980e+003;1.330991e-002
1.675908e+003;1.323257e-002
1.677837e+003;1.539458e-002
1.679765e+003;1.532792e-002
1.681694e+003;1.269046e-002
1.683622e+003;7.487391e-003
1.685551e+003;9.011371e-003
1.687479e+003;1.372447e-002
1.689408e+003;1.445462e-002
1.691337e+003;1.459862e-002
1.693265e+003;1.269630e-002
1.695194e+003;8.056017e-003
1.697122e+003;8.123700e-003
1.699051e+003;6.639362e-003
1.700979e+003;6.707094e-003
1.702908e+003;1.125197e-002
1.704836e+003;1.149894e-002
1.706765e+003;1.173894e-002
1.708693e+003;1.237827e-002
1.710622e+003;1.240306e-002
1.712551e+003;1.118774e-002
1.714479e+003;8.811928e-003
1.716408e+003;5.385227e-003
1.718336e+003;5.920101e-003
1.720265e+003;9.707515e-003
1.722193e+003;1.095209e-002
1.724122e+003;1.076904e-002
1.726050e+003;1.076371e-002
1.727979e+003;1.025175e-002
1.729908e+003;9.411546e-003
1.731836e+003;6.273868e-003
1.733765e+003;2.897341e-003
1.735693e+003;6.053065e-003
1.737622e+003;8.741840e-003
1.739550e+003;8.128054e-003
1.741479e+003;8.591590e-003
1.743407e+003;8.755499e-003
1.745336e+003;8.632384e-003
1.747265e+003;7.774495e-003
1.749193e+003;6.240152e-003
1.751122e+003;5.531384e-003
1.753050e+003;7.436154e-003
1.754979e+003;8.106044e-003
1.756907e+003;7.596221e-003
1.758836e+003;7.812142e-003
1.760764e+003;7.026244e-003
1.762693e+003;7.068440e-003
1.764621e+003;7.859003e-003
1.766550e+003;6.974220e-003
1.768479e+003;6.318882e-003
1.770407e+003;4.897184e-003
1.772336e+003;3.385544e-003
1.774264e+003;5.339470e-003
1.776193e+003;7.044967e-003
1.778121e+003;7.224295e-003
1.780050e+003;7.028029e-003
1.781978e+003;7.421964e-003
1.783907e+003;7.660359e-003
1.785835e+003;8.429230e-003
1.787764e+003;9.618852e-003
1.789693e+003;9.869472e-003
1.791621e+003;1.013129e-002
1.793550e+003;1.290931e-002
1.795478e+003;1.599250e-002
1.797407e+003;1.657599e-002
1.799335e+003;1.592774e-002
1.801264e+003;1.531182e-002
1.803192e+003;1.468618e-002
1.805121e+003;1.321816e-002
1.807049e+003;1.145481e-002
1.808978e+003;9.486281e-003
1.810907e+003;7.806474e-003
1.812835e+003;6.964557e-003
1.814764e+003;6.439190e-003
1.816692e+003;5.885741e-003
1.818621e+003;5.834055e-003
1.820549e+003;5.701896e-003
1.822478e+003;5.346984e-003
1.824406e+003;4.594294e-003
1.826335e+003;4.679559e-003
1.828264e+003;4.461943e-003
1.830192e+003;4.264210e-003
1.832121e+003;4.984921e-003
1.834049e+003;5.378148e-003
1.835978e+003;5.424344e-003
1.837906e+003;5.246094e-003
1.839835e+003;4.998093e-003
1.841763e+003;3.768200e-003
1.843692e+003;2.046800e-003
1.845620e+003;2.910517e-003
1.847549e+003;4.211412e-003
1.849478e+003;4.472822e-003
1.851406e+003;4.399748e-003
1.853335e+003;4.021619e-003
1.855263e+003;3.734879e-003
1.857192e+003;3.706707e-003
1.859120e+003;3.765927e-003
1.861049e+003;3.895459e-003
1.862977e+003;3.905891e-003
1.864906e+003;3.536843e-003
1.866834e+003;2.682149e-003
1.868763e+003;1.965213e-003
1.870692e+003;2.713456e-003
1.872620e+003;3.451635e-003
1.874549e+003;3.505710e-003
1.876477e+003;3.579837e-003
1.878406e+003;3.609505e-003
1.880334e+003;3.623637e-003
1.882263e+003;3.328813e-003
1.884191e+003;3.229225e-003
1.886120e+003;3.357061e-003
1.888048e+003;3.152755e-003
1.889977e+003;3.045900e-003
1.891906e+003;3.476851e-003
1.893834e+003;3.755500e-003
1.895763e+003;3.866809e-003
1.897691e+003;3.823485e-003
1.899620e+003;3.879446e-003
1.901548e+003;3.853270e-003
1.903477e+003;3.614950e-003
1.905405e+003;3.266447e-003
1.907334e+003;3.150018e-003
1.909262e+003;3.067756e-003
1.911191e+003;3.242144e-003
1.913120e+003;3.346276e-003
1.915048e+003;2.974600e-003
1.916977e+003;1.984418e-003
1.918905e+003;2.162034e-003
1.920834e+003;2.843742e-003
1.922762e+003;2.644311e-003
1.924691e+003;2.827099e-003
1.926619e+003;3.262574e-003
1.928548e+003;3.203355e-003
1.930477e+003;2.913586e-003
1.932405e+003;2.647811e-003
1.934334e+003;2.444038e-003
1.936262e+003;2.385464e-003
1.938191e+003;2.105262e-003
1.940119e+003;1.768780e-003
1.942048e+003;1.786147e-003
1.943976e+003;2.152910e-003
1.945905e+003;2.287125e-003
1.947833e+003;2.246923e-003
1.949762e+003;2.426512e-003
1.951691e+003;2.605675e-003
1.953619e+003;2.433542e-003
1.955548e+003;2.170626e-003
1.957476e+003;2.161968e-003
1.959405e+003;2.133231e-003
1.961333e+003;2.352249e-003
1.963262e+003;2.604242e-003
1.965190e+003;2.558678e-003
1.967119e+003;2.167629e-003
1.969047e+003;1.993605e-003
1.970976e+003;2.169627e-003
1.972905e+003;2.343021e-003
1.974833e+003;2.423713e-003
1.976762e+003;2.429277e-003
1.978690e+003;2.318103e-003
1.980619e+003;2.257447e-003
1.982547e+003;2.236332e-003
1.984476e+003;2.146151e-003
1.986404e+003;2.059484e-003
1.988333e+003;2.259079e-003
1.990261e+003;2.362410e-003
1.992190e+003;2.203560e-003
1.994119e+003;2.392594e-003
1.996047e+003;2.315272e-003
1.997976e+003;2.241560e-003
1.999904e+003;2.419015e-003
2.001833e+003;2.559644e-003
2.003761e+003;2.449870e-003
2.005690e+003;2.308310e-003
2.007618e+003;2.222710e-003
2.009547e+003;2.232068e-003
2.011476e+003;2.342355e-003
2.013404e+003;2.500055e-003
2.015333e+003;2.537547e-003
2.017261e+003;2.393127e-003
2.019190e+003;2.328663e-003
2.021118e+003;2.572610e-003
2.023047e+003;2.798752e-003
2.024975e+003;2.808990e-003
2.026904e+003;2.943675e-003
2.028833e+003;2.962356e-003
2.030761e+003;3.025179e-003
2.032690e+003;2.943041e-003
2.034618e+003;2.876361e-003
2.036547e+003;3.005894e-003
2.038475e+003;3.092283e-003
2.040404e+003;2.892104e-003
2.042332e+003;2.904613e-003
2.044261e+003;3.059814e-003
2.046189e+003;3.296193e-003
2.048118e+003;3.496992e-003
2.050047e+003;3.395863e-003
2.051975e+003;3.231795e-003
2.053904e+003;3.289549e-003
2.055832e+003;3.065687e-003
2.057761e+003;2.811291e-003
2.059689e+003;2.961422e-003
2.061618e+003;2.940939e-003
2.063546e+003;2.914419e-003
2.065475e+003;2.983241e-003
2.067404e+003;2.910817e-003
2.069332e+003;2.974099e-003
2.071260e+003;3.257967e-003
2.073189e+003;3.465428e-003
2.075118e+003;3.651771e-003
2.077046e+003;3.695512e-003
2.078975e+003;3.695679e-003
2.080903e+003;3.764089e-003
2.082832e+003;3.879044e-003
2.084760e+003;3.833480e-003
2.086689e+003;3.747679e-003
2.088617e+003;3.713090e-003
2.090546e+003;3.749384e-003
2.092475e+003;3.777291e-003
2.094403e+003;3.866708e-003
2.096332e+003;3.767465e-003
2.098260e+003;3.714861e-003
2.100189e+003;3.969552e-003
2.102117e+003;4.016904e-003
2.104046e+003;3.869115e-003
2.105974e+003;3.671318e-003
2.107903e+003;3.655847e-003
2.109832e+003;3.652506e-003
2.111760e+003;3.577331e-003
2.113688e+003;3.477152e-003
2.115617e+003;3.693941e-003
2.117546e+003;3.975872e-003
2.119474e+003;4.193111e-003
2.121403e+003;4.501379e-003
2.123331e+003;4.701866e-003
2.125260e+003;4.909382e-003
2.127188e+003;5.221043e-003
2.129117e+003;5.413441e-003
2.131045e+003;5.643853e-003
2.132974e+003;5.993868e-003
2.134903e+003;6.033142e-003
2.136831e+003;5.871031e-003
2.138760e+003;5.679940e-003
2.140688e+003;5.519471e-003
2.142617e+003;5.519168e-003
2.144545e+003;5.495444e-003
2.146474e+003;5.538700e-003
2.148402e+003;5.547291e-003
2.150331e+003;5.602534e-003
2.152260e+003;5.810749e-003
2.154188e+003;5.737450e-003
2.156117e+003;5.483129e-003
2.158045e+003;5.809339e-003
2.159974e+003;6.170174e-003
2.161902e+003;6.124436e-003
2.163831e+003;6.194138e-003
2.165759e+003;6.173737e-003
2.167688e+003;6.012547e-003
2.169616e+003;6.016175e-003
2.171545e+003;5.992189e-003
2.173474e+003;6.116875e-003
2.175402e+003;6.346384e-003
2.177331e+003;6.517418e-003
2.179259e+003;6.399476e-003
2.181188e+003;6.111129e-003
2.183116e+003;6.101149e-003
2.185045e+003;6.208086e-003
2.186973e+003;6.510119e-003
2.188902e+003;6.425604e-003
2.190831e+003;6.077022e-003
2.192759e+003;6.072049e-003
2.194688e+003;6.075275e-003
2.196616e+003;6.005929e-003
2.198545e+003;5.978314e-003
2.200473e+003;6.044431e-003
2.202402e+003;6.172090e-003
2.204330e+003;6.319050e-003
2.206259e+003;6.090732e-003
2.208188e+003;5.713512e-003
2.210116e+003;5.591659e-003
2.212044e+003;5.837312e-003
2.213973e+003;6.128334e-003
2.215902e+003;6.028102e-003
2.217830e+003;5.838655e-003
2.219759e+003;5.878587e-003
2.221687e+003;5.826600e-003
2.223616e+003;5.895447e-003
2.225544e+003;5.994574e-003
2.227473e+003;6.009826e-003
2.229401e+003;5.923930e-003
2.231330e+003;6.056761e-003
2.233259e+003;6.246035e-003
2.235187e+003;6.136231e-003
2.237116e+003;5.979624e-003
2.239044e+003;5.775458e-003
2.240973e+003;5.544304e-003
2.242901e+003;5.641303e-003
2.244830e+003;5.745474e-003
2.246758e+003;5.752391e-003
2.248687e+003;5.745071e-003
2.250615e+003;6.175820e-003
2.252544e+003;6.737514e-003
2.254473e+003;7.076119e-003
2.256401e+003;7.094541e-003
2.258330e+003;6.914964e-003
2.260258e+003;6.529661e-003
2.262187e+003;6.445041e-003
2.264115e+003;6.591926e-003
2.266044e+003;6.505310e-003
2.267972e+003;6.242471e-003
2.269901e+003;6.221329e-003
2.271830e+003;6.277835e-003
2.273758e+003;6.041273e-003
2.275687e+003;5.857261e-003
2.277615e+003;5.826465e-003
2.279544e+003;5.654662e-003
2.281472e+003;5.544673e-003
2.283401e+003;5.547962e-003
2.285329e+003;5.494941e-003
2.287258e+003;5.450783e-003
2.289187e+003;5.497893e-003
2.291115e+003;5.626298e-003
2.293043e+003;5.584242e-003
2.294972e+003;5.595754e-003
2.296901e+003;5.467861e-003
2.298829e+003;5.546620e-003
2.300758e+003;5.820723e-003
2.302686e+003;5.857093e-003
2.304615e+003;5.772403e-003
2.306543e+003;5.782677e-003
2.308472e+003;5.774249e-003
2.310400e+003;5.519739e-003
2.312329e+003;5.353358e-003
2.314258e+003;5.382073e-003
2.316186e+003;5.292578e-003
2.318115e+003;5.300494e-003
2.320043e+003;5.518967e-003
2.321972e+003;5.785196e-003
2.323900e+003;5.888764e-003
2.325829e+003;5.717507e-003
2.327757e+003;5.486048e-003
2.329686e+003;5.545982e-003
2.331615e+003;5.747388e-003
2.333543e+003;5.703843e-003
2.335472e+003;5.703238e-003
2.337400e+003;6.008314e-003
2.339329e+003;6.358286e-003
2.341257e+003;6.585736e-003
2.343186e+003;6.520815e-003
2.345114e+003;6.606795e-003
2.347043e+003;7.019004e-003
2.348971e+003;7.175818e-003
2.350900e+003;6.851441e-003
2.352829e+003;6.655916e-003
2.354757e+003;6.766355e-003
2.356686e+003;6.901330e-003
2.358614e+003;6.801727e-003
2.360543e+003;7.010922e-003
2.362471e+003;7.120745e-003
2.364400e+003;7.134453e-003
2.366328e+003;7.105016e-003
2.368257e+003;7.151801e-003
2.370186e+003;7.264118e-003
2.372114e+003;7.247305e-003
2.374042e+003;7.328443e-003
2.375971e+003;7.455536e-003
2.377900e+003;7.576969e-003
2.379828e+003;7.917679e-003
2.381757e+003;8.139837e-003
2.383685e+003;7.986724e-003
2.385614e+003;7.899459e-003
2.387542e+003;7.992664e-003
2.389471e+003;8.025976e-003
2.391399e+003;8.174814e-003
2.393328e+003;8.299386e-003
2.395257e+003;8.366364e-003
2.397185e+003;8.304655e-003
2.399114e+003;8.352954e-003
2.401042e+003;8.657970e-003
2.402971e+003;8.721454e-003
2.404899e+003;8.460752e-003
2.406828e+003;8.336403e-003
2.408756e+003;8.498627e-003
2.410685e+003;8.582432e-003
2.412614e+003;8.406428e-003
2.414542e+003;8.245690e-003
2.416471e+003;8.353089e-003
2.418399e+003;8.539074e-003
2.420328e+003;8.780112e-003
2.422256e+003;9.045471e-003
2.424185e+003;9.318847e-003
2.426113e+003;9.420316e-003
2.428042e+003;9.451198e-003
2.429970e+003;9.467960e-003
2.431899e+003;9.471686e-003
2.433828e+003;9.476461e-003
2.435756e+003;9.239775e-003
2.437685e+003;8.932388e-003
2.439613e+003;8.593348e-003
2.441542e+003;8.550530e-003
2.443470e+003;8.706782e-003
2.445399e+003;8.551037e-003
2.447327e+003;8.320022e-003
2.449256e+003;8.233973e-003
2.451185e+003;8.103680e-003
2.453113e+003;8.078498e-003
2.455042e+003;8.140545e-003
2.456970e+003;8.125421e-003
2.458899e+003;8.145576e-003
2.460827e+003;8.146454e-003
2.462756e+003;8.225902e-003
2.464684e+003;8.109082e-003
2.466613e+003;8.049333e-003
2.468542e+003;8.127886e-003
2.470470e+003;8.283784e-003
2.472398e+003;8.413150e-003
2.474327e+003;8.545563e-003
2.476256e+003;8.838033e-003
2.478184e+003;9.207521e-003
2.480113e+003;9.496408e-003
2.482041e+003;9.679562e-003
2.483970e+003;9.831442e-003
2.485898e+003;1.018875e-002
2.487827e+003;1.081439e-002
2.489755e+003;1.137954e-002
2.491684e+003;1.181428e-002
2.493613e+003;1.210773e-002
2.495541e+003;1.236324e-002
2.497470e+003;1.283729e-002
2.499398e+003;1.348587e-002
2.501327e+003;1.394168e-002
2.503255e+003;1.439814e-002
2.505184e+003;1.501921e-002
2.507112e+003;1.583680e-002
2.509041e+003;1.667941e-002
2.510969e+003;1.706838e-002
2.512898e+003;1.754346e-002
2.514827e+003;1.778106e-002
2.516755e+003;1.802518e-002
2.518684e+003;1.871057e-002
2.520612e+003;1.890693e-002
2.522541e+003;1.884762e-002
2.524469e+003;1.921745e-002
2.526398e+003;1.907021e-002
2.528326e+003;1.835735e-002
2.530255e+003;1.776197e-002
2.532184e+003;1.748999e-002
2.534112e+003;1.721139e-002
2.536041e+003;1.670437e-002
2.537969e+003;1.634287e-002
2.539898e+003;1.612422e-002
2.541826e+003;1.605263e-002
2.543755e+003;1.597950e-002
2.545683e+003;1.599057e-002
2.547612e+003;1.602853e-002
2.549541e+003;1.589969e-002
2.551469e+003;1.608870e-002
2.553397e+003;1.645573e-002
2.555326e+003;1.662112e-002
2.557255e+003;1.665775e-002
2.559183e+003;1.681829e-002
2.561112e+003;1.682205e-002
2.563040e+003;1.691809e-002
2.564969e+003;1.732689e-002
2.566897e+003;1.773004e-002
2.568826e+003;1.807187e-002
2.570754e+003;1.863448e-002
2.572683e+003;1.960873e-002
2.574612e+003;2.068848e-002
2.576540e+003;2.149604e-002
2.578469e+003;2.197062e-002
2.580397e+003;2.231455e-002
2.582326e+003;2.237741e-002
2.584254e+003;2.193218e-002
2.586183e+003;2.111616e-002
2.588111e+003;2.014511e-002
2.590040e+003;1.958031e-002
2.591969e+003;1.912810e-002
2.593897e+003;1.865824e-002
2.595826e+003;1.847427e-002
2.597754e+003;1.810562e-002
2.599683e+003;1.777457e-002
2.601611e+003;1.802445e-002
2.603540e+003;1.855967e-002
2.605468e+003;1.904338e-002
2.607397e+003;1.939078e-002
2.609325e+003;1.960690e-002
2.611254e+003;2.009722e-002
2.613183e+003;2.065134e-002
2.615111e+003;2.070256e-002
2.617040e+003;2.036903e-002
2.618968e+003;2.009177e-002
2.620897e+003;1.968240e-002
2.622825e+003;1.950001e-002
2.624754e+003;1.940336e-002
2.626682e+003;1.916695e-002
2.628611e+003;1.900364e-002
2.630540e+003;1.868774e-002
2.632468e+003;1.850065e-002
2.634396e+003;1.843738e-002
2.636325e+003;1.839455e-002
2.638254e+003;1.815347e-002
2.640182e+003;1.813868e-002
2.642111e+003;1.852672e-002
2.644039e+003;1.905020e-002
2.645968e+003;1.952901e-002
2.647896e+003;1.997404e-002
2.649825e+003;2.022401e-002
2.651753e+003;2.044919e-002
2.653682e+003;2.096209e-002
2.655611e+003;2.133564e-002
2.657539e+003;2.143933e-002
2.659468e+003;2.155394e-002
2.661396e+003;2.184764e-002
2.663325e+003;2.194957e-002
2.665253e+003;2.178486e-002
2.667182e+003;2.155345e-002
2.669110e+003;2.137135e-002
2.671039e+003;2.137775e-002
2.672968e+003;2.169798e-002
2.674896e+003;2.232446e-002
2.676825e+003;2.281228e-002
2.678753e+003;2.274736e-002
2.680682e+003;2.241963e-002
2.682610e+003;2.224563e-002
2.684539e+003;2.232606e-002
2.686467e+003;2.265139e-002
2.688396e+003;2.284081e-002
2.690324e+003;2.262329e-002
2.692253e+003;2.240780e-002
2.694182e+003;2.210601e-002
2.696110e+003;2.204734e-002
2.698039e+003;2.233733e-002
2.699967e+003;2.283766e-002
2.701896e+003;2.335455e-002
2.703824e+003;2.387195e-002
2.705753e+003;2.450540e-002
2.707681e+003;2.558275e-002
2.709610e+003;2.678195e-002
2.711539e+003;2.773428e-002
2.713467e+003;2.871563e-002
2.715396e+003;2.989296e-002
2.717324e+003;3.178680e-002
2.719253e+003;3.386264e-002
2.721181e+003;3.520050e-002
2.723110e+003;3.573092e-002
2.725038e+003;3.549311e-002
2.726967e+003;3.455295e-002
2.728896e+003;3.306735e-002
2.730824e+003;3.172873e-002
2.732752e+003;3.041267e-002
2.734681e+003;2.911926e-002
2.736610e+003;2.827545e-002
2.738538e+003;2.768797e-002
2.740467e+003;2.687172e-002
2.742395e+003;2.597665e-002
2.744324e+003;2.501859e-002
2.746252e+003;2.444679e-002
2.748181e+003;2.426462e-002
2.750109e+003;2.397254e-002
2.752038e+003;2.386243e-002
2.753967e+003;2.401197e-002
2.755895e+003;2.435780e-002
2.757824e+003;2.492520e-002
2.759752e+003;2.514293e-002
2.761681e+003;2.563955e-002
2.763609e+003;2.653819e-002
2.765538e+003;2.683422e-002
2.767466e+003;2.707470e-002
2.769395e+003;2.758275e-002
2.771323e+003;2.803371e-002
2.773252e+003;2.839103e-002
2.775181e+003;2.868894e-002
2.777109e+003;2.933449e-002
2.779038e+003;3.055161e-002
2.780966e+003;3.165175e-002
2.782895e+003;3.303775e-002
2.784823e+003;3.488057e-002
2.786752e+003;3.658837e-002
2.788680e+003;3.811897e-002
2.790609e+003;3.980950e-002
2.792538e+003;4.147810e-002
2.794466e+003;4.283059e-002
2.796395e+003;4.397651e-002
2.798323e+003;4.550184e-002
2.800252e+003;4.717481e-002
2.802180e+003;4.922170e-002
2.804109e+003;5.171689e-002
2.806037e+003;5.399838e-002
2.807966e+003;5.579827e-002
2.809895e+003;5.724652e-002
2.811823e+003;5.897033e-002
2.813751e+003;6.124140e-002
2.815680e+003;6.340852e-002
2.817609e+003;6.552316e-002
2.819537e+003;6.825306e-002
2.821466e+003;7.141303e-002
2.823394e+003;7.515161e-002
2.825323e+003;7.990114e-002
2.827251e+003;8.605852e-002
2.829180e+003;9.372047e-002
2.831108e+003;1.028520e-001
2.833037e+003;1.124329e-001
2.834966e+003;1.202198e-001
2.836894e+003;1.245308e-001
2.838823e+003;1.244480e-001
2.840751e+003;1.212396e-001
2.842680e+003;1.169314e-001
2.844608e+003;1.121675e-001
2.846537e+003;1.074240e-001
2.848465e+003;1.039660e-001
2.850394e+003;1.019678e-001
2.852323e+003;1.006142e-001
2.854251e+003;9.963346e-002
2.856180e+003;1.000485e-001
2.858108e+003;1.028849e-001
2.860037e+003;1.081772e-001
2.861965e+003;1.153991e-001
2.863894e+003;1.233984e-001
2.865822e+003;1.299493e-001
2.867751e+003;1.335398e-001
2.869679e+003;1.353351e-001
2.871608e+003;1.366877e-001
2.873536e+003;1.376108e-001
2.875465e+003;1.376438e-001
2.877394e+003;1.363638e-001
2.879322e+003;1.343507e-001
2.881251e+003;1.329016e-001
2.883179e+003;1.324248e-001
2.885108e+003;1.321299e-001
2.887036e+003;1.326044e-001
2.888965e+003;1.343447e-001
2.890893e+003;1.367966e-001
2.892822e+003;1.395517e-001
2.894750e+003;1.431726e-001
2.896679e+003;1.478004e-001
2.898608e+003;1.532034e-001
2.900536e+003;1.588959e-001
2.902465e+003;1.643517e-001
2.904393e+003;1.700331e-001
2.906322e+003;1.755133e-001
2.908250e+003;1.802389e-001
2.910179e+003;1.842238e-001
2.912107e+003;1.877177e-001
2.914036e+003;1.907890e-001
2.915965e+003;1.921117e-001
2.917893e+003;1.915354e-001
2.919822e+003;1.888352e-001
2.921750e+003;1.840504e-001
2.923679e+003;1.780063e-001
2.925607e+003;1.712456e-001
2.927536e+003;1.640707e-001
2.929464e+003;1.560906e-001
2.931393e+003;1.473225e-001
2.933322e+003;1.390243e-001
2.935250e+003;1.317834e-001
2.937178e+003;1.260578e-001
2.939107e+003;1.223729e-001
2.941036e+003;1.218764e-001
2.942964e+003;1.254669e-001
2.944893e+003;1.320187e-001
2.946821e+003;1.395176e-001
2.948750e+003;1.461128e-001
2.950678e+003;1.503070e-001
2.952607e+003;1.513644e-001
2.954535e+003;1.498778e-001
2.956464e+003;1.472652e-001
2.958393e+003;1.434877e-001
2.960321e+003;1.383877e-001
2.962250e+003;1.318289e-001
2.964178e+003;1.243975e-001
2.966107e+003;1.169316e-001
2.968035e+003;1.097178e-001
2.969964e+003;1.027549e-001
2.971892e+003;9.599156e-002
2.973821e+003;8.976115e-002
2.975750e+003;8.447283e-002
2.977678e+003;7.976603e-002
2.979607e+003;7.536822e-002
2.981535e+003;7.155002e-002
2.983464e+003;6.835849e-002
2.985392e+003;6.501833e-002
2.987321e+003;6.151256e-002
2.989249e+003;5.862483e-002
2.991178e+003;5.598929e-002
2.993106e+003;5.349567e-002
2.995035e+003;5.125730e-002
2.996964e+003;4.915480e-002
2.998892e+003;4.711590e-002
3.000821e+003;4.467624e-002
3.002749e+003;4.214807e-002
3.004678e+003;3.979436e-002
3.006606e+003;3.750101e-002
3.008535e+003;3.559570e-002
3.010463e+003;3.394504e-002
3.012392e+003;3.215251e-002
3.014321e+003;3.055129e-002
3.016249e+003;2.934973e-002
3.018177e+003;2.800299e-002
3.020106e+003;2.662569e-002
3.022035e+003;2.527440e-002
3.023963e+003;2.382757e-002
3.025892e+003;2.298541e-002
3.027820e+003;2.246586e-002
3.029749e+003;2.167931e-002
3.031677e+003;2.079744e-002
3.033606e+003;2.001818e-002
3.035534e+003;1.931578e-002
3.037463e+003;1.834069e-002
3.039392e+003;1.779998e-002
3.041320e+003;1.771075e-002
3.043249e+003;1.734900e-002
3.045177e+003;1.652157e-002
3.047106e+003;1.621693e-002
3.049034e+003;1.614743e-002
3.050963e+003;1.585883e-002
3.052891e+003;1.541731e-002
3.054820e+003;1.515290e-002
3.056749e+003;1.501774e-002
3.058677e+003;1.471823e-002
3.060606e+003;1.443486e-002
3.062534e+003;1.410642e-002
3.064463e+003;1.362688e-002
3.066391e+003;1.323154e-002
3.068320e+003;1.273836e-002
3.070248e+003;1.257789e-002
3.072177e+003;1.280965e-002
3.074105e+003;1.307547e-002
3.076034e+003;1.303142e-002
3.077963e+003;1.258717e-002
3.079891e+003;1.201977e-002
3.081820e+003;1.183147e-002
3.083748e+003;1.188095e-002
3.085677e+003;1.188303e-002
3.087605e+003;1.199855e-002
3.089534e+003;1.212763e-002
3.091462e+003;1.200642e-002
3.093391e+003;1.175589e-002
3.095320e+003;1.143937e-002
3.097248e+003;1.138100e-002
3.099177e+003;1.140243e-002
3.101105e+003;1.123272e-002
3.103034e+003;1.120515e-002
3.104962e+003;1.121344e-002
3.106891e+003;1.123412e-002
3.108819e+003;1.114205e-002
3.110748e+003;1.109116e-002
3.112677e+003;1.123602e-002
3.114605e+003;1.119740e-002
3.116533e+003;1.122191e-002
3.118462e+003;1.128335e-002
3.120391e+003;1.136151e-002
3.122319e+003;1.138722e-002
3.124248e+003;1.124782e-002
3.126176e+003;1.145628e-002
3.128105e+003;1.172529e-002
3.130033e+003;1.180890e-002
3.131962e+003;1.203496e-002
3.133890e+003;1.194460e-002
3.135819e+003;1.152106e-002
3.137748e+003;1.132141e-002
3.139676e+003;1.146206e-002
3.141605e+003;1.158744e-002
3.143533e+003;1.178428e-002
3.145462e+003;1.205050e-002
3.147390e+003;1.213417e-002
3.149319e+003;1.232894e-002
3.151247e+003;1.226629e-002
3.153176e+003;1.167133e-002
3.155104e+003;1.162763e-002
3.157033e+003;1.172512e-002
3.158962e+003;1.226128e-002
3.160890e+003;1.257421e-002
3.162819e+003;1.207111e-002
3.164747e+003;1.167804e-002
3.166676e+003;1.148397e-002
3.168604e+003;1.136328e-002
3.170533e+003;1.159816e-002
3.172461e+003;1.154082e-002
3.174390e+003;1.117723e-002
3.176319e+003;1.123191e-002
3.178247e+003;1.145805e-002
3.180176e+003;1.147203e-002
3.182104e+003;1.149755e-002
3.184033e+003;1.143155e-002
3.185961e+003;1.192805e-002
3.187890e+003;1.198448e-002
3.189818e+003;1.170003e-002
3.191747e+003;1.181595e-002
3.193676e+003;1.195478e-002
3.195604e+003;1.175541e-002
3.197532e+003;1.150993e-002
3.199461e+003;1.185660e-002
3.201390e+003;1.225672e-002
3.203318e+003;1.183808e-002
3.205247e+003;1.135977e-002
3.207175e+003;1.126880e-002
3.209104e+003;1.127887e-002
3.211032e+003;1.126724e-002
3.212961e+003;1.110880e-002
3.214889e+003;1.089385e-002
3.216818e+003;1.059090e-002
3.218747e+003;1.027475e-002
3.220675e+003;9.936930e-003
3.222604e+003;9.877031e-003
3.224532e+003;9.877404e-003
3.226461e+003;9.495154e-003
3.228389e+003;9.255954e-003
3.230318e+003;9.385847e-003
3.232246e+003;9.485909e-003
3.234175e+003;8.678117e-003
3.236104e+003;7.835994e-003
3.238032e+003;7.583981e-003
3.239961e+003;7.864604e-003
3.241889e+003;8.086059e-003
3.243818e+003;7.692128e-003
3.245746e+003;7.401236e-003
3.247675e+003;7.405955e-003
3.249603e+003;7.112931e-003
3.251532e+003;7.292556e-003
3.253460e+003;7.679919e-003
3.255389e+003;7.345393e-003
3.257318e+003;7.207147e-003
3.259246e+003;7.154024e-003
3.261175e+003;6.708103e-003
3.263103e+003;6.574736e-003
3.265032e+003;6.602590e-003
3.266960e+003;6.016579e-003
3.268889e+003;5.825492e-003
3.270817e+003;6.300493e-003
3.272746e+003;6.738928e-003
3.274675e+003;6.838448e-003
3.276603e+003;6.772009e-003
3.278531e+003;6.666615e-003
3.280460e+003;6.535077e-003
3.282389e+003;6.561650e-003
3.284317e+003;6.408252e-003
3.286246e+003;6.230203e-003
3.288174e+003;6.483347e-003
3.290103e+003;6.783856e-003
3.292031e+003;6.973311e-003
3.293960e+003;6.940012e-003
3.295888e+003;6.505074e-003
3.297817e+003;6.027430e-003
3.299746e+003;6.281297e-003
3.301674e+003;6.832894e-003
3.303603e+003;6.722775e-003
3.305531e+003;6.275313e-003
3.307460e+003;6.091774e-003
3.309388e+003;6.167452e-003
3.311317e+003;6.033075e-003
3.313245e+003;5.954262e-003
3.315174e+003;6.212187e-003
3.317103e+003;6.399745e-003
3.319031e+003;6.317840e-003
3.320960e+003;6.288760e-003
3.322888e+003;6.272490e-003
3.324817e+003;6.159286e-003
3.326745e+003;6.356538e-003
3.328674e+003;6.469592e-003
3.330602e+003;6.098393e-003
3.332531e+003;6.056560e-003
3.334459e+003;6.406403e-003
3.336388e+003;6.642255e-003
3.338317e+003;6.838549e-003
3.340245e+003;6.939877e-003
3.342174e+003;6.730481e-003
3.344102e+003;6.716886e-003
3.346031e+003;6.729236e-003
3.347959e+003;6.894900e-003
3.349888e+003;7.109461e-003
3.351816e+003;6.874096e-003
3.353745e+003;6.426613e-003
3.355674e+003;6.311822e-003
3.357602e+003;6.416659e-003
3.359531e+003;6.291819e-003
3.361459e+003;6.313503e-003
3.363388e+003;6.606661e-003
3.365316e+003;6.720015e-003
3.367245e+003;6.708574e-003
3.369173e+003;6.864939e-003
3.371102e+003;6.653560e-003
3.373031e+003;6.078266e-003
3.374959e+003;6.008885e-003
3.376887e+003;6.091673e-003
3.378816e+003;6.061499e-003
3.380745e+003;6.393322e-003
3.382673e+003;6.450523e-003
3.384602e+003;5.958999e-003
3.386530e+003;5.746011e-003
3.388459e+003;6.094663e-003
3.390387e+003;6.314545e-003
3.392316e+003;6.221194e-003
3.394244e+003;6.321706e-003
3.396173e+003;6.344972e-003
3.398102e+003;6.360707e-003
3.400030e+003;5.883054e-003
3.401959e+003;5.441019e-003
3.403887e+003;5.426760e-003
3.405816e+003;5.671010e-003
3.407744e+003;5.886413e-003
3.409673e+003;5.788419e-003
3.411601e+003;5.476485e-003
3.413530e+003;5.539136e-003
3.415458e+003;6.275985e-003
3.417387e+003;6.783451e-003
3.419316e+003;6.042953e-003
3.421244e+003;5.563971e-003
3.423173e+003;5.736846e-003
3.425101e+003;5.329440e-003
3.427030e+003;4.894336e-003
3.428958e+003;5.074420e-003
3.430887e+003;5.205047e-003
3.432815e+003;5.172856e-003
3.434744e+003;4.970476e-003
3.436673e+003;5.084913e-003
3.438601e+003;5.382408e-003
3.440530e+003;5.223893e-003
3.442458e+003;5.156325e-003
3.444387e+003;5.175170e-003
3.446315e+003;4.368688e-003
3.448244e+003;4.044360e-003
3.450172e+003;4.256514e-003
3.452101e+003;3.936483e-003
3.454030e+003;3.579302e-003
3.455958e+003;3.621666e-003
3.457886e+003;3.987643e-003
3.459815e+003;4.230483e-003
3.461744e+003;3.751055e-003
3.463672e+003;3.005861e-003
3.465601e+003;2.700286e-003
3.467529e+003;2.848044e-003
3.469458e+003;3.270620e-003
3.471386e+003;3.731771e-003
3.473315e+003;3.751021e-003
3.475243e+003;3.509184e-003
3.477172e+003;3.475482e-003
3.479101e+003;3.285810e-003
3.481029e+003;2.969696e-003
3.482958e+003;2.567710e-003
3.484886e+003;2.230636e-003
3.486815e+003;2.731727e-003
3.488743e+003;3.210999e-003
3.490672e+003;2.955250e-003
3.492600e+003;2.509619e-003
3.494529e+003;2.364575e-003
3.496458e+003;2.340189e-003
3.498386e+003;2.716023e-003
3.500315e+003;2.888969e-003
3.502243e+003;2.565311e-003
3.504172e+003;2.561877e-003
3.506100e+003;2.682516e-003
3.508029e+003;1.892459e-003
3.509957e+003;1.622819e-003
3.511886e+003;2.306511e-003
3.513814e+003;2.568310e-003
3.515743e+003;2.183946e-003
3.517672e+003;2.209455e-003
3.519600e+003;2.260412e-003
3.521529e+003;1.954762e-003
3.523457e+003;2.020268e-003
3.525386e+003;2.278131e-003
3.527314e+003;1.814494e-003
3.529243e+003;1.676601e-003
3.531171e+003;2.103864e-003
3.533100e+003;2.486391e-003
3.535029e+003;2.380000e-003
3.536957e+003;1.885737e-003
3.538885e+003;1.488444e-003
3.540814e+003;1.656444e-003
3.542743e+003;1.511884e-003
3.544671e+003;1.207159e-003
3.546600e+003;1.317285e-003
3.548528e+003;1.798890e-003
3.550457e+003;1.655912e-003
3.552385e+003;1.261952e-003
3.554314e+003;1.522092e-003
3.556242e+003;1.470058e-003
3.558171e+003;1.093507e-003
3.560100e+003;1.152106e-003
3.562028e+003;1.390806e-003
3.563957e+003;7.840291e-004
3.565885e+003;-8.649637e-004
3.567814e+003;-9.379719e-004
3.569742e+003;7.496747e-004
3.571671e+003;1.419327e-003
3.573599e+003;1.129516e-003
3.575528e+003;1.249558e-003
3.577457e+003;1.542342e-003
3.579385e+003;1.201710e-003
3.581314e+003;8.390349e-004
3.583242e+003;6.713504e-004
3.585171e+003;-4.795161e-004
3.587099e+003;-1.701871e-003
3.589028e+003;-9.797610e-004
3.590956e+003;6.832776e-005
3.592885e+003;1.723975e-004
3.594813e+003;1.859218e-004
3.596742e+003;3.918874e-004
3.598671e+003;5.392930e-004
3.600599e+003;5.122561e-004
3.602528e+003;9.724122e-004
3.604456e+003;7.017492e-004
3.606385e+003;-8.272644e-004
3.608313e+003;-1.578549e-003
3.610242e+003;-8.736605e-004
3.612170e+003;-8.817620e-004
3.614099e+003;-9.770831e-004
3.616028e+003;-1.003794e-003
3.617956e+003;-1.708736e-003
3.619885e+003;-1.476822e-003
3.621813e+003;-1.266198e-004
3.623742e+003;5.315025e-005
3.625670e+003;-1.289020e-003
3.627599e+003;-4.256118e-003
3.629527e+003;-4.049163e-003
3.631456e+003;-8.735944e-004
3.633385e+003;1.856566e-004
3.635313e+003;4.643566e-004
3.637241e+003;5.118912e-004
3.639170e+003;4.861827e-004
3.641099e+003;4.804110e-004
3.643027e+003;1.865486e-005
3.644956e+003;-1.262987e-003
3.646884e+003;-3.584616e-003
3.648813e+003;-5.210358e-003
3.650741e+003;-3.810054e-003
3.652670e+003;-1.192578e-003
3.654598e+003;-1.468500e-003
3.656527e+003;-1.740848e-003
3.658456e+003;-2.654550e-004
3.660384e+003;6.522693e-004
3.662313e+003;7.823362e-004
3.664241e+003;8.398648e-004
3.666170e+003;6.825672e-004
3.668098e+003;-1.949499e-003
3.670027e+003;-4.274721e-003
3.671955e+003;-2.884558e-003
3.673884e+003;-4.404857e-003
3.675813e+003;-5.102110e-003
3.677741e+003;-1.378208e-003
3.679669e+003;4.333443e-004
3.681598e+003;1.054411e-003
3.683527e+003;1.105100e-003
3.685455e+003;-2.923095e-004
3.687384e+003;-3.571569e-003
3.689312e+003;-3.607914e-003
3.691241e+003;-1.331502e-003
3.693169e+003;6.554218e-004
3.695098e+003;1.404501e-003
3.697026e+003;1.324463e-003
3.698955e+003;8.587882e-004
3.700884e+003;-2.888990e-004
3.702812e+003;3.038498e-005
3.704741e+003;1.068295e-003
3.706669e+003;7.465880e-004
3.708598e+003;-9.902407e-004
3.710526e+003;-2.319539e-003
3.712455e+003;-1.397860e-003
3.714383e+003;5.130190e-004
3.716312e+003;9.139363e-004
3.718240e+003;7.679635e-004
3.720169e+003;2.840848e-004
3.722098e+003;1.574815e-004
3.724026e+003;-2.504861e-005
3.725955e+003;-4.034183e-004
3.727883e+003;3.744103e-004
3.729812e+003;-2.942300e-004
3.731740e+003;-2.359185e-003
3.733669e+003;-3.214863e-003
3.735597e+003;-3.993584e-003
3.737526e+003;-1.795264e-003
3.739455e+003;4.026326e-004
3.741383e+003;-1.284627e-003
3.743312e+003;-6.418281e-003
3.745240e+003;-5.307811e-003
3.747169e+003;-2.869022e-003
3.749097e+003;-5.931521e-003
3.751026e+003;-6.010218e-003
3.752954e+003;-2.543560e-003
3.754883e+003;5.336201e-004
3.756812e+003;4.753359e-004
3.758740e+003;-3.697601e-005
3.760668e+003;6.429779e-004
3.762597e+003;1.482625e-003
3.764526e+003;7.746354e-004
3.766454e+003;9.988800e-004
3.768383e+003;4.826998e-004
3.770311e+003;6.780871e-004
3.772240e+003;1.858949e-003
3.774168e+003;2.191638e-003
3.776097e+003;1.635657e-003
3.778025e+003;9.996438e-004
3.779954e+003;9.818766e-004
3.781883e+003;1.732884e-003
3.783811e+003;1.839749e-003
3.785740e+003;2.036647e-003
3.787668e+003;2.496622e-003
3.789597e+003;3.000022e-003
3.791525e+003;2.570244e-003
3.793454e+003;1.796494e-003
3.795382e+003;6.103601e-004
3.797311e+003;4.734120e-004
3.799240e+003;-1.322418e-003
3.801168e+003;-3.303360e-003
3.803097e+003;-5.694657e-004
3.805025e+003;-2.504874e-004
3.806954e+003;-1.058270e-003
3.808882e+003;1.205099e-003
3.810811e+003;2.013877e-003
3.812739e+003;1.255506e-003
3.814668e+003;-1.630741e-003
3.816596e+003;-1.754213e-003
3.818525e+003;-8.251809e-004
3.820454e+003;-2.672305e-003
3.822382e+003;-1.051262e-003
3.824311e+003;1.411017e-003
3.826239e+003;1.731354e-003
3.828168e+003;1.928036e-003
3.830096e+003;1.413443e-003
3.832025e+003;7.789505e-004
3.833953e+003;-5.475592e-004
3.835882e+003;-3.051206e-003
3.837811e+003;-4.080281e-003
3.839739e+003;-1.906088e-003
3.841667e+003;-2.661173e-004
3.843596e+003;4.961342e-004
3.845525e+003;1.632730e-003
3.847453e+003;2.117448e-003
3.849382e+003;-3.230449e-005
3.851310e+003;-5.208885e-003
3.853239e+003;-9.153417e-003
3.855167e+003;-5.056458e-003
3.857096e+003;1.500237e-004
3.859024e+003;1.500413e-003
3.860953e+003;1.496590e-003
3.862882e+003;9.514915e-004
3.864810e+003;3.685737e-004
3.866739e+003;2.858752e-004
3.868667e+003;-1.469854e-003
3.870596e+003;-1.225422e-003
3.872524e+003;1.957669e-004
3.874453e+003;9.318668e-004
3.876381e+003;2.307211e-003
3.878310e+003;1.659571e-003
3.880239e+003;5.007451e-004
3.882167e+003;8.220710e-004
3.884096e+003;-2.510834e-004
3.886024e+003;1.322249e-004
3.887953e+003;2.447004e-003
3.889881e+003;1.840281e-003
3.891810e+003;1.506198e-003
3.893738e+003;2.666513e-003
3.895667e+003;2.814226e-003
3.897595e+003;1.269562e-003
3.899524e+003;-7.600283e-005
3.901453e+003;1.176274e-005
3.903381e+003;1.932476e-004
3.905310e+003;1.167721e-003
3.907238e+003;2.433176e-003
3.909167e+003;3.318062e-003
3.911095e+003;3.956913e-003
3.913024e+003;3.621332e-003
3.914952e+003;2.926328e-003
3.916881e+003;2.639610e-003
3.918810e+003;2.744431e-003
3.920738e+003;3.071059e-003
3.922667e+003;3.313888e-003
3.924595e+003;3.068590e-003
3.926524e+003;3.335958e-003
3.928452e+003;3.827429e-003
3.930381e+003;3.651704e-003
3.932309e+003;3.141841e-003
3.934238e+003;3.520407e-003
3.936167e+003;3.960123e-003
3.938095e+003;3.821814e-003
3.940023e+003;3.553746e-003
3.941952e+003;3.212701e-003
3.943881e+003;3.257567e-003
3.945809e+003;3.640611e-003
3.947738e+003;3.823953e-003
3.949666e+003;3.895092e-003
3.951595e+003;4.199769e-003
3.953523e+003;4.372503e-003
3.955452e+003;4.293456e-003
3.957380e+003;4.292017e-003
3.959309e+003;3.961193e-003
3.961238e+003;3.221581e-003
3.963166e+003;3.082705e-003
3.965095e+003;3.659055e-003
3.967023e+003;4.233661e-003
3.968952e+003;4.257484e-003
3.970880e+003;4.090582e-003
3.972809e+003;4.038641e-003
3.974737e+003;3.720141e-003
3.976666e+003;3.446224e-003
3.978594e+003;3.532466e-003
3.980523e+003;4.052521e-003
3.982452e+003;4.273880e-003
3.984380e+003;4.389406e-003
3.986309e+003;4.846822e-003
3.988237e+003;4.965918e-003
3.990166e+003;5.283355e-003
3.992094e+003;5.750376e-003
3.994023e+003;5.523531e-003
3.995951e+003;5.033389e-003
3.997880e+003;4.668037e-003
3.999809e+003;5.000172e-003
4.001737e+003;0.000000e+000
