3.992094e+002;0.000000e+000
4.011380e+002;0.000000e+000
4.030665e+002;0.000000e+000
4.049951e+002;0.000000e+000
4.069236e+002;0.000000e+000
4.088522e+002;0.000000e+000
4.107807e+002;0.000000e+000
4.127093e+002;0.000000e+000
4.146378e+002;0.000000e+000
4.165664e+002;0.000000e+000
4.184949e+002;0.000000e+000
4.204235e+002;0.000000e+000
4.223520e+002;0.000000e+000
4.242806e+002;0.000000e+000
4.262091e+002;0.000000e+000
4.281377e+002;0.000000e+000
4.300662e+002;0.000000e+000
4.319948e+002;0.000000e+000
4.339233e+002;0.000000e+000
4.358519e+002;0.000000e+000
4.377804e+002;0.000000e+000
4.397090e+002;0.000000e+000
4.416375e+002;0.000000e+000
4.435660e+002;0.000000e+000
4.454946e+002;0.000000e+000
4.474232e+002;0.000000e+000
4.493517e+002;0.000000e+000
4.512802e+002;0.000000e+000
4.532088e+002;0.000000e+000
4.551373e+002;0.000000e+000
4.570659e+002;0.000000e+000
4.589944e+002;0.000000e+000
4.609230e+002;0.000000e+000
4.628515e+002;0.000000e+000
4.647801e+002;0.000000e+000
4.667086e+002;0.000000e+000
4.686372e+002;0.000000e+000
4.705657e+002;0.000000e+000
4.724943e+002;0.000000e+000
4.744228e+002;0.000000e+000
4.763513e+002;0.000000e+000
4.782799e+002;0.000000e+000
4.802085e+002;0.000000e+000
4.821370e+002;0.000000e+000
4.840656e+002;0.000000e+000
4.859941e+002;0.000000e+000
4.879226e+002;0.000000e+000
4.898512e+002;0.000000e+000
4.917798e+002;0.000000e+000
4.937083e+002;0.000000e+000
4.956368e+002;0.000000e+000
4.975654e+002;0.000000e+000
4.994939e+002;0.000000e+000
5.014225e+002;0.000000e+000
5.033510e+002;0.000000e+000
5.052796e+002;0.000000e+000
5.072081e+002;0.000000e+000
5.091367e+002;0.000000e+000
5.110652e+002;0.000000e+000
5.129938e+002;0.000000e+000
5.149223e+002;0.000000e+000
5.168509e+002;0.000000e+000
5.187794e+002;0.000000e+000
5.207079e+002;0.000000e+000
5.226365e+002;0.000000e+000
5.245651e+002;0.000000e+000
5.264936e+002;0.000000e+000
5.284222e+002;0.000000e+000
5.303507e+002;0.000000e+000
5.322792e+002;0.000000e+000
5.342078e+002;0.000000e+000
5.361364e+002;0.000000e+000
5.380649e+002;0.000000e+000
5.399935e+002;0.000000e+000
5.419220e+002;0.000000e+000
5.438505e+002;0.000000e+000
5.457791e+002;0.000000e+000
5.477076e+002;0.000000e+000
5.496362e+002;0.000000e+000
5.515648e+002;0.000000e+000
5.534933e+002;0.000000e+000
5.554218e+002;0.000000e+000
5.573504e+002;0.000000e+000
5.592789e+002;0.000000e+000
5.612075e+002;0.000000e+000
5.631360e+002;0.000000e+000
5.650646e+002;0.000000e+000
5.669931e+002;0.000000e+000
5.689217e+002;0.000000e+000
5.708502e+002;0.000000e+000
5.727787e+002;0.000000e+000
5.747073e+002;0.000000e+000
5.766359e+002;0.000000e+000
5.785644e+002;0.000000e+000
5.804930e+002;0.000000e+000
5.824215e+002;0.000000e+000
5.843500e+002;0.000000e+000
5.862786e+002;0.000000e+000
5.882072e+002;0.000000e+000
5.901357e+002;0.000000e+000
5.920643e+002;0.000000e+000
5.939928e+002;0.000000e+000
5.959213e+002;0.000000e+000
5.978499e+002;0.000000e+000
5.997784e+002;3.132484e-002
6.017070e+002;2.997397e-002
6.036355e+002;3.373252e-002
6.055641e+002;3.716911e-002
6.074926e+002;4.208524e-002
6.094211e+002;4.152772e-002
6.113497e+002;4.085510e-002
6.132783e+002;4.030796e-002
6.152068e+002;4.001727e-002
6.171354e+002;3.876986e-002
6.190639e+002;3.625428e-002
6.209924e+002;3.522051e-002
6.229210e+002;3.872689e-002
6.248495e+002;4.364687e-002
6.267781e+002;4.242787e-002
6.287067e+002;3.895089e-002
6.306352e+002;3.617360e-002
6.325637e+002;3.489077e-002
6.344923e+002;3.759480e-002
6.364208e+002;3.559783e-002
6.383494e+002;3.447891e-002
6.402780e+002;3.793510e-002
6.422065e+002;4.245418e-002
6.441350e+002;4.105001e-002
6.460636e+002;3.740584e-002
6.479921e+002;3.648717e-002
6.499207e+002;3.653398e-002
6.518492e+002;3.418834e-002
6.537778e+002;3.523812e-002
6.557063e+002;3.490574e-002
6.576349e+002;3.236476e-002
6.595634e+002;3.264529e-002
6.614919e+002;3.571983e-002
6.634205e+002;3.704391e-002
6.653491e+002;3.579809e-002
6.672776e+002;3.416780e-002
6.692062e+002;3.349778e-002
6.711347e+002;3.343930e-002
6.730632e+002;3.272502e-002
6.749918e+002;3.147605e-002
6.769203e+002;3.130854e-002
6.788489e+002;3.262182e-002
6.807775e+002;3.401046e-002
6.827060e+002;3.390763e-002
6.846345e+002;3.257303e-002
6.865631e+002;3.199127e-002
6.884916e+002;3.237236e-002
6.904202e+002;3.168899e-002
6.923488e+002;3.111735e-002
6.942773e+002;3.182926e-002
6.962058e+002;3.271838e-002
6.981344e+002;3.292035e-002
7.000629e+002;3.216961e-002
7.019915e+002;3.101082e-002
7.039200e+002;3.090849e-002
7.058486e+002;3.062787e-002
7.077771e+002;3.081504e-002
7.097057e+002;3.125544e-002
7.116342e+002;3.187900e-002
7.135627e+002;3.241741e-002
7.154913e+002;3.187594e-002
7.174199e+002;3.161376e-002
7.193484e+002;3.220436e-002
7.212770e+002;3.189252e-002
7.232055e+002;3.083624e-002
7.251340e+002;2.925743e-002
7.270626e+002;2.913361e-002
7.289911e+002;3.033282e-002
7.309197e+002;3.100285e-002
7.328483e+002;2.976577e-002
7.347768e+002;2.854486e-002
7.367053e+002;2.833448e-002
7.386339e+002;2.893218e-002
7.405624e+002;2.981921e-002
7.424910e+002;2.935338e-002
7.444196e+002;2.906834e-002
7.463481e+002;2.901914e-002
7.482766e+002;2.803798e-002
7.502052e+002;2.808871e-002
7.521337e+002;2.864990e-002
7.540623e+002;2.879571e-002
7.559908e+002;2.781269e-002
7.579194e+002;2.728687e-002
7.598479e+002;2.799950e-002
7.617765e+002;2.837257e-002
7.637050e+002;2.837773e-002
7.656335e+002;2.812494e-002
7.675621e+002;2.744073e-002
7.694907e+002;2.710887e-002
7.714192e+002;2.729862e-002
7.733478e+002;2.683070e-002
7.752763e+002;2.604617e-002
7.772048e+002;2.526376e-002
7.791334e+002;2.499357e-002
7.810620e+002;2.615247e-002
7.829905e+002;2.693599e-002
7.849191e+002;2.677522e-002
7.868476e+002;2.731157e-002
7.887761e+002;2.755715e-002
7.907047e+002;2.758021e-002
7.926332e+002;2.807602e-002
7.945618e+002;2.873492e-002
7.964903e+002;3.031414e-002
7.984189e+002;3.079821e-002
8.003474e+002;3.160274e-002
8.022759e+002;3.380458e-002
8.042045e+002;3.607926e-002
8.061331e+002;3.787349e-002
8.080616e+002;4.044966e-002
8.099902e+002;4.235711e-002
8.119187e+002;4.276105e-002
8.138472e+002;4.037729e-002
8.157758e+002;3.708981e-002
8.177043e+002;3.490438e-002
8.196329e+002;3.364598e-002
8.215615e+002;3.214588e-002
8.234900e+002;3.076954e-002
8.254185e+002;3.084346e-002
8.273471e+002;3.129721e-002
8.292756e+002;3.133977e-002
8.312042e+002;3.253621e-002
8.331328e+002;3.391748e-002
8.350613e+002;3.521943e-002
8.369898e+002;3.817587e-002
8.389184e+002;4.508061e-002
8.408469e+002;5.165322e-002
8.427755e+002;5.129339e-002
8.447040e+002;4.523775e-002
8.466326e+002;3.866315e-002
8.485611e+002;3.407522e-002
8.504897e+002;3.143362e-002
8.524182e+002;3.050593e-002
8.543467e+002;3.026280e-002
8.562753e+002;2.932119e-002
8.582039e+002;2.799603e-002
8.601324e+002;2.708362e-002
8.620610e+002;2.688113e-002
8.639895e+002;2.757392e-002
8.659180e+002;2.805502e-002
8.678466e+002;2.742880e-002
8.697751e+002;2.749071e-002
8.717037e+002;2.814891e-002
8.736323e+002;2.838930e-002
8.755608e+002;2.838569e-002
8.774893e+002;2.801250e-002
8.794179e+002;2.758088e-002
8.813464e+002;2.721053e-002
8.832750e+002;2.694431e-002
8.852036e+002;2.740932e-002
8.871321e+002;2.805912e-002
8.890606e+002;2.840557e-002
8.909892e+002;2.959483e-002
8.929177e+002;3.172595e-002
8.948463e+002;3.497070e-002
8.967748e+002;3.925025e-002
8.987034e+002;4.230429e-002
9.006319e+002;4.267356e-002
9.025605e+002;4.014304e-002
9.044890e+002;3.589039e-002
9.064175e+002;3.165217e-002
9.083461e+002;2.889747e-002
9.102747e+002;2.689728e-002
9.122032e+002;2.538535e-002
9.141318e+002;2.490815e-002
9.160603e+002;2.503277e-002
9.179888e+002;2.503344e-002
9.199174e+002;2.482685e-002
9.218459e+002;2.488359e-002
9.237745e+002;2.501389e-002
9.257031e+002;2.488432e-002
9.276316e+002;2.517853e-002
9.295601e+002;2.558500e-002
9.314887e+002;2.602590e-002
9.334172e+002;2.685724e-002
9.353458e+002;2.785106e-002
9.372744e+002;2.906335e-002
9.392029e+002;3.052171e-002
9.411314e+002;3.131131e-002
9.430600e+002;3.123251e-002
9.449885e+002;3.120930e-002
9.469171e+002;3.075919e-002
9.488456e+002;3.008532e-002
9.507742e+002;3.037849e-002
9.527027e+002;3.129785e-002
9.546313e+002;3.219794e-002
9.565598e+002;3.277354e-002
9.584883e+002;3.372582e-002
9.604169e+002;3.507163e-002
9.623455e+002;3.656249e-002
9.642740e+002;3.885844e-002
9.662026e+002;4.288542e-002
9.681311e+002;4.904120e-002
9.700596e+002;5.686080e-002
9.719882e+002;6.416472e-002
9.739167e+002;6.715639e-002
9.758453e+002;6.401414e-002
9.777739e+002;5.695172e-002
9.797024e+002;4.900210e-002
9.816309e+002;4.235277e-002
9.835595e+002;3.729632e-002
9.854880e+002;3.443931e-002
9.874166e+002;3.377184e-002
9.893452e+002;3.461887e-002
9.912737e+002;3.761391e-002
9.932022e+002;4.311493e-002
9.951307e+002;5.001741e-002
9.970593e+002;5.573256e-002
9.989879e+002;5.707901e-002
1.000916e+003;5.306643e-002
1.002845e+003;4.631324e-002
1.004773e+003;4.022271e-002
1.006702e+003;3.603642e-002
1.008631e+003;3.391551e-002
1.010559e+003;3.304536e-002
1.012488e+003;3.218145e-002
1.014416e+003;3.132082e-002
1.016345e+003;3.056153e-002
1.018273e+003;3.010929e-002
1.020202e+003;3.026362e-002
1.022130e+003;3.062517e-002
1.024059e+003;3.107581e-002
1.025988e+003;3.172966e-002
1.027916e+003;3.210863e-002
1.029845e+003;3.269937e-002
1.031773e+003;3.400584e-002
1.033702e+003;3.547966e-002
1.035630e+003;3.647250e-002
1.037559e+003;3.713673e-002
1.039487e+003;3.812920e-002
1.041416e+003;3.896916e-002
1.043344e+003;3.919937e-002
1.045273e+003;3.884671e-002
1.047202e+003;3.858311e-002
1.049130e+003;3.831645e-002
1.051059e+003;3.732763e-002
1.052987e+003;3.641106e-002
1.054916e+003;3.600391e-002
1.056844e+003;3.593271e-002
1.058773e+003;3.599153e-002
1.060701e+003;3.556841e-002
1.062630e+003;3.508560e-002
1.064558e+003;3.542584e-002
1.066487e+003;3.625738e-002
1.068416e+003;3.614598e-002
1.070344e+003;3.610843e-002
1.072273e+003;3.638666e-002
1.074201e+003;3.649077e-002
1.076130e+003;3.606853e-002
1.078058e+003;3.622442e-002
1.079987e+003;3.756615e-002
1.081915e+003;3.823724e-002
1.083844e+003;3.828283e-002
1.085773e+003;3.820482e-002
1.087701e+003;3.799400e-002
1.089630e+003;3.871255e-002
1.091558e+003;3.867785e-002
1.093487e+003;3.853636e-002
1.095415e+003;3.978111e-002
1.097344e+003;4.120460e-002
1.099272e+003;4.252510e-002
1.101201e+003;4.363108e-002
1.103129e+003;4.381580e-002
1.105058e+003;4.308932e-002
1.106987e+003;4.195490e-002
1.108915e+003;4.045865e-002
1.110844e+003;3.883160e-002
1.112772e+003;3.766251e-002
1.114701e+003;3.716290e-002
1.116629e+003;3.740989e-002
1.118558e+003;3.778911e-002
1.120486e+003;3.786958e-002
1.122415e+003;3.722607e-002
1.124344e+003;3.661469e-002
1.126272e+003;3.661166e-002
1.128201e+003;3.648788e-002
1.130129e+003;3.656144e-002
1.132058e+003;3.734290e-002
1.133986e+003;3.824990e-002
1.135915e+003;3.936832e-002
1.137843e+003;4.107503e-002
1.139772e+003;4.333850e-002
1.141700e+003;4.580524e-002
1.143629e+003;4.846909e-002
1.145557e+003;5.138274e-002
1.147486e+003;5.428795e-002
1.149415e+003;5.709617e-002
1.151343e+003;5.998634e-002
1.153272e+003;6.198375e-002
1.155200e+003;6.289320e-002
1.157129e+003;6.330286e-002
1.159057e+003;6.376710e-002
1.160986e+003;6.449167e-002
1.162914e+003;6.544873e-002
1.164843e+003;6.635045e-002
1.166771e+003;6.696480e-002
1.168700e+003;6.654432e-002
1.170629e+003;6.380843e-002
1.172557e+003;5.948573e-002
1.174486e+003;5.479444e-002
1.176414e+003;5.032476e-002
1.178343e+003;4.692069e-002
1.180271e+003;4.485416e-002
1.182200e+003;4.324497e-002
1.184128e+003;4.170119e-002
1.186057e+003;4.089926e-002
1.187986e+003;4.049065e-002
1.189914e+003;4.041842e-002
1.191843e+003;4.052411e-002
1.193771e+003;4.061903e-002
1.195700e+003;4.077714e-002
1.197628e+003;4.092391e-002
1.199557e+003;4.092180e-002
1.201485e+003;4.037726e-002
1.203414e+003;3.995486e-002
1.205343e+003;4.016855e-002
1.207271e+003;4.087269e-002
1.209200e+003;4.164462e-002
1.211128e+003;4.233804e-002
1.213057e+003;4.334688e-002
1.214985e+003;4.479465e-002
1.216914e+003;4.562453e-002
1.218842e+003;4.574527e-002
1.220771e+003;4.537500e-002
1.222699e+003;4.461969e-002
1.224628e+003;4.373803e-002
1.226557e+003;4.311479e-002
1.228485e+003;4.310670e-002
1.230414e+003;4.342451e-002
1.232342e+003;4.321883e-002
1.234271e+003;4.311742e-002
1.236199e+003;4.334223e-002
1.238128e+003;4.333469e-002
1.240056e+003;4.375434e-002
1.241985e+003;4.401923e-002
1.243913e+003;4.378784e-002
1.245842e+003;4.391426e-002
1.247771e+003;4.430636e-002
1.249699e+003;4.489172e-002
1.251628e+003;4.650449e-002
1.253556e+003;4.885487e-002
1.255485e+003;5.007593e-002
1.257413e+003;4.930513e-002
1.259342e+003;4.740694e-002
1.261270e+003;4.539961e-002
1.263199e+003;4.350130e-002
1.265127e+003;4.272449e-002
1.267056e+003;4.225053e-002
1.268985e+003;4.146221e-002
1.270913e+003;4.101385e-002
1.272842e+003;4.057181e-002
1.274770e+003;4.048734e-002
1.276699e+003;4.082230e-002
1.278627e+003;4.067964e-002
1.280556e+003;4.052921e-002
1.282484e+003;4.084706e-002
1.284413e+003;4.102167e-002
1.286342e+003;4.136256e-002
1.288270e+003;4.237274e-002
1.290199e+003;4.339931e-002
1.292127e+003;4.426652e-002
1.294056e+003;4.516248e-002
1.295984e+003;4.590205e-002
1.297913e+003;4.588265e-002
1.299841e+003;4.558633e-002
1.301770e+003;4.617997e-002
1.303698e+003;4.696396e-002
1.305627e+003;4.619475e-002
1.307556e+003;4.404904e-002
1.309484e+003;4.176761e-002
1.311413e+003;4.051284e-002
1.313341e+003;4.031930e-002
1.315270e+003;4.067848e-002
1.317198e+003;4.106490e-002
1.319127e+003;4.191169e-002
1.321055e+003;4.336182e-002
1.322984e+003;4.493165e-002
1.324912e+003;4.661983e-002
1.326841e+003;4.820744e-002
1.328770e+003;4.902183e-002
1.330698e+003;4.901338e-002
1.332627e+003;4.861956e-002
1.334555e+003;4.781227e-002
1.336484e+003;4.675343e-002
1.338412e+003;4.644767e-002
1.340341e+003;4.692025e-002
1.342269e+003;4.836204e-002
1.344198e+003;5.004284e-002
1.346126e+003;5.178972e-002
1.348055e+003;5.425146e-002
1.349984e+003;5.769403e-002
1.351912e+003;6.222519e-002
1.353841e+003;6.799971e-002
1.355769e+003;7.498848e-002
1.357698e+003;8.163664e-002
1.359626e+003;8.462898e-002
1.361555e+003;8.389488e-002
1.363483e+003;8.335974e-002
1.365412e+003;8.572017e-002
1.367341e+003;9.338087e-002
1.369269e+003;1.092713e-001
1.371198e+003;1.316989e-001
1.373126e+003;1.555581e-001
1.375055e+003;1.739487e-001
1.376983e+003;1.765725e-001
1.378912e+003;1.606378e-001
1.380840e+003;1.368231e-001
1.382769e+003;1.132172e-001
1.384698e+003;9.263997e-002
1.386626e+003;7.639772e-002
1.388555e+003;6.551812e-002
1.390483e+003;5.942380e-002
1.392412e+003;5.538173e-002
1.394340e+003;5.226516e-002
1.396269e+003;5.094738e-002
1.398197e+003;5.050588e-002
1.400126e+003;5.060106e-002
1.402054e+003;5.103670e-002
1.403983e+003;5.100219e-002
1.405911e+003;5.121319e-002
1.407840e+003;5.179173e-002
1.409769e+003;5.199292e-002
1.411697e+003;5.222775e-002
1.413626e+003;5.273996e-002
1.415554e+003;5.275593e-002
1.417483e+003;5.177437e-002
1.419411e+003;5.163751e-002
1.421340e+003;5.361520e-002
1.423268e+003;5.535865e-002
1.425197e+003;5.753921e-002
1.427125e+003;6.090778e-002
1.429054e+003;6.588013e-002
1.430983e+003;7.461391e-002
1.432911e+003;8.522777e-002
1.434840e+003;9.206408e-002
1.436768e+003;9.423631e-002
1.438697e+003;9.667598e-002
1.440625e+003;1.005874e-001
1.442554e+003;1.064136e-001
1.444482e+003;1.147497e-001
1.446411e+003;1.246433e-001
1.448340e+003;1.341273e-001
1.450268e+003;1.415105e-001
1.452197e+003;1.456516e-001
1.454125e+003;1.465915e-001
1.456054e+003;1.442907e-001
1.457982e+003;1.433364e-001
1.459911e+003;1.432220e-001
1.461839e+003;1.396381e-001
1.463768e+003;1.327823e-001
1.465697e+003;1.249242e-001
1.467625e+003;1.159065e-001
1.469554e+003;1.046056e-001
1.471482e+003;9.218333e-002
1.473411e+003;8.190799e-002
1.475339e+003;7.388031e-002
1.477268e+003;6.648111e-002
1.479196e+003;6.044655e-002
1.481125e+003;5.509075e-002
1.483053e+003;5.102340e-002
1.484982e+003;4.783498e-002
1.486911e+003;4.464693e-002
1.488839e+003;4.188484e-002
1.490768e+003;4.109157e-002
1.492696e+003;4.130789e-002
1.494625e+003;3.996467e-002
1.496553e+003;3.859256e-002
1.498482e+003;3.912087e-002
1.500410e+003;3.973038e-002
1.502339e+003;3.969505e-002
1.504267e+003;3.762403e-002
1.506196e+003;3.543692e-002
1.508125e+003;3.738414e-002
1.510053e+003;3.985396e-002
1.511982e+003;4.073714e-002
1.513910e+003;4.154351e-002
1.515839e+003;4.153100e-002
1.517767e+003;4.144019e-002
1.519696e+003;4.026920e-002
1.521624e+003;3.908244e-002
1.523553e+003;4.040493e-002
1.525481e+003;4.149600e-002
1.527410e+003;4.250500e-002
1.529339e+003;4.349870e-002
1.531267e+003;4.343966e-002
1.533196e+003;4.302138e-002
1.535124e+003;4.426938e-002
1.537053e+003;4.357350e-002
1.538981e+003;4.063562e-002
1.540910e+003;4.074995e-002
1.542838e+003;4.335051e-002
1.544767e+003;4.511351e-002
1.546695e+003;4.603174e-002
1.548624e+003;4.560705e-002
1.550553e+003;4.513230e-002
1.552481e+003;4.421824e-002
1.554410e+003;4.253997e-002
1.556338e+003;4.013766e-002
1.558267e+003;3.588045e-002
1.560195e+003;3.603343e-002
1.562124e+003;3.900874e-002
1.564052e+003;3.937594e-002
1.565981e+003;3.865641e-002
1.567910e+003;3.725802e-002
1.569838e+003;3.622809e-002
1.571767e+003;3.700606e-002
1.573695e+003;3.652681e-002
1.575624e+003;3.432892e-002
1.577552e+003;3.499225e-002
1.579481e+003;3.661858e-002
1.581409e+003;3.709700e-002
1.583338e+003;3.715889e-002
1.585266e+003;3.659605e-002
1.587195e+003;3.667583e-002
1.589124e+003;3.703926e-002
1.591052e+003;3.730921e-002
1.592981e+003;3.754809e-002
1.594909e+003;3.772229e-002
1.596838e+003;3.791420e-002
1.598766e+003;3.866572e-002
1.600695e+003;3.940631e-002
1.602623e+003;4.014769e-002
1.604552e+003;4.094084e-002
1.606480e+003;4.163470e-002
1.608409e+003;4.256431e-002
1.610338e+003;4.391136e-002
1.612266e+003;4.519303e-002
1.614195e+003;4.548433e-002
1.616123e+003;4.473482e-002
1.618052e+003;4.682672e-002
1.619980e+003;4.954312e-002
1.621909e+003;5.022655e-002
1.623837e+003;5.116916e-002
1.625766e+003;5.294712e-002
1.627694e+003;5.433500e-002
1.629623e+003;5.563648e-002
1.631552e+003;5.703137e-002
1.633480e+003;5.672270e-002
1.635409e+003;5.610748e-002
1.637337e+003;5.883998e-002
1.639266e+003;6.161656e-002
1.641194e+003;6.276614e-002
1.643123e+003;6.332739e-002
1.645051e+003;6.278671e-002
1.646980e+003;6.313327e-002
1.648909e+003;6.494437e-002
1.650837e+003;6.280386e-002
1.652766e+003;5.896858e-002
1.654694e+003;6.167182e-002
1.656623e+003;6.476079e-002
1.658551e+003;6.451289e-002
1.660480e+003;6.321156e-002
1.662408e+003;6.164237e-002
1.664337e+003;6.108600e-002
1.666266e+003;6.026692e-002
1.668194e+003;5.810015e-002
1.670123e+003;5.685318e-002
1.672051e+003;5.658023e-002
1.673980e+003;5.492087e-002
1.675908e+003;5.375547e-002
1.677837e+003;5.387225e-002
1.679765e+003;5.279181e-002
1.681694e+003;5.001064e-002
1.683622e+003;4.596967e-002
1.685551e+003;4.627322e-002
1.687479e+003;4.824676e-002
1.689408e+003;4.774411e-002
1.691337e+003;4.704758e-002
1.693265e+003;4.551325e-002
1.695194e+003;4.259713e-002
1.697122e+003;4.232997e-002
1.699051e+003;4.130217e-002
1.700979e+003;4.092995e-002
1.702908e+003;4.303685e-002
1.704836e+003;4.324833e-002
1.706765e+003;4.325507e-002
1.708693e+003;4.319826e-002
1.710622e+003;4.275666e-002
1.712551e+003;4.149648e-002
1.714479e+003;3.944165e-002
1.716408e+003;3.687190e-002
1.718336e+003;3.676248e-002
1.720265e+003;3.875178e-002
1.722193e+003;3.897601e-002
1.724122e+003;3.827085e-002
1.726050e+003;3.795448e-002
1.727979e+003;3.756781e-002
1.729908e+003;3.725502e-002
1.731836e+003;3.548082e-002
1.733765e+003;3.308423e-002
1.735693e+003;3.466100e-002
1.737622e+003;3.583151e-002
1.739550e+003;3.458133e-002
1.741479e+003;3.385562e-002
1.743407e+003;3.261778e-002
1.745336e+003;3.083360e-002
1.747265e+003;2.856882e-002
1.749193e+003;2.591155e-002
1.751122e+003;2.370896e-002
1.753050e+003;2.305857e-002
1.754979e+003;2.171115e-002
1.756907e+003;1.983418e-002
1.758836e+003;1.832365e-002
1.760764e+003;1.640484e-002
1.762693e+003;1.549782e-002
1.764621e+003;1.554442e-002
1.766550e+003;1.435451e-002
1.768479e+003;1.307748e-002
1.770407e+003;1.181285e-002
1.772336e+003;1.058913e-002
1.774264e+003;1.141529e-002
1.776193e+003;1.219578e-002
1.778121e+003;1.187356e-002
1.780050e+003;1.107835e-002
1.781978e+003;1.041034e-002
1.783907e+003;9.443410e-003
1.785835e+003;8.525828e-003
1.787764e+003;8.001709e-003
1.789693e+003;7.057966e-003
1.791621e+003;5.450481e-003
1.793550e+003;4.876878e-003
1.795478e+003;5.117936e-003
1.797407e+003;4.828628e-003
1.799335e+003;4.168188e-003
1.801264e+003;3.468167e-003
1.803192e+003;3.128926e-003
1.805121e+003;2.783079e-003
1.807049e+003;2.369672e-003
1.808978e+003;1.889331e-003
1.810907e+003;1.815027e-003
1.812835e+003;1.943013e-003
1.814764e+003;1.746124e-003
1.816692e+003;1.410684e-003
1.818621e+003;1.346067e-003
1.820549e+003;1.295982e-003
1.822478e+003;1.013825e-003
1.824406e+003;5.020720e-004
1.826335e+003;4.992192e-004
1.828264e+003;2.417801e-004
1.830192e+003;4.029286e-005
1.832121e+003;5.049580e-004
1.834049e+003;7.524960e-004
1.835978e+003;9.783566e-004
1.837906e+003;9.625826e-004
1.839835e+003;6.959414e-004
1.841763e+003;1.636852e-005
1.843692e+003;-9.433611e-004
1.845620e+003;-4.834216e-004
1.847549e+003;1.752150e-004
1.849478e+003;1.432621e-004
1.851406e+003;-1.033770e-005
1.853335e+003;1.769718e-004
1.855263e+003;1.756459e-004
1.857192e+003;9.318291e-005
1.859120e+003;2.398904e-004
1.861049e+003;3.205244e-004
1.862977e+003;7.598300e-005
1.864906e+003;-4.887502e-004
1.866834e+003;-1.231931e-003
1.868763e+003;-1.358787e-003
1.870692e+003;-5.938197e-004
1.872620e+003;-2.338965e-004
1.874549e+003;-4.117934e-004
1.876477e+003;-3.039978e-004
1.878406e+003;-3.141958e-004
1.880334e+003;-4.192414e-004
1.882263e+003;-3.671025e-004
1.884191e+003;-2.509841e-004
1.886120e+003;-3.851780e-004
1.888048e+003;-9.658097e-004
1.889977e+003;-9.909680e-004
1.891906e+003;-2.862500e-004
1.893834e+003;5.437636e-005
1.895763e+003;-3.743985e-005
1.897691e+003;-2.513483e-004
1.899620e+003;-5.255191e-004
1.901548e+003;-6.897665e-004
1.903477e+003;-3.936527e-004
1.905405e+003;-5.242946e-004
1.907334e+003;-9.010725e-004
1.909262e+003;-8.854985e-004
1.911191e+003;-7.209943e-004
1.913120e+003;-8.112908e-004
1.915048e+003;-9.068589e-004
1.916977e+003;-1.263351e-003
1.918905e+003;-1.279110e-003
1.920834e+003;-9.636608e-004
1.922762e+003;-1.027761e-003
1.924691e+003;-1.006637e-003
1.926619e+003;-9.529490e-004
1.928548e+003;-1.056353e-003
1.930477e+003;-1.168258e-003
1.932405e+003;-1.348217e-003
1.934334e+003;-1.346995e-003
1.936262e+003;-1.170703e-003
1.938191e+003;-1.195222e-003
1.940119e+003;-1.611166e-003
1.942048e+003;-2.049632e-003
1.943976e+003;-1.987167e-003
1.945905e+003;-1.661274e-003
1.947833e+003;-1.520309e-003
1.949762e+003;-1.625393e-003
1.951691e+003;-1.657313e-003
1.953619e+003;-1.661142e-003
1.955548e+003;-1.694907e-003
1.957476e+003;-1.750517e-003
1.959405e+003;-1.663617e-003
1.961333e+003;-1.851389e-003
1.963262e+003;-2.192271e-003
1.965190e+003;-2.375761e-003
1.967119e+003;-2.369698e-003
1.969047e+003;-2.204964e-003
1.970976e+003;-2.137378e-003
1.972905e+003;-2.122375e-003
1.974833e+003;-1.999634e-003
1.976762e+003;-2.019258e-003
1.978690e+003;-2.275769e-003
1.980619e+003;-2.109483e-003
1.982547e+003;-1.922318e-003
1.984476e+003;-1.994423e-003
1.986404e+003;-2.083829e-003
1.988333e+003;-2.041981e-003
1.990261e+003;-2.118550e-003
1.992190e+003;-2.326230e-003
1.994119e+003;-2.100877e-003
1.996047e+003;-1.883655e-003
1.997976e+003;-1.902492e-003
1.999904e+003;-1.771175e-003
2.001833e+003;-1.757414e-003
2.003761e+003;-1.800972e-003
2.005690e+003;-1.792525e-003
2.007618e+003;-1.817074e-003
2.009547e+003;-1.877024e-003
2.011476e+003;-1.694280e-003
2.013404e+003;-1.643846e-003
2.015333e+003;-1.742102e-003
2.017261e+003;-1.637112e-003
2.019190e+003;-1.569932e-003
2.021118e+003;-1.614863e-003
2.023047e+003;-1.474873e-003
2.024975e+003;-1.531502e-003
2.026904e+003;-1.643548e-003
2.028833e+003;-1.753322e-003
2.030761e+003;-1.789126e-003
2.032690e+003;-1.583567e-003
2.034618e+003;-1.465000e-003
2.036547e+003;-1.552665e-003
2.038475e+003;-1.604959e-003
2.040404e+003;-1.527936e-003
2.042332e+003;-1.403805e-003
2.044261e+003;-1.274451e-003
2.046189e+003;-1.057444e-003
2.048118e+003;-1.053510e-003
2.050047e+003;-1.198096e-003
2.051975e+003;-1.252680e-003
2.053904e+003;-1.283999e-003
2.055832e+003;-1.334740e-003
2.057761e+003;-1.296354e-003
2.059689e+003;-1.478374e-003
2.061618e+003;-1.575512e-003
2.063546e+003;-1.512351e-003
2.065475e+003;-1.554052e-003
2.067404e+003;-1.521894e-003
2.069332e+003;-1.492606e-003
2.071260e+003;-1.383526e-003
2.073189e+003;-1.069475e-003
2.075118e+003;-1.157485e-003
2.077046e+003;-1.480388e-003
2.078975e+003;-1.382502e-003
2.080903e+003;-1.018406e-003
2.082832e+003;-7.152054e-004
2.084760e+003;-4.849440e-004
2.086689e+003;-3.838869e-004
2.088617e+003;-6.986323e-004
2.090546e+003;-1.040454e-003
2.092475e+003;-8.954514e-004
2.094403e+003;-8.773310e-004
2.096332e+003;-1.075689e-003
2.098260e+003;-1.032157e-003
2.100189e+003;-1.050667e-003
2.102117e+003;-1.218021e-003
2.104046e+003;-1.040156e-003
2.105974e+003;-7.678317e-004
2.107903e+003;-6.650209e-004
2.109832e+003;-7.529475e-004
2.111760e+003;-8.056024e-004
2.113688e+003;-6.366345e-004
2.115617e+003;-4.611466e-004
2.117546e+003;-6.344178e-004
2.119474e+003;-6.778240e-004
2.121403e+003;-4.089465e-004
2.123331e+003;-1.736208e-004
2.125260e+003;-1.708055e-004
2.127188e+003;-3.518692e-005
2.129117e+003;2.876987e-004
2.131045e+003;5.246961e-004
2.132974e+003;6.536962e-004
2.134903e+003;6.445707e-004
2.136831e+003;5.775788e-004
2.138760e+003;4.488004e-004
2.140688e+003;2.546766e-004
2.142617e+003;2.296465e-004
2.144545e+003;1.065390e-004
2.146474e+003;8.231276e-005
2.148402e+003;8.556052e-005
2.150331e+003;7.591672e-005
2.152260e+003;1.937780e-004
2.154188e+003;2.041537e-004
2.156117e+003;2.542456e-004
2.158045e+003;5.295728e-004
2.159974e+003;8.210419e-004
2.161902e+003;1.194965e-003
2.163831e+003;1.351318e-003
2.165759e+003;1.084305e-003
2.167688e+003;1.085999e-003
2.169616e+003;1.384424e-003
2.171545e+003;1.603330e-003
2.173474e+003;1.927770e-003
2.175402e+003;2.073001e-003
2.177331e+003;1.801152e-003
2.179259e+003;1.598042e-003
2.181188e+003;1.596014e-003
2.183116e+003;1.458921e-003
2.185045e+003;1.759132e-003
2.186973e+003;2.078760e-003
2.188902e+003;1.875354e-003
2.190831e+003;1.648694e-003
2.192759e+003;1.814627e-003
2.194688e+003;2.030721e-003
2.196616e+003;2.203494e-003
2.198545e+003;2.123708e-003
2.200473e+003;1.822347e-003
2.202402e+003;1.747954e-003
2.204330e+003;1.852859e-003
2.206259e+003;1.623916e-003
2.208188e+003;1.302396e-003
2.210116e+003;1.357899e-003
2.212044e+003;1.539881e-003
2.213973e+003;1.589263e-003
2.215902e+003;1.555842e-003
2.217830e+003;1.538318e-003
2.219759e+003;1.354143e-003
2.221687e+003;1.446022e-003
2.223616e+003;1.700849e-003
2.225544e+003;1.953563e-003
2.227473e+003;2.118947e-003
2.229401e+003;2.153510e-003
2.231330e+003;2.247722e-003
2.233259e+003;2.188741e-003
2.235187e+003;1.888033e-003
2.237116e+003;2.073667e-003
2.239044e+003;2.259945e-003
2.240973e+003;2.041973e-003
2.242901e+003;1.819618e-003
2.244830e+003;2.053824e-003
2.246758e+003;2.544413e-003
2.248687e+003;2.563677e-003
2.250615e+003;2.588176e-003
2.252544e+003;2.816527e-003
2.254473e+003;2.864553e-003
2.256401e+003;2.906114e-003
2.258330e+003;2.853280e-003
2.260258e+003;2.681382e-003
2.262187e+003;2.481226e-003
2.264115e+003;2.527349e-003
2.266044e+003;2.796285e-003
2.267972e+003;2.833503e-003
2.269901e+003;2.587009e-003
2.271830e+003;2.495222e-003
2.273758e+003;2.450003e-003
2.275687e+003;2.530148e-003
2.277615e+003;2.567977e-003
2.279544e+003;2.506220e-003
2.281472e+003;2.395259e-003
2.283401e+003;2.289123e-003
2.285329e+003;2.355880e-003
2.287258e+003;2.273968e-003
2.289187e+003;2.154042e-003
2.291115e+003;2.182214e-003
2.293043e+003;2.197200e-003
2.294972e+003;2.181881e-003
2.296901e+003;2.112854e-003
2.298829e+003;1.980757e-003
2.300758e+003;2.032153e-003
2.302686e+003;2.124141e-003
2.304615e+003;2.179317e-003
2.306543e+003;2.174155e-003
2.308472e+003;2.202195e-003
2.310400e+003;2.429977e-003
2.312329e+003;2.689051e-003
2.314258e+003;2.595876e-003
2.316186e+003;2.480760e-003
2.318115e+003;2.395859e-003
2.320043e+003;2.342388e-003
2.321972e+003;2.468363e-003
2.323900e+003;2.688384e-003
2.325829e+003;2.881330e-003
2.327757e+003;3.261305e-003
2.329686e+003;3.539582e-003
2.331615e+003;3.681711e-003
2.333543e+003;3.640009e-003
2.335472e+003;3.561463e-003
2.337400e+003;3.623170e-003
2.339329e+003;3.748749e-003
2.341257e+003;3.907763e-003
2.343186e+003;3.980487e-003
2.345114e+003;3.867778e-003
2.347043e+003;3.893320e-003
2.348971e+003;4.101219e-003
2.350900e+003;4.046300e-003
2.352829e+003;4.355568e-003
2.354757e+003;4.726117e-003
2.356686e+003;4.807521e-003
2.358614e+003;4.653234e-003
2.360543e+003;4.475635e-003
2.362471e+003;4.501480e-003
2.364400e+003;4.523376e-003
2.366328e+003;4.544067e-003
2.368257e+003;4.514537e-003
2.370186e+003;4.464018e-003
2.372114e+003;4.429974e-003
2.374042e+003;4.510184e-003
2.375971e+003;4.772612e-003
2.377900e+003;4.983413e-003
2.379828e+003;5.020149e-003
2.381757e+003;4.954523e-003
2.383685e+003;5.041065e-003
2.385614e+003;5.087360e-003
2.387542e+003;5.001278e-003
2.389471e+003;5.109487e-003
2.391399e+003;5.335479e-003
2.393328e+003;5.404818e-003
2.395257e+003;5.562963e-003
2.397185e+003;5.769951e-003
2.399114e+003;5.703004e-003
2.401042e+003;5.791408e-003
2.402971e+003;5.895279e-003
2.404899e+003;5.695484e-003
2.406828e+003;5.652010e-003
2.408756e+003;5.695853e-003
2.410685e+003;5.649124e-003
2.412614e+003;5.584343e-003
2.414542e+003;5.610556e-003
2.416471e+003;5.662451e-003
2.418399e+003;5.734663e-003
2.420328e+003;5.940456e-003
2.422256e+003;6.032806e-003
2.424185e+003;6.100880e-003
2.426113e+003;6.498045e-003
2.428042e+003;6.649287e-003
2.429970e+003;6.311049e-003
2.431899e+003;6.187248e-003
2.433828e+003;6.236992e-003
2.435756e+003;6.345611e-003
2.437685e+003;6.165671e-003
2.439613e+003;5.902333e-003
2.441542e+003;5.809910e-003
2.443470e+003;5.936862e-003
2.445399e+003;5.942908e-003
2.447327e+003;5.692462e-003
2.449256e+003;5.382744e-003
2.451185e+003;5.502826e-003
2.453113e+003;5.643484e-003
2.455042e+003;5.646673e-003
2.456970e+003;5.668426e-003
2.458899e+003;5.468197e-003
2.460827e+003;5.581154e-003
2.462756e+003;5.499605e-003
2.464684e+003;5.366373e-003
2.466613e+003;5.669366e-003
2.468542e+003;5.774988e-003
2.470470e+003;5.417500e-003
2.472398e+003;5.263131e-003
2.474327e+003;5.459339e-003
2.476256e+003;5.499840e-003
2.478184e+003;5.902770e-003
2.480113e+003;6.342551e-003
2.482041e+003;6.412725e-003
2.483970e+003;6.543351e-003
2.485898e+003;6.639496e-003
2.487827e+003;6.543183e-003
2.489755e+003;6.566225e-003
2.491684e+003;6.777427e-003
2.493613e+003;6.619412e-003
2.495541e+003;6.621093e-003
2.497470e+003;6.764369e-003
2.499398e+003;6.886349e-003
2.501327e+003;6.754980e-003
2.503255e+003;6.501442e-003
2.505184e+003;6.712209e-003
2.507112e+003;7.041465e-003
2.509041e+003;7.417515e-003
2.510969e+003;7.671285e-003
2.512898e+003;7.556300e-003
2.514827e+003;7.593524e-003
2.516755e+003;7.763802e-003
2.518684e+003;7.794296e-003
2.520612e+003;7.991956e-003
2.522541e+003;8.378659e-003
2.524469e+003;8.851864e-003
2.526398e+003;8.848178e-003
2.528326e+003;8.678691e-003
2.530255e+003;9.063132e-003
2.532184e+003;9.374776e-003
2.534112e+003;9.403860e-003
2.536041e+003;9.485807e-003
2.537969e+003;9.639991e-003
2.539898e+003;9.694673e-003
2.541826e+003;9.984427e-003
2.543755e+003;1.027336e-002
2.545683e+003;1.025283e-002
2.547612e+003;1.031523e-002
2.549541e+003;1.069500e-002
2.551469e+003;1.124711e-002
2.553397e+003;1.178197e-002
2.555326e+003;1.216600e-002
2.557255e+003;1.210136e-002
2.559183e+003;1.201016e-002
2.561112e+003;1.251933e-002
2.563040e+003;1.293941e-002
2.564969e+003;1.290323e-002
2.566897e+003;1.298188e-002
2.568826e+003;1.327985e-002
2.570754e+003;1.380463e-002
2.572683e+003;1.453095e-002
2.574612e+003;1.519102e-002
2.576540e+003;1.575911e-002
2.578469e+003;1.654770e-002
2.580397e+003;1.710133e-002
2.582326e+003;1.704984e-002
2.584254e+003;1.677128e-002
2.586183e+003;1.631315e-002
2.588111e+003;1.579202e-002
2.590040e+003;1.537110e-002
2.591969e+003;1.485254e-002
2.593897e+003;1.445123e-002
2.595826e+003;1.453612e-002
2.597754e+003;1.444167e-002
2.599683e+003;1.442143e-002
2.601611e+003;1.471453e-002
2.603540e+003;1.479262e-002
2.605468e+003;1.489719e-002
2.607397e+003;1.557392e-002
2.609325e+003;1.604469e-002
2.611254e+003;1.604486e-002
2.613183e+003;1.636902e-002
2.615111e+003;1.671705e-002
2.617040e+003;1.674766e-002
2.618968e+003;1.637422e-002
2.620897e+003;1.644806e-002
2.622825e+003;1.673285e-002
2.624754e+003;1.652023e-002
2.626682e+003;1.614138e-002
2.628611e+003;1.587969e-002
2.630540e+003;1.558639e-002
2.632468e+003;1.570125e-002
2.634396e+003;1.607370e-002
2.636325e+003;1.621415e-002
2.638254e+003;1.592457e-002
2.640182e+003;1.613752e-002
2.642111e+003;1.677800e-002
2.644039e+003;1.700863e-002
2.645968e+003;1.701132e-002
2.647896e+003;1.716048e-002
2.649825e+003;1.766592e-002
2.651753e+003;1.818287e-002
2.653682e+003;1.856358e-002
2.655611e+003;1.875752e-002
2.657539e+003;1.870158e-002
2.659468e+003;1.893777e-002
2.661396e+003;1.937114e-002
2.663325e+003;1.958315e-002
2.665253e+003;1.966070e-002
2.667182e+003;1.968993e-002
2.669110e+003;1.965806e-002
2.671039e+003;1.972949e-002
2.672968e+003;1.985589e-002
2.674896e+003;1.998261e-002
2.676825e+003;2.010767e-002
2.678753e+003;2.025362e-002
2.680682e+003;2.055781e-002
2.682610e+003;2.057118e-002
2.684539e+003;2.025147e-002
2.686467e+003;2.023095e-002
2.688396e+003;2.046951e-002
2.690324e+003;2.049740e-002
2.692253e+003;2.062660e-002
2.694182e+003;2.050323e-002
2.696110e+003;2.036188e-002
2.698039e+003;2.088949e-002
2.699967e+003;2.140515e-002
2.701896e+003;2.135151e-002
2.703824e+003;2.170272e-002
2.705753e+003;2.249737e-002
2.707681e+003;2.327474e-002
2.709610e+003;2.416299e-002
2.711539e+003;2.508002e-002
2.713467e+003;2.645961e-002
2.715396e+003;2.809825e-002
2.717324e+003;2.947230e-002
2.719253e+003;3.085057e-002
2.721181e+003;3.217242e-002
2.723110e+003;3.273445e-002
2.725038e+003;3.259746e-002
2.726967e+003;3.182819e-002
2.728896e+003;3.044974e-002
2.730824e+003;2.887647e-002
2.732752e+003;2.787720e-002
2.734681e+003;2.733306e-002
2.736610e+003;2.669263e-002
2.738538e+003;2.592358e-002
2.740467e+003;2.486215e-002
2.742395e+003;2.394159e-002
2.744324e+003;2.335725e-002
2.746252e+003;2.298604e-002
2.748181e+003;2.291108e-002
2.750109e+003;2.285827e-002
2.752038e+003;2.276294e-002
2.753967e+003;2.253474e-002
2.755895e+003;2.273294e-002
2.757824e+003;2.323212e-002
2.759752e+003;2.371522e-002
2.761681e+003;2.419042e-002
2.763609e+003;2.451514e-002
2.765538e+003;2.493471e-002
2.767466e+003;2.557365e-002
2.769395e+003;2.589277e-002
2.771323e+003;2.630906e-002
2.773252e+003;2.703284e-002
2.775181e+003;2.773124e-002
2.777109e+003;2.838329e-002
2.779038e+003;2.897886e-002
2.780966e+003;2.958980e-002
2.782895e+003;3.057909e-002
2.784823e+003;3.187202e-002
2.786752e+003;3.332530e-002
2.788680e+003;3.514606e-002
2.790609e+003;3.708981e-002
2.792538e+003;3.862508e-002
2.794466e+003;3.991189e-002
2.796395e+003;4.097335e-002
2.798323e+003;4.187455e-002
2.800252e+003;4.320723e-002
2.802180e+003;4.514553e-002
2.804109e+003;4.714397e-002
2.806037e+003;4.925017e-002
2.807966e+003;5.179184e-002
2.809895e+003;5.398202e-002
2.811823e+003;5.566879e-002
2.813751e+003;5.757148e-002
2.815680e+003;5.978116e-002
2.817609e+003;6.210984e-002
2.819537e+003;6.450432e-002
2.821466e+003;6.729839e-002
2.823394e+003;7.110733e-002
2.825323e+003;7.581950e-002
2.827251e+003;8.169294e-002
2.829180e+003;8.909632e-002
2.831108e+003;9.754413e-002
2.833037e+003;1.058342e-001
2.834966e+003;1.127610e-001
2.836894e+003;1.173352e-001
2.838823e+003;1.192538e-001
2.840751e+003;1.186711e-001
2.842680e+003;1.161014e-001
2.844608e+003;1.125707e-001
2.846537e+003;1.085484e-001
2.848465e+003;1.050949e-001
2.850394e+003;1.029985e-001
2.852323e+003;1.013066e-001
2.854251e+003;1.000322e-001
2.856180e+003;1.006952e-001
2.858108e+003;1.032847e-001
2.860037e+003;1.075218e-001
2.861965e+003;1.133535e-001
2.863894e+003;1.198782e-001
2.865822e+003;1.256502e-001
2.867751e+003;1.292112e-001
2.869679e+003;1.306621e-001
2.871608e+003;1.309964e-001
2.873536e+003;1.308372e-001
2.875465e+003;1.308827e-001
2.877394e+003;1.305904e-001
2.879322e+003;1.295640e-001
2.881251e+003;1.286729e-001
2.883179e+003;1.280513e-001
2.885108e+003;1.279590e-001
2.887036e+003;1.285691e-001
2.888965e+003;1.298707e-001
2.890893e+003;1.320331e-001
2.892822e+003;1.346709e-001
2.894750e+003;1.375723e-001
2.896679e+003;1.416746e-001
2.898608e+003;1.457842e-001
2.900536e+003;1.495437e-001
2.902465e+003;1.540639e-001
2.904393e+003;1.591238e-001
2.906322e+003;1.635287e-001
2.908250e+003;1.670425e-001
2.910179e+003;1.703245e-001
2.912107e+003;1.733095e-001
2.914036e+003;1.757163e-001
2.915965e+003;1.774454e-001
2.917893e+003;1.777305e-001
2.919822e+003;1.772291e-001
2.921750e+003;1.756081e-001
2.923679e+003;1.721145e-001
2.925607e+003;1.674357e-001
2.927536e+003;1.617877e-001
2.929464e+003;1.548199e-001
2.931393e+003;1.477014e-001
2.933322e+003;1.405586e-001
2.935250e+003;1.335418e-001
2.937178e+003;1.282069e-001
2.939107e+003;1.251904e-001
2.941036e+003;1.243495e-001
2.942964e+003;1.261046e-001
2.944893e+003;1.301637e-001
2.946821e+003;1.357626e-001
2.948750e+003;1.413417e-001
2.950678e+003;1.456653e-001
2.952607e+003;1.476268e-001
2.954535e+003;1.469765e-001
2.956464e+003;1.448954e-001
2.958393e+003;1.414284e-001
2.960321e+003;1.365018e-001
2.962250e+003;1.309004e-001
2.964178e+003;1.251441e-001
2.966107e+003;1.196731e-001
2.968035e+003;1.136789e-001
2.969964e+003;1.074252e-001
2.971892e+003;1.016026e-001
2.973821e+003;9.595023e-002
2.975750e+003;9.090072e-002
2.977678e+003;8.660796e-002
2.979607e+003;8.243734e-002
2.981535e+003;7.823972e-002
2.983464e+003;7.441456e-002
2.985392e+003;7.106975e-002
2.987321e+003;6.779388e-002
2.989249e+003;6.433041e-002
2.991178e+003;6.118979e-002
2.993106e+003;5.846646e-002
2.995035e+003;5.596822e-002
2.996964e+003;5.366386e-002
2.998892e+003;5.134794e-002
3.000821e+003;4.882247e-002
3.002749e+003;4.611401e-002
3.004678e+003;4.404471e-002
3.006606e+003;4.230963e-002
3.008535e+003;4.080546e-002
3.010463e+003;3.945486e-002
3.012392e+003;3.795018e-002
3.014321e+003;3.636498e-002
3.016249e+003;3.498801e-002
3.018177e+003;3.367322e-002
3.020106e+003;3.278219e-002
3.022035e+003;3.221945e-002
3.023963e+003;3.147989e-002
3.025892e+003;3.088835e-002
3.027820e+003;3.031236e-002
3.029749e+003;2.915118e-002
3.031677e+003;2.840593e-002
3.033606e+003;2.821301e-002
3.035534e+003;2.790582e-002
3.037463e+003;2.754744e-002
3.039392e+003;2.734234e-002
3.041320e+003;2.701098e-002
3.043249e+003;2.688547e-002
3.045177e+003;2.677935e-002
3.047106e+003;2.633817e-002
3.049034e+003;2.614976e-002
3.050963e+003;2.634718e-002
3.052891e+003;2.635542e-002
3.054820e+003;2.597739e-002
3.056749e+003;2.563431e-002
3.058677e+003;2.542024e-002
3.060606e+003;2.530706e-002
3.062534e+003;2.527194e-002
3.064463e+003;2.507082e-002
3.066391e+003;2.495058e-002
3.068320e+003;2.509540e-002
3.070248e+003;2.531422e-002
3.072177e+003;2.529259e-002
3.074105e+003;2.524778e-002
3.076034e+003;2.493138e-002
3.077963e+003;2.440273e-002
3.079891e+003;2.440802e-002
3.081820e+003;2.426273e-002
3.083748e+003;2.421424e-002
3.085677e+003;2.474066e-002
3.087605e+003;2.466094e-002
3.089534e+003;2.433092e-002
3.091462e+003;2.395482e-002
3.093391e+003;2.344802e-002
3.095320e+003;2.330886e-002
3.097248e+003;2.352966e-002
3.099177e+003;2.387045e-002
3.101105e+003;2.432100e-002
3.103034e+003;2.432664e-002
3.104962e+003;2.435464e-002
3.106891e+003;2.427850e-002
3.108819e+003;2.384619e-002
3.110748e+003;2.390276e-002
3.112677e+003;2.397149e-002
3.114605e+003;2.384125e-002
3.116533e+003;2.367299e-002
3.118462e+003;2.365157e-002
3.120391e+003;2.369794e-002
3.122319e+003;2.362799e-002
3.124248e+003;2.342005e-002
3.126176e+003;2.385249e-002
3.128105e+003;2.446687e-002
3.130033e+003;2.426277e-002
3.131962e+003;2.425141e-002
3.133890e+003;2.486654e-002
3.135819e+003;2.485608e-002
3.137748e+003;2.457082e-002
3.139676e+003;2.468149e-002
3.141605e+003;2.504674e-002
3.143533e+003;2.569161e-002
3.145462e+003;2.617203e-002
3.147390e+003;2.602094e-002
3.149319e+003;2.580513e-002
3.151247e+003;2.611879e-002
3.153176e+003;2.594605e-002
3.155104e+003;2.572335e-002
3.157033e+003;2.619177e-002
3.158962e+003;2.666320e-002
3.160890e+003;2.689957e-002
3.162819e+003;2.645151e-002
3.164747e+003;2.628047e-002
3.166676e+003;2.691455e-002
3.168604e+003;2.729308e-002
3.170533e+003;2.722676e-002
3.172461e+003;2.694357e-002
3.174390e+003;2.708218e-002
3.176319e+003;2.734986e-002
3.178247e+003;2.737608e-002
3.180176e+003;2.768886e-002
3.182104e+003;2.768176e-002
3.184033e+003;2.780884e-002
3.185961e+003;2.825604e-002
3.187890e+003;2.832146e-002
3.189818e+003;2.863641e-002
3.191747e+003;2.894720e-002
3.193676e+003;2.858701e-002
3.195604e+003;2.843239e-002
3.197532e+003;2.882485e-002
3.199461e+003;2.877482e-002
3.201390e+003;2.892209e-002
3.203318e+003;2.930709e-002
3.205247e+003;2.959618e-002
3.207175e+003;2.977634e-002
3.209104e+003;2.961275e-002
3.211032e+003;2.938497e-002
3.212961e+003;2.909541e-002
3.214889e+003;2.897040e-002
3.216818e+003;2.923067e-002
3.218747e+003;2.943514e-002
3.220675e+003;2.947521e-002
3.222604e+003;2.931651e-002
3.224532e+003;2.922273e-002
3.226461e+003;2.943454e-002
3.228389e+003;2.935757e-002
3.230318e+003;2.908606e-002
3.232246e+003;2.897876e-002
3.234175e+003;2.867549e-002
3.236104e+003;2.869524e-002
3.238032e+003;2.928607e-002
3.239961e+003;2.961970e-002
3.241889e+003;2.917985e-002
3.243818e+003;2.860828e-002
3.245746e+003;2.898120e-002
3.247675e+003;2.967114e-002
3.249603e+003;2.989935e-002
3.251532e+003;2.994234e-002
3.253460e+003;2.984139e-002
3.255389e+003;2.962889e-002
3.257318e+003;2.977038e-002
3.259246e+003;2.982134e-002
3.261175e+003;2.981658e-002
3.263103e+003;3.026784e-002
3.265032e+003;3.072662e-002
3.266960e+003;3.031989e-002
3.268889e+003;2.954727e-002
3.270817e+003;2.986410e-002
3.272746e+003;3.022905e-002
3.274675e+003;3.040620e-002
3.276603e+003;3.074852e-002
3.278531e+003;3.086565e-002
3.280460e+003;3.071684e-002
3.282389e+003;3.087967e-002
3.284317e+003;3.125569e-002
3.286246e+003;3.145414e-002
3.288174e+003;3.155603e-002
3.290103e+003;3.113475e-002
3.292031e+003;3.045304e-002
3.293960e+003;3.033155e-002
3.295888e+003;3.046502e-002
3.297817e+003;3.042504e-002
3.299746e+003;3.060572e-002
3.301674e+003;3.072868e-002
3.303603e+003;3.054688e-002
3.305531e+003;3.055861e-002
3.307460e+003;3.031566e-002
3.309388e+003;3.010957e-002
3.311317e+003;3.002211e-002
3.313245e+003;3.010502e-002
3.315174e+003;2.981218e-002
3.317103e+003;2.970683e-002
3.319031e+003;2.965659e-002
3.320960e+003;2.948641e-002
3.322888e+003;2.964790e-002
3.324817e+003;2.987479e-002
3.326745e+003;2.943581e-002
3.328674e+003;2.887456e-002
3.330602e+003;2.855268e-002
3.332531e+003;2.848308e-002
3.334459e+003;2.819317e-002
3.336388e+003;2.822436e-002
3.338317e+003;2.854624e-002
3.340245e+003;2.832128e-002
3.342174e+003;2.833066e-002
3.344102e+003;2.813395e-002
3.346031e+003;2.773364e-002
3.347959e+003;2.758490e-002
3.349888e+003;2.763649e-002
3.351816e+003;2.770344e-002
3.353745e+003;2.777161e-002
3.355674e+003;2.755570e-002
3.357602e+003;2.724940e-002
3.359531e+003;2.733112e-002
3.361459e+003;2.711713e-002
3.363388e+003;2.672536e-002
3.365316e+003;2.660539e-002
3.367245e+003;2.644257e-002
3.369173e+003;2.617633e-002
3.371102e+003;2.619720e-002
3.373031e+003;2.640056e-002
3.374959e+003;2.587114e-002
3.376887e+003;2.485415e-002
3.378816e+003;2.437679e-002
3.380745e+003;2.443368e-002
3.382673e+003;2.428722e-002
3.384602e+003;2.444626e-002
3.386530e+003;2.462770e-002
3.388459e+003;2.446922e-002
3.390387e+003;2.424847e-002
3.392316e+003;2.430706e-002
3.394244e+003;2.423344e-002
3.396173e+003;2.377808e-002
3.398102e+003;2.334718e-002
3.400030e+003;2.331567e-002
3.401959e+003;2.313199e-002
3.403887e+003;2.259125e-002
3.405816e+003;2.229941e-002
3.407744e+003;2.237131e-002
3.409673e+003;2.244981e-002
3.411601e+003;2.234633e-002
3.413530e+003;2.227319e-002
3.415458e+003;2.227249e-002
3.417387e+003;2.218851e-002
3.419316e+003;2.158963e-002
3.421244e+003;2.109324e-002
3.423173e+003;2.059140e-002
3.425101e+003;2.017295e-002
3.427030e+003;2.052901e-002
3.428958e+003;2.074430e-002
3.430887e+003;2.022870e-002
3.432815e+003;1.921357e-002
3.434744e+003;1.852381e-002
3.436673e+003;1.856009e-002
3.438601e+003;1.877651e-002
3.440530e+003;1.877866e-002
3.442458e+003;1.812728e-002
3.444387e+003;1.800186e-002
3.446315e+003;1.752670e-002
3.448244e+003;1.732265e-002
3.450172e+003;1.763341e-002
3.452101e+003;1.738893e-002
3.454030e+003;1.672755e-002
3.455958e+003;1.634322e-002
3.457886e+003;1.642359e-002
3.459815e+003;1.688873e-002
3.461744e+003;1.702489e-002
3.463672e+003;1.680162e-002
3.465601e+003;1.644327e-002
3.467529e+003;1.577498e-002
3.469458e+003;1.518573e-002
3.471386e+003;1.491900e-002
3.473315e+003;1.438050e-002
3.475243e+003;1.390551e-002
3.477172e+003;1.388167e-002
3.479101e+003;1.375689e-002
3.481029e+003;1.382991e-002
3.482958e+003;1.393326e-002
3.484886e+003;1.362127e-002
3.486815e+003;1.348679e-002
3.488743e+003;1.329085e-002
3.490672e+003;1.293327e-002
3.492600e+003;1.273550e-002
3.494529e+003;1.226950e-002
3.496458e+003;1.206733e-002
3.498386e+003;1.221732e-002
3.500315e+003;1.199228e-002
3.502243e+003;1.147002e-002
3.504172e+003;1.112454e-002
3.506100e+003;1.146335e-002
3.508029e+003;1.157196e-002
3.509957e+003;1.126115e-002
3.511886e+003;1.130441e-002
3.513814e+003;1.109986e-002
3.515743e+003;1.049971e-002
3.517672e+003;1.027397e-002
3.519600e+003;1.051359e-002
3.521529e+003;1.036358e-002
3.523457e+003;9.744653e-003
3.525386e+003;9.583487e-003
3.527314e+003;9.554695e-003
3.529243e+003;9.143289e-003
3.531171e+003;8.581283e-003
3.533100e+003;8.331235e-003
3.535029e+003;8.422001e-003
3.536957e+003;8.836343e-003
3.538885e+003;8.912704e-003
3.540814e+003;8.483760e-003
3.542743e+003;7.879989e-003
3.544671e+003;7.483379e-003
3.546600e+003;7.667340e-003
3.548528e+003;7.605325e-003
3.550457e+003;7.201892e-003
3.552385e+003;6.809872e-003
3.554314e+003;6.611943e-003
3.556242e+003;6.219547e-003
3.558171e+003;5.999109e-003
3.560100e+003;5.753902e-003
3.562028e+003;5.166820e-003
3.563957e+003;4.505062e-003
3.565885e+003;3.707576e-003
3.567814e+003;3.504140e-003
3.569742e+003;3.978380e-003
3.571671e+003;4.025866e-003
3.573599e+003;3.853069e-003
3.575528e+003;3.820343e-003
3.577457e+003;3.350215e-003
3.579385e+003;2.730260e-003
3.581314e+003;2.701053e-003
3.583242e+003;2.367807e-003
3.585171e+003;1.920514e-003
3.587099e+003;1.557305e-003
3.589028e+003;1.607254e-003
3.590956e+003;1.772905e-003
3.592885e+003;1.492500e-003
3.594813e+003;1.286976e-003
3.596742e+003;1.525849e-003
3.598671e+003;1.578521e-003
3.600599e+003;1.549491e-003
3.602528e+003;1.614305e-003
3.604456e+003;1.259460e-003
3.606385e+003;3.255645e-004
3.608313e+003;-9.715952e-004
3.610242e+003;-1.381808e-003
3.612170e+003;-9.152574e-004
3.614099e+003;-2.359165e-004
3.616028e+003;-2.663491e-004
3.617956e+003;-1.332857e-003
3.619885e+003;-1.375368e-003
3.621813e+003;-6.091396e-004
3.623742e+003;-7.979955e-004
3.625670e+003;-1.917172e-003
3.627599e+003;-4.081562e-003
3.629527e+003;-4.095413e-003
3.631456e+003;-1.903812e-003
3.633385e+003;-1.145753e-003
3.635313e+003;-1.090760e-003
3.637241e+003;-1.224530e-003
3.639170e+003;-1.065409e-003
3.641099e+003;-8.123822e-004
3.643027e+003;-1.253406e-003
3.644956e+003;-2.780074e-003
3.646884e+003;-4.643049e-003
3.648813e+003;-5.160199e-003
3.650741e+003;-3.880566e-003
3.652670e+003;-2.822510e-003
3.654598e+003;-3.418468e-003
3.656527e+003;-3.674812e-003
3.658456e+003;-3.148421e-003
3.660384e+003;-3.152204e-003
3.662313e+003;-2.925074e-003
3.664241e+003;-2.634960e-003
3.666170e+003;-3.210653e-003
3.668098e+003;-4.868233e-003
3.670027e+003;-5.860623e-003
3.671955e+003;-4.935690e-003
3.673884e+003;-5.786148e-003
3.675813e+003;-6.167276e-003
3.677741e+003;-3.735228e-003
3.679669e+003;-2.776091e-003
3.681598e+003;-2.825768e-003
3.683527e+003;-2.753340e-003
3.685455e+003;-3.079172e-003
3.687384e+003;-4.645048e-003
3.689312e+003;-5.128045e-003
3.691241e+003;-4.388654e-003
3.693169e+003;-3.286951e-003
3.695098e+003;-2.516844e-003
3.697026e+003;-2.390821e-003
3.698955e+003;-2.376552e-003
3.700884e+003;-2.851116e-003
3.702812e+003;-2.611774e-003
3.704741e+003;-2.208260e-003
3.706669e+003;-2.838278e-003
3.708598e+003;-3.957108e-003
3.710526e+003;-4.758851e-003
3.712455e+003;-4.369465e-003
3.714383e+003;-3.302078e-003
3.716312e+003;-3.116907e-003
3.718240e+003;-2.808881e-003
3.720169e+003;-2.484197e-003
3.722098e+003;-2.550905e-003
3.724026e+003;-2.982929e-003
3.725955e+003;-3.517704e-003
3.727883e+003;-3.361033e-003
3.729812e+003;-3.568645e-003
3.731740e+003;-4.673239e-003
3.733669e+003;-5.122413e-003
3.735597e+003;-5.125687e-003
3.737526e+003;-3.764792e-003
3.739455e+003;-2.423244e-003
3.741383e+003;-3.201280e-003
3.743312e+003;-6.481385e-003
3.745240e+003;-6.380146e-003
3.747169e+003;-5.038904e-003
3.749097e+003;-6.551203e-003
3.751026e+003;-6.740201e-003
3.752954e+003;-4.852506e-003
3.754883e+003;-2.886961e-003
3.756812e+003;-2.649088e-003
3.758740e+003;-2.751628e-003
3.760668e+003;-2.513682e-003
3.762597e+003;-1.957481e-003
3.764526e+003;-2.031428e-003
3.766454e+003;-1.899457e-003
3.768383e+003;-2.883406e-003
3.770311e+003;-3.521385e-003
3.772240e+003;-2.917932e-003
3.774168e+003;-2.299369e-003
3.776097e+003;-2.192173e-003
3.778025e+003;-2.457313e-003
3.779954e+003;-2.793935e-003
3.781883e+003;-2.757291e-003
3.783811e+003;-2.663513e-003
3.785740e+003;-2.018763e-003
3.787668e+003;-1.489733e-003
3.789597e+003;-1.294174e-003
3.791525e+003;-1.387390e-003
3.793454e+003;-1.591358e-003
3.795382e+003;-2.014839e-003
3.797311e+003;-2.473786e-003
3.799240e+003;-3.975494e-003
3.801168e+003;-4.921603e-003
3.803097e+003;-3.574231e-003
3.805025e+003;-3.596282e-003
3.806954e+003;-3.987182e-003
3.808882e+003;-2.675203e-003
3.810811e+003;-2.140510e-003
3.812739e+003;-2.635092e-003
3.814668e+003;-4.401544e-003
3.816596e+003;-4.139459e-003
3.818525e+003;-3.249856e-003
3.820454e+003;-4.365692e-003
3.822382e+003;-3.793237e-003
3.824311e+003;-2.534732e-003
3.826239e+003;-2.351013e-003
3.828168e+003;-2.424233e-003
3.830096e+003;-2.803548e-003
3.832025e+003;-2.625673e-003
3.833953e+003;-2.452008e-003
3.835882e+003;-3.966399e-003
3.837811e+003;-5.579921e-003
3.839739e+003;-4.598856e-003
3.841667e+003;-3.507023e-003
3.843596e+003;-3.469782e-003
3.845525e+003;-2.940411e-003
3.847453e+003;-2.488480e-003
3.849382e+003;-3.030839e-003
3.851310e+003;-5.464436e-003
3.853239e+003;-7.368830e-003
3.855167e+003;-4.905682e-003
3.857096e+003;-2.268782e-003
3.859024e+003;-2.306620e-003
3.860953e+003;-2.668749e-003
3.862882e+003;-2.472205e-003
3.864810e+003;-2.662689e-003
3.866739e+003;-2.447330e-003
3.868667e+003;-3.198122e-003
3.870596e+003;-3.186544e-003
3.872524e+003;-2.409669e-003
3.874453e+003;-2.121617e-003
3.876381e+003;-1.977074e-003
3.878310e+003;-2.683732e-003
3.880239e+003;-2.825011e-003
3.882167e+003;-2.356813e-003
3.884096e+003;-2.848252e-003
3.886024e+003;-2.854506e-003
3.887953e+003;-1.909947e-003
3.889881e+003;-2.485910e-003
3.891810e+003;-2.627385e-003
3.893738e+003;-1.256908e-003
3.895667e+003;-6.392813e-004
3.897595e+003;-1.213131e-003
3.899524e+003;-1.899853e-003
3.901453e+003;-2.675961e-003
3.903381e+003;-2.511441e-003
3.905310e+003;-1.267910e-003
3.907238e+003;-6.093050e-004
3.909167e+003;-9.380381e-004
3.911095e+003;-1.454994e-003
3.913024e+003;-1.255058e-003
3.914952e+003;-1.244717e-003
3.916881e+003;-1.898038e-003
3.918810e+003;-2.198238e-003
3.920738e+003;-1.316571e-003
3.922667e+003;-7.064393e-004
3.924595e+003;-9.717605e-004
3.926524e+003;-7.279739e-004
3.928452e+003;-5.609613e-004
3.930381e+003;-4.835870e-004
3.932309e+003;-5.909741e-004
3.934238e+003;-5.588765e-004
3.936167e+003;-2.393275e-004
3.938095e+003;-9.892698e-005
3.940023e+003;-1.278123e-004
3.941952e+003;-5.158225e-004
3.943881e+003;-7.259230e-004
3.945809e+003;-5.443492e-004
3.947738e+003;-8.653936e-004
3.949666e+003;-1.120670e-003
3.951595e+003;-8.437004e-004
3.953523e+003;-7.862214e-004
3.955452e+003;-7.516575e-004
3.957380e+003;-2.541631e-004
3.959309e+003;-2.063760e-004
3.961238e+003;-3.611765e-004
3.963166e+003;-5.426615e-004
3.965095e+003;-3.502512e-004
3.967023e+003;-2.765812e-004
3.968952e+003;-2.057468e-004
3.970880e+003;-3.209833e-004
3.972809e+003;-4.844807e-004
3.974737e+003;-1.896510e-004
3.976666e+003;1.323907e-004
3.978594e+003;1.745189e-004
3.980523e+003;1.721323e-004
3.982452e+003;-1.497400e-004
3.984380e+003;-1.617634e-004
3.986309e+003;2.370062e-004
3.988237e+003;3.749741e-004
3.990166e+003;5.623836e-004
3.992094e+003;8.365450e-004
3.994023e+003;8.174566e-004
3.995951e+003;8.293079e-004
3.997880e+003;1.002400e-003
3.999809e+003;7.347058e-004
4.001737e+003;0.000000e+000
