3.992094e+002;0.000000e+000
4.011380e+002;0.000000e+000
4.030665e+002;0.000000e+000
4.049951e+002;0.000000e+000
4.069236e+002;0.000000e+000
4.088522e+002;0.000000e+000
4.107807e+002;0.000000e+000
4.127093e+002;0.000000e+000
4.146378e+002;0.000000e+000
4.165664e+002;0.000000e+000
4.184949e+002;0.000000e+000
4.204235e+002;0.000000e+000
4.223520e+002;0.000000e+000
4.242806e+002;0.000000e+000
4.262091e+002;0.000000e+000
4.281377e+002;0.000000e+000
4.300662e+002;0.000000e+000
4.319948e+002;0.000000e+000
4.339233e+002;0.000000e+000
4.358519e+002;0.000000e+000
4.377804e+002;0.000000e+000
4.397090e+002;0.000000e+000
4.416375e+002;0.000000e+000
4.435660e+002;0.000000e+000
4.454946e+002;0.000000e+000
4.474232e+002;0.000000e+000
4.493517e+002;0.000000e+000
4.512802e+002;0.000000e+000
4.532088e+002;0.000000e+000
4.551373e+002;0.000000e+000
4.570659e+002;0.000000e+000
4.589944e+002;0.000000e+000
4.609230e+002;0.000000e+000
4.628515e+002;0.000000e+000
4.647801e+002;0.000000e+000
4.667086e+002;0.000000e+000
4.686372e+002;0.000000e+000
4.705657e+002;0.000000e+000
4.724943e+002;0.000000e+000
4.744228e+002;0.000000e+000
4.763513e+002;0.000000e+000
4.782799e+002;0.000000e+000
4.802085e+002;0.000000e+000
4.821370e+002;0.000000e+000
4.840656e+002;0.000000e+000
4.859941e+002;0.000000e+000
4.879226e+002;0.000000e+000
4.898512e+002;0.000000e+000
4.917798e+002;0.000000e+000
4.937083e+002;0.000000e+000
4.956368e+002;0.000000e+000
4.975654e+002;0.000000e+000
4.994939e+002;0.000000e+000
5.014225e+002;0.000000e+000
5.033510e+002;0.000000e+000
5.052796e+002;0.000000e+000
5.072081e+002;0.000000e+000
5.091367e+002;0.000000e+000
5.110652e+002;0.000000e+000
5.129938e+002;0.000000e+000
5.149223e+002;0.000000e+000
5.168509e+002;0.000000e+000
5.187794e+002;0.000000e+000
5.207079e+002;0.000000e+000
5.226365e+002;0.000000e+000
5.245651e+002;0.000000e+000
5.264936e+002;0.000000e+000
5.284222e+002;0.000000e+000
5.303507e+002;0.000000e+000
5.322792e+002;0.000000e+000
5.342078e+002;0.000000e+000
5.361364e+002;0.000000e+000
5.380649e+002;0.000000e+000
5.399935e+002;0.000000e+000
5.419220e+002;0.000000e+000
5.438505e+002;0.000000e+000
5.457791e+002;0.000000e+000
5.477076e+002;0.000000e+000
5.496362e+002;0.000000e+000
5.515648e+002;0.000000e+000
5.534933e+002;0.000000e+000
5.554218e+002;0.000000e+000
5.573504e+002;0.000000e+000
5.592789e+002;0.000000e+000
5.612075e+002;0.000000e+000
5.631360e+002;0.000000e+000
5.650646e+002;0.000000e+000
5.669931e+002;0.000000e+000
5.689217e+002;0.000000e+000
5.708502e+002;0.000000e+000
5.727787e+002;0.000000e+000
5.747073e+002;0.000000e+000
5.766359e+002;0.000000e+000
5.785644e+002;0.000000e+000
5.804930e+002;0.000000e+000
5.824215e+002;0.000000e+000
5.843500e+002;0.000000e+000
5.862786e+002;0.000000e+000
5.882072e+002;0.000000e+000
5.901357e+002;0.000000e+000
5.920643e+002;0.000000e+000
5.939928e+002;0.000000e+000
5.959213e+002;0.000000e+000
5.978499e+002;0.000000e+000
5.997784e+002;2.152891e-002
6.017070e+002;1.640983e-002
6.036355e+002;1.598610e-002
6.055641e+002;2.414523e-002
6.074926e+002;2.756022e-002
6.094211e+002;2.725628e-002
6.113497e+002;3.000251e-002
6.132783e+002;3.074539e-002
6.152068e+002;2.854546e-002
6.171354e+002;2.641845e-002
6.190639e+002;2.601964e-002
6.209924e+002;2.654657e-002
6.229210e+002;2.860785e-002
6.248495e+002;2.888278e-002
6.267781e+002;2.706405e-002
6.287067e+002;2.684853e-002
6.306352e+002;2.865209e-002
6.325637e+002;2.905619e-002
6.344923e+002;3.100374e-002
6.364208e+002;3.035958e-002
6.383494e+002;3.076872e-002
6.402780e+002;3.295570e-002
6.422065e+002;3.084011e-002
6.441350e+002;3.146108e-002
6.460636e+002;3.115714e-002
6.479921e+002;3.065233e-002
6.499207e+002;3.155838e-002
6.518492e+002;3.286109e-002
6.537778e+002;3.272313e-002
6.557063e+002;3.149037e-002
6.576349e+002;3.087213e-002
6.595634e+002;2.716679e-002
6.614919e+002;2.489545e-002
6.634205e+002;2.669122e-002
6.653491e+002;2.729023e-002
6.672776e+002;2.671782e-002
6.692062e+002;2.746198e-002
6.711347e+002;2.729418e-002
6.730632e+002;2.588246e-002
6.749918e+002;2.465610e-002
6.769203e+002;2.477385e-002
6.788489e+002;2.641827e-002
6.807775e+002;2.712076e-002
6.827060e+002;2.644010e-002
6.846345e+002;2.667152e-002
6.865631e+002;2.710485e-002
6.884916e+002;2.691649e-002
6.904202e+002;2.616971e-002
6.923488e+002;2.560373e-002
6.942773e+002;2.644767e-002
6.962058e+002;2.688325e-002
6.981344e+002;2.595773e-002
7.000629e+002;2.551472e-002
7.019915e+002;2.568282e-002
7.039200e+002;2.706920e-002
7.058486e+002;2.889291e-002
7.077771e+002;3.270534e-002
7.097057e+002;3.755892e-002
7.116342e+002;4.198486e-002
7.135627e+002;4.454306e-002
7.154913e+002;4.391796e-002
7.174199e+002;4.048181e-002
7.193484e+002;3.718669e-002
7.212770e+002;3.503441e-002
7.232055e+002;3.348747e-002
7.251340e+002;3.197265e-002
7.270626e+002;2.990400e-002
7.289911e+002;2.887555e-002
7.309197e+002;2.870334e-002
7.328483e+002;2.825650e-002
7.347768e+002;2.812232e-002
7.367053e+002;2.819915e-002
7.386339e+002;2.836645e-002
7.405624e+002;2.867478e-002
7.424910e+002;2.887899e-002
7.444196e+002;2.867007e-002
7.463481e+002;2.843458e-002
7.482766e+002;2.787179e-002
7.502052e+002;2.748369e-002
7.521337e+002;2.736436e-002
7.540623e+002;2.712481e-002
7.559908e+002;2.686376e-002
7.579194e+002;2.704899e-002
7.598479e+002;2.781520e-002
7.617765e+002;2.822209e-002
7.637050e+002;2.879723e-002
7.656335e+002;2.924995e-002
7.675621e+002;2.898867e-002
7.694907e+002;2.862222e-002
7.714192e+002;2.791985e-002
7.733478e+002;2.792073e-002
7.752763e+002;2.863199e-002
7.772048e+002;2.913885e-002
7.791334e+002;2.917581e-002
7.810620e+002;2.942042e-002
7.829905e+002;2.974859e-002
7.849191e+002;3.010840e-002
7.868476e+002;3.084879e-002
7.887761e+002;3.170182e-002
7.907047e+002;3.228787e-002
7.926332e+002;3.281489e-002
7.945618e+002;3.317020e-002
7.964903e+002;3.362070e-002
7.984189e+002;3.449778e-002
8.003474e+002;3.599469e-002
8.022759e+002;3.886211e-002
8.042045e+002;4.239400e-002
8.061331e+002;4.620227e-002
8.080616e+002;5.028685e-002
8.099902e+002;5.194746e-002
8.119187e+002;5.029321e-002
8.138472e+002;4.743007e-002
8.157758e+002;4.418152e-002
8.177043e+002;4.092285e-002
8.196329e+002;3.915654e-002
8.215615e+002;3.842217e-002
8.234900e+002;3.828001e-002
8.254185e+002;3.841146e-002
8.273471e+002;3.838510e-002
8.292756e+002;3.908091e-002
8.312042e+002;4.012988e-002
8.331328e+002;4.163485e-002
8.350613e+002;4.420367e-002
8.369898e+002;4.883900e-002
8.389184e+002;5.488448e-002
8.408469e+002;5.883118e-002
8.427755e+002;5.689948e-002
8.447040e+002;5.159941e-002
8.466326e+002;4.783399e-002
8.485611e+002;4.434075e-002
8.504897e+002;4.088699e-002
8.524182e+002;3.911115e-002
8.543467e+002;3.786919e-002
8.562753e+002;3.697525e-002
8.582039e+002;3.707491e-002
8.601324e+002;3.761876e-002
8.620610e+002;3.909672e-002
8.639895e+002;4.158646e-002
8.659180e+002;4.507587e-002
8.678466e+002;5.137908e-002
8.697751e+002;6.182861e-002
8.717037e+002;7.465672e-002
8.736323e+002;8.551832e-002
8.755608e+002;9.004913e-002
8.774893e+002;8.584981e-002
8.794179e+002;7.582001e-002
8.813464e+002;6.612565e-002
8.832750e+002;5.779962e-002
8.852036e+002;4.880556e-002
8.871321e+002;4.118402e-002
8.890606e+002;3.780943e-002
8.909892e+002;3.770772e-002
8.929177e+002;3.995174e-002
8.948463e+002;4.400731e-002
8.967748e+002;4.847850e-002
8.987034e+002;5.115880e-002
9.006319e+002;5.059722e-002
9.025605e+002;4.667609e-002
9.044890e+002;4.159652e-002
9.064175e+002;3.700336e-002
9.083461e+002;3.366803e-002
9.102747e+002;3.168004e-002
9.122032e+002;3.034906e-002
9.141318e+002;2.914693e-002
9.160603e+002;2.846918e-002
9.179888e+002;2.836100e-002
9.199174e+002;2.799483e-002
9.218459e+002;2.782615e-002
9.237745e+002;2.811288e-002
9.257031e+002;2.796486e-002
9.276316e+002;2.766237e-002
9.295601e+002;2.785911e-002
9.314887e+002;2.824069e-002
9.334172e+002;2.917765e-002
9.353458e+002;3.042330e-002
9.372744e+002;3.179340e-002
9.392029e+002;3.351549e-002
9.411314e+002;3.454624e-002
9.430600e+002;3.426373e-002
9.449885e+002;3.360122e-002
9.469171e+002;3.310997e-002
9.488456e+002;3.361290e-002
9.507742e+002;3.446051e-002
9.527027e+002;3.487034e-002
9.546313e+002;3.537821e-002
9.565598e+002;3.607026e-002
9.584883e+002;3.731979e-002
9.604169e+002;3.924126e-002
9.623455e+002;4.144708e-002
9.642740e+002;4.417653e-002
9.662026e+002;4.801144e-002
9.681311e+002;5.404364e-002
9.700596e+002;6.108409e-002
9.719882e+002;6.566221e-002
9.739167e+002;6.544330e-002
9.758453e+002;6.086592e-002
9.777739e+002;5.392706e-002
9.797024e+002;4.651711e-002
9.816309e+002;4.017615e-002
9.835595e+002;3.599203e-002
9.854880e+002;3.400455e-002
9.874166e+002;3.386686e-002
9.893452e+002;3.566803e-002
9.912737e+002;3.936332e-002
9.932022e+002;4.432625e-002
9.951307e+002;5.041938e-002
9.970593e+002;5.472802e-002
9.989879e+002;5.410203e-002
1.000916e+003;4.980882e-002
1.002845e+003;4.405487e-002
1.004773e+003;3.873577e-002
1.006702e+003;3.498596e-002
1.008631e+003;3.225675e-002
1.010559e+003;2.998345e-002
1.012488e+003;2.843996e-002
1.014416e+003;2.739612e-002
1.016345e+003;2.668424e-002
1.018273e+003;2.608322e-002
1.020202e+003;2.520957e-002
1.022130e+003;2.479276e-002
1.024059e+003;2.466785e-002
1.025988e+003;2.425877e-002
1.027916e+003;2.437020e-002
1.029845e+003;2.457699e-002
1.031773e+003;2.461700e-002
1.033702e+003;2.484261e-002
1.035630e+003;2.553643e-002
1.037559e+003;2.593617e-002
1.039487e+003;2.615711e-002
1.041416e+003;2.653389e-002
1.043344e+003;2.715349e-002
1.045273e+003;2.732703e-002
1.047202e+003;2.722474e-002
1.049130e+003;2.718157e-002
1.051059e+003;2.629670e-002
1.052987e+003;2.488362e-002
1.054916e+003;2.332060e-002
1.056844e+003;2.233437e-002
1.058773e+003;2.248847e-002
1.060701e+003;2.261872e-002
1.062630e+003;2.206136e-002
1.064558e+003;2.167792e-002
1.066487e+003;2.147160e-002
1.068416e+003;2.134058e-002
1.070344e+003;2.184353e-002
1.072273e+003;2.199220e-002
1.074201e+003;2.157898e-002
1.076130e+003;2.124074e-002
1.078058e+003;2.128184e-002
1.079987e+003;2.162773e-002
1.081915e+003;2.198746e-002
1.083844e+003;2.239569e-002
1.085773e+003;2.272983e-002
1.087701e+003;2.330477e-002
1.089630e+003;2.405371e-002
1.091558e+003;2.462117e-002
1.093487e+003;2.516234e-002
1.095415e+003;2.631437e-002
1.097344e+003;2.839008e-002
1.099272e+003;3.007910e-002
1.101201e+003;3.114632e-002
1.103129e+003;3.174670e-002
1.105058e+003;3.085979e-002
1.106987e+003;2.850452e-002
1.108915e+003;2.545400e-002
1.110844e+003;2.324593e-002
1.112772e+003;2.217686e-002
1.114701e+003;2.162488e-002
1.116629e+003;2.087604e-002
1.118558e+003;2.029844e-002
1.120486e+003;2.084847e-002
1.122415e+003;2.093880e-002
1.124344e+003;2.028678e-002
1.126272e+003;2.020770e-002
1.128201e+003;2.051150e-002
1.130129e+003;2.038275e-002
1.132058e+003;2.062180e-002
1.133986e+003;2.196916e-002
1.135915e+003;2.390840e-002
1.137843e+003;2.567280e-002
1.139772e+003;2.771082e-002
1.141700e+003;3.057564e-002
1.143629e+003;3.407969e-002
1.145557e+003;3.747031e-002
1.147486e+003;4.139707e-002
1.149415e+003;4.578496e-002
1.151343e+003;4.954476e-002
1.153272e+003;5.160997e-002
1.155200e+003;5.255731e-002
1.157129e+003;5.275466e-002
1.159057e+003;5.253787e-002
1.160986e+003;5.321314e-002
1.162914e+003;5.388295e-002
1.164843e+003;5.366060e-002
1.166771e+003;5.202832e-002
1.168700e+003;4.838522e-002
1.170629e+003;4.377450e-002
1.172557e+003;3.892653e-002
1.174486e+003;3.396703e-002
1.176414e+003;2.953330e-002
1.178343e+003;2.587290e-002
1.180271e+003;2.327953e-002
1.182200e+003;2.120765e-002
1.184128e+003;1.975723e-002
1.186057e+003;1.877105e-002
1.187986e+003;1.829753e-002
1.189914e+003;1.864683e-002
1.191843e+003;1.922784e-002
1.193771e+003;1.929344e-002
1.195700e+003;1.936293e-002
1.197628e+003;1.938001e-002
1.199557e+003;1.934973e-002
1.201485e+003;1.923563e-002
1.203414e+003;1.939841e-002
1.205343e+003;1.975868e-002
1.207271e+003;2.041873e-002
1.209200e+003;2.150297e-002
1.211128e+003;2.301686e-002
1.213057e+003;2.507016e-002
1.214985e+003;2.662417e-002
1.216914e+003;2.753826e-002
1.218842e+003;2.766378e-002
1.220771e+003;2.660546e-002
1.222699e+003;2.486871e-002
1.224628e+003;2.344134e-002
1.226557e+003;2.225512e-002
1.228485e+003;2.142164e-002
1.230414e+003;2.112256e-002
1.232342e+003;2.130342e-002
1.234271e+003;2.136404e-002
1.236199e+003;2.105070e-002
1.238128e+003;2.094933e-002
1.240056e+003;2.128024e-002
1.241985e+003;2.153434e-002
1.243913e+003;2.184897e-002
1.245842e+003;2.263024e-002
1.247771e+003;2.361844e-002
1.249699e+003;2.483292e-002
1.251628e+003;2.706433e-002
1.253556e+003;3.041381e-002
1.255485e+003;3.271663e-002
1.257413e+003;3.206689e-002
1.259342e+003;2.943152e-002
1.261270e+003;2.678728e-002
1.263199e+003;2.490594e-002
1.265127e+003;2.377682e-002
1.267056e+003;2.330193e-002
1.268985e+003;2.266755e-002
1.270913e+003;2.192131e-002
1.272842e+003;2.195428e-002
1.274770e+003;2.223678e-002
1.276699e+003;2.251098e-002
1.278627e+003;2.280809e-002
1.280556e+003;2.330473e-002
1.282484e+003;2.452331e-002
1.284413e+003;2.585883e-002
1.286342e+003;2.717684e-002
1.288270e+003;2.898184e-002
1.290199e+003;3.121987e-002
1.292127e+003;3.345000e-002
1.294056e+003;3.505679e-002
1.295984e+003;3.569314e-002
1.297913e+003;3.535794e-002
1.299841e+003;3.526032e-002
1.301770e+003;3.642565e-002
1.303698e+003;3.811716e-002
1.305627e+003;3.824303e-002
1.307556e+003;3.566850e-002
1.309484e+003;3.242466e-002
1.311413e+003;3.055811e-002
1.313341e+003;2.989016e-002
1.315270e+003;3.001302e-002
1.317198e+003;3.079341e-002
1.319127e+003;3.242045e-002
1.321055e+003;3.462719e-002
1.322984e+003;3.731726e-002
1.324912e+003;4.047385e-002
1.326841e+003;4.336435e-002
1.328770e+003;4.482514e-002
1.330698e+003;4.475039e-002
1.332627e+003;4.359394e-002
1.334555e+003;4.211591e-002
1.336484e+003;4.122540e-002
1.338412e+003;4.107172e-002
1.340341e+003;4.186418e-002
1.342269e+003;4.372374e-002
1.344198e+003;4.585002e-002
1.346126e+003;4.834193e-002
1.348055e+003;5.151594e-002
1.349984e+003;5.586534e-002
1.351912e+003;6.158284e-002
1.353841e+003;6.902279e-002
1.355769e+003;7.774717e-002
1.357698e+003;8.462471e-002
1.359626e+003;8.714441e-002
1.361555e+003;8.609298e-002
1.363483e+003;8.586454e-002
1.365412e+003;8.961101e-002
1.367341e+003;9.841754e-002
1.369269e+003;1.153068e-001
1.371198e+003;1.397951e-001
1.373126e+003;1.675641e-001
1.375055e+003;1.903214e-001
1.376983e+003;1.954785e-001
1.378912e+003;1.791148e-001
1.380840e+003;1.523395e-001
1.382769e+003;1.252465e-001
1.384698e+003;1.023916e-001
1.386626e+003;8.557655e-002
1.388555e+003;7.656211e-002
1.390483e+003;7.262463e-002
1.392412e+003;6.979199e-002
1.394340e+003;6.839018e-002
1.396269e+003;6.985740e-002
1.398197e+003;7.158960e-002
1.400126e+003;7.406370e-002
1.402054e+003;7.689501e-002
1.403983e+003;7.827539e-002
1.405911e+003;7.990580e-002
1.407840e+003;8.227568e-002
1.409769e+003;8.431093e-002
1.411697e+003;8.660453e-002
1.413626e+003;8.919729e-002
1.415554e+003;9.107117e-002
1.417483e+003;9.101205e-002
1.419411e+003;9.178922e-002
1.421340e+003;9.584015e-002
1.423268e+003;9.904008e-002
1.425197e+003;1.018175e-001
1.427125e+003;1.048873e-001
1.429054e+003;1.089022e-001
1.430983e+003;1.153572e-001
1.432911e+003;1.224678e-001
1.434840e+003;1.252942e-001
1.436768e+003;1.249748e-001
1.438697e+003;1.273349e-001
1.440625e+003;1.306286e-001
1.442554e+003;1.349109e-001
1.444482e+003;1.416858e-001
1.446411e+003;1.497113e-001
1.448340e+003;1.573524e-001
1.450268e+003;1.636806e-001
1.452197e+003;1.669988e-001
1.454125e+003;1.663371e-001
1.456054e+003;1.608033e-001
1.457982e+003;1.586911e-001
1.459911e+003;1.596010e-001
1.461839e+003;1.560341e-001
1.463768e+003;1.480787e-001
1.465697e+003;1.393975e-001
1.467625e+003;1.311215e-001
1.469554e+003;1.204805e-001
1.471482e+003;1.077045e-001
1.473411e+003;9.825011e-002
1.475339e+003;9.280372e-002
1.477268e+003;8.772029e-002
1.479196e+003;8.346622e-002
1.481125e+003;7.934918e-002
1.483053e+003;7.576935e-002
1.484982e+003;7.188793e-002
1.486911e+003;6.776134e-002
1.488839e+003;6.423851e-002
1.490768e+003;6.251755e-002
1.492696e+003;6.185241e-002
1.494625e+003;5.870084e-002
1.496553e+003;5.536355e-002
1.498482e+003;5.481072e-002
1.500410e+003;5.483538e-002
1.502339e+003;5.357764e-002
1.504267e+003;4.789425e-002
1.506196e+003;4.182609e-002
1.508125e+003;4.317652e-002
1.510053e+003;4.566513e-002
1.511982e+003;4.499901e-002
1.513910e+003;4.396210e-002
1.515839e+003;4.167354e-002
1.517767e+003;3.957966e-002
1.519696e+003;3.636754e-002
1.521624e+003;3.413980e-002
1.523553e+003;3.560628e-002
1.525481e+003;3.603574e-002
1.527410e+003;3.634678e-002
1.529339e+003;3.659054e-002
1.531267e+003;3.525626e-002
1.533196e+003;3.300110e-002
1.535124e+003;3.317953e-002
1.537053e+003;3.050988e-002
1.538981e+003;2.436772e-002
1.540910e+003;2.384335e-002
1.542838e+003;2.659736e-002
1.544767e+003;2.798624e-002
1.546695e+003;2.907872e-002
1.548624e+003;2.874678e-002
1.550553e+003;2.785434e-002
1.552481e+003;2.620772e-002
1.554410e+003;2.383936e-002
1.556338e+003;2.062229e-002
1.558267e+003;1.477280e-002
1.560195e+003;1.643305e-002
1.562124e+003;2.254291e-002
1.564052e+003;2.394887e-002
1.565981e+003;2.349513e-002
1.567910e+003;2.201524e-002
1.569838e+003;2.069453e-002
1.571767e+003;2.201555e-002
1.573695e+003;2.092447e-002
1.575624e+003;1.781468e-002
1.577552e+003;1.963085e-002
1.579481e+003;2.233283e-002
1.581409e+003;2.243348e-002
1.583338e+003;2.201817e-002
1.585266e+003;2.164131e-002
1.587195e+003;2.131138e-002
1.589124e+003;2.070259e-002
1.591052e+003;2.019388e-002
1.592981e+003;1.957501e-002
1.594909e+003;1.942062e-002
1.596838e+003;1.973212e-002
1.598766e+003;1.963584e-002
1.600695e+003;1.926154e-002
1.602623e+003;1.897138e-002
1.604552e+003;1.891195e-002
1.606480e+003;1.870999e-002
1.608409e+003;1.819006e-002
1.610338e+003;1.808811e-002
1.612266e+003;1.840222e-002
1.614195e+003;1.678000e-002
1.616123e+003;1.328207e-002
1.618052e+003;1.465770e-002
1.619980e+003;1.713873e-002
1.621909e+003;1.616510e-002
1.623837e+003;1.550881e-002
1.625766e+003;1.657313e-002
1.627694e+003;1.689876e-002
1.629623e+003;1.736138e-002
1.631552e+003;1.760605e-002
1.633480e+003;1.488155e-002
1.635409e+003;1.191667e-002
1.637337e+003;1.442424e-002
1.639266e+003;1.740469e-002
1.641194e+003;1.790655e-002
1.643123e+003;1.681264e-002
1.645051e+003;1.372341e-002
1.646980e+003;1.292808e-002
1.648909e+003;1.510240e-002
1.650837e+003;1.123395e-002
1.652766e+003;5.048976e-003
1.654694e+003;9.904623e-003
1.656623e+003;1.590419e-002
1.658551e+003;1.688091e-002
1.660480e+003;1.566223e-002
1.662408e+003;1.436437e-002
1.664337e+003;1.537985e-002
1.666266e+003;1.568009e-002
1.668194e+003;1.333120e-002
1.670123e+003;1.256104e-002
1.672051e+003;1.375843e-002
1.673980e+003;1.272308e-002
1.675908e+003;1.263915e-002
1.677837e+003;1.453619e-002
1.679765e+003;1.435978e-002
1.681694e+003;1.196166e-002
1.683622e+003;7.080194e-003
1.685551e+003;8.353799e-003
1.687479e+003;1.290186e-002
1.689408e+003;1.383439e-002
1.691337e+003;1.390575e-002
1.693265e+003;1.201418e-002
1.695194e+003;7.714455e-003
1.697122e+003;7.841054e-003
1.699051e+003;6.458560e-003
1.700979e+003;6.644442e-003
1.702908e+003;1.088546e-002
1.704836e+003;1.100718e-002
1.706765e+003;1.140603e-002
1.708693e+003;1.226179e-002
1.710622e+003;1.251858e-002
1.712551e+003;1.150996e-002
1.714479e+003;9.209010e-003
1.716408e+003;5.948787e-003
1.718336e+003;6.373316e-003
1.720265e+003;9.957000e-003
1.722193e+003;1.121355e-002
1.724122e+003;1.123459e-002
1.726050e+003;1.131743e-002
1.727979e+003;1.089552e-002
1.729908e+003;1.022810e-002
1.731836e+003;7.508393e-003
1.733765e+003;4.846353e-003
1.735693e+003;8.336370e-003
1.737622e+003;1.073803e-002
1.739550e+003;9.762002e-003
1.741479e+003;1.018773e-002
1.743407e+003;1.033039e-002
1.745336e+003;9.988869e-003
1.747265e+003;8.902557e-003
1.749193e+003;6.946746e-003
1.751122e+003;5.829991e-003
1.753050e+003;7.230528e-003
1.754979e+003;7.525924e-003
1.756907e+003;6.750538e-003
1.758836e+003;6.600067e-003
1.760764e+003;5.630729e-003
1.762693e+003;5.539404e-003
1.764621e+003;6.438416e-003
1.766550e+003;5.363958e-003
1.768479e+003;4.427965e-003
1.770407e+003;3.246383e-003
1.772336e+003;1.818986e-003
1.774264e+003;3.657886e-003
1.776193e+003;5.352586e-003
1.778121e+003;5.266485e-003
1.780050e+003;4.732782e-003
1.781978e+003;4.940615e-003
1.783907e+003;4.843102e-003
1.785835e+003;5.116829e-003
1.787764e+003;5.935888e-003
1.789693e+003;5.684908e-003
1.791621e+003;5.000809e-003
1.793550e+003;6.721227e-003
1.795478e+003;9.074466e-003
1.797407e+003;9.199534e-003
1.799335e+003;8.402306e-003
1.801264e+003;8.091156e-003
1.803192e+003;8.155232e-003
1.805121e+003;7.508730e-003
1.807049e+003;6.646696e-003
1.808978e+003;5.403745e-003
1.810907e+003;4.309753e-003
1.812835e+003;4.174377e-003
1.814764e+003;4.132294e-003
1.816692e+003;3.740327e-003
1.818621e+003;3.740594e-003
1.820549e+003;3.739859e-003
1.822478e+003;3.467332e-003
1.824406e+003;2.817761e-003
1.826335e+003;2.896440e-003
1.828264e+003;2.535214e-003
1.830192e+003;2.234600e-003
1.832121e+003;3.157060e-003
1.834049e+003;3.760546e-003
1.835978e+003;3.614149e-003
1.837906e+003;3.522445e-003
1.839835e+003;3.460018e-003
1.841763e+003;2.420981e-003
1.843692e+003;8.147346e-004
1.845620e+003;1.514444e-003
1.847549e+003;2.566410e-003
1.849478e+003;2.767139e-003
1.851406e+003;3.000122e-003
1.853335e+003;2.845543e-003
1.855263e+003;2.545113e-003
1.857192e+003;2.416083e-003
1.859120e+003;2.359045e-003
1.861049e+003;2.550745e-003
1.862977e+003;2.666047e-003
1.864906e+003;2.322900e-003
1.866834e+003;1.371859e-003
1.868763e+003;5.811953e-004
1.870692e+003;1.227062e-003
1.872620e+003;1.972535e-003
1.874549e+003;2.043505e-003
1.876477e+003;1.919915e-003
1.878406e+003;1.995636e-003
1.880334e+003;2.210654e-003
1.882263e+003;1.946308e-003
1.884191e+003;1.814694e-003
1.886120e+003;2.030222e-003
1.888048e+003;1.961052e-003
1.889977e+003;1.967343e-003
1.891906e+003;2.504054e-003
1.893834e+003;2.665246e-003
1.895763e+003;2.605609e-003
1.897691e+003;2.640710e-003
1.899620e+003;2.698552e-003
1.901548e+003;2.529315e-003
1.903477e+003;2.426212e-003
1.905405e+003;2.234167e-003
1.907334e+003;2.038211e-003
1.909262e+003;1.969540e-003
1.911191e+003;2.138759e-003
1.913120e+003;2.333493e-003
1.915048e+003;2.165231e-003
1.916977e+003;1.253113e-003
1.918905e+003;1.145096e-003
1.920834e+003;1.671012e-003
1.922762e+003;1.566517e-003
1.924691e+003;1.609050e-003
1.926619e+003;1.855921e-003
1.928548e+003;1.862110e-003
1.930477e+003;1.614072e-003
1.932405e+003;1.338223e-003
1.934334e+003;1.239622e-003
1.936262e+003;1.228657e-003
1.938191e+003;9.093210e-004
1.940119e+003;5.291747e-004
1.942048e+003;4.548371e-004
1.943976e+003;8.531443e-004
1.945905e+003;1.186227e-003
1.947833e+003;1.261720e-003
1.949762e+003;1.185031e-003
1.951691e+003;1.213671e-003
1.953619e+003;1.084937e-003
1.955548e+003;8.432511e-004
1.957476e+003;8.927528e-004
1.959405e+003;1.017013e-003
1.961333e+003;1.137589e-003
1.963262e+003;1.211711e-003
1.965190e+003;1.061287e-003
1.967119e+003;5.832855e-004
1.969047e+003;4.776246e-004
1.970976e+003;8.146018e-004
1.972905e+003;1.013991e-003
1.974833e+003;9.874558e-004
1.976762e+003;1.081349e-003
1.978690e+003;1.150645e-003
1.980619e+003;1.278136e-003
1.982547e+003;1.286311e-003
1.984476e+003;1.235734e-003
1.986404e+003;1.178286e-003
1.988333e+003;1.141841e-003
1.990261e+003;1.095035e-003
1.992190e+003;8.825266e-004
1.994119e+003;1.175263e-003
1.996047e+003;1.345734e-003
1.997976e+003;1.198586e-003
1.999904e+003;1.122374e-003
2.001833e+003;1.146392e-003
2.003761e+003;1.224470e-003
2.005690e+003;9.812457e-004
2.007618e+003;8.719023e-004
2.009547e+003;1.077330e-003
2.011476e+003;1.338655e-003
2.013404e+003;1.224769e-003
2.015333e+003;1.247032e-003
2.017261e+003;1.460616e-003
2.019190e+003;1.522823e-003
2.021118e+003;1.533164e-003
2.023047e+003;1.484820e-003
2.024975e+003;1.406030e-003
2.026904e+003;1.637286e-003
2.028833e+003;1.677099e-003
2.030761e+003;1.557305e-003
2.032690e+003;1.709598e-003
2.034618e+003;1.954063e-003
2.036547e+003;1.865371e-003
2.038475e+003;1.698953e-003
2.040404e+003;1.612775e-003
2.042332e+003;1.602033e-003
2.044261e+003;1.546199e-003
2.046189e+003;1.627741e-003
2.048118e+003;1.712924e-003
2.050047e+003;1.738905e-003
2.051975e+003;1.971870e-003
2.053904e+003;1.984984e-003
2.055832e+003;1.739205e-003
2.057761e+003;1.569177e-003
2.059689e+003;1.633861e-003
2.061618e+003;1.873225e-003
2.063546e+003;1.900679e-003
2.065475e+003;1.867235e-003
2.067404e+003;1.907402e-003
2.069332e+003;2.009550e-003
2.071260e+003;2.065577e-003
2.073189e+003;2.215716e-003
2.075118e+003;2.440240e-003
2.077046e+003;2.509652e-003
2.078975e+003;2.401256e-003
2.080903e+003;2.435408e-003
2.082832e+003;2.464865e-003
2.084760e+003;2.412618e-003
2.086689e+003;2.509786e-003
2.088617e+003;2.756802e-003
2.090546e+003;2.921425e-003
2.092475e+003;2.980138e-003
2.094403e+003;2.916621e-003
2.096332e+003;2.790015e-003
2.098260e+003;2.770374e-003
2.100189e+003;2.690084e-003
2.102117e+003;2.571743e-003
2.104046e+003;2.818462e-003
2.105974e+003;2.798519e-003
2.107903e+003;2.665013e-003
2.109832e+003;2.704854e-003
2.111760e+003;2.742364e-003
2.113688e+003;2.632777e-003
2.115617e+003;2.764872e-003
2.117546e+003;3.093384e-003
2.119474e+003;3.201419e-003
2.121403e+003;3.381404e-003
2.123331e+003;3.610674e-003
2.125260e+003;3.936751e-003
2.127188e+003;4.148551e-003
2.129117e+003;4.074294e-003
2.131045e+003;4.297873e-003
2.132974e+003;4.589740e-003
2.134903e+003;4.556959e-003
2.136831e+003;4.270936e-003
2.138760e+003;3.949356e-003
2.140688e+003;3.779999e-003
2.142617e+003;4.103861e-003
2.144545e+003;4.041885e-003
2.146474e+003;3.721377e-003
2.148402e+003;3.763354e-003
2.150331e+003;4.160727e-003
2.152260e+003;4.527695e-003
2.154188e+003;4.570787e-003
2.156117e+003;4.346532e-003
2.158045e+003;4.296635e-003
2.159974e+003;4.228274e-003
2.161902e+003;4.251830e-003
2.163831e+003;4.536199e-003
2.165759e+003;4.658626e-003
2.167688e+003;4.522773e-003
2.169616e+003;4.580196e-003
2.171545e+003;4.617903e-003
2.173474e+003;4.848262e-003
2.175402e+003;5.238682e-003
2.177331e+003;5.366239e-003
2.179259e+003;4.991960e-003
2.181188e+003;4.724844e-003
2.183116e+003;4.889075e-003
2.185045e+003;5.039356e-003
2.186973e+003;4.990686e-003
2.188902e+003;4.726351e-003
2.190831e+003;4.576547e-003
2.192759e+003;4.694195e-003
2.194688e+003;4.734089e-003
2.196616e+003;4.678856e-003
2.198545e+003;4.679190e-003
2.200473e+003;4.554983e-003
2.202402e+003;4.554347e-003
2.204330e+003;4.729399e-003
2.206259e+003;4.742262e-003
2.208188e+003;4.842198e-003
2.210116e+003;4.924026e-003
2.212044e+003;4.918698e-003
2.213973e+003;4.835162e-003
2.215902e+003;4.648579e-003
2.217830e+003;4.578757e-003
2.219759e+003;4.837842e-003
2.221687e+003;4.917056e-003
2.223616e+003;4.945742e-003
2.225544e+003;5.085784e-003
2.227473e+003;5.150290e-003
2.229401e+003;5.031713e-003
2.231330e+003;5.025478e-003
2.233259e+003;4.820922e-003
2.235187e+003;4.657186e-003
2.237116e+003;4.844677e-003
2.239044e+003;4.848363e-003
2.240973e+003;4.584583e-003
2.242901e+003;4.626945e-003
2.244830e+003;4.906902e-003
2.246758e+003;5.013981e-003
2.248687e+003;4.948591e-003
2.250615e+003;5.158907e-003
2.252544e+003;5.419547e-003
2.254473e+003;5.567629e-003
2.256401e+003;5.696793e-003
2.258330e+003;5.802287e-003
2.260258e+003;5.668057e-003
2.262187e+003;5.379926e-003
2.264115e+003;5.214403e-003
2.266044e+003;5.169604e-003
2.267972e+003;5.121992e-003
2.269901e+003;5.158304e-003
2.271830e+003;4.978352e-003
2.273758e+003;4.621754e-003
2.275687e+003;4.463081e-003
2.277615e+003;4.665559e-003
2.279544e+003;4.772110e-003
2.281472e+003;4.717441e-003
2.283401e+003;4.578288e-003
2.285329e+003;4.493043e-003
2.287258e+003;4.642718e-003
2.289187e+003;4.707091e-003
2.291115e+003;4.939207e-003
2.293043e+003;4.974230e-003
2.294972e+003;4.678018e-003
2.296901e+003;4.446343e-003
2.298829e+003;4.513867e-003
2.300758e+003;4.628251e-003
2.302686e+003;4.783399e-003
2.304615e+003;4.859353e-003
2.306543e+003;4.710407e-003
2.308472e+003;4.753149e-003
2.310400e+003;4.727657e-003
2.312329e+003;4.460369e-003
2.314258e+003;4.443330e-003
2.316186e+003;4.440619e-003
2.318115e+003;4.340106e-003
2.320043e+003;4.637159e-003
2.321972e+003;4.900166e-003
2.323900e+003;5.054038e-003
2.325829e+003;5.124976e-003
2.327757e+003;4.857477e-003
2.329686e+003;4.820822e-003
2.331615e+003;5.057692e-003
2.333543e+003;5.085449e-003
2.335472e+003;5.202834e-003
2.337400e+003;5.476384e-003
2.339329e+003;5.367648e-003
2.341257e+003;5.351781e-003
2.343186e+003;5.337961e-003
2.345114e+003;5.487323e-003
2.347043e+003;6.011069e-003
2.348971e+003;6.308326e-003
2.350900e+003;6.309838e-003
2.352829e+003;6.247480e-003
2.354757e+003;6.003745e-003
2.356686e+003;5.912342e-003
2.358614e+003;5.977877e-003
2.360543e+003;6.362422e-003
2.362471e+003;6.424831e-003
2.364400e+003;6.244354e-003
2.366328e+003;6.217463e-003
2.368257e+003;6.423116e-003
2.370186e+003;6.492596e-003
2.372114e+003;6.481127e-003
2.374042e+003;6.591926e-003
2.375971e+003;6.734250e-003
2.377900e+003;6.854504e-003
2.379828e+003;7.071875e-003
2.381757e+003;6.966577e-003
2.383685e+003;6.775038e-003
2.385614e+003;6.964927e-003
2.387542e+003;7.093935e-003
2.389471e+003;7.098380e-003
2.391399e+003;7.274462e-003
2.393328e+003;7.378757e-003
2.395257e+003;7.393687e-003
2.397185e+003;7.310987e-003
2.399114e+003;7.167801e-003
2.401042e+003;7.294443e-003
2.402971e+003;7.414684e-003
2.404899e+003;7.435548e-003
2.406828e+003;7.462985e-003
2.408756e+003;7.549388e-003
2.410685e+003;7.582565e-003
2.412614e+003;7.556840e-003
2.414542e+003;7.706259e-003
2.416471e+003;7.840851e-003
2.418399e+003;7.757157e-003
2.420328e+003;7.614700e-003
2.422256e+003;7.831912e-003
2.424185e+003;7.920210e-003
2.426113e+003;8.018686e-003
2.428042e+003;8.369775e-003
2.429970e+003;8.338328e-003
2.431899e+003;8.093216e-003
2.433828e+003;7.988277e-003
2.435756e+003;7.872702e-003
2.437685e+003;7.532228e-003
2.439613e+003;7.257481e-003
2.441542e+003;7.395709e-003
2.443470e+003;7.629672e-003
2.445399e+003;7.301485e-003
2.447327e+003;7.054599e-003
2.449256e+003;7.036919e-003
2.451185e+003;6.954792e-003
2.453113e+003;6.835015e-003
2.455042e+003;6.900488e-003
2.456970e+003;7.253943e-003
2.458899e+003;7.535127e-003
2.460827e+003;7.242690e-003
2.462756e+003;6.916782e-003
2.464684e+003;6.870527e-003
2.466613e+003;7.051366e-003
2.468542e+003;7.130041e-003
2.470470e+003;7.123742e-003
2.472398e+003;7.303810e-003
2.474327e+003;7.484964e-003
2.476256e+003;7.552625e-003
2.478184e+003;7.687103e-003
2.480113e+003;7.948353e-003
2.482041e+003;8.005118e-003
2.483970e+003;7.985442e-003
2.485898e+003;8.197065e-003
2.487827e+003;8.440041e-003
2.489755e+003;8.708980e-003
2.491684e+003;8.845912e-003
2.493613e+003;8.908577e-003
2.495541e+003;9.294813e-003
2.497470e+003;9.655778e-003
2.499398e+003;9.861812e-003
2.501327e+003;9.844220e-003
2.503255e+003;1.002779e-002
2.505184e+003;1.047351e-002
2.507112e+003;1.111761e-002
2.509041e+003;1.170381e-002
2.510969e+003;1.187026e-002
2.512898e+003;1.194497e-002
2.514827e+003;1.228507e-002
2.516755e+003;1.280709e-002
2.518684e+003;1.326471e-002
2.520612e+003;1.335201e-002
2.522541e+003;1.334787e-002
2.524469e+003;1.361320e-002
2.526398e+003;1.366439e-002
2.528326e+003;1.340145e-002
2.530255e+003;1.324780e-002
2.532184e+003;1.335126e-002
2.534112e+003;1.357095e-002
2.536041e+003;1.334975e-002
2.537969e+003;1.278351e-002
2.539898e+003;1.264001e-002
2.541826e+003;1.300069e-002
2.543755e+003;1.303555e-002
2.545683e+003;1.271793e-002
2.547612e+003;1.275003e-002
2.549541e+003;1.311241e-002
2.551469e+003;1.343050e-002
2.553397e+003;1.381486e-002
2.555326e+003;1.416458e-002
2.557255e+003;1.439249e-002
2.559183e+003;1.455219e-002
2.561112e+003;1.450166e-002
2.563040e+003;1.454582e-002
2.564969e+003;1.496406e-002
2.566897e+003;1.556818e-002
2.568826e+003;1.621463e-002
2.570754e+003;1.680314e-002
2.572683e+003;1.761340e-002
2.574612e+003;1.838030e-002
2.576540e+003;1.920231e-002
2.578469e+003;1.990352e-002
2.580397e+003;2.025331e-002
2.582326e+003;2.040633e-002
2.584254e+003;1.988107e-002
2.586183e+003;1.896328e-002
2.588111e+003;1.817106e-002
2.590040e+003;1.761702e-002
2.591969e+003;1.718933e-002
2.593897e+003;1.667927e-002
2.595826e+003;1.639548e-002
2.597754e+003;1.637040e-002
2.599683e+003;1.633179e-002
2.601611e+003;1.629605e-002
2.603540e+003;1.646902e-002
2.605468e+003;1.678630e-002
2.607397e+003;1.733313e-002
2.609325e+003;1.776991e-002
2.611254e+003;1.829939e-002
2.613183e+003;1.886987e-002
2.615111e+003;1.884969e-002
2.617040e+003;1.858173e-002
2.618968e+003;1.848032e-002
2.620897e+003;1.820796e-002
2.622825e+003;1.810801e-002
2.624754e+003;1.813416e-002
2.626682e+003;1.806120e-002
2.628611e+003;1.784365e-002
2.630540e+003;1.731365e-002
2.632468e+003;1.695254e-002
2.634396e+003;1.691405e-002
2.636325e+003;1.690351e-002
2.638254e+003;1.680800e-002
2.640182e+003;1.699888e-002
2.642111e+003;1.751221e-002
2.644039e+003;1.808859e-002
2.645968e+003;1.861518e-002
2.647896e+003;1.896587e-002
2.649825e+003;1.911546e-002
2.651753e+003;1.950867e-002
2.653682e+003;1.999996e-002
2.655611e+003;2.020409e-002
2.657539e+003;2.039459e-002
2.659468e+003;2.048955e-002
2.661396e+003;2.038855e-002
2.663325e+003;2.038820e-002
2.665253e+003;2.057406e-002
2.667182e+003;2.064755e-002
2.669110e+003;2.064442e-002
2.671039e+003;2.088779e-002
2.672968e+003;2.119179e-002
2.674896e+003;2.151731e-002
2.676825e+003;2.168771e-002
2.678753e+003;2.152644e-002
2.680682e+003;2.128417e-002
2.682610e+003;2.110207e-002
2.684539e+003;2.116431e-002
2.686467e+003;2.162059e-002
2.688396e+003;2.209995e-002
2.690324e+003;2.198049e-002
2.692253e+003;2.170139e-002
2.694182e+003;2.131465e-002
2.696110e+003;2.109185e-002
2.698039e+003;2.120223e-002
2.699967e+003;2.167471e-002
2.701896e+003;2.226359e-002
2.703824e+003;2.278944e-002
2.705753e+003;2.363139e-002
2.707681e+003;2.454119e-002
2.709610e+003;2.535964e-002
2.711539e+003;2.632303e-002
2.713467e+003;2.738405e-002
2.715396e+003;2.866667e-002
2.717324e+003;3.059573e-002
2.719253e+003;3.237343e-002
2.721181e+003;3.380551e-002
2.723110e+003;3.456609e-002
2.725038e+003;3.422888e-002
2.726967e+003;3.311202e-002
2.728896e+003;3.182730e-002
2.730824e+003;3.056597e-002
2.732752e+003;2.916667e-002
2.734681e+003;2.812455e-002
2.736610e+003;2.746353e-002
2.738538e+003;2.653646e-002
2.740467e+003;2.565934e-002
2.742395e+003;2.483370e-002
2.744324e+003;2.364633e-002
2.746252e+003;2.290703e-002
2.748181e+003;2.283690e-002
2.750109e+003;2.287245e-002
2.752038e+003;2.279600e-002
2.753967e+003;2.273483e-002
2.755895e+003;2.318375e-002
2.757824e+003;2.374850e-002
2.759752e+003;2.402006e-002
2.761681e+003;2.435545e-002
2.763609e+003;2.498374e-002
2.765538e+003;2.537872e-002
2.767466e+003;2.583421e-002
2.769395e+003;2.636820e-002
2.771323e+003;2.683806e-002
2.773252e+003;2.718855e-002
2.775181e+003;2.739273e-002
2.777109e+003;2.814774e-002
2.779038e+003;2.947549e-002
2.780966e+003;3.070474e-002
2.782895e+003;3.200318e-002
2.784823e+003;3.343711e-002
2.786752e+003;3.495476e-002
2.788680e+003;3.670204e-002
2.790609e+003;3.850225e-002
2.792538e+003;4.018000e-002
2.794466e+003;4.177739e-002
2.796395e+003;4.324841e-002
2.798323e+003;4.452287e-002
2.800252e+003;4.602861e-002
2.802180e+003;4.805566e-002
2.804109e+003;5.059536e-002
2.806037e+003;5.276570e-002
2.807966e+003;5.457753e-002
2.809895e+003;5.652177e-002
2.811823e+003;5.871267e-002
2.813751e+003;6.085750e-002
2.815680e+003;6.309035e-002
2.817609e+003;6.553345e-002
2.819537e+003;6.816431e-002
2.821466e+003;7.153873e-002
2.823394e+003;7.566541e-002
2.825323e+003;8.071892e-002
2.827251e+003;8.717560e-002
2.829180e+003;9.520084e-002
2.831108e+003;1.044747e-001
2.833037e+003;1.135687e-001
2.834966e+003;1.209545e-001
2.836894e+003;1.252470e-001
2.838823e+003;1.256302e-001
2.840751e+003;1.230281e-001
2.842680e+003;1.190025e-001
2.844608e+003;1.146059e-001
2.846537e+003;1.103437e-001
2.848465e+003;1.069629e-001
2.850394e+003;1.050729e-001
2.852323e+003;1.036399e-001
2.854251e+003;1.031084e-001
2.856180e+003;1.035667e-001
2.858108e+003;1.059652e-001
2.860037e+003;1.109402e-001
2.861965e+003;1.175703e-001
2.863894e+003;1.247976e-001
2.865822e+003;1.312402e-001
2.867751e+003;1.354878e-001
2.869679e+003;1.377232e-001
2.871608e+003;1.388514e-001
2.873536e+003;1.395794e-001
2.875465e+003;1.399669e-001
2.877394e+003;1.388588e-001
2.879322e+003;1.368591e-001
2.881251e+003;1.354589e-001
2.883179e+003;1.348333e-001
2.885108e+003;1.346076e-001
2.887036e+003;1.352989e-001
2.888965e+003;1.371902e-001
2.890893e+003;1.399464e-001
2.892822e+003;1.430544e-001
2.894750e+003;1.467241e-001
2.896679e+003;1.508965e-001
2.898608e+003;1.555815e-001
2.900536e+003;1.613756e-001
2.902465e+003;1.670280e-001
2.904393e+003;1.723359e-001
2.906322e+003;1.771867e-001
2.908250e+003;1.817171e-001
2.910179e+003;1.864609e-001
2.912107e+003;1.903224e-001
2.914036e+003;1.924401e-001
2.915965e+003;1.932713e-001
2.917893e+003;1.927265e-001
2.919822e+003;1.907317e-001
2.921750e+003;1.867612e-001
2.923679e+003;1.810141e-001
2.925607e+003;1.743482e-001
2.927536e+003;1.675944e-001
2.929464e+003;1.600364e-001
2.931393e+003;1.514110e-001
2.933322e+003;1.435203e-001
2.935250e+003;1.367150e-001
2.937178e+003;1.310789e-001
2.939107e+003;1.274581e-001
2.941036e+003;1.260757e-001
2.942964e+003;1.281975e-001
2.944893e+003;1.333596e-001
2.946821e+003;1.399974e-001
2.948750e+003;1.457491e-001
2.950678e+003;1.494103e-001
2.952607e+003;1.513316e-001
2.954535e+003;1.510323e-001
2.956464e+003;1.485383e-001
2.958393e+003;1.450263e-001
2.960321e+003;1.403317e-001
2.962250e+003;1.339379e-001
2.964178e+003;1.268784e-001
2.966107e+003;1.193371e-001
2.968035e+003;1.118289e-001
2.969964e+003;1.048713e-001
2.971892e+003;9.833716e-002
2.973821e+003;9.250465e-002
2.975750e+003;8.737190e-002
2.977678e+003;8.253225e-002
2.979607e+003;7.806725e-002
2.981535e+003;7.422320e-002
2.983464e+003;7.054108e-002
2.985392e+003;6.673009e-002
2.987321e+003;6.302101e-002
2.989249e+003;6.012172e-002
2.991178e+003;5.732013e-002
2.993106e+003;5.427811e-002
2.995035e+003;5.160788e-002
2.996964e+003;4.932730e-002
2.998892e+003;4.705534e-002
3.000821e+003;4.456208e-002
3.002749e+003;4.221212e-002
3.004678e+003;3.995907e-002
3.006606e+003;3.778489e-002
3.008535e+003;3.588960e-002
3.010463e+003;3.425290e-002
3.012392e+003;3.226820e-002
3.014321e+003;3.030973e-002
3.016249e+003;2.914693e-002
3.018177e+003;2.799176e-002
3.020106e+003;2.636774e-002
3.022035e+003;2.473782e-002
3.023963e+003;2.349618e-002
3.025892e+003;2.264881e-002
3.027820e+003;2.190664e-002
3.029749e+003;2.096157e-002
3.031677e+003;1.998782e-002
3.033606e+003;1.923241e-002
3.035534e+003;1.845715e-002
3.037463e+003;1.745246e-002
3.039392e+003;1.706962e-002
3.041320e+003;1.705577e-002
3.043249e+003;1.665789e-002
3.045177e+003;1.598349e-002
3.047106e+003;1.558120e-002
3.049034e+003;1.526096e-002
3.050963e+003;1.467676e-002
3.052891e+003;1.414849e-002
3.054820e+003;1.411012e-002
3.056749e+003;1.398017e-002
3.058677e+003;1.359341e-002
3.060606e+003;1.371113e-002
3.062534e+003;1.384787e-002
3.064463e+003;1.349034e-002
3.066391e+003;1.277678e-002
3.068320e+003;1.220290e-002
3.070248e+003;1.215066e-002
3.072177e+003;1.213554e-002
3.074105e+003;1.214787e-002
3.076034e+003;1.187172e-002
3.077963e+003;1.153164e-002
3.079891e+003;1.144491e-002
3.081820e+003;1.126849e-002
3.083748e+003;1.095202e-002
3.085677e+003;1.087622e-002
3.087605e+003;1.081266e-002
3.089534e+003;1.080457e-002
3.091462e+003;1.081470e-002
3.093391e+003;1.078827e-002
3.095320e+003;1.066607e-002
3.097248e+003;1.062770e-002
3.099177e+003;1.050942e-002
3.101105e+003;1.053712e-002
3.103034e+003;1.046393e-002
3.104962e+003;1.031370e-002
3.106891e+003;1.005587e-002
3.108819e+003;1.004780e-002
3.110748e+003;1.034956e-002
3.112677e+003;1.029470e-002
3.114605e+003;1.013879e-002
3.116533e+003;9.944083e-003
3.118462e+003;9.945134e-003
3.120391e+003;1.043077e-002
3.122319e+003;1.055830e-002
3.124248e+003;1.043464e-002
3.126176e+003;1.039195e-002
3.128105e+003;1.064417e-002
3.130033e+003;1.115038e-002
3.131962e+003;1.167089e-002
3.133890e+003;1.167511e-002
3.135819e+003;1.117543e-002
3.137748e+003;1.073338e-002
3.139676e+003;1.068444e-002
3.141605e+003;1.098567e-002
3.143533e+003;1.102352e-002
3.145462e+003;1.113522e-002
3.147390e+003;1.114042e-002
3.149319e+003;1.101509e-002
3.151247e+003;1.100867e-002
3.153176e+003;1.097367e-002
3.155104e+003;1.082533e-002
3.157033e+003;1.066359e-002
3.158962e+003;1.087051e-002
3.160890e+003;1.097788e-002
3.162819e+003;1.075892e-002
3.164747e+003;1.065853e-002
3.166676e+003;1.042209e-002
3.168604e+003;1.053797e-002
3.170533e+003;1.122874e-002
3.172461e+003;1.145291e-002
3.174390e+003;1.100857e-002
3.176319e+003;1.050076e-002
3.178247e+003;1.042704e-002
3.180176e+003;1.078046e-002
3.182104e+003;1.080301e-002
3.184033e+003;1.049197e-002
3.185961e+003;1.076976e-002
3.187890e+003;1.100792e-002
3.189818e+003;1.110649e-002
3.191747e+003;1.123901e-002
3.193676e+003;1.121684e-002
3.195604e+003;1.110812e-002
3.197532e+003;1.092100e-002
3.199461e+003;1.083559e-002
3.201390e+003;1.102614e-002
3.203318e+003;1.088356e-002
3.205247e+003;1.059799e-002
3.207175e+003;1.052911e-002
3.209104e+003;1.022223e-002
3.211032e+003;1.021860e-002
3.212961e+003;1.022640e-002
3.214889e+003;1.027736e-002
3.216818e+003;1.029412e-002
3.218747e+003;9.944218e-003
3.220675e+003;9.478052e-003
3.222604e+003;9.109282e-003
3.224532e+003;8.942434e-003
3.226461e+003;8.760840e-003
3.228389e+003;8.541068e-003
3.230318e+003;8.383727e-003
3.232246e+003;8.384470e-003
3.234175e+003;7.969107e-003
3.236104e+003;7.477413e-003
3.238032e+003;7.512472e-003
3.239961e+003;7.599425e-003
3.241889e+003;7.218568e-003
3.243818e+003;6.598015e-003
3.245746e+003;6.504738e-003
3.247675e+003;6.854673e-003
3.249603e+003;6.914627e-003
3.251532e+003;6.789712e-003
3.253460e+003;6.594382e-003
3.255389e+003;6.292021e-003
3.257318e+003;6.486677e-003
3.259246e+003;6.501139e-003
3.261175e+003;6.236354e-003
3.263103e+003;6.181837e-003
3.265032e+003;6.205363e-003
3.266960e+003;5.846615e-003
3.268889e+003;5.433470e-003
3.270817e+003;5.767601e-003
3.272746e+003;6.239782e-003
3.274675e+003;6.340803e-003
3.276603e+003;6.245059e-003
3.278531e+003;6.166578e-003
3.280460e+003;6.076216e-003
3.282389e+003;6.077358e-003
3.284317e+003;5.797318e-003
3.286246e+003;5.889335e-003
3.288174e+003;6.382294e-003
3.290103e+003;6.312797e-003
3.292031e+003;6.285163e-003
3.293960e+003;6.135055e-003
3.295888e+003;5.657818e-003
3.297817e+003;5.497457e-003
3.299746e+003;5.508967e-003
3.301674e+003;5.658221e-003
3.303603e+003;5.545680e-003
3.305531e+003;5.437127e-003
3.307460e+003;5.785665e-003
3.309388e+003;6.074032e-003
3.311317e+003;5.977071e-003
3.313245e+003;5.571287e-003
3.315174e+003;5.539001e-003
3.317103e+003;5.838655e-003
3.319031e+003;5.556453e-003
3.320960e+003;5.273326e-003
3.322888e+003;5.719152e-003
3.324817e+003;5.365098e-003
3.326745e+003;4.968197e-003
3.328674e+003;5.709214e-003
3.330602e+003;6.058543e-003
3.332531e+003;5.838286e-003
3.334459e+003;5.840335e-003
3.336388e+003;5.834693e-003
3.338317e+003;5.609851e-003
3.340245e+003;5.284730e-003
3.342174e+003;5.252801e-003
3.344102e+003;5.592129e-003
3.346031e+003;6.081559e-003
3.347959e+003;6.326010e-003
3.349888e+003;6.351931e-003
3.351816e+003;5.727982e-003
3.353745e+003;5.600419e-003
3.355674e+003;5.740068e-003
3.357602e+003;5.782980e-003
3.359531e+003;5.542324e-003
3.361459e+003;5.500041e-003
3.363388e+003;5.875934e-003
3.365316e+003;5.889133e-003
3.367245e+003;5.807123e-003
3.369173e+003;5.998874e-003
3.371102e+003;5.884599e-003
3.373031e+003;5.433437e-003
3.374959e+003;5.161053e-003
3.376887e+003;5.206757e-003
3.378816e+003;5.540445e-003
3.380745e+003;5.764344e-003
3.382673e+003;5.529102e-003
3.384602e+003;4.892426e-003
3.386530e+003;4.678487e-003
3.388459e+003;4.870276e-003
3.390387e+003;5.227515e-003
3.392316e+003;5.663088e-003
3.394244e+003;5.914323e-003
3.396173e+003;5.973007e-003
3.398102e+003;5.597063e-003
3.400030e+003;5.091182e-003
3.401959e+003;4.953986e-003
3.403887e+003;4.564760e-003
3.405816e+003;4.453808e-003
3.407744e+003;4.741123e-003
3.409673e+003;4.841528e-003
3.411601e+003;4.839819e-003
3.413530e+003;4.973224e-003
3.415458e+003;5.079214e-003
3.417387e+003;4.949630e-003
3.419316e+003;4.569448e-003
3.421244e+003;4.677918e-003
3.423173e+003;4.916821e-003
3.425101e+003;4.697143e-003
3.427030e+003;4.561881e-003
3.428958e+003;4.617367e-003
3.430887e+003;4.728395e-003
3.432815e+003;4.293021e-003
3.434744e+003;3.467065e-003
3.436673e+003;3.509952e-003
3.438601e+003;4.290377e-003
3.440530e+003;4.362362e-003
3.442458e+003;4.144035e-003
3.444387e+003;4.054159e-003
3.446315e+003;3.414430e-003
3.448244e+003;3.409989e-003
3.450172e+003;3.239006e-003
3.452101e+003;2.697252e-003
3.454030e+003;2.783813e-003
3.455958e+003;3.068357e-003
3.457886e+003;3.136935e-003
3.459815e+003;3.008530e-003
3.461744e+003;2.504754e-003
3.463672e+003;2.060283e-003
3.465601e+003;2.076097e-003
3.467529e+003;2.518351e-003
3.469458e+003;2.726693e-003
3.471386e+003;2.626143e-003
3.473315e+003;2.511085e-003
3.475243e+003;2.217514e-003
3.477172e+003;2.067507e-003
3.479101e+003;1.796960e-003
3.481029e+003;1.461880e-003
3.482958e+003;1.327454e-003
3.484886e+003;1.462212e-003
3.486815e+003;1.803614e-003
3.488743e+003;1.838285e-003
3.490672e+003;1.729424e-003
3.492600e+003;1.613507e-003
3.494529e+003;1.501012e-003
3.496458e+003;1.501776e-003
3.498386e+003;1.801551e-003
3.500315e+003;1.742265e-003
3.502243e+003;1.517171e-003
3.504172e+003;1.776931e-003
3.506100e+003;1.841146e-003
3.508029e+003;1.055142e-003
3.509957e+003;8.390681e-004
3.511886e+003;1.468629e-003
3.513814e+003;1.702113e-003
3.515743e+003;1.131310e-003
3.517672e+003;1.213173e-003
3.519600e+003;1.797525e-003
3.521529e+003;1.439672e-003
3.523457e+003;9.645087e-004
3.525386e+003;1.020633e-003
3.527314e+003;8.059376e-004
3.529243e+003;8.617098e-004
3.531171e+003;1.162837e-003
3.533100e+003;1.039199e-003
3.535029e+003;6.253580e-004
3.536957e+003;3.274546e-004
3.538885e+003;3.408511e-004
3.540814e+003;6.959746e-004
3.542743e+003;6.255903e-004
3.544671e+003;4.876422e-004
3.546600e+003;5.932060e-004
3.548528e+003;9.174227e-004
3.550457e+003;5.686540e-004
3.552385e+003;3.489753e-004
3.554314e+003;7.955476e-004
3.556242e+003;8.499572e-004
3.558171e+003;5.478523e-004
3.560100e+003;7.166839e-004
3.562028e+003;9.029460e-004
3.563957e+003;1.357714e-004
3.565885e+003;-1.547383e-003
3.567814e+003;-1.921724e-003
3.569742e+003;-5.113547e-004
3.571671e+003;5.413167e-004
3.573599e+003;6.549571e-004
3.575528e+003;3.913899e-004
3.577457e+003;2.951589e-004
3.579385e+003;-7.060290e-005
3.581314e+003;-2.325387e-004
3.583242e+003;-1.576563e-004
3.585171e+003;-1.276368e-003
3.587099e+003;-2.580155e-003
3.589028e+003;-1.985155e-003
3.590956e+003;-9.415757e-004
3.592885e+003;-9.902077e-004
3.594813e+003;-9.776452e-004
3.596742e+003;-5.113216e-004
3.598671e+003;-4.623382e-004
3.600599e+003;-4.195062e-004
3.602528e+003;1.721655e-004
3.604456e+003;1.179401e-004
3.606385e+003;-1.202590e-003
3.608313e+003;-2.239412e-003
3.610242e+003;-1.753685e-003
3.612170e+003;-1.834892e-003
3.614099e+003;-1.917139e-003
3.616028e+003;-1.780349e-003
3.617956e+003;-2.405682e-003
3.619885e+003;-2.099228e-003
3.621813e+003;-9.636938e-004
3.623742e+003;-4.459870e-004
3.625670e+003;-1.236920e-003
3.627599e+003;-4.607250e-003
3.629527e+003;-4.758752e-003
3.631456e+003;-1.173082e-003
3.633385e+003;-1.905165e-005
3.635313e+003;-2.928724e-004
3.637241e+003;-4.127202e-004
3.639170e+003;-6.489421e-004
3.641099e+003;-7.315795e-004
3.643027e+003;-6.944310e-004
3.644956e+003;-1.365161e-003
3.646884e+003;-3.691567e-003
3.648813e+003;-5.473434e-003
3.650741e+003;-4.301591e-003
3.652670e+003;-2.265321e-003
3.654598e+003;-2.661142e-003
3.656527e+003;-2.826789e-003
3.658456e+003;-1.230576e-003
3.660384e+003;-1.945195e-004
3.662313e+003;1.021643e-004
3.664241e+003;2.171485e-004
3.666170e+003;-6.177753e-004
3.668098e+003;-3.183781e-003
3.670027e+003;-4.680910e-003
3.671955e+003;-3.567560e-003
3.673884e+003;-4.908204e-003
3.675813e+003;-4.915477e-003
3.677741e+003;-1.895531e-003
3.679669e+003;-7.165947e-004
3.681598e+003;6.060639e-005
3.683527e+003;8.831119e-005
3.685455e+003;-9.392613e-004
3.687384e+003;-4.093115e-003
3.689312e+003;-4.317076e-003
3.691241e+003;-1.979449e-003
3.693169e+003;4.052482e-005
3.695098e+003;9.137703e-004
3.697026e+003;7.648434e-004
3.698955e+003;4.669770e-004
3.700884e+003;-3.185332e-004
3.702812e+003;-2.546929e-004
3.704741e+003;3.297757e-004
3.706669e+003;8.496399e-005
3.708598e+003;-1.149256e-003
3.710526e+003;-2.524157e-003
3.712455e+003;-2.033176e-003
3.714383e+003;4.738426e-005
3.716312e+003;4.573579e-004
3.718240e+003;8.045690e-005
3.720169e+003;-5.329652e-004
3.722098e+003;-8.324565e-004
3.724026e+003;-9.429313e-004
3.725955e+003;-9.952986e-004
3.727883e+003;-1.524561e-004
3.729812e+003;-7.979955e-004
3.731740e+003;-2.919743e-003
3.733669e+003;-3.885853e-003
3.735597e+003;-4.289092e-003
3.737526e+003;-1.909552e-003
3.739455e+003;3.081575e-005
3.741383e+003;-1.851290e-003
3.743312e+003;-7.035411e-003
3.745240e+003;-6.103081e-003
3.747169e+003;-3.802927e-003
3.749097e+003;-6.449100e-003
3.751026e+003;-6.503843e-003
3.752954e+003;-3.190853e-003
3.754883e+003;-3.366288e-005
3.756812e+003;-1.085998e-004
3.758740e+003;-4.511506e-004
3.760668e+003;1.963967e-004
3.762597e+003;1.050492e-003
3.764526e+003;3.548780e-004
3.766454e+003;6.288753e-004
3.768383e+003;2.565001e-004
3.770311e+003;1.920542e-004
3.772240e+003;1.291960e-003
3.774168e+003;1.361090e-003
3.776097e+003;5.397242e-004
3.778025e+003;-1.042603e-004
3.779954e+003;1.785629e-004
3.781883e+003;1.183369e-003
3.783811e+003;1.423516e-003
3.785740e+003;1.545201e-003
3.787668e+003;1.612376e-003
3.789597e+003;1.912860e-003
3.791525e+003;1.730988e-003
3.793454e+003;1.443429e-003
3.795382e+003;2.835543e-004
3.797311e+003;-1.784895e-004
3.799240e+003;-1.729627e-003
3.801168e+003;-3.581363e-003
3.803097e+003;-1.141788e-003
3.805025e+003;-8.917811e-004
3.806954e+003;-1.418964e-003
3.808882e+003;7.372614e-004
3.810811e+003;1.470391e-003
3.812739e+003;6.793481e-004
3.814668e+003;-2.379781e-003
3.816596e+003;-2.561907e-003
3.818525e+003;-1.328959e-003
3.820454e+003;-3.055418e-003
3.822382e+003;-1.495710e-003
3.824311e+003;9.590295e-004
3.826239e+003;1.466700e-003
3.828168e+003;1.646865e-003
3.830096e+003;9.420608e-004
3.832025e+003;3.269904e-004
3.833953e+003;-7.499044e-004
3.835882e+003;-3.293594e-003
3.837811e+003;-4.436114e-003
3.839739e+003;-2.359877e-003
3.841667e+003;-8.707505e-004
3.843596e+003;-1.530192e-004
3.845525e+003;1.151575e-003
3.847453e+003;1.821681e-003
3.849382e+003;-1.304954e-004
3.851310e+003;-5.484460e-003
3.853239e+003;-9.332466e-003
3.855167e+003;-4.787887e-003
3.857096e+003;3.478479e-004
3.859024e+003;1.209019e-003
3.860953e+003;6.166645e-004
3.862882e+003;2.433383e-004
3.864810e+003;-3.247578e-004
3.866739e+003;-4.359576e-004
3.868667e+003;-1.918426e-003
3.870596e+003;-1.659855e-003
3.872524e+003;-2.600906e-004
3.874453e+003;1.577798e-004
3.876381e+003;1.225965e-003
3.878310e+003;6.249598e-004
3.880239e+003;-1.663673e-004
3.882167e+003;4.539084e-004
3.884096e+003;-5.332961e-004
3.886024e+003;-2.408177e-004
3.887953e+003;2.029556e-003
3.889881e+003;1.144133e-003
3.891810e+003;5.386295e-004
3.893738e+003;2.141556e-003
3.895667e+003;2.251319e-003
3.897595e+003;5.792046e-004
3.899524e+003;-7.658472e-004
3.901453e+003;-5.951102e-004
3.903381e+003;-1.881606e-004
3.905310e+003;8.858800e-004
3.907238e+003;1.939352e-003
3.909167e+003;2.381233e-003
3.911095e+003;2.833870e-003
3.913024e+003;2.778577e-003
3.914952e+003;2.243093e-003
3.916881e+003;1.904240e-003
3.918810e+003;1.940317e-003
3.920738e+003;2.181148e-003
3.922667e+003;2.313706e-003
3.924595e+003;2.095041e-003
3.926524e+003;2.416916e-003
3.928452e+003;2.736596e-003
3.930381e+003;2.610276e-003
3.932309e+003;2.323067e-003
3.934238e+003;2.646778e-003
3.936167e+003;2.912551e-003
3.938095e+003;2.713956e-003
3.940023e+003;2.572243e-003
3.941952e+003;2.460699e-003
3.943881e+003;2.679915e-003
3.945809e+003;3.103295e-003
3.947738e+003;2.946377e-003
3.949666e+003;2.777176e-003
3.951595e+003;3.051973e-003
3.953523e+003;3.257133e-003
3.955452e+003;3.701828e-003
3.957380e+003;3.665203e-003
3.959309e+003;2.863153e-003
3.961238e+003;2.293987e-003
3.963166e+003;2.688917e-003
3.965095e+003;3.163635e-003
3.967023e+003;3.334923e-003
3.968952e+003;3.273224e-003
3.970880e+003;3.159998e-003
3.972809e+003;2.954350e-003
3.974737e+003;3.124420e-003
3.976666e+003;3.277297e-003
3.978594e+003;3.200551e-003
3.980523e+003;3.228657e-003
3.982452e+003;3.219311e-003
3.984380e+003;3.211600e-003
3.986309e+003;3.633327e-003
3.988237e+003;4.044394e-003
3.990166e+003;4.191338e-003
3.992094e+003;4.345996e-003
3.994023e+003;4.290411e-003
3.995951e+003;4.348607e-003
3.997880e+003;4.173942e-003
3.999809e+003;4.303060e-003
4.001737e+003;0.000000e+000
