3.992094e+002;0.000000e+000
4.011380e+002;0.000000e+000
4.030665e+002;0.000000e+000
4.049951e+002;0.000000e+000
4.069236e+002;0.000000e+000
4.088522e+002;0.000000e+000
4.107807e+002;0.000000e+000
4.127093e+002;0.000000e+000
4.146378e+002;0.000000e+000
4.165664e+002;0.000000e+000
4.184949e+002;0.000000e+000
4.204235e+002;0.000000e+000
4.223520e+002;0.000000e+000
4.242806e+002;0.000000e+000
4.262091e+002;0.000000e+000
4.281377e+002;0.000000e+000
4.300662e+002;0.000000e+000
4.319948e+002;0.000000e+000
4.339233e+002;0.000000e+000
4.358519e+002;0.000000e+000
4.377804e+002;0.000000e+000
4.397090e+002;0.000000e+000
4.416375e+002;0.000000e+000
4.435660e+002;0.000000e+000
4.454946e+002;0.000000e+000
4.474232e+002;0.000000e+000
4.493517e+002;0.000000e+000
4.512802e+002;0.000000e+000
4.532088e+002;0.000000e+000
4.551373e+002;0.000000e+000
4.570659e+002;0.000000e+000
4.589944e+002;0.000000e+000
4.609230e+002;0.000000e+000
4.628515e+002;0.000000e+000
4.647801e+002;0.000000e+000
4.667086e+002;0.000000e+000
4.686372e+002;0.000000e+000
4.705657e+002;0.000000e+000
4.724943e+002;0.000000e+000
4.744228e+002;0.000000e+000
4.763513e+002;0.000000e+000
4.782799e+002;0.000000e+000
4.802085e+002;0.000000e+000
4.821370e+002;0.000000e+000
4.840656e+002;0.000000e+000
4.859941e+002;0.000000e+000
4.879226e+002;0.000000e+000
4.898512e+002;0.000000e+000
4.917798e+002;0.000000e+000
4.937083e+002;0.000000e+000
4.956368e+002;0.000000e+000
4.975654e+002;0.000000e+000
4.994939e+002;0.000000e+000
5.014225e+002;0.000000e+000
5.033510e+002;0.000000e+000
5.052796e+002;0.000000e+000
5.072081e+002;0.000000e+000
5.091367e+002;0.000000e+000
5.110652e+002;0.000000e+000
5.129938e+002;0.000000e+000
5.149223e+002;0.000000e+000
5.168509e+002;0.000000e+000
5.187794e+002;0.000000e+000
5.207079e+002;0.000000e+000
5.226365e+002;0.000000e+000
5.245651e+002;0.000000e+000
5.264936e+002;0.000000e+000
5.284222e+002;0.000000e+000
5.303507e+002;0.000000e+000
5.322792e+002;0.000000e+000
5.342078e+002;0.000000e+000
5.361364e+002;0.000000e+000
5.380649e+002;0.000000e+000
5.399935e+002;0.000000e+000
5.419220e+002;0.000000e+000
5.438505e+002;0.000000e+000
5.457791e+002;0.000000e+000
5.477076e+002;0.000000e+000
5.496362e+002;0.000000e+000
5.515648e+002;0.000000e+000
5.534933e+002;0.000000e+000
5.554218e+002;0.000000e+000
5.573504e+002;0.000000e+000
5.592789e+002;0.000000e+000
5.612075e+002;0.000000e+000
5.631360e+002;0.000000e+000
5.650646e+002;0.000000e+000
5.669931e+002;0.000000e+000
5.689217e+002;0.000000e+000
5.708502e+002;0.000000e+000
5.727787e+002;0.000000e+000
5.747073e+002;0.000000e+000
5.766359e+002;0.000000e+000
5.785644e+002;0.000000e+000
5.804930e+002;0.000000e+000
5.824215e+002;0.000000e+000
5.843500e+002;0.000000e+000
5.862786e+002;0.000000e+000
5.882072e+002;0.000000e+000
5.901357e+002;0.000000e+000
5.920643e+002;0.000000e+000
5.939928e+002;0.000000e+000
5.959213e+002;0.000000e+000
5.978499e+002;0.000000e+000
5.997784e+002;6.919851e-002
6.017070e+002;6.111018e-002
6.036355e+002;6.053289e-002
6.055641e+002;6.718640e-002
6.074926e+002;6.940085e-002
6.094211e+002;6.654108e-002
6.113497e+002;5.982526e-002
6.132783e+002;6.058953e-002
6.152068e+002;6.658982e-002
6.171354e+002;6.922925e-002
6.190639e+002;6.709857e-002
6.209924e+002;6.260610e-002
6.229210e+002;6.152519e-002
6.248495e+002;6.346696e-002
6.267781e+002;6.702225e-002
6.287067e+002;6.841550e-002
6.306352e+002;6.634505e-002
6.325637e+002;6.638651e-002
6.344923e+002;6.536083e-002
6.364208e+002;6.129032e-002
6.383494e+002;6.117762e-002
6.402780e+002;6.115591e-002
6.422065e+002;5.938315e-002
6.441350e+002;6.012373e-002
6.460636e+002;6.043318e-002
6.479921e+002;6.270608e-002
6.499207e+002;6.659766e-002
6.518492e+002;6.787642e-002
6.537778e+002;6.610277e-002
6.557063e+002;6.462442e-002
6.576349e+002;6.397967e-002
6.595634e+002;6.713458e-002
6.614919e+002;6.961755e-002
6.634205e+002;6.867483e-002
6.653491e+002;6.665522e-002
6.672776e+002;6.513642e-002
6.692062e+002;6.372661e-002
6.711347e+002;6.423759e-002
6.730632e+002;6.614436e-002
6.749918e+002;6.615389e-002
6.769203e+002;6.637721e-002
6.788489e+002;6.692661e-002
6.807775e+002;6.687438e-002
6.827060e+002;6.557032e-002
6.846345e+002;6.451405e-002
6.865631e+002;6.444801e-002
6.884916e+002;6.360910e-002
6.904202e+002;6.335366e-002
6.923488e+002;6.401549e-002
6.942773e+002;6.457502e-002
6.962058e+002;6.601817e-002
6.981344e+002;6.725553e-002
7.000629e+002;6.734509e-002
7.019915e+002;6.657534e-002
7.039200e+002;6.502149e-002
7.058486e+002;6.484526e-002
7.077771e+002;6.690260e-002
7.097057e+002;6.793124e-002
7.116342e+002;6.754440e-002
7.135627e+002;6.769524e-002
7.154913e+002;6.896500e-002
7.174199e+002;6.963673e-002
7.193484e+002;6.891793e-002
7.212770e+002;6.810055e-002
7.232055e+002;6.812528e-002
7.251340e+002;6.891257e-002
7.270626e+002;6.962693e-002
7.289911e+002;6.942417e-002
7.309197e+002;6.950252e-002
7.328483e+002;6.881551e-002
7.347768e+002;6.772149e-002
7.367053e+002;6.763805e-002
7.386339e+002;6.820288e-002
7.405624e+002;6.805121e-002
7.424910e+002;6.763700e-002
7.444196e+002;6.658477e-002
7.463481e+002;6.635374e-002
7.482766e+002;6.582850e-002
7.502052e+002;6.559842e-002
7.521337e+002;6.610570e-002
7.540623e+002;6.552494e-002
7.559908e+002;6.512734e-002
7.579194e+002;6.496642e-002
7.598479e+002;6.437925e-002
7.617765e+002;6.448776e-002
7.637050e+002;6.481326e-002
7.656335e+002;6.519751e-002
7.675621e+002;6.516726e-002
7.694907e+002;6.549419e-002
7.714192e+002;6.583290e-002
7.733478e+002;6.542338e-002
7.752763e+002;6.478352e-002
7.772048e+002;6.500290e-002
7.791334e+002;6.543709e-002
7.810620e+002;6.469940e-002
7.829905e+002;6.475633e-002
7.849191e+002;6.534901e-002
7.868476e+002;6.495460e-002
7.887761e+002;6.510039e-002
7.907047e+002;6.566001e-002
7.926332e+002;6.620807e-002
7.945618e+002;6.681893e-002
7.964903e+002;6.864359e-002
7.984189e+002;7.070361e-002
8.003474e+002;7.136086e-002
8.022759e+002;7.191816e-002
8.042045e+002;7.354037e-002
8.061331e+002;7.613110e-002
8.080616e+002;7.907198e-002
8.099902e+002;7.985359e-002
8.119187e+002;7.811302e-002
8.138472e+002;7.448535e-002
8.157758e+002;7.155209e-002
8.177043e+002;6.960841e-002
8.196329e+002;6.809927e-002
8.215615e+002;6.744237e-002
8.234900e+002;6.706575e-002
8.254185e+002;6.689634e-002
8.273471e+002;6.648752e-002
8.292756e+002;6.574631e-002
8.312042e+002;6.553322e-002
8.331328e+002;6.619468e-002
8.350613e+002;6.731452e-002
8.369898e+002;7.030615e-002
8.389184e+002;7.655247e-002
8.408469e+002;8.230861e-002
8.427755e+002;8.137384e-002
8.447040e+002;7.520760e-002
8.466326e+002;6.971546e-002
8.485611e+002;6.657109e-002
8.504897e+002;6.447195e-002
8.524182e+002;6.314841e-002
8.543467e+002;6.214119e-002
8.562753e+002;6.096184e-002
8.582039e+002;6.057509e-002
8.601324e+002;6.096706e-002
8.620610e+002;6.182143e-002
8.639895e+002;6.280117e-002
8.659180e+002;6.347463e-002
8.678466e+002;6.410535e-002
8.697751e+002;6.517930e-002
8.717037e+002;6.587686e-002
8.736323e+002;6.615455e-002
8.755608e+002;6.532285e-002
8.774893e+002;6.412405e-002
8.794179e+002;6.318972e-002
8.813464e+002;6.227728e-002
8.832750e+002;6.140194e-002
8.852036e+002;6.060908e-002
8.871321e+002;5.991445e-002
8.890606e+002;5.943809e-002
8.909892e+002;5.989931e-002
8.929177e+002;6.176459e-002
8.948463e+002;6.509688e-002
8.967748e+002;6.945248e-002
8.987034e+002;7.246772e-002
9.006319e+002;7.268757e-002
9.025605e+002;6.898112e-002
9.044890e+002;6.336209e-002
9.064175e+002;5.893879e-002
9.083461e+002;5.651796e-002
9.102747e+002;5.524447e-002
9.122032e+002;5.434626e-002
9.141318e+002;5.401560e-002
9.160603e+002;5.394908e-002
9.179888e+002;5.364617e-002
9.199174e+002;5.330802e-002
9.218459e+002;5.315404e-002
9.237745e+002;5.342173e-002
9.257031e+002;5.398529e-002
9.276316e+002;5.493486e-002
9.295601e+002;5.550603e-002
9.314887e+002;5.571942e-002
9.334172e+002;5.637782e-002
9.353458e+002;5.742427e-002
9.372744e+002;5.842586e-002
9.392029e+002;5.948665e-002
9.411314e+002;5.988786e-002
9.430600e+002;6.002983e-002
9.449885e+002;6.026364e-002
9.469171e+002;6.001613e-002
9.488456e+002;5.940678e-002
9.507742e+002;5.945275e-002
9.527027e+002;6.060351e-002
9.546313e+002;6.171837e-002
9.565598e+002;6.260151e-002
9.584883e+002;6.356821e-002
9.604169e+002;6.473482e-002
9.623455e+002;6.689422e-002
9.642740e+002;7.011238e-002
9.662026e+002;7.429860e-002
9.681311e+002;8.048759e-002
9.700596e+002;8.838493e-002
9.719882e+002;9.525131e-002
9.739167e+002;9.756129e-002
9.758453e+002;9.403494e-002
9.777739e+002;8.632501e-002
9.797024e+002;7.788288e-002
9.816309e+002;7.120694e-002
9.835595e+002;6.718180e-002
9.854880e+002;6.545651e-002
9.874166e+002;6.571709e-002
9.893452e+002;6.754850e-002
9.912737e+002;7.085223e-002
9.932022e+002;7.604705e-002
9.951307e+002;8.296289e-002
9.970593e+002;8.899415e-002
9.989879e+002;8.954133e-002
1.000916e+003;8.452201e-002
1.002845e+003;7.820727e-002
1.004773e+003;7.341323e-002
1.006702e+003;7.073645e-002
1.008631e+003;6.937154e-002
1.010559e+003;6.859466e-002
1.012488e+003;6.774167e-002
1.014416e+003;6.705856e-002
1.016345e+003;6.662118e-002
1.018273e+003;6.622431e-002
1.020202e+003;6.641902e-002
1.022130e+003;6.703984e-002
1.024059e+003;6.705291e-002
1.025988e+003;6.683365e-002
1.027916e+003;6.742766e-002
1.029845e+003;6.812567e-002
1.031773e+003;6.861616e-002
1.033702e+003;6.976172e-002
1.035630e+003;7.176077e-002
1.037559e+003;7.340350e-002
1.039487e+003;7.477502e-002
1.041416e+003;7.562854e-002
1.043344e+003;7.626441e-002
1.045273e+003;7.690537e-002
1.047202e+003;7.654408e-002
1.049130e+003;7.577685e-002
1.051059e+003;7.482950e-002
1.052987e+003;7.289287e-002
1.054916e+003;7.121573e-002
1.056844e+003;7.056762e-002
1.058773e+003;7.007270e-002
1.060701e+003;6.964085e-002
1.062630e+003;6.957154e-002
1.064558e+003;6.953744e-002
1.066487e+003;7.003058e-002
1.068416e+003;7.035036e-002
1.070344e+003;7.065748e-002
1.072273e+003;7.177855e-002
1.074201e+003;7.219414e-002
1.076130e+003;7.166790e-002
1.078058e+003;7.144412e-002
1.079987e+003;7.194268e-002
1.081915e+003;7.325181e-002
1.083844e+003;7.388825e-002
1.085773e+003;7.406563e-002
1.087701e+003;7.487221e-002
1.089630e+003;7.577559e-002
1.091558e+003;7.612873e-002
1.093487e+003;7.585394e-002
1.095415e+003;7.545099e-002
1.097344e+003;7.584175e-002
1.099272e+003;7.752090e-002
1.101201e+003;7.875524e-002
1.103129e+003;7.865631e-002
1.105058e+003;7.804659e-002
1.106987e+003;7.643550e-002
1.108915e+003;7.491098e-002
1.110844e+003;7.445711e-002
1.112772e+003;7.410760e-002
1.114701e+003;7.411389e-002
1.116629e+003;7.425881e-002
1.118558e+003;7.320940e-002
1.120486e+003;7.182574e-002
1.122415e+003;7.109039e-002
1.124344e+003;7.078788e-002
1.126272e+003;7.031374e-002
1.128201e+003;6.991894e-002
1.130129e+003;7.008754e-002
1.132058e+003;6.992065e-002
1.133986e+003;6.948335e-002
1.135915e+003;7.003681e-002
1.137843e+003;7.168213e-002
1.139772e+003;7.382863e-002
1.141700e+003;7.573622e-002
1.143629e+003;7.780400e-002
1.145557e+003;8.046231e-002
1.147486e+003;8.340101e-002
1.149415e+003;8.626111e-002
1.151343e+003;8.879092e-002
1.153272e+003;9.042044e-002
1.155200e+003;9.090488e-002
1.157129e+003;9.080743e-002
1.159057e+003;9.141178e-002
1.160986e+003;9.253322e-002
1.162914e+003;9.376861e-002
1.164843e+003;9.493850e-002
1.166771e+003;9.565105e-002
1.168700e+003;9.524450e-002
1.170629e+003;9.224143e-002
1.172557e+003;8.790252e-002
1.174486e+003;8.331309e-002
1.176414e+003;7.861493e-002
1.178343e+003;7.483591e-002
1.180271e+003;7.274978e-002
1.182200e+003;7.178156e-002
1.184128e+003;7.109882e-002
1.186057e+003;7.043737e-002
1.187986e+003;7.004518e-002
1.189914e+003;6.991836e-002
1.191843e+003;6.982958e-002
1.193771e+003;6.963299e-002
1.195700e+003;6.927856e-002
1.197628e+003;6.912702e-002
1.199557e+003;6.939929e-002
1.201485e+003;6.956824e-002
1.203414e+003;6.980868e-002
1.205343e+003;6.994486e-002
1.207271e+003;7.044528e-002
1.209200e+003;7.132309e-002
1.211128e+003;7.241116e-002
1.213057e+003;7.357001e-002
1.214985e+003;7.443249e-002
1.216914e+003;7.498777e-002
1.218842e+003;7.505381e-002
1.220771e+003;7.471358e-002
1.222699e+003;7.404492e-002
1.224628e+003;7.364149e-002
1.226557e+003;7.373478e-002
1.228485e+003;7.377051e-002
1.230414e+003;7.360063e-002
1.232342e+003;7.356012e-002
1.234271e+003;7.395165e-002
1.236199e+003;7.434232e-002
1.238128e+003;7.462032e-002
1.240056e+003;7.504601e-002
1.241985e+003;7.501703e-002
1.243913e+003;7.509832e-002
1.245842e+003;7.601977e-002
1.247771e+003;7.707117e-002
1.249699e+003;7.824500e-002
1.251628e+003;8.052284e-002
1.253556e+003;8.335713e-002
1.255485e+003;8.524765e-002
1.257413e+003;8.584440e-002
1.259342e+003;8.527644e-002
1.261270e+003;8.400338e-002
1.263199e+003;8.235578e-002
1.265127e+003;8.122949e-002
1.267056e+003;8.060893e-002
1.268985e+003;7.997359e-002
1.270913e+003;7.949064e-002
1.272842e+003;7.913928e-002
1.274770e+003;7.873304e-002
1.276699e+003;7.783309e-002
1.278627e+003;7.638967e-002
1.280556e+003;7.536230e-002
1.282484e+003;7.500029e-002
1.284413e+003;7.501329e-002
1.286342e+003;7.559609e-002
1.288270e+003;7.643937e-002
1.290199e+003;7.716278e-002
1.292127e+003;7.785782e-002
1.294056e+003;7.876641e-002
1.295984e+003;7.925205e-002
1.297913e+003;7.943951e-002
1.299841e+003;7.960664e-002
1.301770e+003;8.015966e-002
1.303698e+003;8.087417e-002
1.305627e+003;8.002175e-002
1.307556e+003;7.767952e-002
1.309484e+003;7.563138e-002
1.311413e+003;7.510356e-002
1.313341e+003;7.543625e-002
1.315270e+003;7.613114e-002
1.317198e+003;7.726450e-002
1.319127e+003;7.860782e-002
1.321055e+003;7.984857e-002
1.322984e+003;8.075232e-002
1.324912e+003;8.152825e-002
1.326841e+003;8.186913e-002
1.328770e+003;8.167474e-002
1.330698e+003;8.109156e-002
1.332627e+003;8.042075e-002
1.334555e+003;7.961377e-002
1.336484e+003;7.914378e-002
1.338412e+003;7.910892e-002
1.340341e+003;7.961258e-002
1.342269e+003;8.067423e-002
1.344198e+003;8.216910e-002
1.346126e+003;8.406337e-002
1.348055e+003;8.660950e-002
1.349984e+003;8.983514e-002
1.351912e+003;9.355345e-002
1.353841e+003;9.874741e-002
1.355769e+003;1.055037e-001
1.357698e+003;1.112207e-001
1.359626e+003;1.134671e-001
1.361555e+003;1.126231e-001
1.363483e+003;1.118786e-001
1.365412e+003;1.135755e-001
1.367341e+003;1.199499e-001
1.369269e+003;1.334369e-001
1.371198e+003;1.543885e-001
1.373126e+003;1.790854e-001
1.375055e+003;1.977844e-001
1.376983e+003;1.968785e-001
1.378912e+003;1.755436e-001
1.380840e+003;1.490243e-001
1.382769e+003;1.264809e-001
1.384698e+003;1.092807e-001
1.386626e+003;9.782788e-002
1.388555e+003;9.121034e-002
1.390483e+003;8.764901e-002
1.392412e+003;8.528277e-002
1.394340e+003;8.365507e-002
1.396269e+003;8.333653e-002
1.398197e+003;8.336805e-002
1.400126e+003;8.341992e-002
1.402054e+003;8.382370e-002
1.403983e+003;8.428881e-002
1.405911e+003;8.473255e-002
1.407840e+003;8.504372e-002
1.409769e+003;8.521124e-002
1.411697e+003;8.585554e-002
1.413626e+003;8.637638e-002
1.415554e+003;8.631531e-002
1.417483e+003;8.585138e-002
1.419411e+003;8.563155e-002
1.421340e+003;8.631960e-002
1.423268e+003;8.724692e-002
1.425197e+003;8.834375e-002
1.427125e+003;9.045186e-002
1.429054e+003;9.441092e-002
1.430983e+003;1.008389e-001
1.432911e+003;1.088515e-001
1.434840e+003;1.148126e-001
1.436768e+003;1.169971e-001
1.438697e+003;1.181759e-001
1.440625e+003;1.202739e-001
1.442554e+003;1.250428e-001
1.444482e+003;1.327716e-001
1.446411e+003;1.419875e-001
1.448340e+003;1.510291e-001
1.450268e+003;1.581968e-001
1.452197e+003;1.624916e-001
1.454125e+003;1.641998e-001
1.456054e+003;1.632710e-001
1.457982e+003;1.616272e-001
1.459911e+003;1.596645e-001
1.461839e+003;1.551150e-001
1.463768e+003;1.474869e-001
1.465697e+003;1.384729e-001
1.467625e+003;1.287974e-001
1.469554e+003;1.182809e-001
1.471482e+003;1.084870e-001
1.473411e+003;1.002621e-001
1.475339e+003;9.333112e-002
1.477268e+003;8.788358e-002
1.479196e+003;8.374112e-002
1.481125e+003;8.016376e-002
1.483053e+003;7.707180e-002
1.484982e+003;7.436957e-002
1.486911e+003;7.209849e-002
1.488839e+003;7.035621e-002
1.490768e+003;6.912842e-002
1.492696e+003;6.841065e-002
1.494625e+003;6.764989e-002
1.496553e+003;6.676355e-002
1.498482e+003;6.628259e-002
1.500410e+003;6.595549e-002
1.502339e+003;6.581490e-002
1.504267e+003;6.537500e-002
1.506196e+003;6.475048e-002
1.508125e+003;6.491474e-002
1.510053e+003;6.558455e-002
1.511982e+003;6.601049e-002
1.513910e+003;6.616168e-002
1.515839e+003;6.628723e-002
1.517767e+003;6.649594e-002
1.519696e+003;6.638759e-002
1.521624e+003;6.639636e-002
1.523553e+003;6.714959e-002
1.525481e+003;6.787503e-002
1.527410e+003;6.862555e-002
1.529339e+003;6.912049e-002
1.531267e+003;6.947266e-002
1.533196e+003;6.991687e-002
1.535124e+003;7.080805e-002
1.537053e+003;7.121065e-002
1.538981e+003;7.084108e-002
1.540910e+003;7.111002e-002
1.542838e+003;7.192238e-002
1.544767e+003;7.291302e-002
1.546695e+003;7.377004e-002
1.548624e+003;7.387485e-002
1.550553e+003;7.350431e-002
1.552481e+003;7.310722e-002
1.554410e+003;7.273043e-002
1.556338e+003;7.232559e-002
1.558267e+003;7.129111e-002
1.560195e+003;7.124977e-002
1.562124e+003;7.189102e-002
1.564052e+003;7.183304e-002
1.565981e+003;7.168525e-002
1.567910e+003;7.140729e-002
1.569838e+003;7.109847e-002
1.571767e+003;7.112122e-002
1.573695e+003;7.074007e-002
1.575624e+003;7.028067e-002
1.577552e+003;7.052152e-002
1.579481e+003;7.065795e-002
1.581409e+003;7.052685e-002
1.583338e+003;7.045332e-002
1.585266e+003;7.047362e-002
1.587195e+003;7.039459e-002
1.589124e+003;7.022700e-002
1.591052e+003;7.019424e-002
1.592981e+003;7.016106e-002
1.594909e+003;7.013594e-002
1.596838e+003;7.007372e-002
1.598766e+003;7.040651e-002
1.600695e+003;7.083023e-002
1.602623e+003;7.111080e-002
1.604552e+003;7.147150e-002
1.606480e+003;7.202817e-002
1.608409e+003;7.253683e-002
1.610338e+003;7.293446e-002
1.612266e+003;7.309965e-002
1.614195e+003;7.318329e-002
1.616123e+003;7.315972e-002
1.618052e+003;7.379415e-002
1.619980e+003;7.450046e-002
1.621909e+003;7.476514e-002
1.623837e+003;7.502814e-002
1.625766e+003;7.544701e-002
1.627694e+003;7.588650e-002
1.629623e+003;7.626959e-002
1.631552e+003;7.657871e-002
1.633480e+003;7.638679e-002
1.635409e+003;7.617753e-002
1.637337e+003;7.684845e-002
1.639266e+003;7.734859e-002
1.641194e+003;7.737971e-002
1.643123e+003;7.758368e-002
1.645051e+003;7.755516e-002
1.646980e+003;7.745816e-002
1.648909e+003;7.783443e-002
1.650837e+003;7.744208e-002
1.652766e+003;7.656511e-002
1.654694e+003;7.715458e-002
1.656623e+003;7.786278e-002
1.658551e+003;7.766688e-002
1.660480e+003;7.704229e-002
1.662408e+003;7.625876e-002
1.664337e+003;7.574280e-002
1.666266e+003;7.505693e-002
1.668194e+003;7.387599e-002
1.670123e+003;7.308467e-002
1.672051e+003;7.271895e-002
1.673980e+003;7.184818e-002
1.675908e+003;7.102760e-002
1.677837e+003;7.045519e-002
1.679765e+003;6.956477e-002
1.681694e+003;6.880316e-002
1.683622e+003;6.750701e-002
1.685551e+003;6.673276e-002
1.687479e+003;6.662598e-002
1.689408e+003;6.611191e-002
1.691337e+003;6.574442e-002
1.693265e+003;6.527988e-002
1.695194e+003;6.406779e-002
1.697122e+003;6.373717e-002
1.699051e+003;6.326150e-002
1.700979e+003;6.255225e-002
1.702908e+003;6.295191e-002
1.704836e+003;6.311721e-002
1.706765e+003;6.273896e-002
1.708693e+003;6.255826e-002
1.710622e+003;6.246211e-002
1.712551e+003;6.198382e-002
1.714479e+003;6.105530e-002
1.716408e+003;5.973522e-002
1.718336e+003;5.935888e-002
1.720265e+003;5.965908e-002
1.722193e+003;5.970736e-002
1.724122e+003;5.963692e-002
1.726050e+003;5.939386e-002
1.727979e+003;5.886275e-002
1.729908e+003;5.861327e-002
1.731836e+003;5.832607e-002
1.733765e+003;5.795332e-002
1.735693e+003;5.873607e-002
1.737622e+003;5.917191e-002
1.739550e+003;5.859491e-002
1.741479e+003;5.804917e-002
1.743407e+003;5.692181e-002
1.745336e+003;5.507220e-002
1.747265e+003;5.298811e-002
1.749193e+003;5.074214e-002
1.751122e+003;4.864557e-002
1.753050e+003;4.709607e-002
1.754979e+003;4.531652e-002
1.756907e+003;4.311479e-002
1.758836e+003;4.137105e-002
1.760764e+003;3.975097e-002
1.762693e+003;3.840230e-002
1.764621e+003;3.738295e-002
1.766550e+003;3.628295e-002
1.768479e+003;3.557416e-002
1.770407e+003;3.488621e-002
1.772336e+003;3.419464e-002
1.774264e+003;3.399942e-002
1.776193e+003;3.376561e-002
1.778121e+003;3.323086e-002
1.780050e+003;3.277304e-002
1.781978e+003;3.216818e-002
1.783907e+003;3.154402e-002
1.785835e+003;3.113917e-002
1.787764e+003;3.078078e-002
1.789693e+003;3.027001e-002
1.791621e+003;2.944361e-002
1.793550e+003;2.913821e-002
1.795478e+003;2.918747e-002
1.797407e+003;2.875524e-002
1.799335e+003;2.827128e-002
1.801264e+003;2.787434e-002
1.803192e+003;2.736863e-002
1.805121e+003;2.688836e-002
1.807049e+003;2.671761e-002
1.808978e+003;2.656647e-002
1.810907e+003;2.627283e-002
1.812835e+003;2.604128e-002
1.814764e+003;2.595935e-002
1.816692e+003;2.575626e-002
1.818621e+003;2.548155e-002
1.820549e+003;2.528413e-002
1.822478e+003;2.526600e-002
1.824406e+003;2.535121e-002
1.826335e+003;2.520269e-002
1.828264e+003;2.494843e-002
1.830192e+003;2.511835e-002
1.832121e+003;2.506489e-002
1.834049e+003;2.472453e-002
1.835978e+003;2.483706e-002
1.837906e+003;2.478146e-002
1.839835e+003;2.421200e-002
1.841763e+003;2.390833e-002
1.843692e+003;2.369983e-002
1.845620e+003;2.366564e-002
1.847549e+003;2.363079e-002
1.849478e+003;2.346387e-002
1.851406e+003;2.330267e-002
1.853335e+003;2.318805e-002
1.855263e+003;2.337525e-002
1.857192e+003;2.346373e-002
1.859120e+003;2.324943e-002
1.861049e+003;2.301836e-002
1.862977e+003;2.288673e-002
1.864906e+003;2.271625e-002
1.866834e+003;2.255048e-002
1.868763e+003;2.246610e-002
1.870692e+003;2.235648e-002
1.872620e+003;2.237403e-002
1.874549e+003;2.247573e-002
1.876477e+003;2.232844e-002
1.878406e+003;2.237127e-002
1.880334e+003;2.267178e-002
1.882263e+003;2.270941e-002
1.884191e+003;2.259907e-002
1.886120e+003;2.243048e-002
1.888048e+003;2.231229e-002
1.889977e+003;2.251530e-002
1.891906e+003;2.280096e-002
1.893834e+003;2.294566e-002
1.895763e+003;2.277868e-002
1.897691e+003;2.250689e-002
1.899620e+003;2.239831e-002
1.901548e+003;2.225655e-002
1.903477e+003;2.220392e-002
1.905405e+003;2.218213e-002
1.907334e+003;2.197700e-002
1.909262e+003;2.174880e-002
1.911191e+003;2.165897e-002
1.913120e+003;2.173187e-002
1.915048e+003;2.170474e-002
1.916977e+003;2.159367e-002
1.918905e+003;2.169492e-002
1.920834e+003;2.147581e-002
1.922762e+003;2.129190e-002
1.924691e+003;2.136937e-002
1.926619e+003;2.140487e-002
1.928548e+003;2.138959e-002
1.930477e+003;2.116198e-002
1.932405e+003;2.090677e-002
1.934334e+003;2.091588e-002
1.936262e+003;2.098803e-002
1.938191e+003;2.063918e-002
1.940119e+003;2.024338e-002
1.942048e+003;2.023772e-002
1.943976e+003;2.052988e-002
1.945905e+003;2.054089e-002
1.947833e+003;2.044693e-002
1.949762e+003;2.053144e-002
1.951691e+003;2.068129e-002
1.953619e+003;2.054068e-002
1.955548e+003;2.052689e-002
1.957476e+003;2.048583e-002
1.959405e+003;2.037723e-002
1.961333e+003;2.037647e-002
1.963262e+003;2.017364e-002
1.965190e+003;1.998639e-002
1.967119e+003;1.973202e-002
1.969047e+003;1.961324e-002
1.970976e+003;1.971801e-002
1.972905e+003;1.976011e-002
1.974833e+003;1.990966e-002
1.976762e+003;1.987809e-002
1.978690e+003;1.975789e-002
1.980619e+003;1.971926e-002
1.982547e+003;1.986144e-002
1.984476e+003;1.992867e-002
1.986404e+003;1.987334e-002
1.988333e+003;1.988926e-002
1.990261e+003;1.990605e-002
1.992190e+003;1.987306e-002
1.994119e+003;1.968379e-002
1.996047e+003;1.963765e-002
1.997976e+003;1.971489e-002
1.999904e+003;1.991607e-002
2.001833e+003;1.994906e-002
2.003761e+003;1.989908e-002
2.005690e+003;1.977720e-002
2.007618e+003;1.968057e-002
2.009547e+003;1.974377e-002
2.011476e+003;1.990601e-002
2.013404e+003;1.991410e-002
2.015333e+003;1.978115e-002
2.017261e+003;1.964929e-002
2.019190e+003;1.964770e-002
2.021118e+003;1.983418e-002
2.023047e+003;1.969003e-002
2.024975e+003;1.941670e-002
2.026904e+003;1.947429e-002
2.028833e+003;1.935347e-002
2.030761e+003;1.913482e-002
2.032690e+003;1.937554e-002
2.034618e+003;1.951071e-002
2.036547e+003;1.953539e-002
2.038475e+003;1.952881e-002
2.040404e+003;1.957910e-002
2.042332e+003;1.969735e-002
2.044261e+003;1.980633e-002
2.046189e+003;1.984705e-002
2.048118e+003;1.967932e-002
2.050047e+003;1.967159e-002
2.051975e+003;1.977932e-002
2.053904e+003;1.962180e-002
2.055832e+003;1.946102e-002
2.057761e+003;1.936636e-002
2.059689e+003;1.922832e-002
2.061618e+003;1.910238e-002
2.063546e+003;1.900935e-002
2.065475e+003;1.890839e-002
2.067404e+003;1.904407e-002
2.069332e+003;1.921880e-002
2.071260e+003;1.924938e-002
2.073189e+003;1.935943e-002
2.075118e+003;1.948611e-002
2.077046e+003;1.947377e-002
2.078975e+003;1.946410e-002
2.080903e+003;1.943070e-002
2.082832e+003;1.940960e-002
2.084760e+003;1.950694e-002
2.086689e+003;1.957941e-002
2.088617e+003;1.963536e-002
2.090546e+003;1.964891e-002
2.092475e+003;1.959185e-002
2.094403e+003;1.957009e-002
2.096332e+003;1.940360e-002
2.098260e+003;1.922822e-002
2.100189e+003;1.953005e-002
2.102117e+003;1.971593e-002
2.104046e+003;1.965820e-002
2.105974e+003;1.980290e-002
2.107903e+003;1.981226e-002
2.109832e+003;1.976128e-002
2.111760e+003;1.987448e-002
2.113688e+003;1.971863e-002
2.115617e+003;1.964295e-002
2.117546e+003;1.985239e-002
2.119474e+003;1.992998e-002
2.121403e+003;2.008414e-002
2.123331e+003;2.043901e-002
2.125260e+003;2.071330e-002
2.127188e+003;2.099436e-002
2.129117e+003;2.139509e-002
2.131045e+003;2.172877e-002
2.132974e+003;2.172107e-002
2.134903e+003;2.141500e-002
2.136831e+003;2.114615e-002
2.138760e+003;2.090215e-002
2.140688e+003;2.077853e-002
2.142617e+003;2.092854e-002
2.144545e+003;2.107779e-002
2.146474e+003;2.090350e-002
2.148402e+003;2.070715e-002
2.150331e+003;2.096432e-002
2.152260e+003;2.127801e-002
2.154188e+003;2.128236e-002
2.156117e+003;2.103822e-002
2.158045e+003;2.086151e-002
2.159974e+003;2.112145e-002
2.161902e+003;2.145973e-002
2.163831e+003;2.169342e-002
2.165759e+003;2.182705e-002
2.167688e+003;2.181615e-002
2.169616e+003;2.187580e-002
2.171545e+003;2.226897e-002
2.173474e+003;2.252117e-002
2.175402e+003;2.246083e-002
2.177331e+003;2.242273e-002
2.179259e+003;2.247458e-002
2.181188e+003;2.245166e-002
2.183116e+003;2.245919e-002
2.185045e+003;2.248421e-002
2.186973e+003;2.232414e-002
2.188902e+003;2.214883e-002
2.190831e+003;2.226025e-002
2.192759e+003;2.245972e-002
2.194688e+003;2.213188e-002
2.196616e+003;2.194644e-002
2.198545e+003;2.223064e-002
2.200473e+003;2.230639e-002
2.202402e+003;2.214384e-002
2.204330e+003;2.194197e-002
2.206259e+003;2.161669e-002
2.208188e+003;2.136801e-002
2.210116e+003;2.159235e-002
2.212044e+003;2.181921e-002
2.213973e+003;2.167510e-002
2.215902e+003;2.158681e-002
2.217830e+003;2.172679e-002
2.219759e+003;2.173097e-002
2.221687e+003;2.174567e-002
2.223616e+003;2.173734e-002
2.225544e+003;2.165531e-002
2.227473e+003;2.170512e-002
2.229401e+003;2.210302e-002
2.231330e+003;2.216811e-002
2.233259e+003;2.185214e-002
2.235187e+003;2.176288e-002
2.237116e+003;2.176361e-002
2.239044e+003;2.176507e-002
2.240973e+003;2.177277e-002
2.242901e+003;2.171216e-002
2.244830e+003;2.154095e-002
2.246758e+003;2.153869e-002
2.248687e+003;2.194532e-002
2.250615e+003;2.246760e-002
2.252544e+003;2.257491e-002
2.254473e+003;2.278937e-002
2.256401e+003;2.312098e-002
2.258330e+003;2.318595e-002
2.260258e+003;2.290186e-002
2.262187e+003;2.250065e-002
2.264115e+003;2.239308e-002
2.266044e+003;2.242873e-002
2.267972e+003;2.237466e-002
2.269901e+003;2.218349e-002
2.271830e+003;2.180803e-002
2.273758e+003;2.178113e-002
2.275687e+003;2.179562e-002
2.277615e+003;2.178991e-002
2.279544e+003;2.189214e-002
2.281472e+003;2.205620e-002
2.283401e+003;2.197996e-002
2.285329e+003;2.177169e-002
2.287258e+003;2.154151e-002
2.289187e+003;2.149179e-002
2.291115e+003;2.133414e-002
2.293043e+003;2.129938e-002
2.294972e+003;2.176734e-002
2.296901e+003;2.170808e-002
2.298829e+003;2.163532e-002
2.300758e+003;2.185033e-002
2.302686e+003;2.192047e-002
2.304615e+003;2.209726e-002
2.306543e+003;2.213562e-002
2.308472e+003;2.208126e-002
2.310400e+003;2.207777e-002
2.312329e+003;2.208827e-002
2.314258e+003;2.215559e-002
2.316186e+003;2.230859e-002
2.318115e+003;2.234839e-002
2.320043e+003;2.239873e-002
2.321972e+003;2.246164e-002
2.323900e+003;2.264905e-002
2.325829e+003;2.294300e-002
2.327757e+003;2.322933e-002
2.329686e+003;2.333144e-002
2.331615e+003;2.322716e-002
2.333543e+003;2.329173e-002
2.335472e+003;2.364129e-002
2.337400e+003;2.379820e-002
2.339329e+003;2.383334e-002
2.341257e+003;2.372653e-002
2.343186e+003;2.375106e-002
2.345114e+003;2.389408e-002
2.347043e+003;2.397170e-002
2.348971e+003;2.432023e-002
2.350900e+003;2.436477e-002
2.352829e+003;2.406828e-002
2.354757e+003;2.411707e-002
2.356686e+003;2.457545e-002
2.358614e+003;2.487313e-002
2.360543e+003;2.488159e-002
2.362471e+003;2.485661e-002
2.364400e+003;2.501224e-002
2.366328e+003;2.488369e-002
2.368257e+003;2.487001e-002
2.370186e+003;2.518331e-002
2.372114e+003;2.519672e-002
2.374042e+003;2.499459e-002
2.375971e+003;2.485513e-002
2.377900e+003;2.482689e-002
2.379828e+003;2.488268e-002
2.381757e+003;2.517053e-002
2.383685e+003;2.528153e-002
2.385614e+003;2.505906e-002
2.387542e+003;2.473112e-002
2.389471e+003;2.478847e-002
2.391399e+003;2.541757e-002
2.393328e+003;2.567611e-002
2.395257e+003;2.577556e-002
2.397185e+003;2.585619e-002
2.399114e+003;2.589023e-002
2.401042e+003;2.618372e-002
2.402971e+003;2.639510e-002
2.404899e+003;2.628065e-002
2.406828e+003;2.621106e-002
2.408756e+003;2.610032e-002
2.410685e+003;2.605092e-002
2.412614e+003;2.613438e-002
2.414542e+003;2.620726e-002
2.416471e+003;2.632419e-002
2.418399e+003;2.636303e-002
2.420328e+003;2.656527e-002
2.422256e+003;2.698736e-002
2.424185e+003;2.736732e-002
2.426113e+003;2.720449e-002
2.428042e+003;2.692622e-002
2.429970e+003;2.694907e-002
2.431899e+003;2.709932e-002
2.433828e+003;2.721159e-002
2.435756e+003;2.687049e-002
2.437685e+003;2.642873e-002
2.439613e+003;2.643517e-002
2.441542e+003;2.654780e-002
2.443470e+003;2.652695e-002
2.445399e+003;2.642866e-002
2.447327e+003;2.632620e-002
2.449256e+003;2.614867e-002
2.451185e+003;2.597831e-002
2.453113e+003;2.594004e-002
2.455042e+003;2.588950e-002
2.456970e+003;2.601588e-002
2.458899e+003;2.606112e-002
2.460827e+003;2.594496e-002
2.462756e+003;2.576853e-002
2.464684e+003;2.567790e-002
2.466613e+003;2.592713e-002
2.468542e+003;2.606365e-002
2.470470e+003;2.605176e-002
2.472398e+003;2.623964e-002
2.474327e+003;2.638334e-002
2.476256e+003;2.660088e-002
2.478184e+003;2.691628e-002
2.480113e+003;2.712506e-002
2.482041e+003;2.699963e-002
2.483970e+003;2.693214e-002
2.485898e+003;2.702716e-002
2.487827e+003;2.716911e-002
2.489755e+003;2.764468e-002
2.491684e+003;2.794864e-002
2.493613e+003;2.771471e-002
2.495541e+003;2.738536e-002
2.497470e+003;2.748521e-002
2.499398e+003;2.763843e-002
2.501327e+003;2.771160e-002
2.503255e+003;2.778687e-002
2.505184e+003;2.784975e-002
2.507112e+003;2.793041e-002
2.509041e+003;2.821707e-002
2.510969e+003;2.833727e-002
2.512898e+003;2.844219e-002
2.514827e+003;2.903115e-002
2.516755e+003;2.965216e-002
2.518684e+003;3.009267e-002
2.520612e+003;3.046100e-002
2.522541e+003;3.072854e-002
2.524469e+003;3.090952e-002
2.526398e+003;3.100239e-002
2.528326e+003;3.123059e-002
2.530255e+003;3.155432e-002
2.532184e+003;3.182805e-002
2.534112e+003;3.205708e-002
2.536041e+003;3.200500e-002
2.537969e+003;3.202273e-002
2.539898e+003;3.213457e-002
2.541826e+003;3.236208e-002
2.543755e+003;3.268394e-002
2.545683e+003;3.293015e-002
2.547612e+003;3.328713e-002
2.549541e+003;3.364945e-002
2.551469e+003;3.369850e-002
2.553397e+003;3.380321e-002
2.555326e+003;3.416622e-002
2.557255e+003;3.450345e-002
2.559183e+003;3.460196e-002
2.561112e+003;3.488053e-002
2.563040e+003;3.528501e-002
2.564969e+003;3.556596e-002
2.566897e+003;3.594286e-002
2.568826e+003;3.657788e-002
2.570754e+003;3.713774e-002
2.572683e+003;3.767494e-002
2.574612e+003;3.835999e-002
2.576540e+003;3.895227e-002
2.578469e+003;3.954231e-002
2.580397e+003;4.005746e-002
2.582326e+003;4.022282e-002
2.584254e+003;3.995145e-002
2.586183e+003;3.939626e-002
2.588111e+003;3.884464e-002
2.590040e+003;3.840849e-002
2.591969e+003;3.809271e-002
2.593897e+003;3.785766e-002
2.595826e+003;3.774310e-002
2.597754e+003;3.774032e-002
2.599683e+003;3.776107e-002
2.601611e+003;3.781073e-002
2.603540e+003;3.818119e-002
2.605468e+003;3.868328e-002
2.607397e+003;3.895459e-002
2.609325e+003;3.928979e-002
2.611254e+003;3.944513e-002
2.613183e+003;3.960768e-002
2.615111e+003;4.017004e-002
2.617040e+003;4.042279e-002
2.618968e+003;4.018920e-002
2.620897e+003;3.974171e-002
2.622825e+003;3.987063e-002
2.624754e+003;4.012498e-002
2.626682e+003;3.983358e-002
2.628611e+003;3.966369e-002
2.630540e+003;3.971448e-002
2.632468e+003;3.974207e-002
2.634396e+003;4.004344e-002
2.636325e+003;4.035937e-002
2.638254e+003;4.037540e-002
2.640182e+003;4.044766e-002
2.642111e+003;4.103734e-002
2.644039e+003;4.182142e-002
2.645968e+003;4.204943e-002
2.647896e+003;4.231532e-002
2.649825e+003;4.284273e-002
2.651753e+003;4.286080e-002
2.653682e+003;4.316287e-002
2.655611e+003;4.376259e-002
2.657539e+003;4.401886e-002
2.659468e+003;4.429936e-002
2.661396e+003;4.442523e-002
2.663325e+003;4.432412e-002
2.665253e+003;4.460562e-002
2.667182e+003;4.489227e-002
2.669110e+003;4.489719e-002
2.671039e+003;4.472655e-002
2.672968e+003;4.481008e-002
2.674896e+003;4.510918e-002
2.676825e+003;4.536562e-002
2.678753e+003;4.556267e-002
2.680682e+003;4.545917e-002
2.682610e+003;4.511825e-002
2.684539e+003;4.509627e-002
2.686467e+003;4.530501e-002
2.688396e+003;4.552727e-002
2.690324e+003;4.553249e-002
2.692253e+003;4.549655e-002
2.694182e+003;4.545089e-002
2.696110e+003;4.556017e-002
2.698039e+003;4.610698e-002
2.699967e+003;4.671336e-002
2.701896e+003;4.681011e-002
2.703824e+003;4.732550e-002
2.705753e+003;4.829056e-002
2.707681e+003;4.905489e-002
2.709610e+003;4.968446e-002
2.711539e+003;5.023068e-002
2.713467e+003;5.146088e-002
2.715396e+003;5.294237e-002
2.717324e+003;5.449698e-002
2.719253e+003;5.604474e-002
2.721181e+003;5.711057e-002
2.723110e+003;5.762430e-002
2.725038e+003;5.750940e-002
2.726967e+003;5.645985e-002
2.728896e+003;5.512987e-002
2.730824e+003;5.410188e-002
2.732752e+003;5.319127e-002
2.734681e+003;5.234323e-002
2.736610e+003;5.142153e-002
2.738538e+003;5.074866e-002
2.740467e+003;5.040175e-002
2.742395e+003;4.956240e-002
2.744324e+003;4.863245e-002
2.746252e+003;4.810286e-002
2.748181e+003;4.792814e-002
2.750109e+003;4.828116e-002
2.752038e+003;4.859006e-002
2.753967e+003;4.853878e-002
2.755895e+003;4.867585e-002
2.757824e+003;4.893890e-002
2.759752e+003;4.939842e-002
2.761681e+003;4.987437e-002
2.763609e+003;5.035918e-002
2.765538e+003;5.062165e-002
2.767466e+003;5.107855e-002
2.769395e+003;5.148815e-002
2.771323e+003;5.166733e-002
2.773252e+003;5.216651e-002
2.775181e+003;5.262407e-002
2.777109e+003;5.306725e-002
2.779038e+003;5.388913e-002
2.780966e+003;5.488049e-002
2.782895e+003;5.598635e-002
2.784823e+003;5.722524e-002
2.786752e+003;5.840058e-002
2.788680e+003;5.961415e-002
2.790609e+003;6.109336e-002
2.792538e+003;6.269827e-002
2.794466e+003;6.422641e-002
2.796395e+003;6.538355e-002
2.798323e+003;6.645504e-002
2.800252e+003;6.787925e-002
2.802180e+003;6.950831e-002
2.804109e+003;7.146927e-002
2.806037e+003;7.323204e-002
2.807966e+003;7.470182e-002
2.809895e+003;7.605834e-002
2.811823e+003;7.750149e-002
2.813751e+003;7.935200e-002
2.815680e+003;8.100335e-002
2.817609e+003;8.241206e-002
2.819537e+003;8.468997e-002
2.821466e+003;8.770196e-002
2.823394e+003;9.087915e-002
2.825323e+003;9.483849e-002
2.827251e+003;1.001123e-001
2.829180e+003;1.065425e-001
2.831108e+003;1.142171e-001
2.833037e+003;1.227862e-001
2.834966e+003;1.303582e-001
2.836894e+003;1.348107e-001
2.838823e+003;1.356414e-001
2.840751e+003;1.335284e-001
2.842680e+003;1.293616e-001
2.844608e+003;1.246565e-001
2.846537e+003;1.198613e-001
2.848465e+003;1.158727e-001
2.850394e+003;1.131550e-001
2.852323e+003;1.113079e-001
2.854251e+003;1.109616e-001
2.856180e+003;1.122916e-001
2.858108e+003;1.150070e-001
2.860037e+003;1.195831e-001
2.861965e+003;1.263982e-001
2.863894e+003;1.340354e-001
2.865822e+003;1.396298e-001
2.867751e+003;1.419961e-001
2.869679e+003;1.422863e-001
2.871608e+003;1.416136e-001
2.873536e+003;1.410035e-001
2.875465e+003;1.408593e-001
2.877394e+003;1.405557e-001
2.879322e+003;1.394617e-001
2.881251e+003;1.379313e-001
2.883179e+003;1.374759e-001
2.885108e+003;1.375809e-001
2.887036e+003;1.382728e-001
2.888965e+003;1.398581e-001
2.890893e+003;1.413982e-001
2.892822e+003;1.433825e-001
2.894750e+003;1.468223e-001
2.896679e+003;1.510100e-001
2.898608e+003;1.557764e-001
2.900536e+003;1.611461e-001
2.902465e+003;1.658848e-001
2.904393e+003;1.703083e-001
2.906322e+003;1.754622e-001
2.908250e+003;1.806285e-001
2.910179e+003;1.850199e-001
2.912107e+003;1.885208e-001
2.914036e+003;1.925567e-001
2.915965e+003;1.963801e-001
2.917893e+003;1.978464e-001
2.919822e+003;1.966355e-001
2.921750e+003;1.923808e-001
2.923679e+003;1.860821e-001
2.925607e+003;1.787197e-001
2.927536e+003;1.706321e-001
2.929464e+003;1.621234e-001
2.931393e+003;1.536750e-001
2.933322e+003;1.453714e-001
2.935250e+003;1.382930e-001
2.937178e+003;1.335152e-001
2.939107e+003;1.314956e-001
2.941036e+003;1.329416e-001
2.942964e+003;1.378281e-001
2.944893e+003;1.455659e-001
2.946821e+003;1.543502e-001
2.948750e+003;1.622454e-001
2.950678e+003;1.663615e-001
2.952607e+003;1.660776e-001
2.954535e+003;1.625505e-001
2.956464e+003;1.573844e-001
2.958393e+003;1.520174e-001
2.960321e+003;1.473002e-001
2.962250e+003;1.422618e-001
2.964178e+003;1.353197e-001
2.966107e+003;1.272864e-001
2.968035e+003;1.197490e-001
2.969964e+003;1.128967e-001
2.971892e+003;1.066082e-001
2.973821e+003;1.006060e-001
2.975750e+003;9.518179e-002
2.977678e+003;9.057067e-002
2.979607e+003;8.653589e-002
2.981535e+003;8.299902e-002
2.983464e+003;7.988247e-002
2.985392e+003;7.711054e-002
2.987321e+003;7.475731e-002
2.989249e+003;7.297938e-002
2.991178e+003;7.125070e-002
2.993106e+003;6.906055e-002
2.995035e+003;6.705778e-002
2.996964e+003;6.560066e-002
2.998892e+003;6.372558e-002
3.000821e+003;6.175817e-002
3.002749e+003;6.028899e-002
3.004678e+003;5.940758e-002
3.006606e+003;5.860303e-002
3.008535e+003;5.765400e-002
3.010463e+003;5.678901e-002
3.012392e+003;5.559275e-002
3.014321e+003;5.419946e-002
3.016249e+003;5.321015e-002
3.018177e+003;5.228238e-002
3.020106e+003;5.165964e-002
3.022035e+003;5.131353e-002
3.023963e+003;5.087015e-002
3.025892e+003;5.029135e-002
3.027820e+003;4.988284e-002
3.029749e+003;4.948657e-002
3.031677e+003;4.889596e-002
3.033606e+003;4.835248e-002
3.035534e+003;4.827505e-002
3.037463e+003;4.823598e-002
3.039392e+003;4.811189e-002
3.041320e+003;4.765698e-002
3.043249e+003;4.721282e-002
3.045177e+003;4.739319e-002
3.047106e+003;4.765783e-002
3.049034e+003;4.752030e-002
3.050963e+003;4.706350e-002
3.052891e+003;4.693800e-002
3.054820e+003;4.694960e-002
3.056749e+003;4.686647e-002
3.058677e+003;4.681302e-002
3.060606e+003;4.681195e-002
3.062534e+003;4.678535e-002
3.064463e+003;4.667185e-002
3.066391e+003;4.639406e-002
3.068320e+003;4.611847e-002
3.070248e+003;4.633603e-002
3.072177e+003;4.680251e-002
3.074105e+003;4.677154e-002
3.076034e+003;4.629743e-002
3.077963e+003;4.601491e-002
3.079891e+003;4.580510e-002
3.081820e+003;4.569384e-002
3.083748e+003;4.612492e-002
3.085677e+003;4.625254e-002
3.087605e+003;4.586732e-002
3.089534e+003;4.575436e-002
3.091462e+003;4.580657e-002
3.093391e+003;4.601439e-002
3.095320e+003;4.597619e-002
3.097248e+003;4.616409e-002
3.099177e+003;4.620087e-002
3.101105e+003;4.587782e-002
3.103034e+003;4.597756e-002
3.104962e+003;4.612824e-002
3.106891e+003;4.633035e-002
3.108819e+003;4.647890e-002
3.110748e+003;4.666122e-002
3.112677e+003;4.669926e-002
3.114605e+003;4.653197e-002
3.116533e+003;4.660194e-002
3.118462e+003;4.647348e-002
3.120391e+003;4.641677e-002
3.122319e+003;4.666842e-002
3.124248e+003;4.701609e-002
3.126176e+003;4.715464e-002
3.128105e+003;4.718973e-002
3.130033e+003;4.743990e-002
3.131962e+003;4.721016e-002
3.133890e+003;4.704127e-002
3.135819e+003;4.758336e-002
3.137748e+003;4.779019e-002
3.139676e+003;4.799434e-002
3.141605e+003;4.817034e-002
3.143533e+003;4.817245e-002
3.145462e+003;4.841282e-002
3.147390e+003;4.857261e-002
3.149319e+003;4.866796e-002
3.151247e+003;4.859747e-002
3.153176e+003;4.866766e-002
3.155104e+003;4.907585e-002
3.157033e+003;4.931486e-002
3.158962e+003;4.899483e-002
3.160890e+003;4.889866e-002
3.162819e+003;4.912255e-002
3.164747e+003;4.941513e-002
3.166676e+003;4.946859e-002
3.168604e+003;4.966625e-002
3.170533e+003;4.960221e-002
3.172461e+003;4.942515e-002
3.174390e+003;4.959426e-002
3.176319e+003;4.970258e-002
3.178247e+003;4.965581e-002
3.180176e+003;4.984787e-002
3.182104e+003;5.010021e-002
3.184033e+003;5.019007e-002
3.185961e+003;5.028153e-002
3.187890e+003;5.078743e-002
3.189818e+003;5.134284e-002
3.191747e+003;5.120044e-002
3.193676e+003;5.088833e-002
3.195604e+003;5.084319e-002
3.197532e+003;5.109253e-002
3.199461e+003;5.140631e-002
3.201390e+003;5.149020e-002
3.203318e+003;5.137461e-002
3.205247e+003;5.102008e-002
3.207175e+003;5.123918e-002
3.209104e+003;5.162919e-002
3.211032e+003;5.137398e-002
3.212961e+003;5.103417e-002
3.214889e+003;5.102634e-002
3.216818e+003;5.083499e-002
3.218747e+003;5.061680e-002
3.220675e+003;5.084721e-002
3.222604e+003;5.091050e-002
3.224532e+003;5.067575e-002
3.226461e+003;5.081857e-002
3.228389e+003;5.094288e-002
3.230318e+003;5.073640e-002
3.232246e+003;5.080139e-002
3.234175e+003;5.089046e-002
3.236104e+003;5.013926e-002
3.238032e+003;4.967394e-002
3.239961e+003;4.989236e-002
3.241889e+003;5.023734e-002
3.243818e+003;5.027982e-002
3.245746e+003;5.026956e-002
3.247675e+003;5.039129e-002
3.249603e+003;5.026182e-002
3.251532e+003;5.024415e-002
3.253460e+003;5.029269e-002
3.255389e+003;5.043989e-002
3.257318e+003;5.045217e-002
3.259246e+003;5.026245e-002
3.261175e+003;5.054347e-002
3.263103e+003;5.060660e-002
3.265032e+003;5.062113e-002
3.266960e+003;5.067470e-002
3.268889e+003;5.056011e-002
3.270817e+003;5.051280e-002
3.272746e+003;5.043062e-002
3.274675e+003;5.051689e-002
3.276603e+003;5.072002e-002
3.278531e+003;5.088073e-002
3.280460e+003;5.111072e-002
3.282389e+003;5.121785e-002
3.284317e+003;5.104602e-002
3.286246e+003;5.085607e-002
3.288174e+003;5.073816e-002
3.290103e+003;5.040484e-002
3.292031e+003;4.992945e-002
3.293960e+003;4.987303e-002
3.295888e+003;5.035776e-002
3.297817e+003;5.092932e-002
3.299746e+003;5.094064e-002
3.301674e+003;5.032651e-002
3.303603e+003;5.029839e-002
3.305531e+003;5.064212e-002
3.307460e+003;5.034091e-002
3.309388e+003;4.993845e-002
3.311317e+003;4.959713e-002
3.313245e+003;4.974810e-002
3.315174e+003;4.978529e-002
3.317103e+003;4.920664e-002
3.319031e+003;4.866599e-002
3.320960e+003;4.865284e-002
3.322888e+003;4.866451e-002
3.324817e+003;4.893367e-002
3.326745e+003;4.912938e-002
3.328674e+003;4.880515e-002
3.330602e+003;4.841978e-002
3.332531e+003;4.847487e-002
3.334459e+003;4.884549e-002
3.336388e+003;4.945044e-002
3.338317e+003;4.938220e-002
3.340245e+003;4.881312e-002
3.342174e+003;4.825127e-002
3.344102e+003;4.789947e-002
3.346031e+003;4.783680e-002
3.347959e+003;4.808931e-002
3.349888e+003;4.840682e-002
3.351816e+003;4.821550e-002
3.353745e+003;4.775949e-002
3.355674e+003;4.724917e-002
3.357602e+003;4.663761e-002
3.359531e+003;4.630753e-002
3.361459e+003;4.694967e-002
3.363388e+003;4.764467e-002
3.365316e+003;4.745502e-002
3.367245e+003;4.689201e-002
3.369173e+003;4.655001e-002
3.371102e+003;4.666823e-002
3.373031e+003;4.661622e-002
3.374959e+003;4.599542e-002
3.376887e+003;4.600533e-002
3.378816e+003;4.585197e-002
3.380745e+003;4.547282e-002
3.382673e+003;4.507179e-002
3.384602e+003;4.462097e-002
3.386530e+003;4.468828e-002
3.388459e+003;4.444842e-002
3.390387e+003;4.434357e-002
3.392316e+003;4.452786e-002
3.394244e+003;4.426670e-002
3.396173e+003;4.385949e-002
3.398102e+003;4.363262e-002
3.400030e+003;4.344560e-002
3.401959e+003;4.361863e-002
3.403887e+003;4.399602e-002
3.405816e+003;4.386745e-002
3.407744e+003;4.377574e-002
3.409673e+003;4.390238e-002
3.411601e+003;4.374771e-002
3.413530e+003;4.343849e-002
3.415458e+003;4.300060e-002
3.417387e+003;4.255594e-002
3.419316e+003;4.244870e-002
3.421244e+003;4.238725e-002
3.423173e+003;4.275308e-002
3.425101e+003;4.272065e-002
3.427030e+003;4.205418e-002
3.428958e+003;4.168237e-002
3.430887e+003;4.187991e-002
3.432815e+003;4.159361e-002
3.434744e+003;4.136996e-002
3.436673e+003;4.137233e-002
3.438601e+003;4.099076e-002
3.440530e+003;4.064729e-002
3.442458e+003;4.074562e-002
3.444387e+003;4.070897e-002
3.446315e+003;4.034228e-002
3.448244e+003;3.995711e-002
3.450172e+003;3.952420e-002
3.452101e+003;3.958837e-002
3.454030e+003;3.974505e-002
3.455958e+003;3.901381e-002
3.457886e+003;3.857503e-002
3.459815e+003;3.831894e-002
3.461744e+003;3.814783e-002
3.463672e+003;3.816708e-002
3.465601e+003;3.843151e-002
3.467529e+003;3.836234e-002
3.469458e+003;3.757161e-002
3.471386e+003;3.699895e-002
3.473315e+003;3.695360e-002
3.475243e+003;3.679442e-002
3.477172e+003;3.619388e-002
3.479101e+003;3.571638e-002
3.481029e+003;3.576617e-002
3.482958e+003;3.570534e-002
3.484886e+003;3.513004e-002
3.486815e+003;3.485196e-002
3.488743e+003;3.469746e-002
3.490672e+003;3.447123e-002
3.492600e+003;3.390337e-002
3.494529e+003;3.324137e-002
3.496458e+003;3.311184e-002
3.498386e+003;3.323508e-002
3.500315e+003;3.337611e-002
3.502243e+003;3.334941e-002
3.504172e+003;3.323433e-002
3.506100e+003;3.306896e-002
3.508029e+003;3.288997e-002
3.509957e+003;3.254575e-002
3.511886e+003;3.215173e-002
3.513814e+003;3.199566e-002
3.515743e+003;3.184160e-002
3.517672e+003;3.170296e-002
3.519600e+003;3.160221e-002
3.521529e+003;3.156811e-002
3.523457e+003;3.138389e-002
3.525386e+003;3.098773e-002
3.527314e+003;3.042888e-002
3.529243e+003;2.998955e-002
3.531171e+003;2.976428e-002
3.533100e+003;2.986726e-002
3.535029e+003;2.992175e-002
3.536957e+003;2.972361e-002
3.538885e+003;2.945344e-002
3.540814e+003;2.869177e-002
3.542743e+003;2.803675e-002
3.544671e+003;2.782968e-002
3.546600e+003;2.775596e-002
3.548528e+003;2.748976e-002
3.550457e+003;2.714940e-002
3.552385e+003;2.671098e-002
3.554314e+003;2.643736e-002
3.556242e+003;2.639926e-002
3.558171e+003;2.628008e-002
3.560100e+003;2.570570e-002
3.562028e+003;2.532596e-002
3.563957e+003;2.557889e-002
3.565885e+003;2.518429e-002
3.567814e+003;2.455795e-002
3.569742e+003;2.466736e-002
3.571671e+003;2.477725e-002
3.573599e+003;2.446747e-002
3.575528e+003;2.411374e-002
3.577457e+003;2.371372e-002
3.579385e+003;2.354841e-002
3.581314e+003;2.333976e-002
3.583242e+003;2.305445e-002
3.585171e+003;2.295886e-002
3.587099e+003;2.250522e-002
3.589028e+003;2.196017e-002
3.590956e+003;2.170115e-002
3.592885e+003;2.151185e-002
3.594813e+003;2.147675e-002
3.596742e+003;2.176121e-002
3.598671e+003;2.155913e-002
3.600599e+003;2.100706e-002
3.602528e+003;2.082494e-002
3.604456e+003;2.032424e-002
3.606385e+003;1.956904e-002
3.608313e+003;1.933691e-002
3.610242e+003;1.978324e-002
3.612170e+003;2.016414e-002
3.614099e+003;2.011798e-002
3.616028e+003;1.975626e-002
3.617956e+003;1.919216e-002
3.619885e+003;1.867363e-002
3.621813e+003;1.858205e-002
3.623742e+003;1.872375e-002
3.625670e+003;1.859187e-002
3.627599e+003;1.812445e-002
3.629527e+003;1.792699e-002
3.631456e+003;1.796160e-002
3.633385e+003;1.799561e-002
3.635313e+003;1.820260e-002
3.637241e+003;1.819728e-002
3.639170e+003;1.754263e-002
3.641099e+003;1.719343e-002
3.643027e+003;1.739493e-002
3.644956e+003;1.718278e-002
3.646884e+003;1.652229e-002
3.648813e+003;1.615967e-002
3.650741e+003;1.623097e-002
3.652670e+003;1.652577e-002
3.654598e+003;1.613646e-002
3.656527e+003;1.584721e-002
3.658456e+003;1.619224e-002
3.660384e+003;1.606373e-002
3.662313e+003;1.535215e-002
3.664241e+003;1.510974e-002
3.666170e+003;1.529806e-002
3.668098e+003;1.485494e-002
3.670027e+003;1.477102e-002
3.671955e+003;1.531683e-002
3.673884e+003;1.533283e-002
3.675813e+003;1.534628e-002
3.677741e+003;1.595881e-002
3.679669e+003;1.594307e-002
3.681598e+003;1.557753e-002
3.683527e+003;1.552639e-002
3.685455e+003;1.565161e-002
3.687384e+003;1.546760e-002
3.689312e+003;1.560205e-002
3.691241e+003;1.599033e-002
3.693169e+003;1.578955e-002
3.695098e+003;1.535819e-002
3.697026e+003;1.596940e-002
3.698955e+003;1.615548e-002
3.700884e+003;1.556537e-002
3.702812e+003;1.558021e-002
3.704741e+003;1.601605e-002
3.706669e+003;1.585030e-002
3.708598e+003;1.532335e-002
3.710526e+003;1.506552e-002
3.712455e+003;1.494214e-002
3.714383e+003;1.521315e-002
3.716312e+003;1.525886e-002
3.718240e+003;1.518941e-002
3.720169e+003;1.488670e-002
3.722098e+003;1.483444e-002
3.724026e+003;1.513736e-002
3.725955e+003;1.541923e-002
3.727883e+003;1.533657e-002
3.729812e+003;1.539214e-002
3.731740e+003;1.527870e-002
3.733669e+003;1.484329e-002
3.735597e+003;1.487833e-002
3.737526e+003;1.515084e-002
3.739455e+003;1.511797e-002
3.741383e+003;1.544137e-002
3.743312e+003;1.516439e-002
3.745240e+003;1.471233e-002
3.747169e+003;1.457063e-002
3.749097e+003;1.469431e-002
3.751026e+003;1.473777e-002
3.752954e+003;1.469986e-002
3.754883e+003;1.512075e-002
3.756812e+003;1.524980e-002
3.758740e+003;1.554538e-002
3.760668e+003;1.611394e-002
3.762597e+003;1.623840e-002
3.764526e+003;1.593949e-002
3.766454e+003;1.593746e-002
3.768383e+003;1.552450e-002
3.770311e+003;1.559133e-002
3.772240e+003;1.614949e-002
3.774168e+003;1.606906e-002
3.776097e+003;1.595513e-002
3.778025e+003;1.589725e-002
3.779954e+003;1.519599e-002
3.781883e+003;1.533145e-002
3.783811e+003;1.593661e-002
3.785740e+003;1.564478e-002
3.787668e+003;1.543650e-002
3.789597e+003;1.600484e-002
3.791525e+003;1.615878e-002
3.793454e+003;1.594915e-002
3.795382e+003;1.608983e-002
3.797311e+003;1.602536e-002
3.799240e+003;1.559655e-002
3.801168e+003;1.517997e-002
3.803097e+003;1.525275e-002
3.805025e+003;1.515667e-002
3.806954e+003;1.522317e-002
3.808882e+003;1.556355e-002
3.810811e+003;1.571929e-002
3.812739e+003;1.577917e-002
3.814668e+003;1.502154e-002
3.816596e+003;1.482968e-002
3.818525e+003;1.534968e-002
3.820454e+003;1.528474e-002
3.822382e+003;1.612191e-002
3.824311e+003;1.691443e-002
3.826239e+003;1.643134e-002
3.828168e+003;1.564869e-002
3.830096e+003;1.539877e-002
3.832025e+003;1.576928e-002
3.833953e+003;1.598796e-002
3.835882e+003;1.564368e-002
3.837811e+003;1.538531e-002
3.839739e+003;1.600567e-002
3.841667e+003;1.629240e-002
3.843596e+003;1.620184e-002
3.845525e+003;1.599343e-002
3.847453e+003;1.570441e-002
3.849382e+003;1.575141e-002
3.851310e+003;1.551382e-002
3.853239e+003;1.517026e-002
3.855167e+003;1.593451e-002
3.857096e+003;1.714721e-002
3.859024e+003;1.724359e-002
3.860953e+003;1.664030e-002
3.862882e+003;1.639410e-002
3.864810e+003;1.603870e-002
3.866739e+003;1.627537e-002
3.868667e+003;1.629987e-002
3.870596e+003;1.642001e-002
3.872524e+003;1.645873e-002
3.874453e+003;1.621903e-002
3.876381e+003;1.684444e-002
3.878310e+003;1.728003e-002
3.880239e+003;1.701883e-002
3.882167e+003;1.676922e-002
3.884096e+003;1.689466e-002
3.886024e+003;1.743025e-002
3.887953e+003;1.740324e-002
3.889881e+003;1.709561e-002
3.891810e+003;1.739814e-002
3.893738e+003;1.742356e-002
3.895667e+003;1.738403e-002
3.897595e+003;1.708810e-002
3.899524e+003;1.681550e-002
3.901453e+003;1.683479e-002
3.903381e+003;1.711012e-002
3.905310e+003;1.677362e-002
3.907238e+003;1.617838e-002
3.909167e+003;1.638457e-002
3.911095e+003;1.673041e-002
3.913024e+003;1.693445e-002
3.914952e+003;1.751417e-002
3.916881e+003;1.761602e-002
3.918810e+003;1.762510e-002
3.920738e+003;1.792910e-002
3.922667e+003;1.798142e-002
3.924595e+003;1.786909e-002
3.926524e+003;1.804113e-002
3.928452e+003;1.849771e-002
3.930381e+003;1.846047e-002
3.932309e+003;1.808787e-002
3.934238e+003;1.795089e-002
3.936167e+003;1.773091e-002
3.938095e+003;1.781851e-002
3.940023e+003;1.797216e-002
3.941952e+003;1.798163e-002
3.943881e+003;1.791681e-002
3.945809e+003;1.756737e-002
3.947738e+003;1.699912e-002
3.949666e+003;1.686727e-002
3.951595e+003;1.719936e-002
3.953523e+003;1.756841e-002
3.955452e+003;1.821397e-002
3.957380e+003;1.861497e-002
3.959309e+003;1.823702e-002
3.961238e+003;1.798062e-002
3.963166e+003;1.786982e-002
3.965095e+003;1.796926e-002
3.967023e+003;1.805547e-002
3.968952e+003;1.746419e-002
3.970880e+003;1.693500e-002
3.972809e+003;1.717033e-002
3.974737e+003;1.757027e-002
3.976666e+003;1.782773e-002
3.978594e+003;1.780005e-002
3.980523e+003;1.808400e-002
3.982452e+003;1.869982e-002
3.984380e+003;1.867432e-002
3.986309e+003;1.812825e-002
3.988237e+003;1.847171e-002
3.990166e+003;1.898394e-002
3.992094e+003;1.897069e-002
3.994023e+003;1.931339e-002
3.995951e+003;1.990695e-002
3.997880e+003;2.012106e-002
3.999809e+003;1.983793e-002
4.001737e+003;0.000000e+000
