3.992094e+002;0.000000e+000
4.011380e+002;0.000000e+000
4.030665e+002;0.000000e+000
4.049951e+002;0.000000e+000
4.069236e+002;0.000000e+000
4.088522e+002;0.000000e+000
4.107807e+002;0.000000e+000
4.127093e+002;0.000000e+000
4.146378e+002;0.000000e+000
4.165664e+002;0.000000e+000
4.184949e+002;0.000000e+000
4.204235e+002;0.000000e+000
4.223520e+002;0.000000e+000
4.242806e+002;0.000000e+000
4.262091e+002;0.000000e+000
4.281377e+002;0.000000e+000
4.300662e+002;0.000000e+000
4.319948e+002;0.000000e+000
4.339233e+002;0.000000e+000
4.358519e+002;0.000000e+000
4.377804e+002;0.000000e+000
4.397090e+002;0.000000e+000
4.416375e+002;0.000000e+000
4.435660e+002;0.000000e+000
4.454946e+002;0.000000e+000
4.474232e+002;0.000000e+000
4.493517e+002;0.000000e+000
4.512802e+002;0.000000e+000
4.532088e+002;0.000000e+000
4.551373e+002;0.000000e+000
4.570659e+002;0.000000e+000
4.589944e+002;0.000000e+000
4.609230e+002;0.000000e+000
4.628515e+002;0.000000e+000
4.647801e+002;0.000000e+000
4.667086e+002;0.000000e+000
4.686372e+002;0.000000e+000
4.705657e+002;0.000000e+000
4.724943e+002;0.000000e+000
4.744228e+002;0.000000e+000
4.763513e+002;0.000000e+000
4.782799e+002;0.000000e+000
4.802085e+002;0.000000e+000
4.821370e+002;0.000000e+000
4.840656e+002;0.000000e+000
4.859941e+002;0.000000e+000
4.879226e+002;0.000000e+000
4.898512e+002;0.000000e+000
4.917798e+002;0.000000e+000
4.937083e+002;0.000000e+000
4.956368e+002;0.000000e+000
4.975654e+002;0.000000e+000
4.994939e+002;0.000000e+000
5.014225e+002;0.000000e+000
5.033510e+002;0.000000e+000
5.052796e+002;0.000000e+000
5.072081e+002;0.000000e+000
5.091367e+002;0.000000e+000
5.110652e+002;0.000000e+000
5.129938e+002;0.000000e+000
5.149223e+002;0.000000e+000
5.168509e+002;0.000000e+000
5.187794e+002;0.000000e+000
5.207079e+002;0.000000e+000
5.226365e+002;0.000000e+000
5.245651e+002;0.000000e+000
5.264936e+002;0.000000e+000
5.284222e+002;0.000000e+000
5.303507e+002;0.000000e+000
5.322792e+002;0.000000e+000
5.342078e+002;0.000000e+000
5.361364e+002;0.000000e+000
5.380649e+002;0.000000e+000
5.399935e+002;0.000000e+000
5.419220e+002;0.000000e+000
5.438505e+002;0.000000e+000
5.457791e+002;0.000000e+000
5.477076e+002;0.000000e+000
5.496362e+002;0.000000e+000
5.515648e+002;0.000000e+000
5.534933e+002;0.000000e+000
5.554218e+002;0.000000e+000
5.573504e+002;0.000000e+000
5.592789e+002;0.000000e+000
5.612075e+002;0.000000e+000
5.631360e+002;0.000000e+000
5.650646e+002;0.000000e+000
5.669931e+002;0.000000e+000
5.689217e+002;0.000000e+000
5.708502e+002;0.000000e+000
5.727787e+002;0.000000e+000
5.747073e+002;0.000000e+000
5.766359e+002;0.000000e+000
5.785644e+002;0.000000e+000
5.804930e+002;0.000000e+000
5.824215e+002;0.000000e+000
5.843500e+002;0.000000e+000
5.862786e+002;0.000000e+000
5.882072e+002;0.000000e+000
5.901357e+002;0.000000e+000
5.920643e+002;0.000000e+000
5.939928e+002;0.000000e+000
5.959213e+002;0.000000e+000
5.978499e+002;0.000000e+000
5.997784e+002;3.036061e-002
6.017070e+002;3.086462e-002
6.036355e+002;2.883423e-002
6.055641e+002;2.848701e-002
6.074926e+002;2.745767e-002
6.094211e+002;2.652836e-002
6.113497e+002;2.920614e-002
6.132783e+002;2.955224e-002
6.152068e+002;2.949670e-002
6.171354e+002;2.732872e-002
6.190639e+002;2.361302e-002
6.209924e+002;2.232362e-002
6.229210e+002;2.851691e-002
6.248495e+002;2.628336e-002
6.267781e+002;2.050681e-002
6.287067e+002;2.163978e-002
6.306352e+002;2.498943e-002
6.325637e+002;2.547009e-002
6.344923e+002;2.856945e-002
6.364208e+002;2.981960e-002
6.383494e+002;2.883104e-002
6.402780e+002;2.767328e-002
6.422065e+002;2.663587e-002
6.441350e+002;2.666454e-002
6.460636e+002;2.850254e-002
6.479921e+002;2.793151e-002
6.499207e+002;2.843918e-002
6.518492e+002;2.887917e-002
6.537778e+002;2.730631e-002
6.557063e+002;2.382802e-002
6.576349e+002;2.086112e-002
6.595634e+002;1.961244e-002
6.614919e+002;2.204668e-002
6.634205e+002;2.354242e-002
6.653491e+002;2.405963e-002
6.672776e+002;2.294290e-002
6.692062e+002;2.215706e-002
6.711347e+002;2.277550e-002
6.730632e+002;2.253080e-002
6.749918e+002;2.232707e-002
6.769203e+002;2.293012e-002
6.788489e+002;2.293724e-002
6.807775e+002;2.219263e-002
6.827060e+002;2.030799e-002
6.846345e+002;2.069863e-002
6.865631e+002;2.175438e-002
6.884916e+002;2.162261e-002
6.904202e+002;2.117467e-002
6.923488e+002;2.118417e-002
6.942773e+002;2.220124e-002
6.962058e+002;2.301888e-002
6.981344e+002;2.317487e-002
7.000629e+002;2.393760e-002
7.019915e+002;2.492629e-002
7.039200e+002;2.628174e-002
7.058486e+002;2.878717e-002
7.077771e+002;3.411403e-002
7.097057e+002;4.230451e-002
7.116342e+002;5.097965e-002
7.135627e+002;5.566333e-002
7.154913e+002;5.433534e-002
7.174199e+002;4.838059e-002
7.193484e+002;4.198888e-002
7.212770e+002;3.650872e-002
7.232055e+002;3.231564e-002
7.251340e+002;2.950712e-002
7.270626e+002;2.848294e-002
7.289911e+002;2.746039e-002
7.309197e+002;2.677878e-002
7.328483e+002;2.602770e-002
7.347768e+002;2.528697e-002
7.367053e+002;2.459719e-002
7.386339e+002;2.477521e-002
7.405624e+002;2.485215e-002
7.424910e+002;2.449762e-002
7.444196e+002;2.437746e-002
7.463481e+002;2.420566e-002
7.482766e+002;2.394481e-002
7.502052e+002;2.353347e-002
7.521337e+002;2.295527e-002
7.540623e+002;2.308639e-002
7.559908e+002;2.325023e-002
7.579194e+002;2.327624e-002
7.598479e+002;2.334130e-002
7.617765e+002;2.352116e-002
7.637050e+002;2.410754e-002
7.656335e+002;2.512474e-002
7.675621e+002;2.508753e-002
7.694907e+002;2.497367e-002
7.714192e+002;2.462857e-002
7.733478e+002;2.488769e-002
7.752763e+002;2.506686e-002
7.772048e+002;2.489583e-002
7.791334e+002;2.531082e-002
7.810620e+002;2.613075e-002
7.829905e+002;2.661977e-002
7.849191e+002;2.653044e-002
7.868476e+002;2.674622e-002
7.887761e+002;2.747843e-002
7.907047e+002;2.802533e-002
7.926332e+002;2.902658e-002
7.945618e+002;3.042699e-002
7.964903e+002;3.138229e-002
7.984189e+002;3.170025e-002
8.003474e+002;3.270666e-002
8.022759e+002;3.481333e-002
8.042045e+002;3.840306e-002
8.061331e+002;4.277289e-002
8.080616e+002;4.652957e-002
8.099902e+002;4.841856e-002
8.119187e+002;4.801070e-002
8.138472e+002;4.571107e-002
8.157758e+002;4.238484e-002
8.177043e+002;3.959773e-002
8.196329e+002;3.758288e-002
8.215615e+002;3.555733e-002
8.234900e+002;3.465073e-002
8.254185e+002;3.520520e-002
8.273471e+002;3.640454e-002
8.292756e+002;3.737717e-002
8.312042e+002;3.780957e-002
8.331328e+002;3.921964e-002
8.350613e+002;4.189184e-002
8.369898e+002;4.586342e-002
8.389184e+002;5.178848e-002
8.408469e+002;5.661156e-002
8.427755e+002;5.565568e-002
8.447040e+002;5.068375e-002
8.466326e+002;4.778331e-002
8.485611e+002;4.460199e-002
8.504897e+002;3.989151e-002
8.524182e+002;3.720351e-002
8.543467e+002;3.623432e-002
8.562753e+002;3.607872e-002
8.582039e+002;3.688030e-002
8.601324e+002;3.870759e-002
8.620610e+002;4.178768e-002
8.639895e+002;4.685458e-002
8.659180e+002;5.516662e-002
8.678466e+002;6.942530e-002
8.697751e+002;8.984701e-002
8.717037e+002;1.116266e-001
8.736323e+002;1.272029e-001
8.755608e+002;1.300749e-001
8.774893e+002;1.197792e-001
8.794179e+002;1.028909e-001
8.813464e+002;8.773951e-002
8.832750e+002;7.467844e-002
8.852036e+002;5.966866e-002
8.871321e+002;4.550181e-002
8.890606e+002;3.787537e-002
8.909892e+002;3.634624e-002
8.929177e+002;3.836603e-002
8.948463e+002;4.227705e-002
8.967748e+002;4.611670e-002
8.987034e+002;4.855167e-002
9.006319e+002;4.846294e-002
9.025605e+002;4.473460e-002
9.044890e+002;3.957443e-002
9.064175e+002;3.540852e-002
9.083461e+002;3.217909e-002
9.102747e+002;2.983458e-002
9.122032e+002;2.841063e-002
9.141318e+002;2.762600e-002
9.160603e+002;2.751422e-002
9.179888e+002;2.736785e-002
9.199174e+002;2.645951e-002
9.218459e+002;2.601247e-002
9.237745e+002;2.638933e-002
9.257031e+002;2.666571e-002
9.276316e+002;2.648176e-002
9.295601e+002;2.634623e-002
9.314887e+002;2.698401e-002
9.334172e+002;2.829483e-002
9.353458e+002;2.971350e-002
9.372744e+002;3.113176e-002
9.392029e+002;3.278266e-002
9.411314e+002;3.381367e-002
9.430600e+002;3.385025e-002
9.449885e+002;3.317302e-002
9.469171e+002;3.256699e-002
9.488456e+002;3.296153e-002
9.507742e+002;3.394654e-002
9.527027e+002;3.443794e-002
9.546313e+002;3.509401e-002
9.565598e+002;3.585832e-002
9.584883e+002;3.682677e-002
9.604169e+002;3.854034e-002
9.623455e+002;4.079184e-002
9.642740e+002;4.337785e-002
9.662026e+002;4.714995e-002
9.681311e+002;5.306186e-002
9.700596e+002;5.977789e-002
9.719882e+002;6.437403e-002
9.739167e+002;6.457767e-002
9.758453e+002;6.028926e-002
9.777739e+002;5.343200e-002
9.797024e+002;4.619331e-002
9.816309e+002;3.971691e-002
9.835595e+002;3.525526e-002
9.854880e+002;3.303482e-002
9.874166e+002;3.292529e-002
9.893452e+002;3.466117e-002
9.912737e+002;3.821599e-002
9.932022e+002;4.299460e-002
9.951307e+002;4.869453e-002
9.970593e+002;5.333571e-002
9.989879e+002;5.368122e-002
1.000916e+003;4.971778e-002
1.002845e+003;4.384094e-002
1.004773e+003;3.849718e-002
1.006702e+003;3.437758e-002
1.008631e+003;3.145553e-002
1.010559e+003;2.943748e-002
1.012488e+003;2.784943e-002
1.014416e+003;2.672367e-002
1.016345e+003;2.620659e-002
1.018273e+003;2.557787e-002
1.020202e+003;2.476290e-002
1.022130e+003;2.414036e-002
1.024059e+003;2.400650e-002
1.025988e+003;2.358912e-002
1.027916e+003;2.314751e-002
1.029845e+003;2.343082e-002
1.031773e+003;2.388379e-002
1.033702e+003;2.406579e-002
1.035630e+003;2.455925e-002
1.037559e+003;2.511088e-002
1.039487e+003;2.543489e-002
1.041416e+003;2.555351e-002
1.043344e+003;2.612671e-002
1.045273e+003;2.648328e-002
1.047202e+003;2.651730e-002
1.049130e+003;2.625499e-002
1.051059e+003;2.501901e-002
1.052987e+003;2.389933e-002
1.054916e+003;2.294548e-002
1.056844e+003;2.232592e-002
1.058773e+003;2.199108e-002
1.060701e+003;2.186221e-002
1.062630e+003;2.146934e-002
1.064558e+003;2.126200e-002
1.066487e+003;2.123608e-002
1.068416e+003;2.121792e-002
1.070344e+003;2.133654e-002
1.072273e+003;2.145795e-002
1.074201e+003;2.112009e-002
1.076130e+003;2.074089e-002
1.078058e+003;2.094905e-002
1.079987e+003;2.154489e-002
1.081915e+003;2.182510e-002
1.083844e+003;2.248805e-002
1.085773e+003;2.306630e-002
1.087701e+003;2.331249e-002
1.089630e+003;2.342263e-002
1.091558e+003;2.392979e-002
1.093487e+003;2.445211e-002
1.095415e+003;2.537046e-002
1.097344e+003;2.741151e-002
1.099272e+003;2.930833e-002
1.101201e+003;3.026031e-002
1.103129e+003;3.020877e-002
1.105058e+003;2.895580e-002
1.106987e+003;2.678506e-002
1.108915e+003;2.397173e-002
1.110844e+003;2.197129e-002
1.112772e+003;2.088807e-002
1.114701e+003;2.024078e-002
1.116629e+003;1.998632e-002
1.118558e+003;1.987091e-002
1.120486e+003;1.986862e-002
1.122415e+003;1.963817e-002
1.124344e+003;1.935635e-002
1.126272e+003;1.942020e-002
1.128201e+003;1.994566e-002
1.130129e+003;2.044526e-002
1.132058e+003;2.082327e-002
1.133986e+003;2.140814e-002
1.135915e+003;2.306993e-002
1.137843e+003;2.516824e-002
1.139772e+003;2.753244e-002
1.141700e+003;3.055975e-002
1.143629e+003;3.409364e-002
1.145557e+003;3.751684e-002
1.147486e+003;4.133373e-002
1.149415e+003;4.551064e-002
1.151343e+003;4.900807e-002
1.153272e+003;5.089556e-002
1.155200e+003;5.171584e-002
1.157129e+003;5.211472e-002
1.159057e+003;5.209425e-002
1.160986e+003;5.219046e-002
1.162914e+003;5.267913e-002
1.164843e+003;5.265126e-002
1.166771e+003;5.151725e-002
1.168700e+003;4.869120e-002
1.170629e+003;4.444934e-002
1.172557e+003;3.999439e-002
1.174486e+003;3.529134e-002
1.176414e+003;3.081710e-002
1.178343e+003;2.714682e-002
1.180271e+003;2.452198e-002
1.182200e+003;2.303380e-002
1.184128e+003;2.183475e-002
1.186057e+003;2.050573e-002
1.187986e+003;1.967262e-002
1.189914e+003;1.966795e-002
1.191843e+003;2.030476e-002
1.193771e+003;2.085431e-002
1.195700e+003;2.120035e-002
1.197628e+003;2.092225e-002
1.199557e+003;2.048257e-002
1.201485e+003;2.071549e-002
1.203414e+003;2.135583e-002
1.205343e+003;2.188106e-002
1.207271e+003;2.226865e-002
1.209200e+003;2.333113e-002
1.211128e+003;2.430765e-002
1.213057e+003;2.579304e-002
1.214985e+003;2.750716e-002
1.216914e+003;2.857544e-002
1.218842e+003;2.871067e-002
1.220771e+003;2.787497e-002
1.222699e+003;2.648180e-002
1.224628e+003;2.505067e-002
1.226557e+003;2.390812e-002
1.228485e+003;2.337997e-002
1.230414e+003;2.329847e-002
1.232342e+003;2.330903e-002
1.234271e+003;2.329795e-002
1.236199e+003;2.324205e-002
1.238128e+003;2.345117e-002
1.240056e+003;2.369930e-002
1.241985e+003;2.353732e-002
1.243913e+003;2.332952e-002
1.245842e+003;2.375144e-002
1.247771e+003;2.515571e-002
1.249699e+003;2.706236e-002
1.251628e+003;2.950769e-002
1.253556e+003;3.244608e-002
1.255485e+003;3.437224e-002
1.257413e+003;3.366438e-002
1.259342e+003;3.152600e-002
1.261270e+003;2.976641e-002
1.263199e+003;2.800526e-002
1.265127e+003;2.680588e-002
1.267056e+003;2.639908e-002
1.268985e+003;2.618576e-002
1.270913e+003;2.587701e-002
1.272842e+003;2.597739e-002
1.274770e+003;2.629315e-002
1.276699e+003;2.667032e-002
1.278627e+003;2.721219e-002
1.280556e+003;2.781135e-002
1.282484e+003;2.885810e-002
1.284413e+003;3.024458e-002
1.286342e+003;3.179964e-002
1.288270e+003;3.397950e-002
1.290199e+003;3.620075e-002
1.292127e+003;3.824903e-002
1.294056e+003;3.992733e-002
1.295984e+003;4.097583e-002
1.297913e+003;4.130859e-002
1.299841e+003;4.148364e-002
1.301770e+003;4.259578e-002
1.303698e+003;4.414469e-002
1.305627e+003;4.442695e-002
1.307556e+003;4.260291e-002
1.309484e+003;4.025139e-002
1.311413e+003;3.887435e-002
1.313341e+003;3.856261e-002
1.315270e+003;3.922382e-002
1.317198e+003;4.036686e-002
1.319127e+003;4.182259e-002
1.321055e+003;4.374753e-002
1.322984e+003;4.644207e-002
1.324912e+003;4.968787e-002
1.326841e+003;5.264071e-002
1.328770e+003;5.436594e-002
1.330698e+003;5.455784e-002
1.332627e+003;5.372787e-002
1.334555e+003;5.279241e-002
1.336484e+003;5.239773e-002
1.338412e+003;5.248907e-002
1.340341e+003;5.369896e-002
1.342269e+003;5.610861e-002
1.344198e+003;5.881737e-002
1.346126e+003;6.187427e-002
1.348055e+003;6.538856e-002
1.349984e+003;6.956248e-002
1.351912e+003;7.506046e-002
1.353841e+003;8.213431e-002
1.355769e+003;9.011787e-002
1.357698e+003;9.690347e-002
1.359626e+003;9.964725e-002
1.361555e+003;9.921309e-002
1.363483e+003;9.971261e-002
1.365412e+003;1.038960e-001
1.367341e+003;1.129813e-001
1.369269e+003;1.293269e-001
1.371198e+003;1.527546e-001
1.373126e+003;1.797151e-001
1.375055e+003;2.019224e-001
1.376983e+003;2.063825e-001
1.378912e+003;1.890107e-001
1.380840e+003;1.616598e-001
1.382769e+003;1.352222e-001
1.384698e+003;1.141273e-001
1.386626e+003;9.984457e-002
1.388555e+003;9.406206e-002
1.390483e+003;9.332324e-002
1.392412e+003;9.314632e-002
1.394340e+003;9.357791e-002
1.396269e+003;9.638739e-002
1.398197e+003;9.970707e-002
1.400126e+003;1.034612e-001
1.402054e+003;1.071478e-001
1.403983e+003;1.093837e-001
1.405911e+003;1.119289e-001
1.407840e+003;1.150062e-001
1.409769e+003;1.177303e-001
1.411697e+003;1.206326e-001
1.413626e+003;1.237082e-001
1.415554e+003;1.260408e-001
1.417483e+003;1.258954e-001
1.419411e+003;1.265551e-001
1.421340e+003;1.306240e-001
1.423268e+003;1.334776e-001
1.425197e+003;1.357732e-001
1.427125e+003;1.382372e-001
1.429054e+003;1.411155e-001
1.430983e+003;1.459339e-001
1.432911e+003;1.513826e-001
1.434840e+003;1.529256e-001
1.436768e+003;1.516656e-001
1.438697e+003;1.532180e-001
1.440625e+003;1.553463e-001
1.442554e+003;1.585153e-001
1.444482e+003;1.639488e-001
1.446411e+003;1.700467e-001
1.448340e+003;1.763401e-001
1.450268e+003;1.817894e-001
1.452197e+003;1.838204e-001
1.454125e+003;1.815763e-001
1.456054e+003;1.747963e-001
1.457982e+003;1.724965e-001
1.459911e+003;1.730481e-001
1.461839e+003;1.688548e-001
1.463768e+003;1.604359e-001
1.465697e+003;1.516254e-001
1.467625e+003;1.435024e-001
1.469554e+003;1.330471e-001
1.471482e+003;1.206818e-001
1.473411e+003;1.121802e-001
1.475339e+003;1.076729e-001
1.477268e+003;1.033157e-001
1.479196e+003;9.939629e-002
1.481125e+003;9.550649e-002
1.483053e+003;9.250239e-002
1.484982e+003;8.923103e-002
1.486911e+003;8.508483e-002
1.488839e+003;8.129541e-002
1.490768e+003;7.953206e-002
1.492696e+003;7.891396e-002
1.494625e+003;7.563607e-002
1.496553e+003;7.213350e-002
1.498482e+003;7.164668e-002
1.500410e+003;7.175166e-002
1.502339e+003;7.055894e-002
1.504267e+003;6.476056e-002
1.506196e+003;5.824039e-002
1.508125e+003;5.943410e-002
1.510053e+003;6.215419e-002
1.511982e+003;6.152328e-002
1.513910e+003;6.028838e-002
1.515839e+003;5.788847e-002
1.517767e+003;5.556236e-002
1.519696e+003;5.174324e-002
1.521624e+003;4.901961e-002
1.523553e+003;5.040219e-002
1.525481e+003;5.052155e-002
1.527410e+003;5.069120e-002
1.529339e+003;5.081946e-002
1.531267e+003;4.906995e-002
1.533196e+003;4.622021e-002
1.535124e+003;4.596367e-002
1.537053e+003;4.296120e-002
1.538981e+003;3.604261e-002
1.540910e+003;3.501060e-002
1.542838e+003;3.776255e-002
1.544767e+003;3.894110e-002
1.546695e+003;3.975859e-002
1.548624e+003;3.917696e-002
1.550553e+003;3.801050e-002
1.552481e+003;3.567339e-002
1.554410e+003;3.256956e-002
1.556338e+003;2.897497e-002
1.558267e+003;2.279761e-002
1.560195e+003;2.405217e-002
1.562124e+003;3.012829e-002
1.564052e+003;3.147387e-002
1.565981e+003;3.090305e-002
1.567910e+003;2.916472e-002
1.569838e+003;2.777172e-002
1.571767e+003;2.927480e-002
1.573695e+003;2.794599e-002
1.575624e+003;2.434942e-002
1.577552e+003;2.628463e-002
1.579481e+003;2.911422e-002
1.581409e+003;2.899802e-002
1.583338e+003;2.866030e-002
1.585266e+003;2.831333e-002
1.587195e+003;2.783477e-002
1.589124e+003;2.695823e-002
1.591052e+003;2.634440e-002
1.592981e+003;2.554265e-002
1.594909e+003;2.496153e-002
1.596838e+003;2.505601e-002
1.598766e+003;2.488278e-002
1.600695e+003;2.422528e-002
1.602623e+003;2.359192e-002
1.604552e+003;2.326366e-002
1.606480e+003;2.314530e-002
1.608409e+003;2.293836e-002
1.610338e+003;2.277303e-002
1.612266e+003;2.261935e-002
1.614195e+003;2.061054e-002
1.616123e+003;1.709978e-002
1.618052e+003;1.857555e-002
1.619980e+003;2.102803e-002
1.621909e+003;1.973209e-002
1.623837e+003;1.886977e-002
1.625766e+003;1.975050e-002
1.627694e+003;1.983637e-002
1.629623e+003;2.012839e-002
1.631552e+003;2.029956e-002
1.633480e+003;1.750248e-002
1.635409e+003;1.439564e-002
1.637337e+003;1.676860e-002
1.639266e+003;1.952680e-002
1.641194e+003;1.989869e-002
1.643123e+003;1.867671e-002
1.645051e+003;1.550981e-002
1.646980e+003;1.486376e-002
1.648909e+003;1.715510e-002
1.650837e+003;1.301605e-002
1.652766e+003;6.548733e-003
1.654694e+003;1.159078e-002
1.656623e+003;1.748147e-002
1.658551e+003;1.831802e-002
1.660480e+003;1.716640e-002
1.662408e+003;1.584907e-002
1.664337e+003;1.677862e-002
1.666266e+003;1.679205e-002
1.668194e+003;1.411022e-002
1.670123e+003;1.349841e-002
1.672051e+003;1.489184e-002
1.673980e+003;1.367112e-002
1.675908e+003;1.337726e-002
1.677837e+003;1.522602e-002
1.679765e+003;1.528144e-002
1.681694e+003;1.293607e-002
1.683622e+003;7.495920e-003
1.685551e+003;8.659120e-003
1.687479e+003;1.347329e-002
1.689408e+003;1.441393e-002
1.691337e+003;1.453362e-002
1.693265e+003;1.253962e-002
1.695194e+003;7.943494e-003
1.697122e+003;8.069349e-003
1.699051e+003;6.672604e-003
1.700979e+003;6.787558e-003
1.702908e+003;1.110452e-002
1.704836e+003;1.130049e-002
1.706765e+003;1.163951e-002
1.708693e+003;1.222540e-002
1.710622e+003;1.231323e-002
1.712551e+003;1.134131e-002
1.714479e+003;8.980182e-003
1.716408e+003;5.503565e-003
1.718336e+003;5.956143e-003
1.720265e+003;9.707481e-003
1.722193e+003;1.095297e-002
1.724122e+003;1.061650e-002
1.726050e+003;1.066512e-002
1.727979e+003;1.041347e-002
1.729908e+003;9.499286e-003
1.731836e+003;6.064557e-003
1.733765e+003;2.821463e-003
1.735693e+003;6.382630e-003
1.737622e+003;9.030857e-003
1.739550e+003;8.010316e-003
1.741479e+003;8.364946e-003
1.743407e+003;8.635426e-003
1.745336e+003;8.445446e-003
1.747265e+003;7.453210e-003
1.749193e+003;5.874255e-003
1.751122e+003;5.170844e-003
1.753050e+003;6.989237e-003
1.754979e+003;7.680661e-003
1.756907e+003;7.338923e-003
1.758836e+003;7.591973e-003
1.760764e+003;6.605383e-003
1.762693e+003;6.478739e-003
1.764621e+003;7.471143e-003
1.766550e+003;6.585467e-003
1.768479e+003;5.786740e-003
1.770407e+003;4.419263e-003
1.772336e+003;2.819362e-003
1.774264e+003;4.848396e-003
1.776193e+003;6.732096e-003
1.778121e+003;6.899310e-003
1.780050e+003;6.621766e-003
1.781978e+003;6.884801e-003
1.783907e+003;7.115457e-003
1.785835e+003;8.046532e-003
1.787764e+003;9.431795e-003
1.789693e+003;9.616616e-003
1.791621e+003;9.744280e-003
1.793550e+003;1.244271e-002
1.795478e+003;1.562726e-002
1.797407e+003;1.630757e-002
1.799335e+003;1.574736e-002
1.801264e+003;1.515959e-002
1.803192e+003;1.457532e-002
1.805121e+003;1.303702e-002
1.807049e+003;1.118210e-002
1.808978e+003;9.117979e-003
1.810907e+003;7.441986e-003
1.812835e+003;6.582103e-003
1.814764e+003;5.970957e-003
1.816692e+003;5.572831e-003
1.818621e+003;5.625124e-003
1.820549e+003;5.325986e-003
1.822478e+003;4.758878e-003
1.824406e+003;3.893153e-003
1.826335e+003;4.113528e-003
1.828264e+003;3.940495e-003
1.830192e+003;3.580939e-003
1.832121e+003;4.388602e-003
1.834049e+003;4.887634e-003
1.835978e+003;4.801893e-003
1.837906e+003;4.512026e-003
1.839835e+003;4.288871e-003
1.841763e+003;3.208829e-003
1.843692e+003;1.506963e-003
1.845620e+003;2.306378e-003
1.847549e+003;3.533101e-003
1.849478e+003;3.706072e-003
1.851406e+003;3.545795e-003
1.853335e+003;3.201052e-003
1.855263e+003;3.183562e-003
1.857192e+003;3.292220e-003
1.859120e+003;3.190137e-003
1.861049e+003;3.025780e-003
1.862977e+003;2.929931e-003
1.864906e+003;2.695318e-003
1.866834e+003;1.742099e-003
1.868763e+003;9.273177e-004
1.870692e+003;1.666056e-003
1.872620e+003;2.427378e-003
1.874549e+003;2.492623e-003
1.876477e+003;2.481893e-003
1.878406e+003;2.467297e-003
1.880334e+003;2.459566e-003
1.882263e+003;2.188874e-003
1.884191e+003;2.252884e-003
1.886120e+003;2.490224e-003
1.888048e+003;2.376935e-003
1.889977e+003;2.218647e-003
1.891906e+003;2.492257e-003
1.893834e+003;2.537547e-003
1.895763e+003;2.589142e-003
1.897691e+003;2.663113e-003
1.899620e+003;2.713223e-003
1.901548e+003;2.775609e-003
1.903477e+003;2.722692e-003
1.905405e+003;2.351949e-003
1.907334e+003;2.168960e-003
1.909262e+003;1.979026e-003
1.911191e+003;2.100501e-003
1.913120e+003;2.415383e-003
1.915048e+003;2.318803e-003
1.916977e+003;1.290365e-003
1.918905e+003;1.137522e-003
1.920834e+003;1.702213e-003
1.922762e+003;1.515043e-003
1.924691e+003;1.572203e-003
1.926619e+003;1.817688e-003
1.928548e+003;1.740336e-003
1.930477e+003;1.500081e-003
1.932405e+003;1.297577e-003
1.934334e+003;1.252116e-003
1.936262e+003;1.340184e-003
1.938191e+003;1.091480e-003
1.940119e+003;6.670363e-004
1.942048e+003;6.372040e-004
1.943976e+003;1.020733e-003
1.945905e+003;1.107890e-003
1.947833e+003;9.857954e-004
1.949762e+003;9.572695e-004
1.951691e+003;1.009408e-003
1.953619e+003;8.523808e-004
1.955548e+003;7.256449e-004
1.957476e+003;9.417620e-004
1.959405e+003;9.443521e-004
1.961333e+003;9.462116e-004
1.963262e+003;1.018740e-003
1.965190e+003;1.064110e-003
1.967119e+003;8.364454e-004
1.969047e+003;7.954148e-004
1.970976e+003;9.367479e-004
1.972905e+003;9.982822e-004
1.974833e+003;1.075968e-003
1.976762e+003;1.092577e-003
1.978690e+003;9.720469e-004
1.980619e+003;8.108838e-004
1.982547e+003;6.197503e-004
1.984476e+003;6.984968e-004
1.986404e+003;7.903692e-004
1.988333e+003;1.026379e-003
1.990261e+003;1.102110e-003
1.992190e+003;8.233989e-004
1.994119e+003;8.994265e-004
1.996047e+003;1.058165e-003
1.997976e+003;9.752017e-004
1.999904e+003;8.999577e-004
2.001833e+003;1.065140e-003
2.003761e+003;1.239290e-003
2.005690e+003;1.031693e-003
2.007618e+003;8.724999e-004
2.009547e+003;1.029102e-003
2.011476e+003;1.201045e-003
2.013404e+003;1.165761e-003
2.015333e+003;1.213405e-003
2.017261e+003;1.424712e-003
2.019190e+003;1.464905e-003
2.021118e+003;1.421089e-003
2.023047e+003;1.265342e-003
2.024975e+003;1.259028e-003
2.026904e+003;1.619560e-003
2.028833e+003;1.701614e-003
2.030761e+003;1.515974e-003
2.032690e+003;1.391903e-003
2.034618e+003;1.491336e-003
2.036547e+003;1.594318e-003
2.038475e+003;1.641411e-003
2.040404e+003;1.604594e-003
2.042332e+003;1.708899e-003
2.044261e+003;1.816657e-003
2.046189e+003;1.697856e-003
2.048118e+003;1.715586e-003
2.050047e+003;1.956992e-003
2.051975e+003;2.027625e-003
2.053904e+003;1.955627e-003
2.055832e+003;1.762093e-003
2.057761e+003;1.564122e-003
2.059689e+003;1.582845e-003
2.061618e+003;1.611744e-003
2.063546e+003;1.531169e-003
2.065475e+003;1.493896e-003
2.067404e+003;1.498053e-003
2.069332e+003;1.559932e-003
2.071260e+003;1.770976e-003
2.073189e+003;1.768115e-003
2.075118e+003;1.703377e-003
2.077046e+003;1.910164e-003
2.078975e+003;2.124607e-003
2.080903e+003;2.129735e-003
2.082832e+003;2.252152e-003
2.084760e+003;2.321468e-003
2.086689e+003;2.278431e-003
2.088617e+003;2.512885e-003
2.090546e+003;2.578176e-003
2.092475e+003;2.470663e-003
2.094403e+003;2.365541e-003
2.096332e+003;2.197433e-003
2.098260e+003;2.104763e-003
2.100189e+003;2.140224e-003
2.102117e+003;2.240794e-003
2.104046e+003;2.373204e-003
2.105974e+003;2.307011e-003
2.107903e+003;2.433143e-003
2.109832e+003;2.559811e-003
2.111760e+003;2.402989e-003
2.113688e+003;2.094442e-003
2.115617e+003;2.221111e-003
2.117546e+003;2.404155e-003
2.119474e+003;2.494389e-003
2.121403e+003;2.798952e-003
2.123331e+003;2.955584e-003
2.125260e+003;3.184563e-003
2.127188e+003;3.485435e-003
2.129117e+003;3.733576e-003
2.131045e+003;3.919297e-003
2.132974e+003;4.002256e-003
2.134903e+003;4.232423e-003
2.136831e+003;4.149923e-003
2.138760e+003;3.919498e-003
2.140688e+003;3.892952e-003
2.142617e+003;4.238881e-003
2.144545e+003;4.149521e-003
2.146474e+003;3.862630e-003
2.148402e+003;3.835185e-003
2.150331e+003;3.785814e-003
2.152260e+003;3.735079e-003
2.154188e+003;3.979183e-003
2.156117e+003;4.183677e-003
2.158045e+003;4.403531e-003
2.159974e+003;4.407982e-003
2.161902e+003;4.457524e-003
2.163831e+003;4.718111e-003
2.165759e+003;4.506502e-003
2.167688e+003;4.148317e-003
2.169616e+003;4.117508e-003
2.171545e+003;4.472354e-003
2.173474e+003;4.941352e-003
2.175402e+003;5.045557e-003
2.177331e+003;4.904925e-003
2.179259e+003;4.675607e-003
2.181188e+003;4.569582e-003
2.183116e+003;4.664454e-003
2.185045e+003;4.747153e-003
2.186973e+003;4.761223e-003
2.188902e+003;4.449791e-003
2.190831e+003;4.136207e-003
2.192759e+003;4.477576e-003
2.194688e+003;4.719485e-003
2.196616e+003;4.496056e-003
2.198545e+003;4.118880e-003
2.200473e+003;4.180465e-003
2.202402e+003;4.376486e-003
2.204330e+003;4.485477e-003
2.206259e+003;4.320763e-003
2.208188e+003;4.130621e-003
2.210116e+003;4.161229e-003
2.212044e+003;4.250625e-003
2.213973e+003;4.400819e-003
2.215902e+003;4.442661e-003
2.217830e+003;4.372302e-003
2.219759e+003;4.373976e-003
2.221687e+003;4.399179e-003
2.223616e+003;4.355534e-003
2.225544e+003;4.364404e-003
2.227473e+003;4.464219e-003
2.229401e+003;4.560139e-003
2.231330e+003;4.748995e-003
2.233259e+003;4.609230e-003
2.235187e+003;4.487519e-003
2.237116e+003;4.490131e-003
2.239044e+003;4.159891e-003
2.240973e+003;3.960658e-003
2.242901e+003;4.287533e-003
2.244830e+003;4.536165e-003
2.246758e+003;4.452603e-003
2.248687e+003;4.238714e-003
2.250615e+003;4.407078e-003
2.252544e+003;4.700693e-003
2.254473e+003;5.043244e-003
2.256401e+003;5.403242e-003
2.258330e+003;5.245960e-003
2.260258e+003;4.768693e-003
2.262187e+003;4.747756e-003
2.264115e+003;4.710675e-003
2.266044e+003;4.478447e-003
2.267972e+003;4.293590e-003
2.269901e+003;4.615659e-003
2.271830e+003;4.847358e-003
2.273758e+003;4.438443e-003
2.275687e+003;4.291381e-003
2.277615e+003;4.274449e-003
2.279544e+003;3.961761e-003
2.281472e+003;3.855610e-003
2.283401e+003;3.941900e-003
2.285329e+003;4.050213e-003
2.287258e+003;4.259291e-003
2.289187e+003;4.198431e-003
2.291115e+003;4.237442e-003
2.293043e+003;4.234732e-003
2.294972e+003;3.977979e-003
2.296901e+003;3.670750e-003
2.298829e+003;3.766195e-003
2.300758e+003;3.975003e-003
2.302686e+003;4.035832e-003
2.304615e+003;4.009713e-003
2.306543e+003;4.110484e-003
2.308472e+003;4.215694e-003
2.310400e+003;3.872659e-003
2.312329e+003;3.638940e-003
2.314258e+003;3.669213e-003
2.316186e+003;3.559124e-003
2.318115e+003;3.431463e-003
2.320043e+003;3.877807e-003
2.321972e+003;4.228141e-003
2.323900e+003;4.271237e-003
2.325829e+003;4.212884e-003
2.327757e+003;3.886132e-003
2.329686e+003;3.617289e-003
2.331615e+003;3.774049e-003
2.333543e+003;4.080649e-003
2.335472e+003;4.195855e-003
2.337400e+003;4.347871e-003
2.339329e+003;4.634346e-003
2.341257e+003;4.863876e-003
2.343186e+003;4.790837e-003
2.345114e+003;4.628786e-003
2.347043e+003;4.883009e-003
2.348971e+003;5.403544e-003
2.350900e+003;5.648922e-003
2.352829e+003;5.496618e-003
2.354757e+003;5.113912e-003
2.356686e+003;4.973392e-003
2.358614e+003;5.380966e-003
2.360543e+003;5.824215e-003
2.362471e+003;5.575818e-003
2.364400e+003;5.519974e-003
2.366328e+003;5.768877e-003
2.368257e+003;5.890846e-003
2.370186e+003;5.882685e-003
2.372114e+003;5.966792e-003
2.374042e+003;6.132938e-003
2.375971e+003;5.986948e-003
2.377900e+003;5.889704e-003
2.379828e+003;6.278540e-003
2.381757e+003;6.408185e-003
2.383685e+003;6.312663e-003
2.385614e+003;6.269397e-003
2.387542e+003;6.404991e-003
2.389471e+003;6.492899e-003
2.391399e+003;6.515265e-003
2.393328e+003;6.530300e-003
2.395257e+003;6.444470e-003
2.397185e+003;6.420862e-003
2.399114e+003;6.546648e-003
2.401042e+003;6.743100e-003
2.402971e+003;6.778471e-003
2.404899e+003;6.606190e-003
2.406828e+003;6.543183e-003
2.408756e+003;6.752422e-003
2.410685e+003;6.915133e-003
2.412614e+003;6.920384e-003
2.414542e+003;6.949507e-003
2.416471e+003;7.127953e-003
2.418399e+003;7.052039e-003
2.420328e+003;6.940787e-003
2.422256e+003;7.194615e-003
2.424185e+003;7.385092e-003
2.426113e+003;7.389002e-003
2.428042e+003;7.484964e-003
2.429970e+003;7.498583e-003
2.431899e+003;7.575586e-003
2.433828e+003;7.580340e-003
2.435756e+003;7.356244e-003
2.437685e+003;7.043115e-003
2.439613e+003;6.667220e-003
2.441542e+003;6.687644e-003
2.443470e+003;7.021530e-003
2.445399e+003;6.910453e-003
2.447327e+003;6.501542e-003
2.449256e+003;6.269935e-003
2.451185e+003;6.177972e-003
2.453113e+003;6.263850e-003
2.455042e+003;6.401897e-003
2.456970e+003;6.570800e-003
2.458899e+003;6.827105e-003
2.460827e+003;6.527744e-003
2.462756e+003;6.218707e-003
2.464684e+003;6.286003e-003
2.466613e+003;6.356303e-003
2.468542e+003;6.382731e-003
2.470470e+003;6.531781e-003
2.472398e+003;6.791563e-003
2.474327e+003;6.970550e-003
2.476256e+003;7.132904e-003
2.478184e+003;7.319243e-003
2.480113e+003;7.555592e-003
2.482041e+003;8.005220e-003
2.483970e+003;8.490214e-003
2.485898e+003;8.710940e-003
2.487827e+003;9.021418e-003
2.489755e+003;9.608012e-003
2.491684e+003;9.998430e-003
2.493613e+003;1.026192e-002
2.495541e+003;1.079863e-002
2.497470e+003;1.130481e-002
2.499398e+003;1.170527e-002
2.501327e+003;1.205734e-002
2.503255e+003;1.251534e-002
2.505184e+003;1.330687e-002
2.507112e+003;1.426780e-002
2.509041e+003;1.508998e-002
2.510969e+003;1.559102e-002
2.512898e+003;1.582975e-002
2.514827e+003;1.603616e-002
2.516755e+003;1.635650e-002
2.518684e+003;1.681495e-002
2.520612e+003;1.718123e-002
2.522541e+003;1.730689e-002
2.524469e+003;1.741007e-002
2.526398e+003;1.730462e-002
2.528326e+003;1.701401e-002
2.530255e+003;1.662002e-002
2.532184e+003;1.622450e-002
2.534112e+003;1.575653e-002
2.536041e+003;1.503355e-002
2.537969e+003;1.438088e-002
2.539898e+003;1.423233e-002
2.541826e+003;1.451889e-002
2.543755e+003;1.441287e-002
2.545683e+003;1.398999e-002
2.547612e+003;1.378226e-002
2.549541e+003;1.384643e-002
2.551469e+003;1.407592e-002
2.553397e+003;1.430536e-002
2.555326e+003;1.450320e-002
2.557255e+003;1.470682e-002
2.559183e+003;1.480636e-002
2.561112e+003;1.476577e-002
2.563040e+003;1.483485e-002
2.564969e+003;1.536550e-002
2.566897e+003;1.583099e-002
2.568826e+003;1.613825e-002
2.570754e+003;1.644445e-002
2.572683e+003;1.712470e-002
2.574612e+003;1.809236e-002
2.576540e+003;1.902926e-002
2.578469e+003;1.974873e-002
2.580397e+003;1.997245e-002
2.582326e+003;2.004573e-002
2.584254e+003;1.985575e-002
2.586183e+003;1.899173e-002
2.588111e+003;1.797845e-002
2.590040e+003;1.746481e-002
2.591969e+003;1.712983e-002
2.593897e+003;1.653042e-002
2.595826e+003;1.633331e-002
2.597754e+003;1.635870e-002
2.599683e+003;1.631951e-002
2.601611e+003;1.656360e-002
2.603540e+003;1.678272e-002
2.605468e+003;1.691006e-002
2.607397e+003;1.723201e-002
2.609325e+003;1.771420e-002
2.611254e+003;1.820322e-002
2.613183e+003;1.844526e-002
2.615111e+003;1.854135e-002
2.617040e+003;1.845622e-002
2.618968e+003;1.820315e-002
2.620897e+003;1.797596e-002
2.622825e+003;1.789167e-002
2.624754e+003;1.765043e-002
2.626682e+003;1.731868e-002
2.628611e+003;1.717047e-002
2.630540e+003;1.680596e-002
2.632468e+003;1.634032e-002
2.634396e+003;1.617965e-002
2.636325e+003;1.609746e-002
2.638254e+003;1.612030e-002
2.640182e+003;1.635250e-002
2.642111e+003;1.670031e-002
2.644039e+003;1.733031e-002
2.645968e+003;1.783909e-002
2.647896e+003;1.795939e-002
2.649825e+003;1.805585e-002
2.651753e+003;1.838808e-002
2.653682e+003;1.871061e-002
2.655611e+003;1.895341e-002
2.657539e+003;1.951647e-002
2.659468e+003;1.991032e-002
2.661396e+003;1.986068e-002
2.663325e+003;1.982985e-002
2.665253e+003;1.973237e-002
2.667182e+003;1.957823e-002
2.669110e+003;1.957802e-002
2.671039e+003;1.971933e-002
2.672968e+003;1.992735e-002
2.674896e+003;2.025800e-002
2.676825e+003;2.057268e-002
2.678753e+003;2.067980e-002
2.680682e+003;2.045235e-002
2.682610e+003;2.007654e-002
2.684539e+003;2.009254e-002
2.686467e+003;2.031133e-002
2.688396e+003;2.042960e-002
2.690324e+003;2.040032e-002
2.692253e+003;2.041158e-002
2.694182e+003;2.038185e-002
2.696110e+003;2.026932e-002
2.698039e+003;2.046586e-002
2.699967e+003;2.090788e-002
2.701896e+003;2.115624e-002
2.703824e+003;2.169303e-002
2.705753e+003;2.241052e-002
2.707681e+003;2.316704e-002
2.709610e+003;2.419438e-002
2.711539e+003;2.531335e-002
2.713467e+003;2.650212e-002
2.715396e+003;2.790059e-002
2.717324e+003;2.979274e-002
2.719253e+003;3.180581e-002
2.721181e+003;3.303918e-002
2.723110e+003;3.347813e-002
2.725038e+003;3.334304e-002
2.726967e+003;3.248657e-002
2.728896e+003;3.105755e-002
2.730824e+003;2.977641e-002
2.732752e+003;2.838778e-002
2.734681e+003;2.720816e-002
2.736610e+003;2.638591e-002
2.738538e+003;2.534528e-002
2.740467e+003;2.438633e-002
2.742395e+003;2.378196e-002
2.744324e+003;2.303296e-002
2.746252e+003;2.237242e-002
2.748181e+003;2.217000e-002
2.750109e+003;2.224455e-002
2.752038e+003;2.209200e-002
2.753967e+003;2.169478e-002
2.755895e+003;2.214803e-002
2.757824e+003;2.297644e-002
2.759752e+003;2.346086e-002
2.761681e+003;2.382501e-002
2.763609e+003;2.411588e-002
2.765538e+003;2.442530e-002
2.767466e+003;2.487204e-002
2.769395e+003;2.550059e-002
2.771323e+003;2.600599e-002
2.773252e+003;2.617436e-002
2.775181e+003;2.654745e-002
2.777109e+003;2.747511e-002
2.779038e+003;2.869821e-002
2.780966e+003;2.979568e-002
2.782895e+003;3.105111e-002
2.784823e+003;3.262550e-002
2.786752e+003;3.433276e-002
2.788680e+003;3.583921e-002
2.790609e+003;3.748606e-002
2.792538e+003;3.947996e-002
2.794466e+003;4.115786e-002
2.796395e+003;4.232311e-002
2.798323e+003;4.373653e-002
2.800252e+003;4.529489e-002
2.802180e+003;4.708746e-002
2.804109e+003;4.948215e-002
2.806037e+003;5.187304e-002
2.807966e+003;5.402420e-002
2.809895e+003;5.589322e-002
2.811823e+003;5.789714e-002
2.813751e+003;5.989155e-002
2.815680e+003;6.188726e-002
2.817609e+003;6.415274e-002
2.819537e+003;6.699615e-002
2.821466e+003;7.028464e-002
2.823394e+003;7.408076e-002
2.825323e+003;7.887606e-002
2.827251e+003;8.534161e-002
2.829180e+003;9.348330e-002
2.831108e+003;1.026827e-001
2.833037e+003;1.120570e-001
2.834966e+003;1.198850e-001
2.836894e+003;1.240013e-001
2.838823e+003;1.242534e-001
2.840751e+003;1.218300e-001
2.842680e+003;1.177429e-001
2.844608e+003;1.132029e-001
2.846537e+003;1.088340e-001
2.848465e+003;1.050991e-001
2.850394e+003;1.025591e-001
2.852323e+003;1.013489e-001
2.854251e+003;1.008855e-001
2.856180e+003;1.010124e-001
2.858108e+003;1.031878e-001
2.860037e+003;1.078879e-001
2.861965e+003;1.149763e-001
2.863894e+003;1.228332e-001
2.865822e+003;1.294671e-001
2.867751e+003;1.340895e-001
2.869679e+003;1.363171e-001
2.871608e+003;1.373785e-001
2.873536e+003;1.381155e-001
2.875465e+003;1.382699e-001
2.877394e+003;1.374649e-001
2.879322e+003;1.361432e-001
2.881251e+003;1.345984e-001
2.883179e+003;1.333126e-001
2.885108e+003;1.330271e-001
2.887036e+003;1.341510e-001
2.888965e+003;1.360098e-001
2.890893e+003;1.380455e-001
2.892822e+003;1.410455e-001
2.894750e+003;1.451809e-001
2.896679e+003;1.496967e-001
2.898608e+003;1.547912e-001
2.900536e+003;1.604528e-001
2.902465e+003;1.660053e-001
2.904393e+003;1.713916e-001
2.906322e+003;1.764338e-001
2.908250e+003;1.810551e-001
2.910179e+003;1.850776e-001
2.912107e+003;1.889309e-001
2.914036e+003;1.917509e-001
2.915965e+003;1.925848e-001
2.917893e+003;1.918254e-001
2.919822e+003;1.896763e-001
2.921750e+003;1.858838e-001
2.923679e+003;1.802013e-001
2.925607e+003;1.733351e-001
2.927536e+003;1.664901e-001
2.929464e+003;1.589842e-001
2.931393e+003;1.500254e-001
2.933322e+003;1.415177e-001
2.935250e+003;1.343786e-001
2.937178e+003;1.282498e-001
2.939107e+003;1.239386e-001
2.941036e+003;1.231593e-001
2.942964e+003;1.257487e-001
2.944893e+003;1.313694e-001
2.946821e+003;1.385845e-001
2.948750e+003;1.448837e-001
2.950678e+003;1.494045e-001
2.952607e+003;1.512933e-001
2.954535e+003;1.508600e-001
2.956464e+003;1.489155e-001
2.958393e+003;1.450623e-001
2.960321e+003;1.397321e-001
2.962250e+003;1.334876e-001
2.964178e+003;1.263838e-001
2.966107e+003;1.191192e-001
2.968035e+003;1.117613e-001
2.969964e+003;1.045303e-001
2.971892e+003;9.814921e-002
2.973821e+003;9.237802e-002
2.975750e+003;8.677949e-002
2.977678e+003;8.142995e-002
2.979607e+003;7.666590e-002
2.981535e+003;7.290267e-002
2.983464e+003;6.958904e-002
2.985392e+003;6.616879e-002
2.987321e+003;6.288259e-002
2.989249e+003;5.978720e-002
2.991178e+003;5.666041e-002
2.993106e+003;5.395253e-002
2.995035e+003;5.142052e-002
2.996964e+003;4.908126e-002
2.998892e+003;4.688178e-002
3.000821e+003;4.446127e-002
3.002749e+003;4.192027e-002
3.004678e+003;3.954010e-002
3.006606e+003;3.706686e-002
3.008535e+003;3.492858e-002
3.010463e+003;3.316916e-002
3.012392e+003;3.146953e-002
3.014321e+003;2.977066e-002
3.016249e+003;2.835927e-002
3.018177e+003;2.702886e-002
3.020106e+003;2.548408e-002
3.022035e+003;2.403665e-002
3.023963e+003;2.273905e-002
3.025892e+003;2.179792e-002
3.027820e+003;2.087993e-002
3.029749e+003;1.967169e-002
3.031677e+003;1.866543e-002
3.033606e+003;1.798950e-002
3.035534e+003;1.750945e-002
3.037463e+003;1.684723e-002
3.039392e+003;1.637298e-002
3.041320e+003;1.614526e-002
3.043249e+003;1.558707e-002
3.045177e+003;1.490597e-002
3.047106e+003;1.451845e-002
3.049034e+003;1.414794e-002
3.050963e+003;1.368128e-002
3.052891e+003;1.347394e-002
3.054820e+003;1.349711e-002
3.056749e+003;1.328651e-002
3.058677e+003;1.280647e-002
3.060606e+003;1.247367e-002
3.062534e+003;1.227761e-002
3.064463e+003;1.206453e-002
3.066391e+003;1.165493e-002
3.068320e+003;1.092331e-002
3.070248e+003;1.058971e-002
3.072177e+003;1.067643e-002
3.074105e+003;1.083668e-002
3.076034e+003;1.065337e-002
3.077963e+003;1.043030e-002
3.079891e+003;1.028693e-002
3.081820e+003;1.012821e-002
3.083748e+003;9.691285e-003
3.085677e+003;9.583961e-003
3.087605e+003;9.765696e-003
3.089534e+003;9.528616e-003
3.091462e+003;9.521977e-003
3.093391e+003;9.962390e-003
3.095320e+003;1.003549e-002
3.097248e+003;9.982529e-003
3.099177e+003;9.626712e-003
3.101105e+003;9.282322e-003
3.103034e+003;9.370747e-003
3.104962e+003;9.566076e-003
3.106891e+003;9.493765e-003
3.108819e+003;9.488991e-003
3.110748e+003;9.573427e-003
3.112677e+003;9.596698e-003
3.114605e+003;9.402099e-003
3.116533e+003;9.011844e-003
3.118462e+003;8.607474e-003
3.120391e+003;9.017122e-003
3.122319e+003;9.384866e-003
3.124248e+003;9.372000e-003
3.126176e+003;9.529835e-003
3.128105e+003;9.616651e-003
3.130033e+003;1.002823e-002
3.131962e+003;1.064746e-002
3.133890e+003;1.050287e-002
3.135819e+003;1.008887e-002
3.137748e+003;9.658862e-003
3.139676e+003;9.644531e-003
3.141605e+003;1.000433e-002
3.143533e+003;1.009541e-002
3.145462e+003;1.002973e-002
3.147390e+003;9.944083e-003
3.149319e+003;1.002152e-002
3.151247e+003;9.858693e-003
3.153176e+003;9.700874e-003
3.155104e+003;9.941541e-003
3.157033e+003;9.846254e-003
3.158962e+003;1.010762e-002
3.160890e+003;1.031261e-002
3.162819e+003;9.940760e-003
3.164747e+003;9.709480e-003
3.166676e+003;9.229993e-003
3.168604e+003;9.208671e-003
3.170533e+003;9.941777e-003
3.172461e+003;9.776439e-003
3.174390e+003;9.128739e-003
3.176319e+003;9.304393e-003
3.178247e+003;9.884589e-003
3.180176e+003;1.005072e-002
3.182104e+003;1.001430e-002
3.184033e+003;9.566991e-003
3.185961e+003;9.316376e-003
3.187890e+003;9.421738e-003
3.189818e+003;9.708802e-003
3.191747e+003;1.004017e-002
3.193676e+003;1.013920e-002
3.195604e+003;9.590499e-003
3.197532e+003;9.459969e-003
3.199461e+003;9.807244e-003
3.201390e+003;9.918488e-003
3.203318e+003;9.686305e-003
3.205247e+003;9.273013e-003
3.207175e+003;8.874387e-003
3.209104e+003;8.615484e-003
3.211032e+003;8.670917e-003
3.212961e+003;8.846825e-003
3.214889e+003;8.933471e-003
3.216818e+003;8.772808e-003
3.218747e+003;8.471563e-003
3.220675e+003;8.133253e-003
3.222604e+003;7.874692e-003
3.224532e+003;7.569078e-003
3.226461e+003;7.525485e-003
3.228389e+003;7.314256e-003
3.230318e+003;6.797419e-003
3.232246e+003;6.831784e-003
3.234175e+003;6.530300e-003
3.236104e+003;6.316159e-003
3.238032e+003;6.567268e-003
3.239961e+003;6.651474e-003
3.241889e+003;6.277061e-003
3.243818e+003;5.607938e-003
3.245746e+003;5.392372e-003
3.247675e+003;5.750477e-003
3.249603e+003;5.687560e-003
3.251532e+003;5.276513e-003
3.253460e+003;5.374726e-003
3.255389e+003;5.225302e-003
3.257318e+003;5.001814e-003
3.259246e+003;5.063961e-003
3.261175e+003;4.980832e-003
3.263103e+003;5.291975e-003
3.265032e+003;5.426727e-003
3.266960e+003;4.647742e-003
3.268889e+003;4.178558e-003
3.270817e+003;4.718044e-003
3.272746e+003;5.054574e-003
3.274675e+003;4.719149e-003
3.276603e+003;4.694195e-003
3.278531e+003;4.911091e-003
3.280460e+003;4.781926e-003
3.282389e+003;4.372336e-003
3.284317e+003;4.030280e-003
3.286246e+003;4.249688e-003
3.288174e+003;4.849335e-003
3.290103e+003;5.087159e-003
3.292031e+003;5.033523e-003
3.293960e+003;4.910186e-003
3.295888e+003;4.611507e-003
3.297817e+003;4.593055e-003
3.299746e+003;4.732782e-003
3.301674e+003;4.789095e-003
3.303603e+003;4.671554e-003
3.305531e+003;4.411095e-003
3.307460e+003;4.181101e-003
3.309388e+003;4.524882e-003
3.311317e+003;4.721260e-003
3.313245e+003;4.260696e-003
3.315174e+003;4.348808e-003
3.317103e+003;4.554079e-003
3.319031e+003;4.276055e-003
3.320960e+003;4.193814e-003
3.322888e+003;4.359049e-003
3.324817e+003;4.016770e-003
3.326745e+003;4.023224e-003
3.328674e+003;4.787922e-003
3.330602e+003;4.801357e-003
3.332531e+003;4.238881e-003
3.334459e+003;4.237810e-003
3.336388e+003;4.446477e-003
3.338317e+003;4.476907e-003
3.340245e+003;4.655545e-003
3.342174e+003;4.726083e-003
3.344102e+003;4.678353e-003
3.346031e+003;4.898290e-003
3.347959e+003;5.088734e-003
3.349888e+003;5.482223e-003
3.351816e+003;5.126619e-003
3.353745e+003;4.734658e-003
3.355674e+003;4.780184e-003
3.357602e+003;4.948323e-003
3.359531e+003;4.689640e-003
3.361459e+003;4.528632e-003
3.363388e+003;4.916486e-003
3.365316e+003;4.903551e-003
3.367245e+003;4.902445e-003
3.369173e+003;5.075090e-003
3.371102e+003;4.812011e-003
3.373031e+003;4.600188e-003
3.374959e+003;4.876744e-003
3.376887e+003;4.673932e-003
3.378816e+003;4.298241e-003
3.380745e+003;4.194282e-003
3.382673e+003;4.073692e-003
3.384602e+003;3.695077e-003
3.386530e+003;3.818571e-003
3.388459e+003;4.194316e-003
3.390387e+003;4.359852e-003
3.392316e+003;4.820788e-003
3.394244e+003;5.105766e-003
3.396173e+003;4.840958e-003
3.398102e+003;4.736467e-003
3.400030e+003;4.304231e-003
3.401959e+003;3.775119e-003
3.403887e+003;3.585617e-003
3.405816e+003;3.709648e-003
3.407744e+003;4.098710e-003
3.409673e+003;4.249688e-003
3.411601e+003;4.196724e-003
3.413530e+003;4.190268e-003
3.415458e+003;4.169526e-003
3.417387e+003;4.169693e-003
3.419316e+003;4.188494e-003
3.421244e+003;4.061584e-003
3.423173e+003;4.374879e-003
3.425101e+003;4.267389e-003
3.427030e+003;3.837124e-003
3.428958e+003;3.685453e-003
3.430887e+003;3.234132e-003
3.432815e+003;2.987778e-003
3.434744e+003;3.324606e-003
3.436673e+003;3.429392e-003
3.438601e+003;3.264277e-003
3.440530e+003;2.937904e-003
3.442458e+003;2.910083e-003
3.444387e+003;3.183361e-003
3.446315e+003;2.735129e-003
3.448244e+003;2.467797e-003
3.450172e+003;2.582509e-003
3.452101e+003;2.567510e-003
3.454030e+003;2.274734e-003
3.455958e+003;2.091712e-003
3.457886e+003;2.191339e-003
3.459815e+003;2.294186e-003
3.461744e+003;2.194169e-003
3.463672e+003;2.194802e-003
3.465601e+003;2.037479e-003
3.467529e+003;2.017406e-003
3.469458e+003;1.931697e-003
3.471386e+003;1.822380e-003
3.473315e+003;1.717116e-003
3.475243e+003;1.696059e-003
3.477172e+003;1.754807e-003
3.479101e+003;1.280695e-003
3.481029e+003;9.070300e-004
3.482958e+003;7.730089e-004
3.484886e+003;8.178550e-004
3.486815e+003;1.122207e-003
3.488743e+003;1.227859e-003
3.490672e+003;1.025150e-003
3.492600e+003;8.550699e-004
3.494529e+003;1.016648e-003
3.496458e+003;1.160644e-003
3.498386e+003;1.399714e-003
3.500315e+003;1.283785e-003
3.502243e+003;7.770252e-004
3.504172e+003;8.344204e-004
3.506100e+003;1.015751e-003
3.508029e+003;5.774461e-004
3.509957e+003;5.381319e-004
3.511886e+003;7.720463e-004
3.513814e+003;5.212129e-004
3.515743e+003;1.363680e-004
3.517672e+003;5.061522e-004
3.519600e+003;1.119982e-003
3.521529e+003;6.070089e-004
3.523457e+003;-5.576101e-005
3.525386e+003;-9.780067e-005
3.527314e+003;-2.242595e-004
3.529243e+003;-2.245245e-004
3.531171e+003;-1.439104e-004
3.533100e+003;-2.053825e-004
3.535029e+003;-5.116856e-004
3.536957e+003;-6.187679e-004
3.538885e+003;-4.836863e-004
3.540814e+003;-2.249550e-004
3.542743e+003;-1.763036e-004
3.544671e+003;-7.875247e-005
3.546600e+003;4.572521e-006
3.548528e+003;1.243698e-004
3.550457e+003;2.982065e-007
3.552385e+003;-1.364577e-004
3.554314e+003;-1.715342e-004
3.556242e+003;-5.422974e-004
3.558171e+003;-7.773243e-004
3.560100e+003;-5.132742e-004
3.562028e+003;-1.931616e-004
3.563957e+003;-9.662725e-004
3.565885e+003;-2.730852e-003
3.567814e+003;-2.642666e-003
3.569742e+003;-1.179724e-003
3.571671e+003;-5.245594e-004
3.573599e+003;-6.740526e-004
3.575528e+003;-5.223090e-004
3.577457e+003;-4.466239e-005
3.579385e+003;-5.008634e-004
3.581314e+003;-1.022439e-003
3.583242e+003;-1.011265e-003
3.585171e+003;-1.769822e-003
3.587099e+003;-2.861912e-003
3.589028e+003;-2.345146e-003
3.590956e+003;-1.441355e-003
3.592885e+003;-1.689659e-003
3.594813e+003;-1.868578e-003
3.596742e+003;-1.498549e-003
3.598671e+003;-1.242140e-003
3.600599e+003;-1.152726e-003
3.602528e+003;-9.451464e-004
3.604456e+003;-1.235037e-003
3.606385e+003;-2.358823e-003
3.608313e+003;-3.289878e-003
3.610242e+003;-2.832089e-003
3.612170e+003;-2.629855e-003
3.614099e+003;-2.557395e-003
3.616028e+003;-2.584832e-003
3.617956e+003;-3.342391e-003
3.619885e+003;-3.015473e-003
3.621813e+003;-1.656554e-003
3.623742e+003;-1.572937e-003
3.625670e+003;-2.998593e-003
3.627599e+003;-6.234760e-003
3.629527e+003;-5.800403e-003
3.631456e+003;-2.243697e-003
3.633385e+003;-1.400205e-003
3.635313e+003;-1.678371e-003
3.637241e+003;-1.638498e-003
3.639170e+003;-1.740188e-003
3.641099e+003;-2.062262e-003
3.643027e+003;-2.003856e-003
3.644956e+003;-2.589674e-003
3.646884e+003;-4.908302e-003
3.648813e+003;-6.566575e-003
3.650741e+003;-5.340018e-003
3.652670e+003;-2.859509e-003
3.654598e+003;-3.341174e-003
3.656527e+003;-3.743342e-003
3.658456e+003;-1.972225e-003
3.660384e+003;-1.057807e-003
3.662313e+003;-1.217723e-003
3.664241e+003;-9.645203e-004
3.666170e+003;-1.421177e-003
3.668098e+003;-4.152193e-003
3.670027e+003;-6.167374e-003
3.671955e+003;-4.963568e-003
3.673884e+003;-6.384260e-003
3.675813e+003;-6.602507e-003
3.677741e+003;-2.779120e-003
3.679669e+003;-1.299856e-003
3.681598e+003;-1.055394e-003
3.683527e+003;-1.050205e-003
3.685455e+003;-2.363535e-003
3.687384e+003;-5.611486e-003
3.689312e+003;-5.522804e-003
3.691241e+003;-2.840746e-003
3.693169e+003;-9.895134e-004
3.695098e+003;-4.409227e-004
3.697026e+003;-4.618086e-004
3.698955e+003;-1.079093e-003
3.700884e+003;-2.014311e-003
3.702812e+003;-1.413184e-003
3.704741e+003;-5.065559e-004
3.706669e+003;-8.744210e-004
3.708598e+003;-2.172754e-003
3.710526e+003;-3.523850e-003
3.712455e+003;-3.005338e-003
3.714383e+003;-1.055493e-003
3.716312e+003;-5.718482e-004
3.718240e+003;-9.194234e-004
3.720169e+003;-1.465165e-003
3.722098e+003;-1.545435e-003
3.724026e+003;-1.612816e-003
3.725955e+003;-2.110736e-003
3.727883e+003;-1.489106e-003
3.729812e+003;-2.274319e-003
3.731740e+003;-4.333151e-003
3.733669e+003;-4.977752e-003
3.735597e+003;-5.446440e-003
3.737526e+003;-3.507417e-003
3.739455e+003;-1.721376e-003
3.741383e+003;-3.158125e-003
3.743312e+003;-8.480061e-003
3.745240e+003;-7.761298e-003
3.747169e+003;-5.151686e-003
3.749097e+003;-7.802045e-003
3.751026e+003;-7.748832e-003
3.752954e+003;-4.132797e-003
3.754883e+003;-1.218351e-003
3.756812e+003;-1.372329e-003
3.758740e+003;-1.261303e-003
3.760668e+003;-4.920267e-004
3.762597e+003;1.697126e-004
3.764526e+003;-7.145769e-004
3.766454e+003;-7.733884e-004
3.768383e+003;-1.035595e-003
3.770311e+003;-8.508103e-004
3.772240e+003;-8.703440e-005
3.774168e+003;1.729631e-005
3.776097e+003;-6.190657e-004
3.778025e+003;-9.414435e-004
3.779954e+003;-5.007641e-004
3.781883e+003;3.256972e-004
3.783811e+003;4.174244e-004
3.785740e+003;5.986475e-004
3.787668e+003;5.427764e-004
3.789597e+003;3.599848e-004
3.791525e+003;1.288111e-004
3.793454e+003;-1.077717e-004
3.795382e+003;-1.078068e-003
3.797311e+003;-1.617636e-003
3.799240e+003;-3.797146e-003
3.801168e+003;-5.410740e-003
3.803097e+003;-2.414611e-003
3.805025e+003;-2.053227e-003
3.806954e+003;-2.733980e-003
3.808882e+003;-2.943955e-004
3.810811e+003;9.232667e-004
3.812739e+003;1.003083e-004
3.814668e+003;-3.396113e-003
3.816596e+003;-3.736870e-003
3.818525e+003;-2.299138e-003
3.820454e+003;-3.851338e-003
3.822382e+003;-2.105427e-003
3.824311e+003;2.156236e-004
3.826239e+003;1.946730e-004
3.828168e+003;7.583378e-004
3.830096e+003;4.406743e-004
3.832025e+003;-6.601576e-004
3.833953e+003;-1.764476e-003
3.835882e+003;-3.549321e-003
3.837811e+003;-4.822295e-003
3.839739e+003;-3.127697e-003
3.841667e+003;-1.603309e-003
3.843596e+003;-1.019496e-003
3.845525e+003;1.683204e-004
3.847453e+003;6.754654e-004
3.849382e+003;-1.727515e-003
3.851310e+003;-7.074890e-003
3.853239e+003;-1.113854e-002
3.855167e+003;-6.693938e-003
3.857096e+003;-9.473616e-004
3.859024e+003;1.588736e-004
3.860953e+003;-6.745819e-004
3.862882e+003;-1.358787e-003
3.864810e+003;-1.605422e-003
3.866739e+003;-1.656092e-003
3.868667e+003;-3.215028e-003
3.870596e+003;-2.697200e-003
3.872524e+003;-1.219640e-003
3.874453e+003;-7.473576e-004
3.876381e+003;4.445881e-004
3.878310e+003;1.842975e-004
3.880239e+003;-7.116328e-004
3.882167e+003;-5.842570e-004
3.884096e+003;-1.875110e-003
3.886024e+003;-1.534606e-003
3.887953e+003;8.394665e-004
3.889881e+003;7.754057e-005
3.891810e+003;-2.283660e-004
3.893738e+003;1.058596e-003
3.895667e+003;1.169116e-003
3.897595e+003;-2.821772e-004
3.899524e+003;-2.051479e-003
3.901453e+003;-2.325406e-003
3.903381e+003;-1.608822e-003
3.905310e+003;-1.737202e-004
3.907238e+003;1.084671e-003
3.909167e+003;1.766983e-003
3.911095e+003;1.778495e-003
3.913024e+003;1.367704e-003
3.914952e+003;8.231665e-004
3.916881e+003;7.739715e-004
3.918810e+003;1.306350e-003
3.920738e+003;1.632863e-003
3.922667e+003;1.771674e-003
3.924595e+003;1.740203e-003
3.926524e+003;2.226873e-003
3.928452e+003;2.337857e-003
3.930381e+003;1.885371e-003
3.932309e+003;1.410219e-003
3.934238e+003;1.633528e-003
3.936167e+003;1.942014e-003
3.938095e+003;1.999430e-003
3.940023e+003;1.560631e-003
3.941952e+003;1.273450e-003
3.943881e+003;1.676201e-003
3.945809e+003;1.825907e-003
3.947738e+003;1.549291e-003
3.949666e+003;1.653484e-003
3.951595e+003;1.732651e-003
3.953523e+003;1.957591e-003
3.955452e+003;2.204560e-003
3.957380e+003;2.344320e-003
3.959309e+003;2.152910e-003
3.961238e+003;1.802683e-003
3.963166e+003;1.855754e-003
3.965095e+003;2.312940e-003
3.967023e+003;2.825965e-003
3.968952e+003;2.773475e-003
3.970880e+003;2.378568e-003
3.972809e+003;2.153410e-003
3.974737e+003;2.078028e-003
3.976666e+003;1.984518e-003
3.978594e+003;1.978926e-003
3.980523e+003;2.210754e-003
3.982452e+003;2.475595e-003
3.984380e+003;2.645477e-003
3.986309e+003;2.981773e-003
3.988237e+003;3.034589e-003
3.990166e+003;3.302403e-003
3.992094e+003;3.523314e-003
3.994023e+003;3.066421e-003
3.995951e+003;3.112873e-003
3.997880e+003;3.208462e-003
3.999809e+003;3.433800e-003
4.001737e+003;0.000000e+000
