3.992094e+002;0.000000e+000
4.011380e+002;0.000000e+000
4.030665e+002;0.000000e+000
4.049951e+002;0.000000e+000
4.069236e+002;0.000000e+000
4.088522e+002;0.000000e+000
4.107807e+002;0.000000e+000
4.127093e+002;0.000000e+000
4.146378e+002;0.000000e+000
4.165664e+002;0.000000e+000
4.184949e+002;0.000000e+000
4.204235e+002;0.000000e+000
4.223520e+002;0.000000e+000
4.242806e+002;0.000000e+000
4.262091e+002;0.000000e+000
4.281377e+002;0.000000e+000
4.300662e+002;0.000000e+000
4.319948e+002;0.000000e+000
4.339233e+002;0.000000e+000
4.358519e+002;0.000000e+000
4.377804e+002;0.000000e+000
4.397090e+002;0.000000e+000
4.416375e+002;0.000000e+000
4.435660e+002;0.000000e+000
4.454946e+002;0.000000e+000
4.474232e+002;0.000000e+000
4.493517e+002;0.000000e+000
4.512802e+002;0.000000e+000
4.532088e+002;0.000000e+000
4.551373e+002;0.000000e+000
4.570659e+002;0.000000e+000
4.589944e+002;0.000000e+000
4.609230e+002;0.000000e+000
4.628515e+002;0.000000e+000
4.647801e+002;0.000000e+000
4.667086e+002;0.000000e+000
4.686372e+002;0.000000e+000
4.705657e+002;0.000000e+000
4.724943e+002;0.000000e+000
4.744228e+002;0.000000e+000
4.763513e+002;0.000000e+000
4.782799e+002;0.000000e+000
4.802085e+002;0.000000e+000
4.821370e+002;0.000000e+000
4.840656e+002;0.000000e+000
4.859941e+002;0.000000e+000
4.879226e+002;0.000000e+000
4.898512e+002;0.000000e+000
4.917798e+002;0.000000e+000
4.937083e+002;0.000000e+000
4.956368e+002;0.000000e+000
4.975654e+002;0.000000e+000
4.994939e+002;0.000000e+000
5.014225e+002;0.000000e+000
5.033510e+002;0.000000e+000
5.052796e+002;0.000000e+000
5.072081e+002;0.000000e+000
5.091367e+002;0.000000e+000
5.110652e+002;0.000000e+000
5.129938e+002;0.000000e+000
5.149223e+002;0.000000e+000
5.168509e+002;0.000000e+000
5.187794e+002;0.000000e+000
5.207079e+002;0.000000e+000
5.226365e+002;0.000000e+000
5.245651e+002;0.000000e+000
5.264936e+002;0.000000e+000
5.284222e+002;0.000000e+000
5.303507e+002;0.000000e+000
5.322792e+002;0.000000e+000
5.342078e+002;0.000000e+000
5.361364e+002;0.000000e+000
5.380649e+002;0.000000e+000
5.399935e+002;0.000000e+000
5.419220e+002;0.000000e+000
5.438505e+002;0.000000e+000
5.457791e+002;0.000000e+000
5.477076e+002;0.000000e+000
5.496362e+002;0.000000e+000
5.515648e+002;0.000000e+000
5.534933e+002;0.000000e+000
5.554218e+002;0.000000e+000
5.573504e+002;0.000000e+000
5.592789e+002;0.000000e+000
5.612075e+002;0.000000e+000
5.631360e+002;0.000000e+000
5.650646e+002;0.000000e+000
5.669931e+002;0.000000e+000
5.689217e+002;0.000000e+000
5.708502e+002;0.000000e+000
5.727787e+002;0.000000e+000
5.747073e+002;0.000000e+000
5.766359e+002;0.000000e+000
5.785644e+002;0.000000e+000
5.804930e+002;0.000000e+000
5.824215e+002;0.000000e+000
5.843500e+002;0.000000e+000
5.862786e+002;0.000000e+000
5.882072e+002;0.000000e+000
5.901357e+002;0.000000e+000
5.920643e+002;0.000000e+000
5.939928e+002;0.000000e+000
5.959213e+002;0.000000e+000
5.978499e+002;0.000000e+000
5.997784e+002;3.139241e-002
6.017070e+002;3.238107e-002
6.036355e+002;3.135961e-002
6.055641e+002;3.202976e-002
6.074926e+002;3.305284e-002
6.094211e+002;3.057393e-002
6.113497e+002;3.169922e-002
6.132783e+002;3.565714e-002
6.152068e+002;3.647044e-002
6.171354e+002;3.484258e-002
6.190639e+002;3.836028e-002
6.209924e+002;3.748921e-002
6.229210e+002;3.673911e-002
6.248495e+002;4.070763e-002
6.267781e+002;4.187028e-002
6.287067e+002;3.609615e-002
6.306352e+002;3.244216e-002
6.325637e+002;2.889517e-002
6.344923e+002;2.744048e-002
6.364208e+002;3.002169e-002
6.383494e+002;3.248254e-002
6.402780e+002;3.328623e-002
6.422065e+002;3.439975e-002
6.441350e+002;3.559189e-002
6.460636e+002;3.901936e-002
6.479921e+002;3.786051e-002
6.499207e+002;3.763819e-002
6.518492e+002;3.888432e-002
6.537778e+002;3.832108e-002
6.557063e+002;3.660470e-002
6.576349e+002;3.679764e-002
6.595634e+002;3.808055e-002
6.614919e+002;3.780372e-002
6.634205e+002;3.688088e-002
6.653491e+002;3.598613e-002
6.672776e+002;3.258892e-002
6.692062e+002;3.472466e-002
6.711347e+002;3.690905e-002
6.730632e+002;3.616280e-002
6.749918e+002;3.629570e-002
6.769203e+002;3.570339e-002
6.788489e+002;3.451507e-002
6.807775e+002;3.506265e-002
6.827060e+002;3.558139e-002
6.846345e+002;3.563480e-002
6.865631e+002;3.527355e-002
6.884916e+002;3.498507e-002
6.904202e+002;3.538411e-002
6.923488e+002;3.644821e-002
6.942773e+002;3.754061e-002
6.962058e+002;3.857583e-002
6.981344e+002;3.893730e-002
7.000629e+002;3.928344e-002
7.019915e+002;3.877018e-002
7.039200e+002;3.941334e-002
7.058486e+002;4.189203e-002
7.077771e+002;4.582910e-002
7.097057e+002;5.433083e-002
7.116342e+002;6.713605e-002
7.135627e+002;7.187765e-002
7.154913e+002;6.401580e-002
7.174199e+002;5.344512e-002
7.193484e+002;4.772214e-002
7.212770e+002;4.399825e-002
7.232055e+002;4.151099e-002
7.251340e+002;4.022893e-002
7.270626e+002;3.999442e-002
7.289911e+002;3.922896e-002
7.309197e+002;3.893679e-002
7.328483e+002;3.858868e-002
7.347768e+002;3.767791e-002
7.367053e+002;3.764358e-002
7.386339e+002;3.832857e-002
7.405624e+002;3.865206e-002
7.424910e+002;3.921594e-002
7.444196e+002;3.924155e-002
7.463481e+002;3.936836e-002
7.482766e+002;3.982076e-002
7.502052e+002;4.087891e-002
7.521337e+002;4.200764e-002
7.540623e+002;4.292686e-002
7.559908e+002;4.300151e-002
7.579194e+002;4.264995e-002
7.598479e+002;4.262422e-002
7.617765e+002;4.249729e-002
7.637050e+002;4.271992e-002
7.656335e+002;4.316144e-002
7.675621e+002;4.261851e-002
7.694907e+002;4.232150e-002
7.714192e+002;4.177669e-002
7.733478e+002;4.158504e-002
7.752763e+002;4.129051e-002
7.772048e+002;4.171217e-002
7.791334e+002;4.227446e-002
7.810620e+002;4.193746e-002
7.829905e+002;4.300678e-002
7.849191e+002;4.493441e-002
7.868476e+002;4.636991e-002
7.887761e+002;4.745576e-002
7.907047e+002;4.855645e-002
7.926332e+002;5.000407e-002
7.945618e+002;5.183974e-002
7.964903e+002;5.430995e-002
7.984189e+002;5.723722e-002
8.003474e+002;5.930410e-002
8.022759e+002;6.079998e-002
8.042045e+002;6.317212e-002
8.061331e+002;6.638211e-002
8.080616e+002;6.912480e-002
8.099902e+002;6.972644e-002
8.119187e+002;6.822669e-002
8.138472e+002;6.470652e-002
8.157758e+002;6.114016e-002
8.177043e+002;5.952757e-002
8.196329e+002;5.830431e-002
8.215615e+002;5.696683e-002
8.234900e+002;5.539814e-002
8.254185e+002;5.404900e-002
8.273471e+002;5.377759e-002
8.292756e+002;5.372160e-002
8.312042e+002;5.423062e-002
8.331328e+002;5.504584e-002
8.350613e+002;5.664969e-002
8.369898e+002;6.042815e-002
8.389184e+002;6.737484e-002
8.408469e+002;7.359607e-002
8.427755e+002;7.366728e-002
8.447040e+002;7.001863e-002
8.466326e+002;6.847706e-002
8.485611e+002;6.588542e-002
8.504897e+002;6.080379e-002
8.524182e+002;5.736573e-002
8.543467e+002;5.599159e-002
8.562753e+002;5.555668e-002
8.582039e+002;5.559091e-002
8.601324e+002;5.661209e-002
8.620610e+002;5.924091e-002
8.639895e+002;6.275225e-002
8.659180e+002;6.803660e-002
8.678466e+002;7.659337e-002
8.697751e+002;8.918904e-002
8.717037e+002;1.052345e-001
8.736323e+002;1.206870e-001
8.755608e+002;1.278861e-001
8.774893e+002;1.199485e-001
8.794179e+002;1.010889e-001
8.813464e+002;8.414139e-002
8.832750e+002;7.179751e-002
8.852036e+002;6.055715e-002
8.871321e+002;5.253113e-002
8.890606e+002;4.927607e-002
8.909892e+002;4.906494e-002
8.929177e+002;5.097667e-002
8.948463e+002;5.477561e-002
8.967748e+002;5.921717e-002
8.987034e+002;6.212429e-002
9.006319e+002;6.186674e-002
9.025605e+002;5.809034e-002
9.044890e+002;5.310765e-002
9.064175e+002;4.932655e-002
9.083461e+002;4.681605e-002
9.102747e+002;4.501592e-002
9.122032e+002;4.418188e-002
9.141318e+002;4.351529e-002
9.160603e+002;4.310092e-002
9.179888e+002;4.303104e-002
9.199174e+002;4.290096e-002
9.218459e+002;4.236515e-002
9.237745e+002;4.206911e-002
9.257031e+002;4.248618e-002
9.276316e+002;4.289087e-002
9.295601e+002;4.282178e-002
9.314887e+002;4.313374e-002
9.334172e+002;4.413090e-002
9.353458e+002;4.521064e-002
9.372744e+002;4.645254e-002
9.392029e+002;4.759911e-002
9.411314e+002;4.829326e-002
9.430600e+002;4.822495e-002
9.449885e+002;4.754133e-002
9.469171e+002;4.743096e-002
9.488456e+002;4.794535e-002
9.507742e+002;4.845275e-002
9.527027e+002;4.881379e-002
9.546313e+002;4.915669e-002
9.565598e+002;4.954190e-002
9.584883e+002;5.052999e-002
9.604169e+002;5.217517e-002
9.623455e+002;5.461488e-002
9.642740e+002;5.828544e-002
9.662026e+002;6.317780e-002
9.681311e+002;7.009786e-002
9.700596e+002;7.888857e-002
9.719882e+002;8.626026e-002
9.739167e+002;8.881133e-002
9.758453e+002;8.472751e-002
9.777739e+002;7.627847e-002
9.797024e+002;6.712236e-002
9.816309e+002;5.921501e-002
9.835595e+002;5.358896e-002
9.854880e+002;5.083339e-002
9.874166e+002;5.047171e-002
9.893452e+002;5.207053e-002
9.912737e+002;5.613832e-002
9.932022e+002;6.254927e-002
9.951307e+002;6.985527e-002
9.970593e+002;7.574959e-002
9.989879e+002;7.656452e-002
1.000916e+003;7.180224e-002
1.002845e+003;6.546414e-002
1.004773e+003;6.087377e-002
1.006702e+003;5.808454e-002
1.008631e+003;5.600294e-002
1.010559e+003;5.476535e-002
1.012488e+003;5.396143e-002
1.014416e+003;5.319509e-002
1.016345e+003;5.273550e-002
1.018273e+003;5.216004e-002
1.020202e+003;5.142787e-002
1.022130e+003;5.106212e-002
1.024059e+003;5.106152e-002
1.025988e+003;5.176877e-002
1.027916e+003;5.262474e-002
1.029845e+003;5.315289e-002
1.031773e+003;5.417000e-002
1.033702e+003;5.597629e-002
1.035630e+003;5.791663e-002
1.037559e+003;5.858888e-002
1.039487e+003;5.791399e-002
1.041416e+003;5.730376e-002
1.043344e+003;5.632795e-002
1.045273e+003;5.459079e-002
1.047202e+003;5.308354e-002
1.049130e+003;5.149692e-002
1.051059e+003;4.979737e-002
1.052987e+003;4.856816e-002
1.054916e+003;4.741995e-002
1.056844e+003;4.644767e-002
1.058773e+003;4.625725e-002
1.060701e+003;4.559612e-002
1.062630e+003;4.497910e-002
1.064558e+003;4.544703e-002
1.066487e+003;4.572845e-002
1.068416e+003;4.604666e-002
1.070344e+003;4.659611e-002
1.072273e+003;4.636183e-002
1.074201e+003;4.629415e-002
1.076130e+003;4.648521e-002
1.078058e+003;4.658652e-002
1.079987e+003;4.734833e-002
1.081915e+003;4.830567e-002
1.083844e+003;4.910627e-002
1.085773e+003;5.013394e-002
1.087701e+003;5.134802e-002
1.089630e+003;5.218014e-002
1.091558e+003;5.291063e-002
1.093487e+003;5.379364e-002
1.095415e+003;5.493381e-002
1.097344e+003;5.685778e-002
1.099272e+003;5.899694e-002
1.101201e+003;6.047443e-002
1.103129e+003;6.083836e-002
1.105058e+003;6.059833e-002
1.106987e+003;5.929153e-002
1.108915e+003;5.657710e-002
1.110844e+003;5.368400e-002
1.112772e+003;5.175283e-002
1.114701e+003;4.999600e-002
1.116629e+003;4.792644e-002
1.118558e+003;4.584692e-002
1.120486e+003;4.470330e-002
1.122415e+003;4.368457e-002
1.124344e+003;4.230674e-002
1.126272e+003;4.162336e-002
1.128201e+003;4.160980e-002
1.130129e+003;4.202326e-002
1.132058e+003;4.265163e-002
1.133986e+003;4.407280e-002
1.135915e+003;4.572738e-002
1.137843e+003;4.783754e-002
1.139772e+003;5.035140e-002
1.141700e+003;5.293930e-002
1.143629e+003;5.588022e-002
1.145557e+003;5.889716e-002
1.147486e+003;6.209994e-002
1.149415e+003;6.552236e-002
1.151343e+003;6.887595e-002
1.153272e+003;7.070373e-002
1.155200e+003;7.134335e-002
1.157129e+003;7.201952e-002
1.159057e+003;7.271715e-002
1.160986e+003;7.350615e-002
1.162914e+003;7.417469e-002
1.164843e+003;7.480977e-002
1.166771e+003;7.576008e-002
1.168700e+003;7.516722e-002
1.170629e+003;7.142119e-002
1.172557e+003;6.648999e-002
1.174486e+003;6.150568e-002
1.176414e+003;5.653400e-002
1.178343e+003;5.305115e-002
1.180271e+003;5.150587e-002
1.182200e+003;5.084896e-002
1.184128e+003;5.095279e-002
1.186057e+003;5.131438e-002
1.187986e+003;5.180999e-002
1.189914e+003;5.224640e-002
1.191843e+003;5.201331e-002
1.193771e+003;5.171054e-002
1.195700e+003;5.212701e-002
1.197628e+003;5.276559e-002
1.199557e+003;5.283080e-002
1.201485e+003;5.212514e-002
1.203414e+003;5.185833e-002
1.205343e+003;5.214435e-002
1.207271e+003;5.249759e-002
1.209200e+003;5.376053e-002
1.211128e+003;5.597210e-002
1.213057e+003;5.817678e-002
1.214985e+003;5.880292e-002
1.216914e+003;5.733215e-002
1.218842e+003;5.556206e-002
1.220771e+003;5.453962e-002
1.222699e+003;5.404191e-002
1.224628e+003;5.356036e-002
1.226557e+003;5.375396e-002
1.228485e+003;5.443846e-002
1.230414e+003;5.455082e-002
1.232342e+003;5.451084e-002
1.234271e+003;5.499830e-002
1.236199e+003;5.534586e-002
1.238128e+003;5.516339e-002
1.240056e+003;5.531537e-002
1.241985e+003;5.597176e-002
1.243913e+003;5.634511e-002
1.245842e+003;5.707970e-002
1.247771e+003;5.833224e-002
1.249699e+003;6.034504e-002
1.251628e+003;6.341217e-002
1.253556e+003;6.783354e-002
1.255485e+003;7.191992e-002
1.257413e+003;7.303751e-002
1.259342e+003;7.096384e-002
1.261270e+003;6.781568e-002
1.263199e+003;6.506879e-002
1.265127e+003;6.292904e-002
1.267056e+003;6.115298e-002
1.268985e+003;5.907802e-002
1.270913e+003;5.728202e-002
1.272842e+003;5.606627e-002
1.274770e+003;5.533471e-002
1.276699e+003;5.500443e-002
1.278627e+003;5.473152e-002
1.280556e+003;5.460465e-002
1.282484e+003;5.467849e-002
1.284413e+003;5.537393e-002
1.286342e+003;5.663025e-002
1.288270e+003;5.757837e-002
1.290199e+003;5.854103e-002
1.292127e+003;5.979192e-002
1.294056e+003;6.088788e-002
1.295984e+003;6.150981e-002
1.297913e+003;6.176699e-002
1.299841e+003;6.216895e-002
1.301770e+003;6.267653e-002
1.303698e+003;6.319106e-002
1.305627e+003;6.250909e-002
1.307556e+003;6.038657e-002
1.309484e+003;5.864137e-002
1.311413e+003;5.823065e-002
1.313341e+003;5.863913e-002
1.315270e+003;5.953840e-002
1.317198e+003;6.033529e-002
1.319127e+003;6.126582e-002
1.321055e+003;6.222198e-002
1.322984e+003;6.346079e-002
1.324912e+003;6.523340e-002
1.326841e+003;6.665681e-002
1.328770e+003;6.782029e-002
1.330698e+003;6.835721e-002
1.332627e+003;6.809942e-002
1.334555e+003;6.782041e-002
1.336484e+003;6.759109e-002
1.338412e+003;6.778276e-002
1.340341e+003;6.863292e-002
1.342269e+003;7.021313e-002
1.344198e+003;7.241499e-002
1.346126e+003;7.515638e-002
1.348055e+003;7.821013e-002
1.349984e+003;8.184225e-002
1.351912e+003;8.664477e-002
1.353841e+003;9.310394e-002
1.355769e+003;1.006862e-001
1.357698e+003;1.068806e-001
1.359626e+003;1.092046e-001
1.361555e+003;1.087096e-001
1.363483e+003;1.090860e-001
1.365412e+003;1.124101e-001
1.367341e+003;1.203863e-001
1.369269e+003;1.363828e-001
1.371198e+003;1.608128e-001
1.373126e+003;1.884993e-001
1.375055e+003;2.098041e-001
1.376983e+003;2.103642e-001
1.378912e+003;1.884443e-001
1.380840e+003;1.593799e-001
1.382769e+003;1.337853e-001
1.384698e+003;1.152640e-001
1.386626e+003;1.040422e-001
1.388555e+003;9.939904e-002
1.390483e+003;9.876779e-002
1.392412e+003;9.886988e-002
1.394340e+003;9.929770e-002
1.396269e+003;1.013692e-001
1.398197e+003;1.034380e-001
1.400126e+003;1.055509e-001
1.402054e+003;1.076352e-001
1.403983e+003;1.090658e-001
1.405911e+003;1.106494e-001
1.407840e+003;1.125509e-001
1.409769e+003;1.146023e-001
1.411697e+003;1.171944e-001
1.413626e+003;1.202280e-001
1.415554e+003;1.230675e-001
1.417483e+003;1.248843e-001
1.419411e+003;1.274117e-001
1.421340e+003;1.321405e-001
1.423268e+003;1.359207e-001
1.425197e+003;1.391235e-001
1.427125e+003;1.422419e-001
1.429054e+003;1.454579e-001
1.430983e+003;1.500742e-001
1.432911e+003;1.554992e-001
1.434840e+003;1.579996e-001
1.436768e+003;1.573226e-001
1.438697e+003;1.586502e-001
1.440625e+003;1.611947e-001
1.442554e+003;1.647772e-001
1.444482e+003;1.698590e-001
1.446411e+003;1.757954e-001
1.448340e+003;1.822008e-001
1.450268e+003;1.877133e-001
1.452197e+003;1.900904e-001
1.454125e+003;1.882344e-001
1.456054e+003;1.827250e-001
1.457982e+003;1.804073e-001
1.459911e+003;1.794269e-001
1.461839e+003;1.745424e-001
1.463768e+003;1.654825e-001
1.465697e+003;1.553971e-001
1.467625e+003;1.463271e-001
1.469554e+003;1.364167e-001
1.471482e+003;1.255800e-001
1.473411e+003;1.173330e-001
1.475339e+003;1.124495e-001
1.477268e+003;1.087110e-001
1.479196e+003;1.056232e-001
1.481125e+003;1.020186e-001
1.483053e+003;9.873243e-002
1.484982e+003;9.536710e-002
1.486911e+003;9.184166e-002
1.488839e+003;8.880690e-002
1.490768e+003;8.701683e-002
1.492696e+003;8.589830e-002
1.494625e+003;8.301206e-002
1.496553e+003;8.019138e-002
1.498482e+003;7.932153e-002
1.500410e+003;7.860016e-002
1.502339e+003;7.668476e-002
1.504267e+003;7.162863e-002
1.506196e+003;6.648459e-002
1.508125e+003;6.647721e-002
1.510053e+003;6.721402e-002
1.511982e+003;6.610096e-002
1.513910e+003;6.449310e-002
1.515839e+003;6.189326e-002
1.517767e+003;5.986447e-002
1.519696e+003;5.724664e-002
1.521624e+003;5.515820e-002
1.523553e+003;5.591889e-002
1.525481e+003;5.559678e-002
1.527410e+003;5.490204e-002
1.529339e+003;5.448594e-002
1.531267e+003;5.315951e-002
1.533196e+003;5.122874e-002
1.535124e+003;5.109346e-002
1.537053e+003;4.886344e-002
1.538981e+003;4.424696e-002
1.540910e+003;4.393131e-002
1.542838e+003;4.605742e-002
1.544767e+003;4.758499e-002
1.546695e+003;4.921691e-002
1.548624e+003;4.974643e-002
1.550553e+003;4.957421e-002
1.552481e+003;4.852447e-002
1.554410e+003;4.697673e-002
1.556338e+003;4.427661e-002
1.558267e+003;3.931046e-002
1.560195e+003;4.015867e-002
1.562124e+003;4.445705e-002
1.564052e+003;4.527753e-002
1.565981e+003;4.492453e-002
1.567910e+003;4.363266e-002
1.569838e+003;4.241465e-002
1.571767e+003;4.301907e-002
1.573695e+003;4.192727e-002
1.575624e+003;3.910683e-002
1.577552e+003;4.014958e-002
1.579481e+003;4.224425e-002
1.581409e+003;4.226850e-002
1.583338e+003;4.203019e-002
1.585266e+003;4.175196e-002
1.587195e+003;4.162391e-002
1.589124e+003;4.112937e-002
1.591052e+003;4.037780e-002
1.592981e+003;3.961367e-002
1.594909e+003;3.929784e-002
1.596838e+003;3.965185e-002
1.598766e+003;3.999053e-002
1.600695e+003;3.990727e-002
1.602623e+003;3.983500e-002
1.604552e+003;3.997273e-002
1.606480e+003;3.974117e-002
1.608409e+003;3.920390e-002
1.610338e+003;3.928409e-002
1.612266e+003;3.970478e-002
1.614195e+003;3.895934e-002
1.616123e+003;3.743358e-002
1.618052e+003;3.911293e-002
1.619980e+003;4.056362e-002
1.621909e+003;3.904767e-002
1.623837e+003;3.789920e-002
1.625766e+003;3.788705e-002
1.627694e+003;3.751850e-002
1.629623e+003;3.752515e-002
1.631552e+003;3.735319e-002
1.633480e+003;3.512964e-002
1.635409e+003;3.271070e-002
1.637337e+003;3.452712e-002
1.639266e+003;3.644136e-002
1.641194e+003;3.660221e-002
1.643123e+003;3.581237e-002
1.645051e+003;3.337120e-002
1.646980e+003;3.272170e-002
1.648909e+003;3.424591e-002
1.650837e+003;3.140933e-002
1.652766e+003;2.697026e-002
1.654694e+003;3.073060e-002
1.656623e+003;3.515803e-002
1.658551e+003;3.575502e-002
1.660480e+003;3.491375e-002
1.662408e+003;3.394392e-002
1.664337e+003;3.446696e-002
1.666266e+003;3.461772e-002
1.668194e+003;3.295717e-002
1.670123e+003;3.212750e-002
1.672051e+003;3.276050e-002
1.673980e+003;3.197008e-002
1.675908e+003;3.191334e-002
1.677837e+003;3.354950e-002
1.679765e+003;3.342212e-002
1.681694e+003;3.163093e-002
1.683622e+003;2.787543e-002
1.685551e+003;2.875708e-002
1.687479e+003;3.186831e-002
1.689408e+003;3.223816e-002
1.691337e+003;3.225311e-002
1.693265e+003;3.073970e-002
1.695194e+003;2.740082e-002
1.697122e+003;2.736835e-002
1.699051e+003;2.628702e-002
1.700979e+003;2.635870e-002
1.702908e+003;2.942362e-002
1.704836e+003;2.964216e-002
1.706765e+003;2.996002e-002
1.708693e+003;3.037180e-002
1.710622e+003;3.050789e-002
1.712551e+003;2.980980e-002
1.714479e+003;2.809577e-002
1.716408e+003;2.575900e-002
1.718336e+003;2.619638e-002
1.720265e+003;2.889344e-002
1.722193e+003;2.996751e-002
1.724122e+003;3.011245e-002
1.726050e+003;3.050021e-002
1.727979e+003;3.026894e-002
1.729908e+003;2.955007e-002
1.731836e+003;2.715846e-002
1.733765e+003;2.441910e-002
1.735693e+003;2.651188e-002
1.737622e+003;2.818373e-002
1.739550e+003;2.737290e-002
1.741479e+003;2.771439e-002
1.743407e+003;2.772513e-002
1.745336e+003;2.705675e-002
1.747265e+003;2.597641e-002
1.749193e+003;2.474663e-002
1.751122e+003;2.421578e-002
1.753050e+003;2.529593e-002
1.754979e+003;2.529220e-002
1.756907e+003;2.474677e-002
1.758836e+003;2.499578e-002
1.760764e+003;2.433968e-002
1.762693e+003;2.400023e-002
1.764621e+003;2.450708e-002
1.766550e+003;2.384038e-002
1.768479e+003;2.310823e-002
1.770407e+003;2.235156e-002
1.772336e+003;2.151084e-002
1.774264e+003;2.270547e-002
1.776193e+003;2.375176e-002
1.778121e+003;2.372996e-002
1.780050e+003;2.350800e-002
1.781978e+003;2.409899e-002
1.783907e+003;2.466455e-002
1.785835e+003;2.546064e-002
1.787764e+003;2.711861e-002
1.789693e+003;2.902636e-002
1.791621e+003;3.115608e-002
1.793550e+003;3.420461e-002
1.795478e+003;3.657327e-002
1.797407e+003;3.686843e-002
1.799335e+003;3.595474e-002
1.801264e+003;3.397140e-002
1.803192e+003;3.128685e-002
1.805121e+003;2.866611e-002
1.807049e+003;2.637672e-002
1.808978e+003;2.436295e-002
1.810907e+003;2.330928e-002
1.812835e+003;2.306773e-002
1.814764e+003;2.310648e-002
1.816692e+003;2.276814e-002
1.818621e+003;2.254996e-002
1.820549e+003;2.247657e-002
1.822478e+003;2.220002e-002
1.824406e+003;2.163410e-002
1.826335e+003;2.168913e-002
1.828264e+003;2.141044e-002
1.830192e+003;2.123845e-002
1.832121e+003;2.220773e-002
1.834049e+003;2.242594e-002
1.835978e+003;2.198397e-002
1.837906e+003;2.180308e-002
1.839835e+003;2.190758e-002
1.841763e+003;2.141681e-002
1.843692e+003;2.024498e-002
1.845620e+003;2.060592e-002
1.847549e+003;2.123559e-002
1.849478e+003;2.146777e-002
1.851406e+003;2.161491e-002
1.853335e+003;2.145388e-002
1.855263e+003;2.118090e-002
1.857192e+003;2.114517e-002
1.859120e+003;2.109860e-002
1.861049e+003;2.109515e-002
1.862977e+003;2.110973e-002
1.864906e+003;2.085678e-002
1.866834e+003;1.996318e-002
1.868763e+003;1.943021e-002
1.870692e+003;2.019201e-002
1.872620e+003;2.074892e-002
1.874549e+003;2.044134e-002
1.876477e+003;2.021433e-002
1.878406e+003;2.038615e-002
1.880334e+003;2.062813e-002
1.882263e+003;2.061051e-002
1.884191e+003;2.057775e-002
1.886120e+003;2.053411e-002
1.888048e+003;2.044342e-002
1.889977e+003;2.048858e-002
1.891906e+003;2.087430e-002
1.893834e+003;2.070252e-002
1.895763e+003;2.041161e-002
1.897691e+003;2.053547e-002
1.899620e+003;2.062225e-002
1.901548e+003;2.061454e-002
1.903477e+003;2.074218e-002
1.905405e+003;2.065485e-002
1.907334e+003;2.033768e-002
1.909262e+003;2.003205e-002
1.911191e+003;2.010878e-002
1.913120e+003;2.013953e-002
1.915048e+003;2.001665e-002
1.916977e+003;1.964773e-002
1.918905e+003;1.993314e-002
1.920834e+003;2.023731e-002
1.922762e+003;2.010475e-002
1.924691e+003;2.004677e-002
1.926619e+003;1.982787e-002
1.928548e+003;1.976437e-002
1.930477e+003;1.971825e-002
1.932405e+003;1.960742e-002
1.934334e+003;1.955525e-002
1.936262e+003;1.956093e-002
1.938191e+003;1.944882e-002
1.940119e+003;1.926621e-002
1.942048e+003;1.932340e-002
1.943976e+003;1.940561e-002
1.945905e+003;1.929209e-002
1.947833e+003;1.940638e-002
1.949762e+003;1.961612e-002
1.951691e+003;1.953865e-002
1.953619e+003;1.927387e-002
1.955548e+003;1.925104e-002
1.957476e+003;1.946552e-002
1.959405e+003;1.935860e-002
1.961333e+003;1.911688e-002
1.963262e+003;1.877790e-002
1.965190e+003;1.878489e-002
1.967119e+003;1.904753e-002
1.969047e+003;1.909569e-002
1.970976e+003;1.895888e-002
1.972905e+003;1.889683e-002
1.974833e+003;1.891873e-002
1.976762e+003;1.892434e-002
1.978690e+003;1.873628e-002
1.980619e+003;1.877036e-002
1.982547e+003;1.888752e-002
1.984476e+003;1.878731e-002
1.986404e+003;1.866121e-002
1.988333e+003;1.877444e-002
1.990261e+003;1.859816e-002
1.992190e+003;1.838155e-002
1.994119e+003;1.875690e-002
1.996047e+003;1.913181e-002
1.997976e+003;1.889105e-002
1.999904e+003;1.880949e-002
2.001833e+003;1.882215e-002
2.003761e+003;1.844820e-002
2.005690e+003;1.835766e-002
2.007618e+003;1.874008e-002
2.009547e+003;1.876029e-002
2.011476e+003;1.852008e-002
2.013404e+003;1.829815e-002
2.015333e+003;1.837291e-002
2.017261e+003;1.856642e-002
2.019190e+003;1.880751e-002
2.021118e+003;1.865990e-002
2.023047e+003;1.840986e-002
2.024975e+003;1.826984e-002
2.026904e+003;1.830274e-002
2.028833e+003;1.827271e-002
2.030761e+003;1.814079e-002
2.032690e+003;1.833046e-002
2.034618e+003;1.855092e-002
2.036547e+003;1.838556e-002
2.038475e+003;1.816532e-002
2.040404e+003;1.807505e-002
2.042332e+003;1.820346e-002
2.044261e+003;1.835587e-002
2.046189e+003;1.847147e-002
2.048118e+003;1.840830e-002
2.050047e+003;1.837222e-002
2.051975e+003;1.837654e-002
2.053904e+003;1.844737e-002
2.055832e+003;1.843029e-002
2.057761e+003;1.843402e-002
2.059689e+003;1.848823e-002
2.061618e+003;1.829649e-002
2.063546e+003;1.796229e-002
2.065475e+003;1.792437e-002
2.067404e+003;1.801229e-002
2.069332e+003;1.788162e-002
2.071260e+003;1.788718e-002
2.073189e+003;1.800621e-002
2.075118e+003;1.803758e-002
2.077046e+003;1.814839e-002
2.078975e+003;1.823270e-002
2.080903e+003;1.830378e-002
2.082832e+003;1.845020e-002
2.084760e+003;1.865077e-002
2.086689e+003;1.878011e-002
2.088617e+003;1.889264e-002
2.090546e+003;1.881201e-002
2.092475e+003;1.863804e-002
2.094403e+003;1.863129e-002
2.096332e+003;1.880876e-002
2.098260e+003;1.891638e-002
2.100189e+003;1.888509e-002
2.102117e+003;1.878935e-002
2.104046e+003;1.884897e-002
2.105974e+003;1.888302e-002
2.107903e+003;1.873908e-002
2.109832e+003;1.863486e-002
2.111760e+003;1.880547e-002
2.113688e+003;1.884426e-002
2.115617e+003;1.887945e-002
2.117546e+003;1.897387e-002
2.119474e+003;1.925180e-002
2.121403e+003;1.953560e-002
2.123331e+003;1.968743e-002
2.125260e+003;2.004694e-002
2.127188e+003;2.026230e-002
2.129117e+003;2.024144e-002
2.131045e+003;2.023356e-002
2.132974e+003;2.031601e-002
2.134903e+003;2.038497e-002
2.136831e+003;2.026407e-002
2.138760e+003;2.021610e-002
2.140688e+003;2.010097e-002
2.142617e+003;1.988870e-002
2.144545e+003;1.965151e-002
2.146474e+003;1.957289e-002
2.148402e+003;1.953238e-002
2.150331e+003;1.946584e-002
2.152260e+003;1.953310e-002
2.154188e+003;1.961449e-002
2.156117e+003;1.995545e-002
2.158045e+003;2.017184e-002
2.159974e+003;2.014841e-002
2.161902e+003;2.034657e-002
2.163831e+003;2.049538e-002
2.165759e+003;2.054384e-002
2.167688e+003;2.065578e-002
2.169616e+003;2.072866e-002
2.171545e+003;2.072021e-002
2.173474e+003;2.068369e-002
2.175402e+003;2.049528e-002
2.177331e+003;2.039095e-002
2.179259e+003;2.058800e-002
2.181188e+003;2.066423e-002
2.183116e+003;2.049045e-002
2.185045e+003;2.017056e-002
2.186973e+003;2.009042e-002
2.188902e+003;2.020815e-002
2.190831e+003;2.014060e-002
2.192759e+003;2.017608e-002
2.194688e+003;2.024238e-002
2.196616e+003;2.000169e-002
2.198545e+003;1.971468e-002
2.200473e+003;1.955605e-002
2.202402e+003;1.959653e-002
2.204330e+003;1.948514e-002
2.206259e+003;1.947713e-002
2.208188e+003;1.977966e-002
2.210116e+003;1.973424e-002
2.212044e+003;1.954721e-002
2.213973e+003;1.942159e-002
2.215902e+003;1.927071e-002
2.217830e+003;1.940852e-002
2.219759e+003;1.950829e-002
2.221687e+003;1.935704e-002
2.223616e+003;1.920768e-002
2.225544e+003;1.916124e-002
2.227473e+003;1.928429e-002
2.229401e+003;1.947602e-002
2.231330e+003;1.943340e-002
2.233259e+003;1.932032e-002
2.235187e+003;1.921945e-002
2.237116e+003;1.924931e-002
2.239044e+003;1.939255e-002
2.240973e+003;1.931907e-002
2.242901e+003;1.944137e-002
2.244830e+003;1.972917e-002
2.246758e+003;1.970005e-002
2.248687e+003;1.974575e-002
2.250615e+003;1.983869e-002
2.252544e+003;1.993543e-002
2.254473e+003;2.029101e-002
2.256401e+003;2.039015e-002
2.258330e+003;1.995451e-002
2.260258e+003;1.965273e-002
2.262187e+003;1.972904e-002
2.264115e+003;1.971773e-002
2.266044e+003;1.977137e-002
2.267972e+003;1.985492e-002
2.269901e+003;1.956121e-002
2.271830e+003;1.907308e-002
2.273758e+003;1.893054e-002
2.275687e+003;1.884810e-002
2.277615e+003;1.878302e-002
2.279544e+003;1.891586e-002
2.281472e+003;1.881651e-002
2.283401e+003;1.847271e-002
2.285329e+003;1.852025e-002
2.287258e+003;1.879558e-002
2.289187e+003;1.868231e-002
2.291115e+003;1.858298e-002
2.293043e+003;1.856994e-002
2.294972e+003;1.861521e-002
2.296901e+003;1.871517e-002
2.298829e+003;1.859972e-002
2.300758e+003;1.844440e-002
2.302686e+003;1.827005e-002
2.304615e+003;1.819766e-002
2.306543e+003;1.821729e-002
2.308472e+003;1.780367e-002
2.310400e+003;1.722746e-002
2.312329e+003;1.685367e-002
2.314258e+003;1.656226e-002
2.316186e+003;1.636204e-002
2.318115e+003;1.603874e-002
2.320043e+003;1.539592e-002
2.321972e+003;1.495641e-002
2.323900e+003;1.482796e-002
2.325829e+003;1.453249e-002
2.327757e+003;1.390675e-002
2.329686e+003;1.319530e-002
2.331615e+003;1.301472e-002
2.333543e+003;1.326034e-002
2.335472e+003;1.286893e-002
2.337400e+003;1.266675e-002
2.339329e+003;1.310763e-002
2.341257e+003;1.397073e-002
2.343186e+003;1.517427e-002
2.345114e+003;1.644730e-002
2.347043e+003;1.791850e-002
2.348971e+003;1.840516e-002
2.350900e+003;1.719805e-002
2.352829e+003;1.535668e-002
2.354757e+003;1.363115e-002
2.356686e+003;1.256984e-002
2.358614e+003;1.185929e-002
2.360543e+003;1.146414e-002
2.362471e+003;1.143716e-002
2.364400e+003;1.181445e-002
2.366328e+003;1.250675e-002
2.368257e+003;1.350022e-002
2.370186e+003;1.497061e-002
2.372114e+003;1.658835e-002
2.374042e+003;1.788207e-002
2.375971e+003;1.880776e-002
2.377900e+003;1.953387e-002
2.379828e+003;2.014716e-002
2.381757e+003;2.079664e-002
2.383685e+003;2.100194e-002
2.385614e+003;2.101888e-002
2.387542e+003;2.106301e-002
2.389471e+003;2.109940e-002
2.391399e+003;2.119784e-002
2.393328e+003;2.123006e-002
2.395257e+003;2.121489e-002
2.397185e+003;2.139554e-002
2.399114e+003;2.157772e-002
2.401042e+003;2.149667e-002
2.402971e+003;2.159043e-002
2.404899e+003;2.170362e-002
2.406828e+003;2.145656e-002
2.408756e+003;2.153730e-002
2.410685e+003;2.182426e-002
2.412614e+003;2.175706e-002
2.414542e+003;2.155502e-002
2.416471e+003;2.165946e-002
2.418399e+003;2.205682e-002
2.420328e+003;2.216438e-002
2.422256e+003;2.206069e-002
2.424185e+003;2.207031e-002
2.426113e+003;2.225156e-002
2.428042e+003;2.234574e-002
2.429970e+003;2.236761e-002
2.431899e+003;2.216253e-002
2.433828e+003;2.193654e-002
2.435756e+003;2.176587e-002
2.437685e+003;2.170369e-002
2.439613e+003;2.180604e-002
2.441542e+003;2.191315e-002
2.443470e+003;2.166176e-002
2.445399e+003;2.152609e-002
2.447327e+003;2.137713e-002
2.449256e+003;2.142168e-002
2.451185e+003;2.148378e-002
2.453113e+003;2.141246e-002
2.455042e+003;2.122143e-002
2.456970e+003;2.120835e-002
2.458899e+003;2.134824e-002
2.460827e+003;2.132548e-002
2.462756e+003;2.128323e-002
2.464684e+003;2.115912e-002
2.466613e+003;2.107362e-002
2.468542e+003;2.113919e-002
2.470470e+003;2.141420e-002
2.472398e+003;2.147870e-002
2.474327e+003;2.178357e-002
2.476256e+003;2.232209e-002
2.478184e+003;2.282809e-002
2.480113e+003;2.312409e-002
2.482041e+003;2.326114e-002
2.483970e+003;2.360868e-002
2.485898e+003;2.399288e-002
2.487827e+003;2.439859e-002
2.489755e+003;2.504527e-002
2.491684e+003;2.564619e-002
2.493613e+003;2.585784e-002
2.495541e+003;2.612769e-002
2.497470e+003;2.661709e-002
2.499398e+003;2.750444e-002
2.501327e+003;2.884942e-002
2.503255e+003;3.007811e-002
2.505184e+003;3.089974e-002
2.507112e+003;3.159669e-002
2.509041e+003;3.210328e-002
2.510969e+003;3.276818e-002
2.512898e+003;3.311863e-002
2.514827e+003;3.326742e-002
2.516755e+003;3.360520e-002
2.518684e+003;3.379047e-002
2.520612e+003;3.379963e-002
2.522541e+003;3.372887e-002
2.524469e+003;3.353260e-002
2.526398e+003;3.311155e-002
2.528326e+003;3.244158e-002
2.530255e+003;3.196177e-002
2.532184e+003;3.145057e-002
2.534112e+003;3.074262e-002
2.536041e+003;3.017382e-002
2.537969e+003;2.954397e-002
2.539898e+003;2.911518e-002
2.541826e+003;2.886879e-002
2.543755e+003;2.871173e-002
2.545683e+003;2.903302e-002
2.547612e+003;2.957731e-002
2.549541e+003;2.982052e-002
2.551469e+003;2.988356e-002
2.553397e+003;3.004885e-002
2.555326e+003;3.024209e-002
2.557255e+003;3.024777e-002
2.559183e+003;3.054397e-002
2.561112e+003;3.093193e-002
2.563040e+003;3.113678e-002
2.564969e+003;3.117338e-002
2.566897e+003;3.129030e-002
2.568826e+003;3.172959e-002
2.570754e+003;3.236358e-002
2.572683e+003;3.314702e-002
2.574612e+003;3.384132e-002
2.576540e+003;3.436169e-002
2.578469e+003;3.457728e-002
2.580397e+003;3.474261e-002
2.582326e+003;3.509002e-002
2.584254e+003;3.508804e-002
2.586183e+003;3.451141e-002
2.588111e+003;3.396581e-002
2.590040e+003;3.349065e-002
2.591969e+003;3.290977e-002
2.593897e+003;3.264261e-002
2.595826e+003;3.267758e-002
2.597754e+003;3.231796e-002
2.599683e+003;3.184745e-002
2.601611e+003;3.194544e-002
2.603540e+003;3.223716e-002
2.605468e+003;3.260607e-002
2.607397e+003;3.320596e-002
2.609325e+003;3.359288e-002
2.611254e+003;3.383842e-002
2.613183e+003;3.388911e-002
2.615111e+003;3.358809e-002
2.617040e+003;3.349853e-002
2.618968e+003;3.367361e-002
2.620897e+003;3.355608e-002
2.622825e+003;3.295216e-002
2.624754e+003;3.261942e-002
2.626682e+003;3.251696e-002
2.628611e+003;3.216739e-002
2.630540e+003;3.200668e-002
2.632468e+003;3.206421e-002
2.634396e+003;3.206015e-002
2.636325e+003;3.186770e-002
2.638254e+003;3.142414e-002
2.640182e+003;3.130786e-002
2.642111e+003;3.183864e-002
2.644039e+003;3.248939e-002
2.645968e+003;3.291814e-002
2.647896e+003;3.325400e-002
2.649825e+003;3.358762e-002
2.651753e+003;3.393951e-002
2.653682e+003;3.430270e-002
2.655611e+003;3.431529e-002
2.657539e+003;3.414367e-002
2.659468e+003;3.444401e-002
2.661396e+003;3.469229e-002
2.663325e+003;3.482036e-002
2.665253e+003;3.508172e-002
2.667182e+003;3.508327e-002
2.669110e+003;3.493059e-002
2.671039e+003;3.499875e-002
2.672968e+003;3.536362e-002
2.674896e+003;3.573268e-002
2.676825e+003;3.605492e-002
2.678753e+003;3.619798e-002
2.680682e+003;3.611869e-002
2.682610e+003;3.598246e-002
2.684539e+003;3.607048e-002
2.686467e+003;3.644969e-002
2.688396e+003;3.653910e-002
2.690324e+003;3.651268e-002
2.692253e+003;3.639618e-002
2.694182e+003;3.612686e-002
2.696110e+003;3.607116e-002
2.698039e+003;3.618660e-002
2.699967e+003;3.654144e-002
2.701896e+003;3.718650e-002
2.703824e+003;3.796110e-002
2.705753e+003;3.875678e-002
2.707681e+003;3.958024e-002
2.709610e+003;4.063896e-002
2.711539e+003;4.181544e-002
2.713467e+003;4.295019e-002
2.715396e+003;4.430967e-002
2.717324e+003;4.588832e-002
2.719253e+003;4.743477e-002
2.721181e+003;4.881842e-002
2.723110e+003;4.937807e-002
2.725038e+003;4.877045e-002
2.726967e+003;4.760640e-002
2.728896e+003;4.621402e-002
2.730824e+003;4.502574e-002
2.732752e+003;4.401542e-002
2.734681e+003;4.281802e-002
2.736610e+003;4.173336e-002
2.738538e+003;4.092012e-002
2.740467e+003;4.029999e-002
2.742395e+003;3.940627e-002
2.744324e+003;3.843318e-002
2.746252e+003;3.778463e-002
2.748181e+003;3.743188e-002
2.750109e+003;3.744283e-002
2.752038e+003;3.767017e-002
2.753967e+003;3.794812e-002
2.755895e+003;3.787247e-002
2.757824e+003;3.793250e-002
2.759752e+003;3.847184e-002
2.761681e+003;3.905652e-002
2.763609e+003;3.927005e-002
2.765538e+003;3.930760e-002
2.767466e+003;3.963465e-002
2.769395e+003;4.032654e-002
2.771323e+003;4.083679e-002
2.773252e+003;4.136033e-002
2.775181e+003;4.185309e-002
2.777109e+003;4.236307e-002
2.779038e+003;4.319296e-002
2.780966e+003;4.444857e-002
2.782895e+003;4.561456e-002
2.784823e+003;4.697171e-002
2.786752e+003;4.844867e-002
2.788680e+003;5.021967e-002
2.790609e+003;5.230271e-002
2.792538e+003;5.415022e-002
2.794466e+003;5.495073e-002
2.796395e+003;5.569079e-002
2.798323e+003;5.741145e-002
2.800252e+003;5.909962e-002
2.802180e+003;6.063849e-002
2.804109e+003;6.279260e-002
2.806037e+003;6.524241e-002
2.807966e+003;6.711714e-002
2.809895e+003;6.869579e-002
2.811823e+003;7.056011e-002
2.813751e+003;7.272663e-002
2.815680e+003;7.478017e-002
2.817609e+003;7.676589e-002
2.819537e+003;7.909127e-002
2.821466e+003;8.234388e-002
2.823394e+003;8.614995e-002
2.825323e+003;9.068889e-002
2.827251e+003;9.641043e-002
2.829180e+003;1.037043e-001
2.831108e+003;1.125900e-001
2.833037e+003;1.220773e-001
2.834966e+003;1.301175e-001
2.836894e+003;1.346887e-001
2.838823e+003;1.355453e-001
2.840751e+003;1.324895e-001
2.842680e+003;1.272814e-001
2.844608e+003;1.212739e-001
2.846537e+003;1.154772e-001
2.848465e+003;1.111190e-001
2.850394e+003;1.077460e-001
2.852323e+003;1.053891e-001
2.854251e+003;1.044729e-001
2.856180e+003;1.053008e-001
2.858108e+003;1.086917e-001
2.860037e+003;1.154743e-001
2.861965e+003;1.242729e-001
2.863894e+003;1.324845e-001
2.865822e+003;1.384909e-001
2.867751e+003;1.418251e-001
2.869679e+003;1.428429e-001
2.871608e+003;1.430793e-001
2.873536e+003;1.428398e-001
2.875465e+003;1.421931e-001
2.877394e+003;1.414263e-001
2.879322e+003;1.402021e-001
2.881251e+003;1.387892e-001
2.883179e+003;1.379526e-001
2.885108e+003;1.381531e-001
2.887036e+003;1.390177e-001
2.888965e+003;1.403049e-001
2.890893e+003;1.421038e-001
2.892822e+003;1.442690e-001
2.894750e+003;1.477619e-001
2.896679e+003;1.522866e-001
2.898608e+003;1.578822e-001
2.900536e+003;1.632975e-001
2.902465e+003;1.678391e-001
2.904393e+003;1.730177e-001
2.906322e+003;1.785877e-001
2.908250e+003;1.838261e-001
2.910179e+003;1.883053e-001
2.912107e+003;1.916488e-001
2.914036e+003;1.946253e-001
2.915965e+003;1.970630e-001
2.917893e+003;1.975481e-001
2.919822e+003;1.956707e-001
2.921750e+003;1.911065e-001
2.923679e+003;1.848757e-001
2.925607e+003;1.775481e-001
2.927536e+003;1.689598e-001
2.929464e+003;1.599828e-001
2.931393e+003;1.514157e-001
2.933322e+003;1.426494e-001
2.935250e+003;1.349500e-001
2.937178e+003;1.300467e-001
2.939107e+003;1.283934e-001
2.941036e+003;1.302651e-001
2.942964e+003;1.361850e-001
2.944893e+003;1.451848e-001
2.946821e+003;1.553215e-001
2.948750e+003;1.639478e-001
2.950678e+003;1.686752e-001
2.952607e+003;1.688764e-001
2.954535e+003;1.652999e-001
2.956464e+003;1.603741e-001
2.958393e+003;1.547485e-001
2.960321e+003;1.489629e-001
2.962250e+003;1.428875e-001
2.964178e+003;1.359002e-001
2.966107e+003;1.280508e-001
2.968035e+003;1.198397e-001
2.969964e+003;1.121636e-001
2.971892e+003;1.050656e-001
2.973821e+003;9.869800e-002
2.975750e+003;9.297767e-002
2.977678e+003;8.811571e-002
2.979607e+003;8.434079e-002
2.981535e+003;8.098103e-002
2.983464e+003;7.770080e-002
2.985392e+003;7.449625e-002
2.987321e+003;7.129548e-002
2.989249e+003;6.830812e-002
2.991178e+003;6.583186e-002
2.993106e+003;6.387479e-002
2.995035e+003;6.156753e-002
2.996964e+003;5.897136e-002
2.998892e+003;5.682915e-002
3.000821e+003;5.476817e-002
3.002749e+003;5.275481e-002
3.004678e+003;5.103000e-002
3.006606e+003;4.941075e-002
3.008535e+003;4.774226e-002
3.010463e+003;4.595321e-002
3.012392e+003;4.437135e-002
3.014321e+003;4.312855e-002
3.016249e+003;4.193775e-002
3.018177e+003;4.074063e-002
3.020106e+003;3.973176e-002
3.022035e+003;3.875605e-002
3.023963e+003;3.786380e-002
3.025892e+003;3.709909e-002
3.027820e+003;3.624354e-002
3.029749e+003;3.538173e-002
3.031677e+003;3.495472e-002
3.033606e+003;3.468863e-002
3.035534e+003;3.388710e-002
3.037463e+003;3.322270e-002
3.039392e+003;3.285170e-002
3.041320e+003;3.267290e-002
3.043249e+003;3.261939e-002
3.045177e+003;3.216493e-002
3.047106e+003;3.143198e-002
3.049034e+003;3.125010e-002
3.050963e+003;3.139387e-002
3.052891e+003;3.096645e-002
3.054820e+003;3.036793e-002
3.056749e+003;3.012921e-002
3.058677e+003;2.984618e-002
3.060606e+003;2.986166e-002
3.062534e+003;2.984700e-002
3.064463e+003;2.940670e-002
3.066391e+003;2.902417e-002
3.068320e+003;2.870157e-002
3.070248e+003;2.852749e-002
3.072177e+003;2.870841e-002
3.074105e+003;2.875014e-002
3.076034e+003;2.845910e-002
3.077963e+003;2.827814e-002
3.079891e+003;2.805385e-002
3.081820e+003;2.796310e-002
3.083748e+003;2.823118e-002
3.085677e+003;2.818461e-002
3.087605e+003;2.784070e-002
3.089534e+003;2.774692e-002
3.091462e+003;2.770740e-002
3.093391e+003;2.752884e-002
3.095320e+003;2.756283e-002
3.097248e+003;2.770143e-002
3.099177e+003;2.766294e-002
3.101105e+003;2.760810e-002
3.103034e+003;2.749594e-002
3.104962e+003;2.734403e-002
3.106891e+003;2.718044e-002
3.108819e+003;2.732452e-002
3.110748e+003;2.756396e-002
3.112677e+003;2.781856e-002
3.114605e+003;2.763673e-002
3.116533e+003;2.721035e-002
3.118462e+003;2.735653e-002
3.120391e+003;2.793161e-002
3.122319e+003;2.790585e-002
3.124248e+003;2.789589e-002
3.126176e+003;2.809104e-002
3.128105e+003;2.795804e-002
3.130033e+003;2.779863e-002
3.131962e+003;2.787469e-002
3.133890e+003;2.799964e-002
3.135819e+003;2.812999e-002
3.137748e+003;2.822888e-002
3.139676e+003;2.833483e-002
3.141605e+003;2.845506e-002
3.143533e+003;2.829508e-002
3.145462e+003;2.831213e-002
3.147390e+003;2.848054e-002
3.149319e+003;2.849136e-002
3.151247e+003;2.886667e-002
3.153176e+003;2.905470e-002
3.155104e+003;2.871701e-002
3.157033e+003;2.833603e-002
3.158962e+003;2.785883e-002
3.160890e+003;2.773608e-002
3.162819e+003;2.830194e-002
3.164747e+003;2.859217e-002
3.166676e+003;2.856008e-002
3.168604e+003;2.838728e-002
3.170533e+003;2.819946e-002
3.172461e+003;2.818645e-002
3.174390e+003;2.805124e-002
3.176319e+003;2.782276e-002
3.178247e+003;2.763511e-002
3.180176e+003;2.784307e-002
3.182104e+003;2.806057e-002
3.184033e+003;2.805488e-002
3.185961e+003;2.848383e-002
3.187890e+003;2.912113e-002
3.189818e+003;2.872926e-002
3.191747e+003;2.853096e-002
3.193676e+003;2.858403e-002
3.195604e+003;2.844367e-002
3.197532e+003;2.836656e-002
3.199461e+003;2.839071e-002
3.201390e+003;2.851178e-002
3.203318e+003;2.849494e-002
3.205247e+003;2.847813e-002
3.207175e+003;2.838665e-002
3.209104e+003;2.805930e-002
3.211032e+003;2.781502e-002
3.212961e+003;2.775684e-002
3.214889e+003;2.747603e-002
3.216818e+003;2.720291e-002
3.218747e+003;2.684529e-002
3.220675e+003;2.647028e-002
3.222604e+003;2.624316e-002
3.224532e+003;2.622831e-002
3.226461e+003;2.628413e-002
3.228389e+003;2.600757e-002
3.230318e+003;2.542835e-002
3.232246e+003;2.515280e-002
3.234175e+003;2.491362e-002
3.236104e+003;2.493847e-002
3.238032e+003;2.463615e-002
3.239961e+003;2.436526e-002
3.241889e+003;2.478174e-002
3.243818e+003;2.475126e-002
3.245746e+003;2.381952e-002
3.247675e+003;2.310218e-002
3.249603e+003;2.307650e-002
3.251532e+003;2.330435e-002
3.253460e+003;2.324418e-002
3.255389e+003;2.315603e-002
3.257318e+003;2.334291e-002
3.259246e+003;2.346957e-002
3.261175e+003;2.340001e-002
3.263103e+003;2.361970e-002
3.265032e+003;2.377300e-002
3.266960e+003;2.338277e-002
3.268889e+003;2.327900e-002
3.270817e+003;2.329061e-002
3.272746e+003;2.307346e-002
3.274675e+003;2.294643e-002
3.276603e+003;2.303985e-002
3.278531e+003;2.330613e-002
3.280460e+003;2.345309e-002
3.282389e+003;2.359227e-002
3.284317e+003;2.331064e-002
3.286246e+003;2.286484e-002
3.288174e+003;2.287385e-002
3.290103e+003;2.311350e-002
3.292031e+003;2.316540e-002
3.293960e+003;2.301354e-002
3.295888e+003;2.276726e-002
3.297817e+003;2.288048e-002
3.299746e+003;2.289899e-002
3.301674e+003;2.283889e-002
3.303603e+003;2.306818e-002
3.305531e+003;2.304935e-002
3.307460e+003;2.318040e-002
3.309388e+003;2.305707e-002
3.311317e+003;2.271084e-002
3.313245e+003;2.252371e-002
3.315174e+003;2.267991e-002
3.317103e+003;2.323873e-002
3.319031e+003;2.297120e-002
3.320960e+003;2.219949e-002
3.322888e+003;2.208918e-002
3.324817e+003;2.259023e-002
3.326745e+003;2.292439e-002
3.328674e+003;2.312989e-002
3.330602e+003;2.295478e-002
3.332531e+003;2.259683e-002
3.334459e+003;2.253621e-002
3.336388e+003;2.268413e-002
3.338317e+003;2.249440e-002
3.340245e+003;2.268274e-002
3.342174e+003;2.294412e-002
3.344102e+003;2.294653e-002
3.346031e+003;2.323419e-002
3.347959e+003;2.330805e-002
3.349888e+003;2.283438e-002
3.351816e+003;2.270030e-002
3.353745e+003;2.301853e-002
3.355674e+003;2.293769e-002
3.357602e+003;2.273238e-002
3.359531e+003;2.256629e-002
3.361459e+003;2.272847e-002
3.363388e+003;2.276786e-002
3.365316e+003;2.274122e-002
3.367245e+003;2.279548e-002
3.369173e+003;2.247552e-002
3.371102e+003;2.216550e-002
3.373031e+003;2.235784e-002
3.374959e+003;2.261467e-002
3.376887e+003;2.262455e-002
3.378816e+003;2.260287e-002
3.380745e+003;2.259031e-002
3.382673e+003;2.251771e-002
3.384602e+003;2.240846e-002
3.386530e+003;2.244203e-002
3.388459e+003;2.273884e-002
3.390387e+003;2.285163e-002
3.392316e+003;2.197777e-002
3.394244e+003;2.185625e-002
3.396173e+003;2.267038e-002
3.398102e+003;2.287367e-002
3.400030e+003;2.269820e-002
3.401959e+003;2.257812e-002
3.403887e+003;2.222771e-002
3.405816e+003;2.203908e-002
3.407744e+003;2.193933e-002
3.409673e+003;2.215016e-002
3.411601e+003;2.236754e-002
3.413530e+003;2.222541e-002
3.415458e+003;2.223106e-002
3.417387e+003;2.242989e-002
3.419316e+003;2.212610e-002
3.421244e+003;2.178496e-002
3.423173e+003;2.168185e-002
3.425101e+003;2.187973e-002
3.427030e+003;2.177852e-002
3.428958e+003;2.149186e-002
3.430887e+003;2.173149e-002
3.432815e+003;2.172066e-002
3.434744e+003;2.124457e-002
3.436673e+003;2.081409e-002
3.438601e+003;2.100208e-002
3.440530e+003;2.128862e-002
3.442458e+003;2.110503e-002
3.444387e+003;2.053109e-002
3.446315e+003;2.017288e-002
3.448244e+003;2.014654e-002
3.450172e+003;2.044148e-002
3.452101e+003;2.038772e-002
3.454030e+003;2.035431e-002
3.455958e+003;2.047624e-002
3.457886e+003;2.039567e-002
3.459815e+003;2.026800e-002
3.461744e+003;2.018753e-002
3.463672e+003;2.027838e-002
3.465601e+003;2.000888e-002
3.467529e+003;1.973015e-002
3.469458e+003;1.954451e-002
3.471386e+003;1.971267e-002
3.473315e+003;1.974565e-002
3.475243e+003;1.947142e-002
3.477172e+003;1.919081e-002
3.479101e+003;1.898443e-002
3.481029e+003;1.887222e-002
3.482958e+003;1.906187e-002
3.484886e+003;1.952829e-002
3.486815e+003;1.961016e-002
3.488743e+003;1.921416e-002
3.490672e+003;1.893646e-002
3.492600e+003;1.901399e-002
3.494529e+003;1.950947e-002
3.496458e+003;1.937277e-002
3.498386e+003;1.860072e-002
3.500315e+003;1.863773e-002
3.502243e+003;1.854204e-002
3.504172e+003;1.865869e-002
3.506100e+003;1.917146e-002
3.508029e+003;1.861362e-002
3.509957e+003;1.809685e-002
3.511886e+003;1.820505e-002
3.513814e+003;1.841923e-002
3.515743e+003;1.877862e-002
3.517672e+003;1.882668e-002
3.519600e+003;1.854110e-002
3.521529e+003;1.827182e-002
3.523457e+003;1.819379e-002
3.525386e+003;1.816850e-002
3.527314e+003;1.809523e-002
3.529243e+003;1.787261e-002
3.531171e+003;1.770495e-002
3.533100e+003;1.785666e-002
3.535029e+003;1.811768e-002
3.536957e+003;1.805150e-002
3.538885e+003;1.755150e-002
3.540814e+003;1.738196e-002
3.542743e+003;1.732969e-002
3.544671e+003;1.716272e-002
3.546600e+003;1.723876e-002
3.548528e+003;1.772190e-002
3.550457e+003;1.804307e-002
3.552385e+003;1.775710e-002
3.554314e+003;1.743473e-002
3.556242e+003;1.737572e-002
3.558171e+003;1.683672e-002
3.560100e+003;1.641957e-002
3.562028e+003;1.656718e-002
3.563957e+003;1.707273e-002
3.565885e+003;1.663328e-002
3.567814e+003;1.611779e-002
3.569742e+003;1.622495e-002
3.571671e+003;1.623754e-002
3.573599e+003;1.660618e-002
3.575528e+003;1.727428e-002
3.577457e+003;1.711026e-002
3.579385e+003;1.658886e-002
3.581314e+003;1.633489e-002
3.583242e+003;1.659055e-002
3.585171e+003;1.626024e-002
3.587099e+003;1.540381e-002
3.589028e+003;1.534875e-002
3.590956e+003;1.571754e-002
3.592885e+003;1.594922e-002
3.594813e+003;1.640491e-002
3.596742e+003;1.627283e-002
3.598671e+003;1.601151e-002
3.600599e+003;1.628109e-002
3.602528e+003;1.644039e-002
3.604456e+003;1.648605e-002
3.606385e+003;1.563162e-002
3.608313e+003;1.473537e-002
3.610242e+003;1.539489e-002
3.612170e+003;1.577773e-002
3.614099e+003;1.618361e-002
3.616028e+003;1.654670e-002
3.617956e+003;1.601993e-002
3.619885e+003;1.602392e-002
3.621813e+003;1.690203e-002
3.623742e+003;1.699374e-002
3.625670e+003;1.557656e-002
3.627599e+003;1.311655e-002
3.629527e+003;1.329177e-002
3.631456e+003;1.527321e-002
3.633385e+003;1.581652e-002
3.635313e+003;1.632987e-002
3.637241e+003;1.681740e-002
3.639170e+003;1.674446e-002
3.641099e+003;1.691485e-002
3.643027e+003;1.724069e-002
3.644956e+003;1.652315e-002
3.646884e+003;1.455075e-002
3.648813e+003;1.285306e-002
3.650741e+003;1.399752e-002
3.652670e+003;1.593664e-002
3.654598e+003;1.535280e-002
3.656527e+003;1.494286e-002
3.658456e+003;1.617811e-002
3.660384e+003;1.676508e-002
3.662313e+003;1.722818e-002
3.664241e+003;1.779894e-002
3.666170e+003;1.726166e-002
3.668098e+003;1.499465e-002
3.670027e+003;1.341984e-002
3.671955e+003;1.475576e-002
3.673884e+003;1.400364e-002
3.675813e+003;1.361498e-002
3.677741e+003;1.635636e-002
3.679669e+003;1.751086e-002
3.681598e+003;1.755851e-002
3.683527e+003;1.765453e-002
3.685455e+003;1.695729e-002
3.687384e+003;1.491571e-002
3.689312e+003;1.567494e-002
3.691241e+003;1.803999e-002
3.693169e+003;1.953407e-002
3.695098e+003;1.985322e-002
3.697026e+003;1.979478e-002
3.698955e+003;1.938867e-002
3.700884e+003;1.843275e-002
3.702812e+003;1.815917e-002
3.704741e+003;1.821490e-002
3.706669e+003;1.749251e-002
3.708598e+003;1.620469e-002
3.710526e+003;1.493467e-002
3.712455e+003;1.506648e-002
3.714383e+003;1.657448e-002
3.716312e+003;1.714124e-002
3.718240e+003;1.693393e-002
3.720169e+003;1.628690e-002
3.722098e+003;1.578354e-002
3.724026e+003;1.560662e-002
3.725955e+003;1.583618e-002
3.727883e+003;1.650787e-002
3.729812e+003;1.619530e-002
3.731740e+003;1.492562e-002
3.733669e+003;1.419860e-002
3.735597e+003;1.405289e-002
3.737526e+003;1.571372e-002
3.739455e+003;1.690017e-002
3.741383e+003;1.553140e-002
3.743312e+003;1.160327e-002
3.745240e+003;1.244765e-002
3.747169e+003;1.489328e-002
3.749097e+003;1.333868e-002
3.751026e+003;1.280364e-002
3.752954e+003;1.488087e-002
3.754883e+003;1.682498e-002
3.756812e+003;1.660470e-002
3.758740e+003;1.664264e-002
3.760668e+003;1.710519e-002
3.762597e+003;1.761119e-002
3.764526e+003;1.731910e-002
3.766454e+003;1.719750e-002
3.768383e+003;1.656029e-002
3.770311e+003;1.666829e-002
3.772240e+003;1.738597e-002
3.774168e+003;1.768645e-002
3.776097e+003;1.793587e-002
3.778025e+003;1.749748e-002
3.779954e+003;1.716985e-002
3.781883e+003;1.764981e-002
3.783811e+003;1.754084e-002
3.785740e+003;1.736345e-002
3.787668e+003;1.758645e-002
3.789597e+003;1.824424e-002
3.791525e+003;1.807526e-002
3.793454e+003;1.775103e-002
3.795382e+003;1.726207e-002
3.797311e+003;1.712821e-002
3.799240e+003;1.572142e-002
3.801168e+003;1.442516e-002
3.803097e+003;1.624517e-002
3.805025e+003;1.599731e-002
3.806954e+003;1.526164e-002
3.808882e+003;1.699016e-002
3.810811e+003;1.798577e-002
3.812739e+003;1.772590e-002
3.814668e+003;1.548402e-002
3.816596e+003;1.476163e-002
3.818525e+003;1.547300e-002
3.820454e+003;1.461678e-002
3.822382e+003;1.616572e-002
3.824311e+003;1.793787e-002
3.826239e+003;1.784354e-002
3.828168e+003;1.787658e-002
3.830096e+003;1.723090e-002
3.832025e+003;1.664990e-002
3.833953e+003;1.648660e-002
3.835882e+003;1.500357e-002
3.837811e+003;1.407568e-002
3.839739e+003;1.566329e-002
3.841667e+003;1.693021e-002
3.843596e+003;1.755419e-002
3.845525e+003;1.806113e-002
3.847453e+003;1.830917e-002
3.849382e+003;1.685856e-002
3.851310e+003;1.301865e-002
3.853239e+003;1.059110e-002
3.855167e+003;1.425438e-002
3.857096e+003;1.729765e-002
3.859024e+003;1.760491e-002
3.860953e+003;1.736548e-002
3.862882e+003;1.722097e-002
3.864810e+003;1.753470e-002
3.866739e+003;1.801875e-002
3.868667e+003;1.664884e-002
3.870596e+003;1.646874e-002
3.872524e+003;1.767627e-002
3.874453e+003;1.811402e-002
3.876381e+003;1.874320e-002
3.878310e+003;1.845615e-002
3.880239e+003;1.775983e-002
3.882167e+003;1.801305e-002
3.884096e+003;1.751652e-002
3.886024e+003;1.746212e-002
3.887953e+003;1.876568e-002
3.889881e+003;1.809574e-002
3.891810e+003;1.769978e-002
3.893738e+003;1.858512e-002
3.895667e+003;1.898381e-002
3.897595e+003;1.848813e-002
3.899524e+003;1.754446e-002
3.901453e+003;1.698258e-002
3.903381e+003;1.670623e-002
3.905310e+003;1.755499e-002
3.907238e+003;1.880623e-002
3.909167e+003;1.938143e-002
3.911095e+003;1.953116e-002
3.913024e+003;1.974412e-002
3.914952e+003;1.973261e-002
3.916881e+003;1.946196e-002
3.918810e+003;1.975036e-002
3.920738e+003;1.975137e-002
3.922667e+003;1.962548e-002
3.924595e+003;1.990927e-002
3.926524e+003;2.071180e-002
3.928452e+003;2.085577e-002
3.930381e+003;2.029233e-002
3.932309e+003;1.961865e-002
3.934238e+003;2.005416e-002
3.936167e+003;2.060905e-002
3.938095e+003;2.073366e-002
3.940023e+003;2.044057e-002
3.941952e+003;2.019392e-002
3.943881e+003;2.035844e-002
3.945809e+003;2.004326e-002
3.947738e+003;1.932091e-002
3.949666e+003;1.927397e-002
3.951595e+003;1.970220e-002
3.953523e+003;2.019180e-002
3.955452e+003;2.028529e-002
3.957380e+003;2.014876e-002
3.959309e+003;2.008754e-002
3.961238e+003;2.003105e-002
3.963166e+003;2.019742e-002
3.965095e+003;2.025293e-002
3.967023e+003;2.003022e-002
3.968952e+003;2.030723e-002
3.970880e+003;2.079209e-002
3.972809e+003;2.106660e-002
3.974737e+003;2.087121e-002
3.976666e+003;2.049771e-002
3.978594e+003;2.053394e-002
3.980523e+003;2.085671e-002
3.982452e+003;2.097784e-002
3.984380e+003;2.099047e-002
3.986309e+003;2.129082e-002
3.988237e+003;2.173776e-002
3.990166e+003;2.227926e-002
3.992094e+003;2.207031e-002
3.994023e+003;2.154729e-002
3.995951e+003;2.135798e-002
3.997880e+003;2.165942e-002
3.999809e+003;2.185043e-002
4.001737e+003;0.000000e+000
