3.992094e+002;0.000000e+000
4.011380e+002;0.000000e+000
4.030665e+002;0.000000e+000
4.049951e+002;0.000000e+000
4.069236e+002;0.000000e+000
4.088522e+002;0.000000e+000
4.107807e+002;0.000000e+000
4.127093e+002;0.000000e+000
4.146378e+002;0.000000e+000
4.165664e+002;0.000000e+000
4.184949e+002;0.000000e+000
4.204235e+002;0.000000e+000
4.223520e+002;0.000000e+000
4.242806e+002;0.000000e+000
4.262091e+002;0.000000e+000
4.281377e+002;0.000000e+000
4.300662e+002;0.000000e+000
4.319948e+002;0.000000e+000
4.339233e+002;0.000000e+000
4.358519e+002;0.000000e+000
4.377804e+002;0.000000e+000
4.397090e+002;0.000000e+000
4.416375e+002;0.000000e+000
4.435660e+002;0.000000e+000
4.454946e+002;0.000000e+000
4.474232e+002;0.000000e+000
4.493517e+002;0.000000e+000
4.512802e+002;0.000000e+000
4.532088e+002;0.000000e+000
4.551373e+002;0.000000e+000
4.570659e+002;0.000000e+000
4.589944e+002;0.000000e+000
4.609230e+002;0.000000e+000
4.628515e+002;0.000000e+000
4.647801e+002;0.000000e+000
4.667086e+002;0.000000e+000
4.686372e+002;0.000000e+000
4.705657e+002;0.000000e+000
4.724943e+002;0.000000e+000
4.744228e+002;0.000000e+000
4.763513e+002;0.000000e+000
4.782799e+002;0.000000e+000
4.802085e+002;0.000000e+000
4.821370e+002;0.000000e+000
4.840656e+002;0.000000e+000
4.859941e+002;0.000000e+000
4.879226e+002;0.000000e+000
4.898512e+002;0.000000e+000
4.917798e+002;0.000000e+000
4.937083e+002;0.000000e+000
4.956368e+002;0.000000e+000
4.975654e+002;0.000000e+000
4.994939e+002;0.000000e+000
5.014225e+002;0.000000e+000
5.033510e+002;0.000000e+000
5.052796e+002;0.000000e+000
5.072081e+002;0.000000e+000
5.091367e+002;0.000000e+000
5.110652e+002;0.000000e+000
5.129938e+002;0.000000e+000
5.149223e+002;0.000000e+000
5.168509e+002;0.000000e+000
5.187794e+002;0.000000e+000
5.207079e+002;0.000000e+000
5.226365e+002;0.000000e+000
5.245651e+002;0.000000e+000
5.264936e+002;0.000000e+000
5.284222e+002;0.000000e+000
5.303507e+002;0.000000e+000
5.322792e+002;0.000000e+000
5.342078e+002;0.000000e+000
5.361364e+002;0.000000e+000
5.380649e+002;0.000000e+000
5.399935e+002;0.000000e+000
5.419220e+002;0.000000e+000
5.438505e+002;0.000000e+000
5.457791e+002;0.000000e+000
5.477076e+002;0.000000e+000
5.496362e+002;0.000000e+000
5.515648e+002;0.000000e+000
5.534933e+002;0.000000e+000
5.554218e+002;0.000000e+000
5.573504e+002;0.000000e+000
5.592789e+002;0.000000e+000
5.612075e+002;0.000000e+000
5.631360e+002;0.000000e+000
5.650646e+002;0.000000e+000
5.669931e+002;0.000000e+000
5.689217e+002;0.000000e+000
5.708502e+002;0.000000e+000
5.727787e+002;0.000000e+000
5.747073e+002;0.000000e+000
5.766359e+002;0.000000e+000
5.785644e+002;0.000000e+000
5.804930e+002;0.000000e+000
5.824215e+002;0.000000e+000
5.843500e+002;0.000000e+000
5.862786e+002;0.000000e+000
5.882072e+002;0.000000e+000
5.901357e+002;0.000000e+000
5.920643e+002;0.000000e+000
5.939928e+002;0.000000e+000
5.959213e+002;0.000000e+000
5.978499e+002;0.000000e+000
5.997784e+002;3.904800e-002
6.017070e+002;4.541528e-002
6.036355e+002;4.356818e-002
6.055641e+002;4.171038e-002
6.074926e+002;4.223512e-002
6.094211e+002;3.828493e-002
6.113497e+002;3.596180e-002
6.132783e+002;3.610378e-002
6.152068e+002;3.510151e-002
6.171354e+002;3.594599e-002
6.190639e+002;3.942310e-002
6.209924e+002;3.800116e-002
6.229210e+002;3.654202e-002
6.248495e+002;3.687673e-002
6.267781e+002;3.534374e-002
6.287067e+002;3.307633e-002
6.306352e+002;3.494154e-002
6.325637e+002;3.578344e-002
6.344923e+002;3.786684e-002
6.364208e+002;3.787233e-002
6.383494e+002;3.873649e-002
6.402780e+002;3.679089e-002
6.422065e+002;3.520739e-002
6.441350e+002;3.553691e-002
6.460636e+002;3.432372e-002
6.479921e+002;3.467514e-002
6.499207e+002;3.671744e-002
6.518492e+002;3.848745e-002
6.537778e+002;3.628580e-002
6.557063e+002;3.274685e-002
6.576349e+002;3.150159e-002
6.595634e+002;3.284708e-002
6.614919e+002;3.477983e-002
6.634205e+002;3.394278e-002
6.653491e+002;3.235804e-002
6.672776e+002;3.182862e-002
6.692062e+002;3.125647e-002
6.711347e+002;2.993694e-002
6.730632e+002;3.044284e-002
6.749918e+002;3.223601e-002
6.769203e+002;3.338895e-002
6.788489e+002;3.373467e-002
6.807775e+002;3.173351e-002
6.827060e+002;3.034235e-002
6.846345e+002;3.018039e-002
6.865631e+002;2.973862e-002
6.884916e+002;3.000734e-002
6.904202e+002;3.063747e-002
6.923488e+002;3.006937e-002
6.942773e+002;3.007175e-002
6.962058e+002;3.029445e-002
6.981344e+002;2.991021e-002
7.000629e+002;3.040819e-002
7.019915e+002;3.092532e-002
7.039200e+002;3.330806e-002
7.058486e+002;3.585580e-002
7.077771e+002;3.933941e-002
7.097057e+002;4.727854e-002
7.116342e+002;5.561196e-002
7.135627e+002;5.881020e-002
7.154913e+002;5.680986e-002
7.174199e+002;5.214173e-002
7.193484e+002;4.690500e-002
7.212770e+002;4.240405e-002
7.232055e+002;3.935156e-002
7.251340e+002;3.701285e-002
7.270626e+002;3.495486e-002
7.289911e+002;3.419060e-002
7.309197e+002;3.455331e-002
7.328483e+002;3.396209e-002
7.347768e+002;3.232021e-002
7.367053e+002;3.102990e-002
7.386339e+002;3.101399e-002
7.405624e+002;3.151926e-002
7.424910e+002;3.184830e-002
7.444196e+002;3.160574e-002
7.463481e+002;3.162986e-002
7.482766e+002;3.127962e-002
7.502052e+002;3.115650e-002
7.521337e+002;3.086896e-002
7.540623e+002;3.055239e-002
7.559908e+002;3.047224e-002
7.579194e+002;3.062840e-002
7.598479e+002;3.086370e-002
7.617765e+002;3.093557e-002
7.637050e+002;3.132032e-002
7.656335e+002;3.196677e-002
7.675621e+002;3.232328e-002
7.694907e+002;3.225782e-002
7.714192e+002;3.128240e-002
7.733478e+002;3.113034e-002
7.752763e+002;3.189644e-002
7.772048e+002;3.198007e-002
7.791334e+002;3.211972e-002
7.810620e+002;3.329786e-002
7.829905e+002;3.375390e-002
7.849191e+002;3.364662e-002
7.868476e+002;3.422841e-002
7.887761e+002;3.529324e-002
7.907047e+002;3.633007e-002
7.926332e+002;3.804268e-002
7.945618e+002;3.922088e-002
7.964903e+002;3.938813e-002
7.984189e+002;4.058195e-002
8.003474e+002;4.228852e-002
8.022759e+002;4.427536e-002
8.042045e+002;4.792241e-002
8.061331e+002;5.225211e-002
8.080616e+002;5.557358e-002
8.099902e+002;5.679343e-002
8.119187e+002;5.494103e-002
8.138472e+002;5.163053e-002
8.157758e+002;4.853926e-002
8.177043e+002;4.615300e-002
8.196329e+002;4.457702e-002
8.215615e+002;4.307062e-002
8.234900e+002;4.280792e-002
8.254185e+002;4.385480e-002
8.273471e+002;4.480160e-002
8.292756e+002;4.571431e-002
8.312042e+002;4.672634e-002
8.331328e+002;4.879232e-002
8.350613e+002;5.221695e-002
8.369898e+002;5.655359e-002
8.389184e+002;6.144052e-002
8.408469e+002;6.453534e-002
8.427755e+002;6.274011e-002
8.447040e+002;5.857364e-002
8.466326e+002;5.604542e-002
8.485611e+002;5.287852e-002
8.504897e+002;4.907514e-002
8.524182e+002;4.725050e-002
8.543467e+002;4.658840e-002
8.562753e+002;4.649096e-002
8.582039e+002;4.697333e-002
8.601324e+002;4.774115e-002
8.620610e+002;4.989047e-002
8.639895e+002;5.417435e-002
8.659180e+002;6.047168e-002
8.678466e+002;7.106858e-002
8.697751e+002;8.811113e-002
8.717037e+002;1.078314e-001
8.736323e+002;1.228676e-001
8.755608e+002;1.261494e-001
8.774893e+002;1.166911e-001
8.794179e+002;1.008578e-001
8.813464e+002;8.616231e-002
8.832750e+002;7.397003e-002
8.852036e+002;6.100912e-002
8.871321e+002;4.922140e-002
8.890606e+002;4.328933e-002
8.909892e+002;4.294372e-002
8.929177e+002;4.551524e-002
8.948463e+002;4.946477e-002
8.967748e+002;5.360137e-002
8.987034e+002;5.619111e-002
9.006319e+002;5.563305e-002
9.025605e+002;5.122121e-002
9.044890e+002;4.568254e-002
9.064175e+002;4.145980e-002
9.083461e+002;3.849114e-002
9.102747e+002;3.670835e-002
9.122032e+002;3.535057e-002
9.141318e+002;3.417260e-002
9.160603e+002;3.371017e-002
9.179888e+002;3.381732e-002
9.199174e+002;3.346517e-002
9.218459e+002;3.327715e-002
9.237745e+002;3.366048e-002
9.257031e+002;3.390563e-002
9.276316e+002;3.384670e-002
9.295601e+002;3.381679e-002
9.314887e+002;3.425950e-002
9.334172e+002;3.539708e-002
9.353458e+002;3.684492e-002
9.372744e+002;3.829462e-002
9.392029e+002;4.008657e-002
9.411314e+002;4.122970e-002
9.430600e+002;4.097685e-002
9.449885e+002;4.011505e-002
9.469171e+002;3.948443e-002
9.488456e+002;3.975805e-002
9.507742e+002;4.072673e-002
9.527027e+002;4.149444e-002
9.546313e+002;4.239835e-002
9.565598e+002;4.306696e-002
9.584883e+002;4.403155e-002
9.604169e+002;4.594673e-002
9.623455e+002;4.845305e-002
9.642740e+002;5.183593e-002
9.662026e+002;5.632029e-002
9.681311e+002;6.209264e-002
9.700596e+002;6.834732e-002
9.719882e+002;7.260004e-002
9.739167e+002;7.257403e-002
9.758453e+002;6.758160e-002
9.777739e+002;6.016167e-002
9.797024e+002;5.296673e-002
9.816309e+002;4.702336e-002
9.835595e+002;4.303667e-002
9.854880e+002;4.133173e-002
9.874166e+002;4.141985e-002
9.893452e+002;4.333121e-002
9.912737e+002;4.699973e-002
9.932022e+002;5.194608e-002
9.951307e+002;5.722652e-002
9.970593e+002;6.055551e-002
9.989879e+002;5.962589e-002
1.000916e+003;5.542723e-002
1.002845e+003;4.991615e-002
1.004773e+003;4.517513e-002
1.006702e+003;4.172654e-002
1.008631e+003;3.917504e-002
1.010559e+003;3.722141e-002
1.012488e+003;3.557830e-002
1.014416e+003;3.445918e-002
1.016345e+003;3.407031e-002
1.018273e+003;3.366377e-002
1.020202e+003;3.302205e-002
1.022130e+003;3.244351e-002
1.024059e+003;3.228102e-002
1.025988e+003;3.227274e-002
1.027916e+003;3.198064e-002
1.029845e+003;3.189423e-002
1.031773e+003;3.219587e-002
1.033702e+003;3.259310e-002
1.035630e+003;3.312342e-002
1.037559e+003;3.352859e-002
1.039487e+003;3.395345e-002
1.041416e+003;3.449268e-002
1.043344e+003;3.548333e-002
1.045273e+003;3.556143e-002
1.047202e+003;3.522098e-002
1.049130e+003;3.513155e-002
1.051059e+003;3.395994e-002
1.052987e+003;3.231343e-002
1.054916e+003;3.084883e-002
1.056844e+003;3.016238e-002
1.058773e+003;3.021868e-002
1.060701e+003;3.015254e-002
1.062630e+003;2.956582e-002
1.064558e+003;2.936246e-002
1.066487e+003;2.946446e-002
1.068416e+003;2.966997e-002
1.070344e+003;3.034981e-002
1.072273e+003;3.050152e-002
1.074201e+003;2.958621e-002
1.076130e+003;2.924715e-002
1.078058e+003;2.986613e-002
1.079987e+003;3.024575e-002
1.081915e+003;3.020987e-002
1.083844e+003;3.056572e-002
1.085773e+003;3.098047e-002
1.087701e+003;3.116533e-002
1.089630e+003;3.130291e-002
1.091558e+003;3.194515e-002
1.093487e+003;3.278505e-002
1.095415e+003;3.432820e-002
1.097344e+003;3.658022e-002
1.099272e+003;3.813213e-002
1.101201e+003;3.881268e-002
1.103129e+003;3.887711e-002
1.105058e+003;3.803194e-002
1.106987e+003;3.607159e-002
1.108915e+003;3.322002e-002
1.110844e+003;3.103381e-002
1.112772e+003;2.963662e-002
1.114701e+003;2.893739e-002
1.116629e+003;2.876760e-002
1.118558e+003;2.868554e-002
1.120486e+003;2.906785e-002
1.122415e+003;2.918074e-002
1.124344e+003;2.878077e-002
1.126272e+003;2.859200e-002
1.128201e+003;2.901478e-002
1.130129e+003;2.966060e-002
1.132058e+003;2.995242e-002
1.133986e+003;3.085772e-002
1.135915e+003;3.308301e-002
1.137843e+003;3.522468e-002
1.139772e+003;3.758161e-002
1.141700e+003;4.059931e-002
1.143629e+003;4.438438e-002
1.145557e+003;4.787572e-002
1.147486e+003;5.132949e-002
1.149415e+003;5.503106e-002
1.151343e+003;5.854334e-002
1.153272e+003;6.043608e-002
1.155200e+003;6.094384e-002
1.157129e+003;6.085571e-002
1.159057e+003;6.086375e-002
1.160986e+003;6.123324e-002
1.162914e+003;6.095261e-002
1.164843e+003;6.039933e-002
1.166771e+003;5.946658e-002
1.168700e+003;5.670836e-002
1.170629e+003;5.248170e-002
1.172557e+003;4.805133e-002
1.174486e+003;4.365797e-002
1.176414e+003;3.934877e-002
1.178343e+003;3.586376e-002
1.180271e+003;3.352784e-002
1.182200e+003;3.173208e-002
1.184128e+003;3.044622e-002
1.186057e+003;2.958040e-002
1.187986e+003;2.916869e-002
1.189914e+003;2.934615e-002
1.191843e+003;2.987369e-002
1.193771e+003;3.041516e-002
1.195700e+003;3.066869e-002
1.197628e+003;3.072999e-002
1.199557e+003;3.058698e-002
1.201485e+003;3.036928e-002
1.203414e+003;3.068945e-002
1.205343e+003;3.133685e-002
1.207271e+003;3.195082e-002
1.209200e+003;3.279141e-002
1.211128e+003;3.403182e-002
1.213057e+003;3.591137e-002
1.214985e+003;3.737746e-002
1.216914e+003;3.829332e-002
1.218842e+003;3.839408e-002
1.220771e+003;3.748451e-002
1.222699e+003;3.617889e-002
1.224628e+003;3.483479e-002
1.226557e+003;3.373349e-002
1.228485e+003;3.311963e-002
1.230414e+003;3.267394e-002
1.232342e+003;3.242530e-002
1.234271e+003;3.259721e-002
1.236199e+003;3.309467e-002
1.238128e+003;3.342341e-002
1.240056e+003;3.386357e-002
1.241985e+003;3.393067e-002
1.243913e+003;3.387761e-002
1.245842e+003;3.441632e-002
1.247771e+003;3.545126e-002
1.249699e+003;3.715182e-002
1.251628e+003;3.957947e-002
1.253556e+003;4.261303e-002
1.255485e+003;4.480123e-002
1.257413e+003;4.419898e-002
1.259342e+003;4.154329e-002
1.261270e+003;3.890214e-002
1.263199e+003;3.718199e-002
1.265127e+003;3.630928e-002
1.267056e+003;3.594567e-002
1.268985e+003;3.556686e-002
1.270913e+003;3.506836e-002
1.272842e+003;3.529928e-002
1.274770e+003;3.588805e-002
1.276699e+003;3.636390e-002
1.278627e+003;3.688286e-002
1.280556e+003;3.779667e-002
1.282484e+003;3.901722e-002
1.284413e+003;4.041806e-002
1.286342e+003;4.192122e-002
1.288270e+003;4.373364e-002
1.290199e+003;4.589818e-002
1.292127e+003;4.809168e-002
1.294056e+003;4.973717e-002
1.295984e+003;5.054719e-002
1.297913e+003;5.054157e-002
1.299841e+003;5.066677e-002
1.301770e+003;5.170991e-002
1.303698e+003;5.311080e-002
1.305627e+003;5.304183e-002
1.307556e+003;5.062805e-002
1.309484e+003;4.807298e-002
1.311413e+003;4.655934e-002
1.313341e+003;4.610554e-002
1.315270e+003;4.690681e-002
1.317198e+003;4.823172e-002
1.319127e+003;4.966224e-002
1.321055e+003;5.146334e-002
1.322984e+003;5.396206e-002
1.324912e+003;5.685801e-002
1.326841e+003;5.952032e-002
1.328770e+003;6.122862e-002
1.330698e+003;6.148003e-002
1.332627e+003;6.054359e-002
1.334555e+003;5.957439e-002
1.336484e+003;5.916242e-002
1.338412e+003;5.925902e-002
1.340341e+003;6.037462e-002
1.342269e+003;6.256806e-002
1.344198e+003;6.493890e-002
1.346126e+003;6.770918e-002
1.348055e+003;7.131536e-002
1.349984e+003;7.548580e-002
1.351912e+003;8.054566e-002
1.353841e+003;8.745340e-002
1.355769e+003;9.526381e-002
1.357698e+003;1.010064e-001
1.359626e+003;1.025158e-001
1.361555e+003;1.015075e-001
1.363483e+003;1.017416e-001
1.365412e+003;1.055547e-001
1.367341e+003;1.139591e-001
1.369269e+003;1.298960e-001
1.371198e+003;1.540703e-001
1.373126e+003;1.822835e-001
1.375055e+003;2.049838e-001
1.376983e+003;2.083429e-001
1.378912e+003;1.890342e-001
1.380840e+003;1.601123e-001
1.382769e+003;1.333170e-001
1.384698e+003;1.135609e-001
1.386626e+003;1.012637e-001
1.388555e+003;9.657938e-002
1.390483e+003;9.642980e-002
1.392412e+003;9.700930e-002
1.394340e+003;9.843740e-002
1.396269e+003;1.019926e-001
1.398197e+003;1.051578e-001
1.400126e+003;1.087796e-001
1.402054e+003;1.125665e-001
1.403983e+003;1.147560e-001
1.405911e+003;1.173407e-001
1.407840e+003;1.206073e-001
1.409769e+003;1.234126e-001
1.411697e+003;1.263317e-001
1.413626e+003;1.292173e-001
1.415554e+003;1.312909e-001
1.417483e+003;1.313558e-001
1.419411e+003;1.322412e-001
1.421340e+003;1.361484e-001
1.423268e+003;1.386149e-001
1.425197e+003;1.404504e-001
1.427125e+003;1.426894e-001
1.429054e+003;1.451596e-001
1.430983e+003;1.493412e-001
1.432911e+003;1.544501e-001
1.434840e+003;1.555704e-001
1.436768e+003;1.537598e-001
1.438697e+003;1.553070e-001
1.440625e+003;1.577677e-001
1.442554e+003;1.605236e-001
1.444482e+003;1.652023e-001
1.446411e+003;1.711597e-001
1.448340e+003;1.773211e-001
1.450268e+003;1.826485e-001
1.452197e+003;1.852611e-001
1.454125e+003;1.837024e-001
1.456054e+003;1.771866e-001
1.457982e+003;1.746806e-001
1.459911e+003;1.750920e-001
1.461839e+003;1.703575e-001
1.463768e+003;1.611028e-001
1.465697e+003;1.519028e-001
1.467625e+003;1.434448e-001
1.469554e+003;1.327958e-001
1.471482e+003;1.208928e-001
1.473411e+003;1.126610e-001
1.475339e+003;1.082701e-001
1.477268e+003;1.045826e-001
1.479196e+003;1.013986e-001
1.481125e+003;9.788682e-002
1.483053e+003;9.514875e-002
1.484982e+003;9.215101e-002
1.486911e+003;8.852121e-002
1.488839e+003;8.485209e-002
1.490768e+003;8.284089e-002
1.492696e+003;8.235806e-002
1.494625e+003;7.936779e-002
1.496553e+003;7.588401e-002
1.498482e+003;7.521906e-002
1.500410e+003;7.516281e-002
1.502339e+003;7.394863e-002
1.504267e+003;6.819544e-002
1.506196e+003;6.156936e-002
1.508125e+003;6.279605e-002
1.510053e+003;6.531946e-002
1.511982e+003;6.429026e-002
1.513910e+003;6.289178e-002
1.515839e+003;6.058092e-002
1.517767e+003;5.846725e-002
1.519696e+003;5.486944e-002
1.521624e+003;5.217820e-002
1.523553e+003;5.333593e-002
1.525481e+003;5.341161e-002
1.527410e+003;5.334927e-002
1.529339e+003;5.328982e-002
1.531267e+003;5.170125e-002
1.533196e+003;4.912560e-002
1.535124e+003;4.896753e-002
1.537053e+003;4.580075e-002
1.538981e+003;3.893650e-002
1.540910e+003;3.799986e-002
1.542838e+003;4.073226e-002
1.544767e+003;4.201957e-002
1.546695e+003;4.267122e-002
1.548624e+003;4.210043e-002
1.550553e+003;4.116821e-002
1.552481e+003;3.902494e-002
1.554410e+003;3.606677e-002
1.556338e+003;3.262146e-002
1.558267e+003;2.671828e-002
1.560195e+003;2.841190e-002
1.562124e+003;3.479875e-002
1.564052e+003;3.611962e-002
1.565981e+003;3.540647e-002
1.567910e+003;3.393977e-002
1.569838e+003;3.299971e-002
1.571767e+003;3.430156e-002
1.573695e+003;3.264654e-002
1.575624e+003;2.913938e-002
1.577552e+003;3.138885e-002
1.579481e+003;3.448300e-002
1.581409e+003;3.461367e-002
1.583338e+003;3.435406e-002
1.585266e+003;3.385518e-002
1.587195e+003;3.320861e-002
1.589124e+003;3.232624e-002
1.591052e+003;3.176613e-002
1.592981e+003;3.123803e-002
1.594909e+003;3.107816e-002
1.596838e+003;3.109442e-002
1.598766e+003;3.059740e-002
1.600695e+003;3.003901e-002
1.602623e+003;2.975122e-002
1.604552e+003;2.962545e-002
1.606480e+003;2.939741e-002
1.608409e+003;2.900993e-002
1.610338e+003;2.885070e-002
1.612266e+003;2.894691e-002
1.614195e+003;2.715479e-002
1.616123e+003;2.378546e-002
1.618052e+003;2.541184e-002
1.619980e+003;2.806386e-002
1.621909e+003;2.683457e-002
1.623837e+003;2.585598e-002
1.625766e+003;2.657330e-002
1.627694e+003;2.678900e-002
1.629623e+003;2.746886e-002
1.631552e+003;2.770546e-002
1.633480e+003;2.463163e-002
1.635409e+003;2.167363e-002
1.637337e+003;2.427272e-002
1.639266e+003;2.701317e-002
1.641194e+003;2.751345e-002
1.643123e+003;2.633057e-002
1.645051e+003;2.304040e-002
1.646980e+003;2.220281e-002
1.648909e+003;2.442667e-002
1.650837e+003;2.052918e-002
1.652766e+003;1.415054e-002
1.654694e+003;1.912395e-002
1.656623e+003;2.504990e-002
1.658551e+003;2.588830e-002
1.660480e+003;2.479560e-002
1.662408e+003;2.334291e-002
1.664337e+003;2.425712e-002
1.666266e+003;2.442639e-002
1.668194e+003;2.205735e-002
1.670123e+003;2.147741e-002
1.672051e+003;2.274021e-002
1.673980e+003;2.149231e-002
1.675908e+003;2.134225e-002
1.677837e+003;2.337714e-002
1.679765e+003;2.319731e-002
1.681694e+003;2.086832e-002
1.683622e+003;1.570293e-002
1.685551e+003;1.679501e-002
1.687479e+003;2.143829e-002
1.689408e+003;2.255694e-002
1.691337e+003;2.291443e-002
1.693265e+003;2.098087e-002
1.695194e+003;1.659317e-002
1.697122e+003;1.677958e-002
1.699051e+003;1.520533e-002
1.700979e+003;1.525886e-002
1.702908e+003;1.970050e-002
1.704836e+003;2.000763e-002
1.706765e+003;2.033032e-002
1.708693e+003;2.095003e-002
1.710622e+003;2.109919e-002
1.712551e+003;1.992201e-002
1.714479e+003;1.720984e-002
1.716408e+003;1.346936e-002
1.718336e+003;1.388071e-002
1.720265e+003;1.760377e-002
1.722193e+003;1.901714e-002
1.724122e+003;1.901406e-002
1.726050e+003;1.914566e-002
1.727979e+003;1.865122e-002
1.729908e+003;1.774602e-002
1.731836e+003;1.474236e-002
1.733765e+003;1.170837e-002
1.735693e+003;1.494074e-002
1.737622e+003;1.714162e-002
1.739550e+003;1.611548e-002
1.741479e+003;1.666770e-002
1.743407e+003;1.704467e-002
1.745336e+003;1.687044e-002
1.747265e+003;1.587577e-002
1.749193e+003;1.426999e-002
1.751122e+003;1.355655e-002
1.753050e+003;1.520560e-002
1.754979e+003;1.568823e-002
1.756907e+003;1.525323e-002
1.758836e+003;1.535428e-002
1.760764e+003;1.431728e-002
1.762693e+003;1.423818e-002
1.764621e+003;1.511372e-002
1.766550e+003;1.429944e-002
1.768479e+003;1.361382e-002
1.770407e+003;1.226476e-002
1.772336e+003;1.070404e-002
1.774264e+003;1.248301e-002
1.776193e+003;1.431396e-002
1.778121e+003;1.461274e-002
1.780050e+003;1.424154e-002
1.781978e+003;1.446528e-002
1.783907e+003;1.456946e-002
1.785835e+003;1.521850e-002
1.787764e+003;1.655906e-002
1.789693e+003;1.676777e-002
1.791621e+003;1.698510e-002
1.793550e+003;1.950496e-002
1.795478e+003;2.231434e-002
1.797407e+003;2.268239e-002
1.799335e+003;2.169523e-002
1.801264e+003;2.070086e-002
1.803192e+003;1.997481e-002
1.805121e+003;1.864852e-002
1.807049e+003;1.712763e-002
1.808978e+003;1.536001e-002
1.810907e+003;1.407894e-002
1.812835e+003;1.378175e-002
1.814764e+003;1.350969e-002
1.816692e+003;1.309517e-002
1.818621e+003;1.316101e-002
1.820549e+003;1.308738e-002
1.822478e+003;1.276054e-002
1.824406e+003;1.211598e-002
1.826335e+003;1.223466e-002
1.828264e+003;1.182718e-002
1.830192e+003;1.139052e-002
1.832121e+003;1.235458e-002
1.834049e+003;1.288572e-002
1.835978e+003;1.280091e-002
1.837906e+003;1.272673e-002
1.839835e+003;1.251834e-002
1.841763e+003;1.138620e-002
1.843692e+003;9.712699e-003
1.845620e+003;1.038228e-002
1.847549e+003;1.140494e-002
1.849478e+003;1.163356e-002
1.851406e+003;1.185081e-002
1.853335e+003;1.173478e-002
1.855263e+003;1.148938e-002
1.857192e+003;1.131165e-002
1.859120e+003;1.124853e-002
1.861049e+003;1.135022e-002
1.862977e+003;1.126792e-002
1.864906e+003;1.089878e-002
1.866834e+003;1.006818e-002
1.868763e+003;9.388522e-003
1.870692e+003;1.010559e-002
1.872620e+003;1.079279e-002
1.874549e+003;1.075525e-002
1.876477e+003;1.064923e-002
1.878406e+003;1.066132e-002
1.880334e+003;1.066709e-002
1.882263e+003;1.055851e-002
1.884191e+003;1.061317e-002
1.886120e+003;1.075206e-002
1.888048e+003;1.056788e-002
1.889977e+003;1.036531e-002
1.891906e+003;1.079894e-002
1.893834e+003;1.110387e-002
1.895763e+003;1.125544e-002
1.897691e+003;1.126520e-002
1.899620e+003;1.129315e-002
1.901548e+003;1.124643e-002
1.903477e+003;1.100595e-002
1.905405e+003;1.065015e-002
1.907334e+003;1.037803e-002
1.909262e+003;1.025144e-002
1.911191e+003;1.046787e-002
1.913120e+003;1.065551e-002
1.915048e+003;1.051546e-002
1.916977e+003;9.617768e-003
1.918905e+003;9.513781e-003
1.920834e+003;1.005560e-002
1.922762e+003;9.827952e-003
1.924691e+003;9.982529e-003
1.926619e+003;1.030681e-002
1.928548e+003;1.017952e-002
1.930477e+003;9.854084e-003
1.932405e+003;9.474022e-003
1.934334e+003;9.394684e-003
1.936262e+003;9.604895e-003
1.938191e+003;9.380633e-003
1.940119e+003;9.001967e-003
1.942048e+003;8.938781e-003
1.943976e+003;9.176318e-003
1.945905e+003;9.167044e-003
1.947833e+003;9.297148e-003
1.949762e+003;9.453060e-003
1.951691e+003;9.464032e-003
1.953619e+003;9.362588e-003
1.955548e+003;9.178720e-003
1.957476e+003;9.075177e-003
1.959405e+003;9.289261e-003
1.961333e+003;9.638603e-003
1.963262e+003;9.743873e-003
1.965190e+003;9.477646e-003
1.967119e+003;9.125253e-003
1.969047e+003;9.052102e-003
1.970976e+003;9.100316e-003
1.972905e+003;9.152222e-003
1.974833e+003;9.272133e-003
1.976762e+003;9.389030e-003
1.978690e+003;9.514560e-003
1.980619e+003;9.620648e-003
1.982547e+003;9.326736e-003
1.984476e+003;9.062083e-003
1.986404e+003;9.154355e-003
1.988333e+003;9.645344e-003
1.990261e+003;9.739434e-003
1.992190e+003;9.319085e-003
1.994119e+003;9.396547e-003
1.996047e+003;9.534610e-003
1.997976e+003;9.524315e-003
1.999904e+003;9.732285e-003
2.001833e+003;9.929879e-003
2.003761e+003;9.797077e-003
2.005690e+003;9.464879e-003
2.007618e+003;9.317460e-003
2.009547e+003;9.322199e-003
2.011476e+003;9.502606e-003
2.013404e+003;9.547583e-003
2.015333e+003;9.398578e-003
2.017261e+003;9.542299e-003
2.019190e+003;9.927980e-003
2.021118e+003;9.968527e-003
2.023047e+003;9.828324e-003
2.024975e+003;9.748177e-003
2.026904e+003;9.881742e-003
2.028833e+003;1.000640e-002
2.030761e+003;1.009812e-002
2.032690e+003;1.007299e-002
2.034618e+003;1.002074e-002
2.036547e+003;9.920726e-003
2.038475e+003;9.838594e-003
2.040404e+003;9.896081e-003
2.042332e+003;1.008144e-002
2.044261e+003;1.019913e-002
2.046189e+003;1.030542e-002
2.048118e+003;1.036276e-002
2.050047e+003;1.025992e-002
2.051975e+003;1.016094e-002
2.053904e+003;1.017657e-002
2.055832e+003;9.897437e-003
2.057761e+003;9.745398e-003
2.059689e+003;9.917946e-003
2.061618e+003;1.001450e-002
2.063546e+003;9.965679e-003
2.065475e+003;1.002654e-002
2.067404e+003;1.000355e-002
2.069332e+003;9.902318e-003
2.071260e+003;9.883946e-003
2.073189e+003;1.017450e-002
2.075118e+003;1.054354e-002
2.077046e+003;1.063412e-002
2.078975e+003;1.059028e-002
2.080903e+003;1.052096e-002
2.082832e+003;1.058197e-002
2.084760e+003;1.042952e-002
2.086689e+003;1.044544e-002
2.088617e+003;1.077784e-002
2.090546e+003;1.093864e-002
2.092475e+003;1.082428e-002
2.094403e+003;1.066828e-002
2.096332e+003;1.043746e-002
2.098260e+003;1.034220e-002
2.100189e+003;1.070822e-002
2.102117e+003;1.106750e-002
2.104046e+003;1.123871e-002
2.105974e+003;1.083240e-002
2.107903e+003;1.055134e-002
2.109832e+003;1.056662e-002
2.111760e+003;1.048993e-002
2.113688e+003;1.036853e-002
2.115617e+003;1.068655e-002
2.117546e+003;1.110343e-002
2.119474e+003;1.112022e-002
2.121403e+003;1.130155e-002
2.123331e+003;1.168597e-002
2.125260e+003;1.200850e-002
2.127188e+003;1.238413e-002
2.129117e+003;1.252431e-002
2.131045e+003;1.276003e-002
2.132974e+003;1.298656e-002
2.134903e+003;1.298441e-002
2.136831e+003;1.275846e-002
2.138760e+003;1.254866e-002
2.140688e+003;1.240531e-002
2.142617e+003;1.272253e-002
2.144545e+003;1.288992e-002
2.146474e+003;1.265021e-002
2.148402e+003;1.250545e-002
2.150331e+003;1.240790e-002
2.152260e+003;1.244551e-002
2.154188e+003;1.256875e-002
2.156117e+003;1.268637e-002
2.158045e+003;1.312543e-002
2.159974e+003;1.328931e-002
2.161902e+003;1.327541e-002
2.163831e+003;1.329140e-002
2.165759e+003;1.324825e-002
2.167688e+003;1.324832e-002
2.169616e+003;1.347380e-002
2.171545e+003;1.372259e-002
2.173474e+003;1.392553e-002
2.175402e+003;1.398421e-002
2.177331e+003;1.404324e-002
2.179259e+003;1.383306e-002
2.181188e+003;1.354062e-002
2.183116e+003;1.342971e-002
2.185045e+003;1.353768e-002
2.186973e+003;1.370091e-002
2.188902e+003;1.355450e-002
2.190831e+003;1.341703e-002
2.192759e+003;1.354452e-002
2.194688e+003;1.342530e-002
2.196616e+003;1.322782e-002
2.198545e+003;1.322659e-002
2.200473e+003;1.320255e-002
2.202402e+003;1.316945e-002
2.204330e+003;1.327206e-002
2.206259e+003;1.316361e-002
2.208188e+003;1.300066e-002
2.210116e+003;1.304064e-002
2.212044e+003;1.317167e-002
2.213973e+003;1.308356e-002
2.215902e+003;1.285251e-002
2.217830e+003;1.290760e-002
2.219759e+003;1.327103e-002
2.221687e+003;1.320893e-002
2.223616e+003;1.307482e-002
2.225544e+003;1.308738e-002
2.227473e+003;1.313608e-002
2.229401e+003;1.328880e-002
2.231330e+003;1.353734e-002
2.233259e+003;1.341239e-002
2.235187e+003;1.316682e-002
2.237116e+003;1.315814e-002
2.239044e+003;1.292589e-002
2.240973e+003;1.262373e-002
2.242901e+003;1.280292e-002
2.244830e+003;1.305361e-002
2.246758e+003;1.328115e-002
2.248687e+003;1.335840e-002
2.250615e+003;1.356961e-002
2.252544e+003;1.380908e-002
2.254473e+003;1.407555e-002
2.256401e+003;1.418258e-002
2.258330e+003;1.402811e-002
2.260258e+003;1.395646e-002
2.262187e+003;1.395119e-002
2.264115e+003;1.355731e-002
2.266044e+003;1.332163e-002
2.267972e+003;1.343781e-002
2.269901e+003;1.370091e-002
2.271830e+003;1.356295e-002
2.273758e+003;1.305655e-002
2.275687e+003;1.274594e-002
2.277615e+003;1.283336e-002
2.279544e+003;1.283504e-002
2.281472e+003;1.252629e-002
2.283401e+003;1.251125e-002
2.285329e+003;1.272301e-002
2.287258e+003;1.287852e-002
2.289187e+003;1.268756e-002
2.291115e+003;1.266000e-002
2.293043e+003;1.267794e-002
2.294972e+003;1.254556e-002
2.296901e+003;1.250631e-002
2.298829e+003;1.243419e-002
2.300758e+003;1.258997e-002
2.302686e+003;1.291623e-002
2.304615e+003;1.292965e-002
2.306543e+003;1.284098e-002
2.308472e+003;1.286790e-002
2.310400e+003;1.259153e-002
2.312329e+003;1.229547e-002
2.314258e+003;1.245925e-002
2.316186e+003;1.267494e-002
2.318115e+003;1.276945e-002
2.320043e+003;1.294009e-002
2.321972e+003;1.288722e-002
2.323900e+003;1.284487e-002
2.325829e+003;1.290268e-002
2.327757e+003;1.291927e-002
2.329686e+003;1.307506e-002
2.331615e+003;1.326557e-002
2.333543e+003;1.312597e-002
2.335472e+003;1.296331e-002
2.337400e+003;1.326690e-002
2.339329e+003;1.373411e-002
2.341257e+003;1.395355e-002
2.343186e+003;1.373589e-002
2.345114e+003;1.384527e-002
2.347043e+003;1.450652e-002
2.348971e+003;1.481037e-002
2.350900e+003;1.457933e-002
2.352829e+003;1.436567e-002
2.354757e+003;1.427533e-002
2.356686e+003;1.431886e-002
2.358614e+003;1.428978e-002
2.360543e+003;1.443431e-002
2.362471e+003;1.464183e-002
2.364400e+003;1.450769e-002
2.366328e+003;1.430451e-002
2.368257e+003;1.453212e-002
2.370186e+003;1.484438e-002
2.372114e+003;1.495140e-002
2.374042e+003;1.515983e-002
2.375971e+003;1.536121e-002
2.377900e+003;1.543416e-002
2.379828e+003;1.548927e-002
2.381757e+003;1.549514e-002
2.383685e+003;1.543203e-002
2.385614e+003;1.547818e-002
2.387542e+003;1.565883e-002
2.389471e+003;1.575643e-002
2.391399e+003;1.581065e-002
2.393328e+003;1.578773e-002
2.395257e+003;1.570768e-002
2.397185e+003;1.562242e-002
2.399114e+003;1.570129e-002
2.401042e+003;1.595840e-002
2.402971e+003;1.603729e-002
2.404899e+003;1.598036e-002
2.406828e+003;1.593241e-002
2.408756e+003;1.602389e-002
2.410685e+003;1.623664e-002
2.412614e+003;1.630224e-002
2.414542e+003;1.622192e-002
2.416471e+003;1.637573e-002
2.418399e+003;1.658532e-002
2.420328e+003;1.647397e-002
2.422256e+003;1.659837e-002
2.424185e+003;1.685863e-002
2.426113e+003;1.690210e-002
2.428042e+003;1.707445e-002
2.429970e+003;1.710567e-002
2.431899e+003;1.698796e-002
2.433828e+003;1.698751e-002
2.435756e+003;1.674607e-002
2.437685e+003;1.640408e-002
2.439613e+003;1.620448e-002
2.441542e+003;1.626179e-002
2.443470e+003;1.626440e-002
2.445399e+003;1.596077e-002
2.447327e+003;1.569888e-002
2.449256e+003;1.566377e-002
2.451185e+003;1.570665e-002
2.453113e+003;1.557705e-002
2.455042e+003;1.546592e-002
2.456970e+003;1.560528e-002
2.458899e+003;1.572221e-002
2.460827e+003;1.559460e-002
2.462756e+003;1.557320e-002
2.464684e+003;1.545857e-002
2.466613e+003;1.552969e-002
2.468542e+003;1.571489e-002
2.470470e+003;1.573684e-002
2.472398e+003;1.573705e-002
2.474327e+003;1.597713e-002
2.476256e+003;1.624827e-002
2.478184e+003;1.635292e-002
2.480113e+003;1.664856e-002
2.482041e+003;1.697621e-002
2.483970e+003;1.716968e-002
2.485898e+003;1.743391e-002
2.487827e+003;1.767403e-002
2.489755e+003;1.790393e-002
2.491684e+003;1.828529e-002
2.493613e+003;1.859692e-002
2.495541e+003;1.907655e-002
2.497470e+003;1.954561e-002
2.499398e+003;2.003792e-002
2.501327e+003;2.049667e-002
2.503255e+003;2.101498e-002
2.505184e+003;2.141340e-002
2.507112e+003;2.191563e-002
2.509041e+003;2.270194e-002
2.510969e+003;2.321360e-002
2.512898e+003;2.343337e-002
2.514827e+003;2.370721e-002
2.516755e+003;2.408691e-002
2.518684e+003;2.443336e-002
2.520612e+003;2.463047e-002
2.522541e+003;2.459130e-002
2.524469e+003;2.477202e-002
2.526398e+003;2.482156e-002
2.528326e+003;2.451914e-002
2.530255e+003;2.416036e-002
2.532184e+003;2.389716e-002
2.534112e+003;2.377409e-002
2.536041e+003;2.358202e-002
2.537969e+003;2.305190e-002
2.539898e+003;2.264416e-002
2.541826e+003;2.275899e-002
2.543755e+003;2.283833e-002
2.545683e+003;2.283550e-002
2.547612e+003;2.296375e-002
2.549541e+003;2.314202e-002
2.551469e+003;2.354610e-002
2.553397e+003;2.402198e-002
2.555326e+003;2.418264e-002
2.557255e+003;2.417861e-002
2.559183e+003;2.435230e-002
2.561112e+003;2.469938e-002
2.563040e+003;2.503323e-002
2.564969e+003;2.526207e-002
2.566897e+003;2.545168e-002
2.568826e+003;2.581491e-002
2.570754e+003;2.642278e-002
2.572683e+003;2.732325e-002
2.574612e+003;2.805594e-002
2.576540e+003;2.891812e-002
2.578469e+003;2.981821e-002
2.580397e+003;3.003937e-002
2.582326e+003;2.996488e-002
2.584254e+003;2.948524e-002
2.586183e+003;2.851949e-002
2.588111e+003;2.767487e-002
2.590040e+003;2.714510e-002
2.591969e+003;2.679961e-002
2.593897e+003;2.651684e-002
2.595826e+003;2.631339e-002
2.597754e+003;2.598661e-002
2.599683e+003;2.587427e-002
2.601611e+003;2.614771e-002
2.603540e+003;2.649071e-002
2.605468e+003;2.674911e-002
2.607397e+003;2.709900e-002
2.609325e+003;2.755027e-002
2.611254e+003;2.811242e-002
2.613183e+003;2.847979e-002
2.615111e+003;2.839171e-002
2.617040e+003;2.822725e-002
2.618968e+003;2.830778e-002
2.620897e+003;2.795334e-002
2.622825e+003;2.780623e-002
2.624754e+003;2.770284e-002
2.626682e+003;2.735564e-002
2.628611e+003;2.716918e-002
2.630540e+003;2.676278e-002
2.632468e+003;2.638743e-002
2.634396e+003;2.648412e-002
2.636325e+003;2.660138e-002
2.638254e+003;2.651423e-002
2.640182e+003;2.673868e-002
2.642111e+003;2.728289e-002
2.644039e+003;2.778397e-002
2.645968e+003;2.812359e-002
2.647896e+003;2.856733e-002
2.649825e+003;2.878707e-002
2.651753e+003;2.897645e-002
2.653682e+003;2.946124e-002
2.655611e+003;2.965127e-002
2.657539e+003;2.999754e-002
2.659468e+003;3.054756e-002
2.661396e+003;3.043449e-002
2.663325e+003;3.025438e-002
2.665253e+003;3.032330e-002
2.667182e+003;3.030461e-002
2.669110e+003;3.025083e-002
2.671039e+003;3.048741e-002
2.672968e+003;3.073266e-002
2.674896e+003;3.083787e-002
2.676825e+003;3.122828e-002
2.678753e+003;3.139675e-002
2.680682e+003;3.128311e-002
2.682610e+003;3.117900e-002
2.684539e+003;3.124996e-002
2.686467e+003;3.150298e-002
2.688396e+003;3.157217e-002
2.690324e+003;3.127236e-002
2.692253e+003;3.113258e-002
2.694182e+003;3.091276e-002
2.696110e+003;3.066549e-002
2.698039e+003;3.080269e-002
2.699967e+003;3.142518e-002
2.701896e+003;3.212615e-002
2.703824e+003;3.278969e-002
2.705753e+003;3.350257e-002
2.707681e+003;3.444031e-002
2.709610e+003;3.538925e-002
2.711539e+003;3.648071e-002
2.713467e+003;3.790982e-002
2.715396e+003;3.921866e-002
2.717324e+003;4.062204e-002
2.719253e+003;4.239225e-002
2.721181e+003;4.379487e-002
2.723110e+003;4.409738e-002
2.725038e+003;4.384648e-002
2.726967e+003;4.325759e-002
2.728896e+003;4.190724e-002
2.730824e+003;4.056209e-002
2.732752e+003;3.922675e-002
2.734681e+003;3.796414e-002
2.736610e+003;3.713319e-002
2.738538e+003;3.633122e-002
2.740467e+003;3.541441e-002
2.742395e+003;3.466218e-002
2.744324e+003;3.384519e-002
2.746252e+003;3.316780e-002
2.748181e+003;3.287782e-002
2.750109e+003;3.276182e-002
2.752038e+003;3.274349e-002
2.753967e+003;3.275414e-002
2.755895e+003;3.316280e-002
2.757824e+003;3.372425e-002
2.759752e+003;3.403053e-002
2.761681e+003;3.436356e-002
2.763609e+003;3.481613e-002
2.765538e+003;3.506563e-002
2.767466e+003;3.543368e-002
2.769395e+003;3.608995e-002
2.771323e+003;3.661681e-002
2.773252e+003;3.699109e-002
2.775181e+003;3.743690e-002
2.777109e+003;3.801245e-002
2.779038e+003;3.892124e-002
2.780966e+003;3.995087e-002
2.782895e+003;4.148066e-002
2.784823e+003;4.323274e-002
2.786752e+003;4.470275e-002
2.788680e+003;4.620824e-002
2.790609e+003;4.784934e-002
2.792538e+003;4.937745e-002
2.794466e+003;5.062127e-002
2.796395e+003;5.192338e-002
2.798323e+003;5.336654e-002
2.800252e+003;5.475945e-002
2.802180e+003;5.637118e-002
2.804109e+003;5.859241e-002
2.806037e+003;6.066706e-002
2.807966e+003;6.228091e-002
2.809895e+003;6.377182e-002
2.811823e+003;6.523687e-002
2.813751e+003;6.700462e-002
2.815680e+003;6.902035e-002
2.817609e+003;7.077115e-002
2.819537e+003;7.269552e-002
2.821466e+003;7.540763e-002
2.823394e+003;7.877824e-002
2.825323e+003;8.297420e-002
2.827251e+003;8.838899e-002
2.829180e+003;9.576719e-002
2.831108e+003;1.047610e-001
2.833037e+003;1.139622e-001
2.834966e+003;1.214907e-001
2.836894e+003;1.248907e-001
2.838823e+003;1.239826e-001
2.840751e+003;1.203932e-001
2.842680e+003;1.154522e-001
2.844608e+003;1.102966e-001
2.846537e+003;1.061878e-001
2.848465e+003;1.030736e-001
2.850394e+003;1.009904e-001
2.852323e+003;1.000136e-001
2.854251e+003;9.974045e-002
2.856180e+003;1.004114e-001
2.858108e+003;1.030076e-001
2.860037e+003;1.081978e-001
2.861965e+003;1.157585e-001
2.863894e+003;1.239016e-001
2.865822e+003;1.302066e-001
2.867751e+003;1.337139e-001
2.869679e+003;1.350936e-001
2.871608e+003;1.357817e-001
2.873536e+003;1.364251e-001
2.875465e+003;1.361287e-001
2.877394e+003;1.346224e-001
2.879322e+003;1.327120e-001
2.881251e+003;1.314726e-001
2.883179e+003;1.308986e-001
2.885108e+003;1.307541e-001
2.887036e+003;1.314653e-001
2.888965e+003;1.336158e-001
2.890893e+003;1.365050e-001
2.892822e+003;1.397659e-001
2.894750e+003;1.437394e-001
2.896679e+003;1.482768e-001
2.898608e+003;1.536212e-001
2.900536e+003;1.593683e-001
2.902465e+003;1.649420e-001
2.904393e+003;1.709957e-001
2.906322e+003;1.766164e-001
2.908250e+003;1.814705e-001
2.910179e+003;1.856345e-001
2.912107e+003;1.886475e-001
2.914036e+003;1.901794e-001
2.915965e+003;1.902039e-001
2.917893e+003;1.884993e-001
2.919822e+003;1.853900e-001
2.921750e+003;1.808782e-001
2.923679e+003;1.745852e-001
2.925607e+003;1.674528e-001
2.927536e+003;1.605572e-001
2.929464e+003;1.528934e-001
2.931393e+003;1.440542e-001
2.933322e+003;1.358419e-001
2.935250e+003;1.288597e-001
2.937178e+003;1.236631e-001
2.939107e+003;1.207929e-001
2.941036e+003;1.215404e-001
2.942964e+003;1.261812e-001
2.944893e+003;1.338573e-001
2.946821e+003;1.422578e-001
2.948750e+003;1.487721e-001
2.950678e+003;1.526117e-001
2.952607e+003;1.534978e-001
2.954535e+003;1.515691e-001
2.956464e+003;1.480610e-001
2.958393e+003;1.440199e-001
2.960321e+003;1.385820e-001
2.962250e+003;1.312014e-001
2.964178e+003;1.231454e-001
2.966107e+003;1.154078e-001
2.968035e+003;1.078881e-001
2.969964e+003;1.008721e-001
2.971892e+003;9.477234e-002
2.973821e+003;8.920678e-002
2.975750e+003;8.388202e-002
2.977678e+003;7.909011e-002
2.979607e+003;7.494938e-002
2.981535e+003;7.167025e-002
2.983464e+003;6.886345e-002
2.985392e+003;6.577607e-002
2.987321e+003;6.283824e-002
2.989249e+003;6.052108e-002
2.991178e+003;5.808507e-002
2.993106e+003;5.602597e-002
2.995035e+003;5.427327e-002
2.996964e+003;5.270864e-002
2.998892e+003;5.116719e-002
3.000821e+003;4.940417e-002
3.002749e+003;4.731382e-002
3.004678e+003;4.517369e-002
3.006606e+003;4.302621e-002
3.008535e+003;4.147150e-002
3.010463e+003;4.022343e-002
3.012392e+003;3.856772e-002
3.014321e+003;3.722311e-002
3.016249e+003;3.625330e-002
3.018177e+003;3.522101e-002
3.020106e+003;3.385576e-002
3.022035e+003;3.251732e-002
3.023963e+003;3.139116e-002
3.025892e+003;3.046936e-002
3.027820e+003;2.980619e-002
3.029749e+003;2.914013e-002
3.031677e+003;2.847852e-002
3.033606e+003;2.762325e-002
3.035534e+003;2.655178e-002
3.037463e+003;2.577440e-002
3.039392e+003;2.557456e-002
3.041320e+003;2.543190e-002
3.043249e+003;2.484296e-002
3.045177e+003;2.422223e-002
3.047106e+003;2.390735e-002
3.049034e+003;2.385340e-002
3.050963e+003;2.351647e-002
3.052891e+003;2.297504e-002
3.054820e+003;2.278500e-002
3.056749e+003;2.248229e-002
3.058677e+003;2.213823e-002
3.060606e+003;2.200265e-002
3.062534e+003;2.202224e-002
3.064463e+003;2.184259e-002
3.066391e+003;2.123535e-002
3.068320e+003;2.062736e-002
3.070248e+003;2.065495e-002
3.072177e+003;2.075146e-002
3.074105e+003;2.067382e-002
3.076034e+003;2.036285e-002
3.077963e+003;1.988978e-002
3.079891e+003;1.966798e-002
3.081820e+003;1.968580e-002
3.083748e+003;1.980470e-002
3.085677e+003;1.999267e-002
3.087605e+003;1.999583e-002
3.089534e+003;1.953962e-002
3.091462e+003;1.944893e-002
3.093391e+003;1.960693e-002
3.095320e+003;1.968843e-002
3.097248e+003;1.960485e-002
3.099177e+003;1.933161e-002
3.101105e+003;1.919310e-002
3.103034e+003;1.925218e-002
3.104962e+003;1.944574e-002
3.106891e+003;1.954977e-002
3.108819e+003;1.956308e-002
3.110748e+003;1.966552e-002
3.112677e+003;1.974956e-002
3.114605e+003;1.953314e-002
3.116533e+003;1.945250e-002
3.118462e+003;1.938344e-002
3.120391e+003;1.960901e-002
3.122319e+003;1.982846e-002
3.124248e+003;1.969523e-002
3.126176e+003;1.967751e-002
3.128105e+003;1.982783e-002
3.130033e+003;2.026411e-002
3.131962e+003;2.066162e-002
3.133890e+003;2.054426e-002
3.135819e+003;2.010732e-002
3.137748e+003;1.965661e-002
3.139676e+003;1.982194e-002
3.141605e+003;2.039862e-002
3.143533e+003;2.073811e-002
3.145462e+003;2.070224e-002
3.147390e+003;2.058761e-002
3.149319e+003;2.076265e-002
3.151247e+003;2.057712e-002
3.153176e+003;2.008015e-002
3.155104e+003;1.999337e-002
3.157033e+003;2.004614e-002
3.158962e+003;2.020818e-002
3.160890e+003;2.047117e-002
3.162819e+003;2.027629e-002
3.164747e+003;2.001585e-002
3.166676e+003;1.993959e-002
3.168604e+003;1.975317e-002
3.170533e+003;1.992738e-002
3.172461e+003;2.005856e-002
3.174390e+003;1.984483e-002
3.176319e+003;1.981289e-002
3.178247e+003;1.983789e-002
3.180176e+003;2.004965e-002
3.182104e+003;2.023418e-002
3.184033e+003;2.017687e-002
3.185961e+003;2.023741e-002
3.187890e+003;2.006877e-002
3.189818e+003;2.013706e-002
3.191747e+003;2.042734e-002
3.193676e+003;2.064925e-002
3.195604e+003;2.060231e-002
3.197532e+003;2.057466e-002
3.199461e+003;2.071875e-002
3.201390e+003;2.101112e-002
3.203318e+003;2.088386e-002
3.205247e+003;2.037466e-002
3.207175e+003;1.999451e-002
3.209104e+003;1.982107e-002
3.211032e+003;1.985988e-002
3.212961e+003;1.977928e-002
3.214889e+003;1.944051e-002
3.216818e+003;1.921191e-002
3.218747e+003;1.900423e-002
3.220675e+003;1.865478e-002
3.222604e+003;1.844502e-002
3.224532e+003;1.808003e-002
3.226461e+003;1.787935e-002
3.228389e+003;1.779407e-002
3.230318e+003;1.733482e-002
3.232246e+003;1.686683e-002
3.234175e+003;1.626939e-002
3.236104e+003;1.594372e-002
3.238032e+003;1.593165e-002
3.239961e+003;1.610891e-002
3.241889e+003;1.621941e-002
3.243818e+003;1.563032e-002
3.245746e+003;1.526377e-002
3.247675e+003;1.530392e-002
3.249603e+003;1.537814e-002
3.251532e+003;1.562180e-002
3.253460e+003;1.554813e-002
3.255389e+003;1.498025e-002
3.257318e+003;1.512566e-002
3.259246e+003;1.547300e-002
3.261175e+003;1.501331e-002
3.263103e+003;1.466490e-002
3.265032e+003;1.457412e-002
3.266960e+003;1.402948e-002
3.268889e+003;1.384370e-002
3.270817e+003;1.437780e-002
3.272746e+003;1.482296e-002
3.274675e+003;1.474120e-002
3.276603e+003;1.446891e-002
3.278531e+003;1.457813e-002
3.280460e+003;1.457183e-002
3.282389e+003;1.445199e-002
3.284317e+003;1.446254e-002
3.286246e+003;1.479450e-002
3.288174e+003;1.514381e-002
3.290103e+003;1.502442e-002
3.292031e+003;1.493364e-002
3.293960e+003;1.499270e-002
3.295888e+003;1.454839e-002
3.297817e+003;1.424226e-002
3.299746e+003;1.436769e-002
3.301674e+003;1.486410e-002
3.303603e+003;1.483664e-002
3.305531e+003;1.424907e-002
3.307460e+003;1.406268e-002
3.309388e+003;1.440924e-002
3.311317e+003;1.465918e-002
3.313245e+003;1.417563e-002
3.315174e+003;1.398551e-002
3.317103e+003;1.441198e-002
3.319031e+003;1.447912e-002
3.320960e+003;1.410094e-002
3.322888e+003;1.434909e-002
3.324817e+003;1.436725e-002
3.326745e+003;1.435197e-002
3.328674e+003;1.460044e-002
3.330602e+003;1.428270e-002
3.332531e+003;1.427232e-002
3.334459e+003;1.469245e-002
3.336388e+003;1.461637e-002
3.338317e+003;1.436156e-002
3.340245e+003;1.465565e-002
3.342174e+003;1.494561e-002
3.344102e+003;1.502899e-002
3.346031e+003;1.500463e-002
3.347959e+003;1.514514e-002
3.349888e+003;1.551029e-002
3.351816e+003;1.521305e-002
3.353745e+003;1.481408e-002
3.355674e+003;1.503427e-002
3.357602e+003;1.514411e-002
3.359531e+003;1.482011e-002
3.361459e+003;1.469458e-002
3.363388e+003;1.476732e-002
3.365316e+003;1.492980e-002
3.367245e+003;1.500892e-002
3.369173e+003;1.506384e-002
3.371102e+003;1.464098e-002
3.373031e+003;1.408027e-002
3.374959e+003;1.414301e-002
3.376887e+003;1.442424e-002
3.378816e+003;1.436341e-002
3.380745e+003;1.407052e-002
3.382673e+003;1.384359e-002
3.384602e+003;1.363129e-002
3.386530e+003;1.357436e-002
3.388459e+003;1.376906e-002
3.390387e+003;1.420470e-002
3.392316e+003;1.497034e-002
3.394244e+003;1.518594e-002
3.396173e+003;1.454359e-002
3.398102e+003;1.394746e-002
3.400030e+003;1.360151e-002
3.401959e+003;1.325122e-002
3.403887e+003;1.282944e-002
3.405816e+003;1.310056e-002
3.407744e+003;1.378517e-002
3.409673e+003;1.377200e-002
3.411601e+003;1.354404e-002
3.413530e+003;1.397343e-002
3.415458e+003;1.453321e-002
3.417387e+003;1.446017e-002
3.419316e+003;1.395933e-002
3.421244e+003;1.378805e-002
3.423173e+003;1.376380e-002
3.425101e+003;1.353061e-002
3.427030e+003;1.297515e-002
3.428958e+003;1.280716e-002
3.430887e+003;1.291722e-002
3.432815e+003;1.288603e-002
3.434744e+003;1.283234e-002
3.436673e+003;1.300929e-002
3.438601e+003;1.307912e-002
3.440530e+003;1.246317e-002
3.442458e+003;1.243572e-002
3.444387e+003;1.269858e-002
3.446315e+003;1.191878e-002
3.448244e+003;1.137936e-002
3.450172e+003;1.158564e-002
3.452101e+003;1.192134e-002
3.454030e+003;1.188507e-002
3.455958e+003;1.143515e-002
3.457886e+003;1.149094e-002
3.459815e+003;1.187962e-002
3.461744e+003;1.174632e-002
3.463672e+003;1.157148e-002
3.465601e+003;1.141855e-002
3.467529e+003;1.122487e-002
3.469458e+003;1.108477e-002
3.471386e+003;1.129964e-002
3.473315e+003;1.124901e-002
3.475243e+003;1.089246e-002
3.477172e+003;1.068057e-002
3.479101e+003;1.042012e-002
3.481029e+003;1.031699e-002
3.482958e+003;1.037549e-002
3.484886e+003;1.024798e-002
3.486815e+003;1.035167e-002
3.488743e+003;1.040403e-002
3.490672e+003;1.015755e-002
3.492600e+003;1.016192e-002
3.494529e+003;1.038598e-002
3.496458e+003;1.032968e-002
3.498386e+003;1.045246e-002
3.500315e+003;1.030070e-002
3.502243e+003;1.007222e-002
3.504172e+003;1.011176e-002
3.506100e+003;1.020649e-002
3.508029e+003;9.723237e-003
3.509957e+003;9.584097e-003
3.511886e+003;1.000491e-002
3.513814e+003;9.858320e-003
3.515743e+003;9.357408e-003
3.517672e+003;9.486519e-003
3.519600e+003;9.711852e-003
3.521529e+003;9.340785e-003
3.523457e+003;9.095680e-003
3.525386e+003;9.517473e-003
3.527314e+003;9.674176e-003
3.529243e+003;9.606962e-003
3.531171e+003;9.809040e-003
3.533100e+003;9.928285e-003
3.535029e+003;9.388692e-003
3.536957e+003;8.972571e-003
3.538885e+003;9.119501e-003
3.540814e+003;9.275485e-003
3.542743e+003;9.223055e-003
3.544671e+003;9.526008e-003
3.546600e+003;9.515136e-003
3.548528e+003;9.441615e-003
3.550457e+003;9.097880e-003
3.552385e+003;8.745660e-003
3.554314e+003;8.852744e-003
3.556242e+003;8.866337e-003
3.558171e+003;8.810475e-003
3.560100e+003;9.030011e-003
3.562028e+003;9.189651e-003
3.563957e+003;8.434534e-003
3.565885e+003;6.577562e-003
3.567814e+003;5.972267e-003
3.569742e+003;7.175178e-003
3.571671e+003;8.046566e-003
3.573599e+003;8.205202e-003
3.575528e+003;8.327655e-003
3.577457e+003;8.345861e-003
3.579385e+003;8.031782e-003
3.581314e+003;7.945249e-003
3.583242e+003;7.945856e-003
3.585171e+003;7.123271e-003
3.587099e+003;6.096847e-003
3.589028e+003;6.606694e-003
3.590956e+003;7.595041e-003
3.592885e+003;7.423413e-003
3.594813e+003;7.520192e-003
3.596742e+003;7.874793e-003
3.598671e+003;7.615138e-003
3.600599e+003;7.733714e-003
3.602528e+003;8.131599e-003
3.604456e+003;7.674827e-003
3.606385e+003;6.461319e-003
3.608313e+003;5.757360e-003
3.610242e+003;6.424292e-003
3.612170e+003;6.297769e-003
3.614099e+003;6.337676e-003
3.616028e+003;6.716819e-003
3.617956e+003;6.081122e-003
3.619885e+003;6.068689e-003
3.621813e+003;7.178917e-003
3.623742e+003;7.391665e-003
3.625670e+003;6.546614e-003
3.627599e+003;3.715964e-003
3.629527e+003;3.715796e-003
3.631456e+003;6.952369e-003
3.633385e+003;7.700121e-003
3.635313e+003;7.579396e-003
3.637241e+003;7.717524e-003
3.639170e+003;7.805766e-003
3.641099e+003;7.859206e-003
3.643027e+003;7.628930e-003
3.644956e+003;6.540223e-003
3.646884e+003;4.062788e-003
3.648813e+003;2.276966e-003
3.650741e+003;3.751355e-003
3.652670e+003;6.158311e-003
3.654598e+003;5.613040e-003
3.656527e+003;5.695248e-003
3.658456e+003;7.471412e-003
3.660384e+003;7.925643e-003
3.662313e+003;7.902495e-003
3.664241e+003;8.449805e-003
3.666170e+003;7.879753e-003
3.668098e+003;5.016897e-003
3.670027e+003;3.111572e-003
3.671955e+003;4.700258e-003
3.673884e+003;3.275527e-003
3.675813e+003;2.795951e-003
3.677741e+003;6.358555e-003
3.679669e+003;7.967049e-003
3.681598e+003;8.613558e-003
3.683527e+003;8.838642e-003
3.685455e+003;7.474076e-003
3.687384e+003;4.040715e-003
3.689312e+003;3.958886e-003
3.691241e+003;6.332835e-003
3.693169e+003;8.254504e-003
3.695098e+003;9.053219e-003
3.697026e+003;8.923695e-003
3.698955e+003;8.359710e-003
3.700884e+003;7.324129e-003
3.702812e+003;7.947105e-003
3.704741e+003;8.909897e-003
3.706669e+003;8.374775e-003
3.708598e+003;6.991998e-003
3.710526e+003;5.639255e-003
3.712455e+003;5.863642e-003
3.714383e+003;8.018585e-003
3.716312e+003;8.813315e-003
3.718240e+003;8.627956e-003
3.720169e+003;7.984665e-003
3.722098e+003;7.494302e-003
3.724026e+003;7.278909e-003
3.725955e+003;7.203812e-003
3.727883e+003;8.164787e-003
3.729812e+003;7.359985e-003
3.731740e+003;5.086790e-003
3.733669e+003;4.292921e-003
3.735597e+003;4.021653e-003
3.737526e+003;6.177837e-003
3.739455e+003;8.117893e-003
3.741383e+003;7.031733e-003
3.743312e+003;1.926904e-003
3.745240e+003;2.536047e-003
3.747169e+003;4.949999e-003
3.749097e+003;1.841113e-003
3.751026e+003;1.475145e-003
3.752954e+003;5.275607e-003
3.754883e+003;8.698196e-003
3.756812e+003;8.289761e-003
3.758740e+003;7.512472e-003
3.760668e+003;8.263656e-003
3.762597e+003;9.317460e-003
3.764526e+003;8.529883e-003
3.766454e+003;8.560533e-003
3.768383e+003;8.149763e-003
3.770311e+003;8.373930e-003
3.772240e+003;9.439617e-003
3.774168e+003;9.574782e-003
3.776097e+003;9.138620e-003
3.778025e+003;8.854738e-003
3.779954e+003;9.091011e-003
3.781883e+003;9.693250e-003
3.783811e+003;9.724219e-003
3.785740e+003;9.641448e-003
3.787668e+003;9.594428e-003
3.789597e+003;9.869201e-003
3.791525e+003;9.830629e-003
3.793454e+003;9.364923e-003
3.795382e+003;8.255484e-003
3.797311e+003;8.025537e-003
3.799240e+003;6.062709e-003
3.801168e+003;4.286061e-003
3.803097e+003;7.254145e-003
3.805025e+003;7.375521e-003
3.806954e+003;6.449211e-003
3.808882e+003;8.678522e-003
3.810811e+003;9.809311e-003
3.812739e+003;9.311366e-003
3.814668e+003;6.318781e-003
3.816596e+003;6.021651e-003
3.818525e+003;7.003413e-003
3.820454e+003;5.215778e-003
3.822382e+003;6.619647e-003
3.824311e+003;8.718986e-003
3.826239e+003;8.922748e-003
3.828168e+003;9.227726e-003
3.830096e+003;8.490518e-003
3.832025e+003;7.535835e-003
3.833953e+003;6.659145e-003
3.835882e+003;4.659598e-003
3.837811e+003;3.557988e-003
3.839739e+003;5.831939e-003
3.841667e+003;7.494065e-003
3.843596e+003;8.041840e-003
3.845525e+003;9.199940e-003
3.847453e+003;9.846492e-003
3.849382e+003;7.799761e-003
3.851310e+003;2.408753e-003
3.853239e+003;-1.649259e-003
3.855167e+003;2.674248e-003
3.857096e+003;7.908906e-003
3.859024e+003;9.340378e-003
3.860953e+003;8.923425e-003
3.862882e+003;8.130822e-003
3.864810e+003;7.702448e-003
3.866739e+003;7.709126e-003
3.868667e+003;6.093521e-003
3.870596e+003;6.433641e-003
3.872524e+003;7.872735e-003
3.874453e+003;8.666725e-003
3.876381e+003;9.717274e-003
3.878310e+003;9.090842e-003
3.880239e+003;8.360284e-003
3.882167e+003;8.552658e-003
3.884096e+003;7.490324e-003
3.886024e+003;8.053890e-003
3.887953e+003;1.037607e-002
3.889881e+003;9.806499e-003
3.891810e+003;9.336486e-003
3.893738e+003;1.047622e-002
3.895667e+003;1.059042e-002
3.897595e+003;8.939356e-003
3.899524e+003;7.196502e-003
3.901453e+003;7.029982e-003
3.903381e+003;7.692465e-003
3.905310e+003;9.264518e-003
3.907238e+003;1.038316e-002
3.909167e+003;1.075097e-002
3.911095e+003;1.112529e-002
3.913024e+003;1.121089e-002
3.914952e+003;1.054157e-002
3.916881e+003;9.819987e-003
3.918810e+003;1.048450e-002
3.920738e+003;1.099022e-002
3.922667e+003;1.096432e-002
3.924595e+003;1.104456e-002
3.926524e+003;1.119937e-002
3.928452e+003;1.109276e-002
3.930381e+003;1.074194e-002
3.932309e+003;1.023316e-002
3.934238e+003;1.053899e-002
3.936167e+003;1.105353e-002
3.938095e+003;1.100116e-002
3.940023e+003;1.068105e-002
3.941952e+003;1.056302e-002
3.943881e+003;1.097054e-002
3.945809e+003;1.114569e-002
3.947738e+003;1.067989e-002
3.949666e+003;1.065195e-002
3.951595e+003;1.136219e-002
3.953523e+003;1.178401e-002
3.955452e+003;1.177390e-002
3.957380e+003;1.166330e-002
3.959309e+003;1.121589e-002
3.961238e+003;1.071019e-002
3.963166e+003;1.078063e-002
3.965095e+003;1.119369e-002
3.967023e+003;1.140100e-002
3.968952e+003;1.142154e-002
3.970880e+003;1.134777e-002
3.972809e+003;1.140195e-002
3.974737e+003;1.169390e-002
3.976666e+003;1.166956e-002
3.978594e+003;1.194654e-002
3.980523e+003;1.228231e-002
3.982452e+003;1.217060e-002
3.984380e+003;1.244332e-002
3.986309e+003;1.304897e-002
3.988237e+003;1.318605e-002
3.990166e+003;1.312860e-002
3.992094e+003;1.264246e-002
3.994023e+003;1.243732e-002
3.995951e+003;1.279132e-002
3.997880e+003;1.291729e-002
3.999809e+003;1.329225e-002
4.001737e+003;0.000000e+000
