3.992094e+002;0.000000e+000
4.011380e+002;0.000000e+000
4.030665e+002;0.000000e+000
4.049951e+002;0.000000e+000
4.069236e+002;0.000000e+000
4.088522e+002;0.000000e+000
4.107807e+002;0.000000e+000
4.127093e+002;0.000000e+000
4.146378e+002;0.000000e+000
4.165664e+002;0.000000e+000
4.184949e+002;0.000000e+000
4.204235e+002;0.000000e+000
4.223520e+002;0.000000e+000
4.242806e+002;0.000000e+000
4.262091e+002;0.000000e+000
4.281377e+002;0.000000e+000
4.300662e+002;0.000000e+000
4.319948e+002;0.000000e+000
4.339233e+002;0.000000e+000
4.358519e+002;0.000000e+000
4.377804e+002;0.000000e+000
4.397090e+002;0.000000e+000
4.416375e+002;0.000000e+000
4.435660e+002;0.000000e+000
4.454946e+002;0.000000e+000
4.474232e+002;0.000000e+000
4.493517e+002;0.000000e+000
4.512802e+002;0.000000e+000
4.532088e+002;0.000000e+000
4.551373e+002;0.000000e+000
4.570659e+002;0.000000e+000
4.589944e+002;0.000000e+000
4.609230e+002;0.000000e+000
4.628515e+002;0.000000e+000
4.647801e+002;0.000000e+000
4.667086e+002;0.000000e+000
4.686372e+002;0.000000e+000
4.705657e+002;0.000000e+000
4.724943e+002;0.000000e+000
4.744228e+002;0.000000e+000
4.763513e+002;0.000000e+000
4.782799e+002;0.000000e+000
4.802085e+002;0.000000e+000
4.821370e+002;0.000000e+000
4.840656e+002;0.000000e+000
4.859941e+002;0.000000e+000
4.879226e+002;0.000000e+000
4.898512e+002;0.000000e+000
4.917798e+002;0.000000e+000
4.937083e+002;0.000000e+000
4.956368e+002;0.000000e+000
4.975654e+002;0.000000e+000
4.994939e+002;0.000000e+000
5.014225e+002;0.000000e+000
5.033510e+002;0.000000e+000
5.052796e+002;0.000000e+000
5.072081e+002;0.000000e+000
5.091367e+002;0.000000e+000
5.110652e+002;0.000000e+000
5.129938e+002;0.000000e+000
5.149223e+002;0.000000e+000
5.168509e+002;0.000000e+000
5.187794e+002;0.000000e+000
5.207079e+002;0.000000e+000
5.226365e+002;0.000000e+000
5.245651e+002;0.000000e+000
5.264936e+002;0.000000e+000
5.284222e+002;0.000000e+000
5.303507e+002;0.000000e+000
5.322792e+002;0.000000e+000
5.342078e+002;0.000000e+000
5.361364e+002;0.000000e+000
5.380649e+002;0.000000e+000
5.399935e+002;0.000000e+000
5.419220e+002;0.000000e+000
5.438505e+002;0.000000e+000
5.457791e+002;0.000000e+000
5.477076e+002;0.000000e+000
5.496362e+002;0.000000e+000
5.515648e+002;0.000000e+000
5.534933e+002;0.000000e+000
5.554218e+002;0.000000e+000
5.573504e+002;0.000000e+000
5.592789e+002;0.000000e+000
5.612075e+002;0.000000e+000
5.631360e+002;0.000000e+000
5.650646e+002;0.000000e+000
5.669931e+002;0.000000e+000
5.689217e+002;0.000000e+000
5.708502e+002;0.000000e+000
5.727787e+002;0.000000e+000
5.747073e+002;0.000000e+000
5.766359e+002;0.000000e+000
5.785644e+002;0.000000e+000
5.804930e+002;0.000000e+000
5.824215e+002;0.000000e+000
5.843500e+002;0.000000e+000
5.862786e+002;0.000000e+000
5.882072e+002;0.000000e+000
5.901357e+002;0.000000e+000
5.920643e+002;0.000000e+000
5.939928e+002;0.000000e+000
5.959213e+002;0.000000e+000
5.978499e+002;0.000000e+000
5.997784e+002;6.324406e-002
6.017070e+002;6.024735e-002
6.036355e+002;5.766520e-002
6.055641e+002;5.516110e-002
6.074926e+002;5.896578e-002
6.094211e+002;6.105926e-002
6.113497e+002;5.873490e-002
6.132783e+002;5.936283e-002
6.152068e+002;6.495553e-002
6.171354e+002;6.714576e-002
6.190639e+002;6.415009e-002
6.209924e+002;6.283744e-002
6.229210e+002;6.026440e-002
6.248495e+002;5.805580e-002
6.267781e+002;6.034153e-002
6.287067e+002;6.592919e-002
6.306352e+002;6.605408e-002
6.325637e+002;6.260392e-002
6.344923e+002;6.074076e-002
6.364208e+002;5.837715e-002
6.383494e+002;6.266432e-002
6.402780e+002;6.574164e-002
6.422065e+002;6.537019e-002
6.441350e+002;6.256760e-002
6.460636e+002;5.947927e-002
6.479921e+002;5.927478e-002
6.499207e+002;6.340967e-002
6.518492e+002;6.311461e-002
6.537778e+002;6.180439e-002
6.557063e+002;6.202437e-002
6.576349e+002;6.146121e-002
6.595634e+002;6.108665e-002
6.614919e+002;6.289637e-002
6.634205e+002;6.429657e-002
6.653491e+002;6.372443e-002
6.672776e+002;6.214360e-002
6.692062e+002;6.139407e-002
6.711347e+002;6.102490e-002
6.730632e+002;6.096946e-002
6.749918e+002;5.972846e-002
6.769203e+002;6.016072e-002
6.788489e+002;6.152340e-002
6.807775e+002;6.267228e-002
6.827060e+002;6.314380e-002
6.846345e+002;6.198417e-002
6.865631e+002;6.121203e-002
6.884916e+002;6.079137e-002
6.904202e+002;5.962084e-002
6.923488e+002;5.943866e-002
6.942773e+002;5.999525e-002
6.962058e+002;6.085479e-002
6.981344e+002;6.148370e-002
7.000629e+002;6.175324e-002
7.019915e+002;6.150553e-002
7.039200e+002;6.128886e-002
7.058486e+002;6.023068e-002
7.077771e+002;5.976975e-002
7.097057e+002;6.025877e-002
7.116342e+002;6.173071e-002
7.135627e+002;6.317174e-002
7.154913e+002;6.302588e-002
7.174199e+002;6.214888e-002
7.193484e+002;6.047679e-002
7.212770e+002;5.887371e-002
7.232055e+002;5.797949e-002
7.251340e+002;5.756183e-002
7.270626e+002;5.736679e-002
7.289911e+002;5.744934e-002
7.309197e+002;5.650736e-002
7.328483e+002;5.511994e-002
7.347768e+002;5.418306e-002
7.367053e+002;5.379987e-002
7.386339e+002;5.384150e-002
7.405624e+002;5.405444e-002
7.424910e+002;5.383928e-002
7.444196e+002;5.314461e-002
7.463481e+002;5.305197e-002
7.482766e+002;5.368355e-002
7.502052e+002;5.373431e-002
7.521337e+002;5.292287e-002
7.540623e+002;5.264774e-002
7.559908e+002;5.239384e-002
7.579194e+002;5.183410e-002
7.598479e+002;5.195374e-002
7.617765e+002;5.208880e-002
7.637050e+002;5.158907e-002
7.656335e+002;5.159978e-002
7.675621e+002;5.107106e-002
7.694907e+002;5.017511e-002
7.714192e+002;4.960139e-002
7.733478e+002;4.959913e-002
7.752763e+002;5.050066e-002
7.772048e+002;5.048150e-002
7.791334e+002;4.963650e-002
7.810620e+002;5.035449e-002
7.829905e+002;5.141004e-002
7.849191e+002;5.152598e-002
7.868476e+002;5.165411e-002
7.887761e+002;5.164911e-002
7.907047e+002;5.173928e-002
7.926332e+002;5.201204e-002
7.945618e+002;5.250103e-002
7.964903e+002;5.368171e-002
7.984189e+002;5.337126e-002
8.003474e+002;5.333818e-002
8.022759e+002;5.498668e-002
8.042045e+002;5.780379e-002
8.061331e+002;6.029809e-002
8.080616e+002;6.244355e-002
8.099902e+002;6.344088e-002
8.119187e+002;6.276136e-002
8.138472e+002;5.954657e-002
8.157758e+002;5.636428e-002
8.177043e+002;5.429850e-002
8.196329e+002;5.301068e-002
8.215615e+002;5.261898e-002
8.234900e+002;5.263084e-002
8.254185e+002;5.297845e-002
8.273471e+002;5.355747e-002
8.292756e+002;5.361666e-002
8.312042e+002;5.402904e-002
8.331328e+002;5.523299e-002
8.350613e+002;5.649668e-002
8.369898e+002;5.869545e-002
8.389184e+002;6.386159e-002
8.408469e+002;6.910200e-002
8.427755e+002;6.817028e-002
8.447040e+002;6.273739e-002
8.466326e+002;5.696774e-002
8.485611e+002;5.236854e-002
8.504897e+002;4.926828e-002
8.524182e+002;4.796703e-002
8.543467e+002;4.729328e-002
8.562753e+002;4.616936e-002
8.582039e+002;4.548853e-002
8.601324e+002;4.541366e-002
8.620610e+002;4.613199e-002
8.639895e+002;4.819499e-002
8.659180e+002;5.116555e-002
8.678466e+002;5.454386e-002
8.697751e+002;5.859241e-002
8.717037e+002;6.188638e-002
8.736323e+002;6.267220e-002
8.755608e+002;6.229464e-002
8.774893e+002;6.146793e-002
8.794179e+002;6.000719e-002
8.813464e+002;5.867626e-002
8.832750e+002;5.762657e-002
8.852036e+002;5.628170e-002
8.871321e+002;5.440117e-002
8.890606e+002;5.329289e-002
8.909892e+002;5.313469e-002
8.929177e+002;5.476929e-002
8.948463e+002;5.797419e-002
8.967748e+002;6.202395e-002
8.987034e+002;6.492902e-002
9.006319e+002;6.460454e-002
9.025605e+002;6.074491e-002
9.044890e+002;5.567885e-002
9.064175e+002;5.154889e-002
9.083461e+002;4.906943e-002
9.102747e+002;4.761549e-002
9.122032e+002;4.663861e-002
9.141318e+002;4.623448e-002
9.160603e+002;4.622328e-002
9.179888e+002;4.610406e-002
9.199174e+002;4.592872e-002
9.218459e+002;4.589159e-002
9.237745e+002;4.569450e-002
9.257031e+002;4.528963e-002
9.276316e+002;4.535539e-002
9.295601e+002;4.583264e-002
9.314887e+002;4.638915e-002
9.334172e+002;4.711501e-002
9.353458e+002;4.795715e-002
9.372744e+002;4.919135e-002
9.392029e+002;5.082087e-002
9.411314e+002;5.163359e-002
9.430600e+002;5.120849e-002
9.449885e+002;5.057846e-002
9.469171e+002;5.011502e-002
9.488456e+002;4.959029e-002
9.507742e+002;4.968888e-002
9.527027e+002;5.075343e-002
9.546313e+002;5.149878e-002
9.565598e+002;5.157821e-002
9.584883e+002;5.219307e-002
9.604169e+002;5.366248e-002
9.623455e+002;5.543013e-002
9.642740e+002;5.781923e-002
9.662026e+002;6.195952e-002
9.681311e+002;6.801036e-002
9.700596e+002;7.576489e-002
9.719882e+002;8.254387e-002
9.739167e+002;8.480697e-002
9.758453e+002;8.105706e-002
9.777739e+002;7.378276e-002
9.797024e+002;6.672553e-002
9.816309e+002;6.113978e-002
9.835595e+002;5.716854e-002
9.854880e+002;5.540838e-002
9.874166e+002;5.575709e-002
9.893452e+002;5.735873e-002
9.912737e+002;6.073443e-002
9.932022e+002;6.614842e-002
9.951307e+002;7.294042e-002
9.970593e+002;7.856200e-002
9.989879e+002;7.979641e-002
1.000916e+003;7.595583e-002
1.002845e+003;7.006352e-002
1.004773e+003;6.501667e-002
1.006702e+003;6.204620e-002
1.008631e+003;6.078790e-002
1.010559e+003;5.971226e-002
1.012488e+003;5.862961e-002
1.014416e+003;5.824740e-002
1.016345e+003;5.815507e-002
1.018273e+003;5.803292e-002
1.020202e+003;5.807750e-002
1.022130e+003;5.872913e-002
1.024059e+003;5.992407e-002
1.025988e+003;6.088197e-002
1.027916e+003;6.164607e-002
1.029845e+003;6.254043e-002
1.031773e+003;6.373321e-002
1.033702e+003;6.509265e-002
1.035630e+003;6.610412e-002
1.037559e+003;6.655692e-002
1.039487e+003;6.695096e-002
1.041416e+003;6.720706e-002
1.043344e+003;6.718721e-002
1.045273e+003;6.689947e-002
1.047202e+003;6.643211e-002
1.049130e+003;6.558362e-002
1.051059e+003;6.501921e-002
1.052987e+003;6.483649e-002
1.054916e+003;6.445546e-002
1.056844e+003;6.420164e-002
1.058773e+003;6.419184e-002
1.060701e+003;6.386642e-002
1.062630e+003;6.403112e-002
1.064558e+003;6.483626e-002
1.066487e+003;6.547369e-002
1.068416e+003;6.532563e-002
1.070344e+003;6.517065e-002
1.072273e+003;6.523536e-002
1.074201e+003;6.532659e-002
1.076130e+003;6.563839e-002
1.078058e+003;6.632613e-002
1.079987e+003;6.699449e-002
1.081915e+003;6.693213e-002
1.083844e+003;6.628013e-002
1.085773e+003;6.614857e-002
1.087701e+003;6.623516e-002
1.089630e+003;6.671409e-002
1.091558e+003;6.673631e-002
1.093487e+003;6.685390e-002
1.095415e+003;6.805257e-002
1.097344e+003;6.979203e-002
1.099272e+003;7.110304e-002
1.101201e+003;7.181475e-002
1.103129e+003;7.203376e-002
1.105058e+003;7.110569e-002
1.106987e+003;6.924906e-002
1.108915e+003;6.789660e-002
1.110844e+003;6.683604e-002
1.112772e+003;6.531449e-002
1.114701e+003;6.419296e-002
1.116629e+003;6.372581e-002
1.118558e+003;6.357097e-002
1.120486e+003;6.361854e-002
1.122415e+003;6.366285e-002
1.124344e+003;6.351233e-002
1.126272e+003;6.332716e-002
1.128201e+003;6.301504e-002
1.130129e+003;6.260380e-002
1.132058e+003;6.287826e-002
1.133986e+003;6.368591e-002
1.135915e+003;6.425995e-002
1.137843e+003;6.555780e-002
1.139772e+003;6.780917e-002
1.141700e+003;7.004413e-002
1.143629e+003;7.276757e-002
1.145557e+003;7.555878e-002
1.147486e+003;7.799436e-002
1.149415e+003;8.098219e-002
1.151343e+003;8.402031e-002
1.153272e+003;8.583120e-002
1.155200e+003;8.676496e-002
1.157129e+003;8.715016e-002
1.159057e+003;8.826734e-002
1.160986e+003;8.977929e-002
1.162914e+003;9.068836e-002
1.164843e+003;9.192117e-002
1.166771e+003;9.298473e-002
1.168700e+003;9.239983e-002
1.170629e+003;8.984811e-002
1.172557e+003;8.631960e-002
1.174486e+003;8.205513e-002
1.176414e+003;7.781585e-002
1.178343e+003;7.471701e-002
1.180271e+003;7.276373e-002
1.182200e+003;7.131141e-002
1.184128e+003;7.032976e-002
1.186057e+003;6.959461e-002
1.187986e+003;6.918836e-002
1.189914e+003;6.894050e-002
1.191843e+003;6.859272e-002
1.193771e+003;6.892581e-002
1.195700e+003;6.946348e-002
1.197628e+003;6.999515e-002
1.199557e+003;7.007683e-002
1.201485e+003;6.967205e-002
1.203414e+003;6.957450e-002
1.205343e+003;7.000189e-002
1.207271e+003;7.098569e-002
1.209200e+003;7.224936e-002
1.211128e+003;7.372963e-002
1.213057e+003;7.553859e-002
1.214985e+003;7.713290e-002
1.216914e+003;7.761157e-002
1.218842e+003;7.786159e-002
1.220771e+003;7.795622e-002
1.222699e+003;7.776412e-002
1.224628e+003;7.751963e-002
1.226557e+003;7.743055e-002
1.228485e+003;7.762635e-002
1.230414e+003;7.828472e-002
1.232342e+003;7.860810e-002
1.234271e+003;7.908669e-002
1.236199e+003;7.971965e-002
1.238128e+003;7.985514e-002
1.240056e+003;7.988860e-002
1.241985e+003;7.965226e-002
1.243913e+003;7.941198e-002
1.245842e+003;7.967968e-002
1.247771e+003;7.971085e-002
1.249699e+003;7.971300e-002
1.251628e+003;8.094338e-002
1.253556e+003;8.289097e-002
1.255485e+003;8.370677e-002
1.257413e+003;8.287220e-002
1.259342e+003;8.083988e-002
1.261270e+003;7.862601e-002
1.263199e+003;7.687587e-002
1.265127e+003;7.603679e-002
1.267056e+003;7.527072e-002
1.268985e+003;7.434983e-002
1.270913e+003;7.334265e-002
1.272842e+003;7.255626e-002
1.274770e+003;7.234997e-002
1.276699e+003;7.232916e-002
1.278627e+003;7.179473e-002
1.280556e+003;7.116298e-002
1.282484e+003;7.126226e-002
1.284413e+003;7.165532e-002
1.286342e+003;7.172187e-002
1.288270e+003;7.210463e-002
1.290199e+003;7.257400e-002
1.292127e+003;7.305993e-002
1.294056e+003;7.389238e-002
1.295984e+003;7.434385e-002
1.297913e+003;7.417760e-002
1.299841e+003;7.389351e-002
1.301770e+003;7.422363e-002
1.303698e+003;7.479206e-002
1.305627e+003;7.375126e-002
1.307556e+003;7.139221e-002
1.309484e+003;6.920286e-002
1.311413e+003;6.806570e-002
1.313341e+003;6.807923e-002
1.315270e+003;6.837718e-002
1.317198e+003;6.840026e-002
1.319127e+003;6.894108e-002
1.321055e+003;7.026260e-002
1.322984e+003;7.150915e-002
1.324912e+003;7.268209e-002
1.326841e+003;7.398984e-002
1.328770e+003;7.464334e-002
1.330698e+003;7.464531e-002
1.332627e+003;7.439851e-002
1.334555e+003;7.364926e-002
1.336484e+003;7.273889e-002
1.338412e+003;7.222561e-002
1.340341e+003;7.253123e-002
1.342269e+003;7.362838e-002
1.344198e+003;7.490855e-002
1.346126e+003;7.677550e-002
1.348055e+003;7.909798e-002
1.349984e+003;8.204549e-002
1.351912e+003;8.597628e-002
1.353841e+003;9.120649e-002
1.355769e+003;9.741323e-002
1.357698e+003;1.027833e-001
1.359626e+003;1.048789e-001
1.361555e+003;1.042889e-001
1.363483e+003;1.041813e-001
1.365412e+003;1.066954e-001
1.367341e+003;1.135538e-001
1.369269e+003;1.263139e-001
1.371198e+003;1.440555e-001
1.373126e+003;1.635906e-001
1.375055e+003;1.782780e-001
1.376983e+003;1.786838e-001
1.378912e+003;1.642072e-001
1.380840e+003;1.449801e-001
1.382769e+003;1.271759e-001
1.384698e+003;1.127544e-001
1.386626e+003;1.021472e-001
1.388555e+003;9.562945e-002
1.390483e+003;9.185734e-002
1.392412e+003;8.889756e-002
1.394340e+003;8.678835e-002
1.396269e+003;8.619992e-002
1.398197e+003;8.612938e-002
1.400126e+003;8.672483e-002
1.402054e+003;8.726624e-002
1.403983e+003;8.737437e-002
1.405911e+003;8.778181e-002
1.407840e+003;8.857110e-002
1.409769e+003;8.893567e-002
1.411697e+003;8.932426e-002
1.413626e+003;8.972612e-002
1.415554e+003;8.973626e-002
1.417483e+003;8.885556e-002
1.419411e+003;8.809327e-002
1.421340e+003;8.903355e-002
1.423268e+003;9.032334e-002
1.425197e+003;9.200523e-002
1.427125e+003;9.467035e-002
1.429054e+003;9.891381e-002
1.430983e+003;1.060771e-001
1.432911e+003;1.145075e-001
1.434840e+003;1.197387e-001
1.436768e+003;1.215578e-001
1.438697e+003;1.239965e-001
1.440625e+003;1.271821e-001
1.442554e+003;1.314447e-001
1.444482e+003;1.373811e-001
1.446411e+003;1.447789e-001
1.448340e+003;1.520462e-001
1.450268e+003;1.574431e-001
1.452197e+003;1.602534e-001
1.454125e+003;1.605607e-001
1.456054e+003;1.581178e-001
1.457982e+003;1.567235e-001
1.459911e+003;1.560988e-001
1.461839e+003;1.528372e-001
1.463768e+003;1.468227e-001
1.465697e+003;1.397301e-001
1.467625e+003;1.319947e-001
1.469554e+003;1.229029e-001
1.471482e+003;1.126539e-001
1.473411e+003;1.038126e-001
1.475339e+003;9.731423e-002
1.477268e+003;9.193496e-002
1.479196e+003;8.783689e-002
1.481125e+003;8.398098e-002
1.483053e+003;8.110562e-002
1.484982e+003;7.928411e-002
1.486911e+003;7.765274e-002
1.488839e+003;7.642124e-002
1.490768e+003;7.655662e-002
1.492696e+003;7.780376e-002
1.494625e+003;7.796903e-002
1.496553e+003;7.802609e-002
1.498482e+003;7.992472e-002
1.500410e+003;8.188518e-002
1.502339e+003;8.302867e-002
1.504267e+003;8.255156e-002
1.506196e+003;8.187286e-002
1.508125e+003;8.453634e-002
1.510053e+003;8.797101e-002
1.511982e+003;8.985882e-002
1.513910e+003;9.155580e-002
1.515839e+003;9.250026e-002
1.517767e+003;9.238384e-002
1.519696e+003;9.118319e-002
1.521624e+003;9.047394e-002
1.523553e+003;9.178599e-002
1.525481e+003;9.300710e-002
1.527410e+003;9.421050e-002
1.529339e+003;9.544910e-002
1.531267e+003;9.582181e-002
1.533196e+003;9.536602e-002
1.535124e+003;9.621066e-002
1.537053e+003;9.572729e-002
1.538981e+003;9.326101e-002
1.540910e+003;9.327386e-002
1.542838e+003;9.497841e-002
1.544767e+003;9.538496e-002
1.546695e+003;9.452438e-002
1.548624e+003;9.278661e-002
1.550553e+003;9.113713e-002
1.552481e+003;8.893526e-002
1.554410e+003;8.574589e-002
1.556338e+003;8.158210e-002
1.558267e+003;7.596337e-002
1.560195e+003;7.420401e-002
1.562124e+003;7.507098e-002
1.564052e+003;7.385844e-002
1.565981e+003;7.186890e-002
1.567910e+003;6.946317e-002
1.569838e+003;6.736273e-002
1.571767e+003;6.709575e-002
1.573695e+003;6.579014e-002
1.575624e+003;6.298125e-002
1.577552e+003;6.305825e-002
1.579481e+003;6.416415e-002
1.581409e+003;6.402140e-002
1.583338e+003;6.349753e-002
1.585266e+003;6.278084e-002
1.587195e+003;6.257816e-002
1.589124e+003;6.262390e-002
1.591052e+003;6.296876e-002
1.592981e+003;6.368510e-002
1.594909e+003;6.410880e-002
1.596838e+003;6.465987e-002
1.598766e+003;6.601265e-002
1.600695e+003;6.720714e-002
1.602623e+003;6.839196e-002
1.604552e+003;6.983706e-002
1.606480e+003;7.151178e-002
1.608409e+003;7.362881e-002
1.610338e+003;7.612297e-002
1.612266e+003;7.837857e-002
1.614195e+003;7.988632e-002
1.616123e+003;8.111601e-002
1.618052e+003;8.461420e-002
1.619980e+003;8.825800e-002
1.621909e+003;9.043007e-002
1.623837e+003;9.295793e-002
1.625766e+003;9.585825e-002
1.627694e+003;9.865920e-002
1.629623e+003;1.016067e-001
1.631552e+003;1.045553e-001
1.633480e+003;1.059314e-001
1.635409e+003;1.067716e-001
1.637337e+003;1.101287e-001
1.639266e+003;1.133981e-001
1.641194e+003;1.151611e-001
1.643123e+003;1.164899e-001
1.645051e+003;1.168184e-001
1.646980e+003;1.171647e-001
1.648909e+003;1.181806e-001
1.650837e+003;1.158012e-001
1.652766e+003;1.116300e-001
1.654694e+003;1.121886e-001
1.656623e+003;1.128282e-001
1.658551e+003;1.105836e-001
1.660480e+003;1.073192e-001
1.662408e+003;1.039065e-001
1.664337e+003;1.016205e-001
1.666266e+003;9.930524e-002
1.668194e+003;9.601371e-002
1.670123e+003;9.344188e-002
1.672051e+003;9.172247e-002
1.673980e+003;8.894192e-002
1.675908e+003;8.667948e-002
1.677837e+003;8.563300e-002
1.679765e+003;8.363160e-002
1.681694e+003;8.026136e-002
1.683622e+003;7.573239e-002
1.685551e+003;7.438423e-002
1.687479e+003;7.445742e-002
1.689408e+003;7.293548e-002
1.691337e+003;7.141537e-002
1.693265e+003;6.891533e-002
1.695194e+003;6.532755e-002
1.697122e+003;6.402079e-002
1.699051e+003;6.211783e-002
1.700979e+003;6.089417e-002
1.702908e+003;6.195061e-002
1.704836e+003;6.129390e-002
1.706765e+003;6.066603e-002
1.708693e+003;6.003036e-002
1.710622e+003;5.920540e-002
1.712551e+003;5.802111e-002
1.714479e+003;5.616098e-002
1.716408e+003;5.387983e-002
1.718336e+003;5.366881e-002
1.720265e+003;5.513570e-002
1.722193e+003;5.543774e-002
1.724122e+003;5.491884e-002
1.726050e+003;5.439768e-002
1.727979e+003;5.390504e-002
1.729908e+003;5.369967e-002
1.731836e+003;5.262508e-002
1.733765e+003;5.096836e-002
1.735693e+003;5.231823e-002
1.737622e+003;5.360684e-002
1.739550e+003;5.274935e-002
1.741479e+003;5.193223e-002
1.743407e+003;5.042296e-002
1.745336e+003;4.814965e-002
1.747265e+003;4.544519e-002
1.749193e+003;4.224400e-002
1.751122e+003;3.919952e-002
1.753050e+003;3.751962e-002
1.754979e+003;3.543612e-002
1.756907e+003;3.273867e-002
1.758836e+003;3.046612e-002
1.760764e+003;2.812126e-002
1.762693e+003;2.667540e-002
1.764621e+003;2.609553e-002
1.766550e+003;2.485131e-002
1.768479e+003;2.371564e-002
1.770407e+003;2.259338e-002
1.772336e+003;2.153423e-002
1.774264e+003;2.200485e-002
1.776193e+003;2.237710e-002
1.778121e+003;2.191664e-002
1.780050e+003;2.115547e-002
1.781978e+003;2.040730e-002
1.783907e+003;1.943891e-002
1.785835e+003;1.854356e-002
1.787764e+003;1.788004e-002
1.789693e+003;1.690785e-002
1.791621e+003;1.548968e-002
1.793550e+003;1.486533e-002
1.795478e+003;1.493697e-002
1.797407e+003;1.457378e-002
1.799335e+003;1.391971e-002
1.801264e+003;1.332659e-002
1.803192e+003;1.290828e-002
1.805121e+003;1.221152e-002
1.807049e+003;1.161228e-002
1.808978e+003;1.130233e-002
1.810907e+003;1.113124e-002
1.812835e+003;1.091458e-002
1.814764e+003;1.069073e-002
1.816692e+003;1.069215e-002
1.818621e+003;1.074989e-002
1.820549e+003;1.062998e-002
1.822478e+003;1.012787e-002
1.824406e+003;9.502436e-003
1.826335e+003;9.568008e-003
1.828264e+003;9.321217e-003
1.830192e+003;9.184608e-003
1.832121e+003;9.578033e-003
1.834049e+003;9.666485e-003
1.835978e+003;9.707685e-003
1.837906e+003;9.705008e-003
1.839835e+003;9.748888e-003
1.841763e+003;9.145387e-003
1.843692e+003;7.982844e-003
1.845620e+003;8.062093e-003
1.847549e+003;8.538229e-003
1.849478e+003;8.799080e-003
1.851406e+003;8.900529e-003
1.853335e+003;9.076327e-003
1.855263e+003;9.112598e-003
1.857192e+003;8.867927e-003
1.859120e+003;8.724024e-003
1.861049e+003;8.580843e-003
1.862977e+003;8.261798e-003
1.864906e+003;7.978962e-003
1.866834e+003;7.521170e-003
1.868763e+003;7.358030e-003
1.870692e+003;7.957026e-003
1.872620e+003;8.270849e-003
1.874549e+003;8.145711e-003
1.876477e+003;8.287937e-003
1.878406e+003;8.135583e-003
1.880334e+003;7.880326e-003
1.882263e+003;7.956756e-003
1.884191e+003;8.009472e-003
1.886120e+003;7.822297e-003
1.888048e+003;7.421324e-003
1.889977e+003;7.420818e-003
1.891906e+003;7.919265e-003
1.893834e+003;8.142976e-003
1.895763e+003;8.279157e-003
1.897691e+003;8.151080e-003
1.899620e+003;7.864974e-003
1.901548e+003;7.902866e-003
1.903477e+003;8.104018e-003
1.905405e+003;7.784851e-003
1.907334e+003;7.487122e-003
1.909262e+003;7.524710e-003
1.911191e+003;7.547635e-003
1.913120e+003;7.420751e-003
1.915048e+003;7.318064e-003
1.916977e+003;7.114244e-003
1.918905e+003;7.240298e-003
1.920834e+003;7.387553e-003
1.922762e+003;7.231134e-003
1.924691e+003;7.158874e-003
1.926619e+003;7.255661e-003
1.928548e+003;7.234672e-003
1.930477e+003;7.076523e-003
1.932405e+003;6.754778e-003
1.934334e+003;6.570968e-003
1.936262e+003;6.804487e-003
1.938191e+003;6.881098e-003
1.940119e+003;6.664293e-003
1.942048e+003;6.356336e-003
1.943976e+003;6.273969e-003
1.945905e+003;6.526970e-003
1.947833e+003;6.681487e-003
1.949762e+003;6.711704e-003
1.951691e+003;6.741653e-003
1.953619e+003;6.713218e-003
1.955548e+003;6.686601e-003
1.957476e+003;6.658237e-003
1.959405e+003;6.870258e-003
1.961333e+003;6.937790e-003
1.963262e+003;6.594684e-003
1.965190e+003;6.350956e-003
1.967119e+003;6.232824e-003
1.969047e+003;6.169737e-003
1.970976e+003;6.106659e-003
1.972905e+003;5.987653e-003
1.974833e+003;6.050814e-003
1.976762e+003;6.346048e-003
1.978690e+003;6.263010e-003
1.980619e+003;6.207683e-003
1.982547e+003;6.453718e-003
1.984476e+003;6.579580e-003
1.986404e+003;6.602826e-003
1.988333e+003;6.682395e-003
1.990261e+003;6.487080e-003
1.992190e+003;6.158109e-003
1.994119e+003;6.325034e-003
1.996047e+003;6.558657e-003
1.997976e+003;6.620656e-003
1.999904e+003;6.836597e-003
2.001833e+003;6.757504e-003
2.003761e+003;6.789913e-003
2.005690e+003;6.807482e-003
2.007618e+003;6.626746e-003
2.009547e+003;6.578604e-003
2.011476e+003;6.587653e-003
2.013404e+003;6.528417e-003
2.015333e+003;6.434482e-003
2.017261e+003;6.555696e-003
2.019190e+003;6.584761e-003
2.021118e+003;6.580959e-003
2.023047e+003;6.857871e-003
2.024975e+003;6.826264e-003
2.026904e+003;6.495253e-003
2.028833e+003;6.399106e-003
2.030761e+003;6.522362e-003
2.032690e+003;6.806304e-003
2.034618e+003;7.000484e-003
2.036547e+003;6.774701e-003
2.038475e+003;6.743066e-003
2.040404e+003;7.086963e-003
2.042332e+003;7.016950e-003
2.044261e+003;6.863728e-003
2.046189e+003;7.192628e-003
2.048118e+003;7.462750e-003
2.050047e+003;7.190674e-003
2.051975e+003;7.026783e-003
2.053904e+003;6.955129e-003
2.055832e+003;6.708675e-003
2.057761e+003;6.600673e-003
2.059689e+003;6.613187e-003
2.061618e+003;6.660054e-003
2.063546e+003;6.824749e-003
2.065475e+003;7.052073e-003
2.067404e+003;7.029477e-003
2.069332e+003;6.798631e-003
2.071260e+003;6.855245e-003
2.073189e+003;7.244678e-003
2.075118e+003;7.242117e-003
2.077046e+003;6.925939e-003
2.078975e+003;6.870830e-003
2.080903e+003;7.142504e-003
2.082832e+003;7.501482e-003
2.084760e+003;7.708519e-003
2.086689e+003;7.692600e-003
2.088617e+003;7.494200e-003
2.090546e+003;7.372252e-003
2.092475e+003;7.524137e-003
2.094403e+003;7.456008e-003
2.096332e+003;7.174774e-003
2.098260e+003;7.318333e-003
2.100189e+003;7.455165e-003
2.102117e+003;7.311426e-003
2.104046e+003;7.432278e-003
2.105974e+003;7.522586e-003
2.107903e+003;7.536071e-003
2.109832e+003;7.499156e-003
2.111760e+003;7.192223e-003
2.113688e+003;7.221768e-003
2.115617e+003;7.572754e-003
2.117546e+003;7.519181e-003
2.119474e+003;7.377206e-003
2.121403e+003;7.593827e-003
2.123331e+003;8.010012e-003
2.125260e+003;8.288511e-003
2.127188e+003;8.563405e-003
2.129117e+003;8.884566e-003
2.131045e+003;9.124983e-003
2.132974e+003;9.345728e-003
2.134903e+003;9.217809e-003
2.136831e+003;8.830425e-003
2.138760e+003;8.618459e-003
2.140688e+003;8.577092e-003
2.142617e+003;8.636507e-003
2.144545e+003;8.533971e-003
2.146474e+003;8.392915e-003
2.148402e+003;8.388658e-003
2.150331e+003;8.407745e-003
2.152260e+003;8.525558e-003
2.154188e+003;8.660235e-003
2.156117e+003;8.579930e-003
2.158045e+003;8.701779e-003
2.159974e+003;9.111245e-003
2.161902e+003;9.156081e-003
2.163831e+003;9.337196e-003
2.165759e+003;9.566179e-003
2.167688e+003;9.513442e-003
2.169616e+003;9.767526e-003
2.171545e+003;1.023295e-002
2.173474e+003;1.048379e-002
2.175402e+003;1.029239e-002
2.177331e+003;1.014472e-002
2.179259e+003;9.944049e-003
2.181188e+003;9.727472e-003
2.183116e+003;9.618751e-003
2.185045e+003;9.857981e-003
2.186973e+003;1.004712e-002
2.188902e+003;1.004570e-002
2.190831e+003;9.886454e-003
2.192759e+003;1.002467e-002
2.194688e+003;1.014398e-002
2.196616e+003;1.001050e-002
2.198545e+003;9.944998e-003
2.200473e+003;9.743297e-003
2.202402e+003;9.733741e-003
2.204330e+003;9.823682e-003
2.206259e+003;9.573630e-003
2.208188e+003;9.378331e-003
2.210116e+003;9.365093e-003
2.212044e+003;9.285166e-003
2.213973e+003;9.340040e-003
2.215902e+003;9.476223e-003
2.217830e+003;9.649139e-003
2.219759e+003;9.614144e-003
2.221687e+003;9.619462e-003
2.223616e+003;9.822631e-003
2.225544e+003;1.001087e-002
2.227473e+003;1.024489e-002
2.229401e+003;1.029473e-002
2.231330e+003;1.006537e-002
2.233259e+003;9.958288e-003
2.235187e+003;9.966729e-003
2.237116e+003;1.010355e-002
2.239044e+003;1.011779e-002
2.240973e+003;1.007693e-002
2.242901e+003;1.007323e-002
2.244830e+003;1.001026e-002
2.246758e+003;1.025979e-002
2.248687e+003;1.047144e-002
2.250615e+003;1.069181e-002
2.252544e+003;1.075420e-002
2.254473e+003;1.054113e-002
2.256401e+003;1.055942e-002
2.258330e+003;1.064176e-002
2.260258e+003;1.061341e-002
2.262187e+003;1.081544e-002
2.264115e+003;1.087856e-002
2.266044e+003;1.080634e-002
2.267972e+003;1.071694e-002
2.269901e+003;1.057314e-002
2.271830e+003;1.049374e-002
2.273758e+003;1.021161e-002
2.275687e+003;9.908149e-003
2.277615e+003;9.867134e-003
2.279544e+003;9.966255e-003
2.281472e+003;9.965340e-003
2.283401e+003;9.959712e-003
2.285329e+003;1.013095e-002
2.287258e+003;1.011620e-002
2.289187e+003;9.831375e-003
2.291115e+003;9.759868e-003
2.293043e+003;9.832527e-003
2.294972e+003;9.844526e-003
2.296901e+003;9.811243e-003
2.298829e+003;9.887166e-003
2.300758e+003;1.012482e-002
2.302686e+003;1.032004e-002
2.304615e+003;1.029517e-002
2.306543e+003;1.023434e-002
2.308472e+003;1.017657e-002
2.310400e+003;1.036958e-002
2.312329e+003;1.069178e-002
2.314258e+003;1.064003e-002
2.316186e+003;1.051648e-002
2.318115e+003;1.050334e-002
2.320043e+003;1.071236e-002
2.321972e+003;1.076544e-002
2.323900e+003;1.083654e-002
2.325829e+003;1.117220e-002
2.327757e+003;1.151990e-002
2.329686e+003;1.167474e-002
2.331615e+003;1.176059e-002
2.333543e+003;1.177911e-002
2.335472e+003;1.154926e-002
2.337400e+003;1.168607e-002
2.339329e+003;1.181251e-002
2.341257e+003;1.191732e-002
2.343186e+003;1.224632e-002
2.345114e+003;1.227147e-002
2.347043e+003;1.233886e-002
2.348971e+003;1.242692e-002
2.350900e+003;1.240009e-002
2.352829e+003;1.275795e-002
2.354757e+003;1.298164e-002
2.356686e+003;1.296437e-002
2.358614e+003;1.309957e-002
2.360543e+003;1.305986e-002
2.362471e+003;1.308271e-002
2.364400e+003;1.326765e-002
2.366328e+003;1.335382e-002
2.368257e+003;1.318099e-002
2.370186e+003;1.301739e-002
2.372114e+003;1.303002e-002
2.374042e+003;1.318079e-002
2.375971e+003;1.338378e-002
2.377900e+003;1.364643e-002
2.379828e+003;1.372334e-002
2.381757e+003;1.369478e-002
2.383685e+003;1.394424e-002
2.385614e+003;1.392820e-002
2.387542e+003;1.372118e-002
2.389471e+003;1.375559e-002
2.391399e+003;1.400621e-002
2.393328e+003;1.424911e-002
2.395257e+003;1.452807e-002
2.397185e+003;1.477691e-002
2.399114e+003;1.475343e-002
2.401042e+003;1.490998e-002
2.402971e+003;1.496217e-002
2.404899e+003;1.476084e-002
2.406828e+003;1.460229e-002
2.408756e+003;1.469996e-002
2.410685e+003;1.481072e-002
2.412614e+003;1.485416e-002
2.414542e+003;1.485100e-002
2.416471e+003;1.490682e-002
2.418399e+003;1.488104e-002
2.420328e+003;1.486640e-002
2.422256e+003;1.509499e-002
2.424185e+003;1.532421e-002
2.426113e+003;1.569569e-002
2.428042e+003;1.595190e-002
2.429970e+003;1.579044e-002
2.431899e+003;1.579470e-002
2.433828e+003;1.580137e-002
2.435756e+003;1.566930e-002
2.437685e+003;1.530042e-002
2.439613e+003;1.495192e-002
2.441542e+003;1.500069e-002
2.443470e+003;1.502274e-002
2.445399e+003;1.504106e-002
2.447327e+003;1.496831e-002
2.449256e+003;1.487212e-002
2.451185e+003;1.508037e-002
2.453113e+003;1.512010e-002
2.455042e+003;1.499294e-002
2.456970e+003;1.479265e-002
2.458899e+003;1.471227e-002
2.460827e+003;1.494427e-002
2.462756e+003;1.505471e-002
2.464684e+003;1.499987e-002
2.466613e+003;1.520529e-002
2.468542e+003;1.529195e-002
2.470470e+003;1.495706e-002
2.472398e+003;1.498375e-002
2.474327e+003;1.552107e-002
2.476256e+003;1.570043e-002
2.478184e+003;1.591578e-002
2.480113e+003;1.621563e-002
2.482041e+003;1.629127e-002
2.483970e+003;1.632061e-002
2.485898e+003;1.657699e-002
2.487827e+003;1.674143e-002
2.489755e+003;1.668950e-002
2.491684e+003;1.667611e-002
2.493613e+003;1.671126e-002
2.495541e+003;1.667163e-002
2.497470e+003;1.661558e-002
2.499398e+003;1.681292e-002
2.501327e+003;1.697993e-002
2.503255e+003;1.699454e-002
2.505184e+003;1.708417e-002
2.507112e+003;1.713886e-002
2.509041e+003;1.744960e-002
2.510969e+003;1.801112e-002
2.512898e+003;1.818619e-002
2.514827e+003;1.822091e-002
2.516755e+003;1.842604e-002
2.518684e+003;1.856365e-002
2.520612e+003;1.871158e-002
2.522541e+003;1.886215e-002
2.524469e+003;1.930608e-002
2.526398e+003;1.963047e-002
2.528326e+003;1.952648e-002
2.530255e+003;1.962818e-002
2.532184e+003;2.006471e-002
2.534112e+003;2.021193e-002
2.536041e+003;2.009698e-002
2.537969e+003;2.025567e-002
2.539898e+003;2.052383e-002
2.541826e+003;2.075090e-002
2.543755e+003;2.077033e-002
2.545683e+003;2.085278e-002
2.547612e+003;2.116156e-002
2.549541e+003;2.165517e-002
2.551469e+003;2.217111e-002
2.553397e+003;2.255034e-002
2.555326e+003;2.277795e-002
2.557255e+003;2.284088e-002
2.559183e+003;2.278389e-002
2.561112e+003;2.289665e-002
2.563040e+003;2.334368e-002
2.564969e+003;2.386033e-002
2.566897e+003;2.426683e-002
2.568826e+003;2.442267e-002
2.570754e+003;2.484317e-002
2.572683e+003;2.570518e-002
2.574612e+003;2.655798e-002
2.576540e+003;2.716467e-002
2.578469e+003;2.786459e-002
2.580397e+003;2.836242e-002
2.582326e+003;2.845917e-002
2.584254e+003;2.808839e-002
2.586183e+003;2.723430e-002
2.588111e+003;2.664795e-002
2.590040e+003;2.634000e-002
2.591969e+003;2.597215e-002
2.593897e+003;2.563779e-002
2.595826e+003;2.549030e-002
2.597754e+003;2.512836e-002
2.599683e+003;2.535061e-002
2.601611e+003;2.600564e-002
2.603540e+003;2.607041e-002
2.605468e+003;2.609061e-002
2.607397e+003;2.640831e-002
2.609325e+003;2.676849e-002
2.611254e+003;2.729326e-002
2.613183e+003;2.778309e-002
2.615111e+003;2.796373e-002
2.617040e+003;2.810532e-002
2.618968e+003;2.805322e-002
2.620897e+003;2.813699e-002
2.622825e+003;2.825770e-002
2.624754e+003;2.781001e-002
2.626682e+003;2.725547e-002
2.628611e+003;2.719889e-002
2.630540e+003;2.715582e-002
2.632468e+003;2.714728e-002
2.634396e+003;2.706472e-002
2.636325e+003;2.696542e-002
2.638254e+003;2.707579e-002
2.640182e+003;2.756548e-002
2.642111e+003;2.806425e-002
2.644039e+003;2.839291e-002
2.645968e+003;2.866409e-002
2.647896e+003;2.899551e-002
2.649825e+003;2.932389e-002
2.651753e+003;2.977850e-002
2.653682e+003;3.001394e-002
2.655611e+003;3.000944e-002
2.657539e+003;2.992785e-002
2.659468e+003;3.032465e-002
2.661396e+003;3.067733e-002
2.663325e+003;3.084118e-002
2.665253e+003;3.103559e-002
2.667182e+003;3.099616e-002
2.669110e+003;3.084698e-002
2.671039e+003;3.070393e-002
2.672968e+003;3.082368e-002
2.674896e+003;3.136267e-002
2.676825e+003;3.176520e-002
2.678753e+003;3.199584e-002
2.680682e+003;3.191570e-002
2.682610e+003;3.173101e-002
2.684539e+003;3.177889e-002
2.686467e+003;3.186610e-002
2.688396e+003;3.179572e-002
2.690324e+003;3.187911e-002
2.692253e+003;3.205686e-002
2.694182e+003;3.185836e-002
2.696110e+003;3.171996e-002
2.698039e+003;3.196598e-002
2.699967e+003;3.221942e-002
2.701896e+003;3.265483e-002
2.703824e+003;3.344424e-002
2.705753e+003;3.439802e-002
2.707681e+003;3.522367e-002
2.709610e+003;3.608909e-002
2.711539e+003;3.687219e-002
2.713467e+003;3.786322e-002
2.715396e+003;3.948142e-002
2.717324e+003;4.117775e-002
2.719253e+003;4.284910e-002
2.721181e+003;4.399261e-002
2.723110e+003;4.434166e-002
2.725038e+003;4.390920e-002
2.726967e+003;4.322527e-002
2.728896e+003;4.206067e-002
2.730824e+003;4.041362e-002
2.732752e+003;3.940975e-002
2.734681e+003;3.881587e-002
2.736610e+003;3.823517e-002
2.738538e+003;3.777878e-002
2.740467e+003;3.694830e-002
2.742395e+003;3.577866e-002
2.744324e+003;3.511782e-002
2.746252e+003;3.492682e-002
2.748181e+003;3.492104e-002
2.750109e+003;3.498553e-002
2.752038e+003;3.520254e-002
2.753967e+003;3.539083e-002
2.755895e+003;3.563322e-002
2.757824e+003;3.583587e-002
2.759752e+003;3.620807e-002
2.761681e+003;3.686277e-002
2.763609e+003;3.707242e-002
2.765538e+003;3.710270e-002
2.767466e+003;3.741787e-002
2.769395e+003;3.799842e-002
2.771323e+003;3.855215e-002
2.773252e+003;3.926530e-002
2.775181e+003;3.982094e-002
2.777109e+003;4.021595e-002
2.779038e+003;4.087877e-002
2.780966e+003;4.186046e-002
2.782895e+003;4.297535e-002
2.784823e+003;4.428053e-002
2.786752e+003;4.569005e-002
2.788680e+003;4.734737e-002
2.790609e+003;4.917142e-002
2.792538e+003;5.064439e-002
2.794466e+003;5.173092e-002
2.796395e+003;5.247923e-002
2.798323e+003;5.344320e-002
2.800252e+003;5.476114e-002
2.802180e+003;5.626035e-002
2.804109e+003;5.813481e-002
2.806037e+003;6.017720e-002
2.807966e+003;6.199861e-002
2.809895e+003;6.346183e-002
2.811823e+003;6.493536e-002
2.813751e+003;6.655444e-002
2.815680e+003;6.818846e-002
2.817609e+003;6.986340e-002
2.819537e+003;7.158413e-002
2.821466e+003;7.390718e-002
2.823394e+003;7.711438e-002
2.825323e+003;8.086231e-002
2.827251e+003;8.538408e-002
2.829180e+003;9.077562e-002
2.831108e+003;9.676445e-002
2.833037e+003;1.027744e-001
2.834966e+003;1.079970e-001
2.836894e+003;1.110752e-001
2.838823e+003;1.116059e-001
2.840751e+003;1.108445e-001
2.842680e+003;1.090716e-001
2.844608e+003;1.068790e-001
2.846537e+003;1.050610e-001
2.848465e+003;1.036374e-001
2.850394e+003;1.033184e-001
2.852323e+003;1.031198e-001
2.854251e+003;1.024099e-001
2.856180e+003;1.026311e-001
2.858108e+003;1.042339e-001
2.860037e+003;1.072738e-001
2.861965e+003;1.115256e-001
2.863894e+003;1.161310e-001
2.865822e+003;1.197028e-001
2.867751e+003;1.215952e-001
2.869679e+003;1.221028e-001
2.871608e+003;1.221069e-001
2.873536e+003;1.219162e-001
2.875465e+003;1.215561e-001
2.877394e+003;1.206912e-001
2.879322e+003;1.196043e-001
2.881251e+003;1.188631e-001
2.883179e+003;1.185867e-001
2.885108e+003;1.184944e-001
2.887036e+003;1.188157e-001
2.888965e+003;1.198190e-001
2.890893e+003;1.215439e-001
2.892822e+003;1.235774e-001
2.894750e+003;1.259901e-001
2.896679e+003;1.293596e-001
2.898608e+003;1.331502e-001
2.900536e+003;1.367768e-001
2.902465e+003;1.405573e-001
2.904393e+003;1.448601e-001
2.906322e+003;1.488225e-001
2.908250e+003;1.523698e-001
2.910179e+003;1.557322e-001
2.912107e+003;1.593221e-001
2.914036e+003;1.628926e-001
2.915965e+003;1.652900e-001
2.917893e+003;1.663152e-001
2.919822e+003;1.659918e-001
2.921750e+003;1.640424e-001
2.923679e+003;1.602148e-001
2.925607e+003;1.554044e-001
2.927536e+003;1.503709e-001
2.929464e+003;1.445979e-001
2.931393e+003;1.380031e-001
2.933322e+003;1.320098e-001
2.935250e+003;1.267699e-001
2.937178e+003;1.227374e-001
2.939107e+003;1.207405e-001
2.941036e+003;1.205000e-001
2.942964e+003;1.220770e-001
2.944893e+003;1.261460e-001
2.946821e+003;1.314751e-001
2.948750e+003;1.359837e-001
2.950678e+003;1.385784e-001
2.952607e+003;1.387885e-001
2.954535e+003;1.371088e-001
2.956464e+003;1.341478e-001
2.958393e+003;1.310269e-001
2.960321e+003;1.274342e-001
2.962250e+003;1.228130e-001
2.964178e+003;1.178746e-001
2.966107e+003;1.126665e-001
2.968035e+003;1.069323e-001
2.969964e+003;1.016085e-001
2.971892e+003;9.624954e-002
2.973821e+003;9.124415e-002
2.975750e+003;8.757823e-002
2.977678e+003;8.438638e-002
2.979607e+003;8.121918e-002
2.981535e+003;7.841206e-002
2.983464e+003;7.563315e-002
2.985392e+003;7.294007e-002
2.987321e+003;7.057682e-002
2.989249e+003;6.834681e-002
2.991178e+003;6.643420e-002
2.993106e+003;6.447330e-002
2.995035e+003;6.239627e-002
2.996964e+003;6.049141e-002
2.998892e+003;5.864478e-002
3.000821e+003;5.724312e-002
3.002749e+003;5.595741e-002
3.004678e+003;5.432554e-002
3.006606e+003;5.291953e-002
3.008535e+003;5.192484e-002
3.010463e+003;5.086065e-002
3.012392e+003;4.958684e-002
3.014321e+003;4.862222e-002
3.016249e+003;4.782008e-002
3.018177e+003;4.697197e-002
3.020106e+003;4.615027e-002
3.022035e+003;4.538842e-002
3.023963e+003;4.492354e-002
3.025892e+003;4.451299e-002
3.027820e+003;4.411989e-002
3.029749e+003;4.341092e-002
3.031677e+003;4.301066e-002
3.033606e+003;4.320917e-002
3.035534e+003;4.304508e-002
3.037463e+003;4.262849e-002
3.039392e+003;4.253117e-002
3.041320e+003;4.222756e-002
3.043249e+003;4.215486e-002
3.045177e+003;4.216669e-002
3.047106e+003;4.194603e-002
3.049034e+003;4.190655e-002
3.050963e+003;4.213351e-002
3.052891e+003;4.217319e-002
3.054820e+003;4.193829e-002
3.056749e+003;4.196413e-002
3.058677e+003;4.194847e-002
3.060606e+003;4.174281e-002
3.062534e+003;4.180497e-002
3.064463e+003;4.194534e-002
3.066391e+003;4.194048e-002
3.068320e+003;4.164429e-002
3.070248e+003;4.176550e-002
3.072177e+003;4.174656e-002
3.074105e+003;4.166228e-002
3.076034e+003;4.154974e-002
3.077963e+003;4.144380e-002
3.079891e+003;4.139237e-002
3.081820e+003;4.126056e-002
3.083748e+003;4.134127e-002
3.085677e+003;4.161213e-002
3.087605e+003;4.136908e-002
3.089534e+003;4.098846e-002
3.091462e+003;4.085922e-002
3.093391e+003;4.047076e-002
3.095320e+003;4.010441e-002
3.097248e+003;4.038947e-002
3.099177e+003;4.072149e-002
3.101105e+003;4.095173e-002
3.103034e+003;4.079373e-002
3.104962e+003;4.062379e-002
3.106891e+003;4.061630e-002
3.108819e+003;4.032875e-002
3.110748e+003;4.033152e-002
3.112677e+003;4.040915e-002
3.114605e+003;4.062332e-002
3.116533e+003;4.092151e-002
3.118462e+003;4.078059e-002
3.120391e+003;4.060968e-002
3.122319e+003;4.053932e-002
3.124248e+003;4.050956e-002
3.126176e+003;4.092992e-002
3.128105e+003;4.147282e-002
3.130033e+003;4.147001e-002
3.131962e+003;4.171297e-002
3.133890e+003;4.234772e-002
3.135819e+003;4.253548e-002
3.137748e+003;4.251765e-002
3.139676e+003;4.272580e-002
3.141605e+003;4.303539e-002
3.143533e+003;4.385231e-002
3.145462e+003;4.460640e-002
3.147390e+003;4.470396e-002
3.149319e+003;4.439433e-002
3.151247e+003;4.478771e-002
3.153176e+003;4.472464e-002
3.155104e+003;4.438746e-002
3.157033e+003;4.479017e-002
3.158962e+003;4.520097e-002
3.160890e+003;4.565372e-002
3.162819e+003;4.610804e-002
3.164747e+003;4.616987e-002
3.166676e+003;4.658353e-002
3.168604e+003;4.697285e-002
3.170533e+003;4.716912e-002
3.172461e+003;4.729047e-002
3.174390e+003;4.741167e-002
3.176319e+003;4.767070e-002
3.178247e+003;4.785748e-002
3.180176e+003;4.822606e-002
3.182104e+003;4.852173e-002
3.184033e+003;4.900106e-002
3.185961e+003;4.960444e-002
3.187890e+003;4.957610e-002
3.189818e+003;5.007943e-002
3.191747e+003;5.075506e-002
3.193676e+003;5.070840e-002
3.195604e+003;5.031263e-002
3.197532e+003;5.034619e-002
3.199461e+003;5.050692e-002
3.201390e+003;5.097932e-002
3.203318e+003;5.166583e-002
3.205247e+003;5.199982e-002
3.207175e+003;5.191759e-002
3.209104e+003;5.179811e-002
3.211032e+003;5.176534e-002
3.212961e+003;5.174813e-002
3.214889e+003;5.201966e-002
3.216818e+003;5.219023e-002
3.218747e+003;5.211162e-002
3.220675e+003;5.203871e-002
3.222604e+003;5.225335e-002
3.224532e+003;5.258816e-002
3.226461e+003;5.286130e-002
3.228389e+003;5.260421e-002
3.230318e+003;5.260873e-002
3.232246e+003;5.281595e-002
3.234175e+003;5.252530e-002
3.236104e+003;5.241829e-002
3.238032e+003;5.293241e-002
3.239961e+003;5.348664e-002
3.241889e+003;5.368553e-002
3.243818e+003;5.352100e-002
3.245746e+003;5.348143e-002
3.247675e+003;5.379285e-002
3.249603e+003;5.422161e-002
3.251532e+003;5.444849e-002
3.253460e+003;5.484568e-002
3.255389e+003;5.578617e-002
3.257318e+003;5.626869e-002
3.259246e+003;5.615857e-002
3.261175e+003;5.626597e-002
3.263103e+003;5.681159e-002
3.265032e+003;5.723114e-002
3.266960e+003;5.728270e-002
3.268889e+003;5.707062e-002
3.270817e+003;5.708294e-002
3.272746e+003;5.726160e-002
3.274675e+003;5.746727e-002
3.276603e+003;5.794988e-002
3.278531e+003;5.866454e-002
3.280460e+003;5.858001e-002
3.282389e+003;5.839224e-002
3.284317e+003;5.873566e-002
3.286246e+003;5.893822e-002
3.288174e+003;5.905725e-002
3.290103e+003;5.905141e-002
3.292031e+003;5.856325e-002
3.293960e+003;5.822990e-002
3.295888e+003;5.819947e-002
3.297817e+003;5.810416e-002
3.299746e+003;5.789922e-002
3.301674e+003;5.754969e-002
3.303603e+003;5.715203e-002
3.305531e+003;5.743274e-002
3.307460e+003;5.749893e-002
3.309388e+003;5.720441e-002
3.311317e+003;5.676216e-002
3.313245e+003;5.616147e-002
3.315174e+003;5.571497e-002
3.317103e+003;5.583067e-002
3.319031e+003;5.589085e-002
3.320960e+003;5.587510e-002
3.322888e+003;5.587121e-002
3.324817e+003;5.568529e-002
3.326745e+003;5.538485e-002
3.328674e+003;5.526750e-002
3.330602e+003;5.495058e-002
3.332531e+003;5.447726e-002
3.334459e+003;5.388088e-002
3.336388e+003;5.367279e-002
3.338317e+003;5.381479e-002
3.340245e+003;5.343679e-002
3.342174e+003;5.293039e-002
3.344102e+003;5.275803e-002
3.346031e+003;5.262676e-002
3.347959e+003;5.232708e-002
3.349888e+003;5.183813e-002
3.351816e+003;5.172756e-002
3.353745e+003;5.185266e-002
3.355674e+003;5.154807e-002
3.357602e+003;5.121215e-002
3.359531e+003;5.124555e-002
3.361459e+003;5.083127e-002
3.363388e+003;5.029321e-002
3.365316e+003;4.985505e-002
3.367245e+003;4.918778e-002
3.369173e+003;4.879933e-002
3.371102e+003;4.866740e-002
3.373031e+003;4.878598e-002
3.374959e+003;4.823128e-002
3.376887e+003;4.717100e-002
3.378816e+003;4.649100e-002
3.380745e+003;4.667550e-002
3.382673e+003;4.656815e-002
3.384602e+003;4.605304e-002
3.386530e+003;4.609883e-002
3.388459e+003;4.625611e-002
3.390387e+003;4.604007e-002
3.392316e+003;4.570728e-002
3.394244e+003;4.528401e-002
3.396173e+003;4.505999e-002
3.398102e+003;4.485152e-002
3.400030e+003;4.480038e-002
3.401959e+003;4.461917e-002
3.403887e+003;4.445382e-002
3.405816e+003;4.413959e-002
3.407744e+003;4.327622e-002
3.409673e+003;4.293077e-002
3.411601e+003;4.297097e-002
3.413530e+003;4.271487e-002
3.415458e+003;4.247464e-002
3.417387e+003;4.187659e-002
3.419316e+003;4.143899e-002
3.421244e+003;4.152517e-002
3.423173e+003;4.133679e-002
3.425101e+003;4.053550e-002
3.427030e+003;3.996351e-002
3.428958e+003;3.956717e-002
3.430887e+003;3.925192e-002
3.432815e+003;3.843636e-002
3.434744e+003;3.784699e-002
3.436673e+003;3.804236e-002
3.438601e+003;3.838750e-002
3.440530e+003;3.828775e-002
3.442458e+003;3.750756e-002
3.444387e+003;3.702768e-002
3.446315e+003;3.647621e-002
3.448244e+003;3.645156e-002
3.450172e+003;3.655550e-002
3.452101e+003;3.606742e-002
3.454030e+003;3.535341e-002
3.455958e+003;3.497232e-002
3.457886e+003;3.474541e-002
3.459815e+003;3.453014e-002
3.461744e+003;3.412980e-002
3.463672e+003;3.408650e-002
3.465601e+003;3.355981e-002
3.467529e+003;3.267311e-002
3.469458e+003;3.239299e-002
3.471386e+003;3.239678e-002
3.473315e+003;3.206307e-002
3.475243e+003;3.184000e-002
3.477172e+003;3.149742e-002
3.479101e+003;3.087405e-002
3.481029e+003;3.083702e-002
3.482958e+003;3.070613e-002
3.484886e+003;3.006152e-002
3.486815e+003;2.968196e-002
3.488743e+003;2.914271e-002
3.490672e+003;2.864961e-002
3.492600e+003;2.917010e-002
3.494529e+003;2.890555e-002
3.496458e+003;2.814594e-002
3.498386e+003;2.786582e-002
3.500315e+003;2.699730e-002
3.502243e+003;2.614114e-002
3.504172e+003;2.612748e-002
3.506100e+003;2.643729e-002
3.508029e+003;2.651068e-002
3.509957e+003;2.611847e-002
3.511886e+003;2.593912e-002
3.513814e+003;2.588380e-002
3.515743e+003;2.532139e-002
3.517672e+003;2.466669e-002
3.519600e+003;2.429125e-002
3.521529e+003;2.426707e-002
3.523457e+003;2.394334e-002
3.525386e+003;2.370683e-002
3.527314e+003;2.373297e-002
3.529243e+003;2.333022e-002
3.531171e+003;2.278563e-002
3.533100e+003;2.253729e-002
3.535029e+003;2.247210e-002
3.536957e+003;2.251182e-002
3.538885e+003;2.217020e-002
3.540814e+003;2.156045e-002
3.542743e+003;2.094133e-002
3.544671e+003;2.040161e-002
3.546600e+003;2.060196e-002
3.548528e+003;2.066750e-002
3.550457e+003;2.029008e-002
3.552385e+003;1.978972e-002
3.554314e+003;1.910282e-002
3.556242e+003;1.866018e-002
3.558171e+003;1.846936e-002
3.560100e+003;1.810669e-002
3.562028e+003;1.764549e-002
3.563957e+003;1.713859e-002
3.565885e+003;1.623331e-002
3.567814e+003;1.564323e-002
3.569742e+003;1.605235e-002
3.571671e+003;1.603856e-002
3.573599e+003;1.571802e-002
3.575528e+003;1.554895e-002
3.577457e+003;1.508531e-002
3.579385e+003;1.478610e-002
3.581314e+003;1.446812e-002
3.583242e+003;1.363553e-002
3.585171e+003;1.293248e-002
3.587099e+003;1.278893e-002
3.589028e+003;1.318441e-002
3.590956e+003;1.353597e-002
3.592885e+003;1.295221e-002
3.594813e+003;1.253059e-002
3.596742e+003;1.275447e-002
3.598671e+003;1.227826e-002
3.600599e+003;1.208753e-002
3.602528e+003;1.225170e-002
3.604456e+003;1.195754e-002
3.606385e+003;1.140943e-002
3.608313e+003;1.045280e-002
3.610242e+003;9.849440e-003
3.612170e+003;9.795790e-003
3.614099e+003;1.044594e-002
3.616028e+003;1.070553e-002
3.617956e+003;9.736554e-003
3.619885e+003;9.358524e-003
3.621813e+003;9.685119e-003
3.623742e+003;9.415474e-003
3.625670e+003;8.351333e-003
3.627599e+003;6.320832e-003
3.629527e+003;5.966557e-003
3.631456e+003;7.716310e-003
3.633385e+003;8.593854e-003
3.635313e+003;8.584729e-003
3.637241e+003;8.445751e-003
3.639170e+003;8.374235e-003
3.641099e+003;8.296313e-003
3.643027e+003;7.644172e-003
3.644956e+003;6.673243e-003
3.646884e+003;5.907237e-003
3.648813e+003;5.440986e-003
3.650741e+003;5.756353e-003
3.652670e+003;6.318949e-003
3.654598e+003;6.006500e-003
3.656527e+003;5.979053e-003
3.658456e+003;6.047118e-003
3.660384e+003;5.663088e-003
3.662313e+003;6.054544e-003
3.664241e+003;6.227346e-003
3.666170e+003;5.711330e-003
3.668098e+003;4.393188e-003
3.670027e+003;3.560227e-003
3.671955e+003;4.431313e-003
3.673884e+003;4.052219e-003
3.675813e+003;3.647193e-003
3.677741e+003;4.933443e-003
3.679669e+003;5.464271e-003
3.681598e+003;5.510276e-003
3.683527e+003;5.980565e-003
3.685455e+003;5.952347e-003
3.687384e+003;4.717709e-003
3.689312e+003;4.365776e-003
3.691241e+003;5.091718e-003
3.693169e+003;6.062373e-003
3.695098e+003;6.236186e-003
3.697026e+003;6.039391e-003
3.698955e+003;5.966624e-003
3.700884e+003;5.155051e-003
3.702812e+003;5.288654e-003
3.704741e+003;5.850578e-003
3.706669e+003;5.548633e-003
3.708598e+003;4.682439e-003
3.710526e+003;3.826193e-003
3.712455e+003;4.119482e-003
3.714383e+003;4.925098e-003
3.716312e+003;4.843404e-003
3.718240e+003;4.910856e-003
3.720169e+003;5.191097e-003
3.722098e+003;5.232344e-003
3.724026e+003;4.602666e-003
3.725955e+003;4.174945e-003
3.727883e+003;4.460603e-003
3.729812e+003;4.428099e-003
3.731740e+003;3.790026e-003
3.733669e+003;3.653041e-003
3.735597e+003;3.585249e-003
3.737526e+003;4.068106e-003
3.739455e+003;4.861900e-003
3.741383e+003;4.282246e-003
3.743312e+003;1.806709e-003
3.745240e+003;1.913492e-003
3.747169e+003;3.030651e-003
3.749097e+003;1.918617e-003
3.751026e+003;1.775400e-003
3.752954e+003;3.438376e-003
3.754883e+003;5.267424e-003
3.756812e+003;5.208400e-003
3.758740e+003;5.039020e-003
3.760668e+003;5.477895e-003
3.762597e+003;6.059853e-003
3.764526e+003;6.081223e-003
3.766454e+003;6.205229e-003
3.768383e+003;5.553198e-003
3.770311e+003;4.852719e-003
3.772240e+003;5.343462e-003
3.774168e+003;5.734697e-003
3.776097e+003;5.423002e-003
3.778025e+003;4.967795e-003
3.779954e+003;4.868333e-003
3.781883e+003;4.973794e-003
3.783811e+003;5.291975e-003
3.785740e+003;5.913719e-003
3.787668e+003;5.986914e-003
3.789597e+003;5.920101e-003
3.791525e+003;5.525679e-003
3.793454e+003;4.959785e-003
3.795382e+003;5.099999e-003
3.797311e+003;5.334069e-003
3.799240e+003;4.360923e-003
3.801168e+003;3.572721e-003
3.803097e+003;4.513901e-003
3.805025e+003;4.323774e-003
3.806954e+003;3.634596e-003
3.808882e+003;4.801357e-003
3.810811e+003;5.188649e-003
3.812739e+003;4.854729e-003
3.814668e+003;3.656014e-003
3.816596e+003;3.830638e-003
3.818525e+003;4.370930e-003
3.820454e+003;3.434635e-003
3.822382e+003;4.111755e-003
3.824311e+003;5.435416e-003
3.826239e+003;5.793590e-003
3.828168e+003;5.623579e-003
3.830096e+003;5.450582e-003
3.832025e+003;5.631602e-003
3.833953e+003;5.856791e-003
3.835882e+003;4.845716e-003
3.837811e+003;3.214838e-003
3.839739e+003;3.463525e-003
3.841667e+003;4.158252e-003
3.843596e+003;4.137545e-003
3.845525e+003;4.252398e-003
3.847453e+003;4.821894e-003
3.849382e+003;4.999903e-003
3.851310e+003;3.275561e-003
3.853239e+003;1.419792e-003
3.855167e+003;3.441114e-003
3.857096e+003;5.554607e-003
3.859024e+003;5.379456e-003
3.860953e+003;5.020551e-003
3.862882e+003;4.909415e-003
3.864810e+003;5.008652e-003
3.866739e+003;5.346045e-003
3.868667e+003;4.817505e-003
3.870596e+003;5.048675e-003
3.872524e+003;5.590451e-003
3.874453e+003;5.703373e-003
3.876381e+003;6.193969e-003
3.878310e+003;5.744803e-003
3.880239e+003;5.142746e-003
3.882167e+003;5.503128e-003
3.884096e+003;5.373921e-003
3.886024e+003;5.290096e-003
3.887953e+003;5.916776e-003
3.889881e+003;5.276982e-003
3.891810e+003;5.172655e-003
3.893738e+003;6.433776e-003
3.895667e+003;7.139270e-003
3.897595e+003;6.988059e-003
3.899524e+003;6.671763e-003
3.901453e+003;5.710322e-003
3.903381e+003;5.253640e-003
3.905310e+003;6.273498e-003
3.907238e+003;6.842858e-003
3.909167e+003;6.136702e-003
3.911095e+003;5.777103e-003
3.913024e+003;6.464715e-003
3.914952e+003;6.329842e-003
3.916881e+003;5.376337e-003
3.918810e+003;5.680310e-003
3.920738e+003;6.852619e-003
3.922667e+003;7.005333e-003
3.924595e+003;6.630379e-003
3.926524e+003;6.939002e-003
3.928452e+003;7.199938e-003
3.930381e+003;7.069080e-003
3.932309e+003;7.309067e-003
3.934238e+003;7.530441e-003
3.936167e+003;7.706866e-003
3.938095e+003;8.042582e-003
3.940023e+003;8.327182e-003
3.941952e+003;7.867269e-003
3.943881e+003;7.327331e-003
3.945809e+003;7.264287e-003
3.947738e+003;7.101142e-003
3.949666e+003;6.441409e-003
3.951595e+003;6.588225e-003
3.953523e+003;7.462884e-003
3.955452e+003;7.467570e-003
3.957380e+003;7.013044e-003
3.959309e+003;6.887561e-003
3.961238e+003;7.054531e-003
3.963166e+003;6.894664e-003
3.965095e+003;6.716280e-003
3.967023e+003;6.908029e-003
3.968952e+003;7.322310e-003
3.970880e+003;7.352605e-003
3.972809e+003;7.530036e-003
3.974737e+003;7.850434e-003
3.976666e+003;7.756347e-003
3.978594e+003;7.463356e-003
3.980523e+003;7.774798e-003
3.982452e+003;8.099056e-003
3.984380e+003;8.048625e-003
3.986309e+003;7.990065e-003
3.988237e+003;8.107394e-003
3.990166e+003;8.770713e-003
3.992094e+003;9.406094e-003
3.994023e+003;9.167079e-003
3.995951e+003;9.329545e-003
3.997880e+003;9.332525e-003
3.999809e+003;8.493762e-003
4.001737e+003;0.000000e+000
