3.992094e+002;0.000000e+000
4.011380e+002;0.000000e+000
4.030665e+002;0.000000e+000
4.049951e+002;0.000000e+000
4.069236e+002;0.000000e+000
4.088522e+002;0.000000e+000
4.107807e+002;0.000000e+000
4.127093e+002;0.000000e+000
4.146378e+002;0.000000e+000
4.165664e+002;0.000000e+000
4.184949e+002;0.000000e+000
4.204235e+002;0.000000e+000
4.223520e+002;0.000000e+000
4.242806e+002;0.000000e+000
4.262091e+002;0.000000e+000
4.281377e+002;0.000000e+000
4.300662e+002;0.000000e+000
4.319948e+002;0.000000e+000
4.339233e+002;0.000000e+000
4.358519e+002;0.000000e+000
4.377804e+002;0.000000e+000
4.397090e+002;0.000000e+000
4.416375e+002;0.000000e+000
4.435660e+002;0.000000e+000
4.454946e+002;0.000000e+000
4.474232e+002;0.000000e+000
4.493517e+002;0.000000e+000
4.512802e+002;0.000000e+000
4.532088e+002;0.000000e+000
4.551373e+002;0.000000e+000
4.570659e+002;0.000000e+000
4.589944e+002;0.000000e+000
4.609230e+002;0.000000e+000
4.628515e+002;0.000000e+000
4.647801e+002;0.000000e+000
4.667086e+002;0.000000e+000
4.686372e+002;0.000000e+000
4.705657e+002;0.000000e+000
4.724943e+002;0.000000e+000
4.744228e+002;0.000000e+000
4.763513e+002;0.000000e+000
4.782799e+002;0.000000e+000
4.802085e+002;0.000000e+000
4.821370e+002;0.000000e+000
4.840656e+002;0.000000e+000
4.859941e+002;0.000000e+000
4.879226e+002;0.000000e+000
4.898512e+002;0.000000e+000
4.917798e+002;0.000000e+000
4.937083e+002;0.000000e+000
4.956368e+002;0.000000e+000
4.975654e+002;0.000000e+000
4.994939e+002;0.000000e+000
5.014225e+002;0.000000e+000
5.033510e+002;0.000000e+000
5.052796e+002;0.000000e+000
5.072081e+002;0.000000e+000
5.091367e+002;0.000000e+000
5.110652e+002;0.000000e+000
5.129938e+002;0.000000e+000
5.149223e+002;0.000000e+000
5.168509e+002;0.000000e+000
5.187794e+002;0.000000e+000
5.207079e+002;0.000000e+000
5.226365e+002;0.000000e+000
5.245651e+002;0.000000e+000
5.264936e+002;0.000000e+000
5.284222e+002;0.000000e+000
5.303507e+002;0.000000e+000
5.322792e+002;0.000000e+000
5.342078e+002;0.000000e+000
5.361364e+002;0.000000e+000
5.380649e+002;0.000000e+000
5.399935e+002;0.000000e+000
5.419220e+002;0.000000e+000
5.438505e+002;0.000000e+000
5.457791e+002;0.000000e+000
5.477076e+002;0.000000e+000
5.496362e+002;0.000000e+000
5.515648e+002;0.000000e+000
5.534933e+002;0.000000e+000
5.554218e+002;0.000000e+000
5.573504e+002;0.000000e+000
5.592789e+002;0.000000e+000
5.612075e+002;0.000000e+000
5.631360e+002;0.000000e+000
5.650646e+002;0.000000e+000
5.669931e+002;0.000000e+000
5.689217e+002;0.000000e+000
5.708502e+002;0.000000e+000
5.727787e+002;0.000000e+000
5.747073e+002;0.000000e+000
5.766359e+002;0.000000e+000
5.785644e+002;0.000000e+000
5.804930e+002;0.000000e+000
5.824215e+002;0.000000e+000
5.843500e+002;0.000000e+000
5.862786e+002;0.000000e+000
5.882072e+002;0.000000e+000
5.901357e+002;0.000000e+000
5.920643e+002;0.000000e+000
5.939928e+002;0.000000e+000
5.959213e+002;0.000000e+000
5.978499e+002;0.000000e+000
5.997784e+002;5.320670e-002
6.017070e+002;5.282923e-002
6.036355e+002;5.023712e-002
6.055641e+002;5.169946e-002
6.074926e+002;5.117170e-002
6.094211e+002;4.848313e-002
6.113497e+002;4.725737e-002
6.132783e+002;4.593947e-002
6.152068e+002;5.080583e-002
6.171354e+002;5.459876e-002
6.190639e+002;5.216314e-002
6.209924e+002;4.915706e-002
6.229210e+002;5.046423e-002
6.248495e+002;5.402502e-002
6.267781e+002;5.266069e-002
6.287067e+002;5.117793e-002
6.306352e+002;5.399407e-002
6.325637e+002;5.568921e-002
6.344923e+002;5.171719e-002
6.364208e+002;4.705729e-002
6.383494e+002;4.717137e-002
6.402780e+002;4.876941e-002
6.422065e+002;4.992563e-002
6.441350e+002;5.180801e-002
6.460636e+002;5.042218e-002
6.479921e+002;5.062232e-002
6.499207e+002;5.317438e-002
6.518492e+002;5.034355e-002
6.537778e+002;4.890960e-002
6.557063e+002;5.109592e-002
6.576349e+002;5.272548e-002
6.595634e+002;5.422435e-002
6.614919e+002;5.371305e-002
6.634205e+002;5.375389e-002
6.653491e+002;5.369524e-002
6.672776e+002;5.302944e-002
6.692062e+002;5.283814e-002
6.711347e+002;5.341716e-002
6.730632e+002;5.304100e-002
6.749918e+002;5.251685e-002
6.769203e+002;5.325007e-002
6.788489e+002;5.302045e-002
6.807775e+002;5.217906e-002
6.827060e+002;5.113756e-002
6.846345e+002;5.179796e-002
6.865631e+002;5.314753e-002
6.884916e+002;5.162661e-002
6.904202e+002;5.018850e-002
6.923488e+002;5.007831e-002
6.942773e+002;4.964586e-002
6.962058e+002;5.107464e-002
6.981344e+002;5.288289e-002
7.000629e+002;5.301244e-002
7.019915e+002;5.270744e-002
7.039200e+002;5.258805e-002
7.058486e+002;5.256030e-002
7.077771e+002;5.268100e-002
7.097057e+002;5.291355e-002
7.116342e+002;5.382807e-002
7.135627e+002;5.508503e-002
7.154913e+002;5.548954e-002
7.174199e+002;5.489914e-002
7.193484e+002;5.454988e-002
7.212770e+002;5.465655e-002
7.232055e+002;5.497457e-002
7.251340e+002;5.574232e-002
7.270626e+002;5.567836e-002
7.289911e+002;5.474794e-002
7.309197e+002;5.463389e-002
7.328483e+002;5.503542e-002
7.347768e+002;5.476986e-002
7.367053e+002;5.471017e-002
7.386339e+002;5.586085e-002
7.405624e+002;5.654158e-002
7.424910e+002;5.678494e-002
7.444196e+002;5.595002e-002
7.463481e+002;5.495524e-002
7.482766e+002;5.424733e-002
7.502052e+002;5.414789e-002
7.521337e+002;5.508157e-002
7.540623e+002;5.586967e-002
7.559908e+002;5.517739e-002
7.579194e+002;5.518664e-002
7.598479e+002;5.523521e-002
7.617765e+002;5.483545e-002
7.637050e+002;5.520752e-002
7.656335e+002;5.555856e-002
7.675621e+002;5.556861e-002
7.694907e+002;5.644917e-002
7.714192e+002;5.603215e-002
7.733478e+002;5.529757e-002
7.752763e+002;5.549323e-002
7.772048e+002;5.554850e-002
7.791334e+002;5.529828e-002
7.810620e+002;5.518092e-002
7.829905e+002;5.603747e-002
7.849191e+002;5.675763e-002
7.868476e+002;5.660854e-002
7.887761e+002;5.658846e-002
7.907047e+002;5.720849e-002
7.926332e+002;5.826839e-002
7.945618e+002;5.939732e-002
7.964903e+002;6.085632e-002
7.984189e+002;6.210946e-002
8.003474e+002;6.315757e-002
8.022759e+002;6.484772e-002
8.042045e+002;6.702627e-002
8.061331e+002;6.948152e-002
8.080616e+002;7.301418e-002
8.099902e+002;7.502132e-002
8.119187e+002;7.387435e-002
8.138472e+002;7.042093e-002
8.157758e+002;6.726384e-002
8.177043e+002;6.523209e-002
8.196329e+002;6.381104e-002
8.215615e+002;6.246632e-002
8.234900e+002;6.134866e-002
8.254185e+002;6.140209e-002
8.273471e+002;6.162503e-002
8.292756e+002;6.196574e-002
8.312042e+002;6.281558e-002
8.331328e+002;6.376676e-002
8.350613e+002;6.555946e-002
8.369898e+002;6.902800e-002
8.389184e+002;7.528274e-002
8.408469e+002;8.202860e-002
8.427755e+002;8.188582e-002
8.447040e+002;7.570967e-002
8.466326e+002;6.918475e-002
8.485611e+002;6.486030e-002
8.504897e+002;6.261104e-002
8.524182e+002;6.135141e-002
8.543467e+002;6.040614e-002
8.562753e+002;5.980081e-002
8.582039e+002;5.960692e-002
8.601324e+002;5.941894e-002
8.620610e+002;5.925971e-002
8.639895e+002;5.923665e-002
8.659180e+002;5.913037e-002
8.678466e+002;5.888494e-002
8.697751e+002;5.884848e-002
8.717037e+002;5.878634e-002
8.736323e+002;5.881085e-002
8.755608e+002;5.867774e-002
8.774893e+002;5.859526e-002
8.794179e+002;5.827093e-002
8.813464e+002;5.783626e-002
8.832750e+002;5.824581e-002
8.852036e+002;5.878979e-002
8.871321e+002;5.878326e-002
8.890606e+002;5.915144e-002
8.909892e+002;6.037629e-002
8.929177e+002;6.283683e-002
8.948463e+002;6.685445e-002
8.967748e+002;7.146392e-002
8.987034e+002;7.444484e-002
9.006319e+002;7.522158e-002
9.025605e+002;7.230230e-002
9.044890e+002;6.628349e-002
9.064175e+002;6.097728e-002
9.083461e+002;5.807897e-002
9.102747e+002;5.677919e-002
9.122032e+002;5.575132e-002
9.141318e+002;5.518453e-002
9.160603e+002;5.481764e-002
9.179888e+002;5.417784e-002
9.199174e+002;5.402986e-002
9.218459e+002;5.404716e-002
9.237745e+002;5.394379e-002
9.257031e+002;5.390988e-002
9.276316e+002;5.431266e-002
9.295601e+002;5.479602e-002
9.314887e+002;5.503828e-002
9.334172e+002;5.533494e-002
9.353458e+002;5.600452e-002
9.372744e+002;5.737500e-002
9.392029e+002;5.925181e-002
9.411314e+002;6.032143e-002
9.430600e+002;6.039697e-002
9.449885e+002;5.996717e-002
9.469171e+002;5.959366e-002
9.488456e+002;5.923210e-002
9.507742e+002;5.912111e-002
9.527027e+002;5.992723e-002
9.546313e+002;6.075791e-002
9.565598e+002;6.136996e-002
9.584883e+002;6.234639e-002
9.604169e+002;6.334987e-002
9.623455e+002;6.493036e-002
9.642740e+002;6.797099e-002
9.662026e+002;7.230892e-002
9.681311e+002;7.854585e-002
9.700596e+002;8.639050e-002
9.719882e+002;9.359208e-002
9.739167e+002;9.604277e-002
9.758453e+002;9.225950e-002
9.777739e+002;8.470713e-002
9.797024e+002;7.643329e-002
9.816309e+002;6.944731e-002
9.835595e+002;6.521627e-002
9.854880e+002;6.337620e-002
9.874166e+002;6.341577e-002
9.893452e+002;6.532120e-002
9.912737e+002;6.884765e-002
9.932022e+002;7.405557e-002
9.951307e+002;8.102264e-002
9.970593e+002;8.728318e-002
9.989879e+002;8.838274e-002
1.000916e+003;8.348858e-002
1.002845e+003;7.650314e-002
1.004773e+003;7.074030e-002
1.006702e+003;6.706447e-002
1.008631e+003;6.506813e-002
1.010559e+003;6.429918e-002
1.012488e+003;6.367271e-002
1.014416e+003;6.262884e-002
1.016345e+003;6.204551e-002
1.018273e+003;6.218202e-002
1.020202e+003;6.241612e-002
1.022130e+003;6.256588e-002
1.024059e+003;6.238839e-002
1.025988e+003;6.218302e-002
1.027916e+003;6.270745e-002
1.029845e+003;6.366864e-002
1.031773e+003;6.442215e-002
1.033702e+003;6.490420e-002
1.035630e+003;6.593759e-002
1.037559e+003;6.720454e-002
1.039487e+003;6.790563e-002
1.041416e+003;6.828830e-002
1.043344e+003;6.858484e-002
1.045273e+003;6.825251e-002
1.047202e+003;6.721012e-002
1.049130e+003;6.595533e-002
1.051059e+003;6.530240e-002
1.052987e+003;6.512210e-002
1.054916e+003;6.481221e-002
1.056844e+003;6.437553e-002
1.058773e+003;6.385652e-002
1.060701e+003;6.321593e-002
1.062630e+003;6.278548e-002
1.064558e+003;6.258084e-002
1.066487e+003;6.260763e-002
1.068416e+003;6.241734e-002
1.070344e+003;6.234268e-002
1.072273e+003;6.324541e-002
1.074201e+003;6.356368e-002
1.076130e+003;6.306986e-002
1.078058e+003;6.263661e-002
1.079987e+003;6.224309e-002
1.081915e+003;6.265337e-002
1.083844e+003;6.341987e-002
1.085773e+003;6.344997e-002
1.087701e+003;6.373617e-002
1.089630e+003;6.409663e-002
1.091558e+003;6.427544e-002
1.093487e+003;6.472025e-002
1.095415e+003;6.544904e-002
1.097344e+003;6.650752e-002
1.099272e+003;6.839863e-002
1.101201e+003;6.963155e-002
1.103129e+003;6.939766e-002
1.105058e+003;6.875588e-002
1.106987e+003;6.807861e-002
1.108915e+003;6.648586e-002
1.110844e+003;6.450624e-002
1.112772e+003;6.297455e-002
1.114701e+003;6.202831e-002
1.116629e+003;6.105724e-002
1.118558e+003;5.990718e-002
1.120486e+003;5.956071e-002
1.122415e+003;5.962160e-002
1.124344e+003;5.941404e-002
1.126272e+003;5.899417e-002
1.128201e+003;5.873531e-002
1.130129e+003;5.926890e-002
1.132058e+003;6.014835e-002
1.133986e+003;6.063293e-002
1.135915e+003;6.142209e-002
1.137843e+003;6.282829e-002
1.139772e+003;6.480833e-002
1.141700e+003;6.737187e-002
1.143629e+003;7.001131e-002
1.145557e+003;7.272338e-002
1.147486e+003;7.595409e-002
1.149415e+003;7.901856e-002
1.151343e+003;8.171102e-002
1.153272e+003;8.336917e-002
1.155200e+003;8.409023e-002
1.157129e+003;8.408505e-002
1.159057e+003;8.443568e-002
1.160986e+003;8.540477e-002
1.162914e+003;8.658891e-002
1.164843e+003;8.785798e-002
1.166771e+003;8.839431e-002
1.168700e+003;8.763977e-002
1.170629e+003;8.500628e-002
1.172557e+003;8.070599e-002
1.174486e+003;7.581997e-002
1.176414e+003;7.149810e-002
1.178343e+003;6.798463e-002
1.180271e+003;6.550579e-002
1.182200e+003;6.386631e-002
1.184128e+003;6.308430e-002
1.186057e+003;6.272280e-002
1.187986e+003;6.204944e-002
1.189914e+003;6.139781e-002
1.191843e+003;6.135091e-002
1.193771e+003;6.141052e-002
1.195700e+003;6.133458e-002
1.197628e+003;6.163836e-002
1.199557e+003;6.187477e-002
1.201485e+003;6.180837e-002
1.203414e+003;6.206542e-002
1.205343e+003;6.212865e-002
1.207271e+003;6.227942e-002
1.209200e+003;6.313726e-002
1.211128e+003;6.428082e-002
1.213057e+003;6.538644e-002
1.214985e+003;6.620306e-002
1.216914e+003;6.653336e-002
1.218842e+003;6.675656e-002
1.220771e+003;6.685495e-002
1.222699e+003;6.606554e-002
1.224628e+003;6.510305e-002
1.226557e+003;6.441823e-002
1.228485e+003;6.402370e-002
1.230414e+003;6.387736e-002
1.232342e+003;6.408549e-002
1.234271e+003;6.424735e-002
1.236199e+003;6.418174e-002
1.238128e+003;6.400935e-002
1.240056e+003;6.413668e-002
1.241985e+003;6.423970e-002
1.243913e+003;6.449571e-002
1.245842e+003;6.511952e-002
1.247771e+003;6.571597e-002
1.249699e+003;6.655989e-002
1.251628e+003;6.833789e-002
1.253556e+003;7.082228e-002
1.255485e+003;7.248628e-002
1.257413e+003;7.226513e-002
1.259342e+003;7.040752e-002
1.261270e+003;6.831311e-002
1.263199e+003;6.654996e-002
1.265127e+003;6.548163e-002
1.267056e+003;6.502522e-002
1.268985e+003;6.444243e-002
1.270913e+003;6.370942e-002
1.272842e+003;6.351877e-002
1.274770e+003;6.367121e-002
1.276699e+003;6.375045e-002
1.278627e+003;6.361002e-002
1.280556e+003;6.375950e-002
1.282484e+003;6.424339e-002
1.284413e+003;6.464976e-002
1.286342e+003;6.530514e-002
1.288270e+003;6.618966e-002
1.290199e+003;6.719205e-002
1.292127e+003;6.823561e-002
1.294056e+003;6.937061e-002
1.295984e+003;6.999990e-002
1.297913e+003;6.992419e-002
1.299841e+003;6.952332e-002
1.301770e+003;6.974285e-002
1.303698e+003;7.048792e-002
1.305627e+003;6.980480e-002
1.307556e+003;6.697612e-002
1.309484e+003;6.416695e-002
1.311413e+003;6.285884e-002
1.313341e+003;6.234895e-002
1.315270e+003;6.237863e-002
1.317198e+003;6.286888e-002
1.319127e+003;6.377780e-002
1.321055e+003;6.490920e-002
1.322984e+003;6.613471e-002
1.324912e+003;6.782331e-002
1.326841e+003;6.945656e-002
1.328770e+003;7.029735e-002
1.330698e+003;7.023954e-002
1.332627e+003;6.949423e-002
1.334555e+003;6.812516e-002
1.336484e+003;6.707773e-002
1.338412e+003;6.710611e-002
1.340341e+003;6.794546e-002
1.342269e+003;6.910017e-002
1.344198e+003;7.050955e-002
1.346126e+003;7.229706e-002
1.348055e+003;7.492859e-002
1.349984e+003;7.853322e-002
1.351912e+003;8.310401e-002
1.353841e+003;8.921491e-002
1.355769e+003;9.672479e-002
1.357698e+003;1.031338e-001
1.359626e+003;1.056657e-001
1.361555e+003;1.044389e-001
1.363483e+003;1.030222e-001
1.365412e+003;1.049718e-001
1.367341e+003;1.126860e-001
1.369269e+003;1.280225e-001
1.371198e+003;1.509719e-001
1.373126e+003;1.770425e-001
1.375055e+003;1.962897e-001
1.376983e+003;1.958473e-001
1.378912e+003;1.743648e-001
1.380840e+003;1.463798e-001
1.382769e+003;1.220465e-001
1.384698e+003;1.030057e-001
1.386626e+003;8.931860e-002
1.388555e+003;8.024742e-002
1.390483e+003;7.456170e-002
1.392412e+003;7.089124e-002
1.394340e+003;6.855884e-002
1.396269e+003;6.738939e-002
1.398197e+003;6.677224e-002
1.400126e+003;6.627700e-002
1.402054e+003;6.586475e-002
1.403983e+003;6.591835e-002
1.405911e+003;6.618708e-002
1.407840e+003;6.606994e-002
1.409769e+003;6.606612e-002
1.411697e+003;6.688846e-002
1.413626e+003;6.759050e-002
1.415554e+003;6.755102e-002
1.417483e+003;6.737628e-002
1.419411e+003;6.786453e-002
1.421340e+003;6.891587e-002
1.423268e+003;7.041322e-002
1.425197e+003;7.261578e-002
1.427125e+003;7.595153e-002
1.429054e+003;8.148651e-002
1.430983e+003;9.004770e-002
1.432911e+003;1.002743e-001
1.434840e+003;1.077772e-001
1.436768e+003;1.104436e-001
1.438697e+003;1.112258e-001
1.440625e+003;1.136794e-001
1.442554e+003;1.194864e-001
1.444482e+003;1.283893e-001
1.446411e+003;1.386117e-001
1.448340e+003;1.482909e-001
1.450268e+003;1.555818e-001
1.452197e+003;1.596226e-001
1.454125e+003;1.610833e-001
1.456054e+003;1.608226e-001
1.457982e+003;1.592661e-001
1.459911e+003;1.569198e-001
1.461839e+003;1.525830e-001
1.463768e+003;1.453139e-001
1.465697e+003;1.357120e-001
1.467625e+003;1.251842e-001
1.469554e+003;1.146354e-001
1.471482e+003;1.048293e-001
1.473411e+003;9.577665e-002
1.475339e+003;8.768980e-002
1.477268e+003;8.075041e-002
1.479196e+003;7.489142e-002
1.481125e+003;7.008045e-002
1.483053e+003;6.614941e-002
1.484982e+003;6.278046e-002
1.486911e+003;6.009264e-002
1.488839e+003;5.820580e-002
1.490768e+003;5.674563e-002
1.492696e+003;5.555506e-002
1.494625e+003;5.442896e-002
1.496553e+003;5.320292e-002
1.498482e+003;5.235713e-002
1.500410e+003;5.183089e-002
1.502339e+003;5.113375e-002
1.504267e+003;5.050755e-002
1.506196e+003;5.001220e-002
1.508125e+003;4.950235e-002
1.510053e+003;4.930940e-002
1.511982e+003;4.917342e-002
1.513910e+003;4.901071e-002
1.515839e+003;4.893415e-002
1.517767e+003;4.861815e-002
1.519696e+003;4.831333e-002
1.521624e+003;4.829186e-002
1.523553e+003;4.835856e-002
1.525481e+003;4.830204e-002
1.527410e+003;4.842071e-002
1.529339e+003;4.853507e-002
1.531267e+003;4.847361e-002
1.533196e+003;4.863868e-002
1.535124e+003;4.889718e-002
1.537053e+003;4.887523e-002
1.538981e+003;4.861077e-002
1.540910e+003;4.881994e-002
1.542838e+003;4.946002e-002
1.544767e+003;5.029001e-002
1.546695e+003;5.091109e-002
1.548624e+003;5.099571e-002
1.550553e+003;5.066666e-002
1.552481e+003;5.055121e-002
1.554410e+003;5.039724e-002
1.556338e+003;5.000447e-002
1.558267e+003;4.932072e-002
1.560195e+003;4.877260e-002
1.562124e+003;4.836689e-002
1.564052e+003;4.786606e-002
1.565981e+003;4.748743e-002
1.567910e+003;4.707015e-002
1.569838e+003;4.662832e-002
1.571767e+003;4.627303e-002
1.573695e+003;4.585543e-002
1.575624e+003;4.575296e-002
1.577552e+003;4.583057e-002
1.579481e+003;4.581452e-002
1.581409e+003;4.590319e-002
1.583338e+003;4.625279e-002
1.585266e+003;4.650490e-002
1.587195e+003;4.656941e-002
1.589124e+003;4.640877e-002
1.591052e+003;4.630573e-002
1.592981e+003;4.674066e-002
1.594909e+003;4.722974e-002
1.596838e+003;4.746293e-002
1.598766e+003;4.777972e-002
1.600695e+003;4.819136e-002
1.602623e+003;4.847891e-002
1.604552e+003;4.891706e-002
1.606480e+003;4.956429e-002
1.608409e+003;5.012368e-002
1.610338e+003;5.067351e-002
1.612266e+003;5.108321e-002
1.614195e+003;5.139904e-002
1.616123e+003;5.202843e-002
1.618052e+003;5.291059e-002
1.619980e+003;5.345223e-002
1.621909e+003;5.381783e-002
1.623837e+003;5.421793e-002
1.625766e+003;5.475813e-002
1.627694e+003;5.524267e-002
1.629623e+003;5.573158e-002
1.631552e+003;5.608821e-002
1.633480e+003;5.633847e-002
1.635409e+003;5.672395e-002
1.637337e+003;5.727934e-002
1.639266e+003;5.771185e-002
1.641194e+003;5.817053e-002
1.643123e+003;5.882799e-002
1.645051e+003;5.943622e-002
1.646980e+003;6.005105e-002
1.648909e+003;6.056553e-002
1.650837e+003;6.044301e-002
1.652766e+003;6.016483e-002
1.654694e+003;6.017922e-002
1.656623e+003;6.031983e-002
1.658551e+003;6.012278e-002
1.660480e+003;5.978553e-002
1.662408e+003;5.952366e-002
1.664337e+003;5.912665e-002
1.666266e+003;5.855540e-002
1.668194e+003;5.811666e-002
1.670123e+003;5.773131e-002
1.672051e+003;5.744480e-002
1.673980e+003;5.714103e-002
1.675908e+003;5.677780e-002
1.677837e+003;5.636518e-002
1.679765e+003;5.585577e-002
1.681694e+003;5.564898e-002
1.683622e+003;5.528210e-002
1.685551e+003;5.486951e-002
1.687479e+003;5.460969e-002
1.689408e+003;5.456994e-002
1.691337e+003;5.500902e-002
1.693265e+003;5.532730e-002
1.695194e+003;5.540732e-002
1.697122e+003;5.593837e-002
1.699051e+003;5.645615e-002
1.700979e+003;5.662746e-002
1.702908e+003;5.730811e-002
1.704836e+003;5.812818e-002
1.706765e+003;5.850843e-002
1.708693e+003;5.862578e-002
1.710622e+003;5.881965e-002
1.712551e+003;5.867106e-002
1.714479e+003;5.812753e-002
1.716408e+003;5.768938e-002
1.718336e+003;5.734603e-002
1.720265e+003;5.701814e-002
1.722193e+003;5.682493e-002
1.724122e+003;5.687342e-002
1.726050e+003;5.701565e-002
1.727979e+003;5.700790e-002
1.729908e+003;5.684751e-002
1.731836e+003;5.698980e-002
1.733765e+003;5.754950e-002
1.735693e+003;5.807004e-002
1.737622e+003;5.804788e-002
1.739550e+003;5.786518e-002
1.741479e+003;5.757878e-002
1.743407e+003;5.659035e-002
1.745336e+003;5.486557e-002
1.747265e+003;5.306590e-002
1.749193e+003;5.126077e-002
1.751122e+003;4.934002e-002
1.753050e+003;4.736825e-002
1.754979e+003;4.536032e-002
1.756907e+003;4.340297e-002
1.758836e+003;4.187601e-002
1.760764e+003;4.041082e-002
1.762693e+003;3.903556e-002
1.764621e+003;3.790241e-002
1.766550e+003;3.699978e-002
1.768479e+003;3.664681e-002
1.770407e+003;3.630139e-002
1.772336e+003;3.585634e-002
1.774264e+003;3.547093e-002
1.776193e+003;3.503776e-002
1.778121e+003;3.461348e-002
1.780050e+003;3.392189e-002
1.781978e+003;3.306485e-002
1.783907e+003;3.242937e-002
1.785835e+003;3.175668e-002
1.787764e+003;3.108521e-002
1.789693e+003;3.041665e-002
1.791621e+003;2.974831e-002
1.793550e+003;2.928855e-002
1.795478e+003;2.870462e-002
1.797407e+003;2.799306e-002
1.799335e+003;2.748168e-002
1.801264e+003;2.690528e-002
1.803192e+003;2.625858e-002
1.805121e+003;2.589544e-002
1.807049e+003;2.583791e-002
1.808978e+003;2.569741e-002
1.810907e+003;2.536653e-002
1.812835e+003;2.510652e-002
1.814764e+003;2.491169e-002
1.816692e+003;2.477346e-002
1.818621e+003;2.465547e-002
1.820549e+003;2.430621e-002
1.822478e+003;2.420716e-002
1.824406e+003;2.449011e-002
1.826335e+003;2.438902e-002
1.828264e+003;2.420940e-002
1.830192e+003;2.425358e-002
1.832121e+003;2.408281e-002
1.834049e+003;2.401389e-002
1.835978e+003;2.429528e-002
1.837906e+003;2.425295e-002
1.839835e+003;2.378399e-002
1.841763e+003;2.340511e-002
1.843692e+003;2.326799e-002
1.845620e+003;2.344809e-002
1.847549e+003;2.348538e-002
1.849478e+003;2.333515e-002
1.851406e+003;2.315841e-002
1.853335e+003;2.301085e-002
1.855263e+003;2.308450e-002
1.857192e+003;2.330536e-002
1.859120e+003;2.310987e-002
1.861049e+003;2.275888e-002
1.862977e+003;2.274883e-002
1.864906e+003;2.259421e-002
1.866834e+003;2.244300e-002
1.868763e+003;2.258643e-002
1.870692e+003;2.248767e-002
1.872620e+003;2.240560e-002
1.874549e+003;2.238477e-002
1.876477e+003;2.234797e-002
1.878406e+003;2.234574e-002
1.880334e+003;2.227385e-002
1.882263e+003;2.223402e-002
1.884191e+003;2.230625e-002
1.886120e+003;2.245417e-002
1.888048e+003;2.255544e-002
1.889977e+003;2.272987e-002
1.891906e+003;2.286092e-002
1.893834e+003;2.283864e-002
1.895763e+003;2.273214e-002
1.897691e+003;2.264971e-002
1.899620e+003;2.263003e-002
1.901548e+003;2.252710e-002
1.903477e+003;2.236252e-002
1.905405e+003;2.214775e-002
1.907334e+003;2.198819e-002
1.909262e+003;2.203277e-002
1.911191e+003;2.179012e-002
1.913120e+003;2.167015e-002
1.915048e+003;2.173062e-002
1.916977e+003;2.189981e-002
1.918905e+003;2.214186e-002
1.920834e+003;2.178901e-002
1.922762e+003;2.156766e-002
1.924691e+003;2.171595e-002
1.926619e+003;2.172139e-002
1.928548e+003;2.177106e-002
1.930477e+003;2.169474e-002
1.932405e+003;2.146401e-002
1.934334e+003;2.146617e-002
1.936262e+003;2.141507e-002
1.938191e+003;2.098974e-002
1.940119e+003;2.085184e-002
1.942048e+003;2.107467e-002
1.943976e+003;2.106639e-002
1.945905e+003;2.080634e-002
1.947833e+003;2.074868e-002
1.949762e+003;2.079351e-002
1.951691e+003;2.096717e-002
1.953619e+003;2.093243e-002
1.955548e+003;2.091324e-002
1.957476e+003;2.101474e-002
1.959405e+003;2.102298e-002
1.961333e+003;2.092099e-002
1.963262e+003;2.068703e-002
1.965190e+003;2.080043e-002
1.967119e+003;2.067750e-002
1.969047e+003;2.023106e-002
1.970976e+003;2.013272e-002
1.972905e+003;2.029265e-002
1.974833e+003;2.050685e-002
1.976762e+003;2.065724e-002
1.978690e+003;2.063077e-002
1.980619e+003;2.034601e-002
1.982547e+003;2.036938e-002
1.984476e+003;2.055704e-002
1.986404e+003;2.046881e-002
1.988333e+003;2.043616e-002
1.990261e+003;2.053783e-002
1.992190e+003;2.046923e-002
1.994119e+003;2.027414e-002
1.996047e+003;2.019117e-002
1.997976e+003;2.026841e-002
1.999904e+003;2.057135e-002
2.001833e+003;2.051379e-002
2.003761e+003;2.032883e-002
2.005690e+003;2.031278e-002
2.007618e+003;2.048024e-002
2.009547e+003;2.055461e-002
2.011476e+003;2.047548e-002
2.013404e+003;2.041984e-002
2.015333e+003;2.058998e-002
2.017261e+003;2.059241e-002
2.019190e+003;2.045829e-002
2.021118e+003;2.066934e-002
2.023047e+003;2.074749e-002
2.024975e+003;2.049663e-002
2.026904e+003;2.039060e-002
2.028833e+003;2.026102e-002
2.030761e+003;2.009736e-002
2.032690e+003;2.027886e-002
2.034618e+003;2.045686e-002
2.036547e+003;2.056083e-002
2.038475e+003;2.052713e-002
2.040404e+003;2.042095e-002
2.042332e+003;2.049948e-002
2.044261e+003;2.049938e-002
2.046189e+003;2.036528e-002
2.048118e+003;2.024060e-002
2.050047e+003;2.033254e-002
2.051975e+003;2.041150e-002
2.053904e+003;2.029733e-002
2.055832e+003;2.035441e-002
2.057761e+003;2.046089e-002
2.059689e+003;2.042936e-002
2.061618e+003;2.031035e-002
2.063546e+003;2.012266e-002
2.065475e+003;2.001550e-002
2.067404e+003;2.006401e-002
2.069332e+003;2.012453e-002
2.071260e+003;2.001120e-002
2.073189e+003;1.994192e-002
2.075118e+003;1.997918e-002
2.077046e+003;2.016521e-002
2.078975e+003;2.032948e-002
2.080903e+003;2.030549e-002
2.082832e+003;2.048257e-002
2.084760e+003;2.047843e-002
2.086689e+003;2.033070e-002
2.088617e+003;2.032563e-002
2.090546e+003;2.036587e-002
2.092475e+003;2.027352e-002
2.094403e+003;2.027452e-002
2.096332e+003;2.042963e-002
2.098260e+003;2.052963e-002
2.100189e+003;2.060478e-002
2.102117e+003;2.066284e-002
2.104046e+003;2.044589e-002
2.105974e+003;2.032424e-002
2.107903e+003;2.018753e-002
2.109832e+003;2.025574e-002
2.111760e+003;2.059613e-002
2.113688e+003;2.070582e-002
2.115617e+003;2.049511e-002
2.117546e+003;2.024057e-002
2.119474e+003;2.019093e-002
2.121403e+003;2.055128e-002
2.123331e+003;2.101537e-002
2.125260e+003;2.126757e-002
2.127188e+003;2.133759e-002
2.129117e+003;2.167227e-002
2.131045e+003;2.214154e-002
2.132974e+003;2.221484e-002
2.134903e+003;2.206613e-002
2.136831e+003;2.188646e-002
2.138760e+003;2.184221e-002
2.140688e+003;2.170164e-002
2.142617e+003;2.161276e-002
2.144545e+003;2.147881e-002
2.146474e+003;2.136314e-002
2.148402e+003;2.135067e-002
2.150331e+003;2.138733e-002
2.152260e+003;2.150697e-002
2.154188e+003;2.162613e-002
2.156117e+003;2.143066e-002
2.158045e+003;2.108454e-002
2.159974e+003;2.124481e-002
2.161902e+003;2.168509e-002
2.163831e+003;2.178671e-002
2.165759e+003;2.178263e-002
2.167688e+003;2.200481e-002
2.169616e+003;2.216755e-002
2.171545e+003;2.225613e-002
2.173474e+003;2.240103e-002
2.175402e+003;2.242975e-002
2.177331e+003;2.244307e-002
2.179259e+003;2.253820e-002
2.181188e+003;2.249091e-002
2.183116e+003;2.253666e-002
2.185045e+003;2.256626e-002
2.186973e+003;2.235648e-002
2.188902e+003;2.223786e-002
2.190831e+003;2.221243e-002
2.192759e+003;2.212059e-002
2.194688e+003;2.204630e-002
2.196616e+003;2.227364e-002
2.198545e+003;2.255631e-002
2.200473e+003;2.254064e-002
2.202402e+003;2.231972e-002
2.204330e+003;2.227622e-002
2.206259e+003;2.210922e-002
2.208188e+003;2.179918e-002
2.210116e+003;2.189434e-002
2.212044e+003;2.209664e-002
2.213973e+003;2.204982e-002
2.215902e+003;2.209869e-002
2.217830e+003;2.214869e-002
2.219759e+003;2.210455e-002
2.221687e+003;2.208558e-002
2.223616e+003;2.211466e-002
2.225544e+003;2.249458e-002
2.227473e+003;2.256811e-002
2.229401e+003;2.241282e-002
2.231330e+003;2.243979e-002
2.233259e+003;2.247273e-002
2.235187e+003;2.234769e-002
2.237116e+003;2.233862e-002
2.239044e+003;2.256542e-002
2.240973e+003;2.245037e-002
2.242901e+003;2.216919e-002
2.244830e+003;2.209643e-002
2.246758e+003;2.213806e-002
2.248687e+003;2.240128e-002
2.250615e+003;2.256228e-002
2.252544e+003;2.268937e-002
2.254473e+003;2.311773e-002
2.256401e+003;2.338840e-002
2.258330e+003;2.340099e-002
2.260258e+003;2.306392e-002
2.262187e+003;2.283326e-002
2.264115e+003;2.295149e-002
2.266044e+003;2.286780e-002
2.267972e+003;2.278476e-002
2.269901e+003;2.259561e-002
2.271830e+003;2.232146e-002
2.273758e+003;2.240989e-002
2.275687e+003;2.231400e-002
2.277615e+003;2.210235e-002
2.279544e+003;2.207195e-002
2.281472e+003;2.211009e-002
2.283401e+003;2.240211e-002
2.285329e+003;2.255146e-002
2.287258e+003;2.220473e-002
2.289187e+003;2.190036e-002
2.291115e+003;2.172128e-002
2.293043e+003;2.189204e-002
2.294972e+003;2.231783e-002
2.296901e+003;2.222959e-002
2.298829e+003;2.210950e-002
2.300758e+003;2.207823e-002
2.302686e+003;2.196954e-002
2.304615e+003;2.211048e-002
2.306543e+003;2.238491e-002
2.308472e+003;2.250700e-002
2.310400e+003;2.246757e-002
2.312329e+003;2.208321e-002
2.314258e+003;2.193581e-002
2.316186e+003;2.230440e-002
2.318115e+003;2.248882e-002
2.320043e+003;2.233625e-002
2.321972e+003;2.212683e-002
2.323900e+003;2.243665e-002
2.325829e+003;2.293556e-002
2.327757e+003;2.302203e-002
2.329686e+003;2.292858e-002
2.331615e+003;2.296054e-002
2.333543e+003;2.315946e-002
2.335472e+003;2.337777e-002
2.337400e+003;2.332637e-002
2.339329e+003;2.330956e-002
2.341257e+003;2.348873e-002
2.343186e+003;2.354575e-002
2.345114e+003;2.343851e-002
2.347043e+003;2.351276e-002
2.348971e+003;2.394677e-002
2.350900e+003;2.396757e-002
2.352829e+003;2.382354e-002
2.354757e+003;2.410344e-002
2.356686e+003;2.434129e-002
2.358614e+003;2.436407e-002
2.360543e+003;2.432675e-002
2.362471e+003;2.428459e-002
2.364400e+003;2.440616e-002
2.366328e+003;2.447641e-002
2.368257e+003;2.465189e-002
2.370186e+003;2.493678e-002
2.372114e+003;2.472982e-002
2.374042e+003;2.441107e-002
2.375971e+003;2.431157e-002
2.377900e+003;2.434883e-002
2.379828e+003;2.446961e-002
2.381757e+003;2.464765e-002
2.383685e+003;2.477785e-002
2.385614e+003;2.457401e-002
2.387542e+003;2.429938e-002
2.389471e+003;2.432359e-002
2.391399e+003;2.464446e-002
2.393328e+003;2.481363e-002
2.395257e+003;2.500564e-002
2.397185e+003;2.518331e-002
2.399114e+003;2.525224e-002
2.401042e+003;2.524097e-002
2.402971e+003;2.543559e-002
2.404899e+003;2.558851e-002
2.406828e+003;2.536762e-002
2.408756e+003;2.517541e-002
2.410685e+003;2.526766e-002
2.412614e+003;2.545355e-002
2.414542e+003;2.536663e-002
2.416471e+003;2.533730e-002
2.418399e+003;2.533045e-002
2.420328e+003;2.550003e-002
2.422256e+003;2.597039e-002
2.424185e+003;2.633123e-002
2.426113e+003;2.640753e-002
2.428042e+003;2.637683e-002
2.429970e+003;2.639324e-002
2.431899e+003;2.637384e-002
2.433828e+003;2.625573e-002
2.435756e+003;2.601074e-002
2.437685e+003;2.568676e-002
2.439613e+003;2.570894e-002
2.441542e+003;2.564373e-002
2.443470e+003;2.556416e-002
2.445399e+003;2.560289e-002
2.447327e+003;2.543478e-002
2.449256e+003;2.523475e-002
2.451185e+003;2.521010e-002
2.453113e+003;2.527823e-002
2.455042e+003;2.501091e-002
2.456970e+003;2.483120e-002
2.458899e+003;2.494531e-002
2.460827e+003;2.477886e-002
2.462756e+003;2.454961e-002
2.464684e+003;2.455760e-002
2.466613e+003;2.478988e-002
2.468542e+003;2.487896e-002
2.470470e+003;2.477862e-002
2.472398e+003;2.495265e-002
2.474327e+003;2.518801e-002
2.476256e+003;2.555102e-002
2.478184e+003;2.605700e-002
2.480113e+003;2.607048e-002
2.482041e+003;2.586389e-002
2.483970e+003;2.592597e-002
2.485898e+003;2.589076e-002
2.487827e+003;2.587571e-002
2.489755e+003;2.612305e-002
2.491684e+003;2.621961e-002
2.493613e+003;2.592590e-002
2.495541e+003;2.564134e-002
2.497470e+003;2.564169e-002
2.499398e+003;2.595516e-002
2.501327e+003;2.601120e-002
2.503255e+003;2.568581e-002
2.505184e+003;2.554459e-002
2.507112e+003;2.577563e-002
2.509041e+003;2.584775e-002
2.510969e+003;2.570546e-002
2.512898e+003;2.594394e-002
2.514827e+003;2.650504e-002
2.516755e+003;2.686252e-002
2.518684e+003;2.692749e-002
2.520612e+003;2.716224e-002
2.522541e+003;2.759394e-002
2.524469e+003;2.779496e-002
2.526398e+003;2.783971e-002
2.528326e+003;2.801635e-002
2.530255e+003;2.821781e-002
2.532184e+003;2.836606e-002
2.534112e+003;2.849179e-002
2.536041e+003;2.868579e-002
2.537969e+003;2.887849e-002
2.539898e+003;2.887853e-002
2.541826e+003;2.885417e-002
2.543755e+003;2.914601e-002
2.545683e+003;2.959718e-002
2.547612e+003;3.003788e-002
2.549541e+003;3.023580e-002
2.551469e+003;3.045642e-002
2.553397e+003;3.078377e-002
2.555326e+003;3.099342e-002
2.557255e+003;3.123803e-002
2.559183e+003;3.141424e-002
2.561112e+003;3.153141e-002
2.563040e+003;3.199758e-002
2.564969e+003;3.230525e-002
2.566897e+003;3.263221e-002
2.568826e+003;3.334272e-002
2.570754e+003;3.393138e-002
2.572683e+003;3.433232e-002
2.574612e+003;3.501121e-002
2.576540e+003;3.573948e-002
2.578469e+003;3.622312e-002
2.580397e+003;3.682861e-002
2.582326e+003;3.707682e-002
2.584254e+003;3.666808e-002
2.586183e+003;3.593815e-002
2.588111e+003;3.532247e-002
2.590040e+003;3.494161e-002
2.591969e+003;3.468533e-002
2.593897e+003;3.421719e-002
2.595826e+003;3.410432e-002
2.597754e+003;3.418690e-002
2.599683e+003;3.417941e-002
2.601611e+003;3.420977e-002
2.603540e+003;3.453971e-002
2.605468e+003;3.488535e-002
2.607397e+003;3.504041e-002
2.609325e+003;3.525087e-002
2.611254e+003;3.553478e-002
2.613183e+003;3.588121e-002
2.615111e+003;3.605849e-002
2.617040e+003;3.629141e-002
2.618968e+003;3.644583e-002
2.620897e+003;3.620976e-002
2.622825e+003;3.589579e-002
2.624754e+003;3.584897e-002
2.626682e+003;3.561549e-002
2.628611e+003;3.530198e-002
2.630540e+003;3.536678e-002
2.632468e+003;3.533939e-002
2.634396e+003;3.555136e-002
2.636325e+003;3.576826e-002
2.638254e+003;3.565955e-002
2.640182e+003;3.567659e-002
2.642111e+003;3.593048e-002
2.644039e+003;3.637614e-002
2.645968e+003;3.653982e-002
2.647896e+003;3.680654e-002
2.649825e+003;3.727968e-002
2.651753e+003;3.758916e-002
2.653682e+003;3.805053e-002
2.655611e+003;3.850649e-002
2.657539e+003;3.877428e-002
2.659468e+003;3.909364e-002
2.661396e+003;3.907914e-002
2.663325e+003;3.895615e-002
2.665253e+003;3.921711e-002
2.667182e+003;3.935755e-002
2.669110e+003;3.924159e-002
2.671039e+003;3.927941e-002
2.672968e+003;3.956985e-002
2.674896e+003;3.991076e-002
2.676825e+003;4.021668e-002
2.678753e+003;4.031065e-002
2.680682e+003;4.041813e-002
2.682610e+003;4.039086e-002
2.684539e+003;4.033842e-002
2.686467e+003;4.040860e-002
2.688396e+003;4.036980e-002
2.690324e+003;4.025183e-002
2.692253e+003;4.015300e-002
2.694182e+003;4.019457e-002
2.696110e+003;4.036195e-002
2.698039e+003;4.066876e-002
2.699967e+003;4.104812e-002
2.701896e+003;4.154763e-002
2.703824e+003;4.220814e-002
2.705753e+003;4.275004e-002
2.707681e+003;4.339228e-002
2.709610e+003;4.420613e-002
2.711539e+003;4.501375e-002
2.713467e+003;4.603362e-002
2.715396e+003;4.748932e-002
2.717324e+003;4.942853e-002
2.719253e+003;5.113893e-002
2.721181e+003;5.232562e-002
2.723110e+003;5.302023e-002
2.725038e+003;5.268399e-002
2.726967e+003;5.149845e-002
2.728896e+003;5.023626e-002
2.730824e+003;4.914419e-002
2.732752e+003;4.803438e-002
2.734681e+003;4.707735e-002
2.736610e+003;4.637842e-002
2.738538e+003;4.576331e-002
2.740467e+003;4.509635e-002
2.742395e+003;4.424117e-002
2.744324e+003;4.339261e-002
2.746252e+003;4.268584e-002
2.748181e+003;4.217980e-002
2.750109e+003;4.215183e-002
2.752038e+003;4.250661e-002
2.753967e+003;4.288135e-002
2.755895e+003;4.305800e-002
2.757824e+003;4.298681e-002
2.759752e+003;4.318381e-002
2.761681e+003;4.374038e-002
2.763609e+003;4.430673e-002
2.765538e+003;4.451149e-002
2.767466e+003;4.473191e-002
2.769395e+003;4.510480e-002
2.771323e+003;4.542834e-002
2.773252e+003;4.597656e-002
2.775181e+003;4.631561e-002
2.777109e+003;4.660651e-002
2.779038e+003;4.769780e-002
2.780966e+003;4.926175e-002
2.782895e+003;5.043725e-002
2.784823e+003;5.134906e-002
2.786752e+003;5.258682e-002
2.788680e+003;5.431382e-002
2.790609e+003;5.593751e-002
2.792538e+003;5.741126e-002
2.794466e+003;5.895561e-002
2.796395e+003;6.022900e-002
2.798323e+003;6.119993e-002
2.800252e+003;6.272231e-002
2.802180e+003;6.497188e-002
2.804109e+003;6.687191e-002
2.806037e+003;6.871706e-002
2.807966e+003;7.085434e-002
2.809895e+003;7.226790e-002
2.811823e+003;7.380801e-002
2.813751e+003;7.618725e-002
2.815680e+003;7.837281e-002
2.817609e+003;8.008558e-002
2.819537e+003;8.223905e-002
2.821466e+003;8.503066e-002
2.823394e+003;8.848311e-002
2.825323e+003;9.308510e-002
2.827251e+003;9.910326e-002
2.829180e+003;1.064715e-001
2.831108e+003;1.149964e-001
2.833037e+003;1.238395e-001
2.834966e+003;1.312887e-001
2.836894e+003;1.357517e-001
2.838823e+003;1.363845e-001
2.840751e+003;1.339775e-001
2.842680e+003;1.295437e-001
2.844608e+003;1.242743e-001
2.846537e+003;1.190355e-001
2.848465e+003;1.146136e-001
2.850394e+003;1.113592e-001
2.852323e+003;1.098228e-001
2.854251e+003;1.097078e-001
2.856180e+003;1.111732e-001
2.858108e+003;1.148392e-001
2.860037e+003;1.205914e-001
2.861965e+003;1.280892e-001
2.863894e+003;1.359913e-001
2.865822e+003;1.420840e-001
2.867751e+003;1.447550e-001
2.869679e+003;1.449307e-001
2.871608e+003;1.447055e-001
2.873536e+003;1.448334e-001
2.875465e+003;1.447179e-001
2.877394e+003;1.437520e-001
2.879322e+003;1.422074e-001
2.881251e+003;1.408206e-001
2.883179e+003;1.399828e-001
2.885108e+003;1.396548e-001
2.887036e+003;1.400580e-001
2.888965e+003;1.413057e-001
2.890893e+003;1.428404e-001
2.892822e+003;1.449946e-001
2.894750e+003;1.484082e-001
2.896679e+003;1.526486e-001
2.898608e+003;1.574368e-001
2.900536e+003;1.624412e-001
2.902465e+003;1.673200e-001
2.904393e+003;1.729221e-001
2.906322e+003;1.786326e-001
2.908250e+003;1.836157e-001
2.910179e+003;1.874411e-001
2.912107e+003;1.901426e-001
2.914036e+003;1.934681e-001
2.915965e+003;1.968161e-001
2.917893e+003;1.981799e-001
2.919822e+003;1.961406e-001
2.921750e+003;1.918094e-001
2.923679e+003;1.870537e-001
2.925607e+003;1.803224e-001
2.927536e+003;1.722312e-001
2.929464e+003;1.638528e-001
2.931393e+003;1.551434e-001
2.933322e+003;1.468336e-001
2.935250e+003;1.397619e-001
2.937178e+003;1.347154e-001
2.939107e+003;1.325376e-001
2.941036e+003;1.339387e-001
2.942964e+003;1.386383e-001
2.944893e+003;1.459367e-001
2.946821e+003;1.542949e-001
2.948750e+003;1.618772e-001
2.950678e+003;1.663297e-001
2.952607e+003;1.669818e-001
2.954535e+003;1.640187e-001
2.956464e+003;1.589208e-001
2.958393e+003;1.533439e-001
2.960321e+003;1.476033e-001
2.962250e+003;1.419839e-001
2.964178e+003;1.354041e-001
2.966107e+003;1.278492e-001
2.968035e+003;1.206623e-001
2.969964e+003;1.139013e-001
2.971892e+003;1.076729e-001
2.973821e+003;1.020940e-001
2.975750e+003;9.698506e-002
2.977678e+003;9.243167e-002
2.979607e+003;8.811969e-002
2.981535e+003;8.457330e-002
2.983464e+003;8.114740e-002
2.985392e+003;7.791217e-002
2.987321e+003;7.526418e-002
2.989249e+003;7.301054e-002
2.991178e+003;7.079560e-002
2.993106e+003;6.807791e-002
2.995035e+003;6.566644e-002
2.996964e+003;6.384470e-002
2.998892e+003;6.195367e-002
3.000821e+003;5.995964e-002
3.002749e+003;5.817761e-002
3.004678e+003;5.659597e-002
3.006606e+003;5.509579e-002
3.008535e+003;5.355695e-002
3.010463e+003;5.224105e-002
3.012392e+003;5.071555e-002
3.014321e+003;4.913895e-002
3.016249e+003;4.832015e-002
3.018177e+003;4.758784e-002
3.020106e+003;4.694450e-002
3.022035e+003;4.572012e-002
3.023963e+003;4.426087e-002
3.025892e+003;4.330859e-002
3.027820e+003;4.304135e-002
3.029749e+003;4.285393e-002
3.031677e+003;4.246331e-002
3.033606e+003;4.186630e-002
3.035534e+003;4.138705e-002
3.037463e+003;4.115156e-002
3.039392e+003;4.086784e-002
3.041320e+003;4.012153e-002
3.043249e+003;3.943254e-002
3.045177e+003;3.945511e-002
3.047106e+003;3.965458e-002
3.049034e+003;3.984066e-002
3.050963e+003;3.953923e-002
3.052891e+003;3.935145e-002
3.054820e+003;3.932533e-002
3.056749e+003;3.890621e-002
3.058677e+003;3.879670e-002
3.060606e+003;3.874164e-002
3.062534e+003;3.831167e-002
3.064463e+003;3.819516e-002
3.066391e+003;3.819566e-002
3.068320e+003;3.795419e-002
3.070248e+003;3.790563e-002
3.072177e+003;3.824914e-002
3.074105e+003;3.807107e-002
3.076034e+003;3.754007e-002
3.077963e+003;3.696923e-002
3.079891e+003;3.693485e-002
3.081820e+003;3.735081e-002
3.083748e+003;3.765554e-002
3.085677e+003;3.753068e-002
3.087605e+003;3.754292e-002
3.089534e+003;3.747577e-002
3.091462e+003;3.723148e-002
3.093391e+003;3.703608e-002
3.095320e+003;3.697734e-002
3.097248e+003;3.719990e-002
3.099177e+003;3.724278e-002
3.101105e+003;3.723347e-002
3.103034e+003;3.742123e-002
3.104962e+003;3.728123e-002
3.106891e+003;3.695999e-002
3.108819e+003;3.695985e-002
3.110748e+003;3.710284e-002
3.112677e+003;3.755726e-002
3.114605e+003;3.765496e-002
3.116533e+003;3.755358e-002
3.118462e+003;3.736316e-002
3.120391e+003;3.733622e-002
3.122319e+003;3.755282e-002
3.124248e+003;3.781604e-002
3.126176e+003;3.777795e-002
3.128105e+003;3.783412e-002
3.130033e+003;3.840179e-002
3.131962e+003;3.847546e-002
3.133890e+003;3.842496e-002
3.135819e+003;3.847184e-002
3.137748e+003;3.862037e-002
3.139676e+003;3.869074e-002
3.141605e+003;3.867260e-002
3.143533e+003;3.872135e-002
3.145462e+003;3.921090e-002
3.147390e+003;3.963708e-002
3.149319e+003;3.959820e-002
3.151247e+003;3.949575e-002
3.153176e+003;3.940341e-002
3.155104e+003;3.942467e-002
3.157033e+003;3.965559e-002
3.158962e+003;3.989078e-002
3.160890e+003;4.015976e-002
3.162819e+003;4.012741e-002
3.164747e+003;3.961777e-002
3.166676e+003;3.939974e-002
3.168604e+003;3.967857e-002
3.170533e+003;3.979298e-002
3.172461e+003;3.970286e-002
3.174390e+003;3.991164e-002
3.176319e+003;4.016444e-002
3.178247e+003;4.003079e-002
3.180176e+003;3.986623e-002
3.182104e+003;3.991149e-002
3.184033e+003;3.998120e-002
3.185961e+003;4.002113e-002
3.187890e+003;4.003508e-002
3.189818e+003;4.077553e-002
3.191747e+003;4.116285e-002
3.193676e+003;4.093432e-002
3.195604e+003;4.103118e-002
3.197532e+003;4.113487e-002
3.199461e+003;4.103770e-002
3.201390e+003;4.100401e-002
3.203318e+003;4.111972e-002
3.205247e+003;4.118584e-002
3.207175e+003;4.104353e-002
3.209104e+003;4.106341e-002
3.211032e+003;4.098056e-002
3.212961e+003;4.074318e-002
3.214889e+003;4.062015e-002
3.216818e+003;4.073037e-002
3.218747e+003;4.108650e-002
3.220675e+003;4.111677e-002
3.222604e+003;4.069725e-002
3.224532e+003;4.039500e-002
3.226461e+003;4.058501e-002
3.228389e+003;4.062565e-002
3.230318e+003;4.023812e-002
3.232246e+003;4.029858e-002
3.234175e+003;4.047996e-002
3.236104e+003;4.008199e-002
3.238032e+003;3.978880e-002
3.239961e+003;3.985657e-002
3.241889e+003;3.983521e-002
3.243818e+003;4.000376e-002
3.245746e+003;4.038126e-002
3.247675e+003;4.001113e-002
3.249603e+003;3.930869e-002
3.251532e+003;3.950188e-002
3.253460e+003;3.970631e-002
3.255389e+003;3.963890e-002
3.257318e+003;3.974429e-002
3.259246e+003;3.982810e-002
3.261175e+003;4.028789e-002
3.263103e+003;4.036751e-002
3.265032e+003;4.012163e-002
3.266960e+003;3.991498e-002
3.268889e+003;3.968856e-002
3.270817e+003;3.995468e-002
3.272746e+003;4.047228e-002
3.274675e+003;4.075115e-002
3.276603e+003;4.055285e-002
3.278531e+003;4.046334e-002
3.280460e+003;4.072280e-002
3.282389e+003;4.078394e-002
3.284317e+003;4.049389e-002
3.286246e+003;4.017575e-002
3.288174e+003;4.024579e-002
3.290103e+003;3.982951e-002
3.292031e+003;3.931220e-002
3.293960e+003;3.959370e-002
3.295888e+003;4.011095e-002
3.297817e+003;4.045752e-002
3.299746e+003;4.052615e-002
3.301674e+003;3.987244e-002
3.303603e+003;3.968173e-002
3.305531e+003;4.020570e-002
3.307460e+003;4.015638e-002
3.309388e+003;4.007377e-002
3.311317e+003;4.016019e-002
3.313245e+003;4.019265e-002
3.315174e+003;4.034901e-002
3.317103e+003;4.017517e-002
3.319031e+003;3.986986e-002
3.320960e+003;3.972308e-002
3.322888e+003;3.926944e-002
3.324817e+003;3.921025e-002
3.326745e+003;3.942387e-002
3.328674e+003;3.884928e-002
3.330602e+003;3.819212e-002
3.332531e+003;3.832434e-002
3.334459e+003;3.892393e-002
3.336388e+003;3.952641e-002
3.338317e+003;3.948929e-002
3.340245e+003;3.914734e-002
3.342174e+003;3.894132e-002
3.344102e+003;3.875167e-002
3.346031e+003;3.850399e-002
3.347959e+003;3.844107e-002
3.349888e+003;3.868563e-002
3.351816e+003;3.888504e-002
3.353745e+003;3.875924e-002
3.355674e+003;3.882199e-002
3.357602e+003;3.850779e-002
3.359531e+003;3.781424e-002
3.361459e+003;3.778290e-002
3.363388e+003;3.827367e-002
3.365316e+003;3.864540e-002
3.367245e+003;3.855088e-002
3.369173e+003;3.822996e-002
3.371102e+003;3.815561e-002
3.373031e+003;3.760228e-002
3.374959e+003;3.711634e-002
3.376887e+003;3.729853e-002
3.378816e+003;3.710970e-002
3.380745e+003;3.706040e-002
3.382673e+003;3.683366e-002
3.384602e+003;3.652522e-002
3.386530e+003;3.678786e-002
3.388459e+003;3.660978e-002
3.390387e+003;3.620663e-002
3.392316e+003;3.641304e-002
3.394244e+003;3.655142e-002
3.396173e+003;3.645617e-002
3.398102e+003;3.612114e-002
3.400030e+003;3.562139e-002
3.401959e+003;3.586879e-002
3.403887e+003;3.637449e-002
3.405816e+003;3.673979e-002
3.407744e+003;3.651625e-002
3.409673e+003;3.607516e-002
3.411601e+003;3.599847e-002
3.413530e+003;3.582989e-002
3.415458e+003;3.557021e-002
3.417387e+003;3.543041e-002
3.419316e+003;3.513888e-002
3.421244e+003;3.494617e-002
3.423173e+003;3.536261e-002
3.425101e+003;3.579931e-002
3.427030e+003;3.585001e-002
3.428958e+003;3.554172e-002
3.430887e+003;3.488416e-002
3.432815e+003;3.415582e-002
3.434744e+003;3.418314e-002
3.436673e+003;3.437435e-002
3.438601e+003;3.448253e-002
3.440530e+003;3.410976e-002
3.442458e+003;3.373349e-002
3.444387e+003;3.371705e-002
3.446315e+003;3.359202e-002
3.448244e+003;3.339725e-002
3.450172e+003;3.317306e-002
3.452101e+003;3.259246e-002
3.454030e+003;3.234395e-002
3.455958e+003;3.227613e-002
3.457886e+003;3.234673e-002
3.459815e+003;3.201378e-002
3.461744e+003;3.141706e-002
3.463672e+003;3.139383e-002
3.465601e+003;3.169676e-002
3.467529e+003;3.158133e-002
3.469458e+003;3.110154e-002
3.471386e+003;3.092272e-002
3.473315e+003;3.116252e-002
3.475243e+003;3.123963e-002
3.477172e+003;3.110129e-002
3.479101e+003;3.050295e-002
3.481029e+003;3.016366e-002
3.482958e+003;3.018753e-002
3.484886e+003;3.013106e-002
3.486815e+003;2.986851e-002
3.488743e+003;2.935356e-002
3.490672e+003;2.904500e-002
3.492600e+003;2.872752e-002
3.494529e+003;2.846543e-002
3.496458e+003;2.865811e-002
3.498386e+003;2.874862e-002
3.500315e+003;2.852717e-002
3.502243e+003;2.851008e-002
3.504172e+003;2.851266e-002
3.506100e+003;2.836656e-002
3.508029e+003;2.782318e-002
3.509957e+003;2.722975e-002
3.511886e+003;2.723734e-002
3.513814e+003;2.750956e-002
3.515743e+003;2.745136e-002
3.517672e+003;2.736164e-002
3.519600e+003;2.714788e-002
3.521529e+003;2.714164e-002
3.523457e+003;2.730525e-002
3.525386e+003;2.685491e-002
3.527314e+003;2.629058e-002
3.529243e+003;2.617706e-002
3.531171e+003;2.585823e-002
3.533100e+003;2.588749e-002
3.535029e+003;2.580475e-002
3.536957e+003;2.564693e-002
3.538885e+003;2.554676e-002
3.540814e+003;2.515181e-002
3.542743e+003;2.486190e-002
3.544671e+003;2.486938e-002
3.546600e+003;2.475276e-002
3.548528e+003;2.457818e-002
3.550457e+003;2.430418e-002
3.552385e+003;2.393567e-002
3.554314e+003;2.370669e-002
3.556242e+003;2.369465e-002
3.558171e+003;2.363408e-002
3.560100e+003;2.323394e-002
3.562028e+003;2.290423e-002
3.563957e+003;2.297074e-002
3.565885e+003;2.285471e-002
3.567814e+003;2.269297e-002
3.569742e+003;2.281095e-002
3.571671e+003;2.254807e-002
3.573599e+003;2.222412e-002
3.575528e+003;2.216076e-002
3.577457e+003;2.153608e-002
3.579385e+003;2.078117e-002
3.581314e+003;2.081694e-002
3.583242e+003;2.124680e-002
3.585171e+003;2.129151e-002
3.587099e+003;2.092861e-002
3.589028e+003;2.028792e-002
3.590956e+003;2.015362e-002
3.592885e+003;2.023484e-002
3.594813e+003;1.993005e-002
3.596742e+003;1.982894e-002
3.598671e+003;2.000776e-002
3.600599e+003;1.995163e-002
3.602528e+003;1.963470e-002
3.604456e+003;1.957948e-002
3.606385e+003;1.952749e-002
3.608313e+003;1.940277e-002
3.610242e+003;1.932946e-002
3.612170e+003;1.948479e-002
3.614099e+003;1.963127e-002
3.616028e+003;1.950701e-002
3.617956e+003;1.924560e-002
3.619885e+003;1.855244e-002
3.621813e+003;1.798463e-002
3.623742e+003;1.802545e-002
3.625670e+003;1.811726e-002
3.627599e+003;1.814846e-002
3.629527e+003;1.837675e-002
3.631456e+003;1.845145e-002
3.633385e+003;1.857309e-002
3.635313e+003;1.894805e-002
3.637241e+003;1.883374e-002
3.639170e+003;1.830285e-002
3.641099e+003;1.770706e-002
3.643027e+003;1.781233e-002
3.644956e+003;1.802186e-002
3.646884e+003;1.758828e-002
3.648813e+003;1.765943e-002
3.650741e+003;1.764729e-002
3.652670e+003;1.734044e-002
3.654598e+003;1.693342e-002
3.656527e+003;1.700126e-002
3.658456e+003;1.737734e-002
3.660384e+003;1.746384e-002
3.662313e+003;1.706252e-002
3.664241e+003;1.696349e-002
3.666170e+003;1.723735e-002
3.668098e+003;1.720970e-002
3.670027e+003;1.691588e-002
3.671955e+003;1.696935e-002
3.673884e+003;1.720994e-002
3.675813e+003;1.757783e-002
3.677741e+003;1.807533e-002
3.679669e+003;1.834450e-002
3.681598e+003;1.791546e-002
3.683527e+003;1.779325e-002
3.685455e+003;1.817195e-002
3.687384e+003;1.830710e-002
3.689312e+003;1.834647e-002
3.691241e+003;1.842749e-002
3.693169e+003;1.807588e-002
3.695098e+003;1.787448e-002
3.697026e+003;1.809837e-002
3.698955e+003;1.830910e-002
3.700884e+003;1.807996e-002
3.702812e+003;1.798069e-002
3.704741e+003;1.768159e-002
3.706669e+003;1.765719e-002
3.708598e+003;1.808628e-002
3.710526e+003;1.846950e-002
3.712455e+003;1.831474e-002
3.714383e+003;1.791615e-002
3.716312e+003;1.751455e-002
3.718240e+003;1.707610e-002
3.720169e+003;1.665472e-002
3.722098e+003;1.682074e-002
3.724026e+003;1.753025e-002
3.725955e+003;1.782825e-002
3.727883e+003;1.791888e-002
3.729812e+003;1.807305e-002
3.731740e+003;1.790666e-002
3.733669e+003;1.760840e-002
3.735597e+003;1.767420e-002
3.737526e+003;1.806597e-002
3.739455e+003;1.818156e-002
3.741383e+003;1.828419e-002
3.743312e+003;1.854695e-002
3.745240e+003;1.849543e-002
3.747169e+003;1.791895e-002
3.749097e+003;1.739372e-002
3.751026e+003;1.700873e-002
3.752954e+003;1.686614e-002
3.754883e+003;1.740400e-002
3.756812e+003;1.764642e-002
3.758740e+003;1.797772e-002
3.760668e+003;1.865530e-002
3.762597e+003;1.886970e-002
3.764526e+003;1.870770e-002
3.766454e+003;1.831418e-002
3.768383e+003;1.785007e-002
3.770311e+003;1.811264e-002
3.772240e+003;1.844695e-002
3.774168e+003;1.835538e-002
3.776097e+003;1.824123e-002
3.778025e+003;1.788166e-002
3.779954e+003;1.733762e-002
3.781883e+003;1.776815e-002
3.783811e+003;1.831253e-002
3.785740e+003;1.827900e-002
3.787668e+003;1.814093e-002
3.789597e+003;1.811105e-002
3.791525e+003;1.769060e-002
3.793454e+003;1.775393e-002
3.795382e+003;1.840958e-002
3.797311e+003;1.857192e-002
3.799240e+003;1.846175e-002
3.801168e+003;1.789108e-002
3.803097e+003;1.761820e-002
3.805025e+003;1.755743e-002
3.806954e+003;1.744808e-002
3.808882e+003;1.796906e-002
3.810811e+003;1.826321e-002
3.812739e+003;1.816501e-002
3.814668e+003;1.802683e-002
3.816596e+003;1.823221e-002
3.818525e+003;1.833022e-002
3.820454e+003;1.819455e-002
3.822382e+003;1.859927e-002
3.824311e+003;1.907443e-002
3.826239e+003;1.877717e-002
3.828168e+003;1.795403e-002
3.830096e+003;1.823657e-002
3.832025e+003;1.900468e-002
3.833953e+003;1.885734e-002
3.835882e+003;1.837730e-002
3.837811e+003;1.842389e-002
3.839739e+003;1.864579e-002
3.841667e+003;1.833948e-002
3.843596e+003;1.816705e-002
3.845525e+003;1.835269e-002
3.847453e+003;1.860491e-002
3.849382e+003;1.901236e-002
3.851310e+003;1.919216e-002
3.853239e+003;1.889652e-002
3.855167e+003;1.871144e-002
3.857096e+003;1.894386e-002
3.859024e+003;1.896217e-002
3.860953e+003;1.909888e-002
3.862882e+003;1.936567e-002
3.864810e+003;1.933473e-002
3.866739e+003;1.969523e-002
3.868667e+003;1.960184e-002
3.870596e+003;1.962576e-002
3.872524e+003;1.979145e-002
3.874453e+003;1.953591e-002
3.876381e+003;1.940651e-002
3.878310e+003;1.934945e-002
3.880239e+003;1.941521e-002
3.882167e+003;1.966770e-002
3.884096e+003;1.986602e-002
3.886024e+003;1.964413e-002
3.887953e+003;1.910895e-002
3.889881e+003;1.947228e-002
3.891810e+003;2.002258e-002
3.893738e+003;1.978150e-002
3.895667e+003;1.983661e-002
3.897595e+003;1.990539e-002
3.899524e+003;1.963924e-002
3.901453e+003;1.965273e-002
3.903381e+003;2.018059e-002
3.905310e+003;2.022491e-002
3.907238e+003;1.970369e-002
3.909167e+003;1.904404e-002
3.911095e+003;1.896317e-002
3.913024e+003;1.961182e-002
3.914952e+003;1.977602e-002
3.916881e+003;1.935171e-002
3.918810e+003;1.920789e-002
3.920738e+003;1.951231e-002
3.922667e+003;1.935188e-002
3.924595e+003;1.915785e-002
3.926524e+003;1.959341e-002
3.928452e+003;2.020301e-002
3.930381e+003;2.033150e-002
3.932309e+003;2.006648e-002
3.934238e+003;1.971638e-002
3.936167e+003;1.990837e-002
3.938095e+003;1.982873e-002
3.940023e+003;1.983560e-002
3.941952e+003;1.991396e-002
3.943881e+003;1.997800e-002
3.945809e+003;2.017479e-002
3.947738e+003;2.002001e-002
3.949666e+003;1.971066e-002
3.951595e+003;1.948583e-002
3.953523e+003;1.946611e-002
3.955452e+003;2.000516e-002
3.957380e+003;2.004899e-002
3.959309e+003;1.990751e-002
3.961238e+003;1.990515e-002
3.963166e+003;1.991583e-002
3.965095e+003;2.038265e-002
3.967023e+003;2.070249e-002
3.968952e+003;2.039779e-002
3.970880e+003;1.990078e-002
3.972809e+003;2.019173e-002
3.974737e+003;2.038365e-002
3.976666e+003;2.068897e-002
3.978594e+003;2.081211e-002
3.980523e+003;2.064032e-002
3.982452e+003;2.124384e-002
3.984380e+003;2.088473e-002
3.986309e+003;2.045172e-002
3.988237e+003;2.089690e-002
3.990166e+003;2.107877e-002
3.992094e+003;2.134650e-002
3.994023e+003;2.210964e-002
3.995951e+003;2.218129e-002
3.997880e+003;2.168154e-002
3.999809e+003;2.156209e-002
4.001737e+003;0.000000e+000
