3.992094e+002;0.000000e+000
4.011380e+002;0.000000e+000
4.030665e+002;0.000000e+000
4.049951e+002;0.000000e+000
4.069236e+002;0.000000e+000
4.088522e+002;0.000000e+000
4.107807e+002;0.000000e+000
4.127093e+002;0.000000e+000
4.146378e+002;0.000000e+000
4.165664e+002;0.000000e+000
4.184949e+002;0.000000e+000
4.204235e+002;0.000000e+000
4.223520e+002;0.000000e+000
4.242806e+002;0.000000e+000
4.262091e+002;0.000000e+000
4.281377e+002;0.000000e+000
4.300662e+002;0.000000e+000
4.319948e+002;0.000000e+000
4.339233e+002;0.000000e+000
4.358519e+002;0.000000e+000
4.377804e+002;0.000000e+000
4.397090e+002;0.000000e+000
4.416375e+002;0.000000e+000
4.435660e+002;0.000000e+000
4.454946e+002;0.000000e+000
4.474232e+002;0.000000e+000
4.493517e+002;0.000000e+000
4.512802e+002;0.000000e+000
4.532088e+002;0.000000e+000
4.551373e+002;0.000000e+000
4.570659e+002;0.000000e+000
4.589944e+002;0.000000e+000
4.609230e+002;0.000000e+000
4.628515e+002;0.000000e+000
4.647801e+002;0.000000e+000
4.667086e+002;0.000000e+000
4.686372e+002;0.000000e+000
4.705657e+002;0.000000e+000
4.724943e+002;0.000000e+000
4.744228e+002;0.000000e+000
4.763513e+002;0.000000e+000
4.782799e+002;0.000000e+000
4.802085e+002;0.000000e+000
4.821370e+002;0.000000e+000
4.840656e+002;0.000000e+000
4.859941e+002;0.000000e+000
4.879226e+002;0.000000e+000
4.898512e+002;0.000000e+000
4.917798e+002;0.000000e+000
4.937083e+002;0.000000e+000
4.956368e+002;0.000000e+000
4.975654e+002;0.000000e+000
4.994939e+002;0.000000e+000
5.014225e+002;0.000000e+000
5.033510e+002;0.000000e+000
5.052796e+002;0.000000e+000
5.072081e+002;0.000000e+000
5.091367e+002;0.000000e+000
5.110652e+002;0.000000e+000
5.129938e+002;0.000000e+000
5.149223e+002;0.000000e+000
5.168509e+002;0.000000e+000
5.187794e+002;0.000000e+000
5.207079e+002;0.000000e+000
5.226365e+002;0.000000e+000
5.245651e+002;0.000000e+000
5.264936e+002;0.000000e+000
5.284222e+002;0.000000e+000
5.303507e+002;0.000000e+000
5.322792e+002;0.000000e+000
5.342078e+002;0.000000e+000
5.361364e+002;0.000000e+000
5.380649e+002;0.000000e+000
5.399935e+002;0.000000e+000
5.419220e+002;0.000000e+000
5.438505e+002;0.000000e+000
5.457791e+002;0.000000e+000
5.477076e+002;0.000000e+000
5.496362e+002;0.000000e+000
5.515648e+002;0.000000e+000
5.534933e+002;0.000000e+000
5.554218e+002;0.000000e+000
5.573504e+002;0.000000e+000
5.592789e+002;0.000000e+000
5.612075e+002;0.000000e+000
5.631360e+002;0.000000e+000
5.650646e+002;0.000000e+000
5.669931e+002;0.000000e+000
5.689217e+002;0.000000e+000
5.708502e+002;0.000000e+000
5.727787e+002;0.000000e+000
5.747073e+002;0.000000e+000
5.766359e+002;0.000000e+000
5.785644e+002;0.000000e+000
5.804930e+002;0.000000e+000
5.824215e+002;0.000000e+000
5.843500e+002;0.000000e+000
5.862786e+002;0.000000e+000
5.882072e+002;0.000000e+000
5.901357e+002;0.000000e+000
5.920643e+002;0.000000e+000
5.939928e+002;0.000000e+000
5.959213e+002;0.000000e+000
5.978499e+002;0.000000e+000
5.997784e+002;2.390318e-002
6.017070e+002;3.123476e-002
6.036355e+002;3.564214e-002
6.055641e+002;3.379243e-002
6.074926e+002;2.849380e-002
6.094211e+002;3.042255e-002
6.113497e+002;3.564973e-002
6.132783e+002;3.657294e-002
6.152068e+002;3.004739e-002
6.171354e+002;2.879666e-002
6.190639e+002;3.488542e-002
6.209924e+002;3.755914e-002
6.229210e+002;3.630831e-002
6.248495e+002;3.495196e-002
6.267781e+002;3.566627e-002
6.287067e+002;3.384079e-002
6.306352e+002;3.100566e-002
6.325637e+002;3.026085e-002
6.344923e+002;2.953145e-002
6.364208e+002;2.694586e-002
6.383494e+002;2.551039e-002
6.402780e+002;2.760400e-002
6.422065e+002;3.062868e-002
6.441350e+002;3.191898e-002
6.460636e+002;3.251835e-002
6.479921e+002;2.865400e-002
6.499207e+002;2.931485e-002
6.518492e+002;3.419529e-002
6.537778e+002;3.555719e-002
6.557063e+002;3.723231e-002
6.576349e+002;4.003813e-002
6.595634e+002;3.835937e-002
6.614919e+002;3.625936e-002
6.634205e+002;3.639582e-002
6.653491e+002;3.394392e-002
6.672776e+002;3.098666e-002
6.692062e+002;3.331009e-002
6.711347e+002;3.546237e-002
6.730632e+002;3.501409e-002
6.749918e+002;3.326749e-002
6.769203e+002;3.322538e-002
6.788489e+002;3.298773e-002
6.807775e+002;3.341539e-002
6.827060e+002;3.410855e-002
6.846345e+002;3.516852e-002
6.865631e+002;3.558794e-002
6.884916e+002;3.466695e-002
6.904202e+002;3.406091e-002
6.923488e+002;3.577369e-002
6.942773e+002;3.752482e-002
6.962058e+002;3.789005e-002
6.981344e+002;3.811940e-002
7.000629e+002;3.870900e-002
7.019915e+002;3.881696e-002
7.039200e+002;3.949586e-002
7.058486e+002;4.073823e-002
7.077771e+002;4.462641e-002
7.097057e+002;5.368291e-002
7.116342e+002;6.771131e-002
7.135627e+002;7.335865e-002
7.154913e+002;6.400501e-002
7.174199e+002;5.221871e-002
7.193484e+002;4.623514e-002
7.212770e+002;4.294704e-002
7.232055e+002;4.045213e-002
7.251340e+002;3.913066e-002
7.270626e+002;3.930941e-002
7.289911e+002;3.861707e-002
7.309197e+002;3.815920e-002
7.328483e+002;3.791669e-002
7.347768e+002;3.737291e-002
7.367053e+002;3.757623e-002
7.386339e+002;3.794504e-002
7.405624e+002;3.734316e-002
7.424910e+002;3.789854e-002
7.444196e+002;3.885475e-002
7.463481e+002;3.867814e-002
7.482766e+002;3.815145e-002
7.502052e+002;3.853936e-002
7.521337e+002;3.989536e-002
7.540623e+002;4.063700e-002
7.559908e+002;4.083723e-002
7.579194e+002;4.160728e-002
7.598479e+002;4.203844e-002
7.617765e+002;4.167770e-002
7.637050e+002;4.168390e-002
7.656335e+002;4.131937e-002
7.675621e+002;4.056598e-002
7.694907e+002;4.060375e-002
7.714192e+002;4.001985e-002
7.733478e+002;3.918922e-002
7.752763e+002;3.816455e-002
7.772048e+002;3.809390e-002
7.791334e+002;3.948421e-002
7.810620e+002;4.017077e-002
7.829905e+002;4.075421e-002
7.849191e+002;4.202749e-002
7.868476e+002;4.276328e-002
7.887761e+002;4.289452e-002
7.907047e+002;4.310286e-002
7.926332e+002;4.391792e-002
7.945618e+002;4.531766e-002
7.964903e+002;4.699286e-002
7.984189e+002;4.926531e-002
8.003474e+002;5.113520e-002
8.022759e+002;5.335837e-002
8.042045e+002;5.630875e-002
8.061331e+002;5.975070e-002
8.080616e+002;6.361585e-002
8.099902e+002;6.527029e-002
8.119187e+002;6.405888e-002
8.138472e+002;6.011239e-002
8.157758e+002;5.515391e-002
8.177043e+002;5.242345e-002
8.196329e+002;5.121494e-002
8.215615e+002;5.000919e-002
8.234900e+002;4.885487e-002
8.254185e+002;4.842849e-002
8.273471e+002;4.954309e-002
8.292756e+002;5.069049e-002
8.312042e+002;5.118083e-002
8.331328e+002;5.187420e-002
8.350613e+002;5.458500e-002
8.369898e+002;5.922363e-002
8.389184e+002;6.808598e-002
8.408469e+002;7.604555e-002
8.427755e+002;7.510950e-002
8.447040e+002;6.984301e-002
8.466326e+002;6.710163e-002
8.485611e+002;6.323939e-002
8.504897e+002;5.724558e-002
8.524182e+002;5.321194e-002
8.543467e+002;5.181630e-002
8.562753e+002;5.143276e-002
8.582039e+002;5.126457e-002
8.601324e+002;5.309073e-002
8.620610e+002;5.692124e-002
8.639895e+002;6.213496e-002
8.659180e+002;6.952025e-002
8.678466e+002;8.021788e-002
8.697751e+002;9.452463e-002
8.717037e+002;1.110943e-001
8.736323e+002;1.264780e-001
8.755608e+002;1.338024e-001
8.774893e+002;1.247188e-001
8.794179e+002;1.042170e-001
8.813464e+002;8.616344e-002
8.832750e+002;7.313180e-002
8.852036e+002;6.135927e-002
8.871321e+002;5.288110e-002
8.890606e+002;4.937162e-002
8.909892e+002;4.897198e-002
8.929177e+002;5.049776e-002
8.948463e+002;5.443317e-002
8.967748e+002;5.942175e-002
8.987034e+002;6.283307e-002
9.006319e+002;6.258363e-002
9.025605e+002;5.850425e-002
9.044890e+002;5.307313e-002
9.064175e+002;4.890994e-002
9.083461e+002;4.632722e-002
9.102747e+002;4.481354e-002
9.122032e+002;4.416838e-002
9.141318e+002;4.344073e-002
9.160603e+002;4.262776e-002
9.179888e+002;4.238031e-002
9.199174e+002;4.225086e-002
9.218459e+002;4.189538e-002
9.237745e+002;4.180767e-002
9.257031e+002;4.194818e-002
9.276316e+002;4.185309e-002
9.295601e+002;4.153581e-002
9.314887e+002;4.175919e-002
9.334172e+002;4.269195e-002
9.353458e+002;4.385253e-002
9.372744e+002;4.536713e-002
9.392029e+002;4.714463e-002
9.411314e+002;4.806244e-002
9.430600e+002;4.748348e-002
9.449885e+002;4.638842e-002
9.469171e+002;4.572528e-002
9.488456e+002;4.546906e-002
9.507742e+002;4.548076e-002
9.527027e+002;4.580756e-002
9.546313e+002;4.625574e-002
9.565598e+002;4.646979e-002
9.584883e+002;4.708052e-002
9.604169e+002;4.876978e-002
9.623455e+002;5.148815e-002
9.642740e+002;5.467586e-002
9.662026e+002;5.910581e-002
9.681311e+002;6.621011e-002
9.700596e+002;7.571290e-002
9.719882e+002;8.381993e-002
9.739167e+002;8.600593e-002
9.758453e+002;8.108266e-002
9.777739e+002;7.238141e-002
9.797024e+002;6.335627e-002
9.816309e+002;5.528225e-002
9.835595e+002;4.983382e-002
9.854880e+002;4.756540e-002
9.874166e+002;4.741669e-002
9.893452e+002;4.896449e-002
9.912737e+002;5.337778e-002
9.932022e+002;6.017781e-002
9.951307e+002;6.814411e-002
9.970593e+002;7.508969e-002
9.989879e+002;7.620253e-002
1.000916e+003;7.057854e-002
1.002845e+003;6.272805e-002
1.004773e+003;5.683165e-002
1.006702e+003;5.324109e-002
1.008631e+003;5.065664e-002
1.010559e+003;4.932741e-002
1.012488e+003;4.836893e-002
1.014416e+003;4.684008e-002
1.016345e+003;4.555755e-002
1.018273e+003;4.480538e-002
1.020202e+003;4.462622e-002
1.022130e+003;4.447845e-002
1.024059e+003;4.403228e-002
1.025988e+003;4.451773e-002
1.027916e+003;4.595601e-002
1.029845e+003;4.734138e-002
1.031773e+003;4.896961e-002
1.033702e+003;5.102422e-002
1.035630e+003;5.236528e-002
1.037559e+003;5.271096e-002
1.039487e+003;5.238068e-002
1.041416e+003;5.149058e-002
1.043344e+003;5.050703e-002
1.045273e+003;4.947171e-002
1.047202e+003;4.749623e-002
1.049130e+003;4.495528e-002
1.051059e+003;4.319870e-002
1.052987e+003;4.194413e-002
1.054916e+003;4.106108e-002
1.056844e+003;4.014130e-002
1.058773e+003;3.929385e-002
1.060701e+003;3.902857e-002
1.062630e+003;3.909719e-002
1.064558e+003;3.905739e-002
1.066487e+003;3.921507e-002
1.068416e+003;3.921141e-002
1.070344e+003;3.901211e-002
1.072273e+003;3.902581e-002
1.074201e+003;3.949132e-002
1.076130e+003;4.018840e-002
1.078058e+003;4.096265e-002
1.079987e+003;4.153727e-002
1.081915e+003;4.134995e-002
1.083844e+003;4.142878e-002
1.085773e+003;4.245074e-002
1.087701e+003;4.378458e-002
1.089630e+003;4.489278e-002
1.091558e+003;4.609143e-002
1.093487e+003;4.755294e-002
1.095415e+003;4.882198e-002
1.097344e+003;5.045381e-002
1.099272e+003;5.312622e-002
1.101201e+003;5.566962e-002
1.103129e+003;5.640891e-002
1.105058e+003;5.618738e-002
1.106987e+003;5.457629e-002
1.108915e+003;5.161120e-002
1.110844e+003;4.868642e-002
1.112772e+003;4.674907e-002
1.114701e+003;4.505606e-002
1.116629e+003;4.303744e-002
1.118558e+003;4.126056e-002
1.120486e+003;4.010743e-002
1.122415e+003;3.919038e-002
1.124344e+003;3.844165e-002
1.126272e+003;3.784844e-002
1.128201e+003;3.741755e-002
1.130129e+003;3.790650e-002
1.132058e+003;3.879174e-002
1.133986e+003;4.018298e-002
1.135915e+003;4.168000e-002
1.137843e+003;4.355778e-002
1.139772e+003;4.583547e-002
1.141700e+003;4.839208e-002
1.143629e+003;5.110050e-002
1.145557e+003;5.374268e-002
1.147486e+003;5.699407e-002
1.149415e+003;6.083268e-002
1.151343e+003;6.465960e-002
1.153272e+003;6.683709e-002
1.155200e+003;6.736092e-002
1.157129e+003;6.781696e-002
1.159057e+003;6.887440e-002
1.160986e+003;7.016321e-002
1.162914e+003;7.152247e-002
1.164843e+003;7.317380e-002
1.166771e+003;7.464916e-002
1.168700e+003;7.421175e-002
1.170629e+003;7.069195e-002
1.172557e+003;6.507510e-002
1.174486e+003;5.931641e-002
1.176414e+003;5.427384e-002
1.178343e+003;5.062671e-002
1.180271e+003;4.898437e-002
1.182200e+003;4.875103e-002
1.184128e+003;4.878428e-002
1.186057e+003;4.904595e-002
1.187986e+003;4.957131e-002
1.189914e+003;4.986162e-002
1.191843e+003;4.960314e-002
1.193771e+003;4.936178e-002
1.195700e+003;4.986322e-002
1.197628e+003;5.056644e-002
1.199557e+003;5.059164e-002
1.201485e+003;5.046970e-002
1.203414e+003;5.037108e-002
1.205343e+003;4.989069e-002
1.207271e+003;4.995142e-002
1.209200e+003;5.186203e-002
1.211128e+003;5.436534e-002
1.213057e+003;5.667487e-002
1.214985e+003;5.775292e-002
1.216914e+003;5.670526e-002
1.218842e+003;5.524255e-002
1.220771e+003;5.389439e-002
1.222699e+003;5.273644e-002
1.224628e+003;5.204733e-002
1.226557e+003;5.201036e-002
1.228485e+003;5.246390e-002
1.230414e+003;5.270053e-002
1.232342e+003;5.268912e-002
1.234271e+003;5.305306e-002
1.236199e+003;5.338205e-002
1.238128e+003;5.344081e-002
1.240056e+003;5.356639e-002
1.241985e+003;5.391569e-002
1.243913e+003;5.423712e-002
1.245842e+003;5.488410e-002
1.247771e+003;5.618421e-002
1.249699e+003;5.806856e-002
1.251628e+003;6.093031e-002
1.253556e+003;6.511517e-002
1.255485e+003;6.838777e-002
1.257413e+003;6.802567e-002
1.259342e+003;6.493121e-002
1.261270e+003;6.185153e-002
1.263199e+003;6.020708e-002
1.265127e+003;5.941787e-002
1.267056e+003;5.864361e-002
1.268985e+003;5.748467e-002
1.270913e+003;5.602371e-002
1.272842e+003;5.478640e-002
1.274770e+003;5.427087e-002
1.276699e+003;5.405290e-002
1.278627e+003;5.387833e-002
1.280556e+003;5.364725e-002
1.282484e+003;5.336384e-002
1.284413e+003;5.401290e-002
1.286342e+003;5.542652e-002
1.288270e+003;5.664603e-002
1.290199e+003;5.801906e-002
1.292127e+003;5.966425e-002
1.294056e+003;6.102277e-002
1.295984e+003;6.181474e-002
1.297913e+003;6.215419e-002
1.299841e+003;6.227189e-002
1.301770e+003;6.316990e-002
1.303698e+003;6.445389e-002
1.305627e+003;6.378851e-002
1.307556e+003;6.109161e-002
1.309484e+003;5.878656e-002
1.311413e+003;5.807530e-002
1.313341e+003;5.844072e-002
1.315270e+003;5.940587e-002
1.317198e+003;6.007362e-002
1.319127e+003;6.088445e-002
1.321055e+003;6.232585e-002
1.322984e+003;6.410892e-002
1.324912e+003;6.641095e-002
1.326841e+003;6.834294e-002
1.328770e+003;6.934743e-002
1.330698e+003;6.960433e-002
1.332627e+003;6.928746e-002
1.334555e+003;6.863944e-002
1.336484e+003;6.805354e-002
1.338412e+003;6.794891e-002
1.340341e+003;6.861049e-002
1.342269e+003;7.024390e-002
1.344198e+003;7.239953e-002
1.346126e+003;7.510159e-002
1.348055e+003;7.828999e-002
1.349984e+003;8.198621e-002
1.351912e+003;8.682428e-002
1.353841e+003;9.376722e-002
1.355769e+003;1.021220e-001
1.357698e+003;1.088404e-001
1.359626e+003;1.108778e-001
1.361555e+003;1.091202e-001
1.363483e+003;1.083222e-001
1.365412e+003;1.112853e-001
1.367341e+003;1.197413e-001
1.369269e+003;1.366500e-001
1.371198e+003;1.617032e-001
1.373126e+003;1.896506e-001
1.375055e+003;2.101357e-001
1.376983e+003;2.086923e-001
1.378912e+003;1.847089e-001
1.380840e+003;1.548902e-001
1.382769e+003;1.301335e-001
1.384698e+003;1.127400e-001
1.386626e+003;1.020332e-001
1.388555e+003;9.784814e-002
1.390483e+003;9.753106e-002
1.392412e+003;9.765878e-002
1.394340e+003;9.838304e-002
1.396269e+003;1.007507e-001
1.398197e+003;1.027993e-001
1.400126e+003;1.048800e-001
1.402054e+003;1.069252e-001
1.403983e+003;1.084873e-001
1.405911e+003;1.101215e-001
1.407840e+003;1.118413e-001
1.409769e+003;1.139937e-001
1.411697e+003;1.166169e-001
1.413626e+003;1.195200e-001
1.415554e+003;1.223943e-001
1.417483e+003;1.241470e-001
1.419411e+003;1.266140e-001
1.421340e+003;1.312331e-001
1.423268e+003;1.348415e-001
1.425197e+003;1.377935e-001
1.427125e+003;1.409013e-001
1.429054e+003;1.443114e-001
1.430983e+003;1.492768e-001
1.432911e+003;1.547137e-001
1.434840e+003;1.566904e-001
1.436768e+003;1.555525e-001
1.438697e+003;1.564199e-001
1.440625e+003;1.586082e-001
1.442554e+003;1.621534e-001
1.444482e+003;1.676687e-001
1.446411e+003;1.741945e-001
1.448340e+003;1.802962e-001
1.450268e+003;1.848214e-001
1.452197e+003;1.863084e-001
1.454125e+003;1.842215e-001
1.456054e+003;1.789711e-001
1.457982e+003;1.765249e-001
1.459911e+003;1.754463e-001
1.461839e+003;1.708649e-001
1.463768e+003;1.624056e-001
1.465697e+003;1.526396e-001
1.467625e+003;1.431731e-001
1.469554e+003;1.329613e-001
1.471482e+003;1.221972e-001
1.473411e+003;1.144205e-001
1.475339e+003;1.098990e-001
1.477268e+003;1.062474e-001
1.479196e+003;1.031980e-001
1.481125e+003;9.987672e-002
1.483053e+003;9.679630e-002
1.484982e+003;9.355592e-002
1.486911e+003;9.026464e-002
1.488839e+003;8.739269e-002
1.490768e+003;8.568175e-002
1.492696e+003;8.454125e-002
1.494625e+003;8.182713e-002
1.496553e+003;7.906459e-002
1.498482e+003;7.807070e-002
1.500410e+003;7.733774e-002
1.502339e+003;7.536273e-002
1.504267e+003;7.024924e-002
1.506196e+003;6.503654e-002
1.508125e+003;6.520198e-002
1.510053e+003;6.634088e-002
1.511982e+003;6.541267e-002
1.513910e+003;6.386205e-002
1.515839e+003;6.118586e-002
1.517767e+003;5.909434e-002
1.519696e+003;5.643336e-002
1.521624e+003;5.435584e-002
1.523553e+003;5.499315e-002
1.525481e+003;5.471577e-002
1.527410e+003;5.418805e-002
1.529339e+003;5.385459e-002
1.531267e+003;5.258158e-002
1.533196e+003;5.076080e-002
1.535124e+003;5.051332e-002
1.537053e+003;4.820433e-002
1.538981e+003;4.338456e-002
1.540910e+003;4.298483e-002
1.542838e+003;4.544927e-002
1.544767e+003;4.729110e-002
1.546695e+003;4.903756e-002
1.548624e+003;4.921862e-002
1.550553e+003;4.869635e-002
1.552481e+003;4.783728e-002
1.554410e+003;4.640928e-002
1.556338e+003;4.352657e-002
1.558267e+003;3.841855e-002
1.560195e+003;3.942336e-002
1.562124e+003;4.384578e-002
1.564052e+003;4.468160e-002
1.565981e+003;4.426435e-002
1.567910e+003;4.295333e-002
1.569838e+003;4.162012e-002
1.571767e+003;4.226292e-002
1.573695e+003;4.127415e-002
1.575624e+003;3.848513e-002
1.577552e+003;3.941588e-002
1.579481e+003;4.126387e-002
1.581409e+003;4.131278e-002
1.583338e+003;4.113862e-002
1.585266e+003;4.099728e-002
1.587195e+003;4.077193e-002
1.589124e+003;3.992972e-002
1.591052e+003;3.930709e-002
1.592981e+003;3.905057e-002
1.594909e+003;3.863544e-002
1.596838e+003;3.869379e-002
1.598766e+003;3.901639e-002
1.600695e+003;3.898847e-002
1.602623e+003;3.883699e-002
1.604552e+003;3.890305e-002
1.606480e+003;3.877961e-002
1.608409e+003;3.810544e-002
1.610338e+003;3.813297e-002
1.612266e+003;3.885551e-002
1.614195e+003;3.836404e-002
1.616123e+003;3.673745e-002
1.618052e+003;3.805509e-002
1.619980e+003;3.938668e-002
1.621909e+003;3.788752e-002
1.623837e+003;3.656444e-002
1.625766e+003;3.634059e-002
1.627694e+003;3.596126e-002
1.629623e+003;3.637860e-002
1.631552e+003;3.633385e-002
1.633480e+003;3.406099e-002
1.635409e+003;3.180388e-002
1.637337e+003;3.366201e-002
1.639266e+003;3.557754e-002
1.641194e+003;3.588571e-002
1.643123e+003;3.514154e-002
1.645051e+003;3.266061e-002
1.646980e+003;3.180295e-002
1.648909e+003;3.332172e-002
1.650837e+003;3.063213e-002
1.652766e+003;2.620198e-002
1.654694e+003;2.994170e-002
1.656623e+003;3.411679e-002
1.658551e+003;3.466017e-002
1.660480e+003;3.423114e-002
1.662408e+003;3.348815e-002
1.664337e+003;3.386411e-002
1.666266e+003;3.380368e-002
1.668194e+003;3.201032e-002
1.670123e+003;3.138749e-002
1.672051e+003;3.208608e-002
1.673980e+003;3.121589e-002
1.675908e+003;3.118274e-002
1.677837e+003;3.277987e-002
1.679765e+003;3.262961e-002
1.681694e+003;3.083385e-002
1.683622e+003;2.739421e-002
1.685551e+003;2.847346e-002
1.687479e+003;3.146881e-002
1.689408e+003;3.168425e-002
1.691337e+003;3.171619e-002
1.693265e+003;3.025612e-002
1.695194e+003;2.701073e-002
1.697122e+003;2.705343e-002
1.699051e+003;2.595583e-002
1.700979e+003;2.587057e-002
1.702908e+003;2.880364e-002
1.704836e+003;2.885951e-002
1.706765e+003;2.904248e-002
1.708693e+003;2.965865e-002
1.710622e+003;2.996839e-002
1.712551e+003;2.936338e-002
1.714479e+003;2.762176e-002
1.716408e+003;2.516410e-002
1.718336e+003;2.569396e-002
1.720265e+003;2.835598e-002
1.722193e+003;2.918410e-002
1.724122e+003;2.933045e-002
1.726050e+003;2.974504e-002
1.727979e+003;2.935321e-002
1.729908e+003;2.866543e-002
1.731836e+003;2.660508e-002
1.733765e+003;2.402359e-002
1.735693e+003;2.598017e-002
1.737622e+003;2.763345e-002
1.739550e+003;2.676853e-002
1.741479e+003;2.696119e-002
1.743407e+003;2.708916e-002
1.745336e+003;2.692622e-002
1.747265e+003;2.597110e-002
1.749193e+003;2.457903e-002
1.751122e+003;2.397664e-002
1.753050e+003;2.492096e-002
1.754979e+003;2.468637e-002
1.756907e+003;2.419280e-002
1.758836e+003;2.440494e-002
1.760764e+003;2.342834e-002
1.762693e+003;2.310005e-002
1.764621e+003;2.386929e-002
1.766550e+003;2.316806e-002
1.768479e+003;2.244342e-002
1.770407e+003;2.168084e-002
1.772336e+003;2.071354e-002
1.774264e+003;2.196620e-002
1.776193e+003;2.311906e-002
1.778121e+003;2.296634e-002
1.780050e+003;2.266057e-002
1.781978e+003;2.312808e-002
1.783907e+003;2.353511e-002
1.785835e+003;2.418138e-002
1.787764e+003;2.557158e-002
1.789693e+003;2.726983e-002
1.791621e+003;2.923542e-002
1.793550e+003;3.234787e-002
1.795478e+003;3.503136e-002
1.797407e+003;3.533946e-002
1.799335e+003;3.422626e-002
1.801264e+003;3.239371e-002
1.803192e+003;2.994816e-002
1.805121e+003;2.725163e-002
1.807049e+003;2.492678e-002
1.808978e+003;2.317407e-002
1.810907e+003;2.220832e-002
1.812835e+003;2.198428e-002
1.814764e+003;2.204839e-002
1.816692e+003;2.191751e-002
1.818621e+003;2.188977e-002
1.820549e+003;2.169415e-002
1.822478e+003;2.125598e-002
1.824406e+003;2.084451e-002
1.826335e+003;2.112169e-002
1.828264e+003;2.064116e-002
1.830192e+003;2.019527e-002
1.832121e+003;2.103387e-002
1.834049e+003;2.154597e-002
1.835978e+003;2.138061e-002
1.837906e+003;2.124304e-002
1.839835e+003;2.132109e-002
1.841763e+003;2.054606e-002
1.843692e+003;1.909988e-002
1.845620e+003;1.958936e-002
1.847549e+003;2.049250e-002
1.849478e+003;2.064560e-002
1.851406e+003;2.064456e-002
1.853335e+003;2.069477e-002
1.855263e+003;2.053891e-002
1.857192e+003;2.023724e-002
1.859120e+003;2.019999e-002
1.861049e+003;2.017351e-002
1.862977e+003;2.019263e-002
1.864906e+003;2.015299e-002
1.866834e+003;1.935766e-002
1.868763e+003;1.871742e-002
1.870692e+003;1.920082e-002
1.872620e+003;1.973087e-002
1.874549e+003;1.963851e-002
1.876477e+003;1.947897e-002
1.878406e+003;1.962409e-002
1.880334e+003;1.986859e-002
1.882263e+003;1.982541e-002
1.884191e+003;1.981379e-002
1.886120e+003;1.984667e-002
1.888048e+003;1.959234e-002
1.889977e+003;1.965533e-002
1.891906e+003;2.011468e-002
1.893834e+003;2.001804e-002
1.895763e+003;1.988697e-002
1.897691e+003;1.984694e-002
1.899620e+003;1.985721e-002
1.901548e+003;1.989661e-002
1.903477e+003;2.014175e-002
1.905405e+003;2.007751e-002
1.907334e+003;1.964656e-002
1.909262e+003;1.930244e-002
1.911191e+003;1.945482e-002
1.913120e+003;1.962811e-002
1.915048e+003;1.937887e-002
1.916977e+003;1.880090e-002
1.918905e+003;1.898744e-002
1.920834e+003;1.925489e-002
1.922762e+003;1.910089e-002
1.924691e+003;1.933615e-002
1.926619e+003;1.943060e-002
1.928548e+003;1.916678e-002
1.930477e+003;1.889977e-002
1.932405e+003;1.872175e-002
1.934334e+003;1.884218e-002
1.936262e+003;1.893822e-002
1.938191e+003;1.870117e-002
1.940119e+003;1.844616e-002
1.942048e+003;1.836544e-002
1.943976e+003;1.836931e-002
1.945905e+003;1.831366e-002
1.947833e+003;1.828844e-002
1.949762e+003;1.838991e-002
1.951691e+003;1.841639e-002
1.953619e+003;1.833378e-002
1.955548e+003;1.850203e-002
1.957476e+003;1.867927e-002
1.959405e+003;1.836378e-002
1.961333e+003;1.812117e-002
1.963262e+003;1.805277e-002
1.965190e+003;1.796560e-002
1.967119e+003;1.784731e-002
1.969047e+003;1.784820e-002
1.970976e+003;1.797924e-002
1.972905e+003;1.807681e-002
1.974833e+003;1.798242e-002
1.976762e+003;1.777091e-002
1.978690e+003;1.752183e-002
1.980619e+003;1.761423e-002
1.982547e+003;1.789026e-002
1.984476e+003;1.786498e-002
1.986404e+003;1.776415e-002
1.988333e+003;1.772777e-002
1.990261e+003;1.748044e-002
1.992190e+003;1.726728e-002
1.994119e+003;1.749227e-002
1.996047e+003;1.792295e-002
1.997976e+003;1.794858e-002
1.999904e+003;1.770405e-002
2.001833e+003;1.751517e-002
2.003761e+003;1.730617e-002
2.005690e+003;1.721860e-002
2.007618e+003;1.737872e-002
2.009547e+003;1.743253e-002
2.011476e+003;1.736107e-002
2.013404e+003;1.729041e-002
2.015333e+003;1.728776e-002
2.017261e+003;1.748737e-002
2.019190e+003;1.779235e-002
2.021118e+003;1.772670e-002
2.023047e+003;1.752166e-002
2.024975e+003;1.740973e-002
2.026904e+003;1.742680e-002
2.028833e+003;1.727931e-002
2.030761e+003;1.719546e-002
2.032690e+003;1.740555e-002
2.034618e+003;1.756941e-002
2.036547e+003;1.744263e-002
2.038475e+003;1.736738e-002
2.040404e+003;1.715176e-002
2.042332e+003;1.711880e-002
2.044261e+003;1.735720e-002
2.046189e+003;1.750386e-002
2.048118e+003;1.742118e-002
2.050047e+003;1.749675e-002
2.051975e+003;1.764836e-002
2.053904e+003;1.771689e-002
2.055832e+003;1.742169e-002
2.057761e+003;1.716644e-002
2.059689e+003;1.732948e-002
2.061618e+003;1.737345e-002
2.063546e+003;1.732120e-002
2.065475e+003;1.710802e-002
2.067404e+003;1.698151e-002
2.069332e+003;1.718567e-002
2.071260e+003;1.734989e-002
2.073189e+003;1.725173e-002
2.075118e+003;1.704285e-002
2.077046e+003;1.705825e-002
2.078975e+003;1.713842e-002
2.080903e+003;1.724469e-002
2.082832e+003;1.744380e-002
2.084760e+003;1.767969e-002
2.086689e+003;1.781724e-002
2.088617e+003;1.766226e-002
2.090546e+003;1.741776e-002
2.092475e+003;1.732834e-002
2.094403e+003;1.746660e-002
2.096332e+003;1.769450e-002
2.098260e+003;1.780923e-002
2.100189e+003;1.786999e-002
2.102117e+003;1.780636e-002
2.104046e+003;1.788532e-002
2.105974e+003;1.812055e-002
2.107903e+003;1.803813e-002
2.109832e+003;1.793597e-002
2.111760e+003;1.808255e-002
2.113688e+003;1.810054e-002
2.115617e+003;1.821010e-002
2.117546e+003;1.836033e-002
2.119474e+003;1.843558e-002
2.121403e+003;1.854681e-002
2.123331e+003;1.858903e-002
2.125260e+003;1.875091e-002
2.127188e+003;1.893953e-002
2.129117e+003;1.914611e-002
2.131045e+003;1.956745e-002
2.132974e+003;1.968136e-002
2.134903e+003;1.942443e-002
2.136831e+003;1.926476e-002
2.138760e+003;1.917852e-002
2.140688e+003;1.911546e-002
2.142617e+003;1.903504e-002
2.144545e+003;1.886620e-002
2.146474e+003;1.863946e-002
2.148402e+003;1.857634e-002
2.150331e+003;1.874181e-002
2.152260e+003;1.879762e-002
2.154188e+003;1.880059e-002
2.156117e+003;1.885032e-002
2.158045e+003;1.897937e-002
2.159974e+003;1.897560e-002
2.161902e+003;1.901669e-002
2.163831e+003;1.933632e-002
2.165759e+003;1.956173e-002
2.167688e+003;1.963536e-002
2.169616e+003;1.982745e-002
2.171545e+003;2.000343e-002
2.173474e+003;1.986574e-002
2.175402e+003;1.959868e-002
2.177331e+003;1.954475e-002
2.179259e+003;1.961889e-002
2.181188e+003;1.961296e-002
2.183116e+003;1.949093e-002
2.185045e+003;1.922018e-002
2.186973e+003;1.910019e-002
2.188902e+003;1.908011e-002
2.190831e+003;1.935274e-002
2.192759e+003;1.954527e-002
2.194688e+003;1.944231e-002
2.196616e+003;1.920823e-002
2.198545e+003;1.886225e-002
2.200473e+003;1.853031e-002
2.202402e+003;1.863655e-002
2.204330e+003;1.882945e-002
2.206259e+003;1.888084e-002
2.208188e+003;1.886413e-002
2.210116e+003;1.877544e-002
2.212044e+003;1.869663e-002
2.213973e+003;1.876198e-002
2.215902e+003;1.878139e-002
2.217830e+003;1.881343e-002
2.219759e+003;1.872237e-002
2.221687e+003;1.847109e-002
2.223616e+003;1.832161e-002
2.225544e+003;1.828916e-002
2.227473e+003;1.830437e-002
2.229401e+003;1.856161e-002
2.231330e+003;1.872175e-002
2.233259e+003;1.872950e-002
2.235187e+003;1.851479e-002
2.237116e+003;1.829860e-002
2.239044e+003;1.840443e-002
2.240973e+003;1.836510e-002
2.242901e+003;1.838359e-002
2.244830e+003;1.862683e-002
2.246758e+003;1.870476e-002
2.248687e+003;1.885783e-002
2.250615e+003;1.913652e-002
2.252544e+003;1.915816e-002
2.254473e+003;1.919227e-002
2.256401e+003;1.930345e-002
2.258330e+003;1.934592e-002
2.260258e+003;1.912879e-002
2.262187e+003;1.897442e-002
2.264115e+003;1.899236e-002
2.266044e+003;1.883776e-002
2.267972e+003;1.880710e-002
2.269901e+003;1.881568e-002
2.271830e+003;1.858592e-002
2.273758e+003;1.836627e-002
2.275687e+003;1.809201e-002
2.277615e+003;1.807550e-002
2.279544e+003;1.816041e-002
2.281472e+003;1.789765e-002
2.283401e+003;1.752970e-002
2.285329e+003;1.771317e-002
2.287258e+003;1.792658e-002
2.289187e+003;1.784772e-002
2.291115e+003;1.785504e-002
2.293043e+003;1.777195e-002
2.294972e+003;1.767113e-002
2.296901e+003;1.774033e-002
2.298829e+003;1.769146e-002
2.300758e+003;1.766254e-002
2.302686e+003;1.757141e-002
2.304615e+003;1.743708e-002
2.306543e+003;1.733320e-002
2.308472e+003;1.705401e-002
2.310400e+003;1.665841e-002
2.312329e+003;1.628256e-002
2.314258e+003;1.592358e-002
2.316186e+003;1.553230e-002
2.318115e+003;1.509207e-002
2.320043e+003;1.447881e-002
2.321972e+003;1.404334e-002
2.323900e+003;1.390425e-002
2.325829e+003;1.369287e-002
2.327757e+003;1.306591e-002
2.329686e+003;1.236630e-002
2.331615e+003;1.212415e-002
2.333543e+003;1.235659e-002
2.335472e+003;1.214545e-002
2.337400e+003;1.208780e-002
2.339329e+003;1.256074e-002
2.341257e+003;1.318591e-002
2.343186e+003;1.423472e-002
2.345114e+003;1.516988e-002
2.347043e+003;1.639145e-002
2.348971e+003;1.743932e-002
2.350900e+003;1.660023e-002
2.352829e+003;1.478298e-002
2.354757e+003;1.312054e-002
2.356686e+003;1.168498e-002
2.358614e+003;1.071294e-002
2.360543e+003;1.045860e-002
2.362471e+003;1.034695e-002
2.364400e+003;1.072754e-002
2.366328e+003;1.175242e-002
2.368257e+003;1.297389e-002
2.370186e+003;1.424619e-002
2.372114e+003;1.548690e-002
2.374042e+003;1.659578e-002
2.375971e+003;1.779659e-002
2.377900e+003;1.871653e-002
2.379828e+003;1.914503e-002
2.381757e+003;1.953962e-002
2.383685e+003;1.969138e-002
2.385614e+003;1.982742e-002
2.387542e+003;1.992967e-002
2.389471e+003;2.008775e-002
2.391399e+003;2.022162e-002
2.393328e+003;2.023474e-002
2.395257e+003;2.039925e-002
2.397185e+003;2.051275e-002
2.399114e+003;2.046308e-002
2.401042e+003;2.051265e-002
2.402971e+003;2.054707e-002
2.404899e+003;2.062368e-002
2.406828e+003;2.051959e-002
2.408756e+003;2.053415e-002
2.410685e+003;2.070211e-002
2.412614e+003;2.063205e-002
2.414542e+003;2.046450e-002
2.416471e+003;2.074517e-002
2.418399e+003;2.112496e-002
2.420328e+003;2.124015e-002
2.422256e+003;2.114319e-002
2.424185e+003;2.110517e-002
2.426113e+003;2.122157e-002
2.428042e+003;2.153796e-002
2.429970e+003;2.159938e-002
2.431899e+003;2.133258e-002
2.433828e+003;2.127860e-002
2.435756e+003;2.120411e-002
2.437685e+003;2.099346e-002
2.439613e+003;2.098935e-002
2.441542e+003;2.089248e-002
2.443470e+003;2.053283e-002
2.445399e+003;2.066708e-002
2.447327e+003;2.069314e-002
2.449256e+003;2.059150e-002
2.451185e+003;2.046885e-002
2.453113e+003;2.036285e-002
2.455042e+003;2.030650e-002
2.456970e+003;2.016091e-002
2.458899e+003;2.015098e-002
2.460827e+003;2.004128e-002
2.462756e+003;1.983789e-002
2.464684e+003;1.985017e-002
2.466613e+003;2.023443e-002
2.468542e+003;2.053661e-002
2.470470e+003;2.061350e-002
2.472398e+003;2.077558e-002
2.474327e+003;2.097558e-002
2.476256e+003;2.133146e-002
2.478184e+003;2.184099e-002
2.480113e+003;2.208806e-002
2.482041e+003;2.206875e-002
2.483970e+003;2.221888e-002
2.485898e+003;2.236981e-002
2.487827e+003;2.251879e-002
2.489755e+003;2.302846e-002
2.491684e+003;2.360560e-002
2.493613e+003;2.396511e-002
2.495541e+003;2.450526e-002
2.497470e+003;2.517874e-002
2.499398e+003;2.577883e-002
2.501327e+003;2.654967e-002
2.503255e+003;2.771743e-002
2.505184e+003;2.868274e-002
2.507112e+003;2.916518e-002
2.509041e+003;2.970992e-002
2.510969e+003;3.047746e-002
2.512898e+003;3.094005e-002
2.514827e+003;3.096040e-002
2.516755e+003;3.106801e-002
2.518684e+003;3.145321e-002
2.520612e+003;3.164932e-002
2.522541e+003;3.139191e-002
2.524469e+003;3.104808e-002
2.526398e+003;3.054169e-002
2.528326e+003;2.984327e-002
2.530255e+003;2.940085e-002
2.532184e+003;2.906894e-002
2.534112e+003;2.848807e-002
2.536041e+003;2.797055e-002
2.537969e+003;2.752820e-002
2.539898e+003;2.703510e-002
2.541826e+003;2.687423e-002
2.543755e+003;2.695104e-002
2.545683e+003;2.724143e-002
2.547612e+003;2.759214e-002
2.549541e+003;2.785395e-002
2.551469e+003;2.792179e-002
2.553397e+003;2.811207e-002
2.555326e+003;2.833030e-002
2.557255e+003;2.832641e-002
2.559183e+003;2.849518e-002
2.561112e+003;2.868504e-002
2.563040e+003;2.883458e-002
2.564969e+003;2.888331e-002
2.566897e+003;2.914172e-002
2.568826e+003;2.996151e-002
2.570754e+003;3.056274e-002
2.572683e+003;3.113732e-002
2.574612e+003;3.192715e-002
2.576540e+003;3.255192e-002
2.578469e+003;3.304905e-002
2.580397e+003;3.356900e-002
2.582326e+003;3.378910e-002
2.584254e+003;3.324288e-002
2.586183e+003;3.259396e-002
2.588111e+003;3.212154e-002
2.590040e+003;3.151616e-002
2.591969e+003;3.110154e-002
2.593897e+003;3.093009e-002
2.595826e+003;3.056387e-002
2.597754e+003;3.032291e-002
2.599683e+003;3.038548e-002
2.601611e+003;3.039256e-002
2.603540e+003;3.033599e-002
2.605468e+003;3.063050e-002
2.607397e+003;3.131559e-002
2.609325e+003;3.182973e-002
2.611254e+003;3.214370e-002
2.613183e+003;3.232863e-002
2.615111e+003;3.245872e-002
2.617040e+003;3.263529e-002
2.618968e+003;3.248561e-002
2.620897e+003;3.195660e-002
2.622825e+003;3.148966e-002
2.624754e+003;3.142193e-002
2.626682e+003;3.100499e-002
2.628611e+003;3.044131e-002
2.630540e+003;3.029527e-002
2.632468e+003;3.036214e-002
2.634396e+003;3.035848e-002
2.636325e+003;3.018149e-002
2.638254e+003;3.006958e-002
2.640182e+003;3.038609e-002
2.642111e+003;3.083065e-002
2.644039e+003;3.116807e-002
2.645968e+003;3.144484e-002
2.647896e+003;3.141332e-002
2.649825e+003;3.172225e-002
2.651753e+003;3.228658e-002
2.653682e+003;3.271416e-002
2.655611e+003;3.299499e-002
2.657539e+003;3.319838e-002
2.659468e+003;3.342598e-002
2.661396e+003;3.347262e-002
2.663325e+003;3.364025e-002
2.665253e+003;3.379498e-002
2.667182e+003;3.375161e-002
2.669110e+003;3.389699e-002
2.671039e+003;3.399323e-002
2.672968e+003;3.407622e-002
2.674896e+003;3.429363e-002
2.676825e+003;3.456006e-002
2.678753e+003;3.472926e-002
2.680682e+003;3.482743e-002
2.682610e+003;3.469032e-002
2.684539e+003;3.452343e-002
2.686467e+003;3.469986e-002
2.688396e+003;3.479226e-002
2.690324e+003;3.478515e-002
2.692253e+003;3.464277e-002
2.694182e+003;3.449035e-002
2.696110e+003;3.429299e-002
2.698039e+003;3.428338e-002
2.699967e+003;3.468795e-002
2.701896e+003;3.545273e-002
2.703824e+003;3.631054e-002
2.705753e+003;3.699477e-002
2.707681e+003;3.770920e-002
2.709610e+003;3.857282e-002
2.711539e+003;3.970304e-002
2.713467e+003;4.124992e-002
2.715396e+003;4.298051e-002
2.717324e+003;4.469692e-002
2.719253e+003;4.641039e-002
2.721181e+003;4.784782e-002
2.723110e+003;4.832900e-002
2.725038e+003;4.777040e-002
2.726967e+003;4.668767e-002
2.728896e+003;4.514296e-002
2.730824e+003;4.367406e-002
2.732752e+003;4.259574e-002
2.734681e+003;4.139102e-002
2.736610e+003;4.003606e-002
2.738538e+003;3.919759e-002
2.740467e+003;3.879145e-002
2.742395e+003;3.793954e-002
2.744324e+003;3.687027e-002
2.746252e+003;3.638847e-002
2.748181e+003;3.642363e-002
2.750109e+003;3.638126e-002
2.752038e+003;3.594124e-002
2.753967e+003;3.594283e-002
2.755895e+003;3.615819e-002
2.757824e+003;3.643026e-002
2.759752e+003;3.678988e-002
2.761681e+003;3.725289e-002
2.763609e+003;3.775073e-002
2.765538e+003;3.790899e-002
2.767466e+003;3.833791e-002
2.769395e+003;3.856779e-002
2.771323e+003;3.895154e-002
2.773252e+003;3.991087e-002
2.775181e+003;4.079996e-002
2.777109e+003;4.157034e-002
2.779038e+003;4.229841e-002
2.780966e+003;4.305087e-002
2.782895e+003;4.403188e-002
2.784823e+003;4.580060e-002
2.786752e+003;4.767270e-002
2.788680e+003;4.927767e-002
2.790609e+003;5.100003e-002
2.792538e+003;5.285401e-002
2.794466e+003;5.393929e-002
2.796395e+003;5.499356e-002
2.798323e+003;5.654302e-002
2.800252e+003;5.796067e-002
2.802180e+003;5.946024e-002
2.804109e+003;6.152347e-002
2.806037e+003;6.416035e-002
2.807966e+003;6.644628e-002
2.809895e+003;6.814768e-002
2.811823e+003;6.982024e-002
2.813751e+003;7.186041e-002
2.815680e+003;7.388393e-002
2.817609e+003;7.598725e-002
2.819537e+003;7.874297e-002
2.821466e+003;8.204036e-002
2.823394e+003;8.560588e-002
2.825323e+003;9.015791e-002
2.827251e+003;9.588548e-002
2.829180e+003;1.032740e-001
2.831108e+003;1.127042e-001
2.833037e+003;1.224555e-001
2.834966e+003;1.306790e-001
2.836894e+003;1.359486e-001
2.838823e+003;1.367644e-001
2.840751e+003;1.336082e-001
2.842680e+003;1.281791e-001
2.844608e+003;1.217593e-001
2.846537e+003;1.157668e-001
2.848465e+003;1.110509e-001
2.850394e+003;1.074612e-001
2.852323e+003;1.054697e-001
2.854251e+003;1.046830e-001
2.856180e+003;1.054870e-001
2.858108e+003;1.089802e-001
2.860037e+003;1.155906e-001
2.861965e+003;1.243562e-001
2.863894e+003;1.332587e-001
2.865822e+003;1.396524e-001
2.867751e+003;1.425744e-001
2.869679e+003;1.432589e-001
2.871608e+003;1.432092e-001
2.873536e+003;1.434465e-001
2.875465e+003;1.432894e-001
2.877394e+003;1.424037e-001
2.879322e+003;1.409988e-001
2.881251e+003;1.392356e-001
2.883179e+003;1.382643e-001
2.885108e+003;1.381438e-001
2.887036e+003;1.385411e-001
2.888965e+003;1.394982e-001
2.890893e+003;1.412530e-001
2.892822e+003;1.437824e-001
2.894750e+003;1.473580e-001
2.896679e+003;1.518202e-001
2.898608e+003;1.568796e-001
2.900536e+003;1.621077e-001
2.902465e+003;1.676464e-001
2.904393e+003;1.735512e-001
2.906322e+003;1.793083e-001
2.908250e+003;1.844814e-001
2.910179e+003;1.888967e-001
2.912107e+003;1.930026e-001
2.914036e+003;1.970128e-001
2.915965e+003;2.004853e-001
2.917893e+003;2.017470e-001
2.919822e+003;2.001586e-001
2.921750e+003;1.955085e-001
2.923679e+003;1.886672e-001
2.925607e+003;1.811832e-001
2.927536e+003;1.722902e-001
2.929464e+003;1.621562e-001
2.931393e+003;1.523195e-001
2.933322e+003;1.435843e-001
2.935250e+003;1.360336e-001
2.937178e+003;1.308521e-001
2.939107e+003;1.289929e-001
2.941036e+003;1.304577e-001
2.942964e+003;1.363160e-001
2.944893e+003;1.458507e-001
2.946821e+003;1.565227e-001
2.948750e+003;1.653757e-001
2.950678e+003;1.702258e-001
2.952607e+003;1.704006e-001
2.954535e+003;1.665238e-001
2.956464e+003;1.610656e-001
2.958393e+003;1.556977e-001
2.960321e+003;1.502239e-001
2.962250e+003;1.438312e-001
2.964178e+003;1.360898e-001
2.966107e+003;1.275709e-001
2.968035e+003;1.195129e-001
2.969964e+003;1.116481e-001
2.971892e+003;1.040049e-001
2.973821e+003;9.769600e-002
2.975750e+003;9.214744e-002
2.977678e+003;8.752622e-002
2.979607e+003;8.359907e-002
2.981535e+003;7.983189e-002
2.983464e+003;7.648888e-002
2.985392e+003;7.357609e-002
2.987321e+003;7.083613e-002
2.989249e+003;6.784128e-002
2.991178e+003;6.524942e-002
2.993106e+003;6.307890e-002
2.995035e+003;6.041079e-002
2.996964e+003;5.770868e-002
2.998892e+003;5.545743e-002
3.000821e+003;5.317281e-002
3.002749e+003;5.113841e-002
3.004678e+003;4.986408e-002
3.006606e+003;4.844097e-002
3.008535e+003;4.640184e-002
3.010463e+003;4.475509e-002
3.012392e+003;4.355540e-002
3.014321e+003;4.205615e-002
3.016249e+003;4.053183e-002
3.018177e+003;3.962775e-002
3.020106e+003;3.893280e-002
3.022035e+003;3.784522e-002
3.023963e+003;3.691792e-002
3.025892e+003;3.620385e-002
3.027820e+003;3.577459e-002
3.029749e+003;3.523485e-002
3.031677e+003;3.468680e-002
3.033606e+003;3.430098e-002
3.035534e+003;3.343633e-002
3.037463e+003;3.267301e-002
3.039392e+003;3.241881e-002
3.041320e+003;3.221260e-002
3.043249e+003;3.214623e-002
3.045177e+003;3.183607e-002
3.047106e+003;3.132702e-002
3.049034e+003;3.119039e-002
3.050963e+003;3.116757e-002
3.052891e+003;3.062638e-002
3.054820e+003;2.994713e-002
3.056749e+003;2.976825e-002
3.058677e+003;2.962300e-002
3.060606e+003;2.940770e-002
3.062534e+003;2.941752e-002
3.064463e+003;2.928160e-002
3.066391e+003;2.905910e-002
3.068320e+003;2.896611e-002
3.070248e+003;2.894532e-002
3.072177e+003;2.906792e-002
3.074105e+003;2.901556e-002
3.076034e+003;2.866289e-002
3.077963e+003;2.857062e-002
3.079891e+003;2.844908e-002
3.081820e+003;2.800936e-002
3.083748e+003;2.787437e-002
3.085677e+003;2.780866e-002
3.087605e+003;2.776974e-002
3.089534e+003;2.774752e-002
3.091462e+003;2.775861e-002
3.093391e+003;2.800911e-002
3.095320e+003;2.806322e-002
3.097248e+003;2.776087e-002
3.099177e+003;2.730783e-002
3.101105e+003;2.707985e-002
3.103034e+003;2.719490e-002
3.104962e+003;2.728645e-002
3.106891e+003;2.699487e-002
3.108819e+003;2.711730e-002
3.110748e+003;2.756012e-002
3.112677e+003;2.760051e-002
3.114605e+003;2.774791e-002
3.116533e+003;2.756958e-002
3.118462e+003;2.729149e-002
3.120391e+003;2.753290e-002
3.122319e+003;2.765421e-002
3.124248e+003;2.769151e-002
3.126176e+003;2.734890e-002
3.128105e+003;2.724651e-002
3.130033e+003;2.767166e-002
3.131962e+003;2.818483e-002
3.133890e+003;2.831075e-002
3.135819e+003;2.844565e-002
3.137748e+003;2.850792e-002
3.139676e+003;2.838198e-002
3.141605e+003;2.829356e-002
3.143533e+003;2.836397e-002
3.145462e+003;2.844958e-002
3.147390e+003;2.876466e-002
3.149319e+003;2.909796e-002
3.151247e+003;2.946553e-002
3.153176e+003;2.916812e-002
3.155104e+003;2.870037e-002
3.157033e+003;2.846536e-002
3.158962e+003;2.795946e-002
3.160890e+003;2.783950e-002
3.162819e+003;2.829614e-002
3.164747e+003;2.812306e-002
3.166676e+003;2.766357e-002
3.168604e+003;2.793359e-002
3.170533e+003;2.806668e-002
3.172461e+003;2.804145e-002
3.174390e+003;2.821587e-002
3.176319e+003;2.798571e-002
3.178247e+003;2.758137e-002
3.180176e+003;2.761516e-002
3.182104e+003;2.811338e-002
3.184033e+003;2.834774e-002
3.185961e+003;2.827018e-002
3.187890e+003;2.852671e-002
3.189818e+003;2.870419e-002
3.191747e+003;2.882846e-002
3.193676e+003;2.866812e-002
3.195604e+003;2.837731e-002
3.197532e+003;2.847289e-002
3.199461e+003;2.876930e-002
3.201390e+003;2.900755e-002
3.203318e+003;2.863408e-002
3.205247e+003;2.814254e-002
3.207175e+003;2.811932e-002
3.209104e+003;2.798646e-002
3.211032e+003;2.789324e-002
3.212961e+003;2.778623e-002
3.214889e+003;2.755200e-002
3.216818e+003;2.755200e-002
3.218747e+003;2.743463e-002
3.220675e+003;2.730716e-002
3.222604e+003;2.729541e-002
3.224532e+003;2.696800e-002
3.226461e+003;2.664844e-002
3.228389e+003;2.640288e-002
3.230318e+003;2.609089e-002
3.232246e+003;2.577911e-002
3.234175e+003;2.524079e-002
3.236104e+003;2.480226e-002
3.238032e+003;2.448812e-002
3.239961e+003;2.447823e-002
3.241889e+003;2.488110e-002
3.243818e+003;2.488710e-002
3.245746e+003;2.422135e-002
3.247675e+003;2.420864e-002
3.249603e+003;2.416849e-002
3.251532e+003;2.365094e-002
3.253460e+003;2.341998e-002
3.255389e+003;2.353483e-002
3.257318e+003;2.388008e-002
3.259246e+003;2.423726e-002
3.261175e+003;2.446330e-002
3.263103e+003;2.458990e-002
3.265032e+003;2.443182e-002
3.266960e+003;2.405756e-002
3.268889e+003;2.411672e-002
3.270817e+003;2.409483e-002
3.272746e+003;2.396343e-002
3.274675e+003;2.367656e-002
3.276603e+003;2.353092e-002
3.278531e+003;2.363016e-002
3.280460e+003;2.372936e-002
3.282389e+003;2.408257e-002
3.284317e+003;2.414005e-002
3.286246e+003;2.355970e-002
3.288174e+003;2.324953e-002
3.290103e+003;2.378413e-002
3.292031e+003;2.412099e-002
3.293960e+003;2.422839e-002
3.295888e+003;2.405679e-002
3.297817e+003;2.383457e-002
3.299746e+003;2.377573e-002
3.301674e+003;2.370172e-002
3.303603e+003;2.363762e-002
3.305531e+003;2.355236e-002
3.307460e+003;2.393224e-002
3.309388e+003;2.413143e-002
3.311317e+003;2.397362e-002
3.313245e+003;2.382305e-002
3.315174e+003;2.366333e-002
3.317103e+003;2.358185e-002
3.319031e+003;2.334795e-002
3.320960e+003;2.271706e-002
3.322888e+003;2.282740e-002
3.324817e+003;2.354939e-002
3.326745e+003;2.364951e-002
3.328674e+003;2.327149e-002
3.330602e+003;2.316051e-002
3.332531e+003;2.322220e-002
3.334459e+003;2.334466e-002
3.336388e+003;2.356079e-002
3.338317e+003;2.363135e-002
3.340245e+003;2.384209e-002
3.342174e+003;2.390486e-002
3.344102e+003;2.409027e-002
3.346031e+003;2.469075e-002
3.347959e+003;2.453331e-002
3.349888e+003;2.373321e-002
3.351816e+003;2.392373e-002
3.353745e+003;2.429977e-002
3.355674e+003;2.421795e-002
3.357602e+003;2.414481e-002
3.359531e+003;2.390034e-002
3.361459e+003;2.369160e-002
3.363388e+003;2.335690e-002
3.365316e+003;2.291611e-002
3.367245e+003;2.286421e-002
3.369173e+003;2.325880e-002
3.371102e+003;2.338396e-002
3.373031e+003;2.332005e-002
3.374959e+003;2.371050e-002
3.376887e+003;2.390160e-002
3.378816e+003;2.365780e-002
3.380745e+003;2.358937e-002
3.382673e+003;2.329351e-002
3.384602e+003;2.267691e-002
3.386530e+003;2.288122e-002
3.388459e+003;2.350503e-002
3.390387e+003;2.361015e-002
3.392316e+003;2.286484e-002
3.394244e+003;2.259369e-002
3.396173e+003;2.299715e-002
3.398102e+003;2.346460e-002
3.400030e+003;2.366085e-002
3.401959e+003;2.332795e-002
3.403887e+003;2.270019e-002
3.405816e+003;2.204211e-002
3.407744e+003;2.192713e-002
3.409673e+003;2.258039e-002
3.411601e+003;2.308429e-002
3.413530e+003;2.280051e-002
3.415458e+003;2.226192e-002
3.417387e+003;2.189235e-002
3.419316e+003;2.202949e-002
3.421244e+003;2.236827e-002
3.423173e+003;2.237490e-002
3.425101e+003;2.242144e-002
3.427030e+003;2.226750e-002
3.428958e+003;2.223489e-002
3.430887e+003;2.237612e-002
3.432815e+003;2.226548e-002
3.434744e+003;2.193640e-002
3.436673e+003;2.152974e-002
3.438601e+003;2.146714e-002
3.440530e+003;2.161046e-002
3.442458e+003;2.145614e-002
3.444387e+003;2.094957e-002
3.446315e+003;2.043682e-002
3.448244e+003;2.046495e-002
3.450172e+003;2.081920e-002
3.452101e+003;2.085789e-002
3.454030e+003;2.097892e-002
3.455958e+003;2.089168e-002
3.457886e+003;2.082122e-002
3.459815e+003;2.094415e-002
3.461744e+003;2.081249e-002
3.463672e+003;2.078329e-002
3.465601e+003;2.059324e-002
3.467529e+003;2.039598e-002
3.469458e+003;2.033841e-002
3.471386e+003;2.050493e-002
3.473315e+003;2.067100e-002
3.475243e+003;2.054252e-002
3.477172e+003;2.027713e-002
3.479101e+003;1.990317e-002
3.481029e+003;1.974128e-002
3.482958e+003;1.977484e-002
3.484886e+003;1.969312e-002
3.486815e+003;1.925835e-002
3.488743e+003;1.890814e-002
3.490672e+003;1.914271e-002
3.492600e+003;1.940298e-002
3.494529e+003;1.921547e-002
3.496458e+003;1.910016e-002
3.498386e+003;1.897598e-002
3.500315e+003;1.883125e-002
3.502243e+003;1.871798e-002
3.504172e+003;1.891863e-002
3.506100e+003;1.929759e-002
3.508029e+003;1.946611e-002
3.509957e+003;1.926950e-002
3.511886e+003;1.902337e-002
3.513814e+003;1.866945e-002
3.515743e+003;1.829525e-002
3.517672e+003;1.825671e-002
3.519600e+003;1.844447e-002
3.521529e+003;1.833485e-002
3.523457e+003;1.816522e-002
3.525386e+003;1.860162e-002
3.527314e+003;1.865540e-002
3.529243e+003;1.808358e-002
3.531171e+003;1.793404e-002
3.533100e+003;1.839137e-002
3.535029e+003;1.842956e-002
3.536957e+003;1.811861e-002
3.538885e+003;1.781037e-002
3.540814e+003;1.758938e-002
3.542743e+003;1.722022e-002
3.544671e+003;1.717968e-002
3.546600e+003;1.762786e-002
3.548528e+003;1.788083e-002
3.550457e+003;1.763262e-002
3.552385e+003;1.726924e-002
3.554314e+003;1.709544e-002
3.556242e+003;1.740124e-002
3.558171e+003;1.722587e-002
3.560100e+003;1.686634e-002
3.562028e+003;1.652295e-002
3.563957e+003;1.621088e-002
3.565885e+003;1.586553e-002
3.567814e+003;1.606298e-002
3.569742e+003;1.647607e-002
3.571671e+003;1.640326e-002
3.573599e+003;1.632350e-002
3.575528e+003;1.712242e-002
3.577457e+003;1.757438e-002
3.579385e+003;1.731720e-002
3.581314e+003;1.700050e-002
3.583242e+003;1.689824e-002
3.585171e+003;1.606573e-002
3.587099e+003;1.456319e-002
3.589028e+003;1.484624e-002
3.590956e+003;1.616318e-002
3.592885e+003;1.651631e-002
3.594813e+003;1.682470e-002
3.596742e+003;1.695412e-002
3.598671e+003;1.652236e-002
3.600599e+003;1.627833e-002
3.602528e+003;1.645271e-002
3.604456e+003;1.663958e-002
3.606385e+003;1.593688e-002
3.608313e+003;1.505801e-002
3.610242e+003;1.525807e-002
3.612170e+003;1.558704e-002
3.614099e+003;1.653816e-002
3.616028e+003;1.701573e-002
3.617956e+003;1.621281e-002
3.619885e+003;1.664316e-002
3.621813e+003;1.754291e-002
3.623742e+003;1.699616e-002
3.625670e+003;1.588123e-002
3.627599e+003;1.397364e-002
3.629527e+003;1.409287e-002
3.631456e+003;1.579048e-002
3.633385e+003;1.618216e-002
3.635313e+003;1.661868e-002
3.637241e+003;1.711649e-002
3.639170e+003;1.706115e-002
3.641099e+003;1.696425e-002
3.643027e+003;1.748706e-002
3.644956e+003;1.728189e-002
3.646884e+003;1.522571e-002
3.648813e+003;1.312519e-002
3.650741e+003;1.420141e-002
3.652670e+003;1.596923e-002
3.654598e+003;1.536602e-002
3.656527e+003;1.526909e-002
3.658456e+003;1.670792e-002
3.660384e+003;1.737745e-002
3.662313e+003;1.772815e-002
3.664241e+003;1.804752e-002
3.666170e+003;1.718043e-002
3.668098e+003;1.536739e-002
3.670027e+003;1.452667e-002
3.671955e+003;1.579704e-002
3.673884e+003;1.441996e-002
3.675813e+003;1.354797e-002
3.677741e+003;1.631005e-002
3.679669e+003;1.752004e-002
3.681598e+003;1.815389e-002
3.683527e+003;1.882395e-002
3.685455e+003;1.807153e-002
3.687384e+003;1.601952e-002
3.689312e+003;1.658119e-002
3.691241e+003;1.896086e-002
3.693169e+003;2.069842e-002
3.695098e+003;2.104270e-002
3.697026e+003;2.107766e-002
3.698955e+003;2.031316e-002
3.700884e+003;1.883492e-002
3.702812e+003;1.845684e-002
3.704741e+003;1.845155e-002
3.706669e+003;1.788014e-002
3.708598e+003;1.655131e-002
3.710526e+003;1.462168e-002
3.712455e+003;1.474524e-002
3.714383e+003;1.680951e-002
3.716312e+003;1.736279e-002
3.718240e+003;1.716265e-002
3.720169e+003;1.677273e-002
3.722098e+003;1.645783e-002
3.724026e+003;1.623919e-002
3.725955e+003;1.623444e-002
3.727883e+003;1.683813e-002
3.729812e+003;1.613409e-002
3.731740e+003;1.450464e-002
3.733669e+003;1.423781e-002
3.735597e+003;1.403496e-002
3.737526e+003;1.528086e-002
3.739455e+003;1.650973e-002
3.741383e+003;1.500316e-002
3.743312e+003;1.094771e-002
3.745240e+003;1.193826e-002
3.747169e+003;1.447953e-002
3.749097e+003;1.317146e-002
3.751026e+003;1.256183e-002
3.752954e+003;1.421072e-002
3.754883e+003;1.608914e-002
3.756812e+003;1.615097e-002
3.758740e+003;1.670100e-002
3.760668e+003;1.738659e-002
3.762597e+003;1.803036e-002
3.764526e+003;1.765343e-002
3.766454e+003;1.700629e-002
3.768383e+003;1.634473e-002
3.770311e+003;1.657919e-002
3.772240e+003;1.729682e-002
3.774168e+003;1.770799e-002
3.776097e+003;1.811464e-002
3.778025e+003;1.801457e-002
3.779954e+003;1.753311e-002
3.781883e+003;1.759370e-002
3.783811e+003;1.794920e-002
3.785740e+003;1.794747e-002
3.787668e+003;1.779124e-002
3.789597e+003;1.794761e-002
3.791525e+003;1.792054e-002
3.793454e+003;1.790227e-002
3.795382e+003;1.766972e-002
3.797311e+003;1.741838e-002
3.799240e+003;1.546991e-002
3.801168e+003;1.421302e-002
3.803097e+003;1.617136e-002
3.805025e+003;1.593881e-002
3.806954e+003;1.532064e-002
3.808882e+003;1.725604e-002
3.810811e+003;1.850912e-002
3.812739e+003;1.811647e-002
3.814668e+003;1.572121e-002
3.816596e+003;1.530557e-002
3.818525e+003;1.623241e-002
3.820454e+003;1.542750e-002
3.822382e+003;1.638746e-002
3.824311e+003;1.777322e-002
3.826239e+003;1.770371e-002
3.828168e+003;1.818132e-002
3.830096e+003;1.817123e-002
3.832025e+003;1.715334e-002
3.833953e+003;1.633265e-002
3.835882e+003;1.496186e-002
3.837811e+003;1.425071e-002
3.839739e+003;1.586144e-002
3.841667e+003;1.694230e-002
3.843596e+003;1.718061e-002
3.845525e+003;1.764301e-002
3.847453e+003;1.840851e-002
3.849382e+003;1.775538e-002
3.851310e+003;1.381938e-002
3.853239e+003;1.113960e-002
3.855167e+003;1.522012e-002
3.857096e+003;1.837647e-002
3.859024e+003;1.816256e-002
3.860953e+003;1.771569e-002
3.862882e+003;1.736489e-002
3.864810e+003;1.720522e-002
3.866739e+003;1.741897e-002
3.868667e+003;1.608374e-002
3.870596e+003;1.607288e-002
3.872524e+003;1.736093e-002
3.874453e+003;1.787496e-002
3.876381e+003;1.809412e-002
3.878310e+003;1.789322e-002
3.880239e+003;1.794633e-002
3.882167e+003;1.852980e-002
3.884096e+003;1.771224e-002
3.886024e+003;1.719888e-002
3.887953e+003;1.857634e-002
3.889881e+003;1.807705e-002
3.891810e+003;1.793090e-002
3.893738e+003;1.908690e-002
3.895667e+003;1.930515e-002
3.897595e+003;1.862825e-002
3.899524e+003;1.775873e-002
3.901453e+003;1.677042e-002
3.903381e+003;1.672800e-002
3.905310e+003;1.833841e-002
3.907238e+003;1.957906e-002
3.909167e+003;1.982235e-002
3.911095e+003;2.006807e-002
3.913024e+003;2.018045e-002
3.914952e+003;2.003080e-002
3.916881e+003;1.973171e-002
3.918810e+003;1.967072e-002
3.920738e+003;1.998070e-002
3.922667e+003;2.023224e-002
3.924595e+003;2.038466e-002
3.926524e+003;2.064098e-002
3.928452e+003;2.038549e-002
3.930381e+003;2.003920e-002
3.932309e+003;1.974512e-002
3.934238e+003;2.002199e-002
3.936167e+003;2.015588e-002
3.938095e+003;2.041724e-002
3.940023e+003;2.035914e-002
3.941952e+003;2.005482e-002
3.943881e+003;2.039459e-002
3.945809e+003;2.005076e-002
3.947738e+003;1.938614e-002
3.949666e+003;1.947585e-002
3.951595e+003;1.970650e-002
3.953523e+003;2.012759e-002
3.955452e+003;2.040706e-002
3.957380e+003;2.015761e-002
3.959309e+003;2.005450e-002
3.961238e+003;2.027358e-002
3.963166e+003;2.050361e-002
3.965095e+003;2.037212e-002
3.967023e+003;2.002331e-002
3.968952e+003;2.030386e-002
3.970880e+003;2.056486e-002
3.972809e+003;2.042220e-002
3.974737e+003;2.039581e-002
3.976666e+003;2.016750e-002
3.978594e+003;2.041230e-002
3.980523e+003;2.100295e-002
3.982452e+003;2.089280e-002
3.984380e+003;2.090740e-002
3.986309e+003;2.118097e-002
3.988237e+003;2.158027e-002
3.990166e+003;2.219995e-002
3.992094e+003;2.216068e-002
3.994023e+003;2.190061e-002
3.995951e+003;2.155377e-002
3.997880e+003;2.138739e-002
3.999809e+003;2.172299e-002
4.001737e+003;0.000000e+000
