3.992094e+002;0.000000e+000
4.011380e+002;0.000000e+000
4.030665e+002;0.000000e+000
4.049951e+002;0.000000e+000
4.069236e+002;0.000000e+000
4.088522e+002;0.000000e+000
4.107807e+002;0.000000e+000
4.127093e+002;0.000000e+000
4.146378e+002;0.000000e+000
4.165664e+002;0.000000e+000
4.184949e+002;0.000000e+000
4.204235e+002;0.000000e+000
4.223520e+002;0.000000e+000
4.242806e+002;0.000000e+000
4.262091e+002;0.000000e+000
4.281377e+002;0.000000e+000
4.300662e+002;0.000000e+000
4.319948e+002;0.000000e+000
4.339233e+002;0.000000e+000
4.358519e+002;0.000000e+000
4.377804e+002;0.000000e+000
4.397090e+002;0.000000e+000
4.416375e+002;0.000000e+000
4.435660e+002;0.000000e+000
4.454946e+002;0.000000e+000
4.474232e+002;0.000000e+000
4.493517e+002;0.000000e+000
4.512802e+002;0.000000e+000
4.532088e+002;0.000000e+000
4.551373e+002;0.000000e+000
4.570659e+002;0.000000e+000
4.589944e+002;0.000000e+000
4.609230e+002;0.000000e+000
4.628515e+002;0.000000e+000
4.647801e+002;0.000000e+000
4.667086e+002;0.000000e+000
4.686372e+002;0.000000e+000
4.705657e+002;0.000000e+000
4.724943e+002;0.000000e+000
4.744228e+002;0.000000e+000
4.763513e+002;0.000000e+000
4.782799e+002;0.000000e+000
4.802085e+002;0.000000e+000
4.821370e+002;0.000000e+000
4.840656e+002;0.000000e+000
4.859941e+002;0.000000e+000
4.879226e+002;0.000000e+000
4.898512e+002;0.000000e+000
4.917798e+002;0.000000e+000
4.937083e+002;0.000000e+000
4.956368e+002;0.000000e+000
4.975654e+002;0.000000e+000
4.994939e+002;0.000000e+000
5.014225e+002;0.000000e+000
5.033510e+002;0.000000e+000
5.052796e+002;0.000000e+000
5.072081e+002;0.000000e+000
5.091367e+002;0.000000e+000
5.110652e+002;0.000000e+000
5.129938e+002;0.000000e+000
5.149223e+002;0.000000e+000
5.168509e+002;0.000000e+000
5.187794e+002;0.000000e+000
5.207079e+002;0.000000e+000
5.226365e+002;0.000000e+000
5.245651e+002;0.000000e+000
5.264936e+002;0.000000e+000
5.284222e+002;0.000000e+000
5.303507e+002;0.000000e+000
5.322792e+002;0.000000e+000
5.342078e+002;0.000000e+000
5.361364e+002;0.000000e+000
5.380649e+002;0.000000e+000
5.399935e+002;0.000000e+000
5.419220e+002;0.000000e+000
5.438505e+002;0.000000e+000
5.457791e+002;0.000000e+000
5.477076e+002;0.000000e+000
5.496362e+002;0.000000e+000
5.515648e+002;0.000000e+000
5.534933e+002;0.000000e+000
5.554218e+002;0.000000e+000
5.573504e+002;0.000000e+000
5.592789e+002;0.000000e+000
5.612075e+002;0.000000e+000
5.631360e+002;0.000000e+000
5.650646e+002;0.000000e+000
5.669931e+002;0.000000e+000
5.689217e+002;0.000000e+000
5.708502e+002;0.000000e+000
5.727787e+002;0.000000e+000
5.747073e+002;0.000000e+000
5.766359e+002;0.000000e+000
5.785644e+002;0.000000e+000
5.804930e+002;0.000000e+000
5.824215e+002;0.000000e+000
5.843500e+002;0.000000e+000
5.862786e+002;0.000000e+000
5.882072e+002;0.000000e+000
5.901357e+002;0.000000e+000
5.920643e+002;0.000000e+000
5.939928e+002;0.000000e+000
5.959213e+002;0.000000e+000
5.978499e+002;0.000000e+000
5.997784e+002;3.749278e-002
6.017070e+002;3.126726e-002
6.036355e+002;2.877567e-002
6.055641e+002;3.336176e-002
6.074926e+002;3.696555e-002
6.094211e+002;3.635694e-002
6.113497e+002;3.424197e-002
6.132783e+002;3.366481e-002
6.152068e+002;3.628951e-002
6.171354e+002;3.646414e-002
6.190639e+002;3.277569e-002
6.209924e+002;3.242916e-002
6.229210e+002;3.445408e-002
6.248495e+002;3.508434e-002
6.267781e+002;3.527768e-002
6.287067e+002;3.605301e-002
6.306352e+002;3.439978e-002
6.325637e+002;3.175664e-002
6.344923e+002;2.859543e-002
6.364208e+002;2.677959e-002
6.383494e+002;2.941911e-002
6.402780e+002;3.407590e-002
6.422065e+002;3.727286e-002
6.441350e+002;3.762009e-002
6.460636e+002;3.419995e-002
6.479921e+002;2.987440e-002
6.499207e+002;3.218191e-002
6.518492e+002;3.151801e-002
6.537778e+002;2.989388e-002
6.557063e+002;3.037195e-002
6.576349e+002;3.026358e-002
6.595634e+002;3.099794e-002
6.614919e+002;3.303457e-002
6.634205e+002;3.429263e-002
6.653491e+002;3.152614e-002
6.672776e+002;2.850506e-002
6.692062e+002;2.864632e-002
6.711347e+002;3.058410e-002
6.730632e+002;3.031424e-002
6.749918e+002;2.851128e-002
6.769203e+002;2.841300e-002
6.788489e+002;2.968792e-002
6.807775e+002;3.082407e-002
6.827060e+002;3.084307e-002
6.846345e+002;2.986911e-002
6.865631e+002;2.927146e-002
6.884916e+002;2.949560e-002
6.904202e+002;2.863861e-002
6.923488e+002;2.800526e-002
6.942773e+002;2.808793e-002
6.962058e+002;2.860874e-002
6.981344e+002;2.878084e-002
7.000629e+002;2.804710e-002
7.019915e+002;2.778962e-002
7.039200e+002;2.848372e-002
7.058486e+002;2.807396e-002
7.077771e+002;2.747405e-002
7.097057e+002;2.700580e-002
7.116342e+002;2.766996e-002
7.135627e+002;2.926912e-002
7.154913e+002;2.865697e-002
7.174199e+002;2.806697e-002
7.193484e+002;2.858732e-002
7.212770e+002;2.939802e-002
7.232055e+002;2.999204e-002
7.251340e+002;2.925916e-002
7.270626e+002;2.880583e-002
7.289911e+002;2.928149e-002
7.309197e+002;2.893834e-002
7.328483e+002;2.754522e-002
7.347768e+002;2.646602e-002
7.367053e+002;2.639686e-002
7.386339e+002;2.608684e-002
7.405624e+002;2.606035e-002
7.424910e+002;2.612783e-002
7.444196e+002;2.639007e-002
7.463481e+002;2.673452e-002
7.482766e+002;2.578235e-002
7.502052e+002;2.526000e-002
7.521337e+002;2.619441e-002
7.540623e+002;2.597229e-002
7.559908e+002;2.462749e-002
7.579194e+002;2.416054e-002
7.598479e+002;2.450929e-002
7.617765e+002;2.504183e-002
7.637050e+002;2.510993e-002
7.656335e+002;2.607291e-002
7.675621e+002;2.666053e-002
7.694907e+002;2.644264e-002
7.714192e+002;2.582472e-002
7.733478e+002;2.532662e-002
7.752763e+002;2.512689e-002
7.772048e+002;2.458194e-002
7.791334e+002;2.442190e-002
7.810620e+002;2.500940e-002
7.829905e+002;2.579437e-002
7.849191e+002;2.679827e-002
7.868476e+002;2.855307e-002
7.887761e+002;2.985644e-002
7.907047e+002;3.043015e-002
7.926332e+002;3.159512e-002
7.945618e+002;3.281739e-002
7.964903e+002;3.443457e-002
7.984189e+002;3.535046e-002
8.003474e+002;3.624506e-002
8.022759e+002;3.797762e-002
8.042045e+002;4.078263e-002
8.061331e+002;4.366131e-002
8.080616e+002;4.622534e-002
8.099902e+002;4.681605e-002
8.119187e+002;4.586003e-002
8.138472e+002;4.320057e-002
8.157758e+002;3.989834e-002
8.177043e+002;3.736879e-002
8.196329e+002;3.530420e-002
8.215615e+002;3.350744e-002
8.234900e+002;3.322993e-002
8.254185e+002;3.383287e-002
8.273471e+002;3.386980e-002
8.292756e+002;3.307179e-002
8.312042e+002;3.345171e-002
8.331328e+002;3.546237e-002
8.350613e+002;3.757095e-002
8.369898e+002;4.040293e-002
8.389184e+002;4.574092e-002
8.408469e+002;5.059465e-002
8.427755e+002;5.025490e-002
8.447040e+002;4.511664e-002
8.466326e+002;3.951542e-002
8.485611e+002;3.558571e-002
8.504897e+002;3.318522e-002
8.524182e+002;3.195025e-002
8.543467e+002;3.118292e-002
8.562753e+002;3.025083e-002
8.582039e+002;2.947677e-002
8.601324e+002;2.936643e-002
8.620610e+002;2.942645e-002
8.639895e+002;2.944578e-002
8.659180e+002;2.940702e-002
8.678466e+002;2.920263e-002
8.697751e+002;2.945549e-002
8.717037e+002;3.000045e-002
8.736323e+002;2.977013e-002
8.755608e+002;2.947117e-002
8.774893e+002;2.928794e-002
8.794179e+002;2.887077e-002
8.813464e+002;2.846638e-002
8.832750e+002;2.774854e-002
8.852036e+002;2.752022e-002
8.871321e+002;2.823754e-002
8.890606e+002;2.910703e-002
8.909892e+002;3.056693e-002
8.929177e+002;3.332873e-002
8.948463e+002;3.748010e-002
8.967748e+002;4.248472e-002
8.987034e+002;4.528128e-002
9.006319e+002;4.438519e-002
9.025605e+002;4.073845e-002
9.044890e+002;3.580111e-002
9.064175e+002;3.148189e-002
9.083461e+002;2.877234e-002
9.102747e+002;2.673494e-002
9.122032e+002;2.521536e-002
9.141318e+002;2.457461e-002
9.160603e+002;2.418768e-002
9.179888e+002;2.408579e-002
9.199174e+002;2.439235e-002
9.218459e+002;2.440686e-002
9.237745e+002;2.458509e-002
9.257031e+002;2.484440e-002
9.276316e+002;2.477518e-002
9.295601e+002;2.465379e-002
9.314887e+002;2.506268e-002
9.334172e+002;2.620286e-002
9.353458e+002;2.750024e-002
9.372744e+002;2.866543e-002
9.392029e+002;3.006341e-002
9.411314e+002;3.109816e-002
9.430600e+002;3.127250e-002
9.449885e+002;3.127250e-002
9.469171e+002;3.161803e-002
9.488456e+002;3.203746e-002
9.507742e+002;3.290398e-002
9.527027e+002;3.369571e-002
9.546313e+002;3.382012e-002
9.565598e+002;3.418568e-002
9.584883e+002;3.557585e-002
9.604169e+002;3.772099e-002
9.623455e+002;4.013195e-002
9.642740e+002;4.322245e-002
9.662026e+002;4.787339e-002
9.681311e+002;5.449003e-002
9.700596e+002;6.233067e-002
9.719882e+002;6.875933e-002
9.739167e+002;7.097863e-002
9.758453e+002;6.726465e-002
9.777739e+002;5.948554e-002
9.797024e+002;5.087403e-002
9.816309e+002;4.395832e-002
9.835595e+002;3.929029e-002
9.854880e+002;3.688246e-002
9.874166e+002;3.658563e-002
9.893452e+002;3.787887e-002
9.912737e+002;4.106756e-002
9.932022e+002;4.634086e-002
9.951307e+002;5.276806e-002
9.970593e+002;5.772957e-002
9.989879e+002;5.837124e-002
1.000916e+003;5.435381e-002
1.002845e+003;4.834252e-002
1.004773e+003;4.316931e-002
1.006702e+003;3.986024e-002
1.008631e+003;3.807393e-002
1.010559e+003;3.670511e-002
1.012488e+003;3.554259e-002
1.014416e+003;3.473554e-002
1.016345e+003;3.410801e-002
1.018273e+003;3.365356e-002
1.020202e+003;3.339167e-002
1.022130e+003;3.379491e-002
1.024059e+003;3.419146e-002
1.025988e+003;3.433831e-002
1.027916e+003;3.422193e-002
1.029845e+003;3.467460e-002
1.031773e+003;3.588596e-002
1.033702e+003;3.712139e-002
1.035630e+003;3.839245e-002
1.037559e+003;3.968580e-002
1.039487e+003;4.080324e-002
1.041416e+003;4.141617e-002
1.043344e+003;4.147930e-002
1.045273e+003;4.082769e-002
1.047202e+003;3.971844e-002
1.049130e+003;3.841558e-002
1.051059e+003;3.743502e-002
1.052987e+003;3.724426e-002
1.054916e+003;3.695552e-002
1.056844e+003;3.664089e-002
1.058773e+003;3.663206e-002
1.060701e+003;3.635193e-002
1.062630e+003;3.595658e-002
1.064558e+003;3.608718e-002
1.066487e+003;3.637017e-002
1.068416e+003;3.629674e-002
1.070344e+003;3.649913e-002
1.072273e+003;3.687496e-002
1.074201e+003;3.694516e-002
1.076130e+003;3.649704e-002
1.078058e+003;3.636144e-002
1.079987e+003;3.731723e-002
1.081915e+003;3.778033e-002
1.083844e+003;3.808963e-002
1.085773e+003;3.848368e-002
1.087701e+003;3.829719e-002
1.089630e+003;3.899388e-002
1.091558e+003;3.970449e-002
1.093487e+003;4.052986e-002
1.095415e+003;4.212441e-002
1.097344e+003;4.365552e-002
1.099272e+003;4.483348e-002
1.101201e+003;4.549931e-002
1.103129e+003;4.569266e-002
1.105058e+003;4.484403e-002
1.106987e+003;4.385106e-002
1.108915e+003;4.259330e-002
1.110844e+003;4.029243e-002
1.112772e+003;3.808666e-002
1.114701e+003;3.747353e-002
1.116629e+003;3.743383e-002
1.118558e+003;3.702006e-002
1.120486e+003;3.688441e-002
1.122415e+003;3.626440e-002
1.124344e+003;3.550738e-002
1.126272e+003;3.515526e-002
1.128201e+003;3.509498e-002
1.130129e+003;3.532254e-002
1.132058e+003;3.606803e-002
1.133986e+003;3.730640e-002
1.135915e+003;3.855468e-002
1.137843e+003;4.040857e-002
1.139772e+003;4.312170e-002
1.141700e+003;4.636088e-002
1.143629e+003;4.968089e-002
1.145557e+003;5.294925e-002
1.147486e+003;5.594135e-002
1.149415e+003;5.882883e-002
1.151343e+003;6.175240e-002
1.153272e+003;6.347624e-002
1.155200e+003;6.388454e-002
1.157129e+003;6.394454e-002
1.159057e+003;6.437526e-002
1.160986e+003;6.482968e-002
1.162914e+003;6.547801e-002
1.164843e+003;6.600679e-002
1.166771e+003;6.569736e-002
1.168700e+003;6.393372e-002
1.170629e+003;6.046997e-002
1.172557e+003;5.594780e-002
1.174486e+003;5.079573e-002
1.176414e+003;4.609264e-002
1.178343e+003;4.293102e-002
1.180271e+003;4.140385e-002
1.182200e+003;4.017862e-002
1.184128e+003;3.863453e-002
1.186057e+003;3.763787e-002
1.187986e+003;3.756174e-002
1.189914e+003;3.768203e-002
1.191843e+003;3.758158e-002
1.193771e+003;3.783412e-002
1.195700e+003;3.811394e-002
1.197628e+003;3.817562e-002
1.199557e+003;3.794128e-002
1.201485e+003;3.722964e-002
1.203414e+003;3.652998e-002
1.205343e+003;3.628716e-002
1.207271e+003;3.656000e-002
1.209200e+003;3.718517e-002
1.211128e+003;3.809184e-002
1.213057e+003;3.939665e-002
1.214985e+003;4.067357e-002
1.216914e+003;4.091972e-002
1.218842e+003;4.043442e-002
1.220771e+003;3.964194e-002
1.222699e+003;3.876569e-002
1.224628e+003;3.815771e-002
1.226557e+003;3.743112e-002
1.228485e+003;3.679655e-002
1.230414e+003;3.685408e-002
1.232342e+003;3.686897e-002
1.234271e+003;3.699441e-002
1.236199e+003;3.745070e-002
1.238128e+003;3.762822e-002
1.240056e+003;3.775521e-002
1.241985e+003;3.779949e-002
1.243913e+003;3.800055e-002
1.245842e+003;3.843216e-002
1.247771e+003;3.903426e-002
1.249699e+003;4.009223e-002
1.251628e+003;4.245217e-002
1.253556e+003;4.537246e-002
1.255485e+003;4.723154e-002
1.257413e+003;4.735306e-002
1.259342e+003;4.586070e-002
1.261270e+003;4.341272e-002
1.263199e+003;4.105012e-002
1.265127e+003;3.989961e-002
1.267056e+003;3.913929e-002
1.268985e+003;3.811640e-002
1.270913e+003;3.701660e-002
1.272842e+003;3.645325e-002
1.274770e+003;3.669278e-002
1.276699e+003;3.681917e-002
1.278627e+003;3.650143e-002
1.280556e+003;3.633054e-002
1.282484e+003;3.674333e-002
1.284413e+003;3.742441e-002
1.286342e+003;3.813040e-002
1.288270e+003;3.907207e-002
1.290199e+003;3.995973e-002
1.292127e+003;4.073157e-002
1.294056e+003;4.158883e-002
1.295984e+003;4.212733e-002
1.297913e+003;4.199596e-002
1.299841e+003;4.188520e-002
1.301770e+003;4.232084e-002
1.303698e+003;4.262725e-002
1.305627e+003;4.163171e-002
1.307556e+003;3.948987e-002
1.309484e+003;3.745738e-002
1.311413e+003;3.641362e-002
1.313341e+003;3.630604e-002
1.315270e+003;3.680488e-002
1.317198e+003;3.737544e-002
1.319127e+003;3.833386e-002
1.321055e+003;3.997004e-002
1.322984e+003;4.164459e-002
1.324912e+003;4.342399e-002
1.326841e+003;4.536955e-002
1.328770e+003;4.630823e-002
1.330698e+003;4.616048e-002
1.332627e+003;4.573912e-002
1.334555e+003;4.493728e-002
1.336484e+003;4.390553e-002
1.338412e+003;4.347984e-002
1.340341e+003;4.418372e-002
1.342269e+003;4.594345e-002
1.344198e+003;4.766963e-002
1.346126e+003;4.969055e-002
1.348055e+003;5.249770e-002
1.349984e+003;5.608546e-002
1.351912e+003;6.067739e-002
1.353841e+003;6.660280e-002
1.355769e+003;7.350270e-002
1.357698e+003;7.929289e-002
1.359626e+003;8.142036e-002
1.361555e+003;8.041660e-002
1.363483e+003;7.987697e-002
1.365412e+003;8.205441e-002
1.367341e+003;8.935410e-002
1.369269e+003;1.045688e-001
1.371198e+003;1.270381e-001
1.373126e+003;1.523787e-001
1.375055e+003;1.725217e-001
1.376983e+003;1.745693e-001
1.378912e+003;1.553304e-001
1.380840e+003;1.274134e-001
1.382769e+003;1.014460e-001
1.384698e+003;8.104835e-002
1.386626e+003;6.639609e-002
1.388555e+003;5.745154e-002
1.390483e+003;5.240767e-002
1.392412e+003;4.851247e-002
1.394340e+003;4.545880e-002
1.396269e+003;4.438012e-002
1.398197e+003;4.426311e-002
1.400126e+003;4.441858e-002
1.402054e+003;4.497939e-002
1.403983e+003;4.504933e-002
1.405911e+003;4.524065e-002
1.407840e+003;4.590754e-002
1.409769e+003;4.632021e-002
1.411697e+003;4.673911e-002
1.413626e+003;4.720129e-002
1.415554e+003;4.731910e-002
1.417483e+003;4.664680e-002
1.419411e+003;4.670598e-002
1.421340e+003;4.915387e-002
1.423268e+003;5.120406e-002
1.425197e+003;5.358686e-002
1.427125e+003;5.734739e-002
1.429054e+003;6.265490e-002
1.430983e+003;7.085313e-002
1.432911e+003;8.049580e-002
1.434840e+003;8.650856e-002
1.436768e+003;8.842307e-002
1.438697e+003;9.101670e-002
1.440625e+003;9.463578e-002
1.442554e+003;9.996684e-002
1.444482e+003;1.072152e-001
1.446411e+003;1.164709e-001
1.448340e+003;1.267121e-001
1.450268e+003;1.351758e-001
1.452197e+003;1.403438e-001
1.454125e+003;1.418559e-001
1.456054e+003;1.394871e-001
1.457982e+003;1.387812e-001
1.459911e+003;1.388069e-001
1.461839e+003;1.347813e-001
1.463768e+003;1.268758e-001
1.465697e+003;1.177146e-001
1.467625e+003;1.080069e-001
1.469554e+003;9.667731e-002
1.471482e+003;8.446063e-002
1.473411e+003;7.464126e-002
1.475339e+003;6.820676e-002
1.477268e+003;6.275048e-002
1.479196e+003;5.778664e-002
1.481125e+003;5.269749e-002
1.483053e+003;4.848865e-002
1.484982e+003;4.502868e-002
1.486911e+003;4.152159e-002
1.488839e+003;3.836817e-002
1.490768e+003;3.712302e-002
1.492696e+003;3.683273e-002
1.494625e+003;3.478371e-002
1.496553e+003;3.219865e-002
1.498482e+003;3.182795e-002
1.500410e+003;3.219391e-002
1.502339e+003;3.149222e-002
1.504267e+003;2.810429e-002
1.506196e+003;2.446940e-002
1.508125e+003;2.564538e-002
1.510053e+003;2.767162e-002
1.511982e+003;2.789872e-002
1.513910e+003;2.803417e-002
1.515839e+003;2.722072e-002
1.517767e+003;2.638605e-002
1.519696e+003;2.477770e-002
1.521624e+003;2.351157e-002
1.523553e+003;2.501670e-002
1.525481e+003;2.608737e-002
1.527410e+003;2.712774e-002
1.529339e+003;2.816425e-002
1.531267e+003;2.821506e-002
1.533196e+003;2.791483e-002
1.535124e+003;2.953326e-002
1.537053e+003;2.928199e-002
1.538981e+003;2.646324e-002
1.540910e+003;2.716760e-002
1.542838e+003;3.051507e-002
1.544767e+003;3.278069e-002
1.546695e+003;3.377990e-002
1.548624e+003;3.344624e-002
1.550553e+003;3.299467e-002
1.552481e+003;3.192493e-002
1.554410e+003;3.024312e-002
1.556338e+003;2.785628e-002
1.558267e+003;2.342508e-002
1.560195e+003;2.428340e-002
1.562124e+003;2.835736e-002
1.564052e+003;2.910048e-002
1.565981e+003;2.877924e-002
1.567910e+003;2.794433e-002
1.569838e+003;2.750571e-002
1.571767e+003;2.899505e-002
1.573695e+003;2.864484e-002
1.575624e+003;2.642383e-002
1.577552e+003;2.778210e-002
1.579481e+003;3.026124e-002
1.581409e+003;3.077349e-002
1.583338e+003;3.023239e-002
1.585266e+003;2.907125e-002
1.587195e+003;2.847286e-002
1.589124e+003;2.833190e-002
1.591052e+003;2.844424e-002
1.592981e+003;2.822266e-002
1.594909e+003;2.782661e-002
1.596838e+003;2.757911e-002
1.598766e+003;2.805442e-002
1.600695e+003;2.850576e-002
1.602623e+003;2.910175e-002
1.604552e+003;2.971286e-002
1.606480e+003;2.969785e-002
1.608409e+003;2.981162e-002
1.610338e+003;3.065891e-002
1.612266e+003;3.121663e-002
1.614195e+003;3.051542e-002
1.616123e+003;2.936107e-002
1.618052e+003;3.136345e-002
1.619980e+003;3.340698e-002
1.621909e+003;3.291878e-002
1.623837e+003;3.284555e-002
1.625766e+003;3.381278e-002
1.627694e+003;3.441061e-002
1.629623e+003;3.492298e-002
1.631552e+003;3.512928e-002
1.633480e+003;3.353596e-002
1.635409e+003;3.166525e-002
1.637337e+003;3.372214e-002
1.639266e+003;3.590953e-002
1.641194e+003;3.641643e-002
1.643123e+003;3.617439e-002
1.645051e+003;3.486301e-002
1.646980e+003;3.497910e-002
1.648909e+003;3.663686e-002
1.650837e+003;3.419253e-002
1.652766e+003;3.022216e-002
1.654694e+003;3.372528e-002
1.656623e+003;3.771704e-002
1.658551e+003;3.817775e-002
1.660480e+003;3.768810e-002
1.662408e+003;3.683413e-002
1.664337e+003;3.688658e-002
1.666266e+003;3.679839e-002
1.668194e+003;3.529853e-002
1.670123e+003;3.480963e-002
1.672051e+003;3.550224e-002
1.673980e+003;3.448730e-002
1.675908e+003;3.395535e-002
1.677837e+003;3.496359e-002
1.679765e+003;3.456121e-002
1.681694e+003;3.235476e-002
1.683622e+003;2.856960e-002
1.685551e+003;2.945131e-002
1.687479e+003;3.239242e-002
1.689408e+003;3.275586e-002
1.691337e+003;3.281321e-002
1.693265e+003;3.158158e-002
1.695194e+003;2.868423e-002
1.697122e+003;2.895527e-002
1.699051e+003;2.837851e-002
1.700979e+003;2.887619e-002
1.702908e+003;3.225282e-002
1.704836e+003;3.300350e-002
1.706765e+003;3.380321e-002
1.708693e+003;3.486348e-002
1.710622e+003;3.519917e-002
1.712551e+003;3.432397e-002
1.714479e+003;3.270866e-002
1.716408e+003;3.041807e-002
1.718336e+003;3.092838e-002
1.720265e+003;3.371250e-002
1.722193e+003;3.456426e-002
1.724122e+003;3.444372e-002
1.726050e+003;3.481106e-002
1.727979e+003;3.510360e-002
1.729908e+003;3.528976e-002
1.731836e+003;3.394095e-002
1.733765e+003;3.212650e-002
1.735693e+003;3.471616e-002
1.737622e+003;3.718235e-002
1.739550e+003;3.694466e-002
1.741479e+003;3.706347e-002
1.743407e+003;3.661627e-002
1.745336e+003;3.497074e-002
1.747265e+003;3.242730e-002
1.749193e+003;2.936221e-002
1.751122e+003;2.651163e-002
1.753050e+003;2.519598e-002
1.754979e+003;2.315908e-002
1.756907e+003;2.062295e-002
1.758836e+003;1.881492e-002
1.760764e+003;1.639768e-002
1.762693e+003;1.504747e-002
1.764621e+003;1.488100e-002
1.766550e+003;1.335863e-002
1.768479e+003;1.194123e-002
1.770407e+003;1.059731e-002
1.772336e+003;9.251046e-003
1.774264e+003;1.021548e-002
1.776193e+003;1.120273e-002
1.778121e+003;1.109548e-002
1.780050e+003;1.045898e-002
1.781978e+003;1.008185e-002
1.783907e+003;9.421332e-003
1.785835e+003;8.819942e-003
1.787764e+003;8.457778e-003
1.789693e+003;7.310516e-003
1.791621e+003;5.808433e-003
1.793550e+003;5.683196e-003
1.795478e+003;6.339861e-003
1.797407e+003;6.217968e-003
1.799335e+003;5.643686e-003
1.801264e+003;5.194115e-003
1.803192e+003;5.079415e-003
1.805121e+003;4.783399e-003
1.807049e+003;4.604608e-003
1.808978e+003;4.577919e-003
1.810907e+003;4.524681e-003
1.812835e+003;4.556356e-003
1.814764e+003;4.515006e-003
1.816692e+003;4.502015e-003
1.818621e+003;4.629925e-003
1.820549e+003;4.414342e-003
1.822478e+003;4.004998e-003
1.824406e+003;3.467499e-003
1.826335e+003;3.584982e-003
1.828264e+003;3.432698e-003
1.830192e+003;3.324272e-003
1.832121e+003;3.975437e-003
1.834049e+003;4.302457e-003
1.835978e+003;4.506200e-003
1.837906e+003;4.549793e-003
1.839835e+003;4.415079e-003
1.841763e+003;3.490011e-003
1.843692e+003;2.244591e-003
1.845620e+003;2.826299e-003
1.847549e+003;3.777158e-003
1.849478e+003;3.859889e-003
1.851406e+003;3.805201e-003
1.853335e+003;4.059209e-003
1.855263e+003;4.099044e-003
1.857192e+003;3.954606e-003
1.859120e+003;3.934544e-003
1.861049e+003;3.890077e-003
1.862977e+003;3.550171e-003
1.864906e+003;2.973599e-003
1.866834e+003;2.329229e-003
1.868763e+003;2.072501e-003
1.870692e+003;2.819429e-003
1.872620e+003;3.361535e-003
1.874549e+003;3.291586e-003
1.876477e+003;3.473712e-003
1.878406e+003;3.461087e-003
1.880334e+003;3.283139e-003
1.882263e+003;3.321768e-003
1.884191e+003;3.462122e-003
1.886120e+003;3.426821e-003
1.888048e+003;3.110070e-003
1.889977e+003;3.140773e-003
1.891906e+003;3.690934e-003
1.893834e+003;3.812521e-003
1.895763e+003;3.838661e-003
1.897691e+003;3.802126e-003
1.899620e+003;3.605462e-003
1.901548e+003;3.492817e-003
1.903477e+003;3.543423e-003
1.905405e+003;3.496257e-003
1.907334e+003;3.602087e-003
1.909262e+003;3.772645e-003
1.911191e+003;3.722547e-003
1.913120e+003;3.535640e-003
1.915048e+003;3.446024e-003
1.916977e+003;2.935502e-003
1.918905e+003;2.734995e-003
1.920834e+003;3.071193e-003
1.922762e+003;3.053875e-003
1.924691e+003;3.181025e-003
1.926619e+003;3.313287e-003
1.928548e+003;3.229358e-003
1.930477e+003;3.000923e-003
1.932405e+003;2.620376e-003
1.934334e+003;2.602209e-003
1.936262e+003;2.784046e-003
1.938191e+003;2.584976e-003
1.940119e+003;2.251452e-003
1.942048e+003;2.055523e-003
1.943976e+003;2.222910e-003
1.945905e+003;2.437774e-003
1.947833e+003;2.322167e-003
1.949762e+003;2.237797e-003
1.951691e+003;2.210288e-003
1.953619e+003;2.185877e-003
1.955548e+003;2.314339e-003
1.957476e+003;2.366107e-003
1.959405e+003;2.308643e-003
1.961333e+003;2.231935e-003
1.963262e+003;2.147216e-003
1.965190e+003;2.247988e-003
1.967119e+003;2.315072e-003
1.969047e+003;2.160869e-003
1.970976e+003;1.975831e-003
1.972905e+003;1.916088e-003
1.974833e+003;1.966977e-003
1.976762e+003;1.954229e-003
1.978690e+003;1.903641e-003
1.980619e+003;2.005755e-003
1.982547e+003;2.138459e-003
1.984476e+003;2.203128e-003
1.986404e+003;2.233900e-003
1.988333e+003;2.168561e-003
1.990261e+003;1.885537e-003
1.992190e+003;1.731653e-003
1.994119e+003;2.258780e-003
1.996047e+003;2.567744e-003
1.997976e+003;2.401690e-003
1.999904e+003;2.452202e-003
2.001833e+003;2.564811e-003
2.003761e+003;2.498455e-003
2.005690e+003;2.361510e-003
2.007618e+003;2.379634e-003
2.009547e+003;2.348651e-003
2.011476e+003;2.217714e-003
2.013404e+003;2.210854e-003
2.015333e+003;2.501521e-003
2.017261e+003;2.756702e-003
2.019190e+003;2.553312e-003
2.021118e+003;2.383632e-003
2.023047e+003;2.549879e-003
2.024975e+003;2.519117e-003
2.026904e+003;2.346086e-003
2.028833e+003;2.154142e-003
2.030761e+003;2.305678e-003
2.032690e+003;2.569377e-003
2.034618e+003;2.692784e-003
2.036547e+003;2.753634e-003
2.038475e+003;2.773742e-003
2.040404e+003;2.939772e-003
2.042332e+003;2.903112e-003
2.044261e+003;2.847177e-003
2.046189e+003;3.215105e-003
2.048118e+003;3.569581e-003
2.050047e+003;3.438843e-003
2.051975e+003;3.199316e-003
2.053904e+003;2.961022e-003
2.055832e+003;2.633443e-003
2.057761e+003;2.500155e-003
2.059689e+003;2.650045e-003
2.061618e+003;2.902078e-003
2.063546e+003;2.846877e-003
2.065475e+003;2.863686e-003
2.067404e+003;2.870657e-003
2.069332e+003;2.860184e-003
2.071260e+003;2.996085e-003
2.073189e+003;3.094385e-003
2.075118e+003;3.044131e-003
2.077046e+003;2.923059e-003
2.078975e+003;3.012434e-003
2.080903e+003;3.323137e-003
2.082832e+003;3.621766e-003
2.084760e+003;3.852033e-003
2.086689e+003;4.082856e-003
2.088617e+003;4.084729e-003
2.090546e+003;3.881752e-003
2.092475e+003;3.993461e-003
2.094403e+003;4.070146e-003
2.096332e+003;3.820978e-003
2.098260e+003;3.844077e-003
2.100189e+003;4.121121e-003
2.102117e+003;3.987777e-003
2.104046e+003;3.866909e-003
2.105974e+003;4.018776e-003
2.107903e+003;4.009914e-003
2.109832e+003;3.882555e-003
2.111760e+003;3.913814e-003
2.113688e+003;4.036501e-003
2.115617e+003;4.186889e-003
2.117546e+003;4.301855e-003
2.119474e+003;4.366278e-003
2.121403e+003;4.577049e-003
2.123331e+003;4.798475e-003
2.125260e+003;4.898256e-003
2.127188e+003;5.234155e-003
2.129117e+003;5.682894e-003
2.131045e+003;5.884666e-003
2.132974e+003;6.065430e-003
2.134903e+003;6.069630e-003
2.136831e+003;5.789998e-003
2.138760e+003;5.536283e-003
2.140688e+003;5.331285e-003
2.142617e+003;5.402168e-003
2.144545e+003;5.542861e-003
2.146474e+003;5.570482e-003
2.148402e+003;5.487827e-003
2.150331e+003;5.487827e-003
2.152260e+003;5.759542e-003
2.154188e+003;5.697867e-003
2.156117e+003;5.411159e-003
2.158045e+003;5.729056e-003
2.159974e+003;6.290306e-003
2.161902e+003;6.484961e-003
2.163831e+003;6.574130e-003
2.165759e+003;6.608410e-003
2.167688e+003;6.749158e-003
2.169616e+003;7.072279e-003
2.171545e+003;7.547298e-003
2.173474e+003;7.874220e-003
2.175402e+003;7.662079e-003
2.177331e+003;7.356345e-003
2.179259e+003;7.127111e-003
2.181188e+003;7.030049e-003
2.183116e+003;7.152407e-003
2.185045e+003;7.314964e-003
2.186973e+003;7.275439e-003
2.188902e+003;7.103365e-003
2.190831e+003;6.955971e-003
2.192759e+003;7.334845e-003
2.194688e+003;7.704371e-003
2.196616e+003;7.718503e-003
2.198545e+003;7.417886e-003
2.200473e+003;7.099020e-003
2.202402e+003;6.967250e-003
2.204330e+003;6.887628e-003
2.206259e+003;6.871268e-003
2.208188e+003;6.840300e-003
2.210116e+003;6.786278e-003
2.212044e+003;6.668466e-003
2.213973e+003;6.808492e-003
2.215902e+003;6.935770e-003
2.217830e+003;6.893856e-003
2.219759e+003;6.824177e-003
2.221687e+003;6.892274e-003
2.223616e+003;7.135902e-003
2.225544e+003;7.323658e-003
2.227473e+003;7.356312e-003
2.229401e+003;7.417920e-003
2.231330e+003;7.697592e-003
2.233259e+003;7.627952e-003
2.235187e+003;7.357794e-003
2.237116e+003;7.568134e-003
2.239044e+003;7.619218e-003
2.240973e+003;7.276416e-003
2.242901e+003;6.886854e-003
2.244830e+003;7.014289e-003
2.246758e+003;7.544062e-003
2.248687e+003;7.700222e-003
2.250615e+003;7.739988e-003
2.252544e+003;7.967218e-003
2.254473e+003;8.218473e-003
2.256401e+003;8.218709e-003
2.258330e+003;8.000494e-003
2.260258e+003;7.997490e-003
2.262187e+003;8.090953e-003
2.264115e+003;8.010416e-003
2.266044e+003;8.019631e-003
2.267972e+003;7.860015e-003
2.269901e+003;7.699986e-003
2.271830e+003;7.633415e-003
2.273758e+003;7.478930e-003
2.275687e+003;7.424425e-003
2.277615e+003;7.313885e-003
2.279544e+003;7.140112e-003
2.281472e+003;7.260176e-003
2.283401e+003;7.376937e-003
2.285329e+003;7.447749e-003
2.287258e+003;7.199163e-003
2.289187e+003;6.808425e-003
2.291115e+003;6.804857e-003
2.293043e+003;6.923381e-003
2.294972e+003;6.929003e-003
2.296901e+003;6.768071e-003
2.298829e+003;6.665437e-003
2.300758e+003;7.001696e-003
2.302686e+003;7.174976e-003
2.304615e+003;7.046146e-003
2.306543e+003;7.014054e-003
2.308472e+003;7.085010e-003
2.310400e+003;7.271092e-003
2.312329e+003;7.395810e-003
2.314258e+003;7.377206e-003
2.316186e+003;7.388530e-003
2.318115e+003;7.283189e-003
2.320043e+003;7.334441e-003
2.321972e+003;7.454693e-003
2.323900e+003;7.638945e-003
2.325829e+003;7.827998e-003
2.327757e+003;7.986521e-003
2.329686e+003;8.140782e-003
2.331615e+003;8.467712e-003
2.333543e+003;8.625895e-003
2.335472e+003;8.658038e-003
2.337400e+003;8.790694e-003
2.339329e+003;8.779875e-003
2.341257e+003;8.933877e-003
2.343186e+003;9.306153e-003
2.345114e+003;9.388251e-003
2.347043e+003;9.231483e-003
2.348971e+003;9.301617e-003
2.350900e+003;9.323824e-003
2.352829e+003;9.473040e-003
2.354757e+003;9.875777e-003
2.356686e+003;1.006174e-002
2.358614e+003;1.007852e-002
2.360543e+003;9.987106e-003
2.362471e+003;9.830867e-003
2.364400e+003;9.898996e-003
2.366328e+003;1.002128e-002
2.368257e+003;9.964017e-003
2.370186e+003;9.832663e-003
2.372114e+003;9.831002e-003
2.374042e+003;1.004997e-002
2.375971e+003;1.016480e-002
2.377900e+003;1.023214e-002
2.379828e+003;1.035245e-002
2.381757e+003;1.029080e-002
2.383685e+003;1.033301e-002
2.385614e+003;1.040508e-002
2.387542e+003;1.038143e-002
2.389471e+003;1.037440e-002
2.391399e+003;1.059436e-002
2.393328e+003;1.054323e-002
2.395257e+003;1.060488e-002
2.397185e+003;1.076062e-002
2.399114e+003;1.076429e-002
2.401042e+003;1.101907e-002
2.402971e+003;1.116829e-002
2.404899e+003;1.099460e-002
2.406828e+003;1.079190e-002
2.408756e+003;1.060889e-002
2.410685e+003;1.055436e-002
2.412614e+003;1.059466e-002
2.414542e+003;1.058713e-002
2.416471e+003;1.062431e-002
2.418399e+003;1.081606e-002
2.420328e+003;1.103229e-002
2.422256e+003;1.113828e-002
2.424185e+003;1.133389e-002
2.426113e+003;1.158812e-002
2.428042e+003;1.153473e-002
2.429970e+003;1.116350e-002
2.431899e+003;1.110836e-002
2.433828e+003;1.115758e-002
2.435756e+003;1.080620e-002
2.437685e+003;1.063897e-002
2.439613e+003;1.066845e-002
2.441542e+003;1.062984e-002
2.443470e+003;1.053692e-002
2.445399e+003;1.053298e-002
2.447327e+003;1.031441e-002
2.449256e+003;1.003458e-002
2.451185e+003;1.002783e-002
2.453113e+003;1.026440e-002
2.455042e+003;1.032703e-002
2.456970e+003;1.000857e-002
2.458899e+003;9.771254e-003
2.460827e+003;9.988632e-003
2.462756e+003;1.010057e-002
2.464684e+003;9.972324e-003
2.466613e+003;1.005638e-002
2.468542e+003;1.023326e-002
2.470470e+003;1.008147e-002
2.472398e+003;9.937641e-003
2.474327e+003;1.001077e-002
2.476256e+003;9.981342e-003
2.478184e+003;1.036867e-002
2.480113e+003;1.091135e-002
2.482041e+003;1.115361e-002
2.483970e+003;1.137018e-002
2.485898e+003;1.124296e-002
2.487827e+003;1.106251e-002
2.489755e+003;1.103725e-002
2.491684e+003;1.101679e-002
2.493613e+003;1.097421e-002
2.495541e+003;1.098886e-002
2.497470e+003;1.089358e-002
2.499398e+003;1.088679e-002
2.501327e+003;1.080464e-002
2.503255e+003;1.084904e-002
2.505184e+003;1.133603e-002
2.507112e+003;1.152677e-002
2.509041e+003;1.145971e-002
2.510969e+003;1.154338e-002
2.512898e+003;1.158857e-002
2.514827e+003;1.196994e-002
2.516755e+003;1.224707e-002
2.518684e+003;1.217155e-002
2.520612e+003;1.247677e-002
2.522541e+003;1.289507e-002
2.524469e+003;1.326369e-002
2.526398e+003;1.342753e-002
2.528326e+003;1.360937e-002
2.530255e+003;1.395834e-002
2.532184e+003;1.430978e-002
2.534112e+003;1.448898e-002
2.536041e+003;1.445079e-002
2.537969e+003;1.459122e-002
2.539898e+003;1.486478e-002
2.541826e+003;1.519973e-002
2.543755e+003;1.531292e-002
2.545683e+003;1.540234e-002
2.547612e+003;1.573478e-002
2.549541e+003;1.634679e-002
2.551469e+003;1.701046e-002
2.553397e+003;1.744805e-002
2.555326e+003;1.771752e-002
2.557255e+003;1.785804e-002
2.559183e+003;1.799378e-002
2.561112e+003;1.839838e-002
2.563040e+003;1.884163e-002
2.564969e+003;1.905910e-002
2.566897e+003;1.918084e-002
2.568826e+003;1.971808e-002
2.570754e+003;2.057330e-002
2.572683e+003;2.146478e-002
2.574612e+003;2.207478e-002
2.576540e+003;2.254137e-002
2.578469e+003;2.297392e-002
2.580397e+003;2.318399e-002
2.582326e+003;2.335190e-002
2.584254e+003;2.317473e-002
2.586183e+003;2.236356e-002
2.588111e+003;2.164445e-002
2.590040e+003;2.139161e-002
2.591969e+003;2.070249e-002
2.593897e+003;2.021131e-002
2.595826e+003;2.038688e-002
2.597754e+003;2.031129e-002
2.599683e+003;2.022748e-002
2.601611e+003;2.042418e-002
2.603540e+003;2.065412e-002
2.605468e+003;2.101245e-002
2.607397e+003;2.147724e-002
2.609325e+003;2.168690e-002
2.611254e+003;2.203668e-002
2.613183e+003;2.256333e-002
2.615111e+003;2.288646e-002
2.617040e+003;2.268012e-002
2.618968e+003;2.232558e-002
2.620897e+003;2.265502e-002
2.622825e+003;2.295698e-002
2.624754e+003;2.235962e-002
2.626682e+003;2.185698e-002
2.628611e+003;2.166883e-002
2.630540e+003;2.161903e-002
2.632468e+003;2.183001e-002
2.634396e+003;2.179632e-002
2.636325e+003;2.179970e-002
2.638254e+003;2.192786e-002
2.640182e+003;2.221083e-002
2.642111e+003;2.257387e-002
2.644039e+003;2.295027e-002
2.645968e+003;2.326093e-002
2.647896e+003;2.341145e-002
2.649825e+003;2.376695e-002
2.651753e+003;2.440367e-002
2.653682e+003;2.483233e-002
2.655611e+003;2.513429e-002
2.657539e+003;2.519205e-002
2.659468e+003;2.541936e-002
2.661396e+003;2.572680e-002
2.663325e+003;2.578477e-002
2.665253e+003;2.559705e-002
2.667182e+003;2.540745e-002
2.669110e+003;2.546240e-002
2.671039e+003;2.570602e-002
2.672968e+003;2.605728e-002
2.674896e+003;2.636063e-002
2.676825e+003;2.644113e-002
2.678753e+003;2.661677e-002
2.680682e+003;2.671190e-002
2.682610e+003;2.657964e-002
2.684539e+003;2.658232e-002
2.686467e+003;2.675027e-002
2.688396e+003;2.676743e-002
2.690324e+003;2.667420e-002
2.692253e+003;2.669224e-002
2.694182e+003;2.653160e-002
2.696110e+003;2.665373e-002
2.698039e+003;2.709395e-002
2.699967e+003;2.732964e-002
2.701896e+003;2.766216e-002
2.703824e+003;2.841219e-002
2.705753e+003;2.914771e-002
2.707681e+003;3.002279e-002
2.709610e+003;3.106011e-002
2.711539e+003;3.209236e-002
2.713467e+003;3.334891e-002
2.715396e+003;3.474563e-002
2.717324e+003;3.619755e-002
2.719253e+003;3.774173e-002
2.721181e+003;3.909795e-002
2.723110e+003;3.972200e-002
2.725038e+003;3.919640e-002
2.726967e+003;3.809187e-002
2.728896e+003;3.679284e-002
2.730824e+003;3.537278e-002
2.732752e+003;3.429342e-002
2.734681e+003;3.338050e-002
2.736610e+003;3.257032e-002
2.738538e+003;3.165431e-002
2.740467e+003;3.066808e-002
2.742395e+003;2.982514e-002
2.744324e+003;2.912705e-002
2.746252e+003;2.864491e-002
2.748181e+003;2.855696e-002
2.750109e+003;2.855721e-002
2.752038e+003;2.861220e-002
2.753967e+003;2.879985e-002
2.755895e+003;2.908988e-002
2.757824e+003;2.931995e-002
2.759752e+003;2.931708e-002
2.761681e+003;2.959774e-002
2.763609e+003;2.995483e-002
2.765538e+003;2.999115e-002
2.767466e+003;3.029101e-002
2.769395e+003;3.132502e-002
2.771323e+003;3.205990e-002
2.773252e+003;3.238257e-002
2.775181e+003;3.298856e-002
2.777109e+003;3.369997e-002
2.779038e+003;3.452389e-002
2.780966e+003;3.555312e-002
2.782895e+003;3.680636e-002
2.784823e+003;3.817649e-002
2.786752e+003;3.965563e-002
2.788680e+003;4.123127e-002
2.790609e+003;4.290630e-002
2.792538e+003;4.473103e-002
2.794466e+003;4.618487e-002
2.796395e+003;4.704094e-002
2.798323e+003;4.807613e-002
2.800252e+003;4.930254e-002
2.802180e+003;5.099780e-002
2.804109e+003;5.332638e-002
2.806037e+003;5.563553e-002
2.807966e+003;5.773191e-002
2.809895e+003;5.955052e-002
2.811823e+003;6.123186e-002
2.813751e+003;6.302094e-002
2.815680e+003;6.494918e-002
2.817609e+003;6.682383e-002
2.819537e+003;6.894426e-002
2.821466e+003;7.155783e-002
2.823394e+003;7.475526e-002
2.825323e+003;7.912502e-002
2.827251e+003;8.514549e-002
2.829180e+003;9.245705e-002
2.831108e+003;1.007756e-001
2.833037e+003;1.096596e-001
2.834966e+003;1.171491e-001
2.836894e+003;1.213562e-001
2.838823e+003;1.213844e-001
2.840751e+003;1.188360e-001
2.842680e+003;1.152221e-001
2.844608e+003;1.108593e-001
2.846537e+003;1.062569e-001
2.848465e+003;1.029812e-001
2.850394e+003;1.011782e-001
2.852323e+003;9.993060e-002
2.854251e+003;9.917661e-002
2.856180e+003;9.983189e-002
2.858108e+003;1.027170e-001
2.860037e+003;1.078296e-001
2.861965e+003;1.143980e-001
2.863894e+003;1.217053e-001
2.865822e+003;1.277821e-001
2.867751e+003;1.313365e-001
2.869679e+003;1.324859e-001
2.871608e+003;1.325587e-001
2.873536e+003;1.324170e-001
2.875465e+003;1.320612e-001
2.877394e+003;1.313462e-001
2.879322e+003;1.298492e-001
2.881251e+003;1.282130e-001
2.883179e+003;1.272783e-001
2.885108e+003;1.271015e-001
2.887036e+003;1.278070e-001
2.888965e+003;1.294069e-001
2.890893e+003;1.316732e-001
2.892822e+003;1.349310e-001
2.894750e+003;1.386088e-001
2.896679e+003;1.431095e-001
2.898608e+003;1.484425e-001
2.900536e+003;1.540778e-001
2.902465e+003;1.599303e-001
2.904393e+003;1.658657e-001
2.906322e+003;1.716359e-001
2.908250e+003;1.764451e-001
2.910179e+003;1.806792e-001
2.912107e+003;1.845461e-001
2.914036e+003;1.879818e-001
2.915965e+003;1.897492e-001
2.917893e+003;1.892196e-001
2.919822e+003;1.871144e-001
2.921750e+003;1.837962e-001
2.923679e+003;1.782729e-001
2.925607e+003;1.711046e-001
2.927536e+003;1.630929e-001
2.929464e+003;1.546000e-001
2.931393e+003;1.461684e-001
2.933322e+003;1.379979e-001
2.935250e+003;1.304427e-001
2.937178e+003;1.248580e-001
2.939107e+003;1.223726e-001
2.941036e+003;1.230048e-001
2.942964e+003;1.270731e-001
2.944893e+003;1.343089e-001
2.946821e+003;1.427668e-001
2.948750e+003;1.500749e-001
2.950678e+003;1.538628e-001
2.952607e+003;1.541100e-001
2.954535e+003;1.519853e-001
2.956464e+003;1.478182e-001
2.958393e+003;1.424167e-001
2.960321e+003;1.363192e-001
2.962250e+003;1.291943e-001
2.964178e+003;1.216054e-001
2.966107e+003;1.143263e-001
2.968035e+003;1.067330e-001
2.969964e+003;9.934926e-002
2.971892e+003;9.252146e-002
2.973821e+003;8.630209e-002
2.975750e+003;8.124047e-002
2.977678e+003;7.699544e-002
2.979607e+003;7.297847e-002
2.981535e+003;6.910592e-002
2.983464e+003;6.580070e-002
2.985392e+003;6.283560e-002
2.987321e+003;6.034412e-002
2.989249e+003;5.806379e-002
2.991178e+003;5.588863e-002
2.993106e+003;5.404566e-002
2.995035e+003;5.203874e-002
2.996964e+003;4.989686e-002
2.998892e+003;4.810937e-002
3.000821e+003;4.642665e-002
3.002749e+003;4.467444e-002
3.004678e+003;4.303781e-002
3.006606e+003;4.116212e-002
3.008535e+003;3.946694e-002
3.010463e+003;3.811401e-002
3.012392e+003;3.665679e-002
3.014321e+003;3.542912e-002
3.016249e+003;3.439236e-002
3.018177e+003;3.311395e-002
3.020106e+003;3.189987e-002
3.022035e+003;3.118217e-002
3.023963e+003;3.038083e-002
3.025892e+003;2.920675e-002
3.027820e+003;2.851273e-002
3.029749e+003;2.785247e-002
3.031677e+003;2.704307e-002
3.033606e+003;2.663597e-002
3.035534e+003;2.637577e-002
3.037463e+003;2.584969e-002
3.039392e+003;2.527794e-002
3.041320e+003;2.484047e-002
3.043249e+003;2.469468e-002
3.045177e+003;2.431382e-002
3.047106e+003;2.407167e-002
3.049034e+003;2.405973e-002
3.050963e+003;2.391942e-002
3.052891e+003;2.357786e-002
3.054820e+003;2.316002e-002
3.056749e+003;2.276126e-002
3.058677e+003;2.260325e-002
3.060606e+003;2.265684e-002
3.062534e+003;2.250138e-002
3.064463e+003;2.222453e-002
3.066391e+003;2.208635e-002
3.068320e+003;2.193473e-002
3.070248e+003;2.180548e-002
3.072177e+003;2.192378e-002
3.074105e+003;2.210500e-002
3.076034e+003;2.159893e-002
3.077963e+003;2.132471e-002
3.079891e+003;2.140734e-002
3.081820e+003;2.116135e-002
3.083748e+003;2.132036e-002
3.085677e+003;2.145252e-002
3.087605e+003;2.117252e-002
3.089534e+003;2.101749e-002
3.091462e+003;2.077436e-002
3.093391e+003;2.060016e-002
3.095320e+003;2.048903e-002
3.097248e+003;2.054259e-002
3.099177e+003;2.066611e-002
3.101105e+003;2.072904e-002
3.103034e+003;2.079633e-002
3.104962e+003;2.124875e-002
3.106891e+003;2.141994e-002
3.108819e+003;2.109094e-002
3.110748e+003;2.088525e-002
3.112677e+003;2.072574e-002
3.114605e+003;2.072730e-002
3.116533e+003;2.086432e-002
3.118462e+003;2.098908e-002
3.120391e+003;2.093521e-002
3.122319e+003;2.091348e-002
3.124248e+003;2.078712e-002
3.126176e+003;2.078795e-002
3.128105e+003;2.112876e-002
3.130033e+003;2.132089e-002
3.131962e+003;2.153970e-002
3.133890e+003;2.226970e-002
3.135819e+003;2.261170e-002
3.137748e+003;2.243404e-002
3.139676e+003;2.232446e-002
3.141605e+003;2.238020e-002
3.143533e+003;2.289994e-002
3.145462e+003;2.332662e-002
3.147390e+003;2.312277e-002
3.149319e+003;2.270861e-002
3.151247e+003;2.278019e-002
3.153176e+003;2.271391e-002
3.155104e+003;2.254322e-002
3.157033e+003;2.249559e-002
3.158962e+003;2.282342e-002
3.160890e+003;2.331277e-002
3.162819e+003;2.316851e-002
3.164747e+003;2.278546e-002
3.166676e+003;2.305197e-002
3.168604e+003;2.334843e-002
3.170533e+003;2.337634e-002
3.172461e+003;2.343124e-002
3.174390e+003;2.382746e-002
3.176319e+003;2.393914e-002
3.178247e+003;2.372814e-002
3.180176e+003;2.381395e-002
3.182104e+003;2.400037e-002
3.184033e+003;2.415581e-002
3.185961e+003;2.436740e-002
3.187890e+003;2.426059e-002
3.189818e+003;2.416870e-002
3.191747e+003;2.436120e-002
3.193676e+003;2.429381e-002
3.195604e+003;2.423757e-002
3.197532e+003;2.424994e-002
3.199461e+003;2.431200e-002
3.201390e+003;2.451918e-002
3.203318e+003;2.446109e-002
3.205247e+003;2.444749e-002
3.207175e+003;2.428368e-002
3.209104e+003;2.433463e-002
3.211032e+003;2.456980e-002
3.212961e+003;2.464453e-002
3.214889e+003;2.455746e-002
3.216818e+003;2.433306e-002
3.218747e+003;2.409931e-002
3.220675e+003;2.401501e-002
3.222604e+003;2.394295e-002
3.224532e+003;2.385459e-002
3.226461e+003;2.383145e-002
3.228389e+003;2.368845e-002
3.230318e+003;2.380170e-002
3.232246e+003;2.364909e-002
3.234175e+003;2.291775e-002
3.236104e+003;2.260577e-002
3.238032e+003;2.265317e-002
3.239961e+003;2.246854e-002
3.241889e+003;2.233220e-002
3.243818e+003;2.239123e-002
3.245746e+003;2.239590e-002
3.247675e+003;2.209946e-002
3.249603e+003;2.221909e-002
3.251532e+003;2.265446e-002
3.253460e+003;2.290200e-002
3.255389e+003;2.294978e-002
3.257318e+003;2.276615e-002
3.259246e+003;2.236109e-002
3.261175e+003;2.217251e-002
3.263103e+003;2.244095e-002
3.265032e+003;2.314555e-002
3.266960e+003;2.323027e-002
3.268889e+003;2.249852e-002
3.270817e+003;2.238282e-002
3.272746e+003;2.239105e-002
3.274675e+003;2.249709e-002
3.276603e+003;2.300044e-002
3.278531e+003;2.325729e-002
3.280460e+003;2.283651e-002
3.282389e+003;2.274317e-002
3.284317e+003;2.312025e-002
3.286246e+003;2.353487e-002
3.288174e+003;2.339651e-002
3.290103e+003;2.277694e-002
3.292031e+003;2.267492e-002
3.293960e+003;2.298217e-002
3.295888e+003;2.317445e-002
3.297817e+003;2.339826e-002
3.299746e+003;2.324943e-002
3.301674e+003;2.294569e-002
3.303603e+003;2.288879e-002
3.305531e+003;2.298258e-002
3.307460e+003;2.275309e-002
3.309388e+003;2.281308e-002
3.311317e+003;2.292261e-002
3.313245e+003;2.268099e-002
3.315174e+003;2.230646e-002
3.317103e+003;2.248896e-002
3.319031e+003;2.224720e-002
3.320960e+003;2.208590e-002
3.322888e+003;2.244279e-002
3.324817e+003;2.250445e-002
3.326745e+003;2.252159e-002
3.328674e+003;2.288677e-002
3.330602e+003;2.293644e-002
3.332531e+003;2.254556e-002
3.334459e+003;2.232568e-002
3.336388e+003;2.236681e-002
3.338317e+003;2.246781e-002
3.340245e+003;2.251478e-002
3.342174e+003;2.263425e-002
3.344102e+003;2.246404e-002
3.346031e+003;2.235397e-002
3.347959e+003;2.198910e-002
3.349888e+003;2.168489e-002
3.351816e+003;2.223249e-002
3.353745e+003;2.269077e-002
3.355674e+003;2.218673e-002
3.357602e+003;2.175413e-002
3.359531e+003;2.195076e-002
3.361459e+003;2.195741e-002
3.363388e+003;2.164138e-002
3.365316e+003;2.172410e-002
3.367245e+003;2.172334e-002
3.369173e+003;2.150735e-002
3.371102e+003;2.146878e-002
3.373031e+003;2.182730e-002
3.374959e+003;2.175163e-002
3.376887e+003;2.123177e-002
3.378816e+003;2.099993e-002
3.380745e+003;2.099485e-002
3.382673e+003;2.069130e-002
3.384602e+003;2.080436e-002
3.386530e+003;2.138444e-002
3.388459e+003;2.155140e-002
3.390387e+003;2.131170e-002
3.392316e+003;2.089478e-002
3.394244e+003;2.089370e-002
3.396173e+003;2.093772e-002
3.398102e+003;2.070836e-002
3.400030e+003;2.046895e-002
3.401959e+003;2.055405e-002
3.403887e+003;2.032955e-002
3.405816e+003;1.994618e-002
3.407744e+003;1.991878e-002
3.409673e+003;1.986494e-002
3.411601e+003;1.984275e-002
3.413530e+003;2.019520e-002
3.415458e+003;2.019596e-002
3.417387e+003;1.954430e-002
3.419316e+003;1.917180e-002
3.421244e+003;1.937564e-002
3.423173e+003;1.940568e-002
3.425101e+003;1.902174e-002
3.427030e+003;1.904740e-002
3.428958e+003;1.924969e-002
3.430887e+003;1.901174e-002
3.432815e+003;1.820467e-002
3.434744e+003;1.785880e-002
3.436673e+003;1.808735e-002
3.438601e+003;1.814960e-002
3.440530e+003;1.780705e-002
3.442458e+003;1.726734e-002
3.444387e+003;1.719274e-002
3.446315e+003;1.695226e-002
3.448244e+003;1.689583e-002
3.450172e+003;1.681065e-002
3.452101e+003;1.641461e-002
3.454030e+003;1.638622e-002
3.455958e+003;1.636981e-002
3.457886e+003;1.600147e-002
3.459815e+003;1.635113e-002
3.461744e+003;1.676825e-002
3.463672e+003;1.659238e-002
3.465601e+003;1.602196e-002
3.467529e+003;1.570496e-002
3.469458e+003;1.579398e-002
3.471386e+003;1.558735e-002
3.473315e+003;1.527705e-002
3.475243e+003;1.491927e-002
3.477172e+003;1.459962e-002
3.479101e+003;1.471610e-002
3.481029e+003;1.482762e-002
3.482958e+003;1.449025e-002
3.484886e+003;1.409002e-002
3.486815e+003;1.400252e-002
3.488743e+003;1.392567e-002
3.490672e+003;1.378326e-002
3.492600e+003;1.401271e-002
3.494529e+003;1.356948e-002
3.496458e+003;1.312676e-002
3.498386e+003;1.337914e-002
3.500315e+003;1.309654e-002
3.502243e+003;1.226432e-002
3.504172e+003;1.222223e-002
3.506100e+003;1.259392e-002
3.508029e+003;1.263714e-002
3.509957e+003;1.265293e-002
3.511886e+003;1.238482e-002
3.513814e+003;1.220730e-002
3.515743e+003;1.215605e-002
3.517672e+003;1.212000e-002
3.519600e+003;1.200686e-002
3.521529e+003;1.169057e-002
3.523457e+003;1.121695e-002
3.525386e+003;1.141457e-002
3.527314e+003;1.161457e-002
3.529243e+003;1.154334e-002
3.531171e+003;1.138205e-002
3.533100e+003;1.083375e-002
3.535029e+003;1.058421e-002
3.536957e+003;1.097591e-002
3.538885e+003;1.101367e-002
3.540814e+003;1.043125e-002
3.542743e+003;9.965034e-003
3.544671e+003;9.985580e-003
3.546600e+003;9.910149e-003
3.548528e+003;9.671634e-003
3.550457e+003;9.560013e-003
3.552385e+003;9.506567e-003
3.554314e+003;9.375555e-003
3.556242e+003;9.318882e-003
3.558171e+003;9.326600e-003
3.560100e+003;8.916289e-003
3.562028e+003;8.323062e-003
3.563957e+003;7.628626e-003
3.565885e+003;6.448573e-003
3.567814e+003;6.333977e-003
3.569742e+003;7.166352e-003
3.571671e+003;7.333902e-003
3.573599e+003;6.963647e-003
3.575528e+003;7.113301e-003
3.577457e+003;7.212066e-003
3.579385e+003;7.152171e-003
3.581314e+003;7.163523e-003
3.583242e+003;6.588629e-003
3.585171e+003;5.457561e-003
3.587099e+003;4.936694e-003
3.589028e+003;5.530209e-003
3.590956e+003;6.200187e-003
3.592885e+003;5.759878e-003
3.594813e+003;5.416930e-003
3.596742e+003;5.975694e-003
3.598671e+003;5.802220e-003
3.600599e+003;5.341785e-003
3.602528e+003;5.466889e-003
3.604456e+003;5.225838e-003
3.606385e+003;4.432016e-003
3.608313e+003;3.235167e-003
3.610242e+003;2.583009e-003
3.612170e+003;2.806389e-003
3.614099e+003;3.644286e-003
3.616028e+003;3.726257e-003
3.617956e+003;2.699019e-003
3.619885e+003;2.881397e-003
3.621813e+003;4.206728e-003
3.623742e+003;4.456520e-003
3.625670e+003;3.469537e-003
3.627599e+003;8.364122e-004
3.629527e+003;4.229963e-004
3.631456e+003;2.694151e-003
3.633385e+003;3.785982e-003
3.635313e+003;4.084863e-003
3.637241e+003;3.998511e-003
3.639170e+003;3.886901e-003
3.641099e+003;3.811986e-003
3.643027e+003;3.262808e-003
3.644956e+003;1.999930e-003
3.646884e+003;1.817782e-004
3.648813e+003;-6.984668e-004
3.650741e+003;5.638765e-004
3.652670e+003;1.955194e-003
3.654598e+003;1.416967e-003
3.656527e+003;1.330379e-003
3.658456e+003;2.268139e-003
3.660384e+003;2.308809e-003
3.662313e+003;2.343754e-003
3.664241e+003;2.649745e-003
3.666170e+003;2.402422e-003
3.668098e+003;8.761852e-004
3.670027e+003;-3.345249e-004
3.671955e+003;5.026691e-004
3.673884e+003;-3.649837e-004
3.675813e+003;-5.359105e-004
3.677741e+003;2.271237e-003
3.679669e+003;3.121483e-003
3.681598e+003;2.767840e-003
3.683527e+003;2.986443e-003
3.685455e+003;2.850412e-003
3.687384e+003;7.469863e-004
3.689312e+003;2.579588e-004
3.691241e+003;1.451474e-003
3.693169e+003;2.837905e-003
3.695098e+003;3.922073e-003
3.697026e+003;4.266486e-003
3.698955e+003;3.879680e-003
3.700884e+003;2.622743e-003
3.702812e+003;2.575276e-003
3.704741e+003;3.205491e-003
3.706669e+003;2.757236e-003
3.708598e+003;2.007486e-003
3.710526e+003;1.482526e-003
3.712455e+003;1.631765e-003
3.714383e+003;2.318003e-003
3.716312e+003;2.234999e-003
3.718240e+003;2.869890e-003
3.720169e+003;3.396330e-003
3.722098e+003;3.063318e-003
3.724026e+003;2.679449e-003
3.725955e+003;2.273002e-003
3.727883e+003;2.249720e-003
3.729812e+003;1.922678e-003
3.731740e+003;9.008542e-004
3.733669e+003;3.321300e-004
3.735597e+003;-2.601237e-004
3.737526e+003;1.091248e-003
3.739455e+003;2.754635e-003
3.741383e+003;1.941215e-003
3.743312e+003;-1.766324e-003
3.745240e+003;-1.597796e-003
3.747169e+003;2.154910e-004
3.749097e+003;-1.338010e-003
3.751026e+003;-1.645100e-003
3.752954e+003;4.914569e-004
3.754883e+003;2.807423e-003
3.756812e+003;2.757969e-003
3.758740e+003;2.614509e-003
3.760668e+003;3.349481e-003
3.762597e+003;4.425321e-003
3.764526e+003;4.313200e-003
3.766454e+003;3.765460e-003
3.768383e+003;2.694185e-003
3.770311e+003;2.433109e-003
3.772240e+003;3.364607e-003
3.774168e+003;3.872926e-003
3.776097e+003;3.906860e-003
3.778025e+003;3.650535e-003
3.779954e+003;3.355758e-003
3.781883e+003;3.460686e-003
3.783811e+003;3.397199e-003
3.785740e+003;3.886834e-003
3.787668e+003;4.245807e-003
3.789597e+003;4.383013e-003
3.791525e+003;4.070447e-003
3.793454e+003;3.635131e-003
3.795382e+003;3.169043e-003
3.797311e+003;3.146047e-003
3.799240e+003;1.976030e-003
3.801168e+003;7.170489e-004
3.803097e+003;2.032086e-003
3.805025e+003;2.009084e-003
3.806954e+003;1.519897e-003
3.808882e+003;3.254295e-003
3.810811e+003;3.799585e-003
3.812739e+003;2.964858e-003
3.814668e+003;1.054013e-003
3.816596e+003;1.178917e-003
3.818525e+003;1.936356e-003
3.820454e+003;1.178851e-003
3.822382e+003;2.493323e-003
3.824311e+003;3.774785e-003
3.826239e+003;3.657919e-003
3.828168e+003;3.513059e-003
3.830096e+003;2.911050e-003
3.832025e+003;2.498088e-003
3.833953e+003;2.600509e-003
3.835882e+003;1.410717e-003
3.837811e+003;9.841924e-005
3.839739e+003;9.733420e-004
3.841667e+003;2.007386e-003
3.843596e+003;2.594542e-003
3.845525e+003;2.771708e-003
3.847453e+003;3.023745e-003
3.849382e+003;2.495422e-003
3.851310e+003;-7.482506e-004
3.853239e+003;-2.963908e-003
3.855167e+003;2.993698e-004
3.857096e+003;3.576529e-003
3.859024e+003;3.492817e-003
3.860953e+003;3.020708e-003
3.862882e+003;3.100192e-003
3.864810e+003;2.731928e-003
3.866739e+003;3.204891e-003
3.868667e+003;2.558111e-003
3.870596e+003;2.344453e-003
3.872524e+003;3.404178e-003
3.874453e+003;3.933073e-003
3.876381e+003;4.216999e-003
3.878310e+003;3.133698e-003
3.880239e+003;2.606875e-003
3.882167e+003;3.437908e-003
3.884096e+003;2.736362e-003
3.886024e+003;2.640277e-003
3.887953e+003;3.642415e-003
3.889881e+003;2.706054e-003
3.891810e+003;2.611376e-003
3.893738e+003;4.064895e-003
3.895667e+003;4.761725e-003
3.897595e+003;4.424116e-003
3.899524e+003;3.670684e-003
3.901453e+003;2.585376e-003
3.903381e+003;2.392094e-003
3.905310e+003;3.833747e-003
3.907238e+003;4.542327e-003
3.909167e+003;4.293590e-003
3.911095e+003;4.540753e-003
3.913024e+003;5.005870e-003
3.914952e+003;4.638766e-003
3.916881e+003;3.640210e-003
3.918810e+003;3.411392e-003
3.920738e+003;4.106972e-003
3.922667e+003;4.527762e-003
3.924595e+003;4.601393e-003
3.926524e+003;4.851211e-003
3.928452e+003;4.799715e-003
3.930381e+003;5.116259e-003
3.932309e+003;5.621230e-003
3.934238e+003;5.482894e-003
3.936167e+003;5.346682e-003
3.938095e+003;5.646069e-003
3.940023e+003;5.604279e-003
3.941952e+003;5.083002e-003
3.943881e+003;5.316091e-003
3.945809e+003;5.568199e-003
3.947738e+003;4.974531e-003
3.949666e+003;4.133364e-003
3.951595e+003;4.560072e-003
3.953523e+003;5.184156e-003
3.955452e+003;4.934549e-003
3.957380e+003;4.973090e-003
3.959309e+003;5.216951e-003
3.961238e+003;5.532457e-003
3.963166e+003;5.264774e-003
3.965095e+003;4.939207e-003
3.967023e+003;4.961460e-003
3.968952e+003;4.869070e-003
3.970880e+003;4.737975e-003
3.972809e+003;4.838814e-003
3.974737e+003;5.408643e-003
3.976666e+003;5.880367e-003
3.978594e+003;5.782274e-003
3.980523e+003;6.126251e-003
3.982452e+003;6.673277e-003
3.984380e+003;7.281133e-003
3.986309e+003;7.532464e-003
3.988237e+003;6.995332e-003
3.990166e+003;6.889682e-003
3.992094e+003;7.140718e-003
3.994023e+003;7.006478e-003
3.995951e+003;7.030891e-003
3.997880e+003;7.315739e-003
3.999809e+003;7.146680e-003
4.001737e+003;0.000000e+000
