3.992094e+002;0.000000e+000
4.011380e+002;0.000000e+000
4.030665e+002;0.000000e+000
4.049951e+002;0.000000e+000
4.069236e+002;0.000000e+000
4.088522e+002;0.000000e+000
4.107807e+002;0.000000e+000
4.127093e+002;0.000000e+000
4.146378e+002;0.000000e+000
4.165664e+002;0.000000e+000
4.184949e+002;0.000000e+000
4.204235e+002;0.000000e+000
4.223520e+002;0.000000e+000
4.242806e+002;0.000000e+000
4.262091e+002;0.000000e+000
4.281377e+002;0.000000e+000
4.300662e+002;0.000000e+000
4.319948e+002;0.000000e+000
4.339233e+002;0.000000e+000
4.358519e+002;0.000000e+000
4.377804e+002;0.000000e+000
4.397090e+002;0.000000e+000
4.416375e+002;0.000000e+000
4.435660e+002;0.000000e+000
4.454946e+002;0.000000e+000
4.474232e+002;0.000000e+000
4.493517e+002;0.000000e+000
4.512802e+002;0.000000e+000
4.532088e+002;0.000000e+000
4.551373e+002;0.000000e+000
4.570659e+002;0.000000e+000
4.589944e+002;0.000000e+000
4.609230e+002;0.000000e+000
4.628515e+002;0.000000e+000
4.647801e+002;0.000000e+000
4.667086e+002;0.000000e+000
4.686372e+002;0.000000e+000
4.705657e+002;0.000000e+000
4.724943e+002;0.000000e+000
4.744228e+002;0.000000e+000
4.763513e+002;0.000000e+000
4.782799e+002;0.000000e+000
4.802085e+002;0.000000e+000
4.821370e+002;0.000000e+000
4.840656e+002;0.000000e+000
4.859941e+002;0.000000e+000
4.879226e+002;0.000000e+000
4.898512e+002;0.000000e+000
4.917798e+002;0.000000e+000
4.937083e+002;0.000000e+000
4.956368e+002;0.000000e+000
4.975654e+002;0.000000e+000
4.994939e+002;0.000000e+000
5.014225e+002;0.000000e+000
5.033510e+002;0.000000e+000
5.052796e+002;0.000000e+000
5.072081e+002;0.000000e+000
5.091367e+002;0.000000e+000
5.110652e+002;0.000000e+000
5.129938e+002;0.000000e+000
5.149223e+002;0.000000e+000
5.168509e+002;0.000000e+000
5.187794e+002;0.000000e+000
5.207079e+002;0.000000e+000
5.226365e+002;0.000000e+000
5.245651e+002;0.000000e+000
5.264936e+002;0.000000e+000
5.284222e+002;0.000000e+000
5.303507e+002;0.000000e+000
5.322792e+002;0.000000e+000
5.342078e+002;0.000000e+000
5.361364e+002;0.000000e+000
5.380649e+002;0.000000e+000
5.399935e+002;0.000000e+000
5.419220e+002;0.000000e+000
5.438505e+002;0.000000e+000
5.457791e+002;0.000000e+000
5.477076e+002;0.000000e+000
5.496362e+002;0.000000e+000
5.515648e+002;0.000000e+000
5.534933e+002;0.000000e+000
5.554218e+002;0.000000e+000
5.573504e+002;0.000000e+000
5.592789e+002;0.000000e+000
5.612075e+002;0.000000e+000
5.631360e+002;0.000000e+000
5.650646e+002;0.000000e+000
5.669931e+002;0.000000e+000
5.689217e+002;0.000000e+000
5.708502e+002;0.000000e+000
5.727787e+002;0.000000e+000
5.747073e+002;0.000000e+000
5.766359e+002;0.000000e+000
5.785644e+002;0.000000e+000
5.804930e+002;0.000000e+000
5.824215e+002;0.000000e+000
5.843500e+002;0.000000e+000
5.862786e+002;0.000000e+000
5.882072e+002;0.000000e+000
5.901357e+002;0.000000e+000
5.920643e+002;0.000000e+000
5.939928e+002;0.000000e+000
5.959213e+002;0.000000e+000
5.978499e+002;0.000000e+000
5.997784e+002;3.786561e-002
6.017070e+002;3.550605e-002
6.036355e+002;3.635017e-002
6.055641e+002;3.773656e-002
6.074926e+002;3.499125e-002
6.094211e+002;3.318583e-002
6.113497e+002;3.569793e-002
6.132783e+002;3.737475e-002
6.152068e+002;3.281675e-002
6.171354e+002;2.943847e-002
6.190639e+002;3.289258e-002
6.209924e+002;3.217021e-002
6.229210e+002;3.224462e-002
6.248495e+002;3.342459e-002
6.267781e+002;3.267626e-002
6.287067e+002;3.299528e-002
6.306352e+002;3.184099e-002
6.325637e+002;3.026458e-002
6.344923e+002;3.362686e-002
6.364208e+002;3.496047e-002
6.383494e+002;3.635770e-002
6.402780e+002;3.564419e-002
6.422065e+002;3.280466e-002
6.441350e+002;3.531754e-002
6.460636e+002;3.817446e-002
6.479921e+002;3.694072e-002
6.499207e+002;3.622165e-002
6.518492e+002;3.410514e-002
6.537778e+002;3.186956e-002
6.557063e+002;3.127642e-002
6.576349e+002;3.145916e-002
6.595634e+002;2.930528e-002
6.614919e+002;3.021115e-002
6.634205e+002;3.119303e-002
6.653491e+002;3.097986e-002
6.672776e+002;3.026784e-002
6.692062e+002;2.854086e-002
6.711347e+002;2.833925e-002
6.730632e+002;2.924194e-002
6.749918e+002;3.030952e-002
6.769203e+002;3.097164e-002
6.788489e+002;3.114013e-002
6.807775e+002;3.023534e-002
6.827060e+002;2.926023e-002
6.846345e+002;2.990925e-002
6.865631e+002;3.007090e-002
6.884916e+002;2.915107e-002
6.904202e+002;2.849112e-002
6.923488e+002;2.837101e-002
6.942773e+002;2.863404e-002
6.962058e+002;2.887761e-002
6.981344e+002;2.850495e-002
7.000629e+002;2.904177e-002
7.019915e+002;3.078850e-002
7.039200e+002;3.309778e-002
7.058486e+002;3.451126e-002
7.077771e+002;3.785516e-002
7.097057e+002;4.537125e-002
7.116342e+002;5.517644e-002
7.135627e+002;6.114969e-002
7.154913e+002;6.040184e-002
7.174199e+002;5.524854e-002
7.193484e+002;4.853889e-002
7.212770e+002;4.236975e-002
7.232055e+002;3.814306e-002
7.251340e+002;3.603307e-002
7.270626e+002;3.463886e-002
7.289911e+002;3.369521e-002
7.309197e+002;3.288675e-002
7.328483e+002;3.124141e-002
7.347768e+002;2.957032e-002
7.367053e+002;2.870448e-002
7.386339e+002;2.837137e-002
7.405624e+002;2.822043e-002
7.424910e+002;2.778069e-002
7.444196e+002;2.671785e-002
7.463481e+002;2.692298e-002
7.482766e+002;2.663347e-002
7.502052e+002;2.596434e-002
7.521337e+002;2.533639e-002
7.540623e+002;2.498213e-002
7.559908e+002;2.468812e-002
7.579194e+002;2.460136e-002
7.598479e+002;2.520704e-002
7.617765e+002;2.555963e-002
7.637050e+002;2.612526e-002
7.656335e+002;2.598330e-002
7.675621e+002;2.562482e-002
7.694907e+002;2.581378e-002
7.714192e+002;2.504520e-002
7.733478e+002;2.446438e-002
7.752763e+002;2.469352e-002
7.772048e+002;2.479009e-002
7.791334e+002;2.501364e-002
7.810620e+002;2.537359e-002
7.829905e+002;2.579620e-002
7.849191e+002;2.659472e-002
7.868476e+002;2.747864e-002
7.887761e+002;2.862459e-002
7.907047e+002;2.877981e-002
7.926332e+002;2.946851e-002
7.945618e+002;3.070802e-002
7.964903e+002;3.129970e-002
7.984189e+002;3.141723e-002
8.003474e+002;3.210941e-002
8.022759e+002;3.391845e-002
8.042045e+002;3.720737e-002
8.061331e+002;4.113913e-002
8.080616e+002;4.524231e-002
8.099902e+002;4.747025e-002
8.119187e+002;4.683159e-002
8.138472e+002;4.403679e-002
8.157758e+002;4.033104e-002
8.177043e+002;3.728329e-002
8.196329e+002;3.591842e-002
8.215615e+002;3.481315e-002
8.234900e+002;3.415786e-002
8.254185e+002;3.444114e-002
8.273471e+002;3.504724e-002
8.292756e+002;3.623587e-002
8.312042e+002;3.729549e-002
8.331328e+002;3.858886e-002
8.350613e+002;4.180661e-002
8.369898e+002;4.677597e-002
8.389184e+002;5.246880e-002
8.408469e+002;5.595842e-002
8.427755e+002;5.403016e-002
8.447040e+002;4.957358e-002
8.466326e+002;4.715582e-002
8.485611e+002;4.389289e-002
8.504897e+002;3.963904e-002
8.524182e+002;3.753447e-002
8.543467e+002;3.645214e-002
8.562753e+002;3.615084e-002
8.582039e+002;3.719188e-002
8.601324e+002;3.922385e-002
8.620610e+002;4.300810e-002
8.639895e+002;4.965217e-002
8.659180e+002;5.903637e-002
8.678466e+002;7.246784e-002
8.697751e+002;9.082422e-002
8.717037e+002;1.112816e-001
8.736323e+002;1.269637e-001
8.755608e+002;1.306249e-001
8.774893e+002;1.207734e-001
8.794179e+002;1.047633e-001
8.813464e+002;9.056014e-002
8.832750e+002;7.835618e-002
8.852036e+002;6.400090e-002
8.871321e+002;5.003674e-002
8.890606e+002;4.190352e-002
8.909892e+002;3.962510e-002
8.929177e+002;4.091703e-002
8.948463e+002;4.408513e-002
8.967748e+002;4.775032e-002
8.987034e+002;5.011561e-002
9.006319e+002;5.014082e-002
9.025605e+002;4.642956e-002
9.044890e+002;4.114824e-002
9.064175e+002;3.687038e-002
9.083461e+002;3.364010e-002
9.102747e+002;3.129935e-002
9.122032e+002;3.003997e-002
9.141318e+002;2.926182e-002
9.160603e+002;2.871010e-002
9.179888e+002;2.808174e-002
9.199174e+002;2.733983e-002
9.218459e+002;2.728733e-002
9.237745e+002;2.750190e-002
9.257031e+002;2.737900e-002
9.276316e+002;2.731319e-002
9.295601e+002;2.747734e-002
9.314887e+002;2.815774e-002
9.334172e+002;2.882194e-002
9.353458e+002;2.974955e-002
9.372744e+002;3.147060e-002
9.392029e+002;3.369492e-002
9.411314e+002;3.438099e-002
9.430600e+002;3.362682e-002
9.449885e+002;3.282025e-002
9.469171e+002;3.259064e-002
9.488456e+002;3.287153e-002
9.507742e+002;3.348332e-002
9.527027e+002;3.386934e-002
9.546313e+002;3.463706e-002
9.565598e+002;3.550005e-002
9.584883e+002;3.637135e-002
9.604169e+002;3.798460e-002
9.623455e+002;4.008268e-002
9.642740e+002;4.283352e-002
9.662026e+002;4.698692e-002
9.681311e+002;5.277973e-002
9.700596e+002;5.947658e-002
9.719882e+002;6.421144e-002
9.739167e+002;6.435516e-002
9.758453e+002;6.011650e-002
9.777739e+002;5.319576e-002
9.797024e+002;4.571423e-002
9.816309e+002;3.923368e-002
9.835595e+002;3.487095e-002
9.854880e+002;3.295599e-002
9.874166e+002;3.318078e-002
9.893452e+002;3.493149e-002
9.912737e+002;3.845533e-002
9.932022e+002;4.342535e-002
9.951307e+002;4.907581e-002
9.970593e+002;5.355237e-002
9.989879e+002;5.341986e-002
1.000916e+003;4.887456e-002
1.002845e+003;4.282785e-002
1.004773e+003;3.770971e-002
1.006702e+003;3.415281e-002
1.008631e+003;3.150309e-002
1.010559e+003;2.917843e-002
1.012488e+003;2.758381e-002
1.014416e+003;2.641746e-002
1.016345e+003;2.573225e-002
1.018273e+003;2.542252e-002
1.020202e+003;2.474687e-002
1.022130e+003;2.445296e-002
1.024059e+003;2.477230e-002
1.025988e+003;2.425418e-002
1.027916e+003;2.366539e-002
1.029845e+003;2.390910e-002
1.031773e+003;2.466333e-002
1.033702e+003;2.480752e-002
1.035630e+003;2.512043e-002
1.037559e+003;2.557404e-002
1.039487e+003;2.572265e-002
1.041416e+003;2.628442e-002
1.043344e+003;2.689664e-002
1.045273e+003;2.709939e-002
1.047202e+003;2.736743e-002
1.049130e+003;2.718471e-002
1.051059e+003;2.610637e-002
1.052987e+003;2.501228e-002
1.054916e+003;2.365126e-002
1.056844e+003;2.269765e-002
1.058773e+003;2.271479e-002
1.060701e+003;2.290902e-002
1.062630e+003;2.258915e-002
1.064558e+003;2.228620e-002
1.066487e+003;2.199014e-002
1.068416e+003;2.194340e-002
1.070344e+003;2.227291e-002
1.072273e+003;2.222255e-002
1.074201e+003;2.182573e-002
1.076130e+003;2.165190e-002
1.078058e+003;2.220448e-002
1.079987e+003;2.279237e-002
1.081915e+003;2.297455e-002
1.083844e+003;2.347971e-002
1.085773e+003;2.417525e-002
1.087701e+003;2.403483e-002
1.089630e+003;2.423284e-002
1.091558e+003;2.490229e-002
1.093487e+003;2.555664e-002
1.095415e+003;2.674083e-002
1.097344e+003;2.861649e-002
1.099272e+003;3.031911e-002
1.101201e+003;3.154377e-002
1.103129e+003;3.188931e-002
1.105058e+003;3.060369e-002
1.106987e+003;2.810323e-002
1.108915e+003;2.540443e-002
1.110844e+003;2.337840e-002
1.112772e+003;2.203804e-002
1.114701e+003;2.161436e-002
1.116629e+003;2.173222e-002
1.118558e+003;2.154809e-002
1.120486e+003;2.162822e-002
1.122415e+003;2.165500e-002
1.124344e+003;2.131883e-002
1.126272e+003;2.090309e-002
1.128201e+003;2.109689e-002
1.130129e+003;2.147452e-002
1.132058e+003;2.180057e-002
1.133986e+003;2.283504e-002
1.135915e+003;2.471895e-002
1.137843e+003;2.689827e-002
1.139772e+003;2.930740e-002
1.141700e+003;3.221210e-002
1.143629e+003;3.563915e-002
1.145557e+003;3.926063e-002
1.147486e+003;4.299591e-002
1.149415e+003;4.689289e-002
1.151343e+003;5.061342e-002
1.153272e+003;5.296808e-002
1.155200e+003;5.346415e-002
1.157129e+003;5.310735e-002
1.159057e+003;5.334859e-002
1.160986e+003;5.414481e-002
1.162914e+003;5.461544e-002
1.164843e+003;5.463066e-002
1.166771e+003;5.379754e-002
1.168700e+003;5.105947e-002
1.170629e+003;4.689171e-002
1.172557e+003;4.210671e-002
1.174486e+003;3.700476e-002
1.176414e+003;3.270062e-002
1.178343e+003;2.973731e-002
1.180271e+003;2.739930e-002
1.182200e+003;2.555970e-002
1.184128e+003;2.421554e-002
1.186057e+003;2.332284e-002
1.187986e+003;2.291625e-002
1.189914e+003;2.308143e-002
1.191843e+003;2.327435e-002
1.193771e+003;2.371676e-002
1.195700e+003;2.419753e-002
1.197628e+003;2.410148e-002
1.199557e+003;2.398077e-002
1.201485e+003;2.378270e-002
1.203414e+003;2.385270e-002
1.205343e+003;2.431252e-002
1.207271e+003;2.499613e-002
1.209200e+003;2.592973e-002
1.211128e+003;2.694505e-002
1.213057e+003;2.891345e-002
1.214985e+003;3.083108e-002
1.216914e+003;3.206967e-002
1.218842e+003;3.247907e-002
1.220771e+003;3.163221e-002
1.222699e+003;2.997702e-002
1.224628e+003;2.844824e-002
1.226557e+003;2.734061e-002
1.228485e+003;2.688769e-002
1.230414e+003;2.680972e-002
1.232342e+003;2.681297e-002
1.234271e+003;2.693701e-002
1.236199e+003;2.704434e-002
1.238128e+003;2.731457e-002
1.240056e+003;2.768052e-002
1.241985e+003;2.765234e-002
1.243913e+003;2.754688e-002
1.245842e+003;2.801999e-002
1.247771e+003;2.918722e-002
1.249699e+003;3.077324e-002
1.251628e+003;3.285559e-002
1.253556e+003;3.567584e-002
1.255485e+003;3.789717e-002
1.257413e+003;3.742387e-002
1.259342e+003;3.505205e-002
1.261270e+003;3.281024e-002
1.263199e+003;3.116661e-002
1.265127e+003;3.031478e-002
1.267056e+003;2.995924e-002
1.268985e+003;2.975104e-002
1.270913e+003;2.972333e-002
1.272842e+003;2.990524e-002
1.274770e+003;3.018916e-002
1.276699e+003;3.055424e-002
1.278627e+003;3.078989e-002
1.280556e+003;3.150479e-002
1.282484e+003;3.286274e-002
1.284413e+003;3.431142e-002
1.286342e+003;3.564149e-002
1.288270e+003;3.737508e-002
1.290199e+003;3.949996e-002
1.292127e+003;4.152101e-002
1.294056e+003;4.301523e-002
1.295984e+003;4.383684e-002
1.297913e+003;4.389443e-002
1.299841e+003;4.399624e-002
1.301770e+003;4.511697e-002
1.303698e+003;4.676623e-002
1.305627e+003;4.711239e-002
1.307556e+003;4.489980e-002
1.309484e+003;4.190356e-002
1.311413e+003;4.046457e-002
1.313341e+003;4.023249e-002
1.315270e+003;4.078121e-002
1.317198e+003;4.176298e-002
1.319127e+003;4.299109e-002
1.321055e+003;4.504705e-002
1.322984e+003;4.795978e-002
1.324912e+003;5.125241e-002
1.326841e+003;5.407519e-002
1.328770e+003;5.564815e-002
1.330698e+003;5.585667e-002
1.332627e+003;5.492208e-002
1.334555e+003;5.389769e-002
1.336484e+003;5.342844e-002
1.338412e+003;5.348383e-002
1.340341e+003;5.466688e-002
1.342269e+003;5.696570e-002
1.344198e+003;5.931626e-002
1.346126e+003;6.228963e-002
1.348055e+003;6.628522e-002
1.349984e+003;7.068228e-002
1.351912e+003;7.607606e-002
1.353841e+003;8.344606e-002
1.355769e+003;9.206519e-002
1.357698e+003;9.899637e-002
1.359626e+003;1.015193e-001
1.361555e+003;1.006822e-001
1.363483e+003;1.011457e-001
1.365412e+003;1.056433e-001
1.367341e+003;1.148283e-001
1.369269e+003;1.315742e-001
1.371198e+003;1.562869e-001
1.373126e+003;1.845517e-001
1.375055e+003;2.072607e-001
1.376983e+003;2.111801e-001
1.378912e+003;1.931944e-001
1.380840e+003;1.657036e-001
1.382769e+003;1.392243e-001
1.384698e+003;1.187746e-001
1.386626e+003;1.053659e-001
1.388555e+003;9.956307e-002
1.390483e+003;9.867766e-002
1.392412e+003;9.901635e-002
1.394340e+003;1.001026e-001
1.396269e+003;1.032642e-001
1.398197e+003;1.066569e-001
1.400126e+003;1.105094e-001
1.402054e+003;1.140898e-001
1.403983e+003;1.164386e-001
1.405911e+003;1.190871e-001
1.407840e+003;1.221324e-001
1.409769e+003;1.249722e-001
1.411697e+003;1.278766e-001
1.413626e+003;1.306588e-001
1.415554e+003;1.327285e-001
1.417483e+003;1.325988e-001
1.419411e+003;1.332308e-001
1.421340e+003;1.372822e-001
1.423268e+003;1.403185e-001
1.425197e+003;1.425954e-001
1.427125e+003;1.450375e-001
1.429054e+003;1.475381e-001
1.430983e+003;1.521058e-001
1.432911e+003;1.575080e-001
1.434840e+003;1.587356e-001
1.436768e+003;1.572317e-001
1.438697e+003;1.590069e-001
1.440625e+003;1.614777e-001
1.442554e+003;1.647589e-001
1.444482e+003;1.699296e-001
1.446411e+003;1.759617e-001
1.448340e+003;1.821534e-001
1.450268e+003;1.872249e-001
1.452197e+003;1.890685e-001
1.454125e+003;1.869103e-001
1.456054e+003;1.802336e-001
1.457982e+003;1.776799e-001
1.459911e+003;1.780879e-001
1.461839e+003;1.739016e-001
1.463768e+003;1.649556e-001
1.465697e+003;1.557383e-001
1.467625e+003;1.475854e-001
1.469554e+003;1.373974e-001
1.471482e+003;1.254056e-001
1.473411e+003;1.170457e-001
1.475339e+003;1.124416e-001
1.477268e+003;1.082514e-001
1.479196e+003;1.047486e-001
1.481125e+003;1.010182e-001
1.483053e+003;9.782390e-002
1.484982e+003;9.427237e-002
1.486911e+003;9.045093e-002
1.488839e+003;8.721383e-002
1.490768e+003;8.546878e-002
1.492696e+003;8.463067e-002
1.494625e+003;8.123120e-002
1.496553e+003;7.749202e-002
1.498482e+003;7.691225e-002
1.500410e+003;7.714932e-002
1.502339e+003;7.592023e-002
1.504267e+003;6.977055e-002
1.506196e+003;6.299845e-002
1.508125e+003;6.400090e-002
1.510053e+003;6.633358e-002
1.511982e+003;6.545863e-002
1.513910e+003;6.422772e-002
1.515839e+003;6.155065e-002
1.517767e+003;5.902723e-002
1.519696e+003;5.521354e-002
1.521624e+003;5.244910e-002
1.523553e+003;5.366555e-002
1.525481e+003;5.368347e-002
1.527410e+003;5.361269e-002
1.529339e+003;5.364815e-002
1.531267e+003;5.197596e-002
1.533196e+003;4.915205e-002
1.535124e+003;4.883236e-002
1.537053e+003;4.571607e-002
1.538981e+003;3.877761e-002
1.540910e+003;3.787143e-002
1.542838e+003;4.056489e-002
1.544767e+003;4.172534e-002
1.546695e+003;4.249686e-002
1.548624e+003;4.177808e-002
1.550553e+003;4.054186e-002
1.552481e+003;3.828022e-002
1.554410e+003;3.515979e-002
1.556338e+003;3.142208e-002
1.558267e+003;2.533800e-002
1.560195e+003;2.667194e-002
1.562124e+003;3.263010e-002
1.564052e+003;3.401773e-002
1.565981e+003;3.341936e-002
1.567910e+003;3.160684e-002
1.569838e+003;3.020511e-002
1.571767e+003;3.152339e-002
1.573695e+003;3.008084e-002
1.575624e+003;2.641640e-002
1.577552e+003;2.828472e-002
1.579481e+003;3.108254e-002
1.581409e+003;3.088462e-002
1.583338e+003;3.054301e-002
1.585266e+003;3.011348e-002
1.587195e+003;2.964325e-002
1.589124e+003;2.905934e-002
1.591052e+003;2.839652e-002
1.592981e+003;2.750946e-002
1.594909e+003;2.716397e-002
1.596838e+003;2.690909e-002
1.598766e+003;2.640253e-002
1.600695e+003;2.597243e-002
1.602623e+003;2.576944e-002
1.604552e+003;2.566675e-002
1.606480e+003;2.514556e-002
1.608409e+003;2.437918e-002
1.610338e+003;2.397086e-002
1.612266e+003;2.388385e-002
1.614195e+003;2.189782e-002
1.616123e+003;1.823795e-002
1.618052e+003;1.968549e-002
1.619980e+003;2.228428e-002
1.621909e+003;2.132938e-002
1.623837e+003;2.067219e-002
1.625766e+003;2.137674e-002
1.627694e+003;2.142252e-002
1.629623e+003;2.204922e-002
1.631552e+003;2.236067e-002
1.633480e+003;1.947142e-002
1.635409e+003;1.622798e-002
1.637337e+003;1.855798e-002
1.639266e+003;2.151324e-002
1.641194e+003;2.208635e-002
1.643123e+003;2.091992e-002
1.645051e+003;1.756510e-002
1.646980e+003;1.663792e-002
1.648909e+003;1.890776e-002
1.650837e+003;1.481418e-002
1.652766e+003;8.237619e-003
1.654694e+003;1.330776e-002
1.656623e+003;1.957910e-002
1.658551e+003;2.064946e-002
1.660480e+003;1.934394e-002
1.662408e+003;1.777999e-002
1.664337e+003;1.868401e-002
1.666266e+003;1.898387e-002
1.668194e+003;1.658525e-002
1.670123e+003;1.604830e-002
1.672051e+003;1.741359e-002
1.673980e+003;1.608399e-002
1.675908e+003;1.571723e-002
1.677837e+003;1.781434e-002
1.679765e+003;1.773156e-002
1.681694e+003;1.515163e-002
1.683622e+003;9.973442e-003
1.685551e+003;1.146417e-002
1.687479e+003;1.621050e-002
1.689408e+003;1.705067e-002
1.691337e+003;1.723780e-002
1.693265e+003;1.538720e-002
1.695194e+003;1.084619e-002
1.697122e+003;1.080400e-002
1.699051e+003;9.030924e-003
1.700979e+003;9.083196e-003
1.702908e+003;1.374109e-002
1.704836e+003;1.413812e-002
1.706765e+003;1.460407e-002
1.708693e+003;1.535095e-002
1.710622e+003;1.544031e-002
1.712551e+003;1.423876e-002
1.714479e+003;1.159462e-002
1.716408e+003;8.190886e-003
1.718336e+003;8.804726e-003
1.720265e+003;1.244220e-002
1.722193e+003;1.365642e-002
1.724122e+003;1.355474e-002
1.726050e+003;1.372375e-002
1.727979e+003;1.324231e-002
1.729908e+003;1.214674e-002
1.731836e+003;8.825894e-003
1.733765e+003;5.582497e-003
1.735693e+003;9.010051e-003
1.737622e+003;1.149183e-002
1.739550e+003;1.042857e-002
1.741479e+003;1.085438e-002
1.743407e+003;1.124309e-002
1.745336e+003;1.111302e-002
1.747265e+003;1.016894e-002
1.749193e+003;8.685317e-003
1.751122e+003;8.029385e-003
1.753050e+003;9.844797e-003
1.754979e+003;1.051383e-002
1.756907e+003;9.998735e-003
1.758836e+003;1.021423e-002
1.760764e+003;9.366312e-003
1.762693e+003;9.197435e-003
1.764621e+003;1.007615e-002
1.766550e+003;9.200210e-003
1.768479e+003;8.564386e-003
1.770407e+003;7.224227e-003
1.772336e+003;5.713780e-003
1.774264e+003;7.617127e-003
1.776193e+003;9.293391e-003
1.778121e+003;9.321149e-003
1.780050e+003;8.874792e-003
1.781978e+003;9.207521e-003
1.783907e+003;9.577797e-003
1.785835e+003;1.037098e-002
1.787764e+003;1.169043e-002
1.789693e+003;1.216406e-002
1.791621e+003;1.240166e-002
1.793550e+003;1.520440e-002
1.795478e+003;1.848153e-002
1.797407e+003;1.907904e-002
1.799335e+003;1.819186e-002
1.801264e+003;1.737424e-002
1.803192e+003;1.685887e-002
1.805121e+003;1.533310e-002
1.807049e+003;1.341601e-002
1.808978e+003;1.144315e-002
1.810907e+003;9.940218e-003
1.812835e+003;9.227455e-003
1.814764e+003;8.745660e-003
1.816692e+003;8.297563e-003
1.818621e+003;8.280001e-003
1.820549e+003;8.084337e-003
1.822478e+003;7.539746e-003
1.824406e+003;6.786750e-003
1.826335e+003;6.944692e-003
1.828264e+003;6.570363e-003
1.830192e+003;6.136567e-003
1.832121e+003;6.891432e-003
1.834049e+003;7.433525e-003
1.835978e+003;7.489076e-003
1.837906e+003;7.214559e-003
1.839835e+003;6.830000e-003
1.841763e+003;5.474573e-003
1.843692e+003;3.801925e-003
1.845620e+003;4.476003e-003
1.847549e+003;5.595385e-003
1.849478e+003;5.918522e-003
1.851406e+003;5.966590e-003
1.853335e+003;5.729157e-003
1.855263e+003;5.561084e-003
1.857192e+003;5.500343e-003
1.859120e+003;5.467123e-003
1.861049e+003;5.519135e-003
1.862977e+003;5.336418e-003
1.864906e+003;4.691717e-003
1.866834e+003;3.861426e-003
1.868763e+003;3.205091e-003
1.870692e+003;3.883156e-003
1.872620e+003;4.654574e-003
1.874549e+003;4.724609e-003
1.876477e+003;4.649651e-003
1.878406e+003;4.502216e-003
1.880334e+003;4.574671e-003
1.882263e+003;4.508109e-003
1.884191e+003;4.633642e-003
1.886120e+003;4.753116e-003
1.888048e+003;4.448988e-003
1.889977e+003;4.428267e-003
1.891906e+003;5.124071e-003
1.893834e+003;5.359060e-003
1.895763e+003;5.254311e-003
1.897691e+003;5.205885e-003
1.899620e+003;5.317701e-003
1.901548e+003;5.281476e-003
1.903477e+003;4.892292e-003
1.905405e+003;4.606383e-003
1.907334e+003;4.613984e-003
1.909262e+003;4.433823e-003
1.911191e+003;4.604742e-003
1.913120e+003;4.792211e-003
1.915048e+003;4.516646e-003
1.916977e+003;3.649465e-003
1.918905e+003;3.762552e-003
1.920834e+003;4.396569e-003
1.922762e+003;4.182606e-003
1.924691e+003;4.166281e-003
1.926619e+003;4.444903e-003
1.928548e+003;4.304064e-003
1.930477e+003;3.853738e-003
1.932405e+003;3.605194e-003
1.934334e+003;3.727961e-003
1.936262e+003;3.834683e-003
1.938191e+003;3.512457e-003
1.940119e+003;3.205224e-003
1.942048e+003;3.057478e-003
1.943976e+003;3.270720e-003
1.945905e+003;3.477954e-003
1.947833e+003;3.520140e-003
1.949762e+003;3.462924e-003
1.951691e+003;3.492316e-003
1.953619e+003;3.514963e-003
1.955548e+003;3.412093e-003
1.957476e+003;3.554948e-003
1.959405e+003;3.618325e-003
1.961333e+003;3.706005e-003
1.963262e+003;3.889341e-003
1.965190e+003;3.736717e-003
1.967119e+003;3.318262e-003
1.969047e+003;3.243579e-003
1.970976e+003;3.211500e-003
1.972905e+003;3.219745e-003
1.974833e+003;3.214771e-003
1.976762e+003;3.144344e-003
1.978690e+003;3.193976e-003
1.980619e+003;3.532633e-003
1.982547e+003;3.560427e-003
1.984476e+003;3.428323e-003
1.986404e+003;3.324005e-003
1.988333e+003;3.446258e-003
1.990261e+003;3.421945e-003
1.992190e+003;3.238839e-003
1.994119e+003;3.479623e-003
1.996047e+003;3.623571e-003
1.997976e+003;3.593434e-003
1.999904e+003;3.743869e-003
2.001833e+003;3.908465e-003
2.003761e+003;3.780634e-003
2.005690e+003;3.383173e-003
2.007618e+003;3.221147e-003
2.009547e+003;3.253961e-003
2.011476e+003;3.325307e-003
2.013404e+003;3.433433e-003
2.015333e+003;3.780500e-003
2.017261e+003;3.939626e-003
2.019190e+003;4.014763e-003
2.021118e+003;4.112290e-003
2.023047e+003;3.774651e-003
2.024975e+003;3.652640e-003
2.026904e+003;4.062186e-003
2.028833e+003;4.298777e-003
2.030761e+003;4.052521e-003
2.032690e+003;3.764524e-003
2.034618e+003;3.803429e-003
2.036547e+003;3.902647e-003
2.038475e+003;4.006302e-003
2.040404e+003;3.923878e-003
2.042332e+003;3.821546e-003
2.044261e+003;3.910638e-003
2.046189e+003;4.062153e-003
2.048118e+003;4.307109e-003
2.050047e+003;4.284789e-003
2.051975e+003;3.987442e-003
2.053904e+003;3.952967e-003
2.055832e+003;3.849592e-003
2.057761e+003;3.770339e-003
2.059689e+003;3.869751e-003
2.061618e+003;3.861326e-003
2.063546e+003;3.905690e-003
2.065475e+003;4.054193e-003
2.067404e+003;4.091352e-003
2.069332e+003;4.187290e-003
2.071260e+003;4.327590e-003
2.073189e+003;4.501513e-003
2.075118e+003;4.549793e-003
2.077046e+003;4.485946e-003
2.078975e+003;4.442292e-003
2.080903e+003;4.440886e-003
2.082832e+003;4.572461e-003
2.084760e+003;4.608861e-003
2.086689e+003;4.593323e-003
2.088617e+003;4.730840e-003
2.090546e+003;4.766448e-003
2.092475e+003;4.627012e-003
2.094403e+003;4.661942e-003
2.096332e+003;4.780585e-003
2.098260e+003;4.877347e-003
2.100189e+003;4.913872e-003
2.102117e+003;4.824943e-003
2.104046e+003;4.738845e-003
2.105974e+003;4.615960e-003
2.107903e+003;4.617601e-003
2.109832e+003;4.687999e-003
2.111760e+003;4.565463e-003
2.113688e+003;4.322570e-003
2.115617e+003;4.614722e-003
2.117546e+003;4.978118e-003
2.119474e+003;4.924831e-003
2.121403e+003;5.136678e-003
2.123331e+003;5.511350e-003
2.125260e+003;5.812529e-003
2.127188e+003;6.059046e-003
2.129117e+003;6.203885e-003
2.131045e+003;6.493538e-003
2.132974e+003;6.688654e-003
2.134903e+003;6.805530e-003
2.136831e+003;6.803545e-003
2.138760e+003;6.452104e-003
2.140688e+003;6.343459e-003
2.142617e+003;6.606930e-003
2.144545e+003;6.572583e-003
2.146474e+003;6.300123e-003
2.148402e+003;6.264018e-003
2.150331e+003;6.456005e-003
2.152260e+003;6.506386e-003
2.154188e+003;6.451633e-003
2.156117e+003;6.429505e-003
2.158045e+003;6.704234e-003
2.159974e+003;6.838482e-003
2.161902e+003;6.841579e-003
2.163831e+003;6.954860e-003
2.165759e+003;7.068440e-003
2.167688e+003;7.089826e-003
2.169616e+003;6.980550e-003
2.171545e+003;7.073761e-003
2.173474e+003;7.321096e-003
2.175402e+003;7.345157e-003
2.177331e+003;7.375083e-003
2.179259e+003;7.427121e-003
2.181188e+003;7.397192e-003
2.183116e+003;7.418999e-003
2.185045e+003;7.420751e-003
2.186973e+003;7.302125e-003
2.188902e+003;7.065982e-003
2.190831e+003;6.947251e-003
2.192759e+003;7.191550e-003
2.194688e+003;7.198456e-003
2.196616e+003;6.997689e-003
2.198545e+003;6.880290e-003
2.200473e+003;6.932707e-003
2.202402e+003;6.887696e-003
2.204330e+003;6.997150e-003
2.206259e+003;7.124618e-003
2.208188e+003;7.053353e-003
2.210116e+003;6.973412e-003
2.212044e+003;6.810141e-003
2.213973e+003;6.716415e-003
2.215902e+003;6.769653e-003
2.217830e+003;6.778740e-003
2.219759e+003;6.850869e-003
2.221687e+003;6.844676e-003
2.223616e+003;6.827577e-003
2.225544e+003;7.033854e-003
2.227473e+003;7.061603e-003
2.229401e+003;6.928229e-003
2.231330e+003;7.130647e-003
2.233259e+003;7.224497e-003
2.235187e+003;6.927084e-003
2.237116e+003;6.744379e-003
2.239044e+003;6.645048e-003
2.240973e+003;6.602489e-003
2.242901e+003;6.771403e-003
2.244830e+003;6.950348e-003
2.246758e+003;7.008397e-003
2.248687e+003;6.994625e-003
2.250615e+003;7.128997e-003
2.252544e+003;7.389406e-003
2.254473e+003;7.573260e-003
2.256401e+003;7.635910e-003
2.258330e+003;7.642418e-003
2.260258e+003;7.479267e-003
2.262187e+003;7.302091e-003
2.264115e+003;7.340574e-003
2.266044e+003;7.355267e-003
2.267972e+003;7.106464e-003
2.269901e+003;6.926377e-003
2.271830e+003;6.872682e-003
2.273758e+003;6.687577e-003
2.275687e+003;6.518898e-003
2.277615e+003;6.559531e-003
2.279544e+003;6.334953e-003
2.281472e+003;6.360304e-003
2.283401e+003;6.607939e-003
2.285329e+003;6.628697e-003
2.287258e+003;6.670484e-003
2.289187e+003;6.524313e-003
2.291115e+003;6.510523e-003
2.293043e+003;6.583987e-003
2.294972e+003;6.523943e-003
2.296901e+003;6.517586e-003
2.298829e+003;6.578234e-003
2.300758e+003;6.470735e-003
2.302686e+003;6.484995e-003
2.304615e+003;6.525322e-003
2.306543e+003;6.518528e-003
2.308472e+003;6.652854e-003
2.310400e+003;6.493403e-003
2.312329e+003;6.115464e-003
2.314258e+003;6.189936e-003
2.316186e+003;6.427554e-003
2.318115e+003;6.417500e-003
2.320043e+003;6.491554e-003
2.321972e+003;6.774769e-003
2.323900e+003;6.822628e-003
2.325829e+003;6.677281e-003
2.327757e+003;6.524481e-003
2.329686e+003;6.395643e-003
2.331615e+003;6.596972e-003
2.333543e+003;6.732735e-003
2.335472e+003;6.657127e-003
2.337400e+003;6.779514e-003
2.339329e+003;7.175818e-003
2.341257e+003;7.440368e-003
2.343186e+003;7.281504e-003
2.345114e+003;7.356716e-003
2.347043e+003;7.999212e-003
2.348971e+003;8.318097e-003
2.350900e+003;8.194634e-003
2.352829e+003;8.005220e-003
2.354757e+003;7.831608e-003
2.356686e+003;7.683326e-003
2.358614e+003;7.562234e-003
2.360543e+003;7.818450e-003
2.362471e+003;8.108980e-003
2.364400e+003;8.145171e-003
2.366328e+003;7.994217e-003
2.368257e+003;8.186193e-003
2.370186e+003;8.305972e-003
2.372114e+003;8.266188e-003
2.374042e+003;8.485449e-003
2.375971e+003;8.811793e-003
2.377900e+003;9.002711e-003
2.379828e+003;9.251757e-003
2.381757e+003;9.317799e-003
2.383685e+003;9.031567e-003
2.385614e+003;8.929310e-003
2.387542e+003;9.013840e-003
2.389471e+003;9.074195e-003
2.391399e+003;9.119298e-003
2.393328e+003;9.083432e-003
2.395257e+003;8.959414e-003
2.397185e+003;8.936311e-003
2.399114e+003;9.043408e-003
2.401042e+003;9.260151e-003
2.402971e+003;9.416016e-003
2.404899e+003;9.194219e-003
2.406828e+003;8.904858e-003
2.408756e+003;8.883111e-003
2.410685e+003;9.169076e-003
2.412614e+003;9.466301e-003
2.414542e+003;9.572919e-003
2.416471e+003;9.539827e-003
2.418399e+003;9.607335e-003
2.420328e+003;9.657066e-003
2.422256e+003;9.630167e-003
2.424185e+003;9.871506e-003
2.426113e+003;1.015944e-002
2.428042e+003;1.017071e-002
2.429970e+003;1.012583e-002
2.431899e+003;1.020429e-002
2.433828e+003;1.019679e-002
2.435756e+003;1.005482e-002
2.437685e+003;9.634029e-003
2.439613e+003;9.139838e-003
2.441542e+003;9.262892e-003
2.443470e+003;9.551308e-003
2.445399e+003;9.358085e-003
2.447327e+003;9.266514e-003
2.449256e+003;9.351381e-003
2.451185e+003;9.385847e-003
2.453113e+003;9.306424e-003
2.455042e+003;9.132732e-003
2.456970e+003;9.245969e-003
2.458899e+003;9.373151e-003
2.460827e+003;9.170462e-003
2.462756e+003;9.150024e-003
2.464684e+003;9.190328e-003
2.466613e+003;9.245664e-003
2.468542e+003;9.330899e-003
2.470470e+003;9.352532e-003
2.472398e+003;9.544162e-003
2.474327e+003;9.827172e-003
2.476256e+003;1.009382e-002
2.478184e+003;1.045765e-002
2.480113e+003;1.074473e-002
2.482041e+003;1.074741e-002
2.483970e+003;1.080457e-002
2.485898e+003;1.130658e-002
2.487827e+003;1.172624e-002
2.489755e+003;1.221108e-002
2.491684e+003;1.263052e-002
2.493613e+003;1.279808e-002
2.495541e+003;1.313690e-002
2.497470e+003;1.363484e-002
2.499398e+003;1.441509e-002
2.501327e+003;1.502322e-002
2.503255e+003;1.541274e-002
2.505184e+003;1.603052e-002
2.507112e+003;1.692721e-002
2.509041e+003;1.788432e-002
2.510969e+003;1.841836e-002
2.512898e+003;1.882004e-002
2.514827e+003;1.913195e-002
2.516755e+003;1.937211e-002
2.518684e+003;1.987552e-002
2.520612e+003;2.031553e-002
2.522541e+003;2.027400e-002
2.524469e+003;2.053495e-002
2.526398e+003;2.046642e-002
2.528326e+003;1.985225e-002
2.530255e+003;1.938354e-002
2.532184e+003;1.909649e-002
2.534112e+003;1.873092e-002
2.536041e+003;1.819749e-002
2.537969e+003;1.778071e-002
2.539898e+003;1.767123e-002
2.541826e+003;1.763397e-002
2.543755e+003;1.741183e-002
2.545683e+003;1.728965e-002
2.547612e+003;1.720205e-002
2.549541e+003;1.719950e-002
2.551469e+003;1.752625e-002
2.553397e+003;1.790075e-002
2.555326e+003;1.797572e-002
2.557255e+003;1.795390e-002
2.559183e+003;1.809723e-002
2.561112e+003;1.832269e-002
2.563040e+003;1.847057e-002
2.564969e+003;1.854888e-002
2.566897e+003;1.875240e-002
2.568826e+003;1.937890e-002
2.570754e+003;1.988628e-002
2.572683e+003;2.048086e-002
2.574612e+003;2.126618e-002
2.576540e+003;2.208461e-002
2.578469e+003;2.275295e-002
2.580397e+003;2.297113e-002
2.582326e+003;2.283068e-002
2.584254e+003;2.257317e-002
2.586183e+003;2.208165e-002
2.588111e+003;2.109693e-002
2.590040e+003;2.031754e-002
2.591969e+003;1.996877e-002
2.593897e+003;1.937409e-002
2.595826e+003;1.883696e-002
2.597754e+003;1.881329e-002
2.599683e+003;1.885748e-002
2.601611e+003;1.884828e-002
2.603540e+003;1.891749e-002
2.605468e+003;1.940163e-002
2.607397e+003;2.005360e-002
2.609325e+003;2.060318e-002
2.611254e+003;2.098355e-002
2.613183e+003;2.110590e-002
2.615111e+003;2.102378e-002
2.617040e+003;2.098035e-002
2.618968e+003;2.098118e-002
2.620897e+003;2.073123e-002
2.622825e+003;2.046690e-002
2.624754e+003;2.010621e-002
2.626682e+003;1.975123e-002
2.628611e+003;1.960055e-002
2.630540e+003;1.938070e-002
2.632468e+003;1.914819e-002
2.634396e+003;1.913731e-002
2.636325e+003;1.914147e-002
2.638254e+003;1.909237e-002
2.640182e+003;1.919867e-002
2.642111e+003;1.945049e-002
2.644039e+003;1.977547e-002
2.645968e+003;2.024908e-002
2.647896e+003;2.068400e-002
2.649825e+003;2.107025e-002
2.651753e+003;2.149124e-002
2.653682e+003;2.159082e-002
2.655611e+003;2.156588e-002
2.657539e+003;2.194577e-002
2.659468e+003;2.224720e-002
2.661396e+003;2.231937e-002
2.663325e+003;2.229003e-002
2.665253e+003;2.224535e-002
2.667182e+003;2.221868e-002
2.669110e+003;2.210797e-002
2.671039e+003;2.214622e-002
2.672968e+003;2.245281e-002
2.674896e+003;2.302936e-002
2.676825e+003;2.338197e-002
2.678753e+003;2.341589e-002
2.680682e+003;2.301158e-002
2.682610e+003;2.271067e-002
2.684539e+003;2.300561e-002
2.686467e+003;2.321203e-002
2.688396e+003;2.306060e-002
2.690324e+003;2.286899e-002
2.692253e+003;2.304879e-002
2.694182e+003;2.276007e-002
2.696110e+003;2.242818e-002
2.698039e+003;2.283805e-002
2.699967e+003;2.361365e-002
2.701896e+003;2.410817e-002
2.703824e+003;2.443052e-002
2.705753e+003;2.501582e-002
2.707681e+003;2.589206e-002
2.709610e+003;2.675841e-002
2.711539e+003;2.782315e-002
2.713467e+003;2.925644e-002
2.715396e+003;3.054884e-002
2.717324e+003;3.208041e-002
2.719253e+003;3.416586e-002
2.721181e+003;3.587919e-002
2.723110e+003;3.619327e-002
2.725038e+003;3.560995e-002
2.726967e+003;3.462669e-002
2.728896e+003;3.337628e-002
2.730824e+003;3.225279e-002
2.732752e+003;3.104015e-002
2.734681e+003;2.992849e-002
2.736610e+003;2.900029e-002
2.738538e+003;2.805339e-002
2.740467e+003;2.705615e-002
2.742395e+003;2.608937e-002
2.744324e+003;2.523082e-002
2.746252e+003;2.472533e-002
2.748181e+003;2.462398e-002
2.750109e+003;2.470019e-002
2.752038e+003;2.456805e-002
2.753967e+003;2.435363e-002
2.755895e+003;2.473870e-002
2.757824e+003;2.539400e-002
2.759752e+003;2.570739e-002
2.761681e+003;2.610894e-002
2.763609e+003;2.655749e-002
2.765538e+003;2.672811e-002
2.767466e+003;2.730381e-002
2.769395e+003;2.796847e-002
2.771323e+003;2.843624e-002
2.773252e+003;2.883157e-002
2.775181e+003;2.917457e-002
2.777109e+003;2.976229e-002
2.779038e+003;3.115597e-002
2.780966e+003;3.250211e-002
2.782895e+003;3.375383e-002
2.784823e+003;3.478156e-002
2.786752e+003;3.609877e-002
2.788680e+003;3.804887e-002
2.790609e+003;3.982653e-002
2.792538e+003;4.141540e-002
2.794466e+003;4.291844e-002
2.796395e+003;4.436988e-002
2.798323e+003;4.582664e-002
2.800252e+003;4.727562e-002
2.802180e+003;4.913250e-002
2.804109e+003;5.140061e-002
2.806037e+003;5.369119e-002
2.807966e+003;5.567783e-002
2.809895e+003;5.738857e-002
2.811823e+003;5.926282e-002
2.813751e+003;6.144098e-002
2.815680e+003;6.378007e-002
2.817609e+003;6.592479e-002
2.819537e+003;6.850646e-002
2.821466e+003;7.193286e-002
2.823394e+003;7.557519e-002
2.825323e+003;8.010048e-002
2.827251e+003;8.626592e-002
2.829180e+003;9.426224e-002
2.831108e+003;1.035729e-001
2.833037e+003;1.129412e-001
2.834966e+003;1.205643e-001
2.836894e+003;1.246998e-001
2.838823e+003;1.246579e-001
2.840751e+003;1.215932e-001
2.842680e+003;1.170309e-001
2.844608e+003;1.122755e-001
2.846537e+003;1.079630e-001
2.848465e+003;1.041748e-001
2.850394e+003;1.018828e-001
2.852323e+003;1.005536e-001
2.854251e+003;9.950419e-002
2.856180e+003;9.989952e-002
2.858108e+003;1.028314e-001
2.860037e+003;1.082006e-001
2.861965e+003;1.154056e-001
2.863894e+003;1.229798e-001
2.865822e+003;1.293635e-001
2.867751e+003;1.336918e-001
2.869679e+003;1.355295e-001
2.871608e+003;1.364597e-001
2.873536e+003;1.370711e-001
2.875465e+003;1.369248e-001
2.877394e+003;1.358017e-001
2.879322e+003;1.343326e-001
2.881251e+003;1.330885e-001
2.883179e+003;1.323627e-001
2.885108e+003;1.322538e-001
2.887036e+003;1.326486e-001
2.888965e+003;1.341214e-001
2.890893e+003;1.369625e-001
2.892822e+003;1.402355e-001
2.894750e+003;1.438574e-001
2.896679e+003;1.479321e-001
2.898608e+003;1.527250e-001
2.900536e+003;1.583272e-001
2.902465e+003;1.642254e-001
2.904393e+003;1.701752e-001
2.906322e+003;1.755672e-001
2.908250e+003;1.800904e-001
2.910179e+003;1.846016e-001
2.912107e+003;1.884450e-001
2.914036e+003;1.911471e-001
2.915965e+003;1.925630e-001
2.917893e+003;1.919618e-001
2.919822e+003;1.890554e-001
2.921750e+003;1.841780e-001
2.923679e+003;1.782470e-001
2.925607e+003;1.715807e-001
2.927536e+003;1.643422e-001
2.929464e+003;1.561442e-001
2.931393e+003;1.471445e-001
2.933322e+003;1.389118e-001
2.935250e+003;1.319662e-001
2.937178e+003;1.266222e-001
2.939107e+003;1.231437e-001
2.941036e+003;1.223802e-001
2.942964e+003;1.259326e-001
2.944893e+003;1.328820e-001
2.946821e+003;1.404781e-001
2.948750e+003;1.470607e-001
2.950678e+003;1.513535e-001
2.952607e+003;1.525091e-001
2.954535e+003;1.511427e-001
2.956464e+003;1.481006e-001
2.958393e+003;1.441136e-001
2.960321e+003;1.390953e-001
2.962250e+003;1.327072e-001
2.964178e+003;1.252346e-001
2.966107e+003;1.171924e-001
2.968035e+003;1.094620e-001
2.969964e+003;1.028126e-001
2.971892e+003;9.648395e-002
2.973821e+003;9.057748e-002
2.975750e+003;8.504239e-002
2.977678e+003;8.009682e-002
2.979607e+003;7.583445e-002
2.981535e+003;7.192160e-002
2.983464e+003;6.836291e-002
2.985392e+003;6.508580e-002
2.987321e+003;6.196204e-002
2.989249e+003;5.933301e-002
2.991178e+003;5.689234e-002
2.993106e+003;5.414797e-002
2.995035e+003;5.141866e-002
2.996964e+003;4.924092e-002
2.998892e+003;4.712502e-002
3.000821e+003;4.478433e-002
3.002749e+003;4.230517e-002
3.004678e+003;4.000274e-002
3.006606e+003;3.799024e-002
3.008535e+003;3.602782e-002
3.010463e+003;3.411012e-002
3.012392e+003;3.253553e-002
3.014321e+003;3.128215e-002
3.016249e+003;3.002737e-002
3.018177e+003;2.856584e-002
3.020106e+003;2.719060e-002
3.022035e+003;2.585932e-002
3.023963e+003;2.439421e-002
3.025892e+003;2.347184e-002
3.027820e+003;2.287538e-002
3.029749e+003;2.192521e-002
3.031677e+003;2.106802e-002
3.033606e+003;2.057250e-002
3.035534e+003;2.006613e-002
3.037463e+003;1.915518e-002
3.039392e+003;1.865063e-002
3.041320e+003;1.826179e-002
3.043249e+003;1.780046e-002
3.045177e+003;1.732258e-002
3.047106e+003;1.673072e-002
3.049034e+003;1.631576e-002
3.050963e+003;1.580931e-002
3.052891e+003;1.523535e-002
3.054820e+003;1.501609e-002
3.056749e+003;1.505807e-002
3.058677e+003;1.515863e-002
3.060606e+003;1.520317e-002
3.062534e+003;1.501746e-002
3.064463e+003;1.450272e-002
3.066391e+003;1.367830e-002
3.068320e+003;1.309671e-002
3.070248e+003;1.316214e-002
3.072177e+003;1.342373e-002
3.074105e+003;1.341871e-002
3.076034e+003;1.297802e-002
3.077963e+003;1.261248e-002
3.079891e+003;1.271144e-002
3.081820e+003;1.279538e-002
3.083748e+003;1.260617e-002
3.085677e+003;1.245372e-002
3.087605e+003;1.250201e-002
3.089534e+003;1.252810e-002
3.091462e+003;1.247463e-002
3.093391e+003;1.241298e-002
3.095320e+003;1.225263e-002
3.097248e+003;1.211056e-002
3.099177e+003;1.210065e-002
3.101105e+003;1.212668e-002
3.103034e+003;1.188286e-002
3.104962e+003;1.180737e-002
3.106891e+003;1.176004e-002
3.108819e+003;1.165959e-002
3.110748e+003;1.178575e-002
3.112677e+003;1.193663e-002
3.114605e+003;1.187305e-002
3.116533e+003;1.168931e-002
3.118462e+003;1.142927e-002
3.120391e+003;1.154981e-002
3.122319e+003;1.170394e-002
3.124248e+003;1.144481e-002
3.126176e+003;1.144917e-002
3.128105e+003;1.172443e-002
3.130033e+003;1.219285e-002
3.131962e+003;1.279699e-002
3.133890e+003;1.254232e-002
3.135819e+003;1.204341e-002
3.137748e+003;1.182575e-002
3.139676e+003;1.217217e-002
3.141605e+003;1.271199e-002
3.143533e+003;1.289736e-002
3.145462e+003;1.269374e-002
3.147390e+003;1.234087e-002
3.149319e+003;1.265293e-002
3.151247e+003;1.281528e-002
3.153176e+003;1.229278e-002
3.155104e+003;1.207063e-002
3.157033e+003;1.215107e-002
3.158962e+003;1.250631e-002
3.160890e+003;1.261374e-002
3.162819e+003;1.229915e-002
3.164747e+003;1.232959e-002
3.166676e+003;1.216981e-002
3.168604e+003;1.211271e-002
3.170533e+003;1.250289e-002
3.172461e+003;1.252701e-002
3.174390e+003;1.203381e-002
3.176319e+003;1.164012e-002
3.178247e+003;1.194290e-002
3.180176e+003;1.228541e-002
3.182104e+003;1.203908e-002
3.184033e+003;1.187465e-002
3.185961e+003;1.242171e-002
3.187890e+003;1.247463e-002
3.189818e+003;1.226830e-002
3.191747e+003;1.227475e-002
3.193676e+003;1.237732e-002
3.195604e+003;1.236296e-002
3.197532e+003;1.239729e-002
3.199461e+003;1.230406e-002
3.201390e+003;1.234346e-002
3.203318e+003;1.242177e-002
3.205247e+003;1.214412e-002
3.207175e+003;1.180812e-002
3.209104e+003;1.154535e-002
3.211032e+003;1.159176e-002
3.212961e+003;1.159806e-002
3.214889e+003;1.133365e-002
3.216818e+003;1.132814e-002
3.218747e+003;1.115626e-002
3.220675e+003;1.061558e-002
3.222604e+003;1.055155e-002
3.224532e+003;1.079550e-002
3.226461e+003;1.050755e-002
3.228389e+003;1.014774e-002
3.230318e+003;9.890996e-003
3.232246e+003;9.692099e-003
3.234175e+003;9.398612e-003
3.236104e+003;9.112903e-003
3.238032e+003;8.926740e-003
3.239961e+003;8.783121e-003
3.241889e+003;8.621467e-003
3.243818e+003;8.258354e-003
3.245746e+003;7.756921e-003
3.247675e+003;7.854853e-003
3.249603e+003;8.307053e-003
3.251532e+003;8.383254e-003
3.253460e+003;8.242077e-003
3.255389e+003;7.627277e-003
3.257318e+003;7.542106e-003
3.259246e+003;7.970356e-003
3.261175e+003;7.881372e-003
3.263103e+003;7.736412e-003
3.265032e+003;7.255156e-003
3.266960e+003;6.591926e-003
3.268889e+003;6.410707e-003
3.270817e+003;6.869888e-003
3.272746e+003;7.526294e-003
3.274675e+003;7.749028e-003
3.276603e+003;7.443064e-003
3.278531e+003;7.457423e-003
3.280460e+003;7.353211e-003
3.282389e+003;7.345966e-003
3.284317e+003;7.393417e-003
3.286246e+003;7.048099e-003
3.288174e+003;7.071437e-003
3.290103e+003;7.499594e-003
3.292031e+003;7.939242e-003
3.293960e+003;7.639721e-003
3.295888e+003;7.206911e-003
3.297817e+003;7.168879e-003
3.299746e+003;6.967654e-003
3.301674e+003;7.012101e-003
3.303603e+003;7.052039e-003
3.305531e+003;6.837270e-003
3.307460e+003;6.790082e-003
3.309388e+003;7.153350e-003
3.311317e+003;7.222880e-003
3.313245e+003;6.989641e-003
3.315174e+003;6.908029e-003
3.317103e+003;7.027220e-003
3.319031e+003;6.948160e-003
3.320960e+003;6.720957e-003
3.322888e+003;6.880357e-003
3.324817e+003;6.958530e-003
3.326745e+003;7.033080e-003
3.328674e+003;7.339024e-003
3.330602e+003;7.077937e-003
3.332531e+003;6.631523e-003
3.334459e+003;7.108249e-003
3.336388e+003;7.545646e-003
3.338317e+003;7.335519e-003
3.340245e+003;7.401607e-003
3.342174e+003;7.420481e-003
3.344102e+003;7.502055e-003
3.346031e+003;7.909446e-003
3.347959e+003;8.117015e-003
3.349888e+003;8.288782e-003
3.351816e+003;7.865515e-003
3.353745e+003;7.357828e-003
3.355674e+003;7.217490e-003
3.357602e+003;7.075984e-003
3.359531e+003;6.958631e-003
3.361459e+003;7.011865e-003
3.363388e+003;7.537116e-003
3.365316e+003;7.823410e-003
3.367245e+003;7.450918e-003
3.369173e+003;7.246363e-003
3.371102e+003;7.116703e-003
3.373031e+003;7.043048e-003
3.374959e+003;7.351425e-003
3.376887e+003;7.426245e-003
3.378816e+003;7.130984e-003
3.380745e+003;6.792438e-003
3.382673e+003;6.611371e-003
3.384602e+003;6.514593e-003
3.386530e+003;6.337878e-003
3.388459e+003;6.340769e-003
3.390387e+003;6.714295e-003
3.392316e+003;7.266578e-003
3.394244e+003;7.382700e-003
3.396173e+003;7.190539e-003
3.398102e+003;7.009508e-003
3.400030e+003;6.538272e-003
3.401959e+003;6.199213e-003
3.403887e+003;5.929539e-003
3.405816e+003;6.005492e-003
3.407744e+003;6.498919e-003
3.409673e+003;6.498684e-003
3.411601e+003;6.213094e-003
3.413530e+003;6.566864e-003
3.415458e+003;6.885373e-003
3.417387e+003;7.025233e-003
3.419316e+003;6.946409e-003
3.421244e+003;6.914627e-003
3.423173e+003;7.039209e-003
3.425101e+003;6.787760e-003
3.427030e+003;6.354386e-003
3.428958e+003;6.131157e-003
3.430887e+003;5.883860e-003
3.432815e+003;5.638919e-003
3.434744e+003;5.632340e-003
3.436673e+003;6.079879e-003
3.438601e+003;6.481262e-003
3.440530e+003;6.291584e-003
3.442458e+003;6.183013e-003
3.444387e+003;6.056426e-003
3.446315e+003;5.246832e-003
3.448244e+003;4.766013e-003
3.450172e+003;4.742966e-003
3.452101e+003;4.905327e-003
3.454030e+003;4.798844e-003
3.455958e+003;4.587563e-003
3.457886e+003;4.772881e-003
3.459815e+003;4.856740e-003
3.461744e+003;4.521802e-003
3.463672e+003;4.188059e-003
3.465601e+003;4.227639e-003
3.467529e+003;4.395564e-003
3.469458e+003;4.200839e-003
3.471386e+003;4.193078e-003
3.473315e+003;4.320696e-003
3.475243e+003;4.403095e-003
3.477172e+003;4.440987e-003
3.479101e+003;4.184480e-003
3.481029e+003;3.779297e-003
3.482958e+003;3.551340e-003
3.484886e+003;3.372822e-003
3.486815e+003;3.370551e-003
3.488743e+003;3.469303e-003
3.490672e+003;3.453171e-003
3.492600e+003;3.139105e-003
3.494529e+003;3.142308e-003
3.496458e+003;3.247285e-003
3.498386e+003;3.385544e-003
3.500315e+003;3.108835e-003
3.502243e+003;2.878462e-003
3.504172e+003;3.280068e-003
3.506100e+003;3.955040e-003
3.508029e+003;3.524416e-003
3.509957e+003;2.913586e-003
3.511886e+003;3.222716e-003
3.513814e+003;3.485369e-003
3.515743e+003;3.063184e-003
3.517672e+003;2.964158e-003
3.519600e+003;3.522412e-003
3.521529e+003;3.284641e-003
3.523457e+003;2.679249e-003
3.525386e+003;2.535248e-003
3.527314e+003;2.600909e-003
3.529243e+003;2.745599e-003
3.531171e+003;2.913285e-003
3.533100e+003;2.804055e-003
3.535029e+003;2.465498e-003
3.536957e+003;2.535847e-003
3.538885e+003;2.756802e-003
3.540814e+003;2.871858e-003
3.542743e+003;2.743398e-003
3.544671e+003;2.419881e-003
3.546600e+003;2.566544e-003
3.548528e+003;2.862185e-003
3.550457e+003;2.465897e-003
3.552385e+003;2.165431e-003
3.554314e+003;2.218547e-003
3.556242e+003;2.021334e-003
3.558171e+003;1.788476e-003
3.560100e+003;1.920980e-003
3.562028e+003;2.116616e-003
3.563957e+003;1.637952e-003
3.565885e+003;2.333595e-004
3.567814e+003;5.139394e-005
3.569742e+003;1.361157e-003
3.571671e+003;2.060683e-003
3.573599e+003;1.819252e-003
3.575528e+003;1.655380e-003
3.577457e+003;1.856120e-003
3.579385e+003;1.939884e-003
3.581314e+003;2.019869e-003
3.583242e+003;1.818587e-003
3.585171e+003;7.793156e-004
3.587099e+003;-4.181159e-004
3.589028e+003;-2.998527e-005
3.590956e+003;1.130679e-003
3.592885e+003;1.357833e-003
3.594813e+003;1.401343e-003
3.596742e+003;1.583077e-003
3.598671e+003;1.736477e-003
3.600599e+003;2.115451e-003
3.602528e+003;2.382032e-003
3.604456e+003;1.863707e-003
3.606385e+003;5.822902e-004
3.608313e+003;-5.014261e-004
3.610242e+003;-3.028058e-004
3.612170e+003;-3.773984e-004
3.614099e+003;-2.345827e-005
3.616028e+003;1.546641e-004
3.617956e+003;-7.692871e-004
3.619885e+003;-3.679964e-004
3.621813e+003;1.248162e-003
3.623742e+003;1.365644e-003
3.625670e+003;5.354791e-005
3.627599e+003;-3.285735e-003
3.629527e+003;-3.362414e-003
3.631456e+003;-8.027636e-005
3.633385e+003;8.410600e-004
3.635313e+003;1.118952e-003
3.637241e+003;1.395227e-003
3.639170e+003;1.219320e-003
3.641099e+003;1.110116e-003
3.643027e+003;1.070355e-003
3.644956e+003;7.972782e-005
3.646884e+003;-2.409800e-003
3.648813e+003;-4.305003e-003
3.650741e+003;-2.892227e-003
3.652670e+003;-2.189939e-004
3.654598e+003;-6.028859e-004
3.656527e+003;-9.671982e-004
3.658456e+003;6.432102e-004
3.660384e+003;1.343441e-003
3.662313e+003;1.479899e-003
3.664241e+003;1.920215e-003
3.666170e+003;1.422651e-003
3.668098e+003;-1.333914e-003
3.670027e+003;-3.276001e-003
3.671955e+003;-1.908166e-003
3.673884e+003;-3.460348e-003
3.675813e+003;-3.976709e-003
3.677741e+003;-3.083022e-004
3.679669e+003;1.258596e-003
3.681598e+003;1.933660e-003
3.683527e+003;2.011447e-003
3.685455e+003;5.513689e-004
3.687384e+003;-2.689594e-003
3.689312e+003;-2.702140e-003
3.691241e+003;-4.773978e-004
3.693169e+003;1.306550e-003
3.695098e+003;2.356246e-003
3.697026e+003;2.547479e-003
3.698955e+003;2.211253e-003
3.700884e+003;1.136991e-003
3.702812e+003;1.213206e-003
3.704741e+003;2.152411e-003
3.706669e+003;1.840747e-003
3.708598e+003;5.355110e-004
3.710526e+003;-8.532574e-004
3.712455e+003;-7.695186e-004
3.714383e+003;1.201045e-003
3.716312e+003;1.858982e-003
3.718240e+003;1.732518e-003
3.720169e+003;1.391471e-003
3.722098e+003;9.534839e-004
3.724026e+003;6.969039e-004
3.725955e+003;4.326146e-004
3.727883e+003;1.096064e-003
3.729812e+003;3.997141e-004
3.731740e+003;-1.699198e-003
3.733669e+003;-2.606603e-003
3.735597e+003;-3.155658e-003
3.737526e+003;-1.153486e-003
3.739455e+003;8.942801e-004
3.741383e+003;-9.627685e-005
3.743312e+003;-5.306829e-003
3.745240e+003;-4.877997e-003
3.747169e+003;-2.471776e-003
3.749097e+003;-5.163572e-003
3.751026e+003;-5.409332e-003
3.752954e+003;-1.915523e-003
3.754883e+003;1.381200e-003
3.756812e+003;1.343940e-003
3.758740e+003;9.864264e-004
3.760668e+003;1.691303e-003
3.762597e+003;2.614209e-003
3.764526e+003;1.870795e-003
3.766454e+003;2.040475e-003
3.768383e+003;1.584940e-003
3.770311e+003;1.625280e-003
3.772240e+003;2.785013e-003
3.774168e+003;3.062184e-003
3.776097e+003;2.504020e-003
3.778025e+003;1.772739e-003
3.779954e+003;1.489674e-003
3.781883e+003;2.187376e-003
3.783811e+003;2.807890e-003
3.785740e+003;3.172814e-003
3.787668e+003;2.928129e-003
3.789597e+003;3.015103e-003
3.791525e+003;2.638077e-003
3.793454e+003;2.075098e-003
3.795382e+003;1.362287e-003
3.797311e+003;1.008412e-003
3.799240e+003;-9.490808e-004
3.801168e+003;-2.627649e-003
3.803097e+003;4.353343e-004
3.805025e+003;8.947781e-004
3.806954e+003;-7.610222e-005
3.808882e+003;2.088848e-003
3.810811e+003;3.076065e-003
3.812739e+003;2.152211e-003
3.814668e+003;-1.217062e-003
3.816596e+003;-1.341610e-003
3.818525e+003;4.023010e-004
3.820454e+003;-9.440554e-004
3.822382e+003;3.917216e-004
3.824311e+003;2.547846e-003
3.826239e+003;2.840139e-003
3.828168e+003;2.987077e-003
3.830096e+003;2.443739e-003
3.832025e+003;1.745991e-003
3.833953e+003;5.926088e-004
3.835882e+003;-1.517469e-003
3.837811e+003;-2.635553e-003
3.839739e+003;-5.804847e-004
3.841667e+003;1.257599e-003
3.843596e+003;1.698920e-003
3.845525e+003;2.665647e-003
3.847453e+003;3.456177e-003
3.849382e+003;1.332805e-003
3.851310e+003;-4.015810e-003
3.853239e+003;-7.860100e-003
3.855167e+003;-3.425569e-003
3.857096e+003;1.631100e-003
3.859024e+003;2.719758e-003
3.860953e+003;2.175421e-003
3.862882e+003;1.553116e-003
3.864810e+003;1.492001e-003
3.866739e+003;1.619826e-003
3.868667e+003;-3.355513e-004
3.870596e+003;-2.347906e-004
3.872524e+003;1.356669e-003
3.874453e+003;2.082556e-003
3.876381e+003;3.196078e-003
3.878310e+003;2.366641e-003
3.880239e+003;1.606589e-003
3.882167e+003;2.351016e-003
3.884096e+003;4.997500e-004
3.886024e+003;2.878314e-004
3.887953e+003;3.179289e-003
3.889881e+003;2.678482e-003
3.891810e+003;2.326598e-003
3.893738e+003;3.919231e-003
3.895667e+003;4.059377e-003
3.897595e+003;2.538914e-003
3.899524e+003;1.109152e-003
3.901453e+003;1.212143e-003
3.903381e+003;1.669682e-003
3.905310e+003;2.605342e-003
3.907238e+003;3.580338e-003
3.909167e+003;4.287734e-003
3.911095e+003;4.678923e-003
3.913024e+003;4.607555e-003
3.914952e+003;4.298208e-003
3.916881e+003;3.818872e-003
3.918810e+003;3.845313e-003
3.920738e+003;4.198598e-003
3.922667e+003;4.184112e-003
3.924595e+003;3.754765e-003
3.926524e+003;4.034093e-003
3.928452e+003;4.672860e-003
3.930381e+003;4.479953e-003
3.932309e+003;4.063825e-003
3.934238e+003;4.727423e-003
3.936167e+003;5.424344e-003
3.938095e+003;5.461151e-003
3.940023e+003;4.838680e-003
3.941952e+003;4.095967e-003
3.943881e+003;3.987309e-003
3.945809e+003;4.157282e-003
3.947738e+003;4.030080e-003
3.949666e+003;4.100082e-003
3.951595e+003;4.581837e-003
3.953523e+003;5.012707e-003
3.955452e+003;5.257362e-003
3.957380e+003;5.351345e-003
3.959309e+003;4.619276e-003
3.961238e+003;3.789792e-003
3.963166e+003;4.072989e-003
3.965095e+003;4.805679e-003
3.967023e+003;5.256792e-003
3.968952e+003;5.132352e-003
3.970880e+003;4.890616e-003
3.972809e+003;4.957908e-003
3.974737e+003;4.661272e-003
3.976666e+003;4.510352e-003
3.978594e+003;5.004629e-003
3.980523e+003;5.414313e-003
3.982452e+003;5.392238e-003
3.984380e+003;5.172822e-003
3.986309e+003;4.961494e-003
3.988237e+003;5.150257e-003
3.990166e+003;5.720058e-003
3.992094e+003;5.990475e-003
3.994023e+003;5.908547e-003
3.995951e+003;6.076015e-003
3.997880e+003;6.194709e-003
3.999809e+003;6.418408e-003
4.001737e+003;0.000000e+000
