3.992094e+002;0.000000e+000
4.011380e+002;0.000000e+000
4.030665e+002;0.000000e+000
4.049951e+002;0.000000e+000
4.069236e+002;0.000000e+000
4.088522e+002;0.000000e+000
4.107807e+002;0.000000e+000
4.127093e+002;0.000000e+000
4.146378e+002;0.000000e+000
4.165664e+002;0.000000e+000
4.184949e+002;0.000000e+000
4.204235e+002;0.000000e+000
4.223520e+002;0.000000e+000
4.242806e+002;0.000000e+000
4.262091e+002;0.000000e+000
4.281377e+002;0.000000e+000
4.300662e+002;0.000000e+000
4.319948e+002;0.000000e+000
4.339233e+002;0.000000e+000
4.358519e+002;0.000000e+000
4.377804e+002;0.000000e+000
4.397090e+002;0.000000e+000
4.416375e+002;0.000000e+000
4.435660e+002;0.000000e+000
4.454946e+002;0.000000e+000
4.474232e+002;0.000000e+000
4.493517e+002;0.000000e+000
4.512802e+002;0.000000e+000
4.532088e+002;0.000000e+000
4.551373e+002;0.000000e+000
4.570659e+002;0.000000e+000
4.589944e+002;0.000000e+000
4.609230e+002;0.000000e+000
4.628515e+002;0.000000e+000
4.647801e+002;0.000000e+000
4.667086e+002;0.000000e+000
4.686372e+002;0.000000e+000
4.705657e+002;0.000000e+000
4.724943e+002;0.000000e+000
4.744228e+002;0.000000e+000
4.763513e+002;0.000000e+000
4.782799e+002;0.000000e+000
4.802085e+002;0.000000e+000
4.821370e+002;0.000000e+000
4.840656e+002;0.000000e+000
4.859941e+002;0.000000e+000
4.879226e+002;0.000000e+000
4.898512e+002;0.000000e+000
4.917798e+002;0.000000e+000
4.937083e+002;0.000000e+000
4.956368e+002;0.000000e+000
4.975654e+002;0.000000e+000
4.994939e+002;0.000000e+000
5.014225e+002;0.000000e+000
5.033510e+002;0.000000e+000
5.052796e+002;0.000000e+000
5.072081e+002;0.000000e+000
5.091367e+002;0.000000e+000
5.110652e+002;0.000000e+000
5.129938e+002;0.000000e+000
5.149223e+002;0.000000e+000
5.168509e+002;0.000000e+000
5.187794e+002;0.000000e+000
5.207079e+002;0.000000e+000
5.226365e+002;0.000000e+000
5.245651e+002;0.000000e+000
5.264936e+002;0.000000e+000
5.284222e+002;0.000000e+000
5.303507e+002;0.000000e+000
5.322792e+002;0.000000e+000
5.342078e+002;0.000000e+000
5.361364e+002;0.000000e+000
5.380649e+002;0.000000e+000
5.399935e+002;0.000000e+000
5.419220e+002;0.000000e+000
5.438505e+002;0.000000e+000
5.457791e+002;0.000000e+000
5.477076e+002;0.000000e+000
5.496362e+002;0.000000e+000
5.515648e+002;0.000000e+000
5.534933e+002;0.000000e+000
5.554218e+002;0.000000e+000
5.573504e+002;0.000000e+000
5.592789e+002;0.000000e+000
5.612075e+002;0.000000e+000
5.631360e+002;0.000000e+000
5.650646e+002;0.000000e+000
5.669931e+002;0.000000e+000
5.689217e+002;0.000000e+000
5.708502e+002;0.000000e+000
5.727787e+002;0.000000e+000
5.747073e+002;0.000000e+000
5.766359e+002;0.000000e+000
5.785644e+002;0.000000e+000
5.804930e+002;0.000000e+000
5.824215e+002;0.000000e+000
5.843500e+002;0.000000e+000
5.862786e+002;0.000000e+000
5.882072e+002;0.000000e+000
5.901357e+002;0.000000e+000
5.920643e+002;0.000000e+000
5.939928e+002;0.000000e+000
5.959213e+002;0.000000e+000
5.978499e+002;0.000000e+000
5.997784e+002;5.617991e-002
6.017070e+002;5.035248e-002
6.036355e+002;5.070717e-002
6.055641e+002;5.332023e-002
6.074926e+002;5.421478e-002
6.094211e+002;5.033012e-002
6.113497e+002;4.838393e-002
6.132783e+002;4.985921e-002
6.152068e+002;4.974617e-002
6.171354e+002;5.036554e-002
6.190639e+002;5.266117e-002
6.209924e+002;5.137286e-002
6.229210e+002;4.893167e-002
6.248495e+002;4.873531e-002
6.267781e+002;5.031751e-002
6.287067e+002;5.068814e-002
6.306352e+002;4.777407e-002
6.325637e+002;4.851869e-002
6.344923e+002;4.902365e-002
6.364208e+002;4.831896e-002
6.383494e+002;4.993184e-002
6.402780e+002;5.001105e-002
6.422065e+002;4.725519e-002
6.441350e+002;4.802487e-002
6.460636e+002;4.748315e-002
6.479921e+002;4.731146e-002
6.499207e+002;5.034560e-002
6.518492e+002;4.947568e-002
6.537778e+002;4.917654e-002
6.557063e+002;5.143585e-002
6.576349e+002;5.039903e-002
6.595634e+002;4.942712e-002
6.614919e+002;5.239534e-002
6.634205e+002;5.284147e-002
6.653491e+002;5.129712e-002
6.672776e+002;5.122945e-002
6.692062e+002;5.064793e-002
6.711347e+002;5.184560e-002
6.730632e+002;5.298972e-002
6.749918e+002;5.183552e-002
6.769203e+002;5.248735e-002
6.788489e+002;5.232062e-002
6.807775e+002;5.091102e-002
6.827060e+002;4.997678e-002
6.846345e+002;5.062708e-002
6.865631e+002;5.122128e-002
6.884916e+002;4.962372e-002
6.904202e+002;4.898871e-002
6.923488e+002;4.960169e-002
6.942773e+002;4.972800e-002
6.962058e+002;5.065754e-002
6.981344e+002;5.115508e-002
7.000629e+002;5.055587e-002
7.019915e+002;5.024909e-002
7.039200e+002;5.100868e-002
7.058486e+002;5.197839e-002
7.077771e+002;5.321614e-002
7.097057e+002;5.307920e-002
7.116342e+002;5.331870e-002
7.135627e+002;5.477425e-002
7.154913e+002;5.569467e-002
7.174199e+002;5.551578e-002
7.193484e+002;5.470514e-002
7.212770e+002;5.382439e-002
7.232055e+002;5.415660e-002
7.251340e+002;5.481703e-002
7.270626e+002;5.468623e-002
7.289911e+002;5.477226e-002
7.309197e+002;5.503651e-002
7.328483e+002;5.425788e-002
7.347768e+002;5.268575e-002
7.367053e+002;5.264685e-002
7.386339e+002;5.478031e-002
7.405624e+002;5.499965e-002
7.424910e+002;5.473900e-002
7.444196e+002;5.449124e-002
7.463481e+002;5.455732e-002
7.482766e+002;5.491147e-002
7.502052e+002;5.451967e-002
7.521337e+002;5.490384e-002
7.540623e+002;5.520218e-002
7.559908e+002;5.519315e-002
7.579194e+002;5.528797e-002
7.598479e+002;5.529354e-002
7.617765e+002;5.587615e-002
7.637050e+002;5.644947e-002
7.656335e+002;5.634636e-002
7.675621e+002;5.662247e-002
7.694907e+002;5.645807e-002
7.714192e+002;5.620703e-002
7.733478e+002;5.635620e-002
7.752763e+002;5.624327e-002
7.772048e+002;5.601232e-002
7.791334e+002;5.569904e-002
7.810620e+002;5.543932e-002
7.829905e+002;5.586210e-002
7.849191e+002;5.655083e-002
7.868476e+002;5.717138e-002
7.887761e+002;5.775451e-002
7.907047e+002;5.839967e-002
7.926332e+002;5.924265e-002
7.945618e+002;5.993244e-002
7.964903e+002;6.142331e-002
7.984189e+002;6.329726e-002
8.003474e+002;6.439893e-002
8.022759e+002;6.598110e-002
8.042045e+002;6.792512e-002
8.061331e+002;7.054720e-002
8.080616e+002;7.475396e-002
8.099902e+002;7.707532e-002
8.119187e+002;7.620814e-002
8.138472e+002;7.301587e-002
8.157758e+002;6.907554e-002
8.177043e+002;6.572364e-002
8.196329e+002;6.328086e-002
8.215615e+002;6.255531e-002
8.234900e+002;6.257702e-002
8.254185e+002;6.195382e-002
8.273471e+002;6.162488e-002
8.292756e+002;6.200702e-002
8.312042e+002;6.267028e-002
8.331328e+002;6.357880e-002
8.350613e+002;6.534627e-002
8.369898e+002;6.921483e-002
8.389184e+002;7.602356e-002
8.408469e+002;8.315817e-002
8.427755e+002;8.304860e-002
8.447040e+002;7.629550e-002
8.466326e+002;6.943490e-002
8.485611e+002;6.532644e-002
8.504897e+002;6.336704e-002
8.524182e+002;6.230320e-002
8.543467e+002;6.142091e-002
8.562753e+002;6.048261e-002
8.582039e+002;5.946829e-002
8.601324e+002;5.869408e-002
8.620610e+002;5.863192e-002
8.639895e+002;5.863268e-002
8.659180e+002;5.874161e-002
8.678466e+002;5.884518e-002
8.697751e+002;5.870103e-002
8.717037e+002;5.854490e-002
8.736323e+002;5.857224e-002
8.755608e+002;5.838614e-002
8.774893e+002;5.805239e-002
8.794179e+002;5.752745e-002
8.813464e+002;5.689397e-002
8.832750e+002;5.748115e-002
8.852036e+002;5.845023e-002
8.871321e+002;5.854141e-002
8.890606e+002;5.890597e-002
8.909892e+002;6.059551e-002
8.929177e+002;6.319156e-002
8.948463e+002;6.679458e-002
8.967748e+002;7.169913e-002
8.987034e+002;7.543814e-002
9.006319e+002;7.573271e-002
9.025605e+002;7.273220e-002
9.044890e+002;6.742654e-002
9.064175e+002;6.183507e-002
9.083461e+002;5.828249e-002
9.102747e+002;5.703401e-002
9.122032e+002;5.565580e-002
9.141318e+002;5.416564e-002
9.160603e+002;5.409339e-002
9.179888e+002;5.429636e-002
9.199174e+002;5.392608e-002
9.218459e+002;5.368782e-002
9.237745e+002;5.356118e-002
9.257031e+002;5.367931e-002
9.276316e+002;5.432362e-002
9.295601e+002;5.459763e-002
9.314887e+002;5.449721e-002
9.334172e+002;5.488933e-002
9.353458e+002;5.594851e-002
9.372744e+002;5.748123e-002
9.392029e+002;5.917468e-002
9.411314e+002;6.010668e-002
9.430600e+002;6.014592e-002
9.449885e+002;5.990692e-002
9.469171e+002;5.926571e-002
9.488456e+002;5.846373e-002
9.507742e+002;5.822853e-002
9.527027e+002;5.892562e-002
9.546313e+002;5.968242e-002
9.565598e+002;6.004017e-002
9.584883e+002;6.049214e-002
9.604169e+002;6.158288e-002
9.623455e+002;6.341837e-002
9.642740e+002;6.641380e-002
9.662026e+002;7.060037e-002
9.681311e+002;7.661689e-002
9.700596e+002;8.467029e-002
9.719882e+002;9.216420e-002
9.739167e+002;9.492189e-002
9.758453e+002;9.155437e-002
9.777739e+002;8.385610e-002
9.797024e+002;7.475491e-002
9.816309e+002;6.662953e-002
9.835595e+002;6.171100e-002
9.854880e+002;5.956432e-002
9.874166e+002;5.933164e-002
9.893452e+002;6.075611e-002
9.912737e+002;6.371319e-002
9.932022e+002;6.904373e-002
9.951307e+002;7.647225e-002
9.970593e+002;8.311938e-002
9.989879e+002;8.435781e-002
1.000916e+003;7.936171e-002
1.002845e+003;7.218836e-002
1.004773e+003;6.633362e-002
1.006702e+003;6.262592e-002
1.008631e+003;6.002770e-002
1.010559e+003;5.853504e-002
1.012488e+003;5.720415e-002
1.014416e+003;5.603879e-002
1.016345e+003;5.542392e-002
1.018273e+003;5.545611e-002
1.020202e+003;5.581737e-002
1.022130e+003;5.567964e-002
1.024059e+003;5.530145e-002
1.025988e+003;5.544052e-002
1.027916e+003;5.608995e-002
1.029845e+003;5.707335e-002
1.031773e+003;5.784035e-002
1.033702e+003;5.854987e-002
1.035630e+003;6.010649e-002
1.037559e+003;6.142636e-002
1.039487e+003;6.195481e-002
1.041416e+003;6.216428e-002
1.043344e+003;6.257468e-002
1.045273e+003;6.244891e-002
1.047202e+003;6.165868e-002
1.049130e+003;6.085384e-002
1.051059e+003;6.024339e-002
1.052987e+003;5.941913e-002
1.054916e+003;5.904283e-002
1.056844e+003;5.932298e-002
1.058773e+003;5.909897e-002
1.060701e+003;5.841760e-002
1.062630e+003;5.793996e-002
1.064558e+003;5.786397e-002
1.066487e+003;5.843985e-002
1.068416e+003;5.851521e-002
1.070344e+003;5.795317e-002
1.072273e+003;5.859256e-002
1.074201e+003;5.888256e-002
1.076130e+003;5.827158e-002
1.078058e+003;5.812231e-002
1.079987e+003;5.853409e-002
1.081915e+003;5.911264e-002
1.083844e+003;5.896179e-002
1.085773e+003;5.890506e-002
1.087701e+003;5.984512e-002
1.089630e+003;6.072022e-002
1.091558e+003;6.049621e-002
1.093487e+003;6.070276e-002
1.095415e+003;6.189677e-002
1.097344e+003;6.350769e-002
1.099272e+003;6.575005e-002
1.101201e+003;6.722597e-002
1.103129e+003;6.770519e-002
1.105058e+003;6.713945e-002
1.106987e+003;6.530341e-002
1.108915e+003;6.338659e-002
1.110844e+003;6.162496e-002
1.112772e+003;6.025835e-002
1.114701e+003;5.964939e-002
1.116629e+003;5.923411e-002
1.118558e+003;5.824699e-002
1.120486e+003;5.760738e-002
1.122415e+003;5.757046e-002
1.124344e+003;5.786098e-002
1.126272e+003;5.786144e-002
1.128201e+003;5.763557e-002
1.130129e+003;5.774239e-002
1.132058e+003;5.831549e-002
1.133986e+003;5.902321e-002
1.135915e+003;6.034762e-002
1.137843e+003;6.188026e-002
1.139772e+003;6.340933e-002
1.141700e+003;6.546649e-002
1.143629e+003;6.813295e-002
1.145557e+003;7.146060e-002
1.147486e+003;7.470449e-002
1.149415e+003;7.801344e-002
1.151343e+003;8.098978e-002
1.153272e+003;8.262037e-002
1.155200e+003;8.337568e-002
1.157129e+003;8.361341e-002
1.159057e+003;8.416346e-002
1.160986e+003;8.518786e-002
1.162914e+003;8.632735e-002
1.164843e+003;8.727500e-002
1.166771e+003;8.826600e-002
1.168700e+003;8.794817e-002
1.170629e+003;8.507157e-002
1.172557e+003;8.121167e-002
1.174486e+003;7.684593e-002
1.176414e+003;7.240669e-002
1.178343e+003;6.866226e-002
1.180271e+003;6.584543e-002
1.182200e+003;6.388319e-002
1.184128e+003;6.313538e-002
1.186057e+003;6.290710e-002
1.187986e+003;6.252696e-002
1.189914e+003;6.223081e-002
1.191843e+003;6.235480e-002
1.193771e+003;6.244271e-002
1.195700e+003;6.214326e-002
1.197628e+003;6.201180e-002
1.199557e+003;6.233311e-002
1.201485e+003;6.237144e-002
1.203414e+003;6.251606e-002
1.205343e+003;6.281561e-002
1.207271e+003;6.343866e-002
1.209200e+003;6.428892e-002
1.211128e+003;6.518882e-002
1.213057e+003;6.630684e-002
1.214985e+003;6.724640e-002
1.216914e+003;6.800300e-002
1.218842e+003;6.865516e-002
1.220771e+003;6.850205e-002
1.222699e+003;6.727224e-002
1.224628e+003;6.613340e-002
1.226557e+003;6.554081e-002
1.228485e+003;6.516390e-002
1.230414e+003;6.500851e-002
1.232342e+003;6.526651e-002
1.234271e+003;6.534096e-002
1.236199e+003;6.511401e-002
1.238128e+003;6.511417e-002
1.240056e+003;6.554247e-002
1.241985e+003;6.560066e-002
1.243913e+003;6.557534e-002
1.245842e+003;6.613395e-002
1.247771e+003;6.681816e-002
1.249699e+003;6.765419e-002
1.251628e+003;6.958609e-002
1.253556e+003;7.198323e-002
1.255485e+003;7.321353e-002
1.257413e+003;7.273442e-002
1.259342e+003;7.115350e-002
1.261270e+003;6.918021e-002
1.263199e+003;6.729022e-002
1.265127e+003;6.635775e-002
1.267056e+003;6.588072e-002
1.268985e+003;6.531635e-002
1.270913e+003;6.479929e-002
1.272842e+003;6.440704e-002
1.274770e+003;6.441499e-002
1.276699e+003;6.460781e-002
1.278627e+003;6.436323e-002
1.280556e+003;6.426894e-002
1.282484e+003;6.475028e-002
1.284413e+003;6.531873e-002
1.286342e+003;6.623860e-002
1.288270e+003;6.744400e-002
1.290199e+003;6.834348e-002
1.292127e+003;6.906369e-002
1.294056e+003;6.984036e-002
1.295984e+003;7.025613e-002
1.297913e+003;7.028504e-002
1.299841e+003;6.998421e-002
1.301770e+003;7.042393e-002
1.303698e+003;7.127952e-002
1.305627e+003;7.051660e-002
1.307556e+003;6.769884e-002
1.309484e+003;6.490774e-002
1.311413e+003;6.353454e-002
1.313341e+003;6.291476e-002
1.315270e+003;6.288955e-002
1.317198e+003;6.336566e-002
1.319127e+003;6.417160e-002
1.321055e+003;6.517522e-002
1.322984e+003;6.653935e-002
1.324912e+003;6.815714e-002
1.326841e+003;6.958932e-002
1.328770e+003;7.054935e-002
1.330698e+003;7.040265e-002
1.332627e+003;6.966711e-002
1.334555e+003;6.866028e-002
1.336484e+003;6.778396e-002
1.338412e+003;6.759782e-002
1.340341e+003;6.823774e-002
1.342269e+003;6.923721e-002
1.344198e+003;7.065818e-002
1.346126e+003;7.266893e-002
1.348055e+003;7.564779e-002
1.349984e+003;7.953282e-002
1.351912e+003;8.408947e-002
1.353841e+003;9.013801e-002
1.355769e+003;9.776799e-002
1.357698e+003;1.044777e-001
1.359626e+003;1.072493e-001
1.361555e+003;1.061102e-001
1.363483e+003;1.049768e-001
1.365412e+003;1.070934e-001
1.367341e+003;1.151548e-001
1.369269e+003;1.311155e-001
1.371198e+003;1.548042e-001
1.373126e+003;1.813858e-001
1.375055e+003;2.009077e-001
1.376983e+003;2.008682e-001
1.378912e+003;1.799830e-001
1.380840e+003;1.516848e-001
1.382769e+003;1.262357e-001
1.384698e+003;1.063640e-001
1.386626e+003;9.179753e-002
1.388555e+003;8.189934e-002
1.390483e+003;7.583591e-002
1.392412e+003;7.201584e-002
1.394340e+003;6.956591e-002
1.396269e+003;6.827116e-002
1.398197e+003;6.747098e-002
1.400126e+003;6.675598e-002
1.402054e+003;6.652351e-002
1.403983e+003;6.650744e-002
1.405911e+003;6.639177e-002
1.407840e+003;6.641736e-002
1.409769e+003;6.673539e-002
1.411697e+003;6.755562e-002
1.413626e+003;6.808314e-002
1.415554e+003;6.815551e-002
1.417483e+003;6.813528e-002
1.419411e+003;6.859450e-002
1.421340e+003;6.977666e-002
1.423268e+003;7.139299e-002
1.425197e+003;7.372519e-002
1.427125e+003;7.730068e-002
1.429054e+003;8.317250e-002
1.430983e+003;9.209509e-002
1.432911e+003;1.027393e-001
1.434840e+003;1.105461e-001
1.436768e+003;1.133594e-001
1.438697e+003;1.142846e-001
1.440625e+003;1.168142e-001
1.442554e+003;1.226228e-001
1.444482e+003;1.316574e-001
1.446411e+003;1.422907e-001
1.448340e+003;1.521687e-001
1.450268e+003;1.595158e-001
1.452197e+003;1.639717e-001
1.454125e+003;1.658875e-001
1.456054e+003;1.659831e-001
1.457982e+003;1.644813e-001
1.459911e+003;1.617521e-001
1.461839e+003;1.570713e-001
1.463768e+003;1.497563e-001
1.465697e+003;1.402687e-001
1.467625e+003;1.297555e-001
1.469554e+003;1.190692e-001
1.471482e+003;1.089036e-001
1.473411e+003;9.914026e-002
1.475339e+003;9.051879e-002
1.477268e+003;8.313085e-002
1.479196e+003;7.688971e-002
1.481125e+003;7.182894e-002
1.483053e+003;6.762496e-002
1.484982e+003;6.395280e-002
1.486911e+003;6.123034e-002
1.488839e+003;5.940652e-002
1.490768e+003;5.779822e-002
1.492696e+003;5.656483e-002
1.494625e+003;5.586481e-002
1.496553e+003;5.513194e-002
1.498482e+003;5.433661e-002
1.500410e+003;5.390620e-002
1.502339e+003;5.361753e-002
1.504267e+003;5.353750e-002
1.506196e+003;5.333833e-002
1.508125e+003;5.279278e-002
1.510053e+003;5.269368e-002
1.511982e+003;5.312031e-002
1.513910e+003;5.334781e-002
1.515839e+003;5.337512e-002
1.517767e+003;5.318708e-002
1.519696e+003;5.304572e-002
1.521624e+003;5.309746e-002
1.523553e+003;5.308181e-002
1.525481e+003;5.304632e-002
1.527410e+003;5.335886e-002
1.529339e+003;5.349031e-002
1.531267e+003;5.367399e-002
1.533196e+003;5.403872e-002
1.535124e+003;5.417015e-002
1.537053e+003;5.428401e-002
1.538981e+003;5.448034e-002
1.540910e+003;5.509323e-002
1.542838e+003;5.569844e-002
1.544767e+003;5.625062e-002
1.546695e+003;5.649747e-002
1.548624e+003;5.646245e-002
1.550553e+003;5.636601e-002
1.552481e+003;5.653317e-002
1.554410e+003;5.647887e-002
1.556338e+003;5.577336e-002
1.558267e+003;5.460988e-002
1.560195e+003;5.377935e-002
1.562124e+003;5.303812e-002
1.564052e+003;5.241227e-002
1.565981e+003;5.208346e-002
1.567910e+003;5.151594e-002
1.569838e+003;5.053617e-002
1.571767e+003;4.974476e-002
1.573695e+003;4.931976e-002
1.575624e+003;4.942846e-002
1.577552e+003;4.965667e-002
1.579481e+003;4.963683e-002
1.581409e+003;4.963241e-002
1.583338e+003;4.984557e-002
1.585266e+003;4.981926e-002
1.587195e+003;4.944851e-002
1.589124e+003;4.920745e-002
1.591052e+003;4.942794e-002
1.592981e+003;4.990827e-002
1.594909e+003;5.016001e-002
1.596838e+003;5.030337e-002
1.598766e+003;5.072073e-002
1.600695e+003;5.132419e-002
1.602623e+003;5.177851e-002
1.604552e+003;5.243960e-002
1.606480e+003;5.308395e-002
1.608409e+003;5.364662e-002
1.610338e+003;5.420284e-002
1.612266e+003;5.465970e-002
1.614195e+003;5.538940e-002
1.616123e+003;5.647215e-002
1.618052e+003;5.739829e-002
1.619980e+003;5.781529e-002
1.621909e+003;5.824429e-002
1.623837e+003;5.896934e-002
1.625766e+003;5.976918e-002
1.627694e+003;6.063456e-002
1.629623e+003;6.134675e-002
1.631552e+003;6.196464e-002
1.633480e+003;6.238766e-002
1.635409e+003;6.268307e-002
1.637337e+003;6.342942e-002
1.639266e+003;6.441496e-002
1.641194e+003;6.513926e-002
1.643123e+003;6.565187e-002
1.645051e+003;6.623929e-002
1.646980e+003;6.675486e-002
1.648909e+003;6.719720e-002
1.650837e+003;6.733523e-002
1.652766e+003;6.712297e-002
1.654694e+003;6.693125e-002
1.656623e+003;6.687929e-002
1.658551e+003;6.675038e-002
1.660480e+003;6.629626e-002
1.662408e+003;6.568629e-002
1.664337e+003;6.521411e-002
1.666266e+003;6.470840e-002
1.668194e+003;6.412636e-002
1.670123e+003;6.331643e-002
1.672051e+003;6.271553e-002
1.673980e+003;6.235801e-002
1.675908e+003;6.184324e-002
1.677837e+003;6.109386e-002
1.679765e+003;6.049373e-002
1.681694e+003;6.020213e-002
1.683622e+003;5.985820e-002
1.685551e+003;5.942973e-002
1.687479e+003;5.917662e-002
1.689408e+003;5.896134e-002
1.691337e+003;5.885831e-002
1.693265e+003;5.909935e-002
1.695194e+003;5.917210e-002
1.697122e+003;5.918311e-002
1.699051e+003;5.920992e-002
1.700979e+003;5.920441e-002
1.702908e+003;5.960141e-002
1.704836e+003;5.998090e-002
1.706765e+003;6.016974e-002
1.708693e+003;6.020643e-002
1.710622e+003;5.989942e-002
1.712551e+003;5.948824e-002
1.714479e+003;5.905019e-002
1.716408e+003;5.838178e-002
1.718336e+003;5.784516e-002
1.720265e+003;5.776491e-002
1.722193e+003;5.742869e-002
1.724122e+003;5.689359e-002
1.726050e+003;5.640170e-002
1.727979e+003;5.590943e-002
1.729908e+003;5.564424e-002
1.731836e+003;5.577204e-002
1.733765e+003;5.582890e-002
1.735693e+003;5.564563e-002
1.737622e+003;5.540416e-002
1.739550e+003;5.490692e-002
1.741479e+003;5.411614e-002
1.743407e+003;5.270329e-002
1.745336e+003;5.081689e-002
1.747265e+003;4.904390e-002
1.749193e+003;4.739726e-002
1.751122e+003;4.575142e-002
1.753050e+003;4.436721e-002
1.754979e+003;4.314198e-002
1.756907e+003;4.166847e-002
1.758836e+003;4.042049e-002
1.760764e+003;3.924884e-002
1.762693e+003;3.811289e-002
1.764621e+003;3.715348e-002
1.766550e+003;3.656927e-002
1.768479e+003;3.624455e-002
1.770407e+003;3.578762e-002
1.772336e+003;3.530891e-002
1.774264e+003;3.478978e-002
1.776193e+003;3.438350e-002
1.778121e+003;3.401268e-002
1.780050e+003;3.348102e-002
1.781978e+003;3.278437e-002
1.783907e+003;3.197600e-002
1.785835e+003;3.114266e-002
1.787764e+003;3.043925e-002
1.789693e+003;2.974572e-002
1.791621e+003;2.883246e-002
1.793550e+003;2.802653e-002
1.795478e+003;2.750579e-002
1.797407e+003;2.674847e-002
1.799335e+003;2.596300e-002
1.801264e+003;2.537678e-002
1.803192e+003;2.481338e-002
1.805121e+003;2.442043e-002
1.807049e+003;2.428109e-002
1.808978e+003;2.403865e-002
1.810907e+003;2.382221e-002
1.812835e+003;2.372681e-002
1.814764e+003;2.338630e-002
1.816692e+003;2.309603e-002
1.818621e+003;2.318413e-002
1.820549e+003;2.314167e-002
1.822478e+003;2.313933e-002
1.824406e+003;2.332795e-002
1.826335e+003;2.309677e-002
1.828264e+003;2.268501e-002
1.830192e+003;2.261425e-002
1.832121e+003;2.255673e-002
1.834049e+003;2.251370e-002
1.835978e+003;2.266940e-002
1.837906e+003;2.251056e-002
1.839835e+003;2.197609e-002
1.841763e+003;2.171602e-002
1.843692e+003;2.178451e-002
1.845620e+003;2.182033e-002
1.847549e+003;2.172543e-002
1.849478e+003;2.172943e-002
1.851406e+003;2.186047e-002
1.853335e+003;2.175250e-002
1.855263e+003;2.167012e-002
1.857192e+003;2.153277e-002
1.859120e+003;2.120731e-002
1.861049e+003;2.121691e-002
1.862977e+003;2.138844e-002
1.864906e+003;2.123379e-002
1.866834e+003;2.112677e-002
1.868763e+003;2.123326e-002
1.870692e+003;2.105359e-002
1.872620e+003;2.076028e-002
1.874549e+003;2.073335e-002
1.876477e+003;2.067973e-002
1.878406e+003;2.073425e-002
1.880334e+003;2.076911e-002
1.882263e+003;2.078938e-002
1.884191e+003;2.088577e-002
1.886120e+003;2.106190e-002
1.888048e+003;2.116514e-002
1.889977e+003;2.117467e-002
1.891906e+003;2.115161e-002
1.893834e+003;2.115610e-002
1.895763e+003;2.115404e-002
1.897691e+003;2.111616e-002
1.899620e+003;2.105421e-002
1.901548e+003;2.102493e-002
1.903477e+003;2.102622e-002
1.905405e+003;2.070721e-002
1.907334e+003;2.036067e-002
1.909262e+003;2.035976e-002
1.911191e+003;2.028601e-002
1.913120e+003;2.013977e-002
1.915048e+003;2.009687e-002
1.916977e+003;2.023706e-002
1.918905e+003;2.059116e-002
1.920834e+003;2.029473e-002
1.922762e+003;2.000898e-002
1.924691e+003;2.013876e-002
1.926619e+003;2.007262e-002
1.928548e+003;1.979270e-002
1.930477e+003;1.967211e-002
1.932405e+003;1.971652e-002
1.934334e+003;1.963650e-002
1.936262e+003;1.950611e-002
1.938191e+003;1.941078e-002
1.940119e+003;1.926725e-002
1.942048e+003;1.927688e-002
1.943976e+003;1.944813e-002
1.945905e+003;1.940717e-002
1.947833e+003;1.937436e-002
1.949762e+003;1.930009e-002
1.951691e+003;1.929617e-002
1.953619e+003;1.936889e-002
1.955548e+003;1.928131e-002
1.957476e+003;1.919397e-002
1.959405e+003;1.915248e-002
1.961333e+003;1.908492e-002
1.963262e+003;1.905193e-002
1.965190e+003;1.907831e-002
1.967119e+003;1.887914e-002
1.969047e+003;1.866280e-002
1.970976e+003;1.853619e-002
1.972905e+003;1.849539e-002
1.974833e+003;1.861238e-002
1.976762e+003;1.878250e-002
1.978690e+003;1.899879e-002
1.980619e+003;1.887419e-002
1.982547e+003;1.871255e-002
1.984476e+003;1.861269e-002
1.986404e+003;1.854159e-002
1.988333e+003;1.853516e-002
1.990261e+003;1.853740e-002
1.992190e+003;1.862431e-002
1.994119e+003;1.857938e-002
1.996047e+003;1.846631e-002
1.997976e+003;1.848357e-002
1.999904e+003;1.868899e-002
2.001833e+003;1.863662e-002
2.003761e+003;1.865921e-002
2.005690e+003;1.883599e-002
2.007618e+003;1.891026e-002
2.009547e+003;1.882149e-002
2.011476e+003;1.880187e-002
2.013404e+003;1.866197e-002
2.015333e+003;1.857499e-002
2.017261e+003;1.865526e-002
2.019190e+003;1.871469e-002
2.021118e+003;1.881447e-002
2.023047e+003;1.868435e-002
2.024975e+003;1.848547e-002
2.026904e+003;1.847800e-002
2.028833e+003;1.841280e-002
2.030761e+003;1.827140e-002
2.032690e+003;1.835189e-002
2.034618e+003;1.828737e-002
2.036547e+003;1.829549e-002
2.038475e+003;1.844094e-002
2.040404e+003;1.839268e-002
2.042332e+003;1.849477e-002
2.044261e+003;1.872711e-002
2.046189e+003;1.865360e-002
2.048118e+003;1.839313e-002
2.050047e+003;1.846593e-002
2.051975e+003;1.853644e-002
2.053904e+003;1.851513e-002
2.055832e+003;1.857506e-002
2.057761e+003;1.843354e-002
2.059689e+003;1.827237e-002
2.061618e+003;1.822630e-002
2.063546e+003;1.802134e-002
2.065475e+003;1.806272e-002
2.067404e+003;1.840405e-002
2.069332e+003;1.837004e-002
2.071260e+003;1.805602e-002
2.073189e+003;1.808666e-002
2.075118e+003;1.834342e-002
2.077046e+003;1.837889e-002
2.078975e+003;1.836368e-002
2.080903e+003;1.852935e-002
2.082832e+003;1.859934e-002
2.084760e+003;1.855615e-002
2.086689e+003;1.854667e-002
2.088617e+003;1.856330e-002
2.090546e+003;1.858322e-002
2.092475e+003;1.864146e-002
2.094403e+003;1.861379e-002
2.096332e+003;1.839520e-002
2.098260e+003;1.843503e-002
2.100189e+003;1.857842e-002
2.102117e+003;1.873804e-002
2.104046e+003;1.875205e-002
2.105974e+003;1.868612e-002
2.107903e+003;1.845895e-002
2.109832e+003;1.840478e-002
2.111760e+003;1.858723e-002
2.113688e+003;1.874655e-002
2.115617e+003;1.884360e-002
2.117546e+003;1.872220e-002
2.119474e+003;1.857949e-002
2.121403e+003;1.885277e-002
2.123331e+003;1.919514e-002
2.125260e+003;1.959750e-002
2.127188e+003;1.992135e-002
2.129117e+003;2.002064e-002
2.131045e+003;2.016282e-002
2.132974e+003;2.016261e-002
2.134903e+003;2.007435e-002
2.136831e+003;1.991666e-002
2.138760e+003;1.961116e-002
2.140688e+003;1.956932e-002
2.142617e+003;1.969762e-002
2.144545e+003;1.961563e-002
2.146474e+003;1.951096e-002
2.148402e+003;1.961026e-002
2.150331e+003;1.968670e-002
2.152260e+003;1.964132e-002
2.154188e+003;1.964406e-002
2.156117e+003;1.966042e-002
2.158045e+003;1.951474e-002
2.159974e+003;1.943652e-002
2.161902e+003;1.966438e-002
2.163831e+003;2.010465e-002
2.165759e+003;2.029154e-002
2.167688e+003;2.038681e-002
2.169616e+003;2.037588e-002
2.171545e+003;2.053078e-002
2.173474e+003;2.084096e-002
2.175402e+003;2.090726e-002
2.177331e+003;2.094495e-002
2.179259e+003;2.091404e-002
2.181188e+003;2.078750e-002
2.183116e+003;2.072557e-002
2.185045e+003;2.066760e-002
2.186973e+003;2.061944e-002
2.188902e+003;2.060023e-002
2.190831e+003;2.077029e-002
2.192759e+003;2.077499e-002
2.194688e+003;2.051459e-002
2.196616e+003;2.058282e-002
2.198545e+003;2.089353e-002
2.200473e+003;2.089547e-002
2.202402e+003;2.053929e-002
2.204330e+003;2.034000e-002
2.206259e+003;2.009361e-002
2.208188e+003;1.992287e-002
2.210116e+003;2.014293e-002
2.212044e+003;2.031119e-002
2.213973e+003;2.011541e-002
2.215902e+003;2.000562e-002
2.217830e+003;2.002175e-002
2.219759e+003;2.006096e-002
2.221687e+003;2.018534e-002
2.223616e+003;2.014616e-002
2.225544e+003;2.015490e-002
2.227473e+003;2.015063e-002
2.229401e+003;2.017486e-002
2.231330e+003;2.031074e-002
2.233259e+003;2.059359e-002
2.235187e+003;2.073870e-002
2.237116e+003;2.065915e-002
2.239044e+003;2.070780e-002
2.240973e+003;2.067549e-002
2.242901e+003;2.057910e-002
2.244830e+003;2.034101e-002
2.246758e+003;2.018288e-002
2.248687e+003;2.055048e-002
2.250615e+003;2.084798e-002
2.252544e+003;2.109244e-002
2.254473e+003;2.138378e-002
2.256401e+003;2.147564e-002
2.258330e+003;2.133254e-002
2.260258e+003;2.098456e-002
2.262187e+003;2.065519e-002
2.264115e+003;2.086895e-002
2.266044e+003;2.127199e-002
2.267972e+003;2.117339e-002
2.269901e+003;2.071962e-002
2.271830e+003;2.049007e-002
2.273758e+003;2.062340e-002
2.275687e+003;2.067611e-002
2.277615e+003;2.055631e-002
2.279544e+003;2.038101e-002
2.281472e+003;2.044290e-002
2.283401e+003;2.055683e-002
2.285329e+003;2.039862e-002
2.287258e+003;2.015615e-002
2.289187e+003;2.003205e-002
2.291115e+003;1.984701e-002
2.293043e+003;1.999566e-002
2.294972e+003;2.032337e-002
2.296901e+003;2.024067e-002
2.298829e+003;2.009514e-002
2.300758e+003;2.024560e-002
2.302686e+003;2.028775e-002
2.304615e+003;2.029136e-002
2.306543e+003;2.037629e-002
2.308472e+003;2.045443e-002
2.310400e+003;2.056378e-002
2.312329e+003;2.033577e-002
2.314258e+003;2.031396e-002
2.316186e+003;2.072146e-002
2.318115e+003;2.064651e-002
2.320043e+003;2.052084e-002
2.321972e+003;2.075844e-002
2.323900e+003;2.105794e-002
2.325829e+003;2.127791e-002
2.327757e+003;2.144170e-002
2.329686e+003;2.142916e-002
2.331615e+003;2.169081e-002
2.333543e+003;2.203106e-002
2.335472e+003;2.199269e-002
2.337400e+003;2.176044e-002
2.339329e+003;2.195149e-002
2.341257e+003;2.233590e-002
2.343186e+003;2.240609e-002
2.345114e+003;2.219148e-002
2.347043e+003;2.228647e-002
2.348971e+003;2.270941e-002
2.350900e+003;2.267265e-002
2.352829e+003;2.244206e-002
2.354757e+003;2.273263e-002
2.356686e+003;2.307811e-002
2.358614e+003;2.296382e-002
2.360543e+003;2.294709e-002
2.362471e+003;2.312161e-002
2.364400e+003;2.316180e-002
2.366328e+003;2.313346e-002
2.368257e+003;2.325334e-002
2.370186e+003;2.345222e-002
2.372114e+003;2.346135e-002
2.374042e+003;2.350954e-002
2.375971e+003;2.350933e-002
2.377900e+003;2.319500e-002
2.379828e+003;2.317071e-002
2.381757e+003;2.350167e-002
2.383685e+003;2.366148e-002
2.385614e+003;2.340844e-002
2.387542e+003;2.308094e-002
2.389471e+003;2.314258e-002
2.391399e+003;2.369507e-002
2.393328e+003;2.397317e-002
2.395257e+003;2.410222e-002
2.397185e+003;2.404653e-002
2.399114e+003;2.399684e-002
2.401042e+003;2.414383e-002
2.402971e+003;2.422591e-002
2.404899e+003;2.417248e-002
2.406828e+003;2.415139e-002
2.408756e+003;2.405101e-002
2.410685e+003;2.393696e-002
2.412614e+003;2.422664e-002
2.414542e+003;2.434255e-002
2.416471e+003;2.425993e-002
2.418399e+003;2.432002e-002
2.420328e+003;2.467532e-002
2.422256e+003;2.504302e-002
2.424185e+003;2.535251e-002
2.426113e+003;2.532378e-002
2.428042e+003;2.504407e-002
2.429970e+003;2.511165e-002
2.431899e+003;2.541536e-002
2.433828e+003;2.524887e-002
2.435756e+003;2.471863e-002
2.437685e+003;2.433758e-002
2.439613e+003;2.422128e-002
2.441542e+003;2.417914e-002
2.443470e+003;2.434192e-002
2.445399e+003;2.445401e-002
2.447327e+003;2.451217e-002
2.449256e+003;2.456339e-002
2.451185e+003;2.439971e-002
2.453113e+003;2.429549e-002
2.455042e+003;2.415773e-002
2.456970e+003;2.415493e-002
2.458899e+003;2.418099e-002
2.460827e+003;2.388410e-002
2.462756e+003;2.366742e-002
2.464684e+003;2.366707e-002
2.466613e+003;2.375442e-002
2.468542e+003;2.384580e-002
2.470470e+003;2.383593e-002
2.472398e+003;2.404804e-002
2.474327e+003;2.412537e-002
2.476256e+003;2.410155e-002
2.478184e+003;2.440395e-002
2.480113e+003;2.473039e-002
2.482041e+003;2.457331e-002
2.483970e+003;2.466848e-002
2.485898e+003;2.483162e-002
2.487827e+003;2.475189e-002
2.489755e+003;2.510719e-002
2.491684e+003;2.538209e-002
2.493613e+003;2.500476e-002
2.495541e+003;2.466564e-002
2.497470e+003;2.467192e-002
2.499398e+003;2.487015e-002
2.501327e+003;2.515315e-002
2.503255e+003;2.500887e-002
2.505184e+003;2.470331e-002
2.507112e+003;2.464611e-002
2.509041e+003;2.485050e-002
2.510969e+003;2.504021e-002
2.512898e+003;2.535307e-002
2.514827e+003;2.568901e-002
2.516755e+003;2.586080e-002
2.518684e+003;2.613476e-002
2.520612e+003;2.627407e-002
2.522541e+003;2.668417e-002
2.524469e+003;2.717035e-002
2.526398e+003;2.728355e-002
2.528326e+003;2.755729e-002
2.530255e+003;2.771291e-002
2.532184e+003;2.789518e-002
2.534112e+003;2.797776e-002
2.536041e+003;2.786695e-002
2.537969e+003;2.802349e-002
2.539898e+003;2.815859e-002
2.541826e+003;2.842085e-002
2.543755e+003;2.883827e-002
2.545683e+003;2.912645e-002
2.547612e+003;2.948266e-002
2.549541e+003;2.999843e-002
2.551469e+003;3.042411e-002
2.553397e+003;3.060433e-002
2.555326e+003;3.072267e-002
2.557255e+003;3.105723e-002
2.559183e+003;3.112941e-002
2.561112e+003;3.148502e-002
2.563040e+003;3.206539e-002
2.564969e+003;3.221382e-002
2.566897e+003;3.237829e-002
2.568826e+003;3.307200e-002
2.570754e+003;3.371089e-002
2.572683e+003;3.412521e-002
2.574612e+003;3.461646e-002
2.576540e+003;3.536635e-002
2.578469e+003;3.602785e-002
2.580397e+003;3.655618e-002
2.582326e+003;3.695411e-002
2.584254e+003;3.659889e-002
2.586183e+003;3.578128e-002
2.588111e+003;3.524915e-002
2.590040e+003;3.463896e-002
2.591969e+003;3.430396e-002
2.593897e+003;3.417077e-002
2.595826e+003;3.401537e-002
2.597754e+003;3.390820e-002
2.599683e+003;3.381328e-002
2.601611e+003;3.370838e-002
2.603540e+003;3.387532e-002
2.605468e+003;3.435287e-002
2.607397e+003;3.484305e-002
2.609325e+003;3.529357e-002
2.611254e+003;3.563530e-002
2.613183e+003;3.598814e-002
2.615111e+003;3.623537e-002
2.617040e+003;3.625892e-002
2.618968e+003;3.599534e-002
2.620897e+003;3.575412e-002
2.622825e+003;3.596651e-002
2.624754e+003;3.590248e-002
2.626682e+003;3.546205e-002
2.628611e+003;3.533447e-002
2.630540e+003;3.538565e-002
2.632468e+003;3.524020e-002
2.634396e+003;3.521846e-002
2.636325e+003;3.540453e-002
2.638254e+003;3.552918e-002
2.640182e+003;3.565473e-002
2.642111e+003;3.592886e-002
2.644039e+003;3.622366e-002
2.645968e+003;3.652695e-002
2.647896e+003;3.686411e-002
2.649825e+003;3.730741e-002
2.651753e+003;3.747331e-002
2.653682e+003;3.766024e-002
2.655611e+003;3.806373e-002
2.657539e+003;3.833632e-002
2.659468e+003;3.865481e-002
2.661396e+003;3.878304e-002
2.663325e+003;3.893828e-002
2.665253e+003;3.932903e-002
2.667182e+003;3.948922e-002
2.669110e+003;3.935849e-002
2.671039e+003;3.924224e-002
2.672968e+003;3.958314e-002
2.674896e+003;4.002541e-002
2.676825e+003;4.026891e-002
2.678753e+003;4.020268e-002
2.680682e+003;4.004474e-002
2.682610e+003;3.988959e-002
2.684539e+003;3.984212e-002
2.686467e+003;3.999130e-002
2.688396e+003;4.022554e-002
2.690324e+003;4.019432e-002
2.692253e+003;4.002531e-002
2.694182e+003;4.012988e-002
2.696110e+003;4.034628e-002
2.698039e+003;4.069271e-002
2.699967e+003;4.108788e-002
2.701896e+003;4.134135e-002
2.703824e+003;4.191826e-002
2.705753e+003;4.282602e-002
2.707681e+003;4.356697e-002
2.709610e+003;4.431491e-002
2.711539e+003;4.531641e-002
2.713467e+003;4.668147e-002
2.715396e+003;4.833052e-002
2.717324e+003;5.022674e-002
2.719253e+003;5.177747e-002
2.721181e+003;5.286590e-002
2.723110e+003;5.345932e-002
2.725038e+003;5.312218e-002
2.726967e+003;5.198649e-002
2.728896e+003;5.066655e-002
2.730824e+003;4.930439e-002
2.732752e+003;4.782940e-002
2.734681e+003;4.675553e-002
2.736610e+003;4.627635e-002
2.738538e+003;4.575907e-002
2.740467e+003;4.496840e-002
2.742395e+003;4.414986e-002
2.744324e+003;4.348431e-002
2.746252e+003;4.292232e-002
2.748181e+003;4.263164e-002
2.750109e+003;4.267433e-002
2.752038e+003;4.292620e-002
2.753967e+003;4.275505e-002
2.755895e+003;4.260685e-002
2.757824e+003;4.288289e-002
2.759752e+003;4.354434e-002
2.761681e+003;4.419678e-002
2.763609e+003;4.475043e-002
2.765538e+003;4.507087e-002
2.767466e+003;4.534822e-002
2.769395e+003;4.566601e-002
2.771323e+003;4.600945e-002
2.773252e+003;4.670317e-002
2.775181e+003;4.716524e-002
2.777109e+003;4.729284e-002
2.779038e+003;4.814017e-002
2.780966e+003;4.962636e-002
2.782895e+003;5.112935e-002
2.784823e+003;5.248888e-002
2.786752e+003;5.361411e-002
2.788680e+003;5.476787e-002
2.790609e+003;5.629449e-002
2.792538e+003;5.810352e-002
2.794466e+003;5.976891e-002
2.796395e+003;6.088372e-002
2.798323e+003;6.224014e-002
2.800252e+003;6.393579e-002
2.802180e+003;6.572507e-002
2.804109e+003;6.801284e-002
2.806037e+003;7.036634e-002
2.807966e+003;7.227456e-002
2.809895e+003;7.374474e-002
2.811823e+003;7.540369e-002
2.813751e+003;7.739820e-002
2.815680e+003;7.949553e-002
2.817609e+003;8.139598e-002
2.819537e+003;8.390835e-002
2.821466e+003;8.715798e-002
2.823394e+003;9.083202e-002
2.825323e+003;9.530528e-002
2.827251e+003;1.011887e-001
2.829180e+003;1.087649e-001
2.831108e+003;1.173461e-001
2.833037e+003;1.260549e-001
2.834966e+003;1.331317e-001
2.836894e+003;1.375772e-001
2.838823e+003;1.388383e-001
2.840751e+003;1.369107e-001
2.842680e+003;1.326670e-001
2.844608e+003;1.273887e-001
2.846537e+003;1.219372e-001
2.848465e+003;1.175188e-001
2.850394e+003;1.146626e-001
2.852323e+003;1.128634e-001
2.854251e+003;1.124172e-001
2.856180e+003;1.138944e-001
2.858108e+003;1.171872e-001
2.860037e+003;1.223148e-001
2.861965e+003;1.294292e-001
2.863894e+003;1.375485e-001
2.865822e+003;1.438067e-001
2.867751e+003;1.470776e-001
2.869679e+003;1.480568e-001
2.871608e+003;1.477945e-001
2.873536e+003;1.476447e-001
2.875465e+003;1.473440e-001
2.877394e+003;1.466590e-001
2.879322e+003;1.456327e-001
2.881251e+003;1.440691e-001
2.883179e+003;1.433454e-001
2.885108e+003;1.434914e-001
2.887036e+003;1.441267e-001
2.888965e+003;1.451632e-001
2.890893e+003;1.467272e-001
2.892822e+003;1.495943e-001
2.894750e+003;1.533393e-001
2.896679e+003;1.572149e-001
2.898608e+003;1.619274e-001
2.900536e+003;1.668849e-001
2.902465e+003;1.714767e-001
2.904393e+003;1.767764e-001
2.906322e+003;1.821048e-001
2.908250e+003;1.869191e-001
2.910179e+003;1.911991e-001
2.912107e+003;1.940188e-001
2.914036e+003;1.967022e-001
2.915965e+003;1.992282e-001
2.917893e+003;2.001861e-001
2.919822e+003;1.988327e-001
2.921750e+003;1.949326e-001
2.923679e+003;1.896465e-001
2.925607e+003;1.832942e-001
2.927536e+003;1.760098e-001
2.929464e+003;1.677404e-001
2.931393e+003;1.588809e-001
2.933322e+003;1.506727e-001
2.935250e+003;1.438253e-001
2.937178e+003;1.386604e-001
2.939107e+003;1.354234e-001
2.941036e+003;1.355184e-001
2.942964e+003;1.397443e-001
2.944893e+003;1.466702e-001
2.946821e+003;1.547885e-001
2.948750e+003;1.623240e-001
2.950678e+003;1.671951e-001
2.952607e+003;1.685043e-001
2.954535e+003;1.662952e-001
2.956464e+003;1.618745e-001
2.958393e+003;1.565188e-001
2.960321e+003;1.512466e-001
2.962250e+003;1.454705e-001
2.964178e+003;1.390386e-001
2.966107e+003;1.321162e-001
2.968035e+003;1.251302e-001
2.969964e+003;1.184343e-001
2.971892e+003;1.117964e-001
2.973821e+003;1.058111e-001
2.975750e+003;1.007463e-001
2.977678e+003;9.641142e-002
2.979607e+003;9.222131e-002
2.981535e+003;8.801406e-002
2.983464e+003;8.429363e-002
2.985392e+003;8.103434e-002
2.987321e+003;7.817923e-002
2.989249e+003;7.578722e-002
2.991178e+003;7.357872e-002
2.993106e+003;7.106417e-002
2.995035e+003;6.855093e-002
2.996964e+003;6.626650e-002
2.998892e+003;6.396320e-002
3.000821e+003;6.201321e-002
3.002749e+003;6.003770e-002
3.004678e+003;5.822122e-002
3.006606e+003;5.679513e-002
3.008535e+003;5.538662e-002
3.010463e+003;5.389371e-002
3.012392e+003;5.228571e-002
3.014321e+003;5.110248e-002
3.016249e+003;5.038262e-002
3.018177e+003;4.935614e-002
3.020106e+003;4.846616e-002
3.022035e+003;4.778339e-002
3.023963e+003;4.688610e-002
3.025892e+003;4.603399e-002
3.027820e+003;4.521675e-002
3.029749e+003;4.456457e-002
3.031677e+003;4.413684e-002
3.033606e+003;4.377362e-002
3.035534e+003;4.350452e-002
3.037463e+003;4.307501e-002
3.039392e+003;4.273202e-002
3.041320e+003;4.224516e-002
3.043249e+003;4.154340e-002
3.045177e+003;4.150759e-002
3.047106e+003;4.193479e-002
3.049034e+003;4.204381e-002
3.050963e+003;4.144169e-002
3.052891e+003;4.109674e-002
3.054820e+003;4.098639e-002
3.056749e+003;4.068943e-002
3.058677e+003;4.077855e-002
3.060606e+003;4.073830e-002
3.062534e+003;4.036148e-002
3.064463e+003;4.026375e-002
3.066391e+003;4.014399e-002
3.068320e+003;3.994509e-002
3.070248e+003;4.024699e-002
3.072177e+003;4.057686e-002
3.074105e+003;4.009016e-002
3.076034e+003;3.943722e-002
3.077963e+003;3.908004e-002
3.079891e+003;3.898242e-002
3.081820e+003;3.910096e-002
3.083748e+003;3.963283e-002
3.085677e+003;3.959715e-002
3.087605e+003;3.926273e-002
3.089534e+003;3.921388e-002
3.091462e+003;3.932403e-002
3.093391e+003;3.944096e-002
3.095320e+003;3.940602e-002
3.097248e+003;3.937746e-002
3.099177e+003;3.923379e-002
3.101105e+003;3.896198e-002
3.103034e+003;3.908320e-002
3.104962e+003;3.931594e-002
3.106891e+003;3.930556e-002
3.108819e+003;3.909785e-002
3.110748e+003;3.901530e-002
3.112677e+003;3.943693e-002
3.114605e+003;3.965813e-002
3.116533e+003;3.963915e-002
3.118462e+003;3.939081e-002
3.120391e+003;3.894248e-002
3.122319e+003;3.901650e-002
3.124248e+003;3.964899e-002
3.126176e+003;3.981590e-002
3.128105e+003;3.956608e-002
3.130033e+003;3.986336e-002
3.131962e+003;4.007221e-002
3.133890e+003;4.018465e-002
3.135819e+003;4.059891e-002
3.137748e+003;4.064177e-002
3.139676e+003;4.036660e-002
3.141605e+003;4.053776e-002
3.143533e+003;4.076331e-002
3.145462e+003;4.105237e-002
3.147390e+003;4.152375e-002
3.149319e+003;4.171064e-002
3.151247e+003;4.126945e-002
3.153176e+003;4.084582e-002
3.155104e+003;4.124639e-002
3.157033e+003;4.161111e-002
3.158962e+003;4.148572e-002
3.160890e+003;4.171417e-002
3.162819e+003;4.201435e-002
3.164747e+003;4.213792e-002
3.166676e+003;4.230740e-002
3.168604e+003;4.245484e-002
3.170533e+003;4.221208e-002
3.172461e+003;4.217830e-002
3.174390e+003;4.241947e-002
3.176319e+003;4.247025e-002
3.178247e+003;4.253460e-002
3.180176e+003;4.267203e-002
3.182104e+003;4.282910e-002
3.184033e+003;4.288545e-002
3.185961e+003;4.299061e-002
3.187890e+003;4.318919e-002
3.189818e+003;4.366761e-002
3.191747e+003;4.364676e-002
3.193676e+003;4.341824e-002
3.195604e+003;4.399169e-002
3.197532e+003;4.441404e-002
3.199461e+003;4.399132e-002
3.201390e+003;4.343241e-002
3.203318e+003;4.341865e-002
3.205247e+003;4.343974e-002
3.207175e+003;4.346409e-002
3.209104e+003;4.372953e-002
3.211032e+003;4.348570e-002
3.212961e+003;4.327165e-002
3.214889e+003;4.343318e-002
3.216818e+003;4.329464e-002
3.218747e+003;4.334619e-002
3.220675e+003;4.381991e-002
3.222604e+003;4.366281e-002
3.224532e+003;4.356027e-002
3.226461e+003;4.380026e-002
3.228389e+003;4.338818e-002
3.230318e+003;4.301465e-002
3.232246e+003;4.303605e-002
3.234175e+003;4.303901e-002
3.236104e+003;4.285696e-002
3.238032e+003;4.293728e-002
3.239961e+003;4.323589e-002
3.241889e+003;4.344871e-002
3.243818e+003;4.335966e-002
3.245746e+003;4.335482e-002
3.247675e+003;4.358221e-002
3.249603e+003;4.327886e-002
3.251532e+003;4.277209e-002
3.253460e+003;4.286109e-002
3.255389e+003;4.312141e-002
3.257318e+003;4.353243e-002
3.259246e+003;4.374888e-002
3.261175e+003;4.391169e-002
3.263103e+003;4.423240e-002
3.265032e+003;4.451935e-002
3.266960e+003;4.416670e-002
3.268889e+003;4.368171e-002
3.270817e+003;4.372187e-002
3.272746e+003;4.398153e-002
3.274675e+003;4.388215e-002
3.276603e+003;4.354902e-002
3.278531e+003;4.371495e-002
3.280460e+003;4.385396e-002
3.282389e+003;4.386924e-002
3.284317e+003;4.395561e-002
3.286246e+003;4.396269e-002
3.288174e+003;4.400614e-002
3.290103e+003;4.388643e-002
3.292031e+003;4.348193e-002
3.293960e+003;4.320317e-002
3.295888e+003;4.312968e-002
3.297817e+003;4.370421e-002
3.299746e+003;4.399393e-002
3.301674e+003;4.330914e-002
3.303603e+003;4.308486e-002
3.305531e+003;4.344860e-002
3.307460e+003;4.343172e-002
3.309388e+003;4.334681e-002
3.311317e+003;4.325906e-002
3.313245e+003;4.319618e-002
3.315174e+003;4.325573e-002
3.317103e+003;4.319457e-002
3.319031e+003;4.302214e-002
3.320960e+003;4.268442e-002
3.322888e+003;4.246116e-002
3.324817e+003;4.284332e-002
3.326745e+003;4.325115e-002
3.328674e+003;4.284219e-002
3.330602e+003;4.218090e-002
3.332531e+003;4.224020e-002
3.334459e+003;4.261383e-002
3.336388e+003;4.299591e-002
3.338317e+003;4.289031e-002
3.340245e+003;4.237804e-002
3.342174e+003;4.183036e-002
3.344102e+003;4.140932e-002
3.346031e+003;4.162373e-002
3.347959e+003;4.154705e-002
3.349888e+003;4.149403e-002
3.351816e+003;4.180665e-002
3.353745e+003;4.159379e-002
3.355674e+003;4.122474e-002
3.357602e+003;4.092536e-002
3.359531e+003;4.073597e-002
3.361459e+003;4.080338e-002
3.363388e+003;4.079442e-002
3.365316e+003;4.097754e-002
3.367245e+003;4.131668e-002
3.369173e+003;4.063572e-002
3.371102e+003;4.032850e-002
3.373031e+003;4.021755e-002
3.374959e+003;4.001175e-002
3.376887e+003;3.987873e-002
3.378816e+003;3.951640e-002
3.380745e+003;3.913845e-002
3.382673e+003;3.893911e-002
3.384602e+003;3.863258e-002
3.386530e+003;3.882076e-002
3.388459e+003;3.898804e-002
3.390387e+003;3.902222e-002
3.392316e+003;3.889664e-002
3.394244e+003;3.861432e-002
3.396173e+003;3.857496e-002
3.398102e+003;3.834869e-002
3.400030e+003;3.811781e-002
3.401959e+003;3.821042e-002
3.403887e+003;3.813865e-002
3.405816e+003;3.810092e-002
3.407744e+003;3.839108e-002
3.409673e+003;3.835141e-002
3.411601e+003;3.819327e-002
3.413530e+003;3.783510e-002
3.415458e+003;3.744539e-002
3.417387e+003;3.772742e-002
3.419316e+003;3.779125e-002
3.421244e+003;3.732409e-002
3.423173e+003;3.698026e-002
3.425101e+003;3.648356e-002
3.427030e+003;3.612481e-002
3.428958e+003;3.615570e-002
3.430887e+003;3.600189e-002
3.432815e+003;3.557556e-002
3.434744e+003;3.573890e-002
3.436673e+003;3.559794e-002
3.438601e+003;3.516402e-002
3.440530e+003;3.473834e-002
3.442458e+003;3.510058e-002
3.444387e+003;3.532724e-002
3.446315e+003;3.471307e-002
3.448244e+003;3.419654e-002
3.450172e+003;3.421135e-002
3.452101e+003;3.422089e-002
3.454030e+003;3.396836e-002
3.455958e+003;3.349266e-002
3.457886e+003;3.302134e-002
3.459815e+003;3.296199e-002
3.461744e+003;3.334043e-002
3.463672e+003;3.368672e-002
3.465601e+003;3.344835e-002
3.467529e+003;3.288511e-002
3.469458e+003;3.206211e-002
3.471386e+003;3.190646e-002
3.473315e+003;3.202830e-002
3.475243e+003;3.196167e-002
3.477172e+003;3.144651e-002
3.479101e+003;3.077954e-002
3.481029e+003;3.079903e-002
3.482958e+003;3.063110e-002
3.484886e+003;3.040201e-002
3.486815e+003;3.021939e-002
3.488743e+003;2.991373e-002
3.490672e+003;2.980799e-002
3.492600e+003;2.973234e-002
3.494529e+003;2.955511e-002
3.496458e+003;2.938231e-002
3.498386e+003;2.908670e-002
3.500315e+003;2.905527e-002
3.502243e+003;2.923563e-002
3.504172e+003;2.922071e-002
3.506100e+003;2.907252e-002
3.508029e+003;2.849338e-002
3.509957e+003;2.784833e-002
3.511886e+003;2.743039e-002
3.513814e+003;2.773858e-002
3.515743e+003;2.790755e-002
3.517672e+003;2.778055e-002
3.519600e+003;2.775861e-002
3.521529e+003;2.777726e-002
3.523457e+003;2.773689e-002
3.525386e+003;2.775730e-002
3.527314e+003;2.716449e-002
3.529243e+003;2.645898e-002
3.531171e+003;2.641679e-002
3.533100e+003;2.655523e-002
3.535029e+003;2.643172e-002
3.536957e+003;2.632585e-002
3.538885e+003;2.604314e-002
3.540814e+003;2.543780e-002
3.542743e+003;2.487969e-002
3.544671e+003;2.476066e-002
3.546600e+003;2.472246e-002
3.548528e+003;2.456388e-002
3.550457e+003;2.445769e-002
3.552385e+003;2.402401e-002
3.554314e+003;2.355778e-002
3.556242e+003;2.364342e-002
3.558171e+003;2.350269e-002
3.560100e+003;2.285474e-002
3.562028e+003;2.271158e-002
3.563957e+003;2.303132e-002
3.565885e+003;2.259243e-002
3.567814e+003;2.209033e-002
3.569742e+003;2.208687e-002
3.571671e+003;2.195428e-002
3.573599e+003;2.187670e-002
3.575528e+003;2.171641e-002
3.577457e+003;2.131552e-002
3.579385e+003;2.087868e-002
3.581314e+003;2.069453e-002
3.583242e+003;2.060863e-002
3.585171e+003;2.042592e-002
3.587099e+003;1.995746e-002
3.589028e+003;1.947970e-002
3.590956e+003;1.977321e-002
3.592885e+003;1.995434e-002
3.594813e+003;1.989987e-002
3.596742e+003;1.980876e-002
3.598671e+003;1.971936e-002
3.600599e+003;1.960243e-002
3.602528e+003;1.915584e-002
3.604456e+003;1.888426e-002
3.606385e+003;1.865122e-002
3.608313e+003;1.823677e-002
3.610242e+003;1.805861e-002
3.612170e+003;1.862635e-002
3.614099e+003;1.859301e-002
3.616028e+003;1.793642e-002
3.617956e+003;1.770226e-002
3.619885e+003;1.748820e-002
3.621813e+003;1.699716e-002
3.623742e+003;1.697207e-002
3.625670e+003;1.735665e-002
3.627599e+003;1.763793e-002
3.629527e+003;1.758411e-002
3.631456e+003;1.706445e-002
3.633385e+003;1.693435e-002
3.635313e+003;1.748254e-002
3.637241e+003;1.762254e-002
3.639170e+003;1.649552e-002
3.641099e+003;1.570352e-002
3.643027e+003;1.595970e-002
3.644956e+003;1.654821e-002
3.646884e+003;1.647803e-002
3.648813e+003;1.597820e-002
3.650741e+003;1.572894e-002
3.652670e+003;1.570462e-002
3.654598e+003;1.538191e-002
3.656527e+003;1.515914e-002
3.658456e+003;1.536042e-002
3.660384e+003;1.532122e-002
3.662313e+003;1.505156e-002
3.664241e+003;1.485141e-002
3.666170e+003;1.501873e-002
3.668098e+003;1.495446e-002
3.670027e+003;1.447631e-002
3.671955e+003;1.482992e-002
3.673884e+003;1.566549e-002
3.675813e+003;1.603853e-002
3.677741e+003;1.596445e-002
3.679669e+003;1.559484e-002
3.681598e+003;1.544457e-002
3.683527e+003;1.565470e-002
3.685455e+003;1.589866e-002
3.687384e+003;1.599759e-002
3.689312e+003;1.612845e-002
3.691241e+003;1.654615e-002
3.693169e+003;1.652267e-002
3.695098e+003;1.603276e-002
3.697026e+003;1.597266e-002
3.698955e+003;1.597290e-002
3.700884e+003;1.564083e-002
3.702812e+003;1.585501e-002
3.704741e+003;1.584164e-002
3.706669e+003;1.523724e-002
3.708598e+003;1.525639e-002
3.710526e+003;1.566130e-002
3.712455e+003;1.559484e-002
3.714383e+003;1.520835e-002
3.716312e+003;1.500467e-002
3.718240e+003;1.515166e-002
3.720169e+003;1.515465e-002
3.722098e+003;1.519589e-002
3.724026e+003;1.558182e-002
3.725955e+003;1.581470e-002
3.727883e+003;1.559099e-002
3.729812e+003;1.570486e-002
3.731740e+003;1.585436e-002
3.733669e+003;1.563300e-002
3.735597e+003;1.570637e-002
3.737526e+003;1.598521e-002
3.739455e+003;1.581463e-002
3.741383e+003;1.572599e-002
3.743312e+003;1.586522e-002
3.745240e+003;1.551877e-002
3.747169e+003;1.528268e-002
3.749097e+003;1.554408e-002
3.751026e+003;1.539719e-002
3.752954e+003;1.541027e-002
3.754883e+003;1.580161e-002
3.756812e+003;1.593093e-002
3.758740e+003;1.617742e-002
3.760668e+003;1.654825e-002
3.762597e+003;1.672910e-002
3.764526e+003;1.615940e-002
3.766454e+003;1.566425e-002
3.768383e+003;1.539376e-002
3.770311e+003;1.522159e-002
3.772240e+003;1.581742e-002
3.774168e+003;1.631655e-002
3.776097e+003;1.646217e-002
3.778025e+003;1.620885e-002
3.779954e+003;1.559896e-002
3.781883e+003;1.566449e-002
3.783811e+003;1.603258e-002
3.785740e+003;1.616342e-002
3.787668e+003;1.574437e-002
3.789597e+003;1.550187e-002
3.791525e+003;1.552959e-002
3.793454e+003;1.572908e-002
3.795382e+003;1.614935e-002
3.797311e+003;1.610406e-002
3.799240e+003;1.613195e-002
3.801168e+003;1.604926e-002
3.803097e+003;1.591808e-002
3.805025e+003;1.620156e-002
3.806954e+003;1.647511e-002
3.808882e+003;1.622292e-002
3.810811e+003;1.610998e-002
3.812739e+003;1.615946e-002
3.814668e+003;1.577986e-002
3.816596e+003;1.575715e-002
3.818525e+003;1.605961e-002
3.820454e+003;1.638891e-002
3.822382e+003;1.662667e-002
3.824311e+003;1.679642e-002
3.826239e+003;1.677945e-002
3.828168e+003;1.658653e-002
3.830096e+003;1.653128e-002
3.832025e+003;1.669418e-002
3.833953e+003;1.666767e-002
3.835882e+003;1.623475e-002
3.837811e+003;1.614021e-002
3.839739e+003;1.684323e-002
3.841667e+003;1.704495e-002
3.843596e+003;1.630664e-002
3.845525e+003;1.583463e-002
3.847453e+003;1.601770e-002
3.849382e+003;1.654188e-002
3.851310e+003;1.668089e-002
3.853239e+003;1.668447e-002
3.855167e+003;1.709947e-002
3.857096e+003;1.749379e-002
3.859024e+003;1.718405e-002
3.860953e+003;1.679846e-002
3.862882e+003;1.680989e-002
3.864810e+003;1.702221e-002
3.866739e+003;1.765074e-002
3.868667e+003;1.778486e-002
3.870596e+003;1.772904e-002
3.872524e+003;1.744235e-002
3.874453e+003;1.689404e-002
3.876381e+003;1.692887e-002
3.878310e+003;1.691905e-002
3.880239e+003;1.666364e-002
3.882167e+003;1.717354e-002
3.884096e+003;1.818083e-002
3.886024e+003;1.839714e-002
3.887953e+003;1.780747e-002
3.889881e+003;1.772925e-002
3.891810e+003;1.797472e-002
3.893738e+003;1.740024e-002
3.895667e+003;1.729514e-002
3.897595e+003;1.721232e-002
3.899524e+003;1.676894e-002
3.901453e+003;1.669284e-002
3.903381e+003;1.730065e-002
3.905310e+003;1.765388e-002
3.907238e+003;1.738252e-002
3.909167e+003;1.717206e-002
3.911095e+003;1.727503e-002
3.913024e+003;1.741507e-002
3.914952e+003;1.806614e-002
3.916881e+003;1.805042e-002
3.918810e+003;1.760226e-002
3.920738e+003;1.771593e-002
3.922667e+003;1.774599e-002
3.924595e+003;1.773073e-002
3.926524e+003;1.774437e-002
3.928452e+003;1.811844e-002
3.930381e+003;1.825208e-002
3.932309e+003;1.772877e-002
3.934238e+003;1.735531e-002
3.936167e+003;1.759525e-002
3.938095e+003;1.803585e-002
3.940023e+003;1.805139e-002
3.941952e+003;1.825765e-002
3.943881e+003;1.829182e-002
3.945809e+003;1.799371e-002
3.947738e+003;1.780595e-002
3.949666e+003;1.716323e-002
3.951595e+003;1.680872e-002
3.953523e+003;1.718695e-002
3.955452e+003;1.767127e-002
3.957380e+003;1.781603e-002
3.959309e+003;1.783961e-002
3.961238e+003;1.814656e-002
3.963166e+003;1.829404e-002
3.965095e+003;1.860345e-002
3.967023e+003;1.866045e-002
3.968952e+003;1.780460e-002
3.970880e+003;1.702224e-002
3.972809e+003;1.707493e-002
3.974737e+003;1.767441e-002
3.976666e+003;1.850988e-002
3.978594e+003;1.888281e-002
3.980523e+003;1.875205e-002
3.982452e+003;1.865630e-002
3.984380e+003;1.842697e-002
3.986309e+003;1.853716e-002
3.988237e+003;1.917665e-002
3.990166e+003;1.947561e-002
3.992094e+003;1.951186e-002
3.994023e+003;1.990758e-002
3.995951e+003;2.005683e-002
3.997880e+003;1.982017e-002
3.999809e+003;1.891282e-002
4.001737e+003;0.000000e+000
