3.992094e+002;0.000000e+000
4.011380e+002;0.000000e+000
4.030665e+002;0.000000e+000
4.049951e+002;0.000000e+000
4.069236e+002;0.000000e+000
4.088522e+002;0.000000e+000
4.107807e+002;0.000000e+000
4.127093e+002;0.000000e+000
4.146378e+002;0.000000e+000
4.165664e+002;0.000000e+000
4.184949e+002;0.000000e+000
4.204235e+002;0.000000e+000
4.223520e+002;0.000000e+000
4.242806e+002;0.000000e+000
4.262091e+002;0.000000e+000
4.281377e+002;0.000000e+000
4.300662e+002;0.000000e+000
4.319948e+002;0.000000e+000
4.339233e+002;0.000000e+000
4.358519e+002;0.000000e+000
4.377804e+002;0.000000e+000
4.397090e+002;0.000000e+000
4.416375e+002;0.000000e+000
4.435660e+002;0.000000e+000
4.454946e+002;0.000000e+000
4.474232e+002;0.000000e+000
4.493517e+002;0.000000e+000
4.512802e+002;0.000000e+000
4.532088e+002;0.000000e+000
4.551373e+002;0.000000e+000
4.570659e+002;0.000000e+000
4.589944e+002;0.000000e+000
4.609230e+002;0.000000e+000
4.628515e+002;0.000000e+000
4.647801e+002;0.000000e+000
4.667086e+002;0.000000e+000
4.686372e+002;0.000000e+000
4.705657e+002;0.000000e+000
4.724943e+002;0.000000e+000
4.744228e+002;0.000000e+000
4.763513e+002;0.000000e+000
4.782799e+002;0.000000e+000
4.802085e+002;0.000000e+000
4.821370e+002;0.000000e+000
4.840656e+002;0.000000e+000
4.859941e+002;0.000000e+000
4.879226e+002;0.000000e+000
4.898512e+002;0.000000e+000
4.917798e+002;0.000000e+000
4.937083e+002;0.000000e+000
4.956368e+002;0.000000e+000
4.975654e+002;0.000000e+000
4.994939e+002;0.000000e+000
5.014225e+002;0.000000e+000
5.033510e+002;0.000000e+000
5.052796e+002;0.000000e+000
5.072081e+002;0.000000e+000
5.091367e+002;0.000000e+000
5.110652e+002;0.000000e+000
5.129938e+002;0.000000e+000
5.149223e+002;0.000000e+000
5.168509e+002;0.000000e+000
5.187794e+002;0.000000e+000
5.207079e+002;0.000000e+000
5.226365e+002;0.000000e+000
5.245651e+002;0.000000e+000
5.264936e+002;0.000000e+000
5.284222e+002;0.000000e+000
5.303507e+002;0.000000e+000
5.322792e+002;0.000000e+000
5.342078e+002;0.000000e+000
5.361364e+002;0.000000e+000
5.380649e+002;0.000000e+000
5.399935e+002;0.000000e+000
5.419220e+002;0.000000e+000
5.438505e+002;0.000000e+000
5.457791e+002;0.000000e+000
5.477076e+002;0.000000e+000
5.496362e+002;0.000000e+000
5.515648e+002;0.000000e+000
5.534933e+002;0.000000e+000
5.554218e+002;0.000000e+000
5.573504e+002;0.000000e+000
5.592789e+002;0.000000e+000
5.612075e+002;0.000000e+000
5.631360e+002;0.000000e+000
5.650646e+002;0.000000e+000
5.669931e+002;0.000000e+000
5.689217e+002;0.000000e+000
5.708502e+002;0.000000e+000
5.727787e+002;0.000000e+000
5.747073e+002;0.000000e+000
5.766359e+002;0.000000e+000
5.785644e+002;0.000000e+000
5.804930e+002;0.000000e+000
5.824215e+002;0.000000e+000
5.843500e+002;0.000000e+000
5.862786e+002;0.000000e+000
5.882072e+002;0.000000e+000
5.901357e+002;0.000000e+000
5.920643e+002;0.000000e+000
5.939928e+002;0.000000e+000
5.959213e+002;0.000000e+000
5.978499e+002;0.000000e+000
5.997784e+002;4.717592e-002
6.017070e+002;4.517461e-002
6.036355e+002;4.884037e-002
6.055641e+002;5.571520e-002
6.074926e+002;5.422492e-002
6.094211e+002;4.883933e-002
6.113497e+002;5.011189e-002
6.132783e+002;5.166975e-002
6.152068e+002;5.102988e-002
6.171354e+002;4.992470e-002
6.190639e+002;5.142339e-002
6.209924e+002;5.160523e-002
6.229210e+002;5.009055e-002
6.248495e+002;5.077346e-002
6.267781e+002;5.223533e-002
6.287067e+002;4.899001e-002
6.306352e+002;4.768819e-002
6.325637e+002;5.135996e-002
6.344923e+002;5.277075e-002
6.364208e+002;5.148118e-002
6.383494e+002;5.287863e-002
6.402780e+002;5.162687e-002
6.422065e+002;4.979313e-002
6.441350e+002;5.135820e-002
6.460636e+002;5.257141e-002
6.479921e+002;5.212466e-002
6.499207e+002;5.225988e-002
6.518492e+002;5.137267e-002
6.537778e+002;4.969296e-002
6.557063e+002;4.829597e-002
6.576349e+002;5.045031e-002
6.595634e+002;5.444207e-002
6.614919e+002;5.570868e-002
6.634205e+002;5.358784e-002
6.653491e+002;5.096553e-002
6.672776e+002;4.986207e-002
6.692062e+002;5.031728e-002
6.711347e+002;5.221740e-002
6.730632e+002;5.279278e-002
6.749918e+002;5.237471e-002
6.769203e+002;5.253188e-002
6.788489e+002;5.199818e-002
6.807775e+002;5.148035e-002
6.827060e+002;5.045407e-002
6.846345e+002;4.973086e-002
6.865631e+002;5.035412e-002
6.884916e+002;5.075968e-002
6.904202e+002;5.101129e-002
6.923488e+002;5.100603e-002
6.942773e+002;5.075249e-002
6.962058e+002;5.130223e-002
6.981344e+002;5.179722e-002
7.000629e+002;5.225226e-002
7.019915e+002;5.202463e-002
7.039200e+002;5.188641e-002
7.058486e+002;5.172387e-002
7.077771e+002;5.242928e-002
7.097057e+002;5.279671e-002
7.116342e+002;5.360249e-002
7.135627e+002;5.471656e-002
7.154913e+002;5.474272e-002
7.174199e+002;5.423547e-002
7.193484e+002;5.357996e-002
7.212770e+002;5.329326e-002
7.232055e+002;5.462769e-002
7.251340e+002;5.488982e-002
7.270626e+002;5.365213e-002
7.289911e+002;5.360605e-002
7.309197e+002;5.440350e-002
7.328483e+002;5.416396e-002
7.347768e+002;5.337906e-002
7.367053e+002;5.260776e-002
7.386339e+002;5.196427e-002
7.405624e+002;5.126852e-002
7.424910e+002;5.127441e-002
7.444196e+002;5.126356e-002
7.463481e+002;5.159903e-002
7.482766e+002;5.237500e-002
7.502052e+002;5.333780e-002
7.521337e+002;5.402315e-002
7.540623e+002;5.395606e-002
7.559908e+002;5.384997e-002
7.579194e+002;5.332012e-002
7.598479e+002;5.242027e-002
7.617765e+002;5.256550e-002
7.637050e+002;5.247306e-002
7.656335e+002;5.256673e-002
7.675621e+002;5.404544e-002
7.694907e+002;5.439144e-002
7.714192e+002;5.373694e-002
7.733478e+002;5.362371e-002
7.752763e+002;5.345635e-002
7.772048e+002;5.351572e-002
7.791334e+002;5.375055e-002
7.810620e+002;5.369195e-002
7.829905e+002;5.467079e-002
7.849191e+002;5.591840e-002
7.868476e+002;5.639540e-002
7.887761e+002;5.683644e-002
7.907047e+002;5.708502e-002
7.926332e+002;5.832645e-002
7.945618e+002;6.101583e-002
7.964903e+002;6.319159e-002
7.984189e+002;6.459235e-002
8.003474e+002;6.586679e-002
8.022759e+002;6.763468e-002
8.042045e+002;7.022170e-002
8.061331e+002;7.261147e-002
8.080616e+002;7.532999e-002
8.099902e+002;7.663558e-002
8.119187e+002;7.558709e-002
8.138472e+002;7.211058e-002
8.157758e+002;6.817357e-002
8.177043e+002;6.552868e-002
8.196329e+002;6.391460e-002
8.215615e+002;6.325859e-002
8.234900e+002;6.296133e-002
8.254185e+002;6.239489e-002
8.273471e+002;6.209394e-002
8.292756e+002;6.237710e-002
8.312042e+002;6.298167e-002
8.331328e+002;6.378034e-002
8.350613e+002;6.530337e-002
8.369898e+002;6.854088e-002
8.389184e+002;7.425790e-002
8.408469e+002;7.970969e-002
8.427755e+002;7.941652e-002
8.447040e+002;7.420260e-002
8.466326e+002;6.936575e-002
8.485611e+002;6.630510e-002
8.504897e+002;6.347401e-002
8.524182e+002;6.195608e-002
8.543467e+002;6.136667e-002
8.562753e+002;6.015950e-002
8.582039e+002;5.930338e-002
8.601324e+002;5.895288e-002
8.620610e+002;5.903452e-002
8.639895e+002;5.962422e-002
8.659180e+002;6.026730e-002
8.678466e+002;6.060511e-002
8.697751e+002;6.118040e-002
8.717037e+002;6.190613e-002
8.736323e+002;6.219678e-002
8.755608e+002;6.185207e-002
8.774893e+002;6.134290e-002
8.794179e+002;6.015136e-002
8.813464e+002;5.885410e-002
8.832750e+002;5.814598e-002
8.852036e+002;5.755794e-002
8.871321e+002;5.729291e-002
8.890606e+002;5.796957e-002
8.909892e+002;5.949200e-002
8.929177e+002;6.208373e-002
8.948463e+002;6.611160e-002
8.967748e+002;7.093326e-002
8.987034e+002;7.402575e-002
9.006319e+002;7.367510e-002
9.025605e+002;6.984928e-002
9.044890e+002;6.431420e-002
9.064175e+002;5.947654e-002
9.083461e+002;5.679974e-002
9.102747e+002;5.576922e-002
9.122032e+002;5.455615e-002
9.141318e+002;5.364868e-002
9.160603e+002;5.337306e-002
9.179888e+002;5.301926e-002
9.199174e+002;5.279346e-002
9.218459e+002;5.260750e-002
9.237745e+002;5.257145e-002
9.257031e+002;5.285352e-002
9.276316e+002;5.358435e-002
9.295601e+002;5.405842e-002
9.314887e+002;5.428150e-002
9.334172e+002;5.461649e-002
9.353458e+002;5.537728e-002
9.372744e+002;5.638710e-002
9.392029e+002;5.780719e-002
9.411314e+002;5.905646e-002
9.430600e+002;5.957884e-002
9.449885e+002;5.996751e-002
9.469171e+002;6.002324e-002
9.488456e+002;5.946696e-002
9.507742e+002;5.928158e-002
9.527027e+002;6.044183e-002
9.546313e+002;6.148251e-002
9.565598e+002;6.204299e-002
9.584883e+002;6.315825e-002
9.604169e+002;6.462450e-002
9.623455e+002;6.710639e-002
9.642740e+002;7.098070e-002
9.662026e+002;7.597940e-002
9.681311e+002;8.262739e-002
9.700596e+002;9.060291e-002
9.719882e+002;9.722108e-002
9.739167e+002;9.934114e-002
9.758453e+002;9.558349e-002
9.777739e+002;8.751739e-002
9.797024e+002;7.845028e-002
9.816309e+002;7.091500e-002
9.835595e+002;6.635914e-002
9.854880e+002;6.431132e-002
9.874166e+002;6.459097e-002
9.893452e+002;6.683234e-002
9.912737e+002;7.053029e-002
9.932022e+002;7.610094e-002
9.951307e+002;8.278403e-002
9.970593e+002;8.830570e-002
9.989879e+002;8.870252e-002
1.000916e+003;8.428161e-002
1.002845e+003;7.855140e-002
1.004773e+003;7.382234e-002
1.006702e+003;7.083625e-002
1.008631e+003;6.917415e-002
1.010559e+003;6.837133e-002
1.012488e+003;6.758857e-002
1.014416e+003;6.676772e-002
1.016345e+003;6.617882e-002
1.018273e+003;6.644269e-002
1.020202e+003;6.696174e-002
1.022130e+003;6.715519e-002
1.024059e+003;6.699352e-002
1.025988e+003;6.661756e-002
1.027916e+003;6.677012e-002
1.029845e+003;6.757750e-002
1.031773e+003;6.835174e-002
1.033702e+003;6.930254e-002
1.035630e+003;7.089873e-002
1.037559e+003;7.235733e-002
1.039487e+003;7.315039e-002
1.041416e+003;7.300525e-002
1.043344e+003;7.276960e-002
1.045273e+003;7.228642e-002
1.047202e+003;7.104110e-002
1.049130e+003;6.985367e-002
1.051059e+003;6.897937e-002
1.052987e+003;6.794213e-002
1.054916e+003;6.782982e-002
1.056844e+003;6.803009e-002
1.058773e+003;6.777602e-002
1.060701e+003;6.705952e-002
1.062630e+003;6.633694e-002
1.064558e+003;6.663331e-002
1.066487e+003;6.746250e-002
1.068416e+003;6.751076e-002
1.070344e+003;6.680904e-002
1.072273e+003;6.709637e-002
1.074201e+003;6.758613e-002
1.076130e+003;6.709830e-002
1.078058e+003;6.638462e-002
1.079987e+003;6.625754e-002
1.081915e+003;6.664421e-002
1.083844e+003;6.673357e-002
1.085773e+003;6.686376e-002
1.087701e+003;6.769535e-002
1.089630e+003;6.850515e-002
1.091558e+003;6.879874e-002
1.093487e+003;6.900244e-002
1.095415e+003;6.984207e-002
1.097344e+003;7.123462e-002
1.099272e+003;7.285424e-002
1.101201e+003;7.322615e-002
1.103129e+003;7.304551e-002
1.105058e+003;7.288892e-002
1.106987e+003;7.166990e-002
1.108915e+003;7.005741e-002
1.110844e+003;6.852862e-002
1.112772e+003;6.686012e-002
1.114701e+003;6.537631e-002
1.116629e+003;6.438929e-002
1.118558e+003;6.345492e-002
1.120486e+003;6.269532e-002
1.122415e+003;6.227322e-002
1.124344e+003;6.214639e-002
1.126272e+003;6.199445e-002
1.128201e+003;6.179782e-002
1.130129e+003;6.209658e-002
1.132058e+003;6.238376e-002
1.133986e+003;6.275336e-002
1.135915e+003;6.388108e-002
1.137843e+003;6.578868e-002
1.139772e+003;6.829710e-002
1.141700e+003;7.101972e-002
1.143629e+003;7.388636e-002
1.145557e+003;7.722860e-002
1.147486e+003;8.043738e-002
1.149415e+003;8.331469e-002
1.151343e+003;8.589810e-002
1.153272e+003;8.761771e-002
1.155200e+003;8.847490e-002
1.157129e+003;8.837706e-002
1.159057e+003;8.837494e-002
1.160986e+003;8.897170e-002
1.162914e+003;8.981550e-002
1.164843e+003;9.019266e-002
1.166771e+003;8.994114e-002
1.168700e+003;8.849822e-002
1.170629e+003;8.511175e-002
1.172557e+003;8.070655e-002
1.174486e+003;7.588287e-002
1.176414e+003;7.157151e-002
1.178343e+003;6.848660e-002
1.180271e+003;6.634331e-002
1.182200e+003;6.495110e-002
1.184128e+003;6.409244e-002
1.186057e+003;6.385203e-002
1.187986e+003;6.372029e-002
1.189914e+003;6.353595e-002
1.191843e+003;6.369523e-002
1.193771e+003;6.365525e-002
1.195700e+003;6.335489e-002
1.197628e+003;6.361904e-002
1.199557e+003;6.391951e-002
1.201485e+003;6.361724e-002
1.203414e+003;6.356484e-002
1.205343e+003;6.389962e-002
1.207271e+003;6.425673e-002
1.209200e+003;6.490909e-002
1.211128e+003;6.600814e-002
1.213057e+003;6.722044e-002
1.214985e+003;6.797688e-002
1.216914e+003;6.775220e-002
1.218842e+003;6.745166e-002
1.220771e+003;6.736030e-002
1.222699e+003;6.677599e-002
1.224628e+003;6.607839e-002
1.226557e+003;6.562166e-002
1.228485e+003;6.533857e-002
1.230414e+003;6.523452e-002
1.232342e+003;6.527606e-002
1.234271e+003;6.542230e-002
1.236199e+003;6.561850e-002
1.238128e+003;6.584404e-002
1.240056e+003;6.595179e-002
1.241985e+003;6.594489e-002
1.243913e+003;6.656627e-002
1.245842e+003;6.725665e-002
1.247771e+003;6.764947e-002
1.249699e+003;6.876065e-002
1.251628e+003;7.136687e-002
1.253556e+003;7.454506e-002
1.255485e+003;7.633227e-002
1.257413e+003;7.642282e-002
1.259342e+003;7.504995e-002
1.261270e+003;7.270861e-002
1.263199e+003;7.037651e-002
1.265127e+003;6.885181e-002
1.267056e+003;6.794894e-002
1.268985e+003;6.710012e-002
1.270913e+003;6.625859e-002
1.272842e+003;6.587505e-002
1.274770e+003;6.579280e-002
1.276699e+003;6.558251e-002
1.278627e+003;6.550767e-002
1.280556e+003;6.573710e-002
1.282484e+003;6.607082e-002
1.284413e+003;6.664680e-002
1.286342e+003;6.774446e-002
1.288270e+003;6.881655e-002
1.290199e+003;6.978900e-002
1.292127e+003;7.062174e-002
1.294056e+003;7.139210e-002
1.295984e+003;7.172024e-002
1.297913e+003;7.174353e-002
1.299841e+003;7.168088e-002
1.301770e+003;7.187343e-002
1.303698e+003;7.208304e-002
1.305627e+003;7.073746e-002
1.307556e+003;6.795379e-002
1.309484e+003;6.550159e-002
1.311413e+003;6.442361e-002
1.313341e+003;6.432231e-002
1.315270e+003;6.472821e-002
1.317198e+003;6.565650e-002
1.319127e+003;6.675996e-002
1.321055e+003;6.785527e-002
1.322984e+003;6.913751e-002
1.324912e+003;7.076120e-002
1.326841e+003;7.239393e-002
1.328770e+003;7.350671e-002
1.330698e+003;7.370042e-002
1.332627e+003;7.303829e-002
1.334555e+003;7.200098e-002
1.336484e+003;7.140443e-002
1.338412e+003;7.159397e-002
1.340341e+003;7.229197e-002
1.342269e+003;7.352338e-002
1.344198e+003;7.495375e-002
1.346126e+003;7.699905e-002
1.348055e+003;8.017221e-002
1.349984e+003;8.403784e-002
1.351912e+003;8.831237e-002
1.353841e+003;9.400820e-002
1.355769e+003;1.010320e-001
1.357698e+003;1.065784e-001
1.359626e+003;1.082886e-001
1.361555e+003;1.072218e-001
1.363483e+003;1.063701e-001
1.365412e+003;1.084056e-001
1.367341e+003;1.156209e-001
1.369269e+003;1.297695e-001
1.371198e+003;1.510685e-001
1.373126e+003;1.761303e-001
1.375055e+003;1.955962e-001
1.376983e+003;1.961022e-001
1.378912e+003;1.759782e-001
1.380840e+003;1.486305e-001
1.382769e+003;1.242963e-001
1.384698e+003;1.056136e-001
1.386626e+003;9.270333e-002
1.388555e+003;8.460949e-002
1.390483e+003;7.937694e-002
1.392412e+003;7.592320e-002
1.394340e+003;7.389819e-002
1.396269e+003;7.292725e-002
1.398197e+003;7.256237e-002
1.400126e+003;7.247602e-002
1.402054e+003;7.253151e-002
1.403983e+003;7.281572e-002
1.405911e+003;7.331503e-002
1.407840e+003;7.378712e-002
1.409769e+003;7.423129e-002
1.411697e+003;7.494650e-002
1.413626e+003;7.561604e-002
1.415554e+003;7.594734e-002
1.417483e+003;7.597241e-002
1.419411e+003;7.640472e-002
1.421340e+003;7.774352e-002
1.423268e+003;7.945798e-002
1.425197e+003;8.156463e-002
1.427125e+003;8.460502e-002
1.429054e+003;8.971561e-002
1.430983e+003;9.746868e-002
1.432911e+003;1.064169e-001
1.434840e+003;1.129326e-001
1.436768e+003;1.155334e-001
1.438697e+003;1.168680e-001
1.440625e+003;1.192536e-001
1.442554e+003;1.238925e-001
1.444482e+003;1.312462e-001
1.446411e+003;1.403049e-001
1.448340e+003;1.497770e-001
1.450268e+003;1.577891e-001
1.452197e+003;1.629955e-001
1.454125e+003;1.653253e-001
1.456054e+003;1.651387e-001
1.457982e+003;1.631848e-001
1.459911e+003;1.605408e-001
1.461839e+003;1.559675e-001
1.463768e+003;1.486930e-001
1.465697e+003;1.393745e-001
1.467625e+003;1.289910e-001
1.469554e+003;1.184580e-001
1.471482e+003;1.089260e-001
1.473411e+003;1.004869e-001
1.475339e+003;9.319288e-002
1.477268e+003;8.710493e-002
1.479196e+003;8.182789e-002
1.481125e+003;7.738399e-002
1.483053e+003;7.375821e-002
1.484982e+003;7.055616e-002
1.486911e+003;6.783520e-002
1.488839e+003;6.560917e-002
1.490768e+003;6.395387e-002
1.492696e+003;6.271243e-002
1.494625e+003;6.145251e-002
1.496553e+003;6.019391e-002
1.498482e+003;5.901588e-002
1.500410e+003;5.811962e-002
1.502339e+003;5.731915e-002
1.504267e+003;5.636288e-002
1.506196e+003;5.524880e-002
1.508125e+003;5.445416e-002
1.510053e+003;5.401298e-002
1.511982e+003;5.358622e-002
1.513910e+003;5.309979e-002
1.515839e+003;5.259673e-002
1.517767e+003;5.216830e-002
1.519696e+003;5.160336e-002
1.521624e+003;5.124693e-002
1.523553e+003;5.134015e-002
1.525481e+003;5.146114e-002
1.527410e+003;5.181469e-002
1.529339e+003;5.207079e-002
1.531267e+003;5.206078e-002
1.533196e+003;5.254261e-002
1.535124e+003;5.340472e-002
1.537053e+003;5.373968e-002
1.538981e+003;5.390992e-002
1.540910e+003;5.447388e-002
1.542838e+003;5.511783e-002
1.544767e+003;5.581937e-002
1.546695e+003;5.625779e-002
1.548624e+003;5.625304e-002
1.550553e+003;5.596973e-002
1.552481e+003;5.571283e-002
1.554410e+003;5.534917e-002
1.556338e+003;5.463543e-002
1.558267e+003;5.351883e-002
1.560195e+003;5.302479e-002
1.562124e+003;5.268366e-002
1.564052e+003;5.215063e-002
1.565981e+003;5.216905e-002
1.567910e+003;5.219737e-002
1.569838e+003;5.202903e-002
1.571767e+003;5.194171e-002
1.573695e+003;5.196363e-002
1.575624e+003;5.213961e-002
1.577552e+003;5.244670e-002
1.579481e+003;5.245287e-002
1.581409e+003;5.228477e-002
1.583338e+003;5.215261e-002
1.585266e+003;5.188305e-002
1.587195e+003;5.137580e-002
1.589124e+003;5.073827e-002
1.591052e+003;5.034809e-002
1.592981e+003;5.066070e-002
1.594909e+003;5.106812e-002
1.596838e+003;5.115649e-002
1.598766e+003;5.134358e-002
1.600695e+003;5.166949e-002
1.602623e+003;5.194227e-002
1.604552e+003;5.230283e-002
1.606480e+003;5.265515e-002
1.608409e+003;5.281318e-002
1.610338e+003;5.307178e-002
1.612266e+003;5.338003e-002
1.614195e+003;5.395279e-002
1.616123e+003;5.456768e-002
1.618052e+003;5.519142e-002
1.619980e+003;5.563990e-002
1.621909e+003;5.582178e-002
1.623837e+003;5.582389e-002
1.625766e+003;5.592940e-002
1.627694e+003;5.623916e-002
1.629623e+003;5.673192e-002
1.631552e+003;5.710437e-002
1.633480e+003;5.702354e-002
1.635409e+003;5.705037e-002
1.637337e+003;5.756543e-002
1.639266e+003;5.776749e-002
1.641194e+003;5.796264e-002
1.643123e+003;5.853125e-002
1.645051e+003;5.875800e-002
1.646980e+003;5.882887e-002
1.648909e+003;5.914985e-002
1.650837e+003;5.901090e-002
1.652766e+003;5.888586e-002
1.654694e+003;5.927251e-002
1.656623e+003;5.961955e-002
1.658551e+003;5.958021e-002
1.660480e+003;5.927148e-002
1.662408e+003;5.874218e-002
1.664337e+003;5.850687e-002
1.666266e+003;5.825642e-002
1.668194e+003;5.772419e-002
1.670123e+003;5.699260e-002
1.672051e+003;5.656755e-002
1.673980e+003;5.625756e-002
1.675908e+003;5.569795e-002
1.677837e+003;5.526675e-002
1.679765e+003;5.476779e-002
1.681694e+003;5.431578e-002
1.683622e+003;5.382511e-002
1.685551e+003;5.358409e-002
1.687479e+003;5.345250e-002
1.689408e+003;5.317491e-002
1.691337e+003;5.316438e-002
1.693265e+003;5.310668e-002
1.695194e+003;5.267883e-002
1.697122e+003;5.265111e-002
1.699051e+003;5.271051e-002
1.700979e+003;5.262299e-002
1.702908e+003;5.289184e-002
1.704836e+003;5.331525e-002
1.706765e+003;5.360107e-002
1.708693e+003;5.395790e-002
1.710622e+003;5.416658e-002
1.712551e+003;5.390628e-002
1.714479e+003;5.351426e-002
1.716408e+003;5.296722e-002
1.718336e+003;5.259643e-002
1.720265e+003;5.263009e-002
1.722193e+003;5.261165e-002
1.724122e+003;5.245542e-002
1.726050e+003;5.239956e-002
1.727979e+003;5.230544e-002
1.729908e+003;5.216748e-002
1.731836e+003;5.215929e-002
1.733765e+003;5.224374e-002
1.735693e+003;5.258809e-002
1.737622e+003;5.277973e-002
1.739550e+003;5.243792e-002
1.741479e+003;5.172372e-002
1.743407e+003;5.055728e-002
1.745336e+003;4.878287e-002
1.747265e+003;4.693545e-002
1.749193e+003;4.544717e-002
1.751122e+003;4.400863e-002
1.753050e+003;4.258416e-002
1.754979e+003;4.113873e-002
1.756907e+003;3.973002e-002
1.758836e+003;3.864406e-002
1.760764e+003;3.742412e-002
1.762693e+003;3.630186e-002
1.764621e+003;3.530248e-002
1.766550e+003;3.438726e-002
1.768479e+003;3.392601e-002
1.770407e+003;3.366592e-002
1.772336e+003;3.332401e-002
1.774264e+003;3.313966e-002
1.776193e+003;3.288729e-002
1.778121e+003;3.248697e-002
1.780050e+003;3.203057e-002
1.781978e+003;3.147729e-002
1.783907e+003;3.081062e-002
1.785835e+003;3.026443e-002
1.787764e+003;3.004093e-002
1.789693e+003;2.980657e-002
1.791621e+003;2.925165e-002
1.793550e+003;2.898007e-002
1.795478e+003;2.883111e-002
1.797407e+003;2.830834e-002
1.799335e+003;2.793288e-002
1.801264e+003;2.763137e-002
1.803192e+003;2.718492e-002
1.805121e+003;2.689129e-002
1.807049e+003;2.685487e-002
1.808978e+003;2.676708e-002
1.810907e+003;2.645042e-002
1.812835e+003;2.634035e-002
1.814764e+003;2.638204e-002
1.816692e+003;2.632307e-002
1.818621e+003;2.623214e-002
1.820549e+003;2.620680e-002
1.822478e+003;2.642376e-002
1.824406e+003;2.656816e-002
1.826335e+003;2.645746e-002
1.828264e+003;2.626650e-002
1.830192e+003;2.618315e-002
1.832121e+003;2.588728e-002
1.834049e+003;2.578059e-002
1.835978e+003;2.604381e-002
1.837906e+003;2.588292e-002
1.839835e+003;2.551363e-002
1.841763e+003;2.546152e-002
1.843692e+003;2.533418e-002
1.845620e+003;2.519198e-002
1.847549e+003;2.516582e-002
1.849478e+003;2.520954e-002
1.851406e+003;2.520374e-002
1.853335e+003;2.497644e-002
1.855263e+003;2.490412e-002
1.857192e+003;2.492763e-002
1.859120e+003;2.470682e-002
1.861049e+003;2.464400e-002
1.862977e+003;2.475234e-002
1.864906e+003;2.473800e-002
1.866834e+003;2.465642e-002
1.868763e+003;2.451742e-002
1.870692e+003;2.428649e-002
1.872620e+003;2.411080e-002
1.874549e+003;2.399691e-002
1.876477e+003;2.390647e-002
1.878406e+003;2.404775e-002
1.880334e+003;2.406681e-002
1.882263e+003;2.400048e-002
1.884191e+003;2.418874e-002
1.886120e+003;2.436891e-002
1.888048e+003;2.440077e-002
1.889977e+003;2.455213e-002
1.891906e+003;2.468654e-002
1.893834e+003;2.477634e-002
1.895763e+003;2.465905e-002
1.897691e+003;2.442593e-002
1.899620e+003;2.437245e-002
1.901548e+003;2.433372e-002
1.903477e+003;2.424493e-002
1.905405e+003;2.406373e-002
1.907334e+003;2.392131e-002
1.909262e+003;2.402139e-002
1.911191e+003;2.403742e-002
1.913120e+003;2.403602e-002
1.915048e+003;2.388610e-002
1.916977e+003;2.375610e-002
1.918905e+003;2.387878e-002
1.920834e+003;2.356313e-002
1.922762e+003;2.350055e-002
1.924691e+003;2.365252e-002
1.926619e+003;2.361274e-002
1.928548e+003;2.349178e-002
1.930477e+003;2.324758e-002
1.932405e+003;2.301004e-002
1.934334e+003;2.306944e-002
1.936262e+003;2.303586e-002
1.938191e+003;2.272016e-002
1.940119e+003;2.255275e-002
1.942048e+003;2.256723e-002
1.943976e+003;2.262696e-002
1.945905e+003;2.253610e-002
1.947833e+003;2.242521e-002
1.949762e+003;2.248836e-002
1.951691e+003;2.274551e-002
1.953619e+003;2.265628e-002
1.955548e+003;2.254511e-002
1.957476e+003;2.260496e-002
1.959405e+003;2.282066e-002
1.961333e+003;2.280117e-002
1.963262e+003;2.259163e-002
1.965190e+003;2.254486e-002
1.967119e+003;2.231330e-002
1.969047e+003;2.204089e-002
1.970976e+003;2.198150e-002
1.972905e+003;2.199405e-002
1.974833e+003;2.203904e-002
1.976762e+003;2.205606e-002
1.978690e+003;2.203294e-002
1.980619e+003;2.193365e-002
1.982547e+003;2.220337e-002
1.984476e+003;2.245494e-002
1.986404e+003;2.230513e-002
1.988333e+003;2.219901e-002
1.990261e+003;2.223911e-002
1.992190e+003;2.209430e-002
1.994119e+003;2.197603e-002
1.996047e+003;2.199520e-002
1.997976e+003;2.197840e-002
1.999904e+003;2.208165e-002
2.001833e+003;2.214869e-002
2.003761e+003;2.213279e-002
2.005690e+003;2.203734e-002
2.007618e+003;2.207757e-002
2.009547e+003;2.226510e-002
2.011476e+003;2.244771e-002
2.013404e+003;2.237277e-002
2.015333e+003;2.218687e-002
2.017261e+003;2.207164e-002
2.019190e+003;2.226632e-002
2.021118e+003;2.243320e-002
2.023047e+003;2.207059e-002
2.024975e+003;2.189127e-002
2.026904e+003;2.201091e-002
2.028833e+003;2.188514e-002
2.030761e+003;2.158876e-002
2.032690e+003;2.181573e-002
2.034618e+003;2.208210e-002
2.036547e+003;2.196815e-002
2.038475e+003;2.176653e-002
2.040404e+003;2.183137e-002
2.042332e+003;2.200935e-002
2.044261e+003;2.215514e-002
2.046189e+003;2.212355e-002
2.048118e+003;2.198509e-002
2.050047e+003;2.200747e-002
2.051975e+003;2.207397e-002
2.053904e+003;2.210459e-002
2.055832e+003;2.212679e-002
2.057761e+003;2.200760e-002
2.059689e+003;2.188890e-002
2.061618e+003;2.173459e-002
2.063546e+003;2.160119e-002
2.065475e+003;2.162247e-002
2.067404e+003;2.174838e-002
2.069332e+003;2.197815e-002
2.071260e+003;2.200900e-002
2.073189e+003;2.203298e-002
2.075118e+003;2.215981e-002
2.077046e+003;2.214238e-002
2.078975e+003;2.214907e-002
2.080903e+003;2.227050e-002
2.082832e+003;2.225540e-002
2.084760e+003;2.230004e-002
2.086689e+003;2.268661e-002
2.088617e+003;2.260971e-002
2.090546e+003;2.234968e-002
2.092475e+003;2.228201e-002
2.094403e+003;2.236841e-002
2.096332e+003;2.237818e-002
2.098260e+003;2.236056e-002
2.100189e+003;2.246289e-002
2.102117e+003;2.251935e-002
2.104046e+003;2.238212e-002
2.105974e+003;2.242207e-002
2.107903e+003;2.246673e-002
2.109832e+003;2.258318e-002
2.111760e+003;2.274551e-002
2.113688e+003;2.289316e-002
2.115617e+003;2.290130e-002
2.117546e+003;2.272935e-002
2.119474e+003;2.263931e-002
2.121403e+003;2.299558e-002
2.123331e+003;2.361746e-002
2.125260e+003;2.378627e-002
2.127188e+003;2.371634e-002
2.129117e+003;2.407091e-002
2.131045e+003;2.447599e-002
2.132974e+003;2.437991e-002
2.134903e+003;2.426098e-002
2.136831e+003;2.431305e-002
2.138760e+003;2.398497e-002
2.140688e+003;2.357905e-002
2.142617e+003;2.356743e-002
2.144545e+003;2.385214e-002
2.146474e+003;2.408330e-002
2.148402e+003;2.386541e-002
2.150331e+003;2.383285e-002
2.152260e+003;2.407175e-002
2.154188e+003;2.420720e-002
2.156117e+003;2.407325e-002
2.158045e+003;2.399775e-002
2.159974e+003;2.404629e-002
2.161902e+003;2.415360e-002
2.163831e+003;2.438237e-002
2.165759e+003;2.455150e-002
2.167688e+003;2.468012e-002
2.169616e+003;2.470966e-002
2.171545e+003;2.487411e-002
2.173474e+003;2.516989e-002
2.175402e+003;2.528476e-002
2.177331e+003;2.536642e-002
2.179259e+003;2.527798e-002
2.181188e+003;2.512927e-002
2.183116e+003;2.511028e-002
2.185045e+003;2.508521e-002
2.186973e+003;2.504994e-002
2.188902e+003;2.495851e-002
2.190831e+003;2.505643e-002
2.192759e+003;2.526646e-002
2.194688e+003;2.506156e-002
2.196616e+003;2.501989e-002
2.198545e+003;2.512913e-002
2.200473e+003;2.493380e-002
2.202402e+003;2.455560e-002
2.204330e+003;2.445222e-002
2.206259e+003;2.437234e-002
2.208188e+003;2.418632e-002
2.210116e+003;2.429938e-002
2.212044e+003;2.451301e-002
2.213973e+003;2.438969e-002
2.215902e+003;2.439400e-002
2.217830e+003;2.477760e-002
2.219759e+003;2.489910e-002
2.221687e+003;2.476129e-002
2.223616e+003;2.467781e-002
2.225544e+003;2.470966e-002
2.227473e+003;2.473761e-002
2.229401e+003;2.480037e-002
2.231330e+003;2.471204e-002
2.233259e+003;2.467921e-002
2.235187e+003;2.472404e-002
2.237116e+003;2.486036e-002
2.239044e+003;2.488327e-002
2.240973e+003;2.459484e-002
2.242901e+003;2.457818e-002
2.244830e+003;2.466504e-002
2.246758e+003;2.462493e-002
2.248687e+003;2.488475e-002
2.250615e+003;2.523535e-002
2.252544e+003;2.537208e-002
2.254473e+003;2.540467e-002
2.256401e+003;2.547874e-002
2.258330e+003;2.550165e-002
2.260258e+003;2.526154e-002
2.262187e+003;2.505689e-002
2.264115e+003;2.530253e-002
2.266044e+003;2.527264e-002
2.267972e+003;2.507272e-002
2.269901e+003;2.498360e-002
2.271830e+003;2.476511e-002
2.273758e+003;2.482075e-002
2.275687e+003;2.481124e-002
2.277615e+003;2.449607e-002
2.279544e+003;2.437756e-002
2.281472e+003;2.441391e-002
2.283401e+003;2.445702e-002
2.285329e+003;2.441738e-002
2.287258e+003;2.425033e-002
2.289187e+003;2.408292e-002
2.291115e+003;2.379834e-002
2.293043e+003;2.369633e-002
2.294972e+003;2.391316e-002
2.296901e+003;2.389289e-002
2.298829e+003;2.387444e-002
2.300758e+003;2.408649e-002
2.302686e+003;2.426427e-002
2.304615e+003;2.426206e-002
2.306543e+003;2.428572e-002
2.308472e+003;2.450003e-002
2.310400e+003;2.450824e-002
2.312329e+003;2.444521e-002
2.314258e+003;2.462142e-002
2.316186e+003;2.495075e-002
2.318115e+003;2.489731e-002
2.320043e+003;2.469675e-002
2.321972e+003;2.475452e-002
2.323900e+003;2.502954e-002
2.325829e+003;2.523724e-002
2.327757e+003;2.537306e-002
2.329686e+003;2.551767e-002
2.331615e+003;2.569660e-002
2.333543e+003;2.584575e-002
2.335472e+003;2.590596e-002
2.337400e+003;2.576298e-002
2.339329e+003;2.603681e-002
2.341257e+003;2.635306e-002
2.343186e+003;2.634725e-002
2.345114e+003;2.619410e-002
2.347043e+003;2.631789e-002
2.348971e+003;2.675108e-002
2.350900e+003;2.670362e-002
2.352829e+003;2.643021e-002
2.354757e+003;2.655143e-002
2.356686e+003;2.669907e-002
2.358614e+003;2.674432e-002
2.360543e+003;2.703792e-002
2.362471e+003;2.737809e-002
2.364400e+003;2.739125e-002
2.366328e+003;2.717765e-002
2.368257e+003;2.713945e-002
2.370186e+003;2.726983e-002
2.372114e+003;2.727389e-002
2.374042e+003;2.723526e-002
2.375971e+003;2.717028e-002
2.377900e+003;2.720231e-002
2.379828e+003;2.743141e-002
2.381757e+003;2.766265e-002
2.383685e+003;2.756199e-002
2.385614e+003;2.723917e-002
2.387542e+003;2.687761e-002
2.389471e+003;2.689072e-002
2.391399e+003;2.726292e-002
2.393328e+003;2.756301e-002
2.395257e+003;2.779648e-002
2.397185e+003;2.780803e-002
2.399114e+003;2.798946e-002
2.401042e+003;2.822100e-002
2.402971e+003;2.808535e-002
2.404899e+003;2.801494e-002
2.406828e+003;2.811253e-002
2.408756e+003;2.813671e-002
2.410685e+003;2.815474e-002
2.412614e+003;2.842057e-002
2.414542e+003;2.811285e-002
2.416471e+003;2.769440e-002
2.418399e+003;2.804502e-002
2.420328e+003;2.850286e-002
2.422256e+003;2.893367e-002
2.424185e+003;2.931485e-002
2.426113e+003;2.923623e-002
2.428042e+003;2.905910e-002
2.429970e+003;2.910111e-002
2.431899e+003;2.892368e-002
2.433828e+003;2.860792e-002
2.435756e+003;2.849147e-002
2.437685e+003;2.837388e-002
2.439613e+003;2.819844e-002
2.441542e+003;2.792568e-002
2.443470e+003;2.776398e-002
2.445399e+003;2.787522e-002
2.447327e+003;2.803123e-002
2.449256e+003;2.790762e-002
2.451185e+003;2.774187e-002
2.453113e+003;2.780453e-002
2.455042e+003;2.770048e-002
2.456970e+003;2.740837e-002
2.458899e+003;2.740251e-002
2.460827e+003;2.733835e-002
2.462756e+003;2.704882e-002
2.464684e+003;2.691769e-002
2.466613e+003;2.697195e-002
2.468542e+003;2.708186e-002
2.470470e+003;2.730427e-002
2.472398e+003;2.744730e-002
2.474327e+003;2.758045e-002
2.476256e+003;2.793052e-002
2.478184e+003;2.821092e-002
2.480113e+003;2.834159e-002
2.482041e+003;2.821721e-002
2.483970e+003;2.825940e-002
2.485898e+003;2.807605e-002
2.487827e+003;2.797221e-002
2.489755e+003;2.830923e-002
2.491684e+003;2.849833e-002
2.493613e+003;2.842903e-002
2.495541e+003;2.824603e-002
2.497470e+003;2.809570e-002
2.499398e+003;2.815619e-002
2.501327e+003;2.808669e-002
2.503255e+003;2.788190e-002
2.505184e+003;2.767173e-002
2.507112e+003;2.793239e-002
2.509041e+003;2.847006e-002
2.510969e+003;2.869326e-002
2.512898e+003;2.883773e-002
2.514827e+003;2.917220e-002
2.516755e+003;2.954195e-002
2.518684e+003;2.984831e-002
2.520612e+003;3.008365e-002
2.522541e+003;3.038257e-002
2.524469e+003;3.050899e-002
2.526398e+003;3.062161e-002
2.528326e+003;3.102602e-002
2.530255e+003;3.143786e-002
2.532184e+003;3.157980e-002
2.534112e+003;3.149756e-002
2.536041e+003;3.132385e-002
2.537969e+003;3.163029e-002
2.539898e+003;3.200489e-002
2.541826e+003;3.223665e-002
2.543755e+003;3.246029e-002
2.545683e+003;3.279598e-002
2.547612e+003;3.320296e-002
2.549541e+003;3.351363e-002
2.551469e+003;3.382754e-002
2.553397e+003;3.427499e-002
2.555326e+003;3.470331e-002
2.557255e+003;3.486082e-002
2.559183e+003;3.489824e-002
2.561112e+003;3.522716e-002
2.563040e+003;3.574264e-002
2.564969e+003;3.617904e-002
2.566897e+003;3.663779e-002
2.568826e+003;3.739627e-002
2.570754e+003;3.798135e-002
2.572683e+003;3.830888e-002
2.574612e+003;3.877787e-002
2.576540e+003;3.944538e-002
2.578469e+003;4.017284e-002
2.580397e+003;4.081703e-002
2.582326e+003;4.103122e-002
2.584254e+003;4.040864e-002
2.586183e+003;3.938820e-002
2.588111e+003;3.870599e-002
2.590040e+003;3.823372e-002
2.591969e+003;3.806323e-002
2.593897e+003;3.781395e-002
2.595826e+003;3.741961e-002
2.597754e+003;3.728094e-002
2.599683e+003;3.733192e-002
2.601611e+003;3.754418e-002
2.603540e+003;3.786839e-002
2.605468e+003;3.830628e-002
2.607397e+003;3.861693e-002
2.609325e+003;3.898496e-002
2.611254e+003;3.951676e-002
2.613183e+003;3.985483e-002
2.615111e+003;3.990346e-002
2.617040e+003;3.987724e-002
2.618968e+003;3.987782e-002
2.620897e+003;3.971869e-002
2.622825e+003;3.970755e-002
2.624754e+003;3.961929e-002
2.626682e+003;3.916692e-002
2.628611e+003;3.891248e-002
2.630540e+003;3.880022e-002
2.632468e+003;3.860067e-002
2.634396e+003;3.870987e-002
2.636325e+003;3.896959e-002
2.638254e+003;3.911583e-002
2.640182e+003;3.920129e-002
2.642111e+003;3.963330e-002
2.644039e+003;4.036587e-002
2.645968e+003;4.056617e-002
2.647896e+003;4.057078e-002
2.649825e+003;4.093148e-002
2.651753e+003;4.128315e-002
2.653682e+003;4.195158e-002
2.655611e+003;4.267959e-002
2.657539e+003;4.293925e-002
2.659468e+003;4.297956e-002
2.661396e+003;4.273794e-002
2.663325e+003;4.267755e-002
2.665253e+003;4.308691e-002
2.667182e+003;4.322707e-002
2.669110e+003;4.319204e-002
2.671039e+003;4.323047e-002
2.672968e+003;4.332356e-002
2.674896e+003;4.371572e-002
2.676825e+003;4.404435e-002
2.678753e+003;4.405337e-002
2.680682e+003;4.402891e-002
2.682610e+003;4.401699e-002
2.684539e+003;4.389872e-002
2.686467e+003;4.395330e-002
2.688396e+003;4.411073e-002
2.690324e+003;4.402810e-002
2.692253e+003;4.409008e-002
2.694182e+003;4.436849e-002
2.696110e+003;4.440915e-002
2.698039e+003;4.451777e-002
2.699967e+003;4.499979e-002
2.701896e+003;4.563944e-002
2.703824e+003;4.627565e-002
2.705753e+003;4.706812e-002
2.707681e+003;4.781960e-002
2.709610e+003;4.869691e-002
2.711539e+003;4.964571e-002
2.713467e+003;5.081357e-002
2.715396e+003;5.216733e-002
2.717324e+003;5.396206e-002
2.719253e+003;5.553601e-002
2.721181e+003;5.670137e-002
2.723110e+003;5.754659e-002
2.725038e+003;5.704678e-002
2.726967e+003;5.562107e-002
2.728896e+003;5.459305e-002
2.730824e+003;5.351797e-002
2.732752e+003;5.189593e-002
2.734681e+003;5.054161e-002
2.736610e+003;4.994410e-002
2.738538e+003;4.934741e-002
2.740467e+003;4.849676e-002
2.742395e+003;4.753534e-002
2.744324e+003;4.703939e-002
2.746252e+003;4.665259e-002
2.748181e+003;4.609445e-002
2.750109e+003;4.596562e-002
2.752038e+003;4.633665e-002
2.753967e+003;4.644343e-002
2.755895e+003;4.634779e-002
2.757824e+003;4.635763e-002
2.759752e+003;4.665698e-002
2.761681e+003;4.720595e-002
2.763609e+003;4.776929e-002
2.765538e+003;4.801702e-002
2.767466e+003;4.857275e-002
2.769395e+003;4.912905e-002
2.771323e+003;4.956800e-002
2.773252e+003;5.009397e-002
2.775181e+003;5.027752e-002
2.777109e+003;5.059879e-002
2.779038e+003;5.159415e-002
2.780966e+003;5.291284e-002
2.782895e+003;5.408791e-002
2.784823e+003;5.537182e-002
2.786752e+003;5.681873e-002
2.788680e+003;5.832948e-002
2.790609e+003;6.003941e-002
2.792538e+003;6.154229e-002
2.794466e+003;6.261739e-002
2.796395e+003;6.384155e-002
2.798323e+003;6.527013e-002
2.800252e+003;6.675899e-002
2.802180e+003;6.831595e-002
2.804109e+003;7.024168e-002
2.806037e+003;7.242137e-002
2.807966e+003;7.441888e-002
2.809895e+003;7.612060e-002
2.811823e+003;7.767873e-002
2.813751e+003;7.932038e-002
2.815680e+003;8.112787e-002
2.817609e+003;8.288528e-002
2.819537e+003;8.497529e-002
2.821466e+003;8.784054e-002
2.823394e+003;9.106810e-002
2.825323e+003;9.501743e-002
2.827251e+003;1.005997e-001
2.829180e+003;1.076916e-001
2.831108e+003;1.158193e-001
2.833037e+003;1.246305e-001
2.834966e+003;1.319256e-001
2.836894e+003;1.353769e-001
2.838823e+003;1.350912e-001
2.840751e+003;1.320078e-001
2.842680e+003;1.274027e-001
2.844608e+003;1.227277e-001
2.846537e+003;1.182942e-001
2.848465e+003;1.146460e-001
2.850394e+003;1.119117e-001
2.852323e+003;1.101143e-001
2.854251e+003;1.097416e-001
2.856180e+003;1.108954e-001
2.858108e+003;1.141370e-001
2.860037e+003;1.195207e-001
2.861965e+003;1.267724e-001
2.863894e+003;1.346019e-001
2.865822e+003;1.402552e-001
2.867751e+003;1.429095e-001
2.869679e+003;1.434288e-001
2.871608e+003;1.431846e-001
2.873536e+003;1.431889e-001
2.875465e+003;1.433187e-001
2.877394e+003;1.425267e-001
2.879322e+003;1.408532e-001
2.881251e+003;1.390233e-001
2.883179e+003;1.382184e-001
2.885108e+003;1.382297e-001
2.887036e+003;1.388534e-001
2.888965e+003;1.405611e-001
2.890893e+003;1.425506e-001
2.892822e+003;1.453269e-001
2.894750e+003;1.495080e-001
2.896679e+003;1.539357e-001
2.898608e+003;1.584871e-001
2.900536e+003;1.634884e-001
2.902465e+003;1.682289e-001
2.904393e+003;1.732424e-001
2.906322e+003;1.783491e-001
2.908250e+003;1.828293e-001
2.910179e+003;1.867246e-001
2.912107e+003;1.900864e-001
2.914036e+003;1.927576e-001
2.915965e+003;1.940628e-001
2.917893e+003;1.934042e-001
2.919822e+003;1.909199e-001
2.921750e+003;1.867564e-001
2.923679e+003;1.813864e-001
2.925607e+003;1.747865e-001
2.927536e+003;1.671151e-001
2.929464e+003;1.594715e-001
2.931393e+003;1.517108e-001
2.933322e+003;1.435876e-001
2.935250e+003;1.364462e-001
2.937178e+003;1.318278e-001
2.939107e+003;1.301457e-001
2.941036e+003;1.317354e-001
2.942964e+003;1.372456e-001
2.944893e+003;1.455496e-001
2.946821e+003;1.542162e-001
2.948750e+003;1.610454e-001
2.950678e+003;1.641877e-001
2.952607e+003;1.638770e-001
2.954535e+003;1.608087e-001
2.956464e+003;1.561663e-001
2.958393e+003;1.514593e-001
2.960321e+003;1.467209e-001
2.962250e+003;1.403274e-001
2.964178e+003;1.325122e-001
2.966107e+003;1.249804e-001
2.968035e+003;1.178326e-001
2.969964e+003;1.109717e-001
2.971892e+003;1.048988e-001
2.973821e+003;9.957707e-002
2.975750e+003;9.466112e-002
2.977678e+003;9.019070e-002
2.979607e+003;8.598077e-002
2.981535e+003;8.253365e-002
2.983464e+003;7.967120e-002
2.985392e+003;7.696945e-002
2.987321e+003;7.471307e-002
2.989249e+003;7.305676e-002
2.991178e+003;7.150678e-002
2.993106e+003;6.937185e-002
2.995035e+003;6.715260e-002
2.996964e+003;6.543540e-002
2.998892e+003;6.377780e-002
3.000821e+003;6.158166e-002
3.002749e+003;5.951020e-002
3.004678e+003;5.800505e-002
3.006606e+003;5.675185e-002
3.008535e+003;5.562111e-002
3.010463e+003;5.441773e-002
3.012392e+003;5.282298e-002
3.014321e+003;5.129883e-002
3.016249e+003;5.046277e-002
3.018177e+003;4.966105e-002
3.020106e+003;4.877553e-002
3.022035e+003;4.770794e-002
3.023963e+003;4.667557e-002
3.025892e+003;4.589263e-002
3.027820e+003;4.519469e-002
3.029749e+003;4.445665e-002
3.031677e+003;4.396958e-002
3.033606e+003;4.356031e-002
3.035534e+003;4.311728e-002
3.037463e+003;4.258266e-002
3.039392e+003;4.234805e-002
3.041320e+003;4.216680e-002
3.043249e+003;4.132491e-002
3.045177e+003;4.071800e-002
3.047106e+003;4.088794e-002
3.049034e+003;4.113210e-002
3.050963e+003;4.073943e-002
3.052891e+003;4.034162e-002
3.054820e+003;4.008693e-002
3.056749e+003;3.986503e-002
3.058677e+003;3.994073e-002
3.060606e+003;3.985766e-002
3.062534e+003;3.958013e-002
3.064463e+003;3.964390e-002
3.066391e+003;3.954725e-002
3.068320e+003;3.926980e-002
3.070248e+003;3.937735e-002
3.072177e+003;3.951030e-002
3.074105e+003;3.942942e-002
3.076034e+003;3.913588e-002
3.077963e+003;3.859871e-002
3.079891e+003;3.849099e-002
3.081820e+003;3.859832e-002
3.083748e+003;3.861657e-002
3.085677e+003;3.849454e-002
3.087605e+003;3.839893e-002
3.089534e+003;3.822016e-002
3.091462e+003;3.823966e-002
3.093391e+003;3.852977e-002
3.095320e+003;3.847977e-002
3.097248e+003;3.844849e-002
3.099177e+003;3.845454e-002
3.101105e+003;3.801820e-002
3.103034e+003;3.809347e-002
3.104962e+003;3.855465e-002
3.106891e+003;3.883025e-002
3.108819e+003;3.901758e-002
3.110748e+003;3.906583e-002
3.112677e+003;3.916532e-002
3.114605e+003;3.909288e-002
3.116533e+003;3.900772e-002
3.118462e+003;3.867557e-002
3.120391e+003;3.815337e-002
3.122319e+003;3.853187e-002
3.124248e+003;3.926621e-002
3.126176e+003;3.928061e-002
3.128105e+003;3.892751e-002
3.130033e+003;3.931667e-002
3.131962e+003;3.981121e-002
3.133890e+003;3.996183e-002
3.135819e+003;4.001281e-002
3.137748e+003;4.001724e-002
3.139676e+003;4.028843e-002
3.141605e+003;4.049436e-002
3.143533e+003;4.031814e-002
3.145462e+003;4.056118e-002
3.147390e+003;4.085161e-002
3.149319e+003;4.049473e-002
3.151247e+003;4.015525e-002
3.153176e+003;4.053764e-002
3.155104e+003;4.103355e-002
3.157033e+003;4.093764e-002
3.158962e+003;4.084120e-002
3.160890e+003;4.089256e-002
3.162819e+003;4.082027e-002
3.164747e+003;4.110100e-002
3.166676e+003;4.123531e-002
3.168604e+003;4.105565e-002
3.170533e+003;4.066898e-002
3.172461e+003;4.065515e-002
3.174390e+003;4.119775e-002
3.176319e+003;4.157720e-002
3.178247e+003;4.153880e-002
3.180176e+003;4.115152e-002
3.182104e+003;4.126475e-002
3.184033e+003;4.187294e-002
3.185961e+003;4.212003e-002
3.187890e+003;4.201768e-002
3.189818e+003;4.216133e-002
3.191747e+003;4.207893e-002
3.193676e+003;4.191468e-002
3.195604e+003;4.205538e-002
3.197532e+003;4.223396e-002
3.199461e+003;4.222533e-002
3.201390e+003;4.219338e-002
3.203318e+003;4.227526e-002
3.205247e+003;4.216797e-002
3.207175e+003;4.214592e-002
3.209104e+003;4.215527e-002
3.211032e+003;4.169105e-002
3.212961e+003;4.147121e-002
3.214889e+003;4.156516e-002
3.216818e+003;4.169674e-002
3.218747e+003;4.180132e-002
3.220675e+003;4.165177e-002
3.222604e+003;4.133664e-002
3.224532e+003;4.098807e-002
3.226461e+003;4.090134e-002
3.228389e+003;4.104742e-002
3.230318e+003;4.088816e-002
3.232246e+003;4.055998e-002
3.234175e+003;4.046505e-002
3.236104e+003;4.024019e-002
3.238032e+003;4.017996e-002
3.239961e+003;4.041420e-002
3.241889e+003;4.046563e-002
3.243818e+003;4.013192e-002
3.245746e+003;4.006422e-002
3.247675e+003;3.992489e-002
3.249603e+003;3.971397e-002
3.251532e+003;3.986845e-002
3.253460e+003;3.990586e-002
3.255389e+003;3.989932e-002
3.257318e+003;4.007563e-002
3.259246e+003;4.034581e-002
3.261175e+003;4.072644e-002
3.263103e+003;4.080240e-002
3.265032e+003;4.081914e-002
3.266960e+003;4.063398e-002
3.268889e+003;4.050506e-002
3.270817e+003;4.064671e-002
3.272746e+003;4.090680e-002
3.274675e+003;4.096400e-002
3.276603e+003;4.084706e-002
3.278531e+003;4.118857e-002
3.280460e+003;4.121615e-002
3.282389e+003;4.068590e-002
3.284317e+003;4.042919e-002
3.286246e+003;4.051131e-002
3.288174e+003;4.096502e-002
3.290103e+003;4.081244e-002
3.292031e+003;4.025321e-002
3.293960e+003;4.016074e-002
3.295888e+003;4.050735e-002
3.297817e+003;4.117618e-002
3.299746e+003;4.121881e-002
3.301674e+003;4.061699e-002
3.303603e+003;4.056697e-002
3.305531e+003;4.095041e-002
3.307460e+003;4.079119e-002
3.309388e+003;4.076833e-002
3.311317e+003;4.071793e-002
3.313245e+003;4.056889e-002
3.315174e+003;4.052881e-002
3.317103e+003;4.056711e-002
3.319031e+003;4.039682e-002
3.320960e+003;4.016503e-002
3.322888e+003;4.013054e-002
3.324817e+003;4.060342e-002
3.326745e+003;4.079741e-002
3.328674e+003;4.026669e-002
3.330602e+003;3.978434e-002
3.332531e+003;4.008755e-002
3.334459e+003;4.080214e-002
3.336388e+003;4.113848e-002
3.338317e+003;4.108403e-002
3.340245e+003;4.077779e-002
3.342174e+003;4.027480e-002
3.344102e+003;3.973132e-002
3.346031e+003;3.986482e-002
3.347959e+003;4.032959e-002
3.349888e+003;4.060255e-002
3.351816e+003;4.050440e-002
3.353745e+003;4.002719e-002
3.355674e+003;3.965352e-002
3.357602e+003;3.935719e-002
3.359531e+003;3.928743e-002
3.361459e+003;3.977504e-002
3.363388e+003;4.020672e-002
3.365316e+003;4.046075e-002
3.367245e+003;4.035359e-002
3.369173e+003;3.965592e-002
3.371102e+003;3.937877e-002
3.373031e+003;3.933575e-002
3.374959e+003;3.907352e-002
3.376887e+003;3.897735e-002
3.378816e+003;3.898242e-002
3.380745e+003;3.909846e-002
3.382673e+003;3.858227e-002
3.384602e+003;3.808229e-002
3.386530e+003;3.814085e-002
3.388459e+003;3.783860e-002
3.390387e+003;3.803910e-002
3.392316e+003;3.853766e-002
3.394244e+003;3.809137e-002
3.396173e+003;3.753649e-002
3.398102e+003;3.739526e-002
3.400030e+003;3.736969e-002
3.401959e+003;3.808952e-002
3.403887e+003;3.898532e-002
3.405816e+003;3.854563e-002
3.407744e+003;3.791676e-002
3.409673e+003;3.800265e-002
3.411601e+003;3.779887e-002
3.413530e+003;3.718607e-002
3.415458e+003;3.678238e-002
3.417387e+003;3.688698e-002
3.419316e+003;3.704409e-002
3.421244e+003;3.683951e-002
3.423173e+003;3.703601e-002
3.425101e+003;3.724173e-002
3.427030e+003;3.701736e-002
3.428958e+003;3.649733e-002
3.430887e+003;3.605323e-002
3.432815e+003;3.569357e-002
3.434744e+003;3.552256e-002
3.436673e+003;3.544245e-002
3.438601e+003;3.505230e-002
3.440530e+003;3.459346e-002
3.442458e+003;3.464284e-002
3.444387e+003;3.477082e-002
3.446315e+003;3.480195e-002
3.448244e+003;3.463642e-002
3.450172e+003;3.438508e-002
3.452101e+003;3.438867e-002
3.454030e+003;3.458772e-002
3.455958e+003;3.435183e-002
3.457886e+003;3.393740e-002
3.459815e+003;3.359381e-002
3.461744e+003;3.324710e-002
3.463672e+003;3.318794e-002
3.465601e+003;3.305870e-002
3.467529e+003;3.286828e-002
3.469458e+003;3.255692e-002
3.471386e+003;3.234330e-002
3.473315e+003;3.231432e-002
3.475243e+003;3.238221e-002
3.477172e+003;3.216750e-002
3.479101e+003;3.173294e-002
3.481029e+003;3.179579e-002
3.482958e+003;3.177176e-002
3.484886e+003;3.126531e-002
3.486815e+003;3.094165e-002
3.488743e+003;3.076026e-002
3.490672e+003;3.084488e-002
3.492600e+003;3.059818e-002
3.494529e+003;3.009508e-002
3.496458e+003;2.971070e-002
3.498386e+003;2.976910e-002
3.500315e+003;3.001150e-002
3.502243e+003;2.973784e-002
3.504172e+003;2.986616e-002
3.506100e+003;3.014306e-002
3.508029e+003;2.952730e-002
3.509957e+003;2.864961e-002
3.511886e+003;2.848213e-002
3.513814e+003;2.922819e-002
3.515743e+003;2.948368e-002
3.517672e+003;2.923744e-002
3.519600e+003;2.887630e-002
3.521529e+003;2.852190e-002
3.523457e+003;2.848772e-002
3.525386e+003;2.848223e-002
3.527314e+003;2.824868e-002
3.529243e+003;2.789780e-002
3.531171e+003;2.776797e-002
3.533100e+003;2.806951e-002
3.535029e+003;2.817970e-002
3.536957e+003;2.794727e-002
3.538885e+003;2.762685e-002
3.540814e+003;2.710256e-002
3.542743e+003;2.655020e-002
3.544671e+003;2.659860e-002
3.546600e+003;2.663499e-002
3.548528e+003;2.653406e-002
3.550457e+003;2.622074e-002
3.552385e+003;2.570022e-002
3.554314e+003;2.570198e-002
3.556242e+003;2.621705e-002
3.558171e+003;2.632324e-002
3.560100e+003;2.540443e-002
3.562028e+003;2.481682e-002
3.563957e+003;2.503393e-002
3.565885e+003;2.495479e-002
3.567814e+003;2.472870e-002
3.569742e+003;2.476164e-002
3.571671e+003;2.482850e-002
3.573599e+003;2.477683e-002
3.575528e+003;2.427079e-002
3.577457e+003;2.345820e-002
3.579385e+003;2.293560e-002
3.581314e+003;2.297050e-002
3.583242e+003;2.322297e-002
3.585171e+003;2.303635e-002
3.587099e+003;2.262936e-002
3.589028e+003;2.237515e-002
3.590956e+003;2.263265e-002
3.592885e+003;2.287846e-002
3.594813e+003;2.295034e-002
3.596742e+003;2.302545e-002
3.598671e+003;2.290175e-002
3.600599e+003;2.249227e-002
3.602528e+003;2.210152e-002
3.604456e+003;2.198470e-002
3.606385e+003;2.191587e-002
3.608313e+003;2.158594e-002
3.610242e+003;2.137163e-002
3.612170e+003;2.172027e-002
3.614099e+003;2.178573e-002
3.616028e+003;2.168213e-002
3.617956e+003;2.160530e-002
3.619885e+003;2.141263e-002
3.621813e+003;2.103919e-002
3.623742e+003;2.077811e-002
3.625670e+003;2.060558e-002
3.627599e+003;2.071976e-002
3.629527e+003;2.107119e-002
3.631456e+003;2.099134e-002
3.633385e+003;2.093608e-002
3.635313e+003;2.123229e-002
3.637241e+003;2.143512e-002
3.639170e+003;2.084127e-002
3.641099e+003;2.024908e-002
3.643027e+003;2.036126e-002
3.644956e+003;2.059693e-002
3.646884e+003;2.004295e-002
3.648813e+003;1.970601e-002
3.650741e+003;1.964167e-002
3.652670e+003;1.944005e-002
3.654598e+003;1.901098e-002
3.656527e+003;1.883561e-002
3.658456e+003;1.920449e-002
3.660384e+003;1.935846e-002
3.662313e+003;1.918347e-002
3.664241e+003;1.919043e-002
3.666170e+003;1.945880e-002
3.668098e+003;1.934980e-002
3.670027e+003;1.950618e-002
3.671955e+003;1.980890e-002
3.673884e+003;1.982960e-002
3.675813e+003;2.012957e-002
3.677741e+003;2.039921e-002
3.679669e+003;2.022957e-002
3.681598e+003;2.002834e-002
3.683527e+003;2.023460e-002
3.685455e+003;2.037310e-002
3.687384e+003;2.008164e-002
3.689312e+003;2.031678e-002
3.691241e+003;2.106715e-002
3.693169e+003;2.105675e-002
3.695098e+003;2.066482e-002
3.697026e+003;2.029792e-002
3.698955e+003;2.011544e-002
3.700884e+003;2.026709e-002
3.702812e+003;2.060321e-002
3.704741e+003;2.056785e-002
3.706669e+003;2.041376e-002
3.708598e+003;2.033028e-002
3.710526e+003;2.059526e-002
3.712455e+003;2.036945e-002
3.714383e+003;1.996769e-002
3.716312e+003;2.027556e-002
3.718240e+003;2.037886e-002
3.720169e+003;1.976434e-002
3.722098e+003;1.962212e-002
3.724026e+003;1.992141e-002
3.725955e+003;1.969918e-002
3.727883e+003;1.935018e-002
3.729812e+003;1.984892e-002
3.731740e+003;2.022884e-002
3.733669e+003;2.004496e-002
3.735597e+003;2.039046e-002
3.737526e+003;2.076598e-002
3.739455e+003;2.075712e-002
3.741383e+003;2.058244e-002
3.743312e+003;2.044488e-002
3.745240e+003;2.019527e-002
3.747169e+003;2.008122e-002
3.749097e+003;2.029240e-002
3.751026e+003;2.013325e-002
3.752954e+003;2.003889e-002
3.754883e+003;2.023321e-002
3.756812e+003;2.037348e-002
3.758740e+003;2.074273e-002
3.760668e+003;2.151143e-002
3.762597e+003;2.187886e-002
3.764526e+003;2.150784e-002
3.766454e+003;2.120661e-002
3.768383e+003;2.046600e-002
3.770311e+003;2.037778e-002
3.772240e+003;2.081857e-002
3.774168e+003;2.085848e-002
3.776097e+003;2.074176e-002
3.778025e+003;2.083686e-002
3.779954e+003;2.071500e-002
3.781883e+003;2.058779e-002
3.783811e+003;2.072459e-002
3.785740e+003;2.093636e-002
3.787668e+003;2.076254e-002
3.789597e+003;2.082083e-002
3.791525e+003;2.095243e-002
3.793454e+003;2.123048e-002
3.795382e+003;2.162007e-002
3.797311e+003;2.152932e-002
3.799240e+003;2.084760e-002
3.801168e+003;2.050705e-002
3.803097e+003;2.089784e-002
3.805025e+003;2.081597e-002
3.806954e+003;2.068087e-002
3.808882e+003;2.101116e-002
3.810811e+003;2.108472e-002
3.812739e+003;2.100393e-002
3.814668e+003;2.062465e-002
3.816596e+003;2.084896e-002
3.818525e+003;2.094797e-002
3.820454e+003;2.084079e-002
3.822382e+003;2.155220e-002
3.824311e+003;2.234326e-002
3.826239e+003;2.201444e-002
3.828168e+003;2.102065e-002
3.830096e+003;2.091223e-002
3.832025e+003;2.133324e-002
3.833953e+003;2.143466e-002
3.835882e+003;2.106305e-002
3.837811e+003;2.078288e-002
3.839739e+003;2.101634e-002
3.841667e+003;2.132527e-002
3.843596e+003;2.121068e-002
3.845525e+003;2.106221e-002
3.847453e+003;2.118115e-002
3.849382e+003;2.133529e-002
3.851310e+003;2.130160e-002
3.853239e+003;2.142662e-002
3.855167e+003;2.172463e-002
3.857096e+003;2.161777e-002
3.859024e+003;2.127182e-002
3.860953e+003;2.152741e-002
3.862882e+003;2.199324e-002
3.864810e+003;2.178845e-002
3.866739e+003;2.192242e-002
3.868667e+003;2.216177e-002
3.870596e+003;2.209604e-002
3.872524e+003;2.206512e-002
3.874453e+003;2.166057e-002
3.876381e+003;2.179988e-002
3.878310e+003;2.216190e-002
3.880239e+003;2.215940e-002
3.882167e+003;2.230527e-002
3.884096e+003;2.219465e-002
3.886024e+003;2.209440e-002
3.887953e+003;2.206962e-002
3.889881e+003;2.218073e-002
3.891810e+003;2.229104e-002
3.893738e+003;2.221969e-002
3.895667e+003;2.259823e-002
3.897595e+003;2.248488e-002
3.899524e+003;2.221393e-002
3.901453e+003;2.224640e-002
3.903381e+003;2.231923e-002
3.905310e+003;2.220696e-002
3.907238e+003;2.225149e-002
3.909167e+003;2.249391e-002
3.911095e+003;2.249838e-002
3.913024e+003;2.261959e-002
3.914952e+003;2.295687e-002
3.916881e+003;2.294542e-002
3.918810e+003;2.280777e-002
3.920738e+003;2.299827e-002
3.922667e+003;2.336361e-002
3.924595e+003;2.349517e-002
3.926524e+003;2.343967e-002
3.928452e+003;2.344631e-002
3.930381e+003;2.301944e-002
3.932309e+003;2.286169e-002
3.934238e+003;2.268323e-002
3.936167e+003;2.241746e-002
3.938095e+003;2.227402e-002
3.940023e+003;2.247507e-002
3.941952e+003;2.304072e-002
3.943881e+003;2.323181e-002
3.945809e+003;2.268878e-002
3.947738e+003;2.216222e-002
3.949666e+003;2.224818e-002
3.951595e+003;2.266856e-002
3.953523e+003;2.270693e-002
3.955452e+003;2.290591e-002
3.957380e+003;2.291338e-002
3.959309e+003;2.288548e-002
3.961238e+003;2.333169e-002
3.963166e+003;2.349143e-002
3.965095e+003;2.332837e-002
3.967023e+003;2.327393e-002
3.968952e+003;2.286574e-002
3.970880e+003;2.215151e-002
3.972809e+003;2.201412e-002
3.974737e+003;2.240602e-002
3.976666e+003;2.324778e-002
3.978594e+003;2.347107e-002
3.980523e+003;2.351630e-002
3.982452e+003;2.418481e-002
3.984380e+003;2.424465e-002
3.986309e+003;2.381931e-002
3.988237e+003;2.377328e-002
3.990166e+003;2.418828e-002
3.992094e+003;2.448412e-002
3.994023e+003;2.493159e-002
3.995951e+003;2.513331e-002
3.997880e+003;2.468503e-002
3.999809e+003;2.399628e-002
4.001737e+003;0.000000e+000
