3.992094e+002;0.000000e+000
4.011380e+002;0.000000e+000
4.030665e+002;0.000000e+000
4.049951e+002;0.000000e+000
4.069236e+002;0.000000e+000
4.088522e+002;0.000000e+000
4.107807e+002;0.000000e+000
4.127093e+002;0.000000e+000
4.146378e+002;0.000000e+000
4.165664e+002;0.000000e+000
4.184949e+002;0.000000e+000
4.204235e+002;0.000000e+000
4.223520e+002;0.000000e+000
4.242806e+002;0.000000e+000
4.262091e+002;0.000000e+000
4.281377e+002;0.000000e+000
4.300662e+002;0.000000e+000
4.319948e+002;0.000000e+000
4.339233e+002;0.000000e+000
4.358519e+002;0.000000e+000
4.377804e+002;0.000000e+000
4.397090e+002;0.000000e+000
4.416375e+002;0.000000e+000
4.435660e+002;0.000000e+000
4.454946e+002;0.000000e+000
4.474232e+002;0.000000e+000
4.493517e+002;0.000000e+000
4.512802e+002;0.000000e+000
4.532088e+002;0.000000e+000
4.551373e+002;0.000000e+000
4.570659e+002;0.000000e+000
4.589944e+002;0.000000e+000
4.609230e+002;0.000000e+000
4.628515e+002;0.000000e+000
4.647801e+002;0.000000e+000
4.667086e+002;0.000000e+000
4.686372e+002;0.000000e+000
4.705657e+002;0.000000e+000
4.724943e+002;0.000000e+000
4.744228e+002;0.000000e+000
4.763513e+002;0.000000e+000
4.782799e+002;0.000000e+000
4.802085e+002;0.000000e+000
4.821370e+002;0.000000e+000
4.840656e+002;0.000000e+000
4.859941e+002;0.000000e+000
4.879226e+002;0.000000e+000
4.898512e+002;0.000000e+000
4.917798e+002;0.000000e+000
4.937083e+002;0.000000e+000
4.956368e+002;0.000000e+000
4.975654e+002;0.000000e+000
4.994939e+002;0.000000e+000
5.014225e+002;0.000000e+000
5.033510e+002;0.000000e+000
5.052796e+002;0.000000e+000
5.072081e+002;0.000000e+000
5.091367e+002;0.000000e+000
5.110652e+002;0.000000e+000
5.129938e+002;0.000000e+000
5.149223e+002;0.000000e+000
5.168509e+002;0.000000e+000
5.187794e+002;0.000000e+000
5.207079e+002;0.000000e+000
5.226365e+002;0.000000e+000
5.245651e+002;0.000000e+000
5.264936e+002;0.000000e+000
5.284222e+002;0.000000e+000
5.303507e+002;0.000000e+000
5.322792e+002;0.000000e+000
5.342078e+002;0.000000e+000
5.361364e+002;0.000000e+000
5.380649e+002;0.000000e+000
5.399935e+002;0.000000e+000
5.419220e+002;0.000000e+000
5.438505e+002;0.000000e+000
5.457791e+002;0.000000e+000
5.477076e+002;0.000000e+000
5.496362e+002;0.000000e+000
5.515648e+002;0.000000e+000
5.534933e+002;0.000000e+000
5.554218e+002;0.000000e+000
5.573504e+002;0.000000e+000
5.592789e+002;0.000000e+000
5.612075e+002;0.000000e+000
5.631360e+002;0.000000e+000
5.650646e+002;0.000000e+000
5.669931e+002;0.000000e+000
5.689217e+002;0.000000e+000
5.708502e+002;0.000000e+000
5.727787e+002;0.000000e+000
5.747073e+002;0.000000e+000
5.766359e+002;0.000000e+000
5.785644e+002;0.000000e+000
5.804930e+002;0.000000e+000
5.824215e+002;0.000000e+000
5.843500e+002;0.000000e+000
5.862786e+002;0.000000e+000
5.882072e+002;0.000000e+000
5.901357e+002;0.000000e+000
5.920643e+002;0.000000e+000
5.939928e+002;0.000000e+000
5.959213e+002;0.000000e+000
5.978499e+002;0.000000e+000
5.997784e+002;4.438357e-002
6.017070e+002;4.127076e-002
6.036355e+002;3.871114e-002
6.055641e+002;4.176999e-002
6.074926e+002;4.593089e-002
6.094211e+002;4.496087e-002
6.113497e+002;4.205002e-002
6.132783e+002;4.081161e-002
6.152068e+002;4.047581e-002
6.171354e+002;4.143145e-002
6.190639e+002;4.167449e-002
6.209924e+002;3.889189e-002
6.229210e+002;4.241713e-002
6.248495e+002;4.429070e-002
6.267781e+002;4.211865e-002
6.287067e+002;4.304274e-002
6.306352e+002;4.602301e-002
6.325637e+002;4.612249e-002
6.344923e+002;4.442666e-002
6.364208e+002;4.321466e-002
6.383494e+002;4.089263e-002
6.402780e+002;4.049040e-002
6.422065e+002;4.010993e-002
6.441350e+002;3.873874e-002
6.460636e+002;3.702811e-002
6.479921e+002;3.706279e-002
6.499207e+002;3.931300e-002
6.518492e+002;4.115243e-002
6.537778e+002;4.157155e-002
6.557063e+002;4.323863e-002
6.576349e+002;4.327641e-002
6.595634e+002;4.489737e-002
6.614919e+002;4.847505e-002
6.634205e+002;4.871010e-002
6.653491e+002;4.545479e-002
6.672776e+002;4.329376e-002
6.692062e+002;4.280109e-002
6.711347e+002;4.357628e-002
6.730632e+002;4.400599e-002
6.749918e+002;4.394285e-002
6.769203e+002;4.402759e-002
6.788489e+002;4.414088e-002
6.807775e+002;4.543003e-002
6.827060e+002;4.560874e-002
6.846345e+002;4.462127e-002
6.865631e+002;4.461154e-002
6.884916e+002;4.367131e-002
6.904202e+002;4.244066e-002
6.923488e+002;4.268647e-002
6.942773e+002;4.459527e-002
6.962058e+002;4.602515e-002
6.981344e+002;4.632810e-002
7.000629e+002;4.603690e-002
7.019915e+002;4.591513e-002
7.039200e+002;4.561979e-002
7.058486e+002;4.560146e-002
7.077771e+002;4.626923e-002
7.097057e+002;4.596592e-002
7.116342e+002;4.558884e-002
7.135627e+002;4.666779e-002
7.154913e+002;4.785378e-002
7.174199e+002;4.815353e-002
7.193484e+002;4.714208e-002
7.212770e+002;4.670391e-002
7.232055e+002;4.799793e-002
7.251340e+002;4.822284e-002
7.270626e+002;4.788130e-002
7.289911e+002;4.889099e-002
7.309197e+002;4.939422e-002
7.328483e+002;4.870747e-002
7.347768e+002;4.799097e-002
7.367053e+002;4.724606e-002
7.386339e+002;4.757338e-002
7.405624e+002;4.782182e-002
7.424910e+002;4.793303e-002
7.444196e+002;4.752307e-002
7.463481e+002;4.710415e-002
7.482766e+002;4.764411e-002
7.502052e+002;4.856053e-002
7.521337e+002;4.920389e-002
7.540623e+002;4.922003e-002
7.559908e+002;4.938966e-002
7.579194e+002;4.979993e-002
7.598479e+002;4.973706e-002
7.617765e+002;5.023194e-002
7.637050e+002;5.046806e-002
7.656335e+002;5.056056e-002
7.675621e+002;5.051965e-002
7.694907e+002;5.082139e-002
7.714192e+002;5.078672e-002
7.733478e+002;5.070177e-002
7.752763e+002;5.085536e-002
7.772048e+002;5.184071e-002
7.791334e+002;5.300746e-002
7.810620e+002;5.290569e-002
7.829905e+002;5.355163e-002
7.849191e+002;5.466797e-002
7.868476e+002;5.415273e-002
7.887761e+002;5.410657e-002
7.907047e+002;5.521712e-002
7.926332e+002;5.672720e-002
7.945618e+002;5.850683e-002
7.964903e+002;6.037123e-002
7.984189e+002;6.173277e-002
8.003474e+002;6.252661e-002
8.022759e+002;6.395610e-002
8.042045e+002;6.591434e-002
8.061331e+002;6.752945e-002
8.080616e+002;6.937336e-002
8.099902e+002;7.000107e-002
8.119187e+002;6.923235e-002
8.138472e+002;6.763034e-002
8.157758e+002;6.531435e-002
8.177043e+002;6.273092e-002
8.196329e+002;6.067179e-002
8.215615e+002;5.988277e-002
8.234900e+002;5.939337e-002
8.254185e+002;5.864042e-002
8.273471e+002;5.804099e-002
8.292756e+002;5.822891e-002
8.312042e+002;5.862202e-002
8.331328e+002;5.925659e-002
8.350613e+002;6.045702e-002
8.369898e+002;6.328692e-002
8.389184e+002;6.839902e-002
8.408469e+002;7.304233e-002
8.427755e+002;7.249842e-002
8.447040e+002;6.860137e-002
8.466326e+002;6.391882e-002
8.485611e+002;6.034777e-002
8.504897e+002;5.823940e-002
8.524182e+002;5.732077e-002
8.543467e+002;5.646498e-002
8.562753e+002;5.536012e-002
8.582039e+002;5.496656e-002
8.601324e+002;5.501267e-002
8.620610e+002;5.488921e-002
8.639895e+002;5.482974e-002
8.659180e+002;5.464339e-002
8.678466e+002;5.418880e-002
8.697751e+002;5.431848e-002
8.717037e+002;5.501353e-002
8.736323e+002;5.560156e-002
8.755608e+002;5.520673e-002
8.774893e+002;5.457122e-002
8.794179e+002;5.402607e-002
8.813464e+002;5.334050e-002
8.832750e+002;5.323194e-002
8.852036e+002;5.378599e-002
8.871321e+002;5.399947e-002
8.890606e+002;5.451956e-002
8.909892e+002;5.586277e-002
8.929177e+002;5.796237e-002
8.948463e+002;6.146251e-002
8.967748e+002;6.550613e-002
8.987034e+002;6.799645e-002
9.006319e+002;6.816222e-002
9.025605e+002;6.511463e-002
9.044890e+002;6.018569e-002
9.064175e+002;5.584160e-002
9.083461e+002;5.317382e-002
9.102747e+002;5.171256e-002
9.122032e+002;5.034277e-002
9.141318e+002;4.976708e-002
9.160603e+002;4.981967e-002
9.179888e+002;4.942994e-002
9.199174e+002;4.919617e-002
9.218459e+002;4.917331e-002
9.237745e+002;4.909792e-002
9.257031e+002;4.943042e-002
9.276316e+002;4.997927e-002
9.295601e+002;5.016909e-002
9.314887e+002;5.001652e-002
9.334172e+002;5.008315e-002
9.353458e+002;5.114579e-002
9.372744e+002;5.276334e-002
9.392029e+002;5.424207e-002
9.411314e+002;5.504317e-002
9.430600e+002;5.544519e-002
9.449885e+002;5.606966e-002
9.469171e+002;5.619756e-002
9.488456e+002;5.564439e-002
9.507742e+002;5.593879e-002
9.527027e+002;5.724104e-002
9.546313e+002;5.819754e-002
9.565598e+002;5.869697e-002
9.584883e+002;5.945032e-002
9.604169e+002;6.100180e-002
9.623455e+002;6.333913e-002
9.642740e+002;6.643203e-002
9.662026e+002;7.046021e-002
9.681311e+002;7.605124e-002
9.700596e+002;8.273332e-002
9.719882e+002;8.844842e-002
9.739167e+002;9.077280e-002
9.758453e+002;8.801000e-002
9.777739e+002;8.082403e-002
9.797024e+002;7.258817e-002
9.816309e+002;6.553792e-002
9.835595e+002;6.056363e-002
9.854880e+002;5.796200e-002
9.874166e+002;5.749420e-002
9.893452e+002;5.881286e-002
9.912737e+002;6.168904e-002
9.932022e+002;6.658519e-002
9.951307e+002;7.231827e-002
9.970593e+002;7.671247e-002
9.989879e+002;7.720208e-002
1.000916e+003;7.357676e-002
1.002845e+003;6.843129e-002
1.004773e+003;6.364343e-002
1.006702e+003;6.030003e-002
1.008631e+003;5.842521e-002
1.010559e+003;5.762918e-002
1.012488e+003;5.666184e-002
1.014416e+003;5.572993e-002
1.016345e+003;5.520575e-002
1.018273e+003;5.532798e-002
1.020202e+003;5.581063e-002
1.022130e+003;5.558424e-002
1.024059e+003;5.518446e-002
1.025988e+003;5.518671e-002
1.027916e+003;5.537954e-002
1.029845e+003;5.604768e-002
1.031773e+003;5.686677e-002
1.033702e+003;5.788533e-002
1.035630e+003;5.963091e-002
1.037559e+003;6.095906e-002
1.039487e+003;6.137991e-002
1.041416e+003;6.139968e-002
1.043344e+003;6.115477e-002
1.045273e+003;6.042355e-002
1.047202e+003;5.972409e-002
1.049130e+003;5.925712e-002
1.051059e+003;5.853739e-002
1.052987e+003;5.734134e-002
1.054916e+003;5.703624e-002
1.056844e+003;5.700265e-002
1.058773e+003;5.612509e-002
1.060701e+003;5.549677e-002
1.062630e+003;5.560070e-002
1.064558e+003;5.573204e-002
1.066487e+003;5.590004e-002
1.068416e+003;5.578685e-002
1.070344e+003;5.551752e-002
1.072273e+003;5.618681e-002
1.074201e+003;5.578557e-002
1.076130e+003;5.499153e-002
1.078058e+003;5.504971e-002
1.079987e+003;5.541485e-002
1.081915e+003;5.619869e-002
1.083844e+003;5.631112e-002
1.085773e+003;5.647143e-002
1.087701e+003;5.737121e-002
1.089630e+003;5.832781e-002
1.091558e+003;5.811447e-002
1.093487e+003;5.806329e-002
1.095415e+003;5.919507e-002
1.097344e+003;6.076564e-002
1.099272e+003;6.216402e-002
1.101201e+003;6.283173e-002
1.103129e+003;6.315557e-002
1.105058e+003;6.317700e-002
1.106987e+003;6.209945e-002
1.108915e+003;6.029451e-002
1.110844e+003;5.851074e-002
1.112772e+003;5.722278e-002
1.114701e+003;5.635782e-002
1.116629e+003;5.558232e-002
1.118558e+003;5.455371e-002
1.120486e+003;5.393186e-002
1.122415e+003;5.396431e-002
1.124344e+003;5.414072e-002
1.126272e+003;5.395591e-002
1.128201e+003;5.374373e-002
1.130129e+003;5.373428e-002
1.132058e+003;5.397062e-002
1.133986e+003;5.495306e-002
1.135915e+003;5.656302e-002
1.137843e+003;5.833270e-002
1.139772e+003;6.089257e-002
1.141700e+003;6.378571e-002
1.143629e+003;6.665456e-002
1.145557e+003;6.967571e-002
1.147486e+003;7.306632e-002
1.149415e+003;7.613745e-002
1.151343e+003;7.894659e-002
1.153272e+003;8.091816e-002
1.155200e+003;8.180529e-002
1.157129e+003;8.179405e-002
1.159057e+003;8.168238e-002
1.160986e+003;8.185986e-002
1.162914e+003;8.234857e-002
1.164843e+003;8.273605e-002
1.166771e+003;8.237212e-002
1.168700e+003;8.083102e-002
1.170629e+003;7.760040e-002
1.172557e+003;7.350925e-002
1.174486e+003;6.925163e-002
1.176414e+003;6.520125e-002
1.178343e+003;6.171593e-002
1.180271e+003;5.919686e-002
1.182200e+003;5.732104e-002
1.184128e+003;5.624455e-002
1.186057e+003;5.609130e-002
1.187986e+003;5.612795e-002
1.189914e+003;5.591825e-002
1.191843e+003;5.597648e-002
1.193771e+003;5.595398e-002
1.195700e+003;5.593358e-002
1.197628e+003;5.600818e-002
1.199557e+003;5.608723e-002
1.201485e+003;5.613591e-002
1.203414e+003;5.645747e-002
1.205343e+003;5.674823e-002
1.207271e+003;5.700855e-002
1.209200e+003;5.753433e-002
1.211128e+003;5.869071e-002
1.213057e+003;5.981766e-002
1.214985e+003;6.030468e-002
1.216914e+003;6.015554e-002
1.218842e+003;5.994796e-002
1.220771e+003;5.948482e-002
1.222699e+003;5.849906e-002
1.224628e+003;5.784599e-002
1.226557e+003;5.762074e-002
1.228485e+003;5.752004e-002
1.230414e+003;5.756531e-002
1.232342e+003;5.770875e-002
1.234271e+003;5.771375e-002
1.236199e+003;5.773676e-002
1.238128e+003;5.788619e-002
1.240056e+003;5.815250e-002
1.241985e+003;5.806072e-002
1.243913e+003;5.822558e-002
1.245842e+003;5.882720e-002
1.247771e+003;5.934034e-002
1.249699e+003;6.047591e-002
1.251628e+003;6.260955e-002
1.253556e+003;6.534153e-002
1.255485e+003;6.719859e-002
1.257413e+003;6.743421e-002
1.259342e+003;6.622852e-002
1.261270e+003;6.401867e-002
1.263199e+003;6.164260e-002
1.265127e+003;6.005566e-002
1.267056e+003;5.909411e-002
1.268985e+003;5.835927e-002
1.270913e+003;5.773029e-002
1.272842e+003;5.727744e-002
1.274770e+003;5.713827e-002
1.276699e+003;5.708956e-002
1.278627e+003;5.677414e-002
1.280556e+003;5.659666e-002
1.282484e+003;5.693427e-002
1.284413e+003;5.749635e-002
1.286342e+003;5.806871e-002
1.288270e+003;5.881885e-002
1.290199e+003;5.985740e-002
1.292127e+003;6.073527e-002
1.294056e+003;6.131172e-002
1.295984e+003;6.162145e-002
1.297913e+003;6.167002e-002
1.299841e+003;6.136881e-002
1.301770e+003;6.140068e-002
1.303698e+003;6.165677e-002
1.305627e+003;6.045919e-002
1.307556e+003;5.801107e-002
1.309484e+003;5.576444e-002
1.311413e+003;5.470657e-002
1.313341e+003;5.443354e-002
1.315270e+003;5.482891e-002
1.317198e+003;5.563433e-002
1.319127e+003;5.651060e-002
1.321055e+003;5.756947e-002
1.322984e+003;5.886966e-002
1.324912e+003;6.065045e-002
1.326841e+003;6.198543e-002
1.328770e+003;6.279027e-002
1.330698e+003;6.299320e-002
1.332627e+003;6.244512e-002
1.334555e+003;6.151588e-002
1.336484e+003;6.098697e-002
1.338412e+003;6.095280e-002
1.340341e+003;6.156627e-002
1.342269e+003;6.278054e-002
1.344198e+003;6.437072e-002
1.346126e+003;6.620942e-002
1.348055e+003;6.886882e-002
1.349984e+003;7.264163e-002
1.351912e+003;7.710888e-002
1.353841e+003;8.277734e-002
1.355769e+003;8.991840e-002
1.357698e+003;9.614079e-002
1.359626e+003;9.876841e-002
1.361555e+003;9.822349e-002
1.363483e+003;9.780796e-002
1.365412e+003;1.001605e-001
1.367341e+003;1.080775e-001
1.369269e+003;1.235306e-001
1.371198e+003;1.462940e-001
1.373126e+003;1.726278e-001
1.375055e+003;1.931195e-001
1.376983e+003;1.955212e-001
1.378912e+003;1.774055e-001
1.380840e+003;1.499970e-001
1.382769e+003;1.236787e-001
1.384698e+003;1.022162e-001
1.386626e+003;8.640695e-002
1.388555e+003;7.566321e-002
1.390483e+003;6.878806e-002
1.392412e+003;6.434221e-002
1.394340e+003;6.146805e-002
1.396269e+003;6.008618e-002
1.398197e+003;5.940105e-002
1.400126e+003;5.892483e-002
1.402054e+003;5.859723e-002
1.403983e+003;5.858767e-002
1.405911e+003;5.883278e-002
1.407840e+003;5.883031e-002
1.409769e+003;5.905456e-002
1.411697e+003;6.000993e-002
1.413626e+003;6.063296e-002
1.415554e+003;6.071442e-002
1.417483e+003;6.068707e-002
1.419411e+003;6.119303e-002
1.421340e+003;6.266424e-002
1.423268e+003;6.461435e-002
1.425197e+003;6.714448e-002
1.427125e+003;7.094683e-002
1.429054e+003;7.696969e-002
1.430983e+003;8.573475e-002
1.432911e+003;9.594461e-002
1.434840e+003;1.038005e-001
1.436768e+003;1.072767e-001
1.438697e+003;1.091200e-001
1.440625e+003;1.120732e-001
1.442554e+003;1.174106e-001
1.444482e+003;1.254568e-001
1.446411e+003;1.352683e-001
1.448340e+003;1.456144e-001
1.450268e+003;1.543895e-001
1.452197e+003;1.599485e-001
1.454125e+003;1.624257e-001
1.456054e+003;1.624079e-001
1.457982e+003;1.609208e-001
1.459911e+003;1.585765e-001
1.461839e+003;1.541675e-001
1.463768e+003;1.471845e-001
1.465697e+003;1.380705e-001
1.467625e+003;1.274769e-001
1.469554e+003;1.164427e-001
1.471482e+003;1.062204e-001
1.473411e+003;9.681116e-002
1.475339e+003;8.834506e-002
1.477268e+003;8.100012e-002
1.479196e+003;7.477069e-002
1.481125e+003;6.940574e-002
1.483053e+003;6.496441e-002
1.484982e+003;6.121489e-002
1.486911e+003;5.807738e-002
1.488839e+003;5.554820e-002
1.490768e+003;5.357756e-002
1.492696e+003;5.228941e-002
1.494625e+003;5.109987e-002
1.496553e+003;4.975434e-002
1.498482e+003;4.850206e-002
1.500410e+003;4.757390e-002
1.502339e+003;4.682764e-002
1.504267e+003;4.572281e-002
1.506196e+003;4.434526e-002
1.508125e+003;4.381217e-002
1.510053e+003;4.378710e-002
1.511982e+003;4.346219e-002
1.513910e+003;4.306777e-002
1.515839e+003;4.270921e-002
1.517767e+003;4.224560e-002
1.519696e+003;4.165352e-002
1.521624e+003;4.131886e-002
1.523553e+003;4.148233e-002
1.525481e+003;4.159087e-002
1.527410e+003;4.193475e-002
1.529339e+003;4.186608e-002
1.531267e+003;4.176393e-002
1.533196e+003;4.210338e-002
1.535124e+003;4.269864e-002
1.537053e+003;4.301454e-002
1.538981e+003;4.276745e-002
1.540910e+003;4.311662e-002
1.542838e+003;4.416893e-002
1.544767e+003;4.511428e-002
1.546695e+003;4.531299e-002
1.548624e+003;4.513965e-002
1.550553e+003;4.502059e-002
1.552481e+003;4.476766e-002
1.554410e+003;4.443279e-002
1.556338e+003;4.375134e-002
1.558267e+003;4.251838e-002
1.560195e+003;4.236310e-002
1.562124e+003;4.232687e-002
1.564052e+003;4.172603e-002
1.565981e+003;4.169028e-002
1.567910e+003;4.157957e-002
1.569838e+003;4.111462e-002
1.571767e+003;4.106982e-002
1.573695e+003;4.101679e-002
1.575624e+003;4.072553e-002
1.577552e+003;4.078303e-002
1.579481e+003;4.099586e-002
1.581409e+003;4.097081e-002
1.583338e+003;4.094088e-002
1.585266e+003;4.063234e-002
1.587195e+003;4.033599e-002
1.589124e+003;4.021642e-002
1.591052e+003;4.012905e-002
1.592981e+003;4.006694e-002
1.594909e+003;4.017924e-002
1.596838e+003;4.026375e-002
1.598766e+003;4.038875e-002
1.600695e+003;4.073281e-002
1.602623e+003;4.102222e-002
1.604552e+003;4.146593e-002
1.606480e+003;4.204541e-002
1.608409e+003;4.235558e-002
1.610338e+003;4.256040e-002
1.612266e+003;4.289686e-002
1.614195e+003;4.321199e-002
1.616123e+003;4.334889e-002
1.618052e+003;4.395642e-002
1.619980e+003;4.466463e-002
1.621909e+003;4.501475e-002
1.623837e+003;4.522072e-002
1.625766e+003;4.557934e-002
1.627694e+003;4.590732e-002
1.629623e+003;4.614209e-002
1.631552e+003;4.631841e-002
1.633480e+003;4.620923e-002
1.635409e+003;4.617647e-002
1.637337e+003;4.681151e-002
1.639266e+003;4.739164e-002
1.641194e+003;4.771504e-002
1.643123e+003;4.808957e-002
1.645051e+003;4.799575e-002
1.646980e+003;4.793647e-002
1.648909e+003;4.817204e-002
1.650837e+003;4.771326e-002
1.652766e+003;4.734416e-002
1.654694e+003;4.791974e-002
1.656623e+003;4.849254e-002
1.658551e+003;4.880919e-002
1.660480e+003;4.858924e-002
1.662408e+003;4.784930e-002
1.664337e+003;4.760932e-002
1.666266e+003;4.712362e-002
1.668194e+003;4.639848e-002
1.670123e+003;4.614659e-002
1.672051e+003;4.607650e-002
1.673980e+003;4.570220e-002
1.675908e+003;4.547366e-002
1.677837e+003;4.531269e-002
1.679765e+003;4.489069e-002
1.681694e+003;4.421926e-002
1.683622e+003;4.341330e-002
1.685551e+003;4.328809e-002
1.687479e+003;4.338298e-002
1.689408e+003;4.320225e-002
1.691337e+003;4.333879e-002
1.693265e+003;4.336248e-002
1.695194e+003;4.287441e-002
1.697122e+003;4.301113e-002
1.699051e+003;4.299551e-002
1.700979e+003;4.282895e-002
1.702908e+003;4.352254e-002
1.704836e+003;4.398502e-002
1.706765e+003;4.427202e-002
1.708693e+003;4.461392e-002
1.710622e+003;4.466900e-002
1.712551e+003;4.444439e-002
1.714479e+003;4.382452e-002
1.716408e+003;4.300652e-002
1.718336e+003;4.287938e-002
1.720265e+003;4.313429e-002
1.722193e+003;4.321364e-002
1.724122e+003;4.299182e-002
1.726050e+003;4.289551e-002
1.727979e+003;4.282997e-002
1.729908e+003;4.279520e-002
1.731836e+003;4.286786e-002
1.733765e+003;4.296285e-002
1.735693e+003;4.335310e-002
1.737622e+003;4.359034e-002
1.739550e+003;4.361492e-002
1.741479e+003;4.337976e-002
1.743407e+003;4.234641e-002
1.745336e+003;4.062536e-002
1.747265e+003;3.886478e-002
1.749193e+003;3.730549e-002
1.751122e+003;3.587919e-002
1.753050e+003;3.473561e-002
1.754979e+003;3.363577e-002
1.756907e+003;3.232071e-002
1.758836e+003;3.114949e-002
1.760764e+003;2.979405e-002
1.762693e+003;2.864077e-002
1.764621e+003;2.789766e-002
1.766550e+003;2.732699e-002
1.768479e+003;2.694611e-002
1.770407e+003;2.643884e-002
1.772336e+003;2.602217e-002
1.774264e+003;2.576818e-002
1.776193e+003;2.534735e-002
1.778121e+003;2.497476e-002
1.780050e+003;2.478598e-002
1.781978e+003;2.434826e-002
1.783907e+003;2.378634e-002
1.785835e+003;2.360826e-002
1.787764e+003;2.361890e-002
1.789693e+003;2.328910e-002
1.791621e+003;2.255048e-002
1.793550e+003;2.226635e-002
1.795478e+003;2.217334e-002
1.797407e+003;2.169763e-002
1.799335e+003;2.134351e-002
1.801264e+003;2.105797e-002
1.803192e+003;2.086592e-002
1.805121e+003;2.067306e-002
1.807049e+003;2.050601e-002
1.808978e+003;2.021794e-002
1.810907e+003;2.008358e-002
1.812835e+003;2.012884e-002
1.814764e+003;2.013411e-002
1.816692e+003;1.992246e-002
1.818621e+003;1.983467e-002
1.820549e+003;1.975203e-002
1.822478e+003;1.982138e-002
1.824406e+003;1.992801e-002
1.826335e+003;1.975466e-002
1.828264e+003;1.963508e-002
1.830192e+003;1.972248e-002
1.832121e+003;1.974665e-002
1.834049e+003;1.977214e-002
1.835978e+003;2.001089e-002
1.837906e+003;1.990657e-002
1.839835e+003;1.933002e-002
1.841763e+003;1.900250e-002
1.843692e+003;1.884080e-002
1.845620e+003;1.887804e-002
1.847549e+003;1.896279e-002
1.849478e+003;1.898907e-002
1.851406e+003;1.883118e-002
1.853335e+003;1.861667e-002
1.855263e+003;1.872324e-002
1.857192e+003;1.886534e-002
1.859120e+003;1.885181e-002
1.861049e+003;1.880596e-002
1.862977e+003;1.871998e-002
1.864906e+003;1.852845e-002
1.866834e+003;1.841204e-002
1.868763e+003;1.842756e-002
1.870692e+003;1.836613e-002
1.872620e+003;1.817323e-002
1.874549e+003;1.836786e-002
1.876477e+003;1.852018e-002
1.878406e+003;1.841581e-002
1.880334e+003;1.827071e-002
1.882263e+003;1.823045e-002
1.884191e+003;1.831045e-002
1.886120e+003;1.831667e-002
1.888048e+003;1.809909e-002
1.889977e+003;1.823356e-002
1.891906e+003;1.839182e-002
1.893834e+003;1.841992e-002
1.895763e+003;1.842763e-002
1.897691e+003;1.830893e-002
1.899620e+003;1.842334e-002
1.901548e+003;1.847479e-002
1.903477e+003;1.832504e-002
1.905405e+003;1.807322e-002
1.907334e+003;1.793856e-002
1.909262e+003;1.788839e-002
1.911191e+003;1.778361e-002
1.913120e+003;1.785573e-002
1.915048e+003;1.769601e-002
1.916977e+003;1.753750e-002
1.918905e+003;1.780705e-002
1.920834e+003;1.780754e-002
1.922762e+003;1.763845e-002
1.924691e+003;1.757275e-002
1.926619e+003;1.745170e-002
1.928548e+003;1.742032e-002
1.930477e+003;1.742232e-002
1.932405e+003;1.727927e-002
1.934334e+003;1.709819e-002
1.936262e+003;1.702589e-002
1.938191e+003;1.680324e-002
1.940119e+003;1.653634e-002
1.942048e+003;1.637972e-002
1.943976e+003;1.658174e-002
1.945905e+003;1.663331e-002
1.947833e+003;1.646768e-002
1.949762e+003;1.648134e-002
1.951691e+003;1.670789e-002
1.953619e+003;1.667845e-002
1.955548e+003;1.665500e-002
1.957476e+003;1.670864e-002
1.959405e+003;1.658694e-002
1.961333e+003;1.643935e-002
1.963262e+003;1.629677e-002
1.965190e+003;1.625807e-002
1.967119e+003;1.603306e-002
1.969047e+003;1.579457e-002
1.970976e+003;1.576309e-002
1.972905e+003;1.587924e-002
1.974833e+003;1.600247e-002
1.976762e+003;1.597380e-002
1.978690e+003;1.601244e-002
1.980619e+003;1.590890e-002
1.982547e+003;1.595063e-002
1.984476e+003;1.605060e-002
1.986404e+003;1.615166e-002
1.988333e+003;1.616985e-002
1.990261e+003;1.603496e-002
1.992190e+003;1.587323e-002
1.994119e+003;1.579457e-002
1.996047e+003;1.572211e-002
1.997976e+003;1.577934e-002
1.999904e+003;1.601845e-002
2.001833e+003;1.601271e-002
2.003761e+003;1.583116e-002
2.005690e+003;1.576677e-002
2.007618e+003;1.590395e-002
2.009547e+003;1.597854e-002
2.011476e+003;1.605813e-002
2.013404e+003;1.609743e-002
2.015333e+003;1.596015e-002
2.017261e+003;1.584704e-002
2.019190e+003;1.594877e-002
2.021118e+003;1.605662e-002
2.023047e+003;1.608708e-002
2.024975e+003;1.606476e-002
2.026904e+003;1.592636e-002
2.028833e+003;1.562613e-002
2.030761e+003;1.513732e-002
2.032690e+003;1.512641e-002
2.034618e+003;1.542160e-002
2.036547e+003;1.560195e-002
2.038475e+003;1.566910e-002
2.040404e+003;1.573643e-002
2.042332e+003;1.586003e-002
2.044261e+003;1.592736e-002
2.046189e+003;1.581151e-002
2.048118e+003;1.563396e-002
2.050047e+003;1.588110e-002
2.051975e+003;1.607570e-002
2.053904e+003;1.580182e-002
2.055832e+003;1.578828e-002
2.057761e+003;1.564598e-002
2.059689e+003;1.557488e-002
2.061618e+003;1.576808e-002
2.063546e+003;1.548137e-002
2.065475e+003;1.523196e-002
2.067404e+003;1.537357e-002
2.069332e+003;1.548999e-002
2.071260e+003;1.538857e-002
2.073189e+003;1.538397e-002
2.075118e+003;1.559415e-002
2.077046e+003;1.563746e-002
2.078975e+003;1.575677e-002
2.080903e+003;1.608367e-002
2.082832e+003;1.607020e-002
2.084760e+003;1.581814e-002
2.086689e+003;1.596029e-002
2.088617e+003;1.599160e-002
2.090546e+003;1.581924e-002
2.092475e+003;1.579745e-002
2.094403e+003;1.576416e-002
2.096332e+003;1.562905e-002
2.098260e+003;1.559456e-002
2.100189e+003;1.576777e-002
2.102117e+003;1.590426e-002
2.104046e+003;1.582721e-002
2.105974e+003;1.605149e-002
2.107903e+003;1.613525e-002
2.109832e+003;1.583405e-002
2.111760e+003;1.573619e-002
2.113688e+003;1.585845e-002
2.115617e+003;1.597438e-002
2.117546e+003;1.591364e-002
2.119474e+003;1.593891e-002
2.121403e+003;1.635870e-002
2.123331e+003;1.656064e-002
2.125260e+003;1.657234e-002
2.127188e+003;1.677772e-002
2.129117e+003;1.716944e-002
2.131045e+003;1.742701e-002
2.132974e+003;1.739593e-002
2.134903e+003;1.717526e-002
2.136831e+003;1.709878e-002
2.138760e+003;1.706125e-002
2.140688e+003;1.675940e-002
2.142617e+003;1.656656e-002
2.144545e+003;1.646365e-002
2.146474e+003;1.649906e-002
2.148402e+003;1.677662e-002
2.150331e+003;1.708606e-002
2.152260e+003;1.717430e-002
2.154188e+003;1.712167e-002
2.156117e+003;1.696549e-002
2.158045e+003;1.658460e-002
2.159974e+003;1.654608e-002
2.161902e+003;1.699716e-002
2.163831e+003;1.731886e-002
2.165759e+003;1.762713e-002
2.167688e+003;1.784672e-002
2.169616e+003;1.776290e-002
2.171545e+003;1.782290e-002
2.173474e+003;1.792282e-002
2.175402e+003;1.793442e-002
2.177331e+003;1.780136e-002
2.179259e+003;1.783488e-002
2.181188e+003;1.793791e-002
2.183116e+003;1.782821e-002
2.185045e+003;1.781530e-002
2.186973e+003;1.801910e-002
2.188902e+003;1.790300e-002
2.190831e+003;1.769750e-002
2.192759e+003;1.790445e-002
2.194688e+003;1.785363e-002
2.196616e+003;1.766361e-002
2.198545e+003;1.778713e-002
2.200473e+003;1.784579e-002
2.202402e+003;1.759836e-002
2.204330e+003;1.746274e-002
2.206259e+003;1.733534e-002
2.208188e+003;1.721711e-002
2.210116e+003;1.746867e-002
2.212044e+003;1.754909e-002
2.213973e+003;1.726948e-002
2.215902e+003;1.727531e-002
2.217830e+003;1.737393e-002
2.219759e+003;1.729865e-002
2.221687e+003;1.725793e-002
2.223616e+003;1.731513e-002
2.225544e+003;1.763852e-002
2.227473e+003;1.771655e-002
2.229401e+003;1.759967e-002
2.231330e+003;1.746709e-002
2.233259e+003;1.747661e-002
2.235187e+003;1.739269e-002
2.237116e+003;1.716023e-002
2.239044e+003;1.734206e-002
2.240973e+003;1.753956e-002
2.242901e+003;1.740911e-002
2.244830e+003;1.706208e-002
2.246758e+003;1.709134e-002
2.248687e+003;1.759232e-002
2.250615e+003;1.791826e-002
2.252544e+003;1.797192e-002
2.254473e+003;1.806694e-002
2.256401e+003;1.816632e-002
2.258330e+003;1.823042e-002
2.260258e+003;1.820377e-002
2.262187e+003;1.807132e-002
2.264115e+003;1.826459e-002
2.266044e+003;1.831519e-002
2.267972e+003;1.811232e-002
2.269901e+003;1.780792e-002
2.271830e+003;1.730344e-002
2.273758e+003;1.723014e-002
2.275687e+003;1.753518e-002
2.277615e+003;1.751562e-002
2.279544e+003;1.712825e-002
2.281472e+003;1.718195e-002
2.283401e+003;1.747730e-002
2.285329e+003;1.744287e-002
2.287258e+003;1.730689e-002
2.289187e+003;1.731796e-002
2.291115e+003;1.690058e-002
2.293043e+003;1.685687e-002
2.294972e+003;1.723194e-002
2.296901e+003;1.712042e-002
2.298829e+003;1.692012e-002
2.300758e+003;1.693180e-002
2.302686e+003;1.711505e-002
2.304615e+003;1.721946e-002
2.306543e+003;1.720236e-002
2.308472e+003;1.721904e-002
2.310400e+003;1.708072e-002
2.312329e+003;1.713686e-002
2.314258e+003;1.739176e-002
2.316186e+003;1.750086e-002
2.318115e+003;1.745208e-002
2.320043e+003;1.751707e-002
2.321972e+003;1.763286e-002
2.323900e+003;1.774886e-002
2.325829e+003;1.795048e-002
2.327757e+003;1.816988e-002
2.329686e+003;1.822316e-002
2.331615e+003;1.824040e-002
2.333543e+003;1.817572e-002
2.335472e+003;1.837367e-002
2.337400e+003;1.854069e-002
2.339329e+003;1.849778e-002
2.341257e+003;1.836240e-002
2.343186e+003;1.852530e-002
2.345114e+003;1.877790e-002
2.347043e+003;1.887181e-002
2.348971e+003;1.905979e-002
2.350900e+003;1.899360e-002
2.352829e+003;1.876876e-002
2.354757e+003;1.892718e-002
2.356686e+003;1.944785e-002
2.358614e+003;1.944830e-002
2.360543e+003;1.938379e-002
2.362471e+003;1.963245e-002
2.364400e+003;1.970813e-002
2.366328e+003;1.957359e-002
2.368257e+003;1.976898e-002
2.370186e+003;2.004531e-002
2.372114e+003;2.005228e-002
2.374042e+003;1.993932e-002
2.375971e+003;1.956686e-002
2.377900e+003;1.950160e-002
2.379828e+003;1.982998e-002
2.381757e+003;2.017000e-002
2.383685e+003;2.009271e-002
2.385614e+003;1.986640e-002
2.387542e+003;1.972533e-002
2.389471e+003;1.967030e-002
2.391399e+003;1.993939e-002
2.393328e+003;2.026445e-002
2.395257e+003;2.043738e-002
2.397185e+003;2.041005e-002
2.399114e+003;2.031070e-002
2.401042e+003;2.051025e-002
2.402971e+003;2.068782e-002
2.404899e+003;2.081312e-002
2.406828e+003;2.081360e-002
2.408756e+003;2.067514e-002
2.410685e+003;2.061878e-002
2.412614e+003;2.059946e-002
2.414542e+003;2.058595e-002
2.416471e+003;2.051279e-002
2.418399e+003;2.063574e-002
2.420328e+003;2.102976e-002
2.422256e+003;2.147017e-002
2.424185e+003;2.169589e-002
2.426113e+003;2.135830e-002
2.428042e+003;2.096668e-002
2.429970e+003;2.087896e-002
2.431899e+003;2.096067e-002
2.433828e+003;2.102514e-002
2.435756e+003;2.081131e-002
2.437685e+003;2.042429e-002
2.439613e+003;2.035969e-002
2.441542e+003;2.051973e-002
2.443470e+003;2.060655e-002
2.445399e+003;2.065120e-002
2.447327e+003;2.052164e-002
2.449256e+003;2.029480e-002
2.451185e+003;2.021728e-002
2.453113e+003;2.020572e-002
2.455042e+003;2.009774e-002
2.456970e+003;2.006738e-002
2.458899e+003;1.996891e-002
2.460827e+003;1.972678e-002
2.462756e+003;1.978466e-002
2.464684e+003;1.978996e-002
2.466613e+003;1.996967e-002
2.468542e+003;2.022457e-002
2.470470e+003;1.995271e-002
2.472398e+003;1.980782e-002
2.474327e+003;1.995118e-002
2.476256e+003;2.009455e-002
2.478184e+003;2.041956e-002
2.480113e+003;2.073363e-002
2.482041e+003;2.058570e-002
2.483970e+003;2.044175e-002
2.485898e+003;2.044106e-002
2.487827e+003;2.054582e-002
2.489755e+003;2.091981e-002
2.491684e+003;2.102660e-002
2.493613e+003;2.075038e-002
2.495541e+003;2.023217e-002
2.497470e+003;2.009212e-002
2.499398e+003;2.042713e-002
2.501327e+003;2.065794e-002
2.503255e+003;2.053356e-002
2.505184e+003;2.031341e-002
2.507112e+003;2.028525e-002
2.509041e+003;2.062903e-002
2.510969e+003;2.087972e-002
2.512898e+003;2.075834e-002
2.514827e+003;2.101714e-002
2.516755e+003;2.153061e-002
2.518684e+003;2.173595e-002
2.520612e+003;2.193344e-002
2.522541e+003;2.228466e-002
2.524469e+003;2.274125e-002
2.526398e+003;2.290968e-002
2.528326e+003;2.285757e-002
2.530255e+003;2.289180e-002
2.532184e+003;2.333169e-002
2.534112e+003;2.358381e-002
2.536041e+003;2.332578e-002
2.537969e+003;2.346026e-002
2.539898e+003;2.379152e-002
2.541826e+003;2.395261e-002
2.543755e+003;2.410764e-002
2.545683e+003;2.443725e-002
2.547612e+003;2.502319e-002
2.549541e+003;2.565695e-002
2.551469e+003;2.598260e-002
2.553397e+003;2.613969e-002
2.555326e+003;2.620564e-002
2.557255e+003;2.645320e-002
2.559183e+003;2.666099e-002
2.561112e+003;2.689164e-002
2.563040e+003;2.740392e-002
2.564969e+003;2.775427e-002
2.566897e+003;2.798225e-002
2.568826e+003;2.869977e-002
2.570754e+003;2.944269e-002
2.572683e+003;2.971165e-002
2.574612e+003;3.009508e-002
2.576540e+003;3.080607e-002
2.578469e+003;3.145599e-002
2.580397e+003;3.204759e-002
2.582326e+003;3.235912e-002
2.584254e+003;3.210321e-002
2.586183e+003;3.148909e-002
2.588111e+003;3.068394e-002
2.590040e+003;2.995540e-002
2.591969e+003;2.962594e-002
2.593897e+003;2.943989e-002
2.595826e+003;2.941854e-002
2.597754e+003;2.927199e-002
2.599683e+003;2.928734e-002
2.601611e+003;2.933211e-002
2.603540e+003;2.956039e-002
2.605468e+003;3.001860e-002
2.607397e+003;3.010872e-002
2.609325e+003;3.025370e-002
2.611254e+003;3.069742e-002
2.613183e+003;3.115408e-002
2.615111e+003;3.123294e-002
2.617040e+003;3.119363e-002
2.618968e+003;3.111222e-002
2.620897e+003;3.074397e-002
2.622825e+003;3.074073e-002
2.624754e+003;3.077964e-002
2.626682e+003;3.057717e-002
2.628611e+003;3.066961e-002
2.630540e+003;3.056042e-002
2.632468e+003;3.034913e-002
2.634396e+003;3.057589e-002
2.636325e+003;3.100374e-002
2.638254e+003;3.096738e-002
2.640182e+003;3.083410e-002
2.642111e+003;3.117811e-002
2.644039e+003;3.177650e-002
2.645968e+003;3.208134e-002
2.647896e+003;3.237122e-002
2.649825e+003;3.277111e-002
2.651753e+003;3.276965e-002
2.653682e+003;3.298505e-002
2.655611e+003;3.344223e-002
2.657539e+003;3.380146e-002
2.659468e+003;3.400018e-002
2.661396e+003;3.407579e-002
2.663325e+003;3.414880e-002
2.665253e+003;3.447116e-002
2.667182e+003;3.465256e-002
2.669110e+003;3.460344e-002
2.671039e+003;3.441230e-002
2.672968e+003;3.441352e-002
2.674896e+003;3.472642e-002
2.676825e+003;3.517254e-002
2.678753e+003;3.537109e-002
2.680682e+003;3.529709e-002
2.682610e+003;3.515641e-002
2.684539e+003;3.509228e-002
2.686467e+003;3.524847e-002
2.688396e+003;3.537634e-002
2.690324e+003;3.548211e-002
2.692253e+003;3.573444e-002
2.694182e+003;3.569343e-002
2.696110e+003;3.570919e-002
2.698039e+003;3.602627e-002
2.699967e+003;3.644868e-002
2.701896e+003;3.691655e-002
2.703824e+003;3.765366e-002
2.705753e+003;3.847561e-002
2.707681e+003;3.917036e-002
2.709610e+003;3.987255e-002
2.711539e+003;4.058595e-002
2.713467e+003;4.160841e-002
2.715396e+003;4.301604e-002
2.717324e+003;4.489146e-002
2.719253e+003;4.658741e-002
2.721181e+003;4.777621e-002
2.723110e+003;4.857901e-002
2.725038e+003;4.841023e-002
2.726967e+003;4.727244e-002
2.728896e+003;4.585396e-002
2.730824e+003;4.453315e-002
2.732752e+003;4.336698e-002
2.734681e+003;4.223866e-002
2.736610e+003;4.147511e-002
2.738538e+003;4.071498e-002
2.740467e+003;3.986645e-002
2.742395e+003;3.898184e-002
2.744324e+003;3.823253e-002
2.746252e+003;3.763028e-002
2.748181e+003;3.698813e-002
2.750109e+003;3.677575e-002
2.752038e+003;3.709739e-002
2.753967e+003;3.737161e-002
2.755895e+003;3.748982e-002
2.757824e+003;3.763046e-002
2.759752e+003;3.815768e-002
2.761681e+003;3.864199e-002
2.763609e+003;3.919100e-002
2.765538e+003;3.955087e-002
2.767466e+003;3.960789e-002
2.769395e+003;3.974335e-002
2.771323e+003;4.002937e-002
2.773252e+003;4.064613e-002
2.775181e+003;4.124533e-002
2.777109e+003;4.164572e-002
2.779038e+003;4.247873e-002
2.780966e+003;4.387111e-002
2.782895e+003;4.528989e-002
2.784823e+003;4.660840e-002
2.786752e+003;4.792518e-002
2.788680e+003;4.951026e-002
2.790609e+003;5.117808e-002
2.792538e+003;5.247321e-002
2.794466e+003;5.376229e-002
2.796395e+003;5.505358e-002
2.798323e+003;5.663821e-002
2.800252e+003;5.857474e-002
2.802180e+003;6.065635e-002
2.804109e+003;6.295069e-002
2.806037e+003;6.515917e-002
2.807966e+003;6.697794e-002
2.809895e+003;6.848273e-002
2.811823e+003;7.018150e-002
2.813751e+003;7.237045e-002
2.815680e+003;7.453594e-002
2.817609e+003;7.636233e-002
2.819537e+003;7.896420e-002
2.821466e+003;8.219957e-002
2.823394e+003;8.600646e-002
2.825323e+003;9.108813e-002
2.827251e+003;9.747133e-002
2.829180e+003;1.052127e-001
2.831108e+003;1.139521e-001
2.833037e+003;1.228587e-001
2.834966e+003;1.301269e-001
2.836894e+003;1.341139e-001
2.838823e+003;1.347564e-001
2.840751e+003;1.327103e-001
2.842680e+003;1.286906e-001
2.844608e+003;1.237344e-001
2.846537e+003;1.188898e-001
2.848465e+003;1.150862e-001
2.850394e+003;1.123004e-001
2.852323e+003;1.105142e-001
2.854251e+003;1.099123e-001
2.856180e+003;1.109453e-001
2.858108e+003;1.140587e-001
2.860037e+003;1.189053e-001
2.861965e+003;1.257968e-001
2.863894e+003;1.339156e-001
2.865822e+003;1.403129e-001
2.867751e+003;1.437016e-001
2.869679e+003;1.451222e-001
2.871608e+003;1.454170e-001
2.873536e+003;1.454683e-001
2.875465e+003;1.456656e-001
2.877394e+003;1.449445e-001
2.879322e+003;1.432080e-001
2.881251e+003;1.413705e-001
2.883179e+003;1.403372e-001
2.885108e+003;1.404037e-001
2.887036e+003;1.415084e-001
2.888965e+003;1.436154e-001
2.890893e+003;1.458158e-001
2.892822e+003;1.484518e-001
2.894750e+003;1.519902e-001
2.896679e+003;1.563867e-001
2.898608e+003;1.613148e-001
2.900536e+003;1.662243e-001
2.902465e+003;1.709153e-001
2.904393e+003;1.758123e-001
2.906322e+003;1.807737e-001
2.908250e+003;1.850127e-001
2.910179e+003;1.888126e-001
2.912107e+003;1.919853e-001
2.914036e+003;1.944136e-001
2.915965e+003;1.952158e-001
2.917893e+003;1.946686e-001
2.919822e+003;1.929237e-001
2.921750e+003;1.892545e-001
2.923679e+003;1.842696e-001
2.925607e+003;1.781113e-001
2.927536e+003;1.711355e-001
2.929464e+003;1.636012e-001
2.931393e+003;1.557737e-001
2.933322e+003;1.478039e-001
2.935250e+003;1.404877e-001
2.937178e+003;1.348312e-001
2.939107e+003;1.318711e-001
2.941036e+003;1.323136e-001
2.942964e+003;1.361205e-001
2.944893e+003;1.428770e-001
2.946821e+003;1.507311e-001
2.948750e+003;1.573436e-001
2.950678e+003;1.612641e-001
2.952607e+003;1.625310e-001
2.954535e+003;1.611748e-001
2.956464e+003;1.575038e-001
2.958393e+003;1.522387e-001
2.960321e+003;1.464682e-001
2.962250e+003;1.406808e-001
2.964178e+003;1.342964e-001
2.966107e+003;1.273303e-001
2.968035e+003;1.208125e-001
2.969964e+003;1.144468e-001
2.971892e+003;1.079215e-001
2.973821e+003;1.019963e-001
2.975750e+003;9.684184e-002
2.977678e+003;9.201494e-002
2.979607e+003;8.758021e-002
2.981535e+003;8.426306e-002
2.983464e+003;8.114364e-002
2.985392e+003;7.783122e-002
2.987321e+003;7.475510e-002
2.989249e+003;7.209982e-002
2.991178e+003;6.958515e-002
2.993106e+003;6.683802e-002
2.995035e+003;6.397844e-002
2.996964e+003;6.157303e-002
2.998892e+003;5.930915e-002
3.000821e+003;5.713888e-002
3.002749e+003;5.500398e-002
3.004678e+003;5.297141e-002
3.006606e+003;5.111743e-002
3.008535e+003;4.954372e-002
3.010463e+003;4.798646e-002
3.012392e+003;4.626433e-002
3.014321e+003;4.470187e-002
3.016249e+003;4.353650e-002
3.018177e+003;4.213369e-002
3.020106e+003;4.074122e-002
3.022035e+003;3.976339e-002
3.023963e+003;3.886453e-002
3.025892e+003;3.793159e-002
3.027820e+003;3.721177e-002
3.029749e+003;3.649682e-002
3.031677e+003;3.574840e-002
3.033606e+003;3.531678e-002
3.035534e+003;3.506944e-002
3.037463e+003;3.469208e-002
3.039392e+003;3.425401e-002
3.041320e+003;3.351145e-002
3.043249e+003;3.262389e-002
3.045177e+003;3.266372e-002
3.047106e+003;3.295270e-002
3.049034e+003;3.269212e-002
3.050963e+003;3.205423e-002
3.052891e+003;3.172185e-002
3.054820e+003;3.159174e-002
3.056749e+003;3.127813e-002
3.058677e+003;3.114045e-002
3.060606e+003;3.083122e-002
3.062534e+003;3.035755e-002
3.064463e+003;3.019335e-002
3.066391e+003;3.005712e-002
3.068320e+003;2.992619e-002
3.070248e+003;3.015890e-002
3.072177e+003;3.049324e-002
3.074105e+003;3.056427e-002
3.076034e+003;2.999896e-002
3.077963e+003;2.935090e-002
3.079891e+003;2.896090e-002
3.081820e+003;2.865340e-002
3.083748e+003;2.876250e-002
3.085677e+003;2.909778e-002
3.087605e+003;2.936558e-002
3.089534e+003;2.926023e-002
3.091462e+003;2.906012e-002
3.093391e+003;2.919381e-002
3.095320e+003;2.913743e-002
3.097248e+003;2.903370e-002
3.099177e+003;2.882934e-002
3.101105e+003;2.851680e-002
3.103034e+003;2.870398e-002
3.104962e+003;2.878211e-002
3.106891e+003;2.880498e-002
3.108819e+003;2.873372e-002
3.110748e+003;2.880070e-002
3.112677e+003;2.896905e-002
3.114605e+003;2.894465e-002
3.116533e+003;2.898432e-002
3.118462e+003;2.882623e-002
3.120391e+003;2.860449e-002
3.122319e+003;2.868996e-002
3.124248e+003;2.898896e-002
3.126176e+003;2.895956e-002
3.128105e+003;2.882127e-002
3.130033e+003;2.930943e-002
3.131962e+003;2.938086e-002
3.133890e+003;2.912333e-002
3.135819e+003;2.928692e-002
3.137748e+003;2.960175e-002
3.139676e+003;2.978056e-002
3.141605e+003;2.995057e-002
3.143533e+003;2.990599e-002
3.145462e+003;2.980899e-002
3.147390e+003;3.012882e-002
3.149319e+003;3.049210e-002
3.151247e+003;3.049658e-002
3.153176e+003;3.051983e-002
3.155104e+003;3.082286e-002
3.157033e+003;3.090472e-002
3.158962e+003;3.050170e-002
3.160890e+003;3.006366e-002
3.162819e+003;3.009373e-002
3.164747e+003;3.046129e-002
3.166676e+003;3.066197e-002
3.168604e+003;3.059224e-002
3.170533e+003;3.055865e-002
3.172461e+003;3.032490e-002
3.174390e+003;3.015904e-002
3.176319e+003;3.054891e-002
3.178247e+003;3.088156e-002
3.180176e+003;3.050337e-002
3.182104e+003;3.050760e-002
3.184033e+003;3.067349e-002
3.185961e+003;3.062428e-002
3.187890e+003;3.077260e-002
3.189818e+003;3.132723e-002
3.191747e+003;3.133507e-002
3.193676e+003;3.112091e-002
3.195604e+003;3.105200e-002
3.197532e+003;3.127268e-002
3.199461e+003;3.150533e-002
3.201390e+003;3.117291e-002
3.203318e+003;3.081948e-002
3.205247e+003;3.077466e-002
3.207175e+003;3.114945e-002
3.209104e+003;3.127855e-002
3.211032e+003;3.061638e-002
3.212961e+003;3.019186e-002
3.214889e+003;3.015158e-002
3.216818e+003;3.047799e-002
3.218747e+003;3.094578e-002
3.220675e+003;3.075521e-002
3.222604e+003;3.024259e-002
3.224532e+003;3.000081e-002
3.226461e+003;3.020600e-002
3.228389e+003;3.025090e-002
3.230318e+003;2.992981e-002
3.232246e+003;2.988111e-002
3.234175e+003;3.012488e-002
3.236104e+003;2.964205e-002
3.238032e+003;2.924453e-002
3.239961e+003;2.930542e-002
3.241889e+003;2.935125e-002
3.243818e+003;2.944436e-002
3.245746e+003;2.972368e-002
3.247675e+003;2.940645e-002
3.249603e+003;2.841318e-002
3.251532e+003;2.836093e-002
3.253460e+003;2.871492e-002
3.255389e+003;2.863896e-002
3.257318e+003;2.864091e-002
3.259246e+003;2.896523e-002
3.261175e+003;2.952617e-002
3.263103e+003;2.943464e-002
3.265032e+003;2.927341e-002
3.266960e+003;2.907192e-002
3.268889e+003;2.852359e-002
3.270817e+003;2.826905e-002
3.272746e+003;2.859239e-002
3.274675e+003;2.884113e-002
3.276603e+003;2.881532e-002
3.278531e+003;2.910693e-002
3.280460e+003;2.953738e-002
3.282389e+003;2.949184e-002
3.284317e+003;2.928146e-002
3.286246e+003;2.939784e-002
3.288174e+003;2.958880e-002
3.290103e+003;2.894259e-002
3.292031e+003;2.818765e-002
3.293960e+003;2.855169e-002
3.295888e+003;2.938008e-002
3.297817e+003;2.969111e-002
3.299746e+003;2.955919e-002
3.301674e+003;2.881578e-002
3.303603e+003;2.845747e-002
3.305531e+003;2.896537e-002
3.307460e+003;2.928692e-002
3.309388e+003;2.918052e-002
3.311317e+003;2.889117e-002
3.313245e+003;2.883101e-002
3.315174e+003;2.903058e-002
3.317103e+003;2.895159e-002
3.319031e+003;2.902509e-002
3.320960e+003;2.864770e-002
3.322888e+003;2.796659e-002
3.324817e+003;2.820123e-002
3.326745e+003;2.858591e-002
3.328674e+003;2.852894e-002
3.330602e+003;2.824051e-002
3.332531e+003;2.822001e-002
3.334459e+003;2.849624e-002
3.336388e+003;2.858941e-002
3.338317e+003;2.838640e-002
3.340245e+003;2.856556e-002
3.342174e+003;2.827107e-002
3.344102e+003;2.770881e-002
3.346031e+003;2.804049e-002
3.347959e+003;2.857459e-002
3.349888e+003;2.880948e-002
3.351816e+003;2.871687e-002
3.353745e+003;2.836383e-002
3.355674e+003;2.848825e-002
3.357602e+003;2.844901e-002
3.359531e+003;2.791960e-002
3.361459e+003;2.770503e-002
3.363388e+003;2.751754e-002
3.365316e+003;2.765330e-002
3.367245e+003;2.775490e-002
3.369173e+003;2.723857e-002
3.371102e+003;2.738186e-002
3.373031e+003;2.744394e-002
3.374959e+003;2.710725e-002
3.376887e+003;2.688618e-002
3.378816e+003;2.681871e-002
3.380745e+003;2.700576e-002
3.382673e+003;2.636422e-002
3.384602e+003;2.569850e-002
3.386530e+003;2.597623e-002
3.388459e+003;2.607192e-002
3.390387e+003;2.621990e-002
3.392316e+003;2.663766e-002
3.394244e+003;2.643317e-002
3.396173e+003;2.600057e-002
3.398102e+003;2.576392e-002
3.400030e+003;2.543949e-002
3.401959e+003;2.543169e-002
3.403887e+003;2.613462e-002
3.405816e+003;2.659289e-002
3.407744e+003;2.648134e-002
3.409673e+003;2.631427e-002
3.411601e+003;2.606928e-002
3.413530e+003;2.562412e-002
3.415458e+003;2.515360e-002
3.417387e+003;2.494282e-002
3.419316e+003;2.487801e-002
3.421244e+003;2.494092e-002
3.423173e+003;2.525094e-002
3.425101e+003;2.527313e-002
3.427030e+003;2.482506e-002
3.428958e+003;2.463229e-002
3.430887e+003;2.486352e-002
3.432815e+003;2.450831e-002
3.434744e+003;2.438096e-002
3.436673e+003;2.416821e-002
3.438601e+003;2.386632e-002
3.440530e+003;2.362624e-002
3.442458e+003;2.362586e-002
3.444387e+003;2.368348e-002
3.446315e+003;2.352081e-002
3.448244e+003;2.302098e-002
3.450172e+003;2.270103e-002
3.452101e+003;2.249904e-002
3.454030e+003;2.229021e-002
3.455958e+003;2.224099e-002
3.457886e+003;2.241520e-002
3.459815e+003;2.217711e-002
3.461744e+003;2.191263e-002
3.463672e+003;2.212317e-002
3.465601e+003;2.243344e-002
3.467529e+003;2.239322e-002
3.469458e+003;2.186705e-002
3.471386e+003;2.170251e-002
3.473315e+003;2.176037e-002
3.475243e+003;2.158305e-002
3.477172e+003;2.134573e-002
3.479101e+003;2.091056e-002
3.481029e+003;2.056152e-002
3.482958e+003;2.052234e-002
3.484886e+003;2.065196e-002
3.486815e+003;2.042679e-002
3.488743e+003;2.004583e-002
3.490672e+003;1.994400e-002
3.492600e+003;1.976087e-002
3.494529e+003;1.943170e-002
3.496458e+003;1.932676e-002
3.498386e+003;1.944033e-002
3.500315e+003;1.941497e-002
3.502243e+003;1.921322e-002
3.504172e+003;1.924605e-002
3.506100e+003;1.941535e-002
3.508029e+003;1.928966e-002
3.509957e+003;1.869667e-002
3.511886e+003;1.831730e-002
3.513814e+003;1.892503e-002
3.515743e+003;1.955293e-002
3.517672e+003;1.926940e-002
3.519600e+003;1.882499e-002
3.521529e+003;1.911844e-002
3.523457e+003;1.904196e-002
3.525386e+003;1.860864e-002
3.527314e+003;1.826798e-002
3.529243e+003;1.788349e-002
3.531171e+003;1.773142e-002
3.533100e+003;1.774099e-002
3.535029e+003;1.766185e-002
3.536957e+003;1.767258e-002
3.538885e+003;1.779421e-002
3.540814e+003;1.760484e-002
3.542743e+003;1.712473e-002
3.544671e+003;1.689700e-002
3.546600e+003;1.696659e-002
3.548528e+003;1.693166e-002
3.550457e+003;1.676409e-002
3.552385e+003;1.656153e-002
3.554314e+003;1.673003e-002
3.556242e+003;1.698399e-002
3.558171e+003;1.681068e-002
3.560100e+003;1.618601e-002
3.562028e+003;1.572832e-002
3.563957e+003;1.607350e-002
3.565885e+003;1.577763e-002
3.567814e+003;1.534505e-002
3.569742e+003;1.549476e-002
3.571671e+003;1.549126e-002
3.573599e+003;1.527887e-002
3.575528e+003;1.510960e-002
3.577457e+003;1.519009e-002
3.579385e+003;1.485717e-002
3.581314e+003;1.425999e-002
3.583242e+003;1.419470e-002
3.585171e+003;1.420918e-002
3.587099e+003;1.404077e-002
3.589028e+003;1.405758e-002
3.590956e+003;1.428050e-002
3.592885e+003;1.429406e-002
3.594813e+003;1.409153e-002
3.596742e+003;1.401261e-002
3.598671e+003;1.402428e-002
3.600599e+003;1.390100e-002
3.602528e+003;1.387510e-002
3.604456e+003;1.364090e-002
3.606385e+003;1.335771e-002
3.608313e+003;1.326185e-002
3.610242e+003;1.342339e-002
3.612170e+003;1.360353e-002
3.614099e+003;1.365799e-002
3.616028e+003;1.332867e-002
3.617956e+003;1.288490e-002
3.619885e+003;1.300264e-002
3.621813e+003;1.324511e-002
3.623742e+003;1.308165e-002
3.625670e+003;1.233249e-002
3.627599e+003;1.182007e-002
3.629527e+003;1.209608e-002
3.631456e+003;1.268456e-002
3.633385e+003;1.313075e-002
3.635313e+003;1.333455e-002
3.637241e+003;1.359382e-002
3.639170e+003;1.330182e-002
3.641099e+003;1.282145e-002
3.643027e+003;1.273403e-002
3.644956e+003;1.266631e-002
3.646884e+003;1.194766e-002
3.648813e+003;1.140545e-002
3.650741e+003;1.175681e-002
3.652670e+003;1.212443e-002
3.654598e+003;1.169370e-002
3.656527e+003;1.161671e-002
3.658456e+003;1.235335e-002
3.660384e+003;1.248789e-002
3.662313e+003;1.205397e-002
3.664241e+003;1.220887e-002
3.666170e+003;1.283510e-002
3.668098e+003;1.239092e-002
3.670027e+003;1.193745e-002
3.671955e+003;1.251360e-002
3.673884e+003;1.322283e-002
3.675813e+003;1.395574e-002
3.677741e+003;1.434564e-002
3.679669e+003;1.359860e-002
3.681598e+003;1.265235e-002
3.683527e+003;1.237650e-002
3.685455e+003;1.262391e-002
3.687384e+003;1.232782e-002
3.689312e+003;1.239583e-002
3.691241e+003;1.285865e-002
3.693169e+003;1.262943e-002
3.695098e+003;1.221831e-002
3.697026e+003;1.264250e-002
3.698955e+003;1.305484e-002
3.700884e+003;1.297703e-002
3.702812e+003;1.319476e-002
3.704741e+003;1.316214e-002
3.706669e+003;1.286879e-002
3.708598e+003;1.275215e-002
3.710526e+003;1.291978e-002
3.712455e+003;1.306293e-002
3.714383e+003;1.289985e-002
3.716312e+003;1.277214e-002
3.718240e+003;1.266835e-002
3.720169e+003;1.216702e-002
3.722098e+003;1.220563e-002
3.724026e+003;1.281756e-002
3.725955e+003;1.297864e-002
3.727883e+003;1.268422e-002
3.729812e+003;1.295812e-002
3.731740e+003;1.320507e-002
3.733669e+003;1.278163e-002
3.735597e+003;1.269039e-002
3.737526e+003;1.323189e-002
3.739455e+003;1.327158e-002
3.741383e+003;1.322642e-002
3.743312e+003;1.293194e-002
3.745240e+003;1.291289e-002
3.747169e+003;1.283067e-002
3.749097e+003;1.282371e-002
3.751026e+003;1.281446e-002
3.752954e+003;1.259692e-002
3.754883e+003;1.278607e-002
3.756812e+003;1.292272e-002
3.758740e+003;1.316788e-002
3.760668e+003;1.369444e-002
3.762597e+003;1.411891e-002
3.764526e+003;1.412418e-002
3.766454e+003;1.399386e-002
3.768383e+003;1.345377e-002
3.770311e+003;1.341703e-002
3.772240e+003;1.379300e-002
3.774168e+003;1.379649e-002
3.776097e+003;1.372067e-002
3.778025e+003;1.368514e-002
3.779954e+003;1.311928e-002
3.781883e+003;1.341768e-002
3.783811e+003;1.408427e-002
3.785740e+003;1.386053e-002
3.787668e+003;1.360185e-002
3.789597e+003;1.368853e-002
3.791525e+003;1.341741e-002
3.793454e+003;1.344618e-002
3.795382e+003;1.414958e-002
3.797311e+003;1.407346e-002
3.799240e+003;1.344950e-002
3.801168e+003;1.299789e-002
3.803097e+003;1.305730e-002
3.805025e+003;1.305505e-002
3.806954e+003;1.319110e-002
3.808882e+003;1.369636e-002
3.810811e+003;1.367365e-002
3.812739e+003;1.333455e-002
3.814668e+003;1.271049e-002
3.816596e+003;1.293907e-002
3.818525e+003;1.328897e-002
3.820454e+003;1.344219e-002
3.822382e+003;1.398934e-002
3.824311e+003;1.458354e-002
3.826239e+003;1.471634e-002
3.828168e+003;1.398103e-002
3.830096e+003;1.346262e-002
3.832025e+003;1.340203e-002
3.833953e+003;1.365714e-002
3.835882e+003;1.373503e-002
3.837811e+003;1.366729e-002
3.839739e+003;1.373623e-002
3.841667e+003;1.364507e-002
3.843596e+003;1.357358e-002
3.845525e+003;1.381664e-002
3.847453e+003;1.383138e-002
3.849382e+003;1.398260e-002
3.851310e+003;1.416033e-002
3.853239e+003;1.393672e-002
3.855167e+003;1.391564e-002
3.857096e+003;1.438646e-002
3.859024e+003;1.453253e-002
3.860953e+003;1.424102e-002
3.862882e+003;1.415102e-002
3.864810e+003;1.418221e-002
3.866739e+003;1.444579e-002
3.868667e+003;1.455589e-002
3.870596e+003;1.476344e-002
3.872524e+003;1.459636e-002
3.874453e+003;1.407856e-002
3.876381e+003;1.447408e-002
3.878310e+003;1.489156e-002
3.880239e+003;1.498508e-002
3.882167e+003;1.488769e-002
3.884096e+003;1.481236e-002
3.886024e+003;1.528522e-002
3.887953e+003;1.531899e-002
3.889881e+003;1.480201e-002
3.891810e+003;1.455894e-002
3.893738e+003;1.478096e-002
3.895667e+003;1.530389e-002
3.897595e+003;1.483934e-002
3.899524e+003;1.428739e-002
3.901453e+003;1.433649e-002
3.903381e+003;1.435570e-002
3.905310e+003;1.429999e-002
3.907238e+003;1.451879e-002
3.909167e+003;1.480945e-002
3.911095e+003;1.479779e-002
3.913024e+003;1.503032e-002
3.914952e+003;1.546795e-002
3.916881e+003;1.541442e-002
3.918810e+003;1.510579e-002
3.920738e+003;1.502755e-002
3.922667e+003;1.523765e-002
3.924595e+003;1.521820e-002
3.926524e+003;1.517678e-002
3.928452e+003;1.556166e-002
3.930381e+003;1.560511e-002
3.932309e+003;1.539897e-002
3.934238e+003;1.535091e-002
3.936167e+003;1.533385e-002
3.938095e+003;1.520063e-002
3.940023e+003;1.549346e-002
3.941952e+003;1.601075e-002
3.943881e+003;1.578965e-002
3.945809e+003;1.521946e-002
3.947738e+003;1.502686e-002
3.949666e+003;1.489846e-002
3.951595e+003;1.478199e-002
3.953523e+003;1.489084e-002
3.955452e+003;1.508466e-002
3.957380e+003;1.518875e-002
3.959309e+003;1.539750e-002
3.961238e+003;1.564763e-002
3.963166e+003;1.539396e-002
3.965095e+003;1.578268e-002
3.967023e+003;1.654797e-002
3.968952e+003;1.639169e-002
3.970880e+003;1.593550e-002
3.972809e+003;1.601233e-002
3.974737e+003;1.590626e-002
3.976666e+003;1.576560e-002
3.978594e+003;1.535380e-002
3.980523e+003;1.565649e-002
3.982452e+003;1.661283e-002
3.984380e+003;1.658818e-002
3.986309e+003;1.613948e-002
3.988237e+003;1.599793e-002
3.990166e+003;1.608123e-002
3.992094e+003;1.651407e-002
3.994023e+003;1.748461e-002
3.995951e+003;1.715741e-002
3.997880e+003;1.676329e-002
3.999809e+003;1.706669e-002
4.001737e+003;0.000000e+000
