3.992094e+002;0.000000e+000
4.011380e+002;0.000000e+000
4.030665e+002;0.000000e+000
4.049951e+002;0.000000e+000
4.069236e+002;0.000000e+000
4.088522e+002;0.000000e+000
4.107807e+002;0.000000e+000
4.127093e+002;0.000000e+000
4.146378e+002;0.000000e+000
4.165664e+002;0.000000e+000
4.184949e+002;0.000000e+000
4.204235e+002;0.000000e+000
4.223520e+002;0.000000e+000
4.242806e+002;0.000000e+000
4.262091e+002;0.000000e+000
4.281377e+002;0.000000e+000
4.300662e+002;0.000000e+000
4.319948e+002;0.000000e+000
4.339233e+002;0.000000e+000
4.358519e+002;0.000000e+000
4.377804e+002;0.000000e+000
4.397090e+002;0.000000e+000
4.416375e+002;0.000000e+000
4.435660e+002;0.000000e+000
4.454946e+002;0.000000e+000
4.474232e+002;0.000000e+000
4.493517e+002;0.000000e+000
4.512802e+002;0.000000e+000
4.532088e+002;0.000000e+000
4.551373e+002;0.000000e+000
4.570659e+002;0.000000e+000
4.589944e+002;0.000000e+000
4.609230e+002;0.000000e+000
4.628515e+002;0.000000e+000
4.647801e+002;0.000000e+000
4.667086e+002;0.000000e+000
4.686372e+002;0.000000e+000
4.705657e+002;0.000000e+000
4.724943e+002;0.000000e+000
4.744228e+002;0.000000e+000
4.763513e+002;0.000000e+000
4.782799e+002;0.000000e+000
4.802085e+002;0.000000e+000
4.821370e+002;0.000000e+000
4.840656e+002;0.000000e+000
4.859941e+002;0.000000e+000
4.879226e+002;0.000000e+000
4.898512e+002;0.000000e+000
4.917798e+002;0.000000e+000
4.937083e+002;0.000000e+000
4.956368e+002;0.000000e+000
4.975654e+002;0.000000e+000
4.994939e+002;0.000000e+000
5.014225e+002;0.000000e+000
5.033510e+002;0.000000e+000
5.052796e+002;0.000000e+000
5.072081e+002;0.000000e+000
5.091367e+002;0.000000e+000
5.110652e+002;0.000000e+000
5.129938e+002;0.000000e+000
5.149223e+002;0.000000e+000
5.168509e+002;0.000000e+000
5.187794e+002;0.000000e+000
5.207079e+002;0.000000e+000
5.226365e+002;0.000000e+000
5.245651e+002;0.000000e+000
5.264936e+002;0.000000e+000
5.284222e+002;0.000000e+000
5.303507e+002;0.000000e+000
5.322792e+002;0.000000e+000
5.342078e+002;0.000000e+000
5.361364e+002;0.000000e+000
5.380649e+002;0.000000e+000
5.399935e+002;0.000000e+000
5.419220e+002;0.000000e+000
5.438505e+002;0.000000e+000
5.457791e+002;0.000000e+000
5.477076e+002;0.000000e+000
5.496362e+002;0.000000e+000
5.515648e+002;0.000000e+000
5.534933e+002;0.000000e+000
5.554218e+002;0.000000e+000
5.573504e+002;0.000000e+000
5.592789e+002;0.000000e+000
5.612075e+002;0.000000e+000
5.631360e+002;0.000000e+000
5.650646e+002;0.000000e+000
5.669931e+002;0.000000e+000
5.689217e+002;0.000000e+000
5.708502e+002;0.000000e+000
5.727787e+002;0.000000e+000
5.747073e+002;0.000000e+000
5.766359e+002;0.000000e+000
5.785644e+002;0.000000e+000
5.804930e+002;0.000000e+000
5.824215e+002;0.000000e+000
5.843500e+002;0.000000e+000
5.862786e+002;0.000000e+000
5.882072e+002;0.000000e+000
5.901357e+002;0.000000e+000
5.920643e+002;0.000000e+000
5.939928e+002;0.000000e+000
5.959213e+002;0.000000e+000
5.978499e+002;0.000000e+000
5.997784e+002;2.120077e-002
6.017070e+002;2.397135e-002
6.036355e+002;2.736118e-002
6.055641e+002;2.550533e-002
6.074926e+002;2.510231e-002
6.094211e+002;2.492387e-002
6.113497e+002;2.232470e-002
6.132783e+002;2.540872e-002
6.152068e+002;2.667659e-002
6.171354e+002;2.376296e-002
6.190639e+002;2.507082e-002
6.209924e+002;2.673773e-002
6.229210e+002;3.230768e-002
6.248495e+002;3.750437e-002
6.267781e+002;3.565372e-002
6.287067e+002;2.714901e-002
6.306352e+002;2.357251e-002
6.325637e+002;2.387549e-002
6.344923e+002;2.397051e-002
6.364208e+002;2.428330e-002
6.383494e+002;2.544701e-002
6.402780e+002;2.549342e-002
6.422065e+002;2.574694e-002
6.441350e+002;2.647828e-002
6.460636e+002;2.821919e-002
6.479921e+002;2.476883e-002
6.499207e+002;2.352116e-002
6.518492e+002;2.498571e-002
6.537778e+002;2.559649e-002
6.557063e+002;2.760128e-002
6.576349e+002;2.897819e-002
6.595634e+002;2.802045e-002
6.614919e+002;2.961183e-002
6.634205e+002;3.179279e-002
6.653491e+002;3.073974e-002
6.672776e+002;2.579184e-002
6.692062e+002;2.559941e-002
6.711347e+002;2.777016e-002
6.730632e+002;2.676127e-002
6.749918e+002;2.694621e-002
6.769203e+002;2.773957e-002
6.788489e+002;2.723148e-002
6.807775e+002;2.724027e-002
6.827060e+002;2.695164e-002
6.846345e+002;2.740007e-002
6.865631e+002;2.798073e-002
6.884916e+002;2.728567e-002
6.904202e+002;2.672265e-002
6.923488e+002;2.771238e-002
6.942773e+002;2.881327e-002
6.962058e+002;2.967579e-002
6.981344e+002;3.096531e-002
7.000629e+002;3.195211e-002
7.019915e+002;3.226656e-002
7.039200e+002;3.354320e-002
7.058486e+002;3.578949e-002
7.077771e+002;3.879442e-002
7.097057e+002;4.608347e-002
7.116342e+002;5.808292e-002
7.135627e+002;6.369634e-002
7.154913e+002;5.702664e-002
7.174199e+002;4.606947e-002
7.193484e+002;3.999083e-002
7.212770e+002;3.703230e-002
7.232055e+002;3.511132e-002
7.251340e+002;3.498428e-002
7.270626e+002;3.516528e-002
7.289911e+002;3.381306e-002
7.309197e+002;3.293944e-002
7.328483e+002;3.235662e-002
7.347768e+002;3.120040e-002
7.367053e+002;3.158404e-002
7.386339e+002;3.317288e-002
7.405624e+002;3.354978e-002
7.424910e+002;3.384143e-002
7.444196e+002;3.322771e-002
7.463481e+002;3.329335e-002
7.482766e+002;3.397438e-002
7.502052e+002;3.515555e-002
7.521337e+002;3.666880e-002
7.540623e+002;3.710288e-002
7.559908e+002;3.682865e-002
7.579194e+002;3.712526e-002
7.598479e+002;3.760683e-002
7.617765e+002;3.730766e-002
7.637050e+002;3.706867e-002
7.656335e+002;3.750777e-002
7.675621e+002;3.733698e-002
7.694907e+002;3.723538e-002
7.714192e+002;3.645686e-002
7.733478e+002;3.580395e-002
7.752763e+002;3.578150e-002
7.772048e+002;3.624322e-002
7.791334e+002;3.620760e-002
7.810620e+002;3.592638e-002
7.829905e+002;3.696425e-002
7.849191e+002;3.854389e-002
7.868476e+002;3.906243e-002
7.887761e+002;3.927387e-002
7.907047e+002;3.980017e-002
7.926332e+002;4.027876e-002
7.945618e+002;4.109426e-002
7.964903e+002;4.320855e-002
7.984189e+002;4.604007e-002
8.003474e+002;4.781949e-002
8.022759e+002;4.980908e-002
8.042045e+002;5.219535e-002
8.061331e+002;5.524989e-002
8.080616e+002;5.871798e-002
8.099902e+002;5.969500e-002
8.119187e+002;5.888237e-002
8.138472e+002;5.659990e-002
8.157758e+002;5.293701e-002
8.177043e+002;5.016537e-002
8.196329e+002;4.884230e-002
8.215615e+002;4.791771e-002
8.234900e+002;4.738979e-002
8.254185e+002;4.753530e-002
8.273471e+002;4.811911e-002
8.292756e+002;4.845294e-002
8.312042e+002;4.879043e-002
8.331328e+002;4.974148e-002
8.350613e+002;5.162392e-002
8.369898e+002;5.544572e-002
8.389184e+002;6.252034e-002
8.408469e+002;6.939878e-002
8.427755e+002;7.020110e-002
8.447040e+002;6.645814e-002
8.466326e+002;6.408023e-002
8.485611e+002;6.101911e-002
8.504897e+002;5.575377e-002
8.524182e+002;5.196815e-002
8.543467e+002;5.027807e-002
8.562753e+002;4.955928e-002
8.582039e+002;4.930818e-002
8.601324e+002;4.999518e-002
8.620610e+002;5.191949e-002
8.639895e+002;5.441987e-002
8.659180e+002;5.886434e-002
8.678466e+002;6.718029e-002
8.697751e+002;8.068700e-002
8.717037e+002;9.887233e-002
8.736323e+002;1.163538e-001
8.755608e+002;1.244797e-001
8.774893e+002;1.155749e-001
8.794179e+002;9.497446e-002
8.813464e+002;7.709008e-002
8.832750e+002;6.512391e-002
8.852036e+002;5.496321e-002
8.871321e+002;4.789103e-002
8.890606e+002;4.550321e-002
8.909892e+002;4.561809e-002
8.929177e+002;4.739596e-002
8.948463e+002;5.134209e-002
8.967748e+002;5.571708e-002
8.987034e+002;5.874760e-002
9.006319e+002;5.884195e-002
9.025605e+002;5.536731e-002
9.044890e+002;5.037972e-002
9.064175e+002;4.623481e-002
9.083461e+002;4.380330e-002
9.102747e+002;4.199391e-002
9.122032e+002;4.069158e-002
9.141318e+002;3.964590e-002
9.160603e+002;3.919781e-002
9.179888e+002;3.895006e-002
9.199174e+002;3.841855e-002
9.218459e+002;3.821368e-002
9.237745e+002;3.840179e-002
9.257031e+002;3.873725e-002
9.276316e+002;3.887015e-002
9.295601e+002;3.890193e-002
9.314887e+002;3.899873e-002
9.334172e+002;3.941295e-002
9.353458e+002;4.033628e-002
9.372744e+002;4.145003e-002
9.392029e+002;4.233180e-002
9.411314e+002;4.314787e-002
9.430600e+002;4.320214e-002
9.449885e+002;4.268760e-002
9.469171e+002;4.251980e-002
9.488456e+002;4.259563e-002
9.507742e+002;4.287027e-002
9.527027e+002;4.361716e-002
9.546313e+002;4.416618e-002
9.565598e+002;4.455422e-002
9.584883e+002;4.545438e-002
9.604169e+002;4.692386e-002
9.623455e+002;4.916938e-002
9.642740e+002;5.265238e-002
9.662026e+002;5.687184e-002
9.681311e+002;6.286516e-002
9.700596e+002;7.132699e-002
9.719882e+002;7.864182e-002
9.739167e+002;8.124914e-002
9.758453e+002;7.780558e-002
9.777739e+002;6.986892e-002
9.797024e+002;6.086314e-002
9.816309e+002;5.290580e-002
9.835595e+002;4.690570e-002
9.854880e+002;4.374833e-002
9.874166e+002;4.311834e-002
9.893452e+002;4.426402e-002
9.912737e+002;4.756373e-002
9.932022e+002;5.363972e-002
9.951307e+002;6.081161e-002
9.970593e+002;6.662737e-002
9.989879e+002;6.780158e-002
1.000916e+003;6.336926e-002
1.002845e+003;5.642098e-002
1.004773e+003;5.076877e-002
1.006702e+003;4.708222e-002
1.008631e+003;4.447423e-002
1.010559e+003;4.241085e-002
1.012488e+003;4.100405e-002
1.014416e+003;3.998730e-002
1.016345e+003;3.926472e-002
1.018273e+003;3.849954e-002
1.020202e+003;3.765095e-002
1.022130e+003;3.736262e-002
1.024059e+003;3.716142e-002
1.025988e+003;3.729549e-002
1.027916e+003;3.833454e-002
1.029845e+003;3.948751e-002
1.031773e+003;4.088306e-002
1.033702e+003;4.284230e-002
1.035630e+003;4.446953e-002
1.037559e+003;4.566631e-002
1.039487e+003;4.585827e-002
1.041416e+003;4.481710e-002
1.043344e+003;4.346885e-002
1.045273e+003;4.175725e-002
1.047202e+003;3.989296e-002
1.049130e+003;3.795090e-002
1.051059e+003;3.657651e-002
1.052987e+003;3.569875e-002
1.054916e+003;3.477800e-002
1.056844e+003;3.340079e-002
1.058773e+003;3.244919e-002
1.060701e+003;3.241538e-002
1.062630e+003;3.267529e-002
1.064558e+003;3.274853e-002
1.066487e+003;3.270930e-002
1.068416e+003;3.259542e-002
1.070344e+003;3.253014e-002
1.072273e+003;3.245201e-002
1.074201e+003;3.235694e-002
1.076130e+003;3.270487e-002
1.078058e+003;3.343336e-002
1.079987e+003;3.432139e-002
1.081915e+003;3.485619e-002
1.083844e+003;3.482517e-002
1.085773e+003;3.520441e-002
1.087701e+003;3.657702e-002
1.089630e+003;3.761550e-002
1.091558e+003;3.838576e-002
1.093487e+003;4.016931e-002
1.095415e+003;4.202801e-002
1.097344e+003;4.341901e-002
1.099272e+003;4.562752e-002
1.101201e+003;4.803786e-002
1.103129e+003;4.874439e-002
1.105058e+003;4.849409e-002
1.106987e+003;4.779004e-002
1.108915e+003;4.585617e-002
1.110844e+003;4.353620e-002
1.112772e+003;4.124343e-002
1.114701e+003;3.902316e-002
1.116629e+003;3.741188e-002
1.118558e+003;3.619038e-002
1.120486e+003;3.499760e-002
1.122415e+003;3.377993e-002
1.124344e+003;3.297147e-002
1.126272e+003;3.264279e-002
1.128201e+003;3.228319e-002
1.130129e+003;3.255803e-002
1.132058e+003;3.378026e-002
1.133986e+003;3.533059e-002
1.135915e+003;3.697557e-002
1.137843e+003;3.904742e-002
1.139772e+003;4.171677e-002
1.141700e+003;4.422139e-002
1.143629e+003;4.688850e-002
1.145557e+003;5.005240e-002
1.147486e+003;5.346201e-002
1.149415e+003;5.732535e-002
1.151343e+003;6.110068e-002
1.153272e+003;6.320895e-002
1.155200e+003;6.384873e-002
1.157129e+003;6.429438e-002
1.159057e+003;6.497588e-002
1.160986e+003;6.574781e-002
1.162914e+003;6.628761e-002
1.164843e+003;6.654545e-002
1.166771e+003;6.751660e-002
1.168700e+003;6.722172e-002
1.170629e+003;6.331935e-002
1.172557e+003;5.788275e-002
1.174486e+003;5.283937e-002
1.176414e+003;4.822217e-002
1.178343e+003;4.476571e-002
1.180271e+003;4.273798e-002
1.182200e+003;4.202589e-002
1.184128e+003;4.205363e-002
1.186057e+003;4.240380e-002
1.187986e+003;4.303382e-002
1.189914e+003;4.375918e-002
1.191843e+003;4.397912e-002
1.193771e+003;4.384208e-002
1.195700e+003;4.390344e-002
1.197628e+003;4.439748e-002
1.199557e+003;4.463999e-002
1.201485e+003;4.440310e-002
1.203414e+003;4.412503e-002
1.205343e+003;4.408164e-002
1.207271e+003;4.433110e-002
1.209200e+003;4.587650e-002
1.211128e+003;4.845075e-002
1.213057e+003;5.076303e-002
1.214985e+003;5.137237e-002
1.216914e+003;5.026226e-002
1.218842e+003;4.859569e-002
1.220771e+003;4.705862e-002
1.222699e+003;4.606486e-002
1.224628e+003;4.538441e-002
1.226557e+003;4.529213e-002
1.228485e+003;4.569392e-002
1.230414e+003;4.594039e-002
1.232342e+003;4.602994e-002
1.234271e+003;4.623982e-002
1.236199e+003;4.630403e-002
1.238128e+003;4.643281e-002
1.240056e+003;4.661924e-002
1.241985e+003;4.672531e-002
1.243913e+003;4.706889e-002
1.245842e+003;4.788974e-002
1.247771e+003;4.881842e-002
1.249699e+003;5.042463e-002
1.251628e+003;5.303486e-002
1.253556e+003;5.646520e-002
1.255485e+003;5.970485e-002
1.257413e+003;6.007335e-002
1.259342e+003;5.742423e-002
1.261270e+003;5.419781e-002
1.263199e+003;5.198066e-002
1.265127e+003;5.098177e-002
1.267056e+003;5.039445e-002
1.268985e+003;4.917717e-002
1.270913e+003;4.778468e-002
1.272842e+003;4.684484e-002
1.274770e+003;4.612606e-002
1.276699e+003;4.533917e-002
1.278627e+003;4.481188e-002
1.280556e+003;4.462211e-002
1.282484e+003;4.453032e-002
1.284413e+003;4.523429e-002
1.286342e+003;4.666454e-002
1.288270e+003;4.766293e-002
1.290199e+003;4.883841e-002
1.292127e+003;5.034642e-002
1.294056e+003;5.133676e-002
1.295984e+003;5.196774e-002
1.297913e+003;5.227102e-002
1.299841e+003;5.249673e-002
1.301770e+003;5.326390e-002
1.303698e+003;5.414917e-002
1.305627e+003;5.358536e-002
1.307556e+003;5.125066e-002
1.309484e+003;4.882818e-002
1.311413e+003;4.782711e-002
1.313341e+003;4.795182e-002
1.315270e+003;4.869257e-002
1.317198e+003;4.983457e-002
1.319127e+003;5.105828e-002
1.321055e+003;5.223967e-002
1.322984e+003;5.356264e-002
1.324912e+003;5.555924e-002
1.326841e+003;5.750294e-002
1.328770e+003;5.889527e-002
1.330698e+003;5.949235e-002
1.332627e+003;5.919511e-002
1.334555e+003;5.874108e-002
1.336484e+003;5.852060e-002
1.338412e+003;5.847935e-002
1.340341e+003;5.916993e-002
1.342269e+003;6.075021e-002
1.344198e+003;6.283797e-002
1.346126e+003;6.541283e-002
1.348055e+003;6.834336e-002
1.349984e+003;7.214990e-002
1.351912e+003;7.759596e-002
1.353841e+003;8.467653e-002
1.355769e+003;9.271515e-002
1.357698e+003;9.963103e-002
1.359626e+003;1.025440e-001
1.361555e+003;1.018828e-001
1.363483e+003;1.018731e-001
1.365412e+003;1.054505e-001
1.367341e+003;1.142434e-001
1.369269e+003;1.315419e-001
1.371198e+003;1.573463e-001
1.373126e+003;1.862293e-001
1.375055e+003;2.084471e-001
1.376983e+003;2.103540e-001
1.378912e+003;1.899798e-001
1.380840e+003;1.610162e-001
1.382769e+003;1.339350e-001
1.384698e+003;1.125786e-001
1.386626e+003;9.819860e-002
1.388555e+003;9.154816e-002
1.390483e+003;8.972005e-002
1.392412e+003;8.884678e-002
1.394340e+003;8.907846e-002
1.396269e+003;9.143138e-002
1.398197e+003;9.362374e-002
1.400126e+003;9.626760e-002
1.402054e+003;9.887025e-002
1.403983e+003;1.004120e-001
1.405911e+003;1.022064e-001
1.407840e+003;1.043338e-001
1.409769e+003;1.064204e-001
1.411697e+003;1.093297e-001
1.413626e+003;1.128201e-001
1.415554e+003;1.159842e-001
1.417483e+003;1.178510e-001
1.419411e+003;1.206139e-001
1.421340e+003;1.258772e-001
1.423268e+003;1.304996e-001
1.425197e+003;1.342755e-001
1.427125e+003;1.377881e-001
1.429054e+003;1.418810e-001
1.430983e+003;1.477818e-001
1.432911e+003;1.538194e-001
1.434840e+003;1.559626e-001
1.436768e+003;1.555358e-001
1.438697e+003;1.576657e-001
1.440625e+003;1.605023e-001
1.442554e+003;1.641002e-001
1.444482e+003;1.694073e-001
1.446411e+003;1.758224e-001
1.448340e+003;1.825202e-001
1.450268e+003;1.879189e-001
1.452197e+003;1.900120e-001
1.454125e+003;1.887271e-001
1.456054e+003;1.836438e-001
1.457982e+003;1.810943e-001
1.459911e+003;1.801641e-001
1.461839e+003;1.752241e-001
1.463768e+003;1.663684e-001
1.465697e+003;1.568474e-001
1.467625e+003;1.476912e-001
1.469554e+003;1.374159e-001
1.471482e+003;1.262608e-001
1.473411e+003;1.179734e-001
1.475339e+003;1.129471e-001
1.477268e+003;1.085767e-001
1.479196e+003;1.047161e-001
1.481125e+003;1.005208e-001
1.483053e+003;9.688388e-002
1.484982e+003;9.296495e-002
1.486911e+003;8.879930e-002
1.488839e+003;8.516928e-002
1.490768e+003;8.276872e-002
1.492696e+003;8.130287e-002
1.494625e+003;7.820247e-002
1.496553e+003;7.498257e-002
1.498482e+003;7.372551e-002
1.500410e+003;7.281031e-002
1.502339e+003;7.057250e-002
1.504267e+003;6.497969e-002
1.506196e+003;5.917457e-002
1.508125e+003;5.880622e-002
1.510053e+003;5.949512e-002
1.511982e+003;5.831712e-002
1.513910e+003;5.671334e-002
1.515839e+003;5.382098e-002
1.517767e+003;5.142552e-002
1.519696e+003;4.861289e-002
1.521624e+003;4.642916e-002
1.523553e+003;4.704980e-002
1.525481e+003;4.657963e-002
1.527410e+003;4.582421e-002
1.529339e+003;4.532601e-002
1.531267e+003;4.387888e-002
1.533196e+003;4.180570e-002
1.535124e+003;4.177031e-002
1.537053e+003;3.958201e-002
1.538981e+003;3.436901e-002
1.540910e+003;3.363742e-002
1.542838e+003;3.617929e-002
1.544767e+003;3.829119e-002
1.546695e+003;3.989583e-002
1.548624e+003;3.999235e-002
1.550553e+003;3.974069e-002
1.552481e+003;3.897053e-002
1.554410e+003;3.754144e-002
1.556338e+003;3.487641e-002
1.558267e+003;2.988277e-002
1.560195e+003;3.081528e-002
1.562124e+003;3.531402e-002
1.564052e+003;3.624088e-002
1.565981e+003;3.584386e-002
1.567910e+003;3.447098e-002
1.569838e+003;3.309313e-002
1.571767e+003;3.376249e-002
1.573695e+003;3.274807e-002
1.575624e+003;2.973298e-002
1.577552e+003;3.059167e-002
1.579481e+003;3.273474e-002
1.581409e+003;3.289083e-002
1.583338e+003;3.277858e-002
1.585266e+003;3.238918e-002
1.587195e+003;3.187598e-002
1.589124e+003;3.134646e-002
1.591052e+003;3.075919e-002
1.592981e+003;3.037742e-002
1.594909e+003;3.032025e-002
1.596838e+003;3.019705e-002
1.598766e+003;3.016401e-002
1.600695e+003;3.014586e-002
1.602623e+003;3.021715e-002
1.604552e+003;3.047611e-002
1.606480e+003;3.042710e-002
1.608409e+003;2.977269e-002
1.610338e+003;2.956387e-002
1.612266e+003;3.002595e-002
1.614195e+003;2.941996e-002
1.616123e+003;2.764245e-002
1.618052e+003;2.915373e-002
1.619980e+003;3.081834e-002
1.621909e+003;2.936136e-002
1.623837e+003;2.802286e-002
1.625766e+003;2.779429e-002
1.627694e+003;2.726539e-002
1.629623e+003;2.739693e-002
1.631552e+003;2.728973e-002
1.633480e+003;2.487478e-002
1.635409e+003;2.226391e-002
1.637337e+003;2.419059e-002
1.639266e+003;2.609680e-002
1.641194e+003;2.628153e-002
1.643123e+003;2.546479e-002
1.645051e+003;2.263652e-002
1.646980e+003;2.182646e-002
1.648909e+003;2.367099e-002
1.650837e+003;2.079344e-002
1.652766e+003;1.607470e-002
1.654694e+003;2.004746e-002
1.656623e+003;2.468027e-002
1.658551e+003;2.544697e-002
1.660480e+003;2.481531e-002
1.662408e+003;2.364846e-002
1.664337e+003;2.407154e-002
1.666266e+003;2.442365e-002
1.668194e+003;2.282460e-002
1.670123e+003;2.225756e-002
1.672051e+003;2.319119e-002
1.673980e+003;2.229927e-002
1.675908e+003;2.243812e-002
1.677837e+003;2.435895e-002
1.679765e+003;2.414954e-002
1.681694e+003;2.211428e-002
1.683622e+003;1.838812e-002
1.685551e+003;1.954621e-002
1.687479e+003;2.297972e-002
1.689408e+003;2.366396e-002
1.691337e+003;2.389460e-002
1.693265e+003;2.250299e-002
1.695194e+003;1.929624e-002
1.697122e+003;1.941442e-002
1.699051e+003;1.830917e-002
1.700979e+003;1.831318e-002
1.702908e+003;2.148232e-002
1.704836e+003;2.179350e-002
1.706765e+003;2.199460e-002
1.708693e+003;2.245476e-002
1.710622e+003;2.283637e-002
1.712551e+003;2.234215e-002
1.714479e+003;2.062503e-002
1.716408e+003;1.817727e-002
1.718336e+003;1.895279e-002
1.720265e+003;2.182580e-002
1.722193e+003;2.260552e-002
1.724122e+003;2.259086e-002
1.726050e+003;2.278507e-002
1.727979e+003;2.222227e-002
1.729908e+003;2.151978e-002
1.731836e+003;1.917932e-002
1.733765e+003;1.655248e-002
1.735693e+003;1.892732e-002
1.737622e+003;2.062430e-002
1.739550e+003;1.981254e-002
1.741479e+003;2.027602e-002
1.743407e+003;2.045231e-002
1.745336e+003;2.004500e-002
1.747265e+003;1.930833e-002
1.749193e+003;1.819597e-002
1.751122e+003;1.790617e-002
1.753050e+003;1.931201e-002
1.754979e+003;1.947599e-002
1.756907e+003;1.909992e-002
1.758836e+003;1.958617e-002
1.760764e+003;1.890250e-002
1.762693e+003;1.863790e-002
1.764621e+003;1.936300e-002
1.766550e+003;1.852938e-002
1.768479e+003;1.765615e-002
1.770407e+003;1.689845e-002
1.772336e+003;1.601773e-002
1.774264e+003;1.739855e-002
1.776193e+003;1.864378e-002
1.778121e+003;1.870296e-002
1.780050e+003;1.844675e-002
1.781978e+003;1.893154e-002
1.783907e+003;1.927359e-002
1.785835e+003;1.981618e-002
1.787764e+003;2.122742e-002
1.789693e+003;2.233705e-002
1.791621e+003;2.339878e-002
1.793550e+003;2.613392e-002
1.795478e+003;2.885516e-002
1.797407e+003;2.941713e-002
1.799335e+003;2.863482e-002
1.801264e+003;2.733761e-002
1.803192e+003;2.556557e-002
1.805121e+003;2.336878e-002
1.807049e+003;2.128184e-002
1.808978e+003;1.966268e-002
1.810907e+003;1.881523e-002
1.812835e+003;1.856234e-002
1.814764e+003;1.843019e-002
1.816692e+003;1.798843e-002
1.818621e+003;1.774471e-002
1.820549e+003;1.754564e-002
1.822478e+003;1.724618e-002
1.824406e+003;1.693559e-002
1.826335e+003;1.723935e-002
1.828264e+003;1.690344e-002
1.830192e+003;1.652901e-002
1.832121e+003;1.732227e-002
1.834049e+003;1.767576e-002
1.835978e+003;1.729169e-002
1.837906e+003;1.717016e-002
1.839835e+003;1.735934e-002
1.841763e+003;1.666381e-002
1.843692e+003;1.528869e-002
1.845620e+003;1.572097e-002
1.847549e+003;1.648278e-002
1.849478e+003;1.651872e-002
1.851406e+003;1.649538e-002
1.853335e+003;1.654422e-002
1.855263e+003;1.645339e-002
1.857192e+003;1.642049e-002
1.859120e+003;1.638547e-002
1.861049e+003;1.618798e-002
1.862977e+003;1.611586e-002
1.864906e+003;1.597476e-002
1.866834e+003;1.518961e-002
1.868763e+003;1.465260e-002
1.870692e+003;1.528927e-002
1.872620e+003;1.583656e-002
1.874549e+003;1.556983e-002
1.876477e+003;1.533046e-002
1.878406e+003;1.557722e-002
1.880334e+003;1.580415e-002
1.882263e+003;1.572276e-002
1.884191e+003;1.588739e-002
1.886120e+003;1.596297e-002
1.888048e+003;1.556461e-002
1.889977e+003;1.538459e-002
1.891906e+003;1.581261e-002
1.893834e+003;1.584841e-002
1.895763e+003;1.559254e-002
1.897691e+003;1.560226e-002
1.899620e+003;1.576852e-002
1.901548e+003;1.579488e-002
1.903477e+003;1.584779e-002
1.905405e+003;1.577986e-002
1.907334e+003;1.538991e-002
1.909262e+003;1.504274e-002
1.911191e+003;1.509156e-002
1.913120e+003;1.532651e-002
1.915048e+003;1.514151e-002
1.916977e+003;1.455408e-002
1.918905e+003;1.484497e-002
1.920834e+003;1.520697e-002
1.922762e+003;1.500902e-002
1.924691e+003;1.500546e-002
1.926619e+003;1.495991e-002
1.928548e+003;1.482443e-002
1.930477e+003;1.475446e-002
1.932405e+003;1.461086e-002
1.934334e+003;1.450649e-002
1.936262e+003;1.443082e-002
1.938191e+003;1.432492e-002
1.940119e+003;1.409690e-002
1.942048e+003;1.385067e-002
1.943976e+003;1.386658e-002
1.945905e+003;1.399468e-002
1.947833e+003;1.409266e-002
1.949762e+003;1.417402e-002
1.951691e+003;1.425315e-002
1.953619e+003;1.428509e-002
1.955548e+003;1.412076e-002
1.957476e+003;1.399721e-002
1.959405e+003;1.404016e-002
1.961333e+003;1.398807e-002
1.963262e+003;1.385724e-002
1.965190e+003;1.366514e-002
1.967119e+003;1.345863e-002
1.969047e+003;1.342291e-002
1.970976e+003;1.349564e-002
1.972905e+003;1.377546e-002
1.974833e+003;1.384979e-002
1.976762e+003;1.377344e-002
1.978690e+003;1.376147e-002
1.980619e+003;1.373452e-002
1.982547e+003;1.374228e-002
1.984476e+003;1.365095e-002
1.986404e+003;1.367440e-002
1.988333e+003;1.372047e-002
1.990261e+003;1.355830e-002
1.992190e+003;1.355765e-002
1.994119e+003;1.388434e-002
1.996047e+003;1.408688e-002
1.997976e+003;1.381048e-002
1.999904e+003;1.359590e-002
2.001833e+003;1.359501e-002
2.003761e+003;1.343255e-002
2.005690e+003;1.325156e-002
2.007618e+003;1.330902e-002
2.009547e+003;1.353262e-002
2.011476e+003;1.366664e-002
2.013404e+003;1.347660e-002
2.015333e+003;1.339650e-002
2.017261e+003;1.343973e-002
2.019190e+003;1.361395e-002
2.021118e+003;1.357600e-002
2.023047e+003;1.339974e-002
2.024975e+003;1.334001e-002
2.026904e+003;1.338802e-002
2.028833e+003;1.338823e-002
2.030761e+003;1.328354e-002
2.032690e+003;1.334299e-002
2.034618e+003;1.340788e-002
2.036547e+003;1.328367e-002
2.038475e+003;1.340101e-002
2.040404e+003;1.330937e-002
2.042332e+003;1.325645e-002
2.044261e+003;1.344878e-002
2.046189e+003;1.358906e-002
2.048118e+003;1.351885e-002
2.050047e+003;1.352811e-002
2.051975e+003;1.338126e-002
2.053904e+003;1.337798e-002
2.055832e+003;1.345753e-002
2.057761e+003;1.336615e-002
2.059689e+003;1.333496e-002
2.061618e+003;1.319278e-002
2.063546e+003;1.293805e-002
2.065475e+003;1.296751e-002
2.067404e+003;1.297437e-002
2.069332e+003;1.307195e-002
2.071260e+003;1.330219e-002
2.073189e+003;1.323315e-002
2.075118e+003;1.311668e-002
2.077046e+003;1.319431e-002
2.078975e+003;1.324425e-002
2.080903e+003;1.330048e-002
2.082832e+003;1.329683e-002
2.084760e+003;1.350942e-002
2.086689e+003;1.365539e-002
2.088617e+003;1.346327e-002
2.090546e+003;1.343142e-002
2.092475e+003;1.360383e-002
2.094403e+003;1.363153e-002
2.096332e+003;1.357877e-002
2.098260e+003;1.350193e-002
2.100189e+003;1.360308e-002
2.102117e+003;1.363789e-002
2.104046e+003;1.361064e-002
2.105974e+003;1.359611e-002
2.107903e+003;1.344509e-002
2.109832e+003;1.343477e-002
2.111760e+003;1.368039e-002
2.113688e+003;1.383867e-002
2.115617e+003;1.390568e-002
2.117546e+003;1.384965e-002
2.119474e+003;1.399848e-002
2.121403e+003;1.434499e-002
2.123331e+003;1.453033e-002
2.125260e+003;1.468454e-002
2.127188e+003;1.474932e-002
2.129117e+003;1.489726e-002
2.131045e+003;1.513567e-002
2.132974e+003;1.521161e-002
2.134903e+003;1.506329e-002
2.136831e+003;1.497027e-002
2.138760e+003;1.492767e-002
2.140688e+003;1.478305e-002
2.142617e+003;1.457875e-002
2.144545e+003;1.441304e-002
2.146474e+003;1.437297e-002
2.148402e+003;1.433327e-002
2.150331e+003;1.434468e-002
2.152260e+003;1.454387e-002
2.154188e+003;1.438512e-002
2.156117e+003;1.442386e-002
2.158045e+003;1.470846e-002
2.159974e+003;1.487332e-002
2.161902e+003;1.506291e-002
2.163831e+003;1.533739e-002
2.165759e+003;1.556015e-002
2.167688e+003;1.545614e-002
2.169616e+003;1.537656e-002
2.171545e+003;1.546235e-002
2.173474e+003;1.548230e-002
2.175402e+003;1.557437e-002
2.177331e+003;1.567250e-002
2.179259e+003;1.556760e-002
2.181188e+003;1.547427e-002
2.183116e+003;1.523717e-002
2.185045e+003;1.481630e-002
2.186973e+003;1.480743e-002
2.188902e+003;1.494599e-002
2.190831e+003;1.514864e-002
2.192759e+003;1.529552e-002
2.194688e+003;1.509286e-002
2.196616e+003;1.497483e-002
2.198545e+003;1.490833e-002
2.200473e+003;1.463351e-002
2.202402e+003;1.454733e-002
2.204330e+003;1.451094e-002
2.206259e+003;1.444743e-002
2.208188e+003;1.451002e-002
2.210116e+003;1.455744e-002
2.212044e+003;1.453362e-002
2.213973e+003;1.445082e-002
2.215902e+003;1.434262e-002
2.217830e+003;1.459465e-002
2.219759e+003;1.466439e-002
2.221687e+003;1.434351e-002
2.223616e+003;1.408438e-002
2.225544e+003;1.409061e-002
2.227473e+003;1.431769e-002
2.229401e+003;1.451180e-002
2.231330e+003;1.448652e-002
2.233259e+003;1.455826e-002
2.235187e+003;1.467264e-002
2.237116e+003;1.458893e-002
2.239044e+003;1.449933e-002
2.240973e+003;1.433218e-002
2.242901e+003;1.422524e-002
2.244830e+003;1.425842e-002
2.246758e+003;1.439632e-002
2.248687e+003;1.463515e-002
2.250615e+003;1.486965e-002
2.252544e+003;1.493796e-002
2.254473e+003;1.509375e-002
2.256401e+003;1.529232e-002
2.258330e+003;1.506555e-002
2.260258e+003;1.482354e-002
2.262187e+003;1.493800e-002
2.264115e+003;1.487929e-002
2.266044e+003;1.477349e-002
2.267972e+003;1.495302e-002
2.269901e+003;1.501026e-002
2.271830e+003;1.462682e-002
2.273758e+003;1.435612e-002
2.275687e+003;1.425455e-002
2.277615e+003;1.403284e-002
2.279544e+003;1.396128e-002
2.281472e+003;1.385635e-002
2.283401e+003;1.371113e-002
2.285329e+003;1.383549e-002
2.287258e+003;1.399889e-002
2.289187e+003;1.387613e-002
2.291115e+003;1.372443e-002
2.293043e+003;1.358315e-002
2.294972e+003;1.363153e-002
2.296901e+003;1.383121e-002
2.298829e+003;1.370935e-002
2.300758e+003;1.356999e-002
2.302686e+003;1.337347e-002
2.304615e+003;1.324131e-002
2.306543e+003;1.342045e-002
2.308472e+003;1.323404e-002
2.310400e+003;1.258710e-002
2.312329e+003;1.224117e-002
2.314258e+003;1.203561e-002
2.316186e+003;1.150952e-002
2.318115e+003;1.092841e-002
2.320043e+003;1.031322e-002
2.321972e+003;9.589788e-003
2.323900e+003;9.263062e-003
2.325829e+003;9.145522e-003
2.327757e+003;8.674026e-003
2.329686e+003;8.045587e-003
2.331615e+003;7.779690e-003
2.333543e+003;7.842370e-003
2.335472e+003;7.615846e-003
2.337400e+003;7.571169e-003
2.339329e+003;8.139635e-003
2.341257e+003;8.795056e-003
2.343186e+003;9.669906e-003
2.345114e+003;1.100300e-002
2.347043e+003;1.240456e-002
2.348971e+003;1.292361e-002
2.350900e+003;1.210116e-002
2.352829e+003;1.066879e-002
2.354757e+003;9.070745e-003
2.356686e+003;7.521237e-003
2.358614e+003;6.647067e-003
2.360543e+003;6.355865e-003
2.362471e+003;6.137575e-003
2.364400e+003;6.339424e-003
2.366328e+003;7.169013e-003
2.368257e+003;8.446866e-003
2.370186e+003;1.007720e-002
2.372114e+003;1.157135e-002
2.374042e+003;1.276307e-002
2.375971e+003;1.386169e-002
2.377900e+003;1.471048e-002
2.379828e+003;1.522743e-002
2.381757e+003;1.559968e-002
2.383685e+003;1.571276e-002
2.385614e+003;1.563622e-002
2.387542e+003;1.562881e-002
2.389471e+003;1.581852e-002
2.391399e+003;1.601921e-002
2.393328e+003;1.622213e-002
2.395257e+003;1.613560e-002
2.397185e+003;1.600384e-002
2.399114e+003;1.604135e-002
2.401042e+003;1.604585e-002
2.402971e+003;1.620393e-002
2.404899e+003;1.639844e-002
2.406828e+003;1.618660e-002
2.408756e+003;1.614801e-002
2.410685e+003;1.647621e-002
2.412614e+003;1.665469e-002
2.414542e+003;1.649937e-002
2.416471e+003;1.641389e-002
2.418399e+003;1.667700e-002
2.420328e+003;1.674287e-002
2.422256e+003;1.669253e-002
2.424185e+003;1.685446e-002
2.426113e+003;1.681912e-002
2.428042e+003;1.693917e-002
2.429970e+003;1.710967e-002
2.431899e+003;1.694162e-002
2.433828e+003;1.688532e-002
2.435756e+003;1.693424e-002
2.437685e+003;1.680049e-002
2.439613e+003;1.650836e-002
2.441542e+003;1.626695e-002
2.443470e+003;1.595575e-002
2.445399e+003;1.599776e-002
2.447327e+003;1.597476e-002
2.449256e+003;1.598703e-002
2.451185e+003;1.587494e-002
2.453113e+003;1.587347e-002
2.455042e+003;1.595936e-002
2.456970e+003;1.590598e-002
2.458899e+003;1.584769e-002
2.460827e+003;1.577103e-002
2.462756e+003;1.571063e-002
2.464684e+003;1.549686e-002
2.466613e+003;1.560748e-002
2.468542e+003;1.574588e-002
2.470470e+003;1.586378e-002
2.472398e+003;1.590203e-002
2.474327e+003;1.608447e-002
2.476256e+003;1.653345e-002
2.478184e+003;1.696411e-002
2.480113e+003;1.717071e-002
2.482041e+003;1.718299e-002
2.483970e+003;1.745208e-002
2.485898e+003;1.772528e-002
2.487827e+003;1.770944e-002
2.489755e+003;1.834778e-002
2.491684e+003;1.906294e-002
2.493613e+003;1.918763e-002
2.495541e+003;1.945010e-002
2.497470e+003;1.988055e-002
2.499398e+003;2.040529e-002
2.501327e+003;2.119649e-002
2.503255e+003;2.213715e-002
2.505184e+003;2.285548e-002
2.507112e+003;2.340246e-002
2.509041e+003;2.400160e-002
2.510969e+003;2.465884e-002
2.512898e+003;2.526983e-002
2.514827e+003;2.569667e-002
2.516755e+003;2.576582e-002
2.518684e+003;2.585696e-002
2.520612e+003;2.612794e-002
2.522541e+003;2.600311e-002
2.524469e+003;2.568268e-002
2.526398e+003;2.532399e-002
2.528326e+003;2.467444e-002
2.530255e+003;2.428060e-002
2.532184e+003;2.405066e-002
2.534112e+003;2.338469e-002
2.536041e+003;2.282506e-002
2.537969e+003;2.250923e-002
2.539898e+003;2.229003e-002
2.541826e+003;2.225683e-002
2.543755e+003;2.231152e-002
2.545683e+003;2.249081e-002
2.547612e+003;2.297923e-002
2.549541e+003;2.332183e-002
2.551469e+003;2.332826e-002
2.553397e+003;2.359818e-002
2.555326e+003;2.392244e-002
2.557255e+003;2.389670e-002
2.559183e+003;2.424637e-002
2.561112e+003;2.461925e-002
2.563040e+003;2.477423e-002
2.564969e+003;2.502940e-002
2.566897e+003;2.518187e-002
2.568826e+003;2.538574e-002
2.570754e+003;2.585563e-002
2.572683e+003;2.647546e-002
2.574612e+003;2.724538e-002
2.576540e+003;2.802749e-002
2.578469e+003;2.839758e-002
2.580397e+003;2.867244e-002
2.582326e+003;2.894447e-002
2.584254e+003;2.869857e-002
2.586183e+003;2.814618e-002
2.588111e+003;2.765531e-002
2.590040e+003;2.720912e-002
2.591969e+003;2.665161e-002
2.593897e+003;2.620860e-002
2.595826e+003;2.599593e-002
2.597754e+003;2.584381e-002
2.599683e+003;2.572479e-002
2.601611e+003;2.565758e-002
2.603540e+003;2.575348e-002
2.605468e+003;2.622074e-002
2.607397e+003;2.662103e-002
2.609325e+003;2.693246e-002
2.611254e+003;2.744790e-002
2.613183e+003;2.750956e-002
2.615111e+003;2.745697e-002
2.617040e+003;2.773018e-002
2.618968e+003;2.764037e-002
2.620897e+003;2.713892e-002
2.622825e+003;2.674974e-002
2.624754e+003;2.648025e-002
2.626682e+003;2.620286e-002
2.628611e+003;2.583091e-002
2.630540e+003;2.571948e-002
2.632468e+003;2.586780e-002
2.634396e+003;2.589396e-002
2.636325e+003;2.594770e-002
2.638254e+003;2.599368e-002
2.640182e+003;2.583639e-002
2.642111e+003;2.589867e-002
2.644039e+003;2.642975e-002
2.645968e+003;2.708172e-002
2.647896e+003;2.729901e-002
2.649825e+003;2.752192e-002
2.651753e+003;2.790221e-002
2.653682e+003;2.839040e-002
2.655611e+003;2.866282e-002
2.657539e+003;2.886705e-002
2.659468e+003;2.904560e-002
2.661396e+003;2.901032e-002
2.663325e+003;2.938958e-002
2.665253e+003;2.967263e-002
2.667182e+003;2.954291e-002
2.669110e+003;2.957189e-002
2.671039e+003;2.968434e-002
2.672968e+003;2.989626e-002
2.674896e+003;3.013848e-002
2.676825e+003;3.043673e-002
2.678753e+003;3.064959e-002
2.680682e+003;3.060476e-002
2.682610e+003;3.035578e-002
2.684539e+003;3.030973e-002
2.686467e+003;3.056085e-002
2.688396e+003;3.060248e-002
2.690324e+003;3.070798e-002
2.692253e+003;3.077349e-002
2.694182e+003;3.035919e-002
2.696110e+003;3.018628e-002
2.698039e+003;3.042575e-002
2.699967e+003;3.073472e-002
2.701896e+003;3.136983e-002
2.703824e+003;3.210246e-002
2.705753e+003;3.251193e-002
2.707681e+003;3.316591e-002
2.709610e+003;3.433817e-002
2.711539e+003;3.550448e-002
2.713467e+003;3.684820e-002
2.715396e+003;3.864815e-002
2.717324e+003;4.033417e-002
2.719253e+003;4.189578e-002
2.721181e+003;4.321444e-002
2.723110e+003;4.373118e-002
2.725038e+003;4.335962e-002
2.726967e+003;4.222840e-002
2.728896e+003;4.071858e-002
2.730824e+003;3.939212e-002
2.732752e+003;3.860049e-002
2.734681e+003;3.763361e-002
2.736610e+003;3.637211e-002
2.738538e+003;3.532103e-002
2.740467e+003;3.444551e-002
2.742395e+003;3.355952e-002
2.744324e+003;3.291406e-002
2.746252e+003;3.240324e-002
2.748181e+003;3.194380e-002
2.750109e+003;3.180185e-002
2.752038e+003;3.192308e-002
2.753967e+003;3.206375e-002
2.755895e+003;3.213418e-002
2.757824e+003;3.232756e-002
2.759752e+003;3.283640e-002
2.761681e+003;3.328276e-002
2.763609e+003;3.355687e-002
2.765538e+003;3.370083e-002
2.767466e+003;3.407195e-002
2.769395e+003;3.473967e-002
2.771323e+003;3.539618e-002
2.773252e+003;3.616139e-002
2.775181e+003;3.667990e-002
2.777109e+003;3.732106e-002
2.779038e+003;3.809719e-002
2.780966e+003;3.891179e-002
2.782895e+003;3.987622e-002
2.784823e+003;4.125484e-002
2.786752e+003;4.298951e-002
2.788680e+003;4.479050e-002
2.790609e+003;4.665023e-002
2.792538e+003;4.868772e-002
2.794466e+003;5.009226e-002
2.796395e+003;5.114609e-002
2.798323e+003;5.283342e-002
2.800252e+003;5.453346e-002
2.802180e+003;5.594271e-002
2.804109e+003;5.801732e-002
2.806037e+003;6.096771e-002
2.807966e+003;6.332107e-002
2.809895e+003;6.493917e-002
2.811823e+003;6.695297e-002
2.813751e+003;6.928653e-002
2.815680e+003;7.153572e-002
2.817609e+003;7.374388e-002
2.819537e+003;7.654811e-002
2.821466e+003;7.991560e-002
2.823394e+003;8.364900e-002
2.825323e+003;8.857557e-002
2.827251e+003;9.523117e-002
2.829180e+003;1.037244e-001
2.831108e+003;1.135921e-001
2.833037e+003;1.229880e-001
2.834966e+003;1.307505e-001
2.836894e+003;1.355991e-001
2.838823e+003;1.369633e-001
2.840751e+003;1.347388e-001
2.842680e+003;1.297694e-001
2.844608e+003;1.238077e-001
2.846537e+003;1.180703e-001
2.848465e+003;1.134240e-001
2.850394e+003;1.101661e-001
2.852323e+003;1.080142e-001
2.854251e+003;1.069156e-001
2.856180e+003;1.077864e-001
2.858108e+003;1.112235e-001
2.860037e+003;1.176476e-001
2.861965e+003;1.261433e-001
2.863894e+003;1.345410e-001
2.865822e+003;1.413859e-001
2.867751e+003;1.455448e-001
2.869679e+003;1.474775e-001
2.871608e+003;1.481253e-001
2.873536e+003;1.480853e-001
2.875465e+003;1.476692e-001
2.877394e+003;1.467201e-001
2.879322e+003;1.454223e-001
2.881251e+003;1.442501e-001
2.883179e+003;1.434688e-001
2.885108e+003;1.433012e-001
2.887036e+003;1.442968e-001
2.888965e+003;1.460139e-001
2.890893e+003;1.478485e-001
2.892822e+003;1.504354e-001
2.894750e+003;1.545060e-001
2.896679e+003;1.592475e-001
2.898608e+003;1.645842e-001
2.900536e+003;1.698425e-001
2.902465e+003;1.745881e-001
2.904393e+003;1.795746e-001
2.906322e+003;1.849814e-001
2.908250e+003;1.898312e-001
2.910179e+003;1.934829e-001
2.912107e+003;1.965318e-001
2.914036e+003;1.992792e-001
2.915965e+003;2.007391e-001
2.917893e+003;1.999221e-001
2.919822e+003;1.975152e-001
2.921750e+003;1.937192e-001
2.923679e+003;1.884379e-001
2.925607e+003;1.825871e-001
2.927536e+003;1.749365e-001
2.929464e+003;1.656766e-001
2.931393e+003;1.565710e-001
2.933322e+003;1.479613e-001
2.935250e+003;1.400314e-001
2.937178e+003;1.345317e-001
2.939107e+003;1.321830e-001
2.941036e+003;1.325406e-001
2.942964e+003;1.364205e-001
2.944893e+003;1.437153e-001
2.946821e+003;1.524083e-001
2.948750e+003;1.600748e-001
2.950678e+003;1.650050e-001
2.952607e+003;1.664650e-001
2.954535e+003;1.649651e-001
2.956464e+003;1.614500e-001
2.958393e+003;1.561858e-001
2.960321e+003;1.502565e-001
2.962250e+003;1.445079e-001
2.964178e+003;1.382496e-001
2.966107e+003;1.309751e-001
2.968035e+003;1.237054e-001
2.969964e+003;1.165377e-001
2.971892e+003;1.094778e-001
2.973821e+003;1.030256e-001
2.975750e+003;9.707692e-002
2.977678e+003;9.232617e-002
2.979607e+003;8.834437e-002
2.981535e+003;8.429814e-002
2.983464e+003;8.029944e-002
2.985392e+003;7.666128e-002
2.987321e+003;7.329369e-002
2.989249e+003;6.979009e-002
2.991178e+003;6.686094e-002
2.993106e+003;6.443486e-002
2.995035e+003;6.155226e-002
2.996964e+003;5.851078e-002
2.998892e+003;5.574729e-002
3.000821e+003;5.302199e-002
3.002749e+003;5.059853e-002
3.004678e+003;4.884757e-002
3.006606e+003;4.705283e-002
3.008535e+003;4.483782e-002
3.010463e+003;4.268570e-002
3.012392e+003;4.124883e-002
3.014321e+003;3.987077e-002
3.016249e+003;3.802080e-002
3.018177e+003;3.636696e-002
3.020106e+003;3.547891e-002
3.022035e+003;3.439863e-002
3.023963e+003;3.327078e-002
3.025892e+003;3.261039e-002
3.027820e+003;3.160495e-002
3.029749e+003;3.033158e-002
3.031677e+003;2.934448e-002
3.033606e+003;2.878664e-002
3.035534e+003;2.809613e-002
3.037463e+003;2.764118e-002
3.039392e+003;2.742725e-002
3.041320e+003;2.717903e-002
3.043249e+003;2.686383e-002
3.045177e+003;2.615613e-002
3.047106e+003;2.545439e-002
3.049034e+003;2.511298e-002
3.050963e+003;2.486506e-002
3.052891e+003;2.463836e-002
3.054820e+003;2.411311e-002
3.056749e+003;2.382046e-002
3.058677e+003;2.385193e-002
3.060606e+003;2.374640e-002
3.062534e+003;2.364045e-002
3.064463e+003;2.335861e-002
3.066391e+003;2.309523e-002
3.068320e+003;2.302189e-002
3.070248e+003;2.292725e-002
3.072177e+003;2.308436e-002
3.074105e+003;2.321185e-002
3.076034e+003;2.295418e-002
3.077963e+003;2.266644e-002
3.079891e+003;2.221547e-002
3.081820e+003;2.190726e-002
3.083748e+003;2.190730e-002
3.085677e+003;2.181695e-002
3.087605e+003;2.167012e-002
3.089534e+003;2.151206e-002
3.091462e+003;2.144232e-002
3.093391e+003;2.166075e-002
3.095320e+003;2.170561e-002
3.097248e+003;2.142283e-002
3.099177e+003;2.112270e-002
3.101105e+003;2.096550e-002
3.103034e+003;2.093153e-002
3.104962e+003;2.105373e-002
3.106891e+003;2.108986e-002
3.108819e+003;2.138378e-002
3.110748e+003;2.143526e-002
3.112677e+003;2.142913e-002
3.114605e+003;2.159238e-002
3.116533e+003;2.120741e-002
3.118462e+003;2.084969e-002
3.120391e+003;2.130829e-002
3.122319e+003;2.148646e-002
3.124248e+003;2.150628e-002
3.126176e+003;2.143366e-002
3.128105e+003;2.105894e-002
3.130033e+003;2.129666e-002
3.131962e+003;2.183548e-002
3.133890e+003;2.196083e-002
3.135819e+003;2.196491e-002
3.137748e+003;2.183956e-002
3.139676e+003;2.137149e-002
3.141605e+003;2.120585e-002
3.143533e+003;2.135791e-002
3.145462e+003;2.181353e-002
3.147390e+003;2.247053e-002
3.149319e+003;2.242762e-002
3.151247e+003;2.221986e-002
3.153176e+003;2.215730e-002
3.155104e+003;2.193483e-002
3.157033e+003;2.166831e-002
3.158962e+003;2.125574e-002
3.160890e+003;2.108920e-002
3.162819e+003;2.141869e-002
3.164747e+003;2.158709e-002
3.166676e+003;2.170237e-002
3.168604e+003;2.150064e-002
3.170533e+003;2.099603e-002
3.172461e+003;2.094116e-002
3.174390e+003;2.117728e-002
3.176319e+003;2.105564e-002
3.178247e+003;2.077947e-002
3.180176e+003;2.105933e-002
3.182104e+003;2.146596e-002
3.184033e+003;2.150885e-002
3.185961e+003;2.136338e-002
3.187890e+003;2.157525e-002
3.189818e+003;2.137928e-002
3.191747e+003;2.148521e-002
3.193676e+003;2.153796e-002
3.195604e+003;2.129137e-002
3.197532e+003;2.122484e-002
3.199461e+003;2.127745e-002
3.201390e+003;2.140014e-002
3.203318e+003;2.136870e-002
3.205247e+003;2.129510e-002
3.207175e+003;2.134051e-002
3.209104e+003;2.111153e-002
3.211032e+003;2.055284e-002
3.212961e+003;2.018590e-002
3.214889e+003;2.027133e-002
3.216818e+003;2.035639e-002
3.218747e+003;2.015355e-002
3.220675e+003;1.962031e-002
3.222604e+003;1.929659e-002
3.224532e+003;1.908693e-002
3.226461e+003;1.881288e-002
3.228389e+003;1.891361e-002
3.230318e+003;1.870722e-002
3.232246e+003;1.826114e-002
3.234175e+003;1.794730e-002
3.236104e+003;1.784396e-002
3.238032e+003;1.765129e-002
3.239961e+003;1.750741e-002
3.241889e+003;1.762610e-002
3.243818e+003;1.732869e-002
3.245746e+003;1.678007e-002
3.247675e+003;1.657909e-002
3.249603e+003;1.634862e-002
3.251532e+003;1.611277e-002
3.253460e+003;1.615228e-002
3.255389e+003;1.647666e-002
3.257318e+003;1.668451e-002
3.259246e+003;1.668964e-002
3.261175e+003;1.664746e-002
3.263103e+003;1.662498e-002
3.265032e+003;1.666788e-002
3.266960e+003;1.624400e-002
3.268889e+003;1.607570e-002
3.270817e+003;1.627035e-002
3.272746e+003;1.589962e-002
3.274675e+003;1.564278e-002
3.276603e+003;1.585553e-002
3.278531e+003;1.611294e-002
3.280460e+003;1.637934e-002
3.282389e+003;1.655634e-002
3.284317e+003;1.606277e-002
3.286246e+003;1.532091e-002
3.288174e+003;1.528189e-002
3.290103e+003;1.602787e-002
3.292031e+003;1.638058e-002
3.293960e+003;1.633031e-002
3.295888e+003;1.563887e-002
3.297817e+003;1.548295e-002
3.299746e+003;1.583323e-002
3.301674e+003;1.616940e-002
3.303603e+003;1.610238e-002
3.305531e+003;1.554054e-002
3.307460e+003;1.562489e-002
3.309388e+003;1.607336e-002
3.311317e+003;1.616892e-002
3.313245e+003;1.607422e-002
3.315174e+003;1.590550e-002
3.317103e+003;1.585921e-002
3.319031e+003;1.550689e-002
3.320960e+003;1.485954e-002
3.322888e+003;1.478127e-002
3.324817e+003;1.530506e-002
3.326745e+003;1.574316e-002
3.328674e+003;1.574818e-002
3.330602e+003;1.553175e-002
3.332531e+003;1.549995e-002
3.334459e+003;1.554799e-002
3.336388e+003;1.578288e-002
3.338317e+003;1.602038e-002
3.340245e+003;1.614787e-002
3.342174e+003;1.616067e-002
3.344102e+003;1.643946e-002
3.346031e+003;1.665125e-002
3.347959e+003;1.629041e-002
3.349888e+003;1.558532e-002
3.351816e+003;1.560991e-002
3.353745e+003;1.605321e-002
3.355674e+003;1.624803e-002
3.357602e+003;1.600546e-002
3.359531e+003;1.560923e-002
3.361459e+003;1.558666e-002
3.363388e+003;1.547749e-002
3.365316e+003;1.548814e-002
3.367245e+003;1.575323e-002
3.369173e+003;1.572953e-002
3.371102e+003;1.541229e-002
3.373031e+003;1.534408e-002
3.374959e+003;1.556046e-002
3.376887e+003;1.589017e-002
3.378816e+003;1.616115e-002
3.380745e+003;1.625649e-002
3.382673e+003;1.587268e-002
3.384602e+003;1.526854e-002
3.386530e+003;1.525708e-002
3.388459e+003;1.554710e-002
3.390387e+003;1.571571e-002
3.392316e+003;1.519098e-002
3.394244e+003;1.474778e-002
3.396173e+003;1.503794e-002
3.398102e+003;1.509797e-002
3.400030e+003;1.514583e-002
3.401959e+003;1.532249e-002
3.403887e+003;1.512384e-002
3.405816e+003;1.460654e-002
3.407744e+003;1.441962e-002
3.409673e+003;1.483324e-002
3.411601e+003;1.537453e-002
3.413530e+003;1.544852e-002
3.415458e+003;1.510473e-002
3.417387e+003;1.488742e-002
3.419316e+003;1.470466e-002
3.421244e+003;1.465212e-002
3.423173e+003;1.458704e-002
3.425101e+003;1.454311e-002
3.427030e+003;1.448994e-002
3.428958e+003;1.455254e-002
3.430887e+003;1.475967e-002
3.432815e+003;1.466079e-002
3.434744e+003;1.411874e-002
3.436673e+003;1.381548e-002
3.438601e+003;1.399170e-002
3.440530e+003;1.387103e-002
3.442458e+003;1.367700e-002
3.444387e+003;1.368199e-002
3.446315e+003;1.352941e-002
3.448244e+003;1.355901e-002
3.450172e+003;1.380015e-002
3.452101e+003;1.379817e-002
3.454030e+003;1.395759e-002
3.455958e+003;1.376862e-002
3.457886e+003;1.357354e-002
3.459815e+003;1.360072e-002
3.461744e+003;1.320500e-002
3.463672e+003;1.302872e-002
3.465601e+003;1.291303e-002
3.467529e+003;1.294996e-002
3.469458e+003;1.293122e-002
3.471386e+003;1.266017e-002
3.473315e+003;1.263223e-002
3.475243e+003;1.280869e-002
3.477172e+003;1.260023e-002
3.479101e+003;1.240636e-002
3.481029e+003;1.239668e-002
3.482958e+003;1.266464e-002
3.484886e+003;1.291224e-002
3.486815e+003;1.285476e-002
3.488743e+003;1.244015e-002
3.490672e+003;1.204815e-002
3.492600e+003;1.209700e-002
3.494529e+003;1.221204e-002
3.496458e+003;1.202669e-002
3.498386e+003;1.200114e-002
3.500315e+003;1.219118e-002
3.502243e+003;1.215956e-002
3.504172e+003;1.216487e-002
3.506100e+003;1.206147e-002
3.508029e+003;1.148928e-002
3.509957e+003;1.129798e-002
3.511886e+003;1.161984e-002
3.513814e+003;1.178966e-002
3.515743e+003;1.179072e-002
3.517672e+003;1.190819e-002
3.519600e+003;1.209056e-002
3.521529e+003;1.200747e-002
3.523457e+003;1.192876e-002
3.525386e+003;1.195444e-002
3.527314e+003;1.167841e-002
3.529243e+003;1.116687e-002
3.531171e+003;1.142501e-002
3.533100e+003;1.188926e-002
3.535029e+003;1.170037e-002
3.536957e+003;1.139198e-002
3.538885e+003;1.126105e-002
3.540814e+003;1.112413e-002
3.542743e+003;1.055134e-002
3.544671e+003;1.017020e-002
3.546600e+003;1.045093e-002
3.548528e+003;1.108786e-002
3.550457e+003;1.137620e-002
3.552385e+003;1.106519e-002
3.554314e+003;1.104300e-002
3.556242e+003;1.143658e-002
3.558171e+003;1.093072e-002
3.560100e+003;1.054863e-002
3.562028e+003;1.040946e-002
3.563957e+003;9.784843e-003
3.565885e+003;9.182341e-003
3.567814e+003;9.659573e-003
3.569742e+003;1.031373e-002
3.571671e+003;1.031492e-002
3.573599e+003;1.052283e-002
3.575528e+003;1.121984e-002
3.577457e+003;1.151020e-002
3.579385e+003;1.102281e-002
3.581314e+003;1.047734e-002
3.583242e+003;1.051003e-002
3.585171e+003;9.892928e-003
3.587099e+003;8.670139e-003
3.589028e+003;8.918115e-003
3.590956e+003;9.887911e-003
3.592885e+003;1.015232e-002
3.594813e+003;1.026532e-002
3.596742e+003;1.030573e-002
3.598671e+003;1.032676e-002
3.600599e+003;1.067853e-002
3.602528e+003;1.112682e-002
3.604456e+003;1.103946e-002
3.606385e+003;9.912929e-003
3.608313e+003;8.896943e-003
3.610242e+003;9.282932e-003
3.612170e+003;1.012872e-002
3.614099e+003;1.111431e-002
3.616028e+003;1.130162e-002
3.617956e+003;1.052191e-002
3.619885e+003;1.070275e-002
3.621813e+003;1.156900e-002
3.623742e+003;1.143478e-002
3.625670e+003;1.038801e-002
3.627599e+003;8.018045e-003
3.629527e+003;8.207466e-003
3.631456e+003;1.017776e-002
3.633385e+003;1.078599e-002
3.635313e+003;1.141804e-002
3.637241e+003;1.174081e-002
3.639170e+003;1.171899e-002
3.641099e+003;1.199068e-002
3.643027e+003;1.243923e-002
3.644956e+003;1.200478e-002
3.646884e+003;9.806566e-003
3.648813e+003;7.532127e-003
3.650741e+003;8.523868e-003
3.652670e+003;1.055603e-002
3.654598e+003;1.000169e-002
3.656527e+003;9.867134e-003
3.658456e+003;1.151296e-002
3.660384e+003;1.195938e-002
3.662313e+003;1.195952e-002
3.664241e+003;1.236521e-002
3.666170e+003;1.207639e-002
3.668098e+003;9.840391e-003
3.670027e+003;8.077654e-003
3.671955e+003;9.313432e-003
3.673884e+003;8.282061e-003
3.675813e+003;7.441042e-003
3.677741e+003;1.034302e-002
3.679669e+003;1.216750e-002
3.681598e+003;1.275300e-002
3.683527e+003;1.281842e-002
3.685455e+003;1.185466e-002
3.687384e+003;9.710937e-003
3.689312e+003;1.034251e-002
3.691241e+003;1.287927e-002
3.693169e+003;1.459468e-002
3.695098e+003;1.509135e-002
3.697026e+003;1.500254e-002
3.698955e+003;1.433338e-002
3.700884e+003;1.338519e-002
3.702812e+003;1.331330e-002
3.704741e+003;1.316918e-002
3.706669e+003;1.213645e-002
3.708598e+003;1.092848e-002
3.710526e+003;9.331881e-003
3.712455e+003;9.595953e-003
3.714383e+003;1.178282e-002
3.716312e+003;1.277760e-002
3.718240e+003;1.257196e-002
3.720169e+003;1.164547e-002
3.722098e+003;1.087663e-002
3.724026e+003;1.061680e-002
3.725955e+003;1.106968e-002
3.727883e+003;1.176825e-002
3.729812e+003;1.100765e-002
3.731740e+003;9.458716e-003
3.733669e+003;9.256360e-003
3.735597e+003;9.074703e-003
3.737526e+003;1.021938e-002
3.739455e+003;1.132444e-002
3.741383e+003;1.005550e-002
3.743312e+003;6.305166e-003
3.745240e+003;7.314896e-003
3.747169e+003;9.476223e-003
3.749097e+003;7.679885e-003
3.751026e+003;7.398843e-003
3.752954e+003;9.787520e-003
3.754883e+003;1.183617e-002
3.756812e+003;1.183648e-002
3.758740e+003;1.226629e-002
3.760668e+003;1.269841e-002
3.762597e+003;1.299301e-002
3.764526e+003;1.258294e-002
3.766454e+003;1.251275e-002
3.768383e+003;1.162471e-002
3.770311e+003;1.171609e-002
3.772240e+003;1.262895e-002
3.774168e+003;1.262199e-002
3.776097e+003;1.276491e-002
3.778025e+003;1.289620e-002
3.779954e+003;1.283063e-002
3.781883e+003;1.263151e-002
3.783811e+003;1.213642e-002
3.785740e+003;1.229711e-002
3.787668e+003;1.319425e-002
3.789597e+003;1.365676e-002
3.791525e+003;1.321211e-002
3.793454e+003;1.279900e-002
3.795382e+003;1.218389e-002
3.797311e+003;1.182344e-002
3.799240e+003;1.008934e-002
3.801168e+003;8.725511e-003
3.803097e+003;1.081123e-002
3.805025e+003;1.082557e-002
3.806954e+003;1.010508e-002
3.808882e+003;1.193200e-002
3.810811e+003;1.295604e-002
3.812739e+003;1.257455e-002
3.814668e+003;1.018485e-002
3.816596e+003;1.000297e-002
3.818525e+003;1.096021e-002
3.820454e+003;9.948795e-003
3.822382e+003;1.095148e-002
3.824311e+003;1.227331e-002
3.826239e+003;1.228783e-002
3.828168e+003;1.222747e-002
3.830096e+003;1.188667e-002
3.832025e+003;1.176498e-002
3.833953e+003;1.154865e-002
3.835882e+003;9.972018e-003
3.837811e+003;9.113038e-003
3.839739e+003;1.068927e-002
3.841667e+003;1.162032e-002
3.843596e+003;1.200577e-002
3.845525e+003;1.266638e-002
3.847453e+003;1.291443e-002
3.849382e+003;1.141631e-002
3.851310e+003;7.516787e-003
3.853239e+003;5.154883e-003
3.855167e+003;9.133341e-003
3.857096e+003;1.248001e-002
3.859024e+003;1.277102e-002
3.860953e+003;1.246985e-002
3.862882e+003;1.231831e-002
3.864810e+003;1.227014e-002
3.866739e+003;1.249962e-002
3.868667e+003;1.109177e-002
3.870596e+003;1.113256e-002
3.872524e+003;1.236453e-002
3.874453e+003;1.284272e-002
3.876381e+003;1.353327e-002
3.878310e+003;1.335457e-002
3.880239e+003;1.303091e-002
3.882167e+003;1.300940e-002
3.884096e+003;1.186501e-002
3.886024e+003;1.175071e-002
3.887953e+003;1.360363e-002
3.889881e+003;1.339226e-002
3.891810e+003;1.307130e-002
3.893738e+003;1.403742e-002
3.895667e+003;1.449511e-002
3.897595e+003;1.368309e-002
3.899524e+003;1.249764e-002
3.901453e+003;1.168400e-002
3.903381e+003;1.133658e-002
3.905310e+003;1.264540e-002
3.907238e+003;1.404848e-002
3.909167e+003;1.434475e-002
3.911095e+003;1.441328e-002
3.913024e+003;1.464550e-002
3.914952e+003;1.452705e-002
3.916881e+003;1.436406e-002
3.918810e+003;1.464269e-002
3.920738e+003;1.477242e-002
3.922667e+003;1.455983e-002
3.924595e+003;1.466137e-002
3.926524e+003;1.538596e-002
3.928452e+003;1.542489e-002
3.930381e+003;1.523875e-002
3.932309e+003;1.497085e-002
3.934238e+003;1.520763e-002
3.936167e+003;1.541645e-002
3.938095e+003;1.550538e-002
3.940023e+003;1.534741e-002
3.941952e+003;1.503207e-002
3.943881e+003;1.483859e-002
3.945809e+003;1.454222e-002
3.947738e+003;1.451951e-002
3.949666e+003;1.482968e-002
3.951595e+003;1.491756e-002
3.953523e+003;1.497119e-002
3.955452e+003;1.517197e-002
3.957380e+003;1.515976e-002
3.959309e+003;1.506315e-002
3.961238e+003;1.514202e-002
3.963166e+003;1.540340e-002
3.965095e+003;1.536413e-002
3.967023e+003;1.512113e-002
3.968952e+003;1.511900e-002
3.970880e+003;1.520677e-002
3.972809e+003;1.527702e-002
3.974737e+003;1.552615e-002
3.976666e+003;1.575821e-002
3.978594e+003;1.583106e-002
3.980523e+003;1.590828e-002
3.982452e+003;1.573159e-002
3.984380e+003;1.558110e-002
3.986309e+003;1.579876e-002
3.988237e+003;1.624751e-002
3.990166e+003;1.698589e-002
3.992094e+003;1.702851e-002
3.994023e+003;1.679963e-002
3.995951e+003;1.650595e-002
3.997880e+003;1.630121e-002
3.999809e+003;1.653413e-002
4.001737e+003;0.000000e+000
