3.992094e+002;0.000000e+000
4.011380e+002;0.000000e+000
4.030665e+002;0.000000e+000
4.049951e+002;0.000000e+000
4.069236e+002;0.000000e+000
4.088522e+002;0.000000e+000
4.107807e+002;0.000000e+000
4.127093e+002;0.000000e+000
4.146378e+002;0.000000e+000
4.165664e+002;0.000000e+000
4.184949e+002;0.000000e+000
4.204235e+002;0.000000e+000
4.223520e+002;0.000000e+000
4.242806e+002;0.000000e+000
4.262091e+002;0.000000e+000
4.281377e+002;0.000000e+000
4.300662e+002;0.000000e+000
4.319948e+002;0.000000e+000
4.339233e+002;0.000000e+000
4.358519e+002;0.000000e+000
4.377804e+002;0.000000e+000
4.397090e+002;0.000000e+000
4.416375e+002;0.000000e+000
4.435660e+002;0.000000e+000
4.454946e+002;0.000000e+000
4.474232e+002;0.000000e+000
4.493517e+002;0.000000e+000
4.512802e+002;0.000000e+000
4.532088e+002;0.000000e+000
4.551373e+002;0.000000e+000
4.570659e+002;0.000000e+000
4.589944e+002;0.000000e+000
4.609230e+002;0.000000e+000
4.628515e+002;0.000000e+000
4.647801e+002;0.000000e+000
4.667086e+002;0.000000e+000
4.686372e+002;0.000000e+000
4.705657e+002;0.000000e+000
4.724943e+002;0.000000e+000
4.744228e+002;0.000000e+000
4.763513e+002;0.000000e+000
4.782799e+002;0.000000e+000
4.802085e+002;0.000000e+000
4.821370e+002;0.000000e+000
4.840656e+002;0.000000e+000
4.859941e+002;0.000000e+000
4.879226e+002;0.000000e+000
4.898512e+002;0.000000e+000
4.917798e+002;0.000000e+000
4.937083e+002;0.000000e+000
4.956368e+002;0.000000e+000
4.975654e+002;0.000000e+000
4.994939e+002;0.000000e+000
5.014225e+002;0.000000e+000
5.033510e+002;0.000000e+000
5.052796e+002;0.000000e+000
5.072081e+002;0.000000e+000
5.091367e+002;0.000000e+000
5.110652e+002;0.000000e+000
5.129938e+002;0.000000e+000
5.149223e+002;0.000000e+000
5.168509e+002;0.000000e+000
5.187794e+002;0.000000e+000
5.207079e+002;0.000000e+000
5.226365e+002;0.000000e+000
5.245651e+002;0.000000e+000
5.264936e+002;0.000000e+000
5.284222e+002;0.000000e+000
5.303507e+002;0.000000e+000
5.322792e+002;0.000000e+000
5.342078e+002;0.000000e+000
5.361364e+002;0.000000e+000
5.380649e+002;0.000000e+000
5.399935e+002;0.000000e+000
5.419220e+002;0.000000e+000
5.438505e+002;0.000000e+000
5.457791e+002;0.000000e+000
5.477076e+002;0.000000e+000
5.496362e+002;0.000000e+000
5.515648e+002;0.000000e+000
5.534933e+002;0.000000e+000
5.554218e+002;0.000000e+000
5.573504e+002;0.000000e+000
5.592789e+002;0.000000e+000
5.612075e+002;0.000000e+000
5.631360e+002;0.000000e+000
5.650646e+002;0.000000e+000
5.669931e+002;0.000000e+000
5.689217e+002;0.000000e+000
5.708502e+002;0.000000e+000
5.727787e+002;0.000000e+000
5.747073e+002;0.000000e+000
5.766359e+002;0.000000e+000
5.785644e+002;0.000000e+000
5.804930e+002;0.000000e+000
5.824215e+002;0.000000e+000
5.843500e+002;0.000000e+000
5.862786e+002;0.000000e+000
5.882072e+002;0.000000e+000
5.901357e+002;0.000000e+000
5.920643e+002;0.000000e+000
5.939928e+002;0.000000e+000
5.959213e+002;0.000000e+000
5.978499e+002;0.000000e+000
5.997784e+002;4.147548e-002
6.017070e+002;3.643743e-002
6.036355e+002;3.329847e-002
6.055641e+002;3.299206e-002
6.074926e+002;3.366803e-002
6.094211e+002;3.593764e-002
6.113497e+002;3.174232e-002
6.132783e+002;2.936997e-002
6.152068e+002;3.665921e-002
6.171354e+002;4.092886e-002
6.190639e+002;4.131642e-002
6.209924e+002;4.108217e-002
6.229210e+002;3.931493e-002
6.248495e+002;3.916971e-002
6.267781e+002;4.071181e-002
6.287067e+002;3.894067e-002
6.306352e+002;3.600153e-002
6.325637e+002;3.435707e-002
6.344923e+002;3.327142e-002
6.364208e+002;3.171223e-002
6.383494e+002;3.431777e-002
6.402780e+002;3.762201e-002
6.422065e+002;3.874319e-002
6.441350e+002;3.507073e-002
6.460636e+002;3.193606e-002
6.479921e+002;3.237454e-002
6.499207e+002;3.398169e-002
6.518492e+002;3.145364e-002
6.537778e+002;3.220172e-002
6.557063e+002;3.418145e-002
6.576349e+002;3.356449e-002
6.595634e+002;3.371701e-002
6.614919e+002;3.408267e-002
6.634205e+002;3.436001e-002
6.653491e+002;3.369166e-002
6.672776e+002;3.149461e-002
6.692062e+002;3.186246e-002
6.711347e+002;3.248129e-002
6.730632e+002;3.234023e-002
6.749918e+002;3.116935e-002
6.769203e+002;3.057735e-002
6.788489e+002;3.156622e-002
6.807775e+002;3.289351e-002
6.827060e+002;3.283511e-002
6.846345e+002;3.157107e-002
6.865631e+002;3.175664e-002
6.884916e+002;3.172196e-002
6.904202e+002;3.013912e-002
6.923488e+002;3.013958e-002
6.942773e+002;3.001906e-002
6.962058e+002;3.075311e-002
6.981344e+002;3.158632e-002
7.000629e+002;3.104474e-002
7.019915e+002;3.088085e-002
7.039200e+002;3.137891e-002
7.058486e+002;3.099278e-002
7.077771e+002;3.024717e-002
7.097057e+002;2.970839e-002
7.116342e+002;3.036768e-002
7.135627e+002;3.131754e-002
7.154913e+002;3.048432e-002
7.174199e+002;3.016089e-002
7.193484e+002;3.083392e-002
7.212770e+002;3.205697e-002
7.232055e+002;3.233770e-002
7.251340e+002;3.079451e-002
7.270626e+002;2.979657e-002
7.289911e+002;3.030572e-002
7.309197e+002;3.081127e-002
7.328483e+002;3.021239e-002
7.347768e+002;2.930680e-002
7.367053e+002;2.896314e-002
7.386339e+002;2.891713e-002
7.405624e+002;2.892499e-002
7.424910e+002;2.833600e-002
7.444196e+002;2.817775e-002
7.463481e+002;2.836578e-002
7.482766e+002;2.722369e-002
7.502052e+002;2.649194e-002
7.521337e+002;2.776769e-002
7.540623e+002;2.854797e-002
7.559908e+002;2.760496e-002
7.579194e+002;2.699747e-002
7.598479e+002;2.692848e-002
7.617765e+002;2.735575e-002
7.637050e+002;2.733069e-002
7.656335e+002;2.723106e-002
7.675621e+002;2.730914e-002
7.694907e+002;2.782566e-002
7.714192e+002;2.749830e-002
7.733478e+002;2.668026e-002
7.752763e+002;2.669950e-002
7.772048e+002;2.692365e-002
7.791334e+002;2.694843e-002
7.810620e+002;2.714767e-002
7.829905e+002;2.717874e-002
7.849191e+002;2.757163e-002
7.868476e+002;2.876990e-002
7.887761e+002;2.998110e-002
7.907047e+002;3.066613e-002
7.926332e+002;3.168422e-002
7.945618e+002;3.295170e-002
7.964903e+002;3.474519e-002
7.984189e+002;3.628864e-002
8.003474e+002;3.805411e-002
8.022759e+002;4.006324e-002
8.042045e+002;4.239419e-002
8.061331e+002;4.485112e-002
8.080616e+002;4.686983e-002
8.099902e+002;4.695499e-002
8.119187e+002;4.554872e-002
8.138472e+002;4.238034e-002
8.157758e+002;3.868487e-002
8.177043e+002;3.665593e-002
8.196329e+002;3.530676e-002
8.215615e+002;3.360359e-002
8.234900e+002;3.323597e-002
8.254185e+002;3.379089e-002
8.273471e+002;3.369531e-002
8.292756e+002;3.328741e-002
8.312042e+002;3.420924e-002
8.331328e+002;3.610706e-002
8.350613e+002;3.814161e-002
8.369898e+002;4.107809e-002
8.389184e+002;4.676313e-002
8.408469e+002;5.169558e-002
8.427755e+002;5.066763e-002
8.447040e+002;4.557743e-002
8.466326e+002;4.082762e-002
8.485611e+002;3.655860e-002
8.504897e+002;3.370047e-002
8.524182e+002;3.296342e-002
8.543467e+002;3.241024e-002
8.562753e+002;3.142069e-002
8.582039e+002;3.050081e-002
8.601324e+002;2.995533e-002
8.620610e+002;2.963928e-002
8.639895e+002;2.988838e-002
8.659180e+002;3.043652e-002
8.678466e+002;3.032362e-002
8.697751e+002;3.062961e-002
8.717037e+002;3.134618e-002
8.736323e+002;3.128257e-002
8.755608e+002;3.079579e-002
8.774893e+002;3.005055e-002
8.794179e+002;2.929705e-002
8.813464e+002;2.870791e-002
8.832750e+002;2.837363e-002
8.852036e+002;2.862169e-002
8.871321e+002;2.923637e-002
8.890606e+002;2.965418e-002
8.909892e+002;3.055947e-002
8.929177e+002;3.342545e-002
8.948463e+002;3.761995e-002
8.967748e+002;4.234100e-002
8.987034e+002;4.519366e-002
9.006319e+002;4.451406e-002
9.025605e+002;4.063187e-002
9.044890e+002;3.567005e-002
9.064175e+002;3.194658e-002
9.083461e+002;2.945103e-002
9.102747e+002;2.765160e-002
9.122032e+002;2.664552e-002
9.141318e+002;2.639387e-002
9.160603e+002;2.655393e-002
9.179888e+002;2.651748e-002
9.199174e+002;2.609884e-002
9.218459e+002;2.605278e-002
9.237745e+002;2.593441e-002
9.257031e+002;2.566714e-002
9.276316e+002;2.598914e-002
9.295601e+002;2.678079e-002
9.314887e+002;2.739990e-002
9.334172e+002;2.816623e-002
9.353458e+002;2.939419e-002
9.372744e+002;3.076830e-002
9.392029e+002;3.195318e-002
9.411314e+002;3.259810e-002
9.430600e+002;3.293997e-002
9.449885e+002;3.301823e-002
9.469171e+002;3.279323e-002
9.488456e+002;3.285030e-002
9.507742e+002;3.355232e-002
9.527027e+002;3.423892e-002
9.546313e+002;3.472197e-002
9.565598e+002;3.566847e-002
9.584883e+002;3.697330e-002
9.604169e+002;3.880728e-002
9.623455e+002;4.140761e-002
9.642740e+002;4.461715e-002
9.662026e+002;4.906449e-002
9.681311e+002;5.546552e-002
9.700596e+002;6.355793e-002
9.719882e+002;7.034211e-002
9.739167e+002;7.234047e-002
9.758453e+002;6.833797e-002
9.777739e+002;6.073298e-002
9.797024e+002;5.244465e-002
9.816309e+002;4.607400e-002
9.835595e+002;4.209524e-002
9.854880e+002;4.019970e-002
9.874166e+002;4.018814e-002
9.893452e+002;4.147172e-002
9.912737e+002;4.488635e-002
9.932022e+002;5.044335e-002
9.951307e+002;5.667000e-002
9.970593e+002;6.124442e-002
9.989879e+002;6.142224e-002
1.000916e+003;5.698414e-002
1.002845e+003;5.120838e-002
1.004773e+003;4.689304e-002
1.006702e+003;4.413677e-002
1.008631e+003;4.270580e-002
1.010559e+003;4.170582e-002
1.012488e+003;4.063969e-002
1.014416e+003;4.040638e-002
1.016345e+003;4.047214e-002
1.018273e+003;3.997564e-002
1.020202e+003;3.937931e-002
1.022130e+003;3.905358e-002
1.024059e+003;3.905692e-002
1.025988e+003;3.945768e-002
1.027916e+003;3.986689e-002
1.029845e+003;4.050989e-002
1.031773e+003;4.177217e-002
1.033702e+003;4.314695e-002
1.035630e+003;4.413603e-002
1.037559e+003;4.449174e-002
1.039487e+003;4.505003e-002
1.041416e+003;4.558166e-002
1.043344e+003;4.570080e-002
1.045273e+003;4.555711e-002
1.047202e+003;4.464616e-002
1.049130e+003;4.328406e-002
1.051059e+003;4.239529e-002
1.052987e+003;4.224615e-002
1.054916e+003;4.182872e-002
1.056844e+003;4.161632e-002
1.058773e+003;4.174015e-002
1.060701e+003;4.146946e-002
1.062630e+003;4.094965e-002
1.064558e+003;4.127575e-002
1.066487e+003;4.142886e-002
1.068416e+003;4.100285e-002
1.070344e+003;4.089719e-002
1.072273e+003;4.094470e-002
1.074201e+003;4.100824e-002
1.076130e+003;4.103617e-002
1.078058e+003;4.184740e-002
1.079987e+003;4.300964e-002
1.081915e+003;4.296640e-002
1.083844e+003;4.245403e-002
1.085773e+003;4.305478e-002
1.087701e+003;4.394692e-002
1.089630e+003;4.512774e-002
1.091558e+003;4.556845e-002
1.093487e+003;4.588504e-002
1.095415e+003;4.741034e-002
1.097344e+003;4.936594e-002
1.099272e+003;5.066539e-002
1.101201e+003;5.128787e-002
1.103129e+003;5.122367e-002
1.105058e+003;4.996350e-002
1.106987e+003;4.856853e-002
1.108915e+003;4.700032e-002
1.110844e+003;4.481163e-002
1.112772e+003;4.315285e-002
1.114701e+003;4.243657e-002
1.116629e+003;4.207265e-002
1.118558e+003;4.163995e-002
1.120486e+003;4.142922e-002
1.122415e+003;4.128111e-002
1.124344e+003;4.102812e-002
1.126272e+003;4.081415e-002
1.128201e+003;4.064468e-002
1.130129e+003;4.113615e-002
1.132058e+003;4.201782e-002
1.133986e+003;4.260305e-002
1.135915e+003;4.350735e-002
1.137843e+003;4.540575e-002
1.139772e+003;4.805348e-002
1.141700e+003;5.097414e-002
1.143629e+003;5.435828e-002
1.145557e+003;5.751822e-002
1.147486e+003;6.006152e-002
1.149415e+003;6.287305e-002
1.151343e+003;6.566124e-002
1.153272e+003;6.725904e-002
1.155200e+003;6.755950e-002
1.157129e+003;6.746691e-002
1.159057e+003;6.781851e-002
1.160986e+003;6.844843e-002
1.162914e+003;6.964517e-002
1.164843e+003;7.036034e-002
1.166771e+003;6.996176e-002
1.168700e+003;6.843811e-002
1.170629e+003;6.514065e-002
1.172557e+003;6.077307e-002
1.174486e+003;5.592921e-002
1.176414e+003;5.161799e-002
1.178343e+003;4.905151e-002
1.180271e+003;4.786247e-002
1.182200e+003;4.658689e-002
1.184128e+003;4.530280e-002
1.186057e+003;4.460438e-002
1.187986e+003;4.381580e-002
1.189914e+003;4.307439e-002
1.191843e+003;4.284976e-002
1.193771e+003;4.330551e-002
1.195700e+003;4.363178e-002
1.197628e+003;4.358873e-002
1.199557e+003;4.304830e-002
1.201485e+003;4.237990e-002
1.203414e+003;4.203844e-002
1.205343e+003;4.176119e-002
1.207271e+003;4.174890e-002
1.209200e+003;4.243328e-002
1.211128e+003;4.346889e-002
1.213057e+003;4.456483e-002
1.214985e+003;4.547322e-002
1.216914e+003;4.536661e-002
1.218842e+003;4.483657e-002
1.220771e+003;4.432805e-002
1.222699e+003;4.371942e-002
1.224628e+003;4.310498e-002
1.226557e+003;4.253234e-002
1.228485e+003;4.234210e-002
1.230414e+003;4.236263e-002
1.232342e+003;4.199589e-002
1.234271e+003;4.232172e-002
1.236199e+003;4.304512e-002
1.238128e+003;4.281889e-002
1.240056e+003;4.272372e-002
1.241985e+003;4.313872e-002
1.243913e+003;4.355192e-002
1.245842e+003;4.403709e-002
1.247771e+003;4.430277e-002
1.249699e+003;4.497450e-002
1.251628e+003;4.714899e-002
1.253556e+003;4.977218e-002
1.255485e+003;5.143324e-002
1.257413e+003;5.135380e-002
1.259342e+003;4.969913e-002
1.261270e+003;4.758529e-002
1.263199e+003;4.574044e-002
1.265127e+003;4.475810e-002
1.267056e+003;4.409111e-002
1.268985e+003;4.318922e-002
1.270913e+003;4.229348e-002
1.272842e+003;4.154197e-002
1.274770e+003;4.139419e-002
1.276699e+003;4.171337e-002
1.278627e+003;4.160458e-002
1.280556e+003;4.133001e-002
1.282484e+003;4.123961e-002
1.284413e+003;4.165163e-002
1.286342e+003;4.227822e-002
1.288270e+003;4.313407e-002
1.290199e+003;4.400555e-002
1.292127e+003;4.480461e-002
1.294056e+003;4.573908e-002
1.295984e+003;4.608881e-002
1.297913e+003;4.572329e-002
1.299841e+003;4.564503e-002
1.301770e+003;4.641787e-002
1.303698e+003;4.702857e-002
1.305627e+003;4.593656e-002
1.307556e+003;4.337313e-002
1.309484e+003;4.127754e-002
1.311413e+003;4.043228e-002
1.313341e+003;4.027073e-002
1.315270e+003;4.086158e-002
1.317198e+003;4.166092e-002
1.319127e+003;4.273575e-002
1.321055e+003;4.440137e-002
1.322984e+003;4.598658e-002
1.324912e+003;4.732350e-002
1.326841e+003;4.869405e-002
1.328770e+003;4.963895e-002
1.330698e+003;4.980227e-002
1.332627e+003;4.930810e-002
1.334555e+003;4.835159e-002
1.336484e+003;4.712787e-002
1.338412e+003;4.652902e-002
1.340341e+003;4.732398e-002
1.342269e+003;4.912426e-002
1.344198e+003;5.087757e-002
1.346126e+003;5.297351e-002
1.348055e+003;5.585494e-002
1.349984e+003;5.958682e-002
1.351912e+003;6.409870e-002
1.353841e+003;6.975215e-002
1.355769e+003;7.608262e-002
1.357698e+003;8.111580e-002
1.359626e+003;8.274663e-002
1.361555e+003;8.160733e-002
1.363483e+003;8.094773e-002
1.365412e+003;8.304820e-002
1.367341e+003;8.992484e-002
1.369269e+003;1.041555e-001
1.371198e+003;1.254382e-001
1.373126e+003;1.505597e-001
1.375055e+003;1.707965e-001
1.376983e+003;1.720193e-001
1.378912e+003;1.518518e-001
1.380840e+003;1.242017e-001
1.382769e+003;9.944211e-002
1.384698e+003;8.080452e-002
1.386626e+003;6.788227e-002
1.388555e+003;6.023848e-002
1.390483e+003;5.591120e-002
1.392412e+003;5.245347e-002
1.394340e+003;4.952734e-002
1.396269e+003;4.830463e-002
1.398197e+003;4.804730e-002
1.400126e+003;4.833433e-002
1.402054e+003;4.894083e-002
1.403983e+003;4.902721e-002
1.405911e+003;4.942694e-002
1.407840e+003;5.009036e-002
1.409769e+003;5.056990e-002
1.411697e+003;5.131763e-002
1.413626e+003;5.193551e-002
1.415554e+003;5.197450e-002
1.417483e+003;5.109286e-002
1.419411e+003;5.096978e-002
1.421340e+003;5.318007e-002
1.423268e+003;5.501906e-002
1.425197e+003;5.703624e-002
1.427125e+003;6.028854e-002
1.429054e+003;6.470002e-002
1.430983e+003;7.220714e-002
1.432911e+003;8.142300e-002
1.434840e+003;8.703654e-002
1.436768e+003;8.863287e-002
1.438697e+003;9.120122e-002
1.440625e+003;9.453188e-002
1.442554e+003;9.907582e-002
1.444482e+003;1.058936e-001
1.446411e+003;1.148200e-001
1.448340e+003;1.246510e-001
1.450268e+003;1.330041e-001
1.452197e+003;1.381103e-001
1.454125e+003;1.396184e-001
1.456054e+003;1.373288e-001
1.457982e+003;1.367040e-001
1.459911e+003;1.369152e-001
1.461839e+003;1.329060e-001
1.463768e+003;1.248893e-001
1.465697e+003;1.157455e-001
1.467625e+003;1.064035e-001
1.469554e+003;9.548259e-002
1.471482e+003;8.368978e-002
1.473411e+003;7.450368e-002
1.475339e+003;6.809923e-002
1.477268e+003;6.246314e-002
1.479196e+003;5.783475e-002
1.481125e+003;5.330772e-002
1.483053e+003;4.950432e-002
1.484982e+003;4.629242e-002
1.486911e+003;4.307717e-002
1.488839e+003;4.010354e-002
1.490768e+003;3.887522e-002
1.492696e+003;3.880823e-002
1.494625e+003;3.709869e-002
1.496553e+003;3.492201e-002
1.498482e+003;3.470399e-002
1.500410e+003;3.501032e-002
1.502339e+003;3.445925e-002
1.504267e+003;3.099346e-002
1.506196e+003;2.722478e-002
1.508125e+003;2.872508e-002
1.510053e+003;3.106090e-002
1.511982e+003;3.107805e-002
1.513910e+003;3.084477e-002
1.515839e+003;2.993147e-002
1.517767e+003;2.910335e-002
1.519696e+003;2.757752e-002
1.521624e+003;2.639109e-002
1.523553e+003;2.792716e-002
1.525481e+003;2.899423e-002
1.527410e+003;2.984430e-002
1.529339e+003;3.074639e-002
1.531267e+003;3.076894e-002
1.533196e+003;3.040023e-002
1.535124e+003;3.207363e-002
1.537053e+003;3.154281e-002
1.538981e+003;2.843005e-002
1.540910e+003;2.908829e-002
1.542838e+003;3.204556e-002
1.544767e+003;3.378527e-002
1.546695e+003;3.506290e-002
1.548624e+003;3.529928e-002
1.550553e+003;3.509846e-002
1.552481e+003;3.400444e-002
1.554410e+003;3.210831e-002
1.556338e+003;2.955096e-002
1.558267e+003;2.528202e-002
1.560195e+003;2.622806e-002
1.562124e+003;3.011028e-002
1.564052e+003;3.089063e-002
1.565981e+003;3.076435e-002
1.567910e+003;2.999928e-002
1.569838e+003;2.956174e-002
1.571767e+003;3.089266e-002
1.573695e+003;3.028774e-002
1.575624e+003;2.780015e-002
1.577552e+003;2.925108e-002
1.579481e+003;3.183486e-002
1.581409e+003;3.216907e-002
1.583338e+003;3.175205e-002
1.585266e+003;3.097335e-002
1.587195e+003;3.069468e-002
1.589124e+003;3.078430e-002
1.591052e+003;3.105940e-002
1.592981e+003;3.106805e-002
1.594909e+003;3.069209e-002
1.596838e+003;3.066542e-002
1.598766e+003;3.113308e-002
1.600695e+003;3.156120e-002
1.602623e+003;3.216615e-002
1.604552e+003;3.284558e-002
1.606480e+003;3.299331e-002
1.608409e+003;3.312331e-002
1.610338e+003;3.388198e-002
1.612266e+003;3.452092e-002
1.614195e+003;3.402132e-002
1.616123e+003;3.262357e-002
1.618052e+003;3.440861e-002
1.619980e+003;3.680853e-002
1.621909e+003;3.658127e-002
1.623837e+003;3.670529e-002
1.625766e+003;3.789757e-002
1.627694e+003;3.857880e-002
1.629623e+003;3.922603e-002
1.631552e+003;3.949437e-002
1.633480e+003;3.770107e-002
1.635409e+003;3.563045e-002
1.637337e+003;3.765818e-002
1.639266e+003;4.005757e-002
1.641194e+003;4.076145e-002
1.643123e+003;4.056380e-002
1.645051e+003;3.922447e-002
1.646980e+003;3.911452e-002
1.648909e+003;4.059487e-002
1.650837e+003;3.803046e-002
1.652766e+003;3.402719e-002
1.654694e+003;3.738111e-002
1.656623e+003;4.142506e-002
1.658551e+003;4.187429e-002
1.660480e+003;4.101945e-002
1.662408e+003;3.992515e-002
1.664337e+003;4.009042e-002
1.666266e+003;4.011836e-002
1.668194e+003;3.839951e-002
1.670123e+003;3.760542e-002
1.672051e+003;3.806695e-002
1.673980e+003;3.712139e-002
1.675908e+003;3.689740e-002
1.677837e+003;3.786796e-002
1.679765e+003;3.737110e-002
1.681694e+003;3.528271e-002
1.683622e+003;3.155881e-002
1.685551e+003;3.249207e-002
1.687479e+003;3.558100e-002
1.689408e+003;3.620299e-002
1.691337e+003;3.642666e-002
1.693265e+003;3.544396e-002
1.695194e+003;3.262553e-002
1.697122e+003;3.290627e-002
1.699051e+003;3.247068e-002
1.700979e+003;3.324177e-002
1.702908e+003;3.731560e-002
1.704836e+003;3.857916e-002
1.706765e+003;3.930444e-002
1.708693e+003;4.035599e-002
1.710622e+003;4.122012e-002
1.712551e+003;4.083184e-002
1.714479e+003;3.932943e-002
1.716408e+003;3.706473e-002
1.718336e+003;3.743900e-002
1.720265e+003;4.008929e-002
1.722193e+003;4.108541e-002
1.724122e+003;4.135454e-002
1.726050e+003;4.195691e-002
1.727979e+003;4.247628e-002
1.729908e+003;4.286552e-002
1.731836e+003;4.178137e-002
1.733765e+003;4.049541e-002
1.735693e+003;4.378414e-002
1.737622e+003;4.644911e-002
1.739550e+003;4.638609e-002
1.741479e+003;4.674937e-002
1.743407e+003;4.633854e-002
1.745336e+003;4.458826e-002
1.747265e+003;4.183324e-002
1.749193e+003;3.832242e-002
1.751122e+003;3.492244e-002
1.753050e+003;3.315596e-002
1.754979e+003;3.049559e-002
1.756907e+003;2.702480e-002
1.758836e+003;2.448451e-002
1.760764e+003;2.169074e-002
1.762693e+003;1.990615e-002
1.764621e+003;1.940943e-002
1.766550e+003;1.789233e-002
1.768479e+003;1.661303e-002
1.770407e+003;1.537752e-002
1.772336e+003;1.381007e-002
1.774264e+003;1.446658e-002
1.776193e+003;1.552890e-002
1.778121e+003;1.541590e-002
1.780050e+003;1.448103e-002
1.781978e+003;1.390158e-002
1.783907e+003;1.319452e-002
1.785835e+003;1.246869e-002
1.787764e+003;1.207986e-002
1.789693e+003;1.099250e-002
1.791621e+003;9.493156e-003
1.793550e+003;9.356731e-003
1.795478e+003;9.908725e-003
1.797407e+003;9.836561e-003
1.799335e+003;9.387541e-003
1.801264e+003;8.909491e-003
1.803192e+003;8.777677e-003
1.805121e+003;8.462778e-003
1.807049e+003;8.252984e-003
1.808978e+003;7.787650e-003
1.810907e+003;7.405382e-003
1.812835e+003;7.579295e-003
1.814764e+003;7.616655e-003
1.816692e+003;7.374308e-003
1.818621e+003;7.427391e-003
1.820549e+003;7.418122e-003
1.822478e+003;7.017691e-003
1.824406e+003;6.541064e-003
1.826335e+003;6.913617e-003
1.828264e+003;6.754475e-003
1.830192e+003;6.368171e-003
1.832121e+003;6.862314e-003
1.834049e+003;7.146209e-003
1.835978e+003;7.431099e-003
1.837906e+003;7.567022e-003
1.839835e+003;7.379903e-003
1.841763e+003;6.488258e-003
1.843692e+003;5.156962e-003
1.845620e+003;5.632407e-003
1.847549e+003;6.635560e-003
1.849478e+003;6.848277e-003
1.851406e+003;6.730918e-003
1.853335e+003;6.812868e-003
1.855263e+003;6.861977e-003
1.857192e+003;6.920283e-003
1.859120e+003;6.947184e-003
1.861049e+003;6.703056e-003
1.862977e+003;6.429976e-003
1.864906e+003;6.107600e-003
1.866834e+003;5.448971e-003
1.868763e+003;5.141874e-003
1.870692e+003;6.108709e-003
1.872620e+003;6.720857e-003
1.874549e+003;6.675195e-003
1.876477e+003;6.806641e-003
1.878406e+003;6.715338e-003
1.880334e+003;6.380881e-003
1.882263e+003;6.282877e-003
1.884191e+003;6.473728e-003
1.886120e+003;6.594079e-003
1.888048e+003;6.373417e-003
1.889977e+003;6.378158e-003
1.891906e+003;6.772312e-003
1.893834e+003;6.811487e-003
1.895763e+003;6.841040e-003
1.897691e+003;6.682530e-003
1.899620e+003;6.458931e-003
1.901548e+003;6.487282e-003
1.903477e+003;6.740072e-003
1.905405e+003;6.512070e-003
1.907334e+003;6.212791e-003
1.909262e+003;6.350721e-003
1.911191e+003;6.529728e-003
1.913120e+003;6.370794e-003
1.915048e+003;6.179786e-003
1.916977e+003;5.703608e-003
1.918905e+003;5.678933e-003
1.920834e+003;6.086868e-003
1.922762e+003;6.268926e-003
1.924691e+003;6.526331e-003
1.926619e+003;6.465388e-003
1.928548e+003;6.168830e-003
1.930477e+003;6.003644e-003
1.932405e+003;5.596291e-003
1.934334e+003;5.463399e-003
1.936262e+003;5.830395e-003
1.938191e+003;5.793658e-003
1.940119e+003;5.369392e-003
1.942048e+003;5.004227e-003
1.943976e+003;5.085617e-003
1.945905e+003;5.340979e-003
1.947833e+003;5.516584e-003
1.949762e+003;5.603172e-003
1.951691e+003;5.523095e-003
1.953619e+003;5.439577e-003
1.955548e+003;5.723986e-003
1.957476e+003;5.805679e-003
1.959405e+003;5.485008e-003
1.961333e+003;5.376471e-003
1.963262e+003;5.338967e-003
1.965190e+003;5.145864e-003
1.967119e+003;5.061916e-003
1.969047e+003;4.971046e-003
1.970976e+003;4.851278e-003
1.972905e+003;5.027121e-003
1.974833e+003;5.184055e-003
1.976762e+003;5.194718e-003
1.978690e+003;5.095071e-003
1.980619e+003;5.130374e-003
1.982547e+003;5.304552e-003
1.984476e+003;5.406966e-003
1.986404e+003;5.367077e-003
1.988333e+003;5.279900e-003
1.990261e+003;5.309181e-003
1.992190e+003;5.387675e-003
1.994119e+003;5.646271e-003
1.996047e+003;5.751215e-003
1.997976e+003;5.483834e-003
1.999904e+003;5.450045e-003
2.001833e+003;5.533163e-003
2.003761e+003;5.477659e-003
2.005690e+003;5.233317e-003
2.007618e+003;5.149351e-003
2.009547e+003;5.418607e-003
2.011476e+003;5.465244e-003
2.013404e+003;5.267390e-003
2.015333e+003;5.302875e-003
2.017261e+003;5.545277e-003
2.019190e+003;5.640799e-003
2.021118e+003;5.522256e-003
2.023047e+003;5.672890e-003
2.024975e+003;5.683398e-003
2.026904e+003;5.508732e-003
2.028833e+003;5.320115e-003
2.030761e+003;5.240728e-003
2.032690e+003;5.327965e-003
2.034618e+003;5.567024e-003
2.036547e+003;5.751686e-003
2.038475e+003;5.697632e-003
2.040404e+003;5.712807e-003
2.042332e+003;5.630125e-003
2.044261e+003;5.512826e-003
2.046189e+003;5.760550e-003
2.048118e+003;6.096411e-003
2.050047e+003;6.191617e-003
2.051975e+003;6.094596e-003
2.053904e+003;5.859410e-003
2.055832e+003;5.719185e-003
2.057761e+003;5.707167e-003
2.059689e+003;5.513866e-003
2.061618e+003;5.548029e-003
2.063546e+003;5.817701e-003
2.065475e+003;6.012245e-003
2.067404e+003;6.055115e-003
2.069332e+003;5.884095e-003
2.071260e+003;5.904180e-003
2.073189e+003;6.130149e-003
2.075118e+003;5.942539e-003
2.077046e+003;5.709886e-003
2.078975e+003;5.865019e-003
2.080903e+003;6.308595e-003
2.082832e+003;6.769014e-003
2.084760e+003;7.106936e-003
2.086689e+003;7.195390e-003
2.088617e+003;6.803073e-003
2.090546e+003;6.529695e-003
2.092475e+003;6.631355e-003
2.094403e+003;6.729976e-003
2.096332e+003;6.880862e-003
2.098260e+003;7.030622e-003
2.100189e+003;6.982873e-003
2.102117e+003;6.769653e-003
2.104046e+003;6.743908e-003
2.105974e+003;6.736774e-003
2.107903e+003;6.704133e-003
2.109832e+003;6.691178e-003
2.111760e+003;6.849792e-003
2.113688e+003;7.081440e-003
2.115617e+003;7.264287e-003
2.117546e+003;7.208360e-003
2.119474e+003;7.258828e-003
2.121403e+003;7.531689e-003
2.123331e+003;7.861803e-003
2.125260e+003;8.099731e-003
2.127188e+003;8.520928e-003
2.129117e+003;8.995336e-003
2.131045e+003;9.040025e-003
2.132974e+003;9.014855e-003
2.134903e+003;8.995167e-003
2.136831e+003;8.705261e-003
2.138760e+003;8.507243e-003
2.140688e+003;8.279224e-003
2.142617e+003;8.192068e-003
2.144545e+003;8.147230e-003
2.146474e+003;8.182175e-003
2.148402e+003;8.207229e-003
2.150331e+003;8.171337e-003
2.152260e+003;8.482713e-003
2.154188e+003;8.686195e-003
2.156117e+003;8.520422e-003
2.158045e+003;8.696539e-003
2.159974e+003;9.030485e-003
2.161902e+003;9.249557e-003
2.163831e+003;9.412257e-003
2.165759e+003;9.520114e-003
2.167688e+003;9.584266e-003
2.169616e+003;9.747567e-003
2.171545e+003;1.004285e-002
2.173474e+003;1.027034e-002
2.175402e+003;1.038906e-002
2.177331e+003;1.043172e-002
2.179259e+003;1.006828e-002
2.181188e+003;9.847813e-003
2.183116e+003;9.707617e-003
2.185045e+003;9.799619e-003
2.186973e+003;1.003207e-002
2.188902e+003;1.008609e-002
2.190831e+003;9.803720e-003
2.192759e+003;9.754716e-003
2.194688e+003;1.012872e-002
2.196616e+003;1.029446e-002
2.198545e+003;1.000107e-002
2.200473e+003;9.655304e-003
2.202402e+003;9.505754e-003
2.204330e+003;9.391535e-003
2.206259e+003;9.320405e-003
2.208188e+003;9.416456e-003
2.210116e+003;9.343053e-003
2.212044e+003;9.073418e-003
2.213973e+003;9.116828e-003
2.215902e+003;9.280020e-003
2.217830e+003;9.520149e-003
2.219759e+003;9.562351e-003
2.221687e+003;9.561842e-003
2.223616e+003;9.677022e-003
2.225544e+003;9.753361e-003
2.227473e+003;9.812192e-003
2.229401e+003;1.001660e-002
2.231330e+003;1.012912e-002
2.233259e+003;1.007730e-002
2.235187e+003;9.850863e-003
2.237116e+003;9.885471e-003
2.239044e+003;1.011379e-002
2.240973e+003;9.913810e-003
2.242901e+003;9.462407e-003
2.244830e+003;9.416761e-003
2.246758e+003;9.694199e-003
2.248687e+003;1.003152e-002
2.250615e+003;1.017478e-002
2.252544e+003;1.024700e-002
2.254473e+003;1.052123e-002
2.256401e+003;1.073824e-002
2.258330e+003;1.070567e-002
2.260258e+003;1.037356e-002
2.262187e+003;1.015697e-002
2.264115e+003;1.008202e-002
2.266044e+003;1.021222e-002
2.267972e+003;1.026118e-002
2.269901e+003;1.007991e-002
2.271830e+003;1.019384e-002
2.273758e+003;1.020290e-002
2.275687e+003;9.968188e-003
2.277615e+003;9.749972e-003
2.279544e+003;9.510293e-003
2.281472e+003;9.409650e-003
2.283401e+003;9.483978e-003
2.285329e+003;9.626576e-003
2.287258e+003;9.631658e-003
2.289187e+003;9.604421e-003
2.291115e+003;9.586773e-003
2.293043e+003;9.584029e-003
2.294972e+003;9.609503e-003
2.296901e+003;9.454415e-003
2.298829e+003;9.371120e-003
2.300758e+003;9.512359e-003
2.302686e+003;9.581590e-003
2.304615e+003;9.557778e-003
2.306543e+003;9.598561e-003
2.308472e+003;9.698299e-003
2.310400e+003;9.927438e-003
2.312329e+003;9.978969e-003
2.314258e+003;9.861744e-003
2.316186e+003;9.818225e-003
2.318115e+003;9.711073e-003
2.320043e+003;9.776811e-003
2.321972e+003;1.004126e-002
2.323900e+003;1.032157e-002
2.325829e+003;1.056625e-002
2.327757e+003;1.070628e-002
2.329686e+003;1.073304e-002
2.331615e+003;1.084758e-002
2.333543e+003;1.108205e-002
2.335472e+003;1.122072e-002
2.337400e+003;1.113875e-002
2.339329e+003;1.097129e-002
2.341257e+003;1.136086e-002
2.343186e+003;1.185684e-002
2.345114e+003;1.177863e-002
2.347043e+003;1.165153e-002
2.348971e+003;1.171749e-002
2.350900e+003;1.163873e-002
2.352829e+003;1.181213e-002
2.354757e+003;1.216099e-002
2.356686e+003;1.232986e-002
2.358614e+003;1.232390e-002
2.360543e+003;1.223211e-002
2.362471e+003;1.246255e-002
2.364400e+003;1.262725e-002
2.366328e+003;1.252622e-002
2.368257e+003;1.226674e-002
2.370186e+003;1.219919e-002
2.372114e+003;1.206440e-002
2.374042e+003;1.199126e-002
2.375971e+003;1.217557e-002
2.377900e+003;1.239286e-002
2.379828e+003;1.249863e-002
2.381757e+003;1.253911e-002
2.383685e+003;1.269135e-002
2.385614e+003;1.270960e-002
2.387542e+003;1.261640e-002
2.389471e+003;1.269595e-002
2.391399e+003;1.289166e-002
2.393328e+003;1.286381e-002
2.395257e+003;1.292774e-002
2.397185e+003;1.318861e-002
2.399114e+003;1.337784e-002
2.401042e+003;1.354114e-002
2.402971e+003;1.358294e-002
2.404899e+003;1.342175e-002
2.406828e+003;1.319100e-002
2.408756e+003;1.295515e-002
2.410685e+003;1.310996e-002
2.412614e+003;1.340654e-002
2.414542e+003;1.330609e-002
2.416471e+003;1.327097e-002
2.418399e+003;1.338006e-002
2.420328e+003;1.362783e-002
2.422256e+003;1.371841e-002
2.424185e+003;1.379841e-002
2.426113e+003;1.421743e-002
2.428042e+003;1.436310e-002
2.429970e+003;1.385601e-002
2.431899e+003;1.353635e-002
2.433828e+003;1.356130e-002
2.435756e+003;1.346570e-002
2.437685e+003;1.327230e-002
2.439613e+003;1.311354e-002
2.441542e+003;1.291303e-002
2.443470e+003;1.293651e-002
2.445399e+003;1.311323e-002
2.447327e+003;1.308008e-002
2.449256e+003;1.293412e-002
2.451185e+003;1.292467e-002
2.453113e+003;1.300117e-002
2.455042e+003;1.291299e-002
2.456970e+003;1.256186e-002
2.458899e+003;1.249809e-002
2.460827e+003;1.274031e-002
2.462756e+003;1.252523e-002
2.464684e+003;1.233000e-002
2.466613e+003;1.267391e-002
2.468542e+003;1.271936e-002
2.470470e+003;1.256646e-002
2.472398e+003;1.279760e-002
2.474327e+003;1.286975e-002
2.476256e+003;1.239498e-002
2.478184e+003;1.250058e-002
2.480113e+003;1.314445e-002
2.482041e+003;1.345005e-002
2.483970e+003;1.346279e-002
2.485898e+003;1.333564e-002
2.487827e+003;1.320080e-002
2.489755e+003;1.342790e-002
2.491684e+003;1.363139e-002
2.493613e+003;1.362760e-002
2.495541e+003;1.366203e-002
2.497470e+003;1.345141e-002
2.499398e+003;1.339260e-002
2.501327e+003;1.343839e-002
2.503255e+003;1.331309e-002
2.505184e+003;1.354572e-002
2.507112e+003;1.372546e-002
2.509041e+003;1.370138e-002
2.510969e+003;1.395242e-002
2.512898e+003;1.418382e-002
2.514827e+003;1.432273e-002
2.516755e+003;1.447185e-002
2.518684e+003;1.474994e-002
2.520612e+003;1.511252e-002
2.522541e+003;1.531690e-002
2.524469e+003;1.565014e-002
2.526398e+003;1.593667e-002
2.528326e+003;1.601123e-002
2.530255e+003;1.621398e-002
2.532184e+003;1.661703e-002
2.534112e+003;1.676192e-002
2.536041e+003;1.680961e-002
2.537969e+003;1.705829e-002
2.539898e+003;1.713421e-002
2.541826e+003;1.724804e-002
2.543755e+003;1.739545e-002
2.545683e+003;1.757917e-002
2.547612e+003;1.804538e-002
2.549541e+003;1.847962e-002
2.551469e+003;1.885194e-002
2.553397e+003;1.924934e-002
2.555326e+003;1.948223e-002
2.557255e+003;1.974509e-002
2.559183e+003;1.982589e-002
2.561112e+003;2.005811e-002
2.563040e+003;2.043002e-002
2.564969e+003;2.075497e-002
2.566897e+003;2.133456e-002
2.568826e+003;2.189054e-002
2.570754e+003;2.245602e-002
2.572683e+003;2.331781e-002
2.574612e+003;2.393924e-002
2.576540e+003;2.424213e-002
2.578469e+003;2.469612e-002
2.580397e+003;2.510652e-002
2.582326e+003;2.528107e-002
2.584254e+003;2.503309e-002
2.586183e+003;2.429871e-002
2.588111e+003;2.354939e-002
2.590040e+003;2.313758e-002
2.591969e+003;2.264814e-002
2.593897e+003;2.205532e-002
2.595826e+003;2.189796e-002
2.597754e+003;2.194142e-002
2.599683e+003;2.226726e-002
2.601611e+003;2.239036e-002
2.603540e+003;2.228878e-002
2.605468e+003;2.251890e-002
2.607397e+003;2.308768e-002
2.609325e+003;2.364598e-002
2.611254e+003;2.389912e-002
2.613183e+003;2.421417e-002
2.615111e+003;2.448387e-002
2.617040e+003;2.443343e-002
2.618968e+003;2.412425e-002
2.620897e+003;2.429952e-002
2.622825e+003;2.461332e-002
2.624754e+003;2.411220e-002
2.626682e+003;2.341050e-002
2.628611e+003;2.322150e-002
2.630540e+003;2.307381e-002
2.632468e+003;2.303478e-002
2.634396e+003;2.321947e-002
2.636325e+003;2.343879e-002
2.638254e+003;2.368286e-002
2.640182e+003;2.418944e-002
2.642111e+003;2.466270e-002
2.644039e+003;2.488868e-002
2.645968e+003;2.496479e-002
2.647896e+003;2.516824e-002
2.649825e+003;2.561783e-002
2.651753e+003;2.623841e-002
2.653682e+003;2.660363e-002
2.655611e+003;2.677892e-002
2.657539e+003;2.677170e-002
2.659468e+003;2.710041e-002
2.661396e+003;2.733962e-002
2.663325e+003;2.729096e-002
2.665253e+003;2.725554e-002
2.667182e+003;2.728324e-002
2.669110e+003;2.722982e-002
2.671039e+003;2.717973e-002
2.672968e+003;2.717881e-002
2.674896e+003;2.765863e-002
2.676825e+003;2.803689e-002
2.678753e+003;2.819119e-002
2.680682e+003;2.848496e-002
2.682610e+003;2.817878e-002
2.684539e+003;2.782385e-002
2.686467e+003;2.776670e-002
2.688396e+003;2.796638e-002
2.690324e+003;2.819356e-002
2.692253e+003;2.849787e-002
2.694182e+003;2.845489e-002
2.696110e+003;2.824295e-002
2.698039e+003;2.844732e-002
2.699967e+003;2.886135e-002
2.701896e+003;2.913885e-002
2.703824e+003;2.980988e-002
2.705753e+003;3.060988e-002
2.707681e+003;3.146318e-002
2.709610e+003;3.259528e-002
2.711539e+003;3.359363e-002
2.713467e+003;3.471820e-002
2.715396e+003;3.620746e-002
2.717324e+003;3.786250e-002
2.719253e+003;3.941052e-002
2.721181e+003;4.042995e-002
2.723110e+003;4.080891e-002
2.725038e+003;4.043035e-002
2.726967e+003;3.956674e-002
2.728896e+003;3.844364e-002
2.730824e+003;3.702515e-002
2.732752e+003;3.587804e-002
2.734681e+003;3.498546e-002
2.736610e+003;3.395632e-002
2.738538e+003;3.322113e-002
2.740467e+003;3.230861e-002
2.742395e+003;3.110097e-002
2.744324e+003;3.022561e-002
2.746252e+003;2.988104e-002
2.748181e+003;2.996484e-002
2.750109e+003;3.025758e-002
2.752038e+003;3.018380e-002
2.753967e+003;2.994053e-002
2.755895e+003;3.008613e-002
2.757824e+003;3.027420e-002
2.759752e+003;3.063793e-002
2.761681e+003;3.129732e-002
2.763609e+003;3.167819e-002
2.765538e+003;3.177497e-002
2.767466e+003;3.175415e-002
2.769395e+003;3.209646e-002
2.771323e+003;3.266047e-002
2.773252e+003;3.335317e-002
2.775181e+003;3.417887e-002
2.777109e+003;3.500960e-002
2.779038e+003;3.603692e-002
2.780966e+003;3.687395e-002
2.782895e+003;3.780892e-002
2.784823e+003;3.897401e-002
2.786752e+003;4.044370e-002
2.788680e+003;4.223202e-002
2.790609e+003;4.397739e-002
2.792538e+003;4.547638e-002
2.794466e+003;4.684554e-002
2.796395e+003;4.772868e-002
2.798323e+003;4.873108e-002
2.800252e+003;4.993693e-002
2.802180e+003;5.148778e-002
2.804109e+003;5.358056e-002
2.806037e+003;5.567542e-002
2.807966e+003;5.757893e-002
2.809895e+003;5.937286e-002
2.811823e+003;6.113150e-002
2.813751e+003;6.284139e-002
2.815680e+003;6.451228e-002
2.817609e+003;6.642076e-002
2.819537e+003;6.873418e-002
2.821466e+003;7.114835e-002
2.823394e+003;7.400484e-002
2.825323e+003;7.824988e-002
2.827251e+003;8.430088e-002
2.829180e+003;9.147715e-002
2.831108e+003;9.953360e-002
2.833037e+003;1.079741e-001
2.834966e+003;1.156781e-001
2.836894e+003;1.197961e-001
2.838823e+003;1.190713e-001
2.840751e+003;1.158442e-001
2.842680e+003;1.117389e-001
2.844608e+003;1.074425e-001
2.846537e+003;1.036947e-001
2.848465e+003;1.012369e-001
2.850394e+003;9.950211e-002
2.852323e+003;9.808106e-002
2.854251e+003;9.747905e-002
2.856180e+003;9.806864e-002
2.858108e+003;1.009799e-001
2.860037e+003;1.062802e-001
2.861965e+003;1.130558e-001
2.863894e+003;1.202074e-001
2.865822e+003;1.258652e-001
2.867751e+003;1.287702e-001
2.869679e+003;1.293307e-001
2.871608e+003;1.287285e-001
2.873536e+003;1.281822e-001
2.875465e+003;1.276514e-001
2.877394e+003;1.264391e-001
2.879322e+003;1.249568e-001
2.881251e+003;1.239937e-001
2.883179e+003;1.233645e-001
2.885108e+003;1.229186e-001
2.887036e+003;1.232352e-001
2.888965e+003;1.245553e-001
2.890893e+003;1.270285e-001
2.892822e+003;1.301181e-001
2.894750e+003;1.338616e-001
2.896679e+003;1.382759e-001
2.898608e+003;1.431641e-001
2.900536e+003;1.487685e-001
2.902465e+003;1.546341e-001
2.904393e+003;1.607601e-001
2.906322e+003;1.667562e-001
2.908250e+003;1.721179e-001
2.910179e+003;1.764045e-001
2.912107e+003;1.801035e-001
2.914036e+003;1.837173e-001
2.915965e+003;1.855643e-001
2.917893e+003;1.842672e-001
2.919822e+003;1.810532e-001
2.921750e+003;1.771676e-001
2.923679e+003;1.716614e-001
2.925607e+003;1.649448e-001
2.927536e+003;1.571347e-001
2.929464e+003;1.484579e-001
2.931393e+003;1.402329e-001
2.933322e+003;1.326616e-001
2.935250e+003;1.258088e-001
2.937178e+003;1.205064e-001
2.939107e+003;1.182574e-001
2.941036e+003;1.198119e-001
2.942964e+003;1.250174e-001
2.944893e+003;1.332701e-001
2.946821e+003;1.423448e-001
2.948750e+003;1.491958e-001
2.950678e+003;1.521822e-001
2.952607e+003;1.513196e-001
2.954535e+003;1.481052e-001
2.956464e+003;1.436379e-001
2.958393e+003;1.385547e-001
2.960321e+003;1.325504e-001
2.962250e+003;1.251985e-001
2.964178e+003;1.176001e-001
2.966107e+003;1.101145e-001
2.968035e+003;1.027105e-001
2.969964e+003;9.549253e-002
2.971892e+003;8.863153e-002
2.973821e+003;8.258390e-002
2.975750e+003;7.771938e-002
2.977678e+003;7.370670e-002
2.979607e+003;7.014623e-002
2.981535e+003;6.672082e-002
2.983464e+003;6.386811e-002
2.985392e+003;6.136938e-002
2.987321e+003;5.901322e-002
2.989249e+003;5.648411e-002
2.991178e+003;5.418952e-002
2.993106e+003;5.239410e-002
2.995035e+003;5.058371e-002
2.996964e+003;4.889166e-002
2.998892e+003;4.723413e-002
3.000821e+003;4.563837e-002
3.002749e+003;4.371898e-002
3.004678e+003;4.174554e-002
3.006606e+003;4.033944e-002
3.008535e+003;3.943475e-002
3.010463e+003;3.837168e-002
3.012392e+003;3.697074e-002
3.014321e+003;3.584127e-002
3.016249e+003;3.484068e-002
3.018177e+003;3.363427e-002
3.020106e+003;3.261836e-002
3.022035e+003;3.184053e-002
3.023963e+003;3.111468e-002
3.025892e+003;3.060821e-002
3.027820e+003;3.023186e-002
3.029749e+003;2.934534e-002
3.031677e+003;2.873258e-002
3.033606e+003;2.841664e-002
3.035534e+003;2.768268e-002
3.037463e+003;2.697117e-002
3.039392e+003;2.683105e-002
3.041320e+003;2.657094e-002
3.043249e+003;2.637310e-002
3.045177e+003;2.617115e-002
3.047106e+003;2.603146e-002
3.049034e+003;2.584033e-002
3.050963e+003;2.577271e-002
3.052891e+003;2.596392e-002
3.054820e+003;2.566275e-002
3.056749e+003;2.518657e-002
3.058677e+003;2.496079e-002
3.060606e+003;2.481107e-002
3.062534e+003;2.485348e-002
3.064463e+003;2.456020e-002
3.066391e+003;2.435149e-002
3.068320e+003;2.410943e-002
3.070248e+003;2.409192e-002
3.072177e+003;2.420846e-002
3.074105e+003;2.440220e-002
3.076034e+003;2.425947e-002
3.077963e+003;2.371358e-002
3.079891e+003;2.338952e-002
3.081820e+003;2.337627e-002
3.083748e+003;2.397005e-002
3.085677e+003;2.439050e-002
3.087605e+003;2.419038e-002
3.089534e+003;2.389884e-002
3.091462e+003;2.370920e-002
3.093391e+003;2.317641e-002
3.095320e+003;2.291607e-002
3.097248e+003;2.321923e-002
3.099177e+003;2.349926e-002
3.101105e+003;2.336280e-002
3.103034e+003;2.329085e-002
3.104962e+003;2.377171e-002
3.106891e+003;2.405949e-002
3.108819e+003;2.380807e-002
3.110748e+003;2.361984e-002
3.112677e+003;2.345677e-002
3.114605e+003;2.325764e-002
3.116533e+003;2.335742e-002
3.118462e+003;2.347076e-002
3.120391e+003;2.330907e-002
3.122319e+003;2.338172e-002
3.124248e+003;2.344641e-002
3.126176e+003;2.364570e-002
3.128105e+003;2.392650e-002
3.130033e+003;2.399358e-002
3.131962e+003;2.440588e-002
3.133890e+003;2.483798e-002
3.135819e+003;2.480910e-002
3.137748e+003;2.478128e-002
3.139676e+003;2.468661e-002
3.141605e+003;2.460971e-002
3.143533e+003;2.517358e-002
3.145462e+003;2.567161e-002
3.147390e+003;2.546152e-002
3.149319e+003;2.536874e-002
3.151247e+003;2.555766e-002
3.153176e+003;2.554209e-002
3.155104e+003;2.542333e-002
3.157033e+003;2.536126e-002
3.158962e+003;2.551053e-002
3.160890e+003;2.583059e-002
3.162819e+003;2.584497e-002
3.164747e+003;2.577637e-002
3.166676e+003;2.620793e-002
3.168604e+003;2.632219e-002
3.170533e+003;2.621997e-002
3.172461e+003;2.613191e-002
3.174390e+003;2.606816e-002
3.176319e+003;2.604240e-002
3.178247e+003;2.605057e-002
3.180176e+003;2.644285e-002
3.182104e+003;2.653371e-002
3.184033e+003;2.665595e-002
3.185961e+003;2.685343e-002
3.187890e+003;2.677847e-002
3.189818e+003;2.712615e-002
3.191747e+003;2.745390e-002
3.193676e+003;2.727939e-002
3.195604e+003;2.692957e-002
3.197532e+003;2.680215e-002
3.199461e+003;2.701715e-002
3.201390e+003;2.735811e-002
3.203318e+003;2.731146e-002
3.205247e+003;2.728334e-002
3.207175e+003;2.732300e-002
3.209104e+003;2.759888e-002
3.211032e+003;2.772124e-002
3.212961e+003;2.735183e-002
3.214889e+003;2.704381e-002
3.216818e+003;2.684144e-002
3.218747e+003;2.661744e-002
3.220675e+003;2.650885e-002
3.222604e+003;2.652695e-002
3.224532e+003;2.638778e-002
3.226461e+003;2.639035e-002
3.228389e+003;2.583193e-002
3.230318e+003;2.558321e-002
3.232246e+003;2.574139e-002
3.234175e+003;2.527844e-002
3.236104e+003;2.492861e-002
3.238032e+003;2.511390e-002
3.239961e+003;2.548137e-002
3.241889e+003;2.535198e-002
3.243818e+003;2.482556e-002
3.245746e+003;2.473137e-002
3.247675e+003;2.473382e-002
3.249603e+003;2.464281e-002
3.251532e+003;2.484583e-002
3.253460e+003;2.516986e-002
3.255389e+003;2.544279e-002
3.257318e+003;2.565030e-002
3.259246e+003;2.542301e-002
3.261175e+003;2.485124e-002
3.263103e+003;2.503583e-002
3.265032e+003;2.578555e-002
3.266960e+003;2.581318e-002
3.268889e+003;2.528163e-002
3.270817e+003;2.550382e-002
3.272746e+003;2.550361e-002
3.274675e+003;2.536041e-002
3.276603e+003;2.573415e-002
3.278531e+003;2.608357e-002
3.280460e+003;2.582715e-002
3.282389e+003;2.573088e-002
3.284317e+003;2.613184e-002
3.286246e+003;2.633007e-002
3.288174e+003;2.622500e-002
3.290103e+003;2.620638e-002
3.292031e+003;2.623985e-002
3.293960e+003;2.616823e-002
3.295888e+003;2.630107e-002
3.297817e+003;2.632324e-002
3.299746e+003;2.607720e-002
3.301674e+003;2.598362e-002
3.303603e+003;2.617425e-002
3.305531e+003;2.628600e-002
3.307460e+003;2.607745e-002
3.309388e+003;2.599906e-002
3.311317e+003;2.567248e-002
3.313245e+003;2.518991e-002
3.315174e+003;2.517741e-002
3.317103e+003;2.542396e-002
3.319031e+003;2.540042e-002
3.320960e+003;2.537745e-002
3.322888e+003;2.533892e-002
3.324817e+003;2.535458e-002
3.326745e+003;2.533288e-002
3.328674e+003;2.541950e-002
3.330602e+003;2.521719e-002
3.332531e+003;2.515241e-002
3.334459e+003;2.536379e-002
3.336388e+003;2.554880e-002
3.338317e+003;2.605722e-002
3.340245e+003;2.591725e-002
3.342174e+003;2.545073e-002
3.344102e+003;2.552238e-002
3.346031e+003;2.547048e-002
3.347959e+003;2.510459e-002
3.349888e+003;2.502586e-002
3.351816e+003;2.509508e-002
3.353745e+003;2.512531e-002
3.355674e+003;2.515659e-002
3.357602e+003;2.516133e-002
3.359531e+003;2.526776e-002
3.361459e+003;2.518229e-002
3.363388e+003;2.495612e-002
3.365316e+003;2.482970e-002
3.367245e+003;2.488043e-002
3.369173e+003;2.467329e-002
3.371102e+003;2.445471e-002
3.373031e+003;2.444864e-002
3.374959e+003;2.412032e-002
3.376887e+003;2.372121e-002
3.378816e+003;2.378683e-002
3.380745e+003;2.402856e-002
3.382673e+003;2.373405e-002
3.384602e+003;2.314583e-002
3.386530e+003;2.303111e-002
3.388459e+003;2.357793e-002
3.390387e+003;2.378396e-002
3.392316e+003;2.337903e-002
3.394244e+003;2.329187e-002
3.396173e+003;2.333980e-002
3.398102e+003;2.338927e-002
3.400030e+003;2.355040e-002
3.401959e+003;2.358395e-002
3.403887e+003;2.345271e-002
3.405816e+003;2.334162e-002
3.407744e+003;2.341613e-002
3.409673e+003;2.328505e-002
3.411601e+003;2.312028e-002
3.413530e+003;2.309677e-002
3.415458e+003;2.306920e-002
3.417387e+003;2.266626e-002
3.419316e+003;2.227828e-002
3.421244e+003;2.254923e-002
3.423173e+003;2.247971e-002
3.425101e+003;2.192835e-002
3.427030e+003;2.190252e-002
3.428958e+003;2.180744e-002
3.430887e+003;2.140254e-002
3.432815e+003;2.074916e-002
3.434744e+003;2.081882e-002
3.436673e+003;2.122084e-002
3.438601e+003;2.119412e-002
3.440530e+003;2.119200e-002
3.442458e+003;2.088449e-002
3.444387e+003;2.057813e-002
3.446315e+003;1.990861e-002
3.448244e+003;1.951768e-002
3.450172e+003;1.987205e-002
3.452101e+003;2.010152e-002
3.454030e+003;1.990959e-002
3.455958e+003;1.984954e-002
3.457886e+003;1.989158e-002
3.459815e+003;2.005114e-002
3.461744e+003;1.985059e-002
3.463672e+003;1.955546e-002
3.465601e+003;1.910916e-002
3.467529e+003;1.886142e-002
3.469458e+003;1.869113e-002
3.471386e+003;1.835376e-002
3.473315e+003;1.827420e-002
3.475243e+003;1.819417e-002
3.477172e+003;1.793494e-002
3.479101e+003;1.744518e-002
3.481029e+003;1.732186e-002
3.482958e+003;1.739904e-002
3.484886e+003;1.701821e-002
3.486815e+003;1.679711e-002
3.488743e+003;1.642593e-002
3.490672e+003;1.638664e-002
3.492600e+003;1.719395e-002
3.494529e+003;1.708861e-002
3.496458e+003;1.689438e-002
3.498386e+003;1.688674e-002
3.500315e+003;1.628965e-002
3.502243e+003;1.564131e-002
3.504172e+003;1.546194e-002
3.506100e+003;1.548999e-002
3.508029e+003;1.540611e-002
3.509957e+003;1.538696e-002
3.511886e+003;1.557942e-002
3.513814e+003;1.565443e-002
3.515743e+003;1.541398e-002
3.517672e+003;1.525543e-002
3.519600e+003;1.534676e-002
3.521529e+003;1.509649e-002
3.523457e+003;1.459547e-002
3.525386e+003;1.450841e-002
3.527314e+003;1.450217e-002
3.529243e+003;1.445764e-002
3.531171e+003;1.427824e-002
3.533100e+003;1.399903e-002
3.535029e+003;1.373473e-002
3.536957e+003;1.389867e-002
3.538885e+003;1.395957e-002
3.540814e+003;1.368723e-002
3.542743e+003;1.308605e-002
3.544671e+003;1.256971e-002
3.546600e+003;1.298710e-002
3.548528e+003;1.336400e-002
3.550457e+003;1.315678e-002
3.552385e+003;1.268217e-002
3.554314e+003;1.232717e-002
3.556242e+003;1.208259e-002
3.558171e+003;1.183532e-002
3.560100e+003;1.143399e-002
3.562028e+003;1.120301e-002
3.563957e+003;1.089256e-002
3.565885e+003;9.733199e-003
3.567814e+003;9.146606e-003
3.569742e+003;1.011508e-002
3.571671e+003;1.066600e-002
3.573599e+003;1.009117e-002
3.575528e+003;9.812769e-003
3.577457e+003;9.521401e-003
3.579385e+003;9.227252e-003
3.581314e+003;9.210228e-003
3.583242e+003;8.894171e-003
3.585171e+003;8.115800e-003
3.587099e+003;7.663360e-003
3.589028e+003;8.288275e-003
3.590956e+003;8.976190e-003
3.592885e+003;8.258252e-003
3.594813e+003;7.969783e-003
3.596742e+003;8.392104e-003
3.598671e+003;8.160532e-003
3.600599e+003;7.937150e-003
3.602528e+003;8.309620e-003
3.604456e+003;8.216312e-003
3.606385e+003;7.412055e-003
3.608313e+003;6.534942e-003
3.610242e+003;6.359261e-003
3.612170e+003;6.217867e-003
3.614099e+003;6.819835e-003
3.616028e+003;7.184139e-003
3.617956e+003;6.170510e-003
3.619885e+003;6.069093e-003
3.621813e+003;7.374881e-003
3.623742e+003;7.393349e-003
3.625670e+003;5.813805e-003
3.627599e+003;3.200084e-003
3.629527e+003;3.085442e-003
3.631456e+003;5.399249e-003
3.633385e+003;6.098595e-003
3.635313e+003;6.041037e-003
3.637241e+003;6.445781e-003
3.639170e+003;6.997150e-003
3.641099e+003;7.044866e-003
3.643027e+003;6.420123e-003
3.644956e+003;5.076834e-003
3.646884e+003;3.296159e-003
3.648813e+003;2.468563e-003
3.650741e+003;3.994732e-003
3.652670e+003;5.399182e-003
3.654598e+003;4.553141e-003
3.656527e+003;4.008911e-003
3.658456e+003;4.835564e-003
3.660384e+003;5.438738e-003
3.662313e+003;5.784524e-003
3.664241e+003;5.494504e-003
3.666170e+003;4.785477e-003
3.668098e+003;3.279533e-003
3.670027e+003;2.335192e-003
3.671955e+003;3.411058e-003
3.673884e+003;2.388829e-003
3.675813e+003;1.820450e-003
3.677741e+003;4.797638e-003
3.679669e+003;6.030588e-003
3.681598e+003;6.013017e-003
3.683527e+003;6.232925e-003
3.685455e+003;5.691892e-003
3.687384e+003;3.926185e-003
3.689312e+003;3.878309e-003
3.691241e+003;4.971884e-003
3.693169e+003;6.126385e-003
3.695098e+003;6.665976e-003
3.697026e+003;6.635089e-003
3.698955e+003;6.194810e-003
3.700884e+003;5.155655e-003
3.702812e+003;5.553198e-003
3.704741e+003;6.181567e-003
3.706669e+003;5.673461e-003
3.708598e+003;4.900836e-003
3.710526e+003;3.819841e-003
3.712455e+003;3.506311e-003
3.714383e+003;4.570720e-003
3.716312e+003;5.128027e-003
3.718240e+003;5.970151e-003
3.720169e+003;6.397290e-003
3.722098e+003;5.956378e-003
3.724026e+003;5.392205e-003
3.725955e+003;4.947720e-003
3.727883e+003;5.067280e-003
3.729812e+003;4.707995e-003
3.731740e+003;3.440647e-003
3.733669e+003;2.964525e-003
3.735597e+003;2.430710e-003
3.737526e+003;3.509518e-003
3.739455e+003;5.045926e-003
3.741383e+003;4.436702e-003
3.743312e+003;9.980497e-004
3.745240e+003;1.513081e-003
3.747169e+003;3.425284e-003
3.749097e+003;1.834691e-003
3.751026e+003;1.295982e-003
3.752954e+003;3.373022e-003
3.754883e+003;5.787009e-003
3.756812e+003;5.854876e-003
3.758740e+003;5.548163e-003
3.760668e+003;6.035393e-003
3.762597e+003;6.581868e-003
3.764526e+003;6.187315e-003
3.766454e+003;6.056022e-003
3.768383e+003;5.254579e-003
3.770311e+003;4.935152e-003
3.772240e+003;5.757897e-003
3.774168e+003;6.631220e-003
3.776097e+003;6.650297e-003
3.778025e+003;6.238001e-003
3.779954e+003;6.130922e-003
3.781883e+003;6.267077e-003
3.783811e+003;5.969950e-003
3.785740e+003;6.005559e-003
3.787668e+003;5.821059e-003
3.789597e+003;5.903978e-003
3.791525e+003;6.420123e-003
3.793454e+003;6.807180e-003
3.795382e+003;6.386900e-003
3.797311e+003;5.982244e-003
3.799240e+003;4.282748e-003
3.801168e+003;2.782012e-003
3.803097e+003;4.358982e-003
3.805025e+003;4.155342e-003
3.806954e+003;3.382706e-003
3.808882e+003;5.059536e-003
3.810811e+003;5.942069e-003
3.812739e+003;5.379926e-003
3.814668e+003;3.609705e-003
3.816596e+003;4.026167e-003
3.818525e+003;4.735228e-003
3.820454e+003;3.422178e-003
3.822382e+003;4.388937e-003
3.824311e+003;6.328430e-003
3.826239e+003;6.618368e-003
3.828168e+003;6.226472e-003
3.830096e+003;5.878486e-003
3.832025e+003;6.066472e-003
3.833953e+003;6.211783e-003
3.835882e+003;4.482698e-003
3.837811e+003;2.833736e-003
3.839739e+003;3.816064e-003
3.841667e+003;4.969973e-003
3.843596e+003;5.373787e-003
3.845525e+003;5.695853e-003
3.847453e+003;6.177131e-003
3.849382e+003;5.512490e-003
3.851310e+003;1.998632e-003
3.853239e+003;-5.131087e-004
3.855167e+003;2.783112e-003
3.857096e+003;5.947678e-003
3.859024e+003;5.968102e-003
3.860953e+003;5.954295e-003
3.862882e+003;5.757494e-003
3.864810e+003;5.001747e-003
3.866739e+003;5.811858e-003
3.868667e+003;5.350775e-003
3.870596e+003;4.836904e-003
3.872524e+003;5.609516e-003
3.874453e+003;6.191113e-003
3.876381e+003;6.851239e-003
3.878310e+003;6.364170e-003
3.880239e+003;5.873079e-003
3.882167e+003;6.017150e-003
3.884096e+003;5.214436e-003
3.886024e+003;5.203202e-003
3.887953e+003;6.531141e-003
3.889881e+003;5.657684e-003
3.891810e+003;5.000675e-003
3.893738e+003;6.128267e-003
3.895667e+003;7.475525e-003
3.897595e+003;7.087839e-003
3.899524e+003;5.818876e-003
3.901453e+003;5.080353e-003
3.903381e+003;5.163803e-003
3.905310e+003;6.440535e-003
3.907238e+003;7.438413e-003
3.909167e+003;7.278202e-003
3.911095e+003;7.243566e-003
3.913024e+003;7.786605e-003
3.914952e+003;7.457559e-003
3.916881e+003;6.349376e-003
3.918810e+003;6.379570e-003
3.920738e+003;7.499459e-003
3.922667e+003;7.713848e-003
3.924595e+003;7.252966e-003
3.926524e+003;7.975418e-003
3.928452e+003;8.515623e-003
3.930381e+003;7.836162e-003
3.932309e+003;7.834813e-003
3.934238e+003;8.417204e-003
3.936167e+003;8.289289e-003
3.938095e+003;7.919029e-003
3.940023e+003;8.253423e-003
3.941952e+003;8.584459e-003
3.943881e+003;8.660472e-003
3.945809e+003;8.398996e-003
3.947738e+003;7.915992e-003
3.949666e+003;7.462985e-003
3.951595e+003;8.148041e-003
3.953523e+003;8.584053e-003
3.955452e+003;8.143956e-003
3.957380e+003;8.314146e-003
3.959309e+003;8.632485e-003
3.961238e+003;8.775412e-003
3.963166e+003;8.033031e-003
3.965095e+003;7.616655e-003
3.967023e+003;7.943933e-003
3.968952e+003;8.251093e-003
3.970880e+003;8.254605e-003
3.972809e+003;8.160094e-003
3.974737e+003;8.516400e-003
3.976666e+003;8.719696e-003
3.978594e+003;8.287431e-003
3.980523e+003;8.395685e-003
3.982452e+003;8.845202e-003
3.984380e+003;9.007176e-003
3.986309e+003;9.693725e-003
3.988237e+003;1.043366e-002
3.990166e+003;1.041156e-002
3.992094e+003;1.044136e-002
3.994023e+003;1.016531e-002
3.995951e+003;1.008999e-002
3.997880e+003;1.003441e-002
3.999809e+003;9.220449e-003
4.001737e+003;0.000000e+000
