3.992094e+002;0.000000e+000
4.011380e+002;0.000000e+000
4.030665e+002;0.000000e+000
4.049951e+002;0.000000e+000
4.069236e+002;0.000000e+000
4.088522e+002;0.000000e+000
4.107807e+002;0.000000e+000
4.127093e+002;0.000000e+000
4.146378e+002;0.000000e+000
4.165664e+002;0.000000e+000
4.184949e+002;0.000000e+000
4.204235e+002;0.000000e+000
4.223520e+002;0.000000e+000
4.242806e+002;0.000000e+000
4.262091e+002;0.000000e+000
4.281377e+002;0.000000e+000
4.300662e+002;0.000000e+000
4.319948e+002;0.000000e+000
4.339233e+002;0.000000e+000
4.358519e+002;0.000000e+000
4.377804e+002;0.000000e+000
4.397090e+002;0.000000e+000
4.416375e+002;0.000000e+000
4.435660e+002;0.000000e+000
4.454946e+002;0.000000e+000
4.474232e+002;0.000000e+000
4.493517e+002;0.000000e+000
4.512802e+002;0.000000e+000
4.532088e+002;0.000000e+000
4.551373e+002;0.000000e+000
4.570659e+002;0.000000e+000
4.589944e+002;0.000000e+000
4.609230e+002;0.000000e+000
4.628515e+002;0.000000e+000
4.647801e+002;0.000000e+000
4.667086e+002;0.000000e+000
4.686372e+002;0.000000e+000
4.705657e+002;0.000000e+000
4.724943e+002;0.000000e+000
4.744228e+002;0.000000e+000
4.763513e+002;0.000000e+000
4.782799e+002;0.000000e+000
4.802085e+002;0.000000e+000
4.821370e+002;0.000000e+000
4.840656e+002;0.000000e+000
4.859941e+002;0.000000e+000
4.879226e+002;0.000000e+000
4.898512e+002;0.000000e+000
4.917798e+002;0.000000e+000
4.937083e+002;0.000000e+000
4.956368e+002;0.000000e+000
4.975654e+002;0.000000e+000
4.994939e+002;0.000000e+000
5.014225e+002;0.000000e+000
5.033510e+002;0.000000e+000
5.052796e+002;0.000000e+000
5.072081e+002;0.000000e+000
5.091367e+002;0.000000e+000
5.110652e+002;0.000000e+000
5.129938e+002;0.000000e+000
5.149223e+002;0.000000e+000
5.168509e+002;0.000000e+000
5.187794e+002;0.000000e+000
5.207079e+002;0.000000e+000
5.226365e+002;0.000000e+000
5.245651e+002;0.000000e+000
5.264936e+002;0.000000e+000
5.284222e+002;0.000000e+000
5.303507e+002;0.000000e+000
5.322792e+002;0.000000e+000
5.342078e+002;0.000000e+000
5.361364e+002;0.000000e+000
5.380649e+002;0.000000e+000
5.399935e+002;0.000000e+000
5.419220e+002;0.000000e+000
5.438505e+002;0.000000e+000
5.457791e+002;0.000000e+000
5.477076e+002;0.000000e+000
5.496362e+002;0.000000e+000
5.515648e+002;0.000000e+000
5.534933e+002;0.000000e+000
5.554218e+002;0.000000e+000
5.573504e+002;0.000000e+000
5.592789e+002;0.000000e+000
5.612075e+002;0.000000e+000
5.631360e+002;0.000000e+000
5.650646e+002;0.000000e+000
5.669931e+002;0.000000e+000
5.689217e+002;0.000000e+000
5.708502e+002;0.000000e+000
5.727787e+002;0.000000e+000
5.747073e+002;0.000000e+000
5.766359e+002;0.000000e+000
5.785644e+002;0.000000e+000
5.804930e+002;0.000000e+000
5.824215e+002;0.000000e+000
5.843500e+002;0.000000e+000
5.862786e+002;0.000000e+000
5.882072e+002;0.000000e+000
5.901357e+002;0.000000e+000
5.920643e+002;0.000000e+000
5.939928e+002;0.000000e+000
5.959213e+002;0.000000e+000
5.978499e+002;0.000000e+000
5.997784e+002;2.612713e-002
6.017070e+002;3.605647e-002
6.036355e+002;3.685956e-002
6.055641e+002;2.741222e-002
6.074926e+002;2.322573e-002
6.094211e+002;2.362785e-002
6.113497e+002;2.690782e-002
6.132783e+002;3.000123e-002
6.152068e+002;2.792734e-002
6.171354e+002;2.836737e-002
6.190639e+002;3.213221e-002
6.209924e+002;3.186182e-002
6.229210e+002;3.497260e-002
6.248495e+002;3.662867e-002
6.267781e+002;3.382696e-002
6.287067e+002;3.150939e-002
6.306352e+002;3.144609e-002
6.325637e+002;3.007388e-002
6.344923e+002;2.618248e-002
6.364208e+002;2.313122e-002
6.383494e+002;2.647528e-002
6.402780e+002;2.726175e-002
6.422065e+002;2.825961e-002
6.441350e+002;3.079014e-002
6.460636e+002;3.277497e-002
6.479921e+002;3.036512e-002
6.499207e+002;3.092859e-002
6.518492e+002;3.209900e-002
6.537778e+002;3.119563e-002
6.557063e+002;3.106588e-002
6.576349e+002;3.292518e-002
6.595634e+002;3.397094e-002
6.614919e+002;3.240974e-002
6.634205e+002;3.006412e-002
6.653491e+002;2.955426e-002
6.672776e+002;2.892995e-002
6.692062e+002;3.202377e-002
6.711347e+002;3.391644e-002
6.730632e+002;3.211159e-002
6.749918e+002;3.075919e-002
6.769203e+002;3.059068e-002
6.788489e+002;2.929035e-002
6.807775e+002;2.935618e-002
6.827060e+002;3.031112e-002
6.846345e+002;3.121959e-002
6.865631e+002;3.110393e-002
6.884916e+002;3.095809e-002
6.904202e+002;3.057326e-002
6.923488e+002;3.061528e-002
6.942773e+002;3.173483e-002
6.962058e+002;3.262821e-002
6.981344e+002;3.314491e-002
7.000629e+002;3.324735e-002
7.019915e+002;3.300911e-002
7.039200e+002;3.454151e-002
7.058486e+002;3.711363e-002
7.077771e+002;3.980057e-002
7.097057e+002;4.638514e-002
7.116342e+002;5.920475e-002
7.135627e+002;6.630753e-002
7.154913e+002;6.014470e-002
7.174199e+002;4.977686e-002
7.193484e+002;4.357848e-002
7.212770e+002;3.998000e-002
7.232055e+002;3.777827e-002
7.251340e+002;3.662619e-002
7.270626e+002;3.627582e-002
7.289911e+002;3.586977e-002
7.309197e+002;3.577492e-002
7.328483e+002;3.498650e-002
7.347768e+002;3.409887e-002
7.367053e+002;3.432716e-002
7.386339e+002;3.469552e-002
7.405624e+002;3.586113e-002
7.424910e+002;3.707524e-002
7.444196e+002;3.630903e-002
7.463481e+002;3.547262e-002
7.482766e+002;3.600589e-002
7.502052e+002;3.776367e-002
7.521337e+002;3.830939e-002
7.540623e+002;3.798880e-002
7.559908e+002;3.746796e-002
7.579194e+002;3.787067e-002
7.598479e+002;3.829593e-002
7.617765e+002;3.823477e-002
7.637050e+002;3.844813e-002
7.656335e+002;3.882098e-002
7.675621e+002;3.860918e-002
7.694907e+002;3.810869e-002
7.714192e+002;3.791894e-002
7.733478e+002;3.802731e-002
7.752763e+002;3.707303e-002
7.772048e+002;3.661753e-002
7.791334e+002;3.724437e-002
7.810620e+002;3.744637e-002
7.829905e+002;3.848324e-002
7.849191e+002;4.058323e-002
7.868476e+002;4.123378e-002
7.887761e+002;4.163718e-002
7.907047e+002;4.298615e-002
7.926332e+002;4.395627e-002
7.945618e+002;4.460191e-002
7.964903e+002;4.639196e-002
7.984189e+002;4.913669e-002
8.003474e+002;5.093271e-002
8.022759e+002;5.218829e-002
8.042045e+002;5.470983e-002
8.061331e+002;5.750740e-002
8.080616e+002;5.936792e-002
8.099902e+002;5.938760e-002
8.119187e+002;5.756218e-002
8.138472e+002;5.469322e-002
8.157758e+002;5.253020e-002
8.177043e+002;5.155822e-002
8.196329e+002;5.080571e-002
8.215615e+002;4.995250e-002
8.234900e+002;4.887779e-002
8.254185e+002;4.867385e-002
8.273471e+002;4.967944e-002
8.292756e+002;4.994299e-002
8.312042e+002;4.966815e-002
8.331328e+002;5.025798e-002
8.350613e+002;5.178912e-002
8.369898e+002;5.417747e-002
8.389184e+002;5.884894e-002
8.408469e+002;6.373221e-002
8.427755e+002;6.472852e-002
8.447040e+002;6.330677e-002
8.466326e+002;6.270577e-002
8.485611e+002;6.045714e-002
8.504897e+002;5.560993e-002
8.524182e+002;5.208248e-002
8.543467e+002;5.084471e-002
8.562753e+002;5.053692e-002
8.582039e+002;4.986348e-002
8.601324e+002;5.041165e-002
8.620610e+002;5.317101e-002
8.639895e+002;5.685250e-002
8.659180e+002;6.260009e-002
8.678466e+002;7.185181e-002
8.697751e+002;8.531298e-002
8.717037e+002;1.032551e-001
8.736323e+002;1.214245e-001
8.755608e+002;1.299673e-001
8.774893e+002;1.211044e-001
8.794179e+002;1.008574e-001
8.813464e+002;8.319253e-002
8.832750e+002;7.099591e-002
8.852036e+002;6.014824e-002
8.871321e+002;5.282624e-002
8.890606e+002;4.997246e-002
8.909892e+002;4.987002e-002
8.929177e+002;5.131214e-002
8.948463e+002;5.418681e-002
8.967748e+002;5.758419e-002
8.987034e+002;5.976214e-002
9.006319e+002;5.918869e-002
9.025605e+002;5.580844e-002
9.044890e+002;5.119056e-002
9.064175e+002;4.761956e-002
9.083461e+002;4.546225e-002
9.102747e+002;4.378209e-002
9.122032e+002;4.253285e-002
9.141318e+002;4.154795e-002
9.160603e+002;4.104979e-002
9.179888e+002;4.093924e-002
9.199174e+002;4.046676e-002
9.218459e+002;3.959573e-002
9.237745e+002;3.956430e-002
9.257031e+002;3.983696e-002
9.276316e+002;4.005702e-002
9.295601e+002;4.012556e-002
9.314887e+002;4.004311e-002
9.334172e+002;4.067772e-002
9.353458e+002;4.176145e-002
9.372744e+002;4.261939e-002
9.392029e+002;4.331521e-002
9.411314e+002;4.416310e-002
9.430600e+002;4.445059e-002
9.449885e+002;4.445837e-002
9.469171e+002;4.471557e-002
9.488456e+002;4.485137e-002
9.507742e+002;4.527275e-002
9.527027e+002;4.574420e-002
9.546313e+002;4.633876e-002
9.565598e+002;4.718175e-002
9.584883e+002;4.806932e-002
9.604169e+002;4.973821e-002
9.623455e+002;5.249614e-002
9.642740e+002;5.597674e-002
9.662026e+002;6.049868e-002
9.681311e+002;6.667423e-002
9.700596e+002;7.463098e-002
9.719882e+002;8.168830e-002
9.739167e+002;8.432619e-002
9.758453e+002;8.108741e-002
9.777739e+002;7.312290e-002
9.797024e+002;6.360549e-002
9.816309e+002;5.520406e-002
9.835595e+002;4.958045e-002
9.854880e+002;4.672066e-002
9.874166e+002;4.587429e-002
9.893452e+002;4.700663e-002
9.912737e+002;5.038318e-002
9.932022e+002;5.547426e-002
9.951307e+002;6.088460e-002
9.970593e+002;6.527048e-002
9.989879e+002;6.602222e-002
1.000916e+003;6.227422e-002
1.002845e+003;5.658782e-002
1.004773e+003;5.233505e-002
1.006702e+003;4.969508e-002
1.008631e+003;4.763675e-002
1.010559e+003;4.654635e-002
1.012488e+003;4.572233e-002
1.014416e+003;4.498895e-002
1.016345e+003;4.456035e-002
1.018273e+003;4.386429e-002
1.020202e+003;4.315032e-002
1.022130e+003;4.251454e-002
1.024059e+003;4.224699e-002
1.025988e+003;4.289514e-002
1.027916e+003;4.382221e-002
1.029845e+003;4.498924e-002
1.031773e+003;4.651117e-002
1.033702e+003;4.801084e-002
1.035630e+003;4.948125e-002
1.037559e+003;5.052039e-002
1.039487e+003;5.036550e-002
1.041416e+003;4.935424e-002
1.043344e+003;4.791886e-002
1.045273e+003;4.663983e-002
1.047202e+003;4.525260e-002
1.049130e+003;4.314747e-002
1.051059e+003;4.142882e-002
1.052987e+003;4.062561e-002
1.054916e+003;4.001891e-002
1.056844e+003;3.910568e-002
1.058773e+003;3.884051e-002
1.060701e+003;3.869328e-002
1.062630e+003;3.865032e-002
1.064558e+003;3.864866e-002
1.066487e+003;3.844925e-002
1.068416e+003;3.866282e-002
1.070344e+003;3.860795e-002
1.072273e+003;3.814577e-002
1.074201e+003;3.855718e-002
1.076130e+003;3.910760e-002
1.078058e+003;3.974977e-002
1.079987e+003;4.046319e-002
1.081915e+003;4.036519e-002
1.083844e+003;4.042664e-002
1.085773e+003;4.162676e-002
1.087701e+003;4.303535e-002
1.089630e+003;4.374797e-002
1.091558e+003;4.453598e-002
1.093487e+003;4.562034e-002
1.095415e+003;4.658401e-002
1.097344e+003;4.802032e-002
1.099272e+003;4.955980e-002
1.101201e+003;5.072754e-002
1.103129e+003;5.127437e-002
1.105058e+003;5.142578e-002
1.106987e+003;5.069861e-002
1.108915e+003;4.908983e-002
1.110844e+003;4.706191e-002
1.112772e+003;4.515935e-002
1.114701e+003;4.362643e-002
1.116629e+003;4.240018e-002
1.118558e+003;4.109029e-002
1.120486e+003;3.961341e-002
1.122415e+003;3.841816e-002
1.124344e+003;3.779295e-002
1.126272e+003;3.710010e-002
1.128201e+003;3.675696e-002
1.130129e+003;3.754548e-002
1.132058e+003;3.848448e-002
1.133986e+003;3.989932e-002
1.135915e+003;4.165411e-002
1.137843e+003;4.411982e-002
1.139772e+003;4.697857e-002
1.141700e+003;4.979730e-002
1.143629e+003;5.301802e-002
1.145557e+003;5.585339e-002
1.147486e+003;5.880652e-002
1.149415e+003;6.240449e-002
1.151343e+003;6.586309e-002
1.153272e+003;6.793062e-002
1.155200e+003;6.850045e-002
1.157129e+003;6.893863e-002
1.159057e+003;6.950469e-002
1.160986e+003;6.979682e-002
1.162914e+003;6.999842e-002
1.164843e+003;6.997304e-002
1.166771e+003;6.970002e-002
1.168700e+003;6.803419e-002
1.170629e+003;6.444747e-002
1.172557e+003;6.004729e-002
1.174486e+003;5.544666e-002
1.176414e+003;5.107882e-002
1.178343e+003;4.785629e-002
1.180271e+003;4.635911e-002
1.182200e+003;4.561647e-002
1.184128e+003;4.533204e-002
1.186057e+003;4.587734e-002
1.187986e+003;4.669362e-002
1.189914e+003;4.715590e-002
1.191843e+003;4.711719e-002
1.193771e+003;4.691766e-002
1.195700e+003;4.731792e-002
1.197628e+003;4.826523e-002
1.199557e+003;4.863238e-002
1.201485e+003;4.844860e-002
1.203414e+003;4.822621e-002
1.205343e+003;4.781264e-002
1.207271e+003;4.790505e-002
1.209200e+003;4.929790e-002
1.211128e+003;5.140881e-002
1.213057e+003;5.352629e-002
1.214985e+003;5.429415e-002
1.216914e+003;5.293211e-002
1.218842e+003;5.096914e-002
1.220771e+003;4.974122e-002
1.222699e+003;4.932722e-002
1.224628e+003;4.915843e-002
1.226557e+003;4.942634e-002
1.228485e+003;5.007697e-002
1.230414e+003;5.021871e-002
1.232342e+003;5.022287e-002
1.234271e+003;5.069362e-002
1.236199e+003;5.104069e-002
1.238128e+003;5.104550e-002
1.240056e+003;5.121043e-002
1.241985e+003;5.190993e-002
1.243913e+003;5.215429e-002
1.245842e+003;5.247258e-002
1.247771e+003;5.351999e-002
1.249699e+003;5.523747e-002
1.251628e+003;5.773358e-002
1.253556e+003;6.094297e-002
1.255485e+003;6.376237e-002
1.257413e+003;6.438129e-002
1.259342e+003;6.229104e-002
1.261270e+003;5.918968e-002
1.263199e+003;5.685824e-002
1.265127e+003;5.576764e-002
1.267056e+003;5.519650e-002
1.268985e+003;5.413795e-002
1.270913e+003;5.275956e-002
1.272842e+003;5.151837e-002
1.274770e+003;5.086594e-002
1.276699e+003;5.030683e-002
1.278627e+003;4.990909e-002
1.280556e+003;4.996651e-002
1.282484e+003;5.009992e-002
1.284413e+003;5.080214e-002
1.286342e+003;5.218904e-002
1.288270e+003;5.286774e-002
1.290199e+003;5.345089e-002
1.292127e+003;5.477189e-002
1.294056e+003;5.595232e-002
1.295984e+003;5.645879e-002
1.297913e+003;5.669601e-002
1.299841e+003;5.700552e-002
1.301770e+003;5.726705e-002
1.303698e+003;5.741432e-002
1.305627e+003;5.661730e-002
1.307556e+003;5.494114e-002
1.309484e+003;5.354244e-002
1.311413e+003;5.306542e-002
1.313341e+003;5.349113e-002
1.315270e+003;5.443966e-002
1.317198e+003;5.544986e-002
1.319127e+003;5.661685e-002
1.321055e+003;5.768495e-002
1.322984e+003;5.879199e-002
1.324912e+003;6.016643e-002
1.326841e+003;6.162053e-002
1.328770e+003;6.281163e-002
1.330698e+003;6.306503e-002
1.332627e+003;6.297339e-002
1.334555e+003;6.286884e-002
1.336484e+003;6.277239e-002
1.338412e+003;6.307779e-002
1.340341e+003;6.378855e-002
1.342269e+003;6.514566e-002
1.344198e+003;6.716544e-002
1.346126e+003;6.980534e-002
1.348055e+003;7.272977e-002
1.349984e+003;7.619258e-002
1.351912e+003;8.074629e-002
1.353841e+003;8.684064e-002
1.355769e+003;9.387192e-002
1.357698e+003;9.967151e-002
1.359626e+003;1.022809e-001
1.361555e+003;1.024664e-001
1.363483e+003;1.033909e-001
1.365412e+003;1.070173e-001
1.367341e+003;1.151520e-001
1.369269e+003;1.312622e-001
1.371198e+003;1.548978e-001
1.373126e+003;1.815233e-001
1.375055e+003;2.028471e-001
1.376983e+003;2.062537e-001
1.378912e+003;1.886436e-001
1.380840e+003;1.612882e-001
1.382769e+003;1.350020e-001
1.384698e+003;1.142090e-001
1.386626e+003;1.004587e-001
1.388555e+003;9.425215e-002
1.390483e+003;9.292854e-002
1.392412e+003;9.288163e-002
1.394340e+003;9.364281e-002
1.396269e+003;9.633940e-002
1.398197e+003;9.882349e-002
1.400126e+003;1.010057e-001
1.402054e+003;1.035498e-001
1.403983e+003;1.056288e-001
1.405911e+003;1.074743e-001
1.407840e+003;1.094779e-001
1.409769e+003;1.118355e-001
1.411697e+003;1.150053e-001
1.413626e+003;1.186352e-001
1.415554e+003;1.219523e-001
1.417483e+003;1.237259e-001
1.419411e+003;1.261445e-001
1.421340e+003;1.309626e-001
1.423268e+003;1.352011e-001
1.425197e+003;1.387366e-001
1.427125e+003;1.421688e-001
1.429054e+003;1.458982e-001
1.430983e+003;1.508269e-001
1.432911e+003;1.561643e-001
1.434840e+003;1.587778e-001
1.436768e+003;1.588864e-001
1.438697e+003;1.603968e-001
1.440625e+003;1.626704e-001
1.442554e+003;1.660610e-001
1.444482e+003;1.706787e-001
1.446411e+003;1.763376e-001
1.448340e+003;1.825919e-001
1.450268e+003;1.883741e-001
1.452197e+003;1.916464e-001
1.454125e+003;1.909551e-001
1.456054e+003;1.862874e-001
1.457982e+003;1.838480e-001
1.459911e+003;1.824131e-001
1.461839e+003;1.768446e-001
1.463768e+003;1.675241e-001
1.465697e+003;1.579486e-001
1.467625e+003;1.490572e-001
1.469554e+003;1.390875e-001
1.471482e+003;1.281996e-001
1.473411e+003;1.196575e-001
1.475339e+003;1.146057e-001
1.477268e+003;1.106471e-001
1.479196e+003;1.069375e-001
1.481125e+003;1.030468e-001
1.483053e+003;9.994386e-002
1.484982e+003;9.662937e-002
1.486911e+003;9.298543e-002
1.488839e+003;8.969540e-002
1.490768e+003;8.743361e-002
1.492696e+003;8.632077e-002
1.494625e+003;8.400933e-002
1.496553e+003;8.142372e-002
1.498482e+003;8.020604e-002
1.500410e+003;7.928908e-002
1.502339e+003;7.720948e-002
1.504267e+003;7.189837e-002
1.506196e+003;6.659446e-002
1.508125e+003;6.632420e-002
1.510053e+003;6.692367e-002
1.511982e+003;6.570479e-002
1.513910e+003;6.399207e-002
1.515839e+003;6.152332e-002
1.517767e+003;5.951598e-002
1.519696e+003;5.679113e-002
1.521624e+003;5.461724e-002
1.523553e+003;5.525042e-002
1.525481e+003;5.506987e-002
1.527410e+003;5.453432e-002
1.529339e+003;5.398544e-002
1.531267e+003;5.254295e-002
1.533196e+003;5.061554e-002
1.535124e+003;5.047361e-002
1.537053e+003;4.846308e-002
1.538981e+003;4.357979e-002
1.540910e+003;4.299003e-002
1.542838e+003;4.539229e-002
1.544767e+003;4.699822e-002
1.546695e+003;4.834111e-002
1.548624e+003;4.868519e-002
1.550553e+003;4.855356e-002
1.552481e+003;4.771581e-002
1.554410e+003;4.637754e-002
1.556338e+003;4.370953e-002
1.558267e+003;3.882279e-002
1.560195e+003;3.953012e-002
1.562124e+003;4.357584e-002
1.564052e+003;4.416343e-002
1.565981e+003;4.357796e-002
1.567910e+003;4.220383e-002
1.569838e+003;4.094809e-002
1.571767e+003;4.156753e-002
1.573695e+003;4.050615e-002
1.575624e+003;3.754346e-002
1.577552e+003;3.834004e-002
1.579481e+003;4.021482e-002
1.581409e+003;4.017571e-002
1.583338e+003;3.992002e-002
1.585266e+003;3.968515e-002
1.587195e+003;3.947670e-002
1.589124e+003;3.880935e-002
1.591052e+003;3.822464e-002
1.592981e+003;3.782888e-002
1.594909e+003;3.775015e-002
1.596838e+003;3.794295e-002
1.598766e+003;3.793947e-002
1.600695e+003;3.773605e-002
1.602623e+003;3.766089e-002
1.604552e+003;3.791807e-002
1.606480e+003;3.781771e-002
1.608409e+003;3.724083e-002
1.610338e+003;3.724181e-002
1.612266e+003;3.764672e-002
1.614195e+003;3.703605e-002
1.616123e+003;3.572908e-002
1.618052e+003;3.709508e-002
1.619980e+003;3.833516e-002
1.621909e+003;3.706502e-002
1.623837e+003;3.599326e-002
1.625766e+003;3.594020e-002
1.627694e+003;3.569235e-002
1.629623e+003;3.592458e-002
1.631552e+003;3.583407e-002
1.633480e+003;3.377786e-002
1.635409e+003;3.183404e-002
1.637337e+003;3.391014e-002
1.639266e+003;3.589748e-002
1.641194e+003;3.615848e-002
1.643123e+003;3.547183e-002
1.645051e+003;3.328849e-002
1.646980e+003;3.276243e-002
1.648909e+003;3.423928e-002
1.650837e+003;3.155557e-002
1.652766e+003;2.733299e-002
1.654694e+003;3.104275e-002
1.656623e+003;3.525080e-002
1.658551e+003;3.569199e-002
1.660480e+003;3.496119e-002
1.662408e+003;3.413346e-002
1.664337e+003;3.468813e-002
1.666266e+003;3.474875e-002
1.668194e+003;3.304554e-002
1.670123e+003;3.227013e-002
1.672051e+003;3.283658e-002
1.673980e+003;3.207499e-002
1.675908e+003;3.212686e-002
1.677837e+003;3.355877e-002
1.679765e+003;3.329847e-002
1.681694e+003;3.126897e-002
1.683622e+003;2.771068e-002
1.685551e+003;2.850587e-002
1.687479e+003;3.125587e-002
1.689408e+003;3.161433e-002
1.691337e+003;3.162844e-002
1.693265e+003;3.013493e-002
1.695194e+003;2.676969e-002
1.697122e+003;2.654875e-002
1.699051e+003;2.548752e-002
1.700979e+003;2.529726e-002
1.702908e+003;2.789204e-002
1.704836e+003;2.789299e-002
1.706765e+003;2.809242e-002
1.708693e+003;2.851613e-002
1.710622e+003;2.852027e-002
1.712551e+003;2.776055e-002
1.714479e+003;2.591369e-002
1.716408e+003;2.336836e-002
1.718336e+003;2.374266e-002
1.720265e+003;2.618263e-002
1.722193e+003;2.697378e-002
1.724122e+003;2.709170e-002
1.726050e+003;2.735420e-002
1.727979e+003;2.704275e-002
1.729908e+003;2.625967e-002
1.731836e+003;2.396862e-002
1.733765e+003;2.148086e-002
1.735693e+003;2.349199e-002
1.737622e+003;2.503747e-002
1.739550e+003;2.426308e-002
1.741479e+003;2.450277e-002
1.743407e+003;2.426147e-002
1.745336e+003;2.366060e-002
1.747265e+003;2.270236e-002
1.749193e+003;2.133320e-002
1.751122e+003;2.075309e-002
1.753050e+003;2.172355e-002
1.754979e+003;2.158107e-002
1.756907e+003;2.116295e-002
1.758836e+003;2.161143e-002
1.760764e+003;2.103870e-002
1.762693e+003;2.078423e-002
1.764621e+003;2.135499e-002
1.766550e+003;2.049528e-002
1.768479e+003;1.957709e-002
1.770407e+003;1.883720e-002
1.772336e+003;1.795124e-002
1.774264e+003;1.901423e-002
1.776193e+003;2.015178e-002
1.778121e+003;2.024015e-002
1.780050e+003;1.987348e-002
1.781978e+003;2.034778e-002
1.783907e+003;2.075097e-002
1.785835e+003;2.137793e-002
1.787764e+003;2.275627e-002
1.789693e+003;2.413658e-002
1.791621e+003;2.561533e-002
1.793550e+003;2.825112e-002
1.795478e+003;3.069013e-002
1.797407e+003;3.118181e-002
1.799335e+003;3.028511e-002
1.801264e+003;2.855119e-002
1.803192e+003;2.638408e-002
1.805121e+003;2.401529e-002
1.807049e+003;2.193933e-002
1.808978e+003;2.032132e-002
1.810907e+003;1.956762e-002
1.812835e+003;1.951820e-002
1.814764e+003;1.949467e-002
1.816692e+003;1.916301e-002
1.818621e+003;1.893587e-002
1.820549e+003;1.873655e-002
1.822478e+003;1.852357e-002
1.824406e+003;1.803333e-002
1.826335e+003;1.813844e-002
1.828264e+003;1.781793e-002
1.830192e+003;1.747636e-002
1.832121e+003;1.817437e-002
1.834049e+003;1.848357e-002
1.835978e+003;1.829193e-002
1.837906e+003;1.832777e-002
1.839835e+003;1.851088e-002
1.841763e+003;1.768497e-002
1.843692e+003;1.627954e-002
1.845620e+003;1.680042e-002
1.847549e+003;1.770471e-002
1.849478e+003;1.776487e-002
1.851406e+003;1.773570e-002
1.853335e+003;1.761192e-002
1.855263e+003;1.741883e-002
1.857192e+003;1.732579e-002
1.859120e+003;1.729489e-002
1.861049e+003;1.727003e-002
1.862977e+003;1.735331e-002
1.864906e+003;1.711405e-002
1.866834e+003;1.621092e-002
1.868763e+003;1.585677e-002
1.870692e+003;1.671202e-002
1.872620e+003;1.717533e-002
1.874549e+003;1.687885e-002
1.876477e+003;1.665682e-002
1.878406e+003;1.677786e-002
1.880334e+003;1.692773e-002
1.882263e+003;1.696122e-002
1.884191e+003;1.701797e-002
1.886120e+003;1.692908e-002
1.888048e+003;1.655300e-002
1.889977e+003;1.632515e-002
1.891906e+003;1.667759e-002
1.893834e+003;1.680700e-002
1.895763e+003;1.678416e-002
1.897691e+003;1.675861e-002
1.899620e+003;1.685456e-002
1.901548e+003;1.689935e-002
1.903477e+003;1.707083e-002
1.905405e+003;1.698768e-002
1.907334e+003;1.656429e-002
1.909262e+003;1.628105e-002
1.911191e+003;1.635667e-002
1.913120e+003;1.652364e-002
1.915048e+003;1.613003e-002
1.916977e+003;1.550215e-002
1.918905e+003;1.589038e-002
1.920834e+003;1.615444e-002
1.922762e+003;1.584426e-002
1.924691e+003;1.589814e-002
1.926619e+003;1.596558e-002
1.928548e+003;1.590815e-002
1.930477e+003;1.582769e-002
1.932405e+003;1.573763e-002
1.934334e+003;1.572953e-002
1.936262e+003;1.564588e-002
1.938191e+003;1.542520e-002
1.940119e+003;1.525526e-002
1.942048e+003;1.533114e-002
1.943976e+003;1.541892e-002
1.945905e+003;1.538991e-002
1.947833e+003;1.537010e-002
1.949762e+003;1.540629e-002
1.951691e+003;1.537608e-002
1.953619e+003;1.535418e-002
1.955548e+003;1.540941e-002
1.957476e+003;1.540708e-002
1.959405e+003;1.518680e-002
1.961333e+003;1.519991e-002
1.963262e+003;1.523367e-002
1.965190e+003;1.513612e-002
1.967119e+003;1.495614e-002
1.969047e+003;1.479957e-002
1.970976e+003;1.471257e-002
1.972905e+003;1.495408e-002
1.974833e+003;1.521830e-002
1.976762e+003;1.515667e-002
1.978690e+003;1.504140e-002
1.980619e+003;1.488200e-002
1.982547e+003;1.475768e-002
1.984476e+003;1.488834e-002
1.986404e+003;1.492356e-002
1.988333e+003;1.489661e-002
1.990261e+003;1.471820e-002
1.992190e+003;1.465081e-002
1.994119e+003;1.497829e-002
1.996047e+003;1.518103e-002
1.997976e+003;1.487257e-002
1.999904e+003;1.475096e-002
2.001833e+003;1.478336e-002
2.003761e+003;1.462532e-002
2.005690e+003;1.455613e-002
2.007618e+003;1.472694e-002
2.009547e+003;1.486897e-002
2.011476e+003;1.486571e-002
2.013404e+003;1.471463e-002
2.015333e+003;1.466418e-002
2.017261e+003;1.470051e-002
2.019190e+003;1.492531e-002
2.021118e+003;1.487939e-002
2.023047e+003;1.469766e-002
2.024975e+003;1.454061e-002
2.026904e+003;1.438009e-002
2.028833e+003;1.432088e-002
2.030761e+003;1.433570e-002
2.032690e+003;1.438194e-002
2.034618e+003;1.441900e-002
2.036547e+003;1.423712e-002
2.038475e+003;1.429362e-002
2.040404e+003;1.430276e-002
2.042332e+003;1.427027e-002
2.044261e+003;1.435533e-002
2.046189e+003;1.445949e-002
2.048118e+003;1.453030e-002
2.050047e+003;1.457398e-002
2.051975e+003;1.451235e-002
2.053904e+003;1.449104e-002
2.055832e+003;1.453325e-002
2.057761e+003;1.431406e-002
2.059689e+003;1.431386e-002
2.061618e+003;1.448662e-002
2.063546e+003;1.434409e-002
2.065475e+003;1.429204e-002
2.067404e+003;1.414044e-002
2.069332e+003;1.406124e-002
2.071260e+003;1.432269e-002
2.073189e+003;1.446781e-002
2.075118e+003;1.431721e-002
2.077046e+003;1.427828e-002
2.078975e+003;1.452386e-002
2.080903e+003;1.471970e-002
2.082832e+003;1.457721e-002
2.084760e+003;1.454020e-002
2.086689e+003;1.486180e-002
2.088617e+003;1.501142e-002
2.090546e+003;1.504490e-002
2.092475e+003;1.502082e-002
2.094403e+003;1.494571e-002
2.096332e+003;1.504950e-002
2.098260e+003;1.512864e-002
2.100189e+003;1.519181e-002
2.102117e+003;1.512123e-002
2.104046e+003;1.510123e-002
2.105974e+003;1.504535e-002
2.107903e+003;1.488214e-002
2.109832e+003;1.484672e-002
2.111760e+003;1.482950e-002
2.113688e+003;1.478319e-002
2.115617e+003;1.512240e-002
2.117546e+003;1.525811e-002
2.119474e+003;1.527997e-002
2.121403e+003;1.553350e-002
2.123331e+003;1.561716e-002
2.125260e+003;1.579446e-002
2.127188e+003;1.615847e-002
2.129117e+003;1.644410e-002
2.131045e+003;1.649972e-002
2.132974e+003;1.647903e-002
2.134903e+003;1.647163e-002
2.136831e+003;1.636950e-002
2.138760e+003;1.631411e-002
2.140688e+003;1.617680e-002
2.142617e+003;1.600580e-002
2.144545e+003;1.596039e-002
2.146474e+003;1.601096e-002
2.148402e+003;1.591550e-002
2.150331e+003;1.583807e-002
2.152260e+003;1.589251e-002
2.154188e+003;1.582745e-002
2.156117e+003;1.587147e-002
2.158045e+003;1.605840e-002
2.159974e+003;1.604506e-002
2.161902e+003;1.614337e-002
2.163831e+003;1.639988e-002
2.165759e+003;1.660639e-002
2.167688e+003;1.662205e-002
2.169616e+003;1.674177e-002
2.171545e+003;1.687782e-002
2.173474e+003;1.665552e-002
2.175402e+003;1.647717e-002
2.177331e+003;1.669835e-002
2.179259e+003;1.679639e-002
2.181188e+003;1.684519e-002
2.183116e+003;1.681991e-002
2.185045e+003;1.648051e-002
2.186973e+003;1.627606e-002
2.188902e+003;1.631710e-002
2.190831e+003;1.654357e-002
2.192759e+003;1.655303e-002
2.194688e+003;1.631924e-002
2.196616e+003;1.625577e-002
2.198545e+003;1.610018e-002
2.200473e+003;1.581432e-002
2.202402e+003;1.583532e-002
2.204330e+003;1.581518e-002
2.206259e+003;1.587666e-002
2.208188e+003;1.610121e-002
2.210116e+003;1.615228e-002
2.212044e+003;1.593090e-002
2.213973e+003;1.578058e-002
2.215902e+003;1.577618e-002
2.217830e+003;1.588749e-002
2.219759e+003;1.586175e-002
2.221687e+003;1.576636e-002
2.223616e+003;1.565453e-002
2.225544e+003;1.557749e-002
2.227473e+003;1.580381e-002
2.229401e+003;1.597393e-002
2.231330e+003;1.591767e-002
2.233259e+003;1.592523e-002
2.235187e+003;1.589804e-002
2.237116e+003;1.582855e-002
2.239044e+003;1.583405e-002
2.240973e+003;1.575303e-002
2.242901e+003;1.579707e-002
2.244830e+003;1.590306e-002
2.246758e+003;1.593585e-002
2.248687e+003;1.597060e-002
2.250615e+003;1.622577e-002
2.252544e+003;1.637848e-002
2.254473e+003;1.656804e-002
2.256401e+003;1.671887e-002
2.258330e+003;1.647432e-002
2.260258e+003;1.629330e-002
2.262187e+003;1.650939e-002
2.264115e+003;1.637432e-002
2.266044e+003;1.600102e-002
2.267972e+003;1.607102e-002
2.269901e+003;1.609770e-002
2.271830e+003;1.565550e-002
2.273758e+003;1.557955e-002
2.275687e+003;1.562513e-002
2.277615e+003;1.542647e-002
2.279544e+003;1.543990e-002
2.281472e+003;1.542675e-002
2.283401e+003;1.537494e-002
2.285329e+003;1.527860e-002
2.287258e+003;1.527417e-002
2.289187e+003;1.526967e-002
2.291115e+003;1.538284e-002
2.293043e+003;1.529208e-002
2.294972e+003;1.503200e-002
2.296901e+003;1.504494e-002
2.298829e+003;1.513042e-002
2.300758e+003;1.520691e-002
2.302686e+003;1.505705e-002
2.304615e+003;1.467916e-002
2.306543e+003;1.480773e-002
2.308472e+003;1.475652e-002
2.310400e+003;1.415681e-002
2.312329e+003;1.389901e-002
2.314258e+003;1.365697e-002
2.316186e+003;1.319271e-002
2.318115e+003;1.264072e-002
2.320043e+003;1.201459e-002
2.321972e+003;1.156063e-002
2.323900e+003;1.130083e-002
2.325829e+003;1.091740e-002
2.327757e+003;1.036640e-002
2.329686e+003;9.957576e-003
2.331615e+003;9.821546e-003
2.333543e+003;9.897470e-003
2.335472e+003;9.623290e-003
2.337400e+003;9.565094e-003
2.339329e+003;1.010837e-002
2.341257e+003;1.071643e-002
2.343186e+003;1.159411e-002
2.345114e+003;1.277999e-002
2.347043e+003;1.415626e-002
2.348971e+003;1.483489e-002
2.350900e+003;1.402014e-002
2.352829e+003;1.222771e-002
2.354757e+003;1.050297e-002
2.356686e+003;9.406162e-003
2.358614e+003;8.494167e-003
2.360543e+003;8.163233e-003
2.362471e+003;8.222930e-003
2.364400e+003;8.502715e-003
2.366328e+003;9.386322e-003
2.368257e+003;1.061263e-002
2.370186e+003;1.200247e-002
2.372114e+003;1.346088e-002
2.374042e+003;1.448114e-002
2.375971e+003;1.542747e-002
2.377900e+003;1.629526e-002
2.379828e+003;1.674900e-002
2.381757e+003;1.731134e-002
2.383685e+003;1.751103e-002
2.385614e+003;1.767921e-002
2.387542e+003;1.804621e-002
2.389471e+003;1.819576e-002
2.391399e+003;1.811326e-002
2.393328e+003;1.799333e-002
2.395257e+003;1.801457e-002
2.397185e+003;1.824752e-002
2.399114e+003;1.841636e-002
2.401042e+003;1.835926e-002
2.402971e+003;1.829255e-002
2.404899e+003;1.836755e-002
2.406828e+003;1.825955e-002
2.408756e+003;1.832441e-002
2.410685e+003;1.850334e-002
2.412614e+003;1.834273e-002
2.414542e+003;1.814670e-002
2.416471e+003;1.823246e-002
2.418399e+003;1.850469e-002
2.420328e+003;1.858585e-002
2.422256e+003;1.843828e-002
2.424185e+003;1.849615e-002
2.426113e+003;1.865644e-002
2.428042e+003;1.900461e-002
2.429970e+003;1.906827e-002
2.431899e+003;1.869248e-002
2.433828e+003;1.854601e-002
2.435756e+003;1.877544e-002
2.437685e+003;1.901582e-002
2.439613e+003;1.894005e-002
2.441542e+003;1.858993e-002
2.443470e+003;1.799095e-002
2.445399e+003;1.789789e-002
2.447327e+003;1.793200e-002
2.449256e+003;1.790030e-002
2.451185e+003;1.802632e-002
2.453113e+003;1.837356e-002
2.455042e+003;1.849107e-002
2.456970e+003;1.830264e-002
2.458899e+003;1.813640e-002
2.460827e+003;1.805661e-002
2.462756e+003;1.804631e-002
2.464684e+003;1.784137e-002
2.466613e+003;1.809505e-002
2.468542e+003;1.845957e-002
2.470470e+003;1.862037e-002
2.472398e+003;1.868127e-002
2.474327e+003;1.866173e-002
2.476256e+003;1.871604e-002
2.478184e+003;1.912381e-002
2.480113e+003;1.949138e-002
2.482041e+003;1.965429e-002
2.483970e+003;2.018847e-002
2.485898e+003;2.056184e-002
2.487827e+003;2.067187e-002
2.489755e+003;2.125491e-002
2.491684e+003;2.158782e-002
2.493613e+003;2.160151e-002
2.495541e+003;2.197993e-002
2.497470e+003;2.253708e-002
2.499398e+003;2.309488e-002
2.501327e+003;2.399516e-002
2.503255e+003;2.506612e-002
2.505184e+003;2.586027e-002
2.507112e+003;2.637158e-002
2.509041e+003;2.699589e-002
2.510969e+003;2.751729e-002
2.512898e+003;2.771524e-002
2.514827e+003;2.775628e-002
2.516755e+003;2.791356e-002
2.518684e+003;2.830845e-002
2.520612e+003;2.864668e-002
2.522541e+003;2.859175e-002
2.524469e+003;2.831998e-002
2.526398e+003;2.807008e-002
2.528326e+003;2.752248e-002
2.530255e+003;2.693655e-002
2.532184e+003;2.662040e-002
2.534112e+003;2.607301e-002
2.536041e+003;2.540573e-002
2.537969e+003;2.501786e-002
2.539898e+003;2.470155e-002
2.541826e+003;2.457675e-002
2.543755e+003;2.465259e-002
2.545683e+003;2.508641e-002
2.547612e+003;2.554037e-002
2.549541e+003;2.559952e-002
2.551469e+003;2.575425e-002
2.553397e+003;2.601792e-002
2.555326e+003;2.613716e-002
2.557255e+003;2.645218e-002
2.559183e+003;2.698866e-002
2.561112e+003;2.735480e-002
2.563040e+003;2.750702e-002
2.564969e+003;2.780789e-002
2.566897e+003;2.812246e-002
2.568826e+003;2.848623e-002
2.570754e+003;2.897104e-002
2.572683e+003;2.948705e-002
2.574612e+003;3.000500e-002
2.576540e+003;3.041313e-002
2.578469e+003;3.080596e-002
2.580397e+003;3.118018e-002
2.582326e+003;3.132385e-002
2.584254e+003;3.085445e-002
2.586183e+003;3.034597e-002
2.588111e+003;3.006362e-002
2.590040e+003;2.958781e-002
2.591969e+003;2.916900e-002
2.593897e+003;2.913329e-002
2.595826e+003;2.904698e-002
2.597754e+003;2.866190e-002
2.599683e+003;2.833172e-002
2.601611e+003;2.837246e-002
2.603540e+003;2.862487e-002
2.605468e+003;2.900107e-002
2.607397e+003;2.959033e-002
2.609325e+003;2.993364e-002
2.611254e+003;3.000940e-002
2.613183e+003;2.996655e-002
2.615111e+003;2.994468e-002
2.617040e+003;3.009469e-002
2.618968e+003;3.006958e-002
2.620897e+003;2.980125e-002
2.622825e+003;2.954043e-002
2.624754e+003;2.951705e-002
2.626682e+003;2.931208e-002
2.628611e+003;2.884011e-002
2.630540e+003;2.857292e-002
2.632468e+003;2.855672e-002
2.634396e+003;2.859550e-002
2.636325e+003;2.857158e-002
2.638254e+003;2.846076e-002
2.640182e+003;2.858318e-002
2.642111e+003;2.908460e-002
2.644039e+003;2.954511e-002
2.645968e+003;2.977325e-002
2.647896e+003;2.987802e-002
2.649825e+003;3.022713e-002
2.651753e+003;3.075087e-002
2.653682e+003;3.118634e-002
2.655611e+003;3.142083e-002
2.657539e+003;3.147979e-002
2.659468e+003;3.156063e-002
2.661396e+003;3.161714e-002
2.663325e+003;3.171811e-002
2.665253e+003;3.176424e-002
2.667182e+003;3.194473e-002
2.669110e+003;3.205233e-002
2.671039e+003;3.214755e-002
2.672968e+003;3.240581e-002
2.674896e+003;3.260232e-002
2.676825e+003;3.285530e-002
2.678753e+003;3.304822e-002
2.680682e+003;3.287064e-002
2.682610e+003;3.262296e-002
2.684539e+003;3.285352e-002
2.686467e+003;3.340827e-002
2.688396e+003;3.349845e-002
2.690324e+003;3.334809e-002
2.692253e+003;3.342140e-002
2.694182e+003;3.328684e-002
2.696110e+003;3.302138e-002
2.698039e+003;3.310826e-002
2.699967e+003;3.353514e-002
2.701896e+003;3.407124e-002
2.703824e+003;3.491285e-002
2.705753e+003;3.591324e-002
2.707681e+003;3.674625e-002
2.709610e+003;3.759632e-002
2.711539e+003;3.850728e-002
2.713467e+003;3.981753e-002
2.715396e+003;4.131817e-002
2.717324e+003;4.282617e-002
2.719253e+003;4.446010e-002
2.721181e+003;4.557190e-002
2.723110e+003;4.605094e-002
2.725038e+003;4.575616e-002
2.726967e+003;4.469993e-002
2.728896e+003;4.334801e-002
2.730824e+003;4.206005e-002
2.732752e+003;4.092602e-002
2.734681e+003;3.987528e-002
2.736610e+003;3.900135e-002
2.738538e+003;3.813959e-002
2.740467e+003;3.735814e-002
2.742395e+003;3.647340e-002
2.744324e+003;3.568814e-002
2.746252e+003;3.528386e-002
2.748181e+003;3.479423e-002
2.750109e+003;3.433254e-002
2.752038e+003;3.421228e-002
2.753967e+003;3.471501e-002
2.755895e+003;3.507472e-002
2.757824e+003;3.515695e-002
2.759752e+003;3.539888e-002
2.761681e+003;3.581903e-002
2.763609e+003;3.611606e-002
2.765538e+003;3.643920e-002
2.767466e+003;3.685761e-002
2.769395e+003;3.725646e-002
2.771323e+003;3.763881e-002
2.773252e+003;3.830628e-002
2.775181e+003;3.900185e-002
2.777109e+003;3.962594e-002
2.779038e+003;4.047479e-002
2.780966e+003;4.168168e-002
2.782895e+003;4.290052e-002
2.784823e+003;4.424575e-002
2.786752e+003;4.550998e-002
2.788680e+003;4.708673e-002
2.790609e+003;4.903300e-002
2.792538e+003;5.087079e-002
2.794466e+003;5.202776e-002
2.796395e+003;5.293930e-002
2.798323e+003;5.438885e-002
2.800252e+003;5.600071e-002
2.802180e+003;5.768276e-002
2.804109e+003;5.995218e-002
2.806037e+003;6.261528e-002
2.807966e+003;6.498316e-002
2.809895e+003;6.690291e-002
2.811823e+003;6.862182e-002
2.813751e+003;7.061312e-002
2.815680e+003;7.271233e-002
2.817609e+003;7.502738e-002
2.819537e+003;7.779635e-002
2.821466e+003;8.126348e-002
2.823394e+003;8.521443e-002
2.825323e+003;8.983792e-002
2.827251e+003;9.618651e-002
2.829180e+003;1.044263e-001
2.831108e+003;1.136364e-001
2.833037e+003;1.228433e-001
2.834966e+003;1.302311e-001
2.836894e+003;1.343302e-001
2.838823e+003;1.353584e-001
2.840751e+003;1.332461e-001
2.842680e+003;1.283996e-001
2.844608e+003;1.224379e-001
2.846537e+003;1.173080e-001
2.848465e+003;1.131679e-001
2.850394e+003;1.099297e-001
2.852323e+003;1.079834e-001
2.854251e+003;1.072964e-001
2.856180e+003;1.081200e-001
2.858108e+003;1.111097e-001
2.860037e+003;1.165696e-001
2.861965e+003;1.244141e-001
2.863894e+003;1.324740e-001
2.865822e+003;1.387386e-001
2.867751e+003;1.429372e-001
2.869679e+003;1.449373e-001
2.871608e+003;1.458405e-001
2.873536e+003;1.463367e-001
2.875465e+003;1.458493e-001
2.877394e+003;1.445363e-001
2.879322e+003;1.433401e-001
2.881251e+003;1.422888e-001
2.883179e+003;1.417183e-001
2.885108e+003;1.421292e-001
2.887036e+003;1.431540e-001
2.888965e+003;1.445687e-001
2.890893e+003;1.467871e-001
2.892822e+003;1.498271e-001
2.894750e+003;1.539939e-001
2.896679e+003;1.587438e-001
2.898608e+003;1.639677e-001
2.900536e+003;1.692237e-001
2.902465e+003;1.741482e-001
2.904393e+003;1.792835e-001
2.906322e+003;1.838928e-001
2.908250e+003;1.875713e-001
2.910179e+003;1.907024e-001
2.912107e+003;1.931163e-001
2.914036e+003;1.946896e-001
2.915965e+003;1.948600e-001
2.917893e+003;1.934091e-001
2.919822e+003;1.908282e-001
2.921750e+003;1.867125e-001
2.923679e+003;1.814591e-001
2.925607e+003;1.756631e-001
2.927536e+003;1.688686e-001
2.929464e+003;1.613097e-001
2.931393e+003;1.536073e-001
2.933322e+003;1.456920e-001
2.935250e+003;1.385147e-001
2.937178e+003;1.333192e-001
2.939107e+003;1.311637e-001
2.941036e+003;1.322846e-001
2.942964e+003;1.368367e-001
2.944893e+003;1.438580e-001
2.946821e+003;1.517738e-001
2.948750e+003;1.587383e-001
2.950678e+003;1.630699e-001
2.952607e+003;1.643324e-001
2.954535e+003;1.627059e-001
2.956464e+003;1.594810e-001
2.958393e+003;1.549620e-001
2.960321e+003;1.496153e-001
2.962250e+003;1.434735e-001
2.964178e+003;1.366782e-001
2.966107e+003;1.293395e-001
2.968035e+003;1.220260e-001
2.969964e+003;1.150239e-001
2.971892e+003;1.086602e-001
2.973821e+003;1.029612e-001
2.975750e+003;9.722701e-002
2.977678e+003;9.200449e-002
2.979607e+003;8.767030e-002
2.981535e+003;8.396599e-002
2.983464e+003;8.040863e-002
2.985392e+003;7.698860e-002
2.987321e+003;7.383256e-002
2.989249e+003;7.117154e-002
2.991178e+003;6.838164e-002
2.993106e+003;6.542608e-002
2.995035e+003;6.265758e-002
2.996964e+003;6.008389e-002
2.998892e+003;5.745210e-002
3.000821e+003;5.491959e-002
3.002749e+003;5.275002e-002
3.004678e+003;5.095938e-002
3.006606e+003;4.900247e-002
3.008535e+003;4.705423e-002
3.010463e+003;4.531273e-002
3.012392e+003;4.358965e-002
3.014321e+003;4.192425e-002
3.016249e+003;4.045774e-002
3.018177e+003;3.914458e-002
3.020106e+003;3.803860e-002
3.022035e+003;3.680272e-002
3.023963e+003;3.577117e-002
3.025892e+003;3.508575e-002
3.027820e+003;3.430177e-002
3.029749e+003;3.320797e-002
3.031677e+003;3.243252e-002
3.033606e+003;3.216115e-002
3.035534e+003;3.164333e-002
3.037463e+003;3.116619e-002
3.039392e+003;3.085580e-002
3.041320e+003;3.056622e-002
3.043249e+003;3.041391e-002
3.045177e+003;2.995789e-002
3.047106e+003;2.916390e-002
3.049034e+003;2.872384e-002
3.050963e+003;2.880311e-002
3.052891e+003;2.872150e-002
3.054820e+003;2.817005e-002
3.056749e+003;2.777539e-002
3.058677e+003;2.750914e-002
3.060606e+003;2.736926e-002
3.062534e+003;2.737661e-002
3.064463e+003;2.720400e-002
3.066391e+003;2.711713e-002
3.068320e+003;2.691473e-002
3.070248e+003;2.656911e-002
3.072177e+003;2.663562e-002
3.074105e+003;2.680038e-002
3.076034e+003;2.659937e-002
3.077963e+003;2.624327e-002
3.079891e+003;2.585932e-002
3.081820e+003;2.584617e-002
3.083748e+003;2.597528e-002
3.085677e+003;2.592663e-002
3.087605e+003;2.583513e-002
3.089534e+003;2.572975e-002
3.091462e+003;2.552628e-002
3.093391e+003;2.554480e-002
3.095320e+003;2.562352e-002
3.097248e+003;2.553886e-002
3.099177e+003;2.518274e-002
3.101105e+003;2.491352e-002
3.103034e+003;2.489338e-002
3.104962e+003;2.506166e-002
3.106891e+003;2.509132e-002
3.108819e+003;2.518369e-002
3.110748e+003;2.534015e-002
3.112677e+003;2.539368e-002
3.114605e+003;2.507542e-002
3.116533e+003;2.459596e-002
3.118462e+003;2.470650e-002
3.120391e+003;2.523208e-002
3.122319e+003;2.525705e-002
3.124248e+003;2.531078e-002
3.126176e+003;2.545238e-002
3.128105e+003;2.527071e-002
3.130033e+003;2.518724e-002
3.131962e+003;2.526639e-002
3.133890e+003;2.543795e-002
3.135819e+003;2.570117e-002
3.137748e+003;2.586498e-002
3.139676e+003;2.600223e-002
3.141605e+003;2.634680e-002
3.143533e+003;2.613990e-002
3.145462e+003;2.585869e-002
3.147390e+003;2.596536e-002
3.149319e+003;2.619367e-002
3.151247e+003;2.639605e-002
3.153176e+003;2.611538e-002
3.155104e+003;2.584033e-002
3.157033e+003;2.564148e-002
3.158962e+003;2.511734e-002
3.160890e+003;2.517657e-002
3.162819e+003;2.578527e-002
3.164747e+003;2.574286e-002
3.166676e+003;2.558996e-002
3.168604e+003;2.573548e-002
3.170533e+003;2.581115e-002
3.172461e+003;2.575471e-002
3.174390e+003;2.571600e-002
3.176319e+003;2.536754e-002
3.178247e+003;2.515441e-002
3.180176e+003;2.547118e-002
3.182104e+003;2.588946e-002
3.184033e+003;2.598446e-002
3.185961e+003;2.594514e-002
3.187890e+003;2.614311e-002
3.189818e+003;2.595745e-002
3.191747e+003;2.606664e-002
3.193676e+003;2.609215e-002
3.195604e+003;2.570391e-002
3.197532e+003;2.565744e-002
3.199461e+003;2.578140e-002
3.201390e+003;2.572036e-002
3.203318e+003;2.550857e-002
3.205247e+003;2.545063e-002
3.207175e+003;2.553854e-002
3.209104e+003;2.522695e-002
3.211032e+003;2.467202e-002
3.212961e+003;2.457787e-002
3.214889e+003;2.484398e-002
3.216818e+003;2.510343e-002
3.218747e+003;2.509592e-002
3.220675e+003;2.470176e-002
3.222604e+003;2.434129e-002
3.224532e+003;2.417707e-002
3.226461e+003;2.420142e-002
3.228389e+003;2.431722e-002
3.230318e+003;2.379236e-002
3.232246e+003;2.323936e-002
3.234175e+003;2.307856e-002
3.236104e+003;2.295408e-002
3.238032e+003;2.257645e-002
3.239961e+003;2.246369e-002
3.241889e+003;2.273902e-002
3.243818e+003;2.243606e-002
3.245746e+003;2.157274e-002
3.247675e+003;2.121942e-002
3.249603e+003;2.131156e-002
3.251532e+003;2.147957e-002
3.253460e+003;2.146923e-002
3.255389e+003;2.135903e-002
3.257318e+003;2.162536e-002
3.259246e+003;2.211532e-002
3.261175e+003;2.227664e-002
3.263103e+003;2.197167e-002
3.265032e+003;2.210723e-002
3.266960e+003;2.201621e-002
3.268889e+003;2.191915e-002
3.270817e+003;2.211637e-002
3.272746e+003;2.184346e-002
3.274675e+003;2.181228e-002
3.276603e+003;2.185489e-002
3.278531e+003;2.182649e-002
3.280460e+003;2.187583e-002
3.282389e+003;2.177277e-002
3.284317e+003;2.169307e-002
3.286246e+003;2.151171e-002
3.288174e+003;2.096411e-002
3.290103e+003;2.106002e-002
3.292031e+003;2.174295e-002
3.293960e+003;2.190110e-002
3.295888e+003;2.132844e-002
3.297817e+003;2.126834e-002
3.299746e+003;2.145712e-002
3.301674e+003;2.153956e-002
3.303603e+003;2.179430e-002
3.305531e+003;2.174877e-002
3.307460e+003;2.142245e-002
3.309388e+003;2.103310e-002
3.311317e+003;2.091745e-002
3.313245e+003;2.149461e-002
3.315174e+003;2.167851e-002
3.317103e+003;2.162916e-002
3.319031e+003;2.126994e-002
3.320960e+003;2.037706e-002
3.322888e+003;2.042338e-002
3.324817e+003;2.106256e-002
3.326745e+003;2.106914e-002
3.328674e+003;2.070708e-002
3.330602e+003;2.056086e-002
3.332531e+003;2.103561e-002
3.334459e+003;2.143473e-002
3.336388e+003;2.120605e-002
3.338317e+003;2.118549e-002
3.340245e+003;2.152386e-002
3.342174e+003;2.136390e-002
3.344102e+003;2.136756e-002
3.346031e+003;2.179130e-002
3.347959e+003;2.153040e-002
3.349888e+003;2.091825e-002
3.351816e+003;2.116302e-002
3.353745e+003;2.160924e-002
3.355674e+003;2.112298e-002
3.357602e+003;2.085316e-002
3.359531e+003;2.083696e-002
3.361459e+003;2.081451e-002
3.363388e+003;2.068310e-002
3.365316e+003;2.050132e-002
3.367245e+003;2.049097e-002
3.369173e+003;2.056611e-002
3.371102e+003;2.035431e-002
3.373031e+003;2.009962e-002
3.374959e+003;2.030685e-002
3.376887e+003;2.052922e-002
3.378816e+003;2.066364e-002
3.380745e+003;2.071858e-002
3.382673e+003;2.022807e-002
3.384602e+003;1.963019e-002
3.386530e+003;1.957781e-002
3.388459e+003;2.008657e-002
3.390387e+003;2.026109e-002
3.392316e+003;1.948330e-002
3.394244e+003;1.927962e-002
3.396173e+003;1.961251e-002
3.398102e+003;1.967959e-002
3.400030e+003;1.986557e-002
3.401959e+003;1.989994e-002
3.403887e+003;1.934249e-002
3.405816e+003;1.884104e-002
3.407744e+003;1.857271e-002
3.409673e+003;1.914095e-002
3.411601e+003;2.000280e-002
3.413530e+003;2.003452e-002
3.415458e+003;1.960152e-002
3.417387e+003;1.943070e-002
3.419316e+003;1.888333e-002
3.421244e+003;1.891496e-002
3.423173e+003;1.937329e-002
3.425101e+003;1.923168e-002
3.427030e+003;1.908641e-002
3.428958e+003;1.921682e-002
3.430887e+003;1.918593e-002
3.432815e+003;1.878938e-002
3.434744e+003;1.857271e-002
3.436673e+003;1.854868e-002
3.438601e+003;1.869688e-002
3.440530e+003;1.851171e-002
3.442458e+003;1.821825e-002
3.444387e+003;1.834989e-002
3.446315e+003;1.802949e-002
3.448244e+003;1.774309e-002
3.450172e+003;1.810946e-002
3.452101e+003;1.818360e-002
3.454030e+003;1.805036e-002
3.455958e+003;1.788888e-002
3.457886e+003;1.765060e-002
3.459815e+003;1.730110e-002
3.461744e+003;1.692739e-002
3.463672e+003;1.703199e-002
3.465601e+003;1.700418e-002
3.467529e+003;1.676698e-002
3.469458e+003;1.650126e-002
3.471386e+003;1.656408e-002
3.473315e+003;1.686662e-002
3.475243e+003;1.667376e-002
3.477172e+003;1.637174e-002
3.479101e+003;1.625033e-002
3.481029e+003;1.627458e-002
3.482958e+003;1.632945e-002
3.484886e+003;1.651686e-002
3.486815e+003;1.619423e-002
3.488743e+003;1.586405e-002
3.490672e+003;1.613096e-002
3.492600e+003;1.619850e-002
3.494529e+003;1.624060e-002
3.496458e+003;1.608429e-002
3.498386e+003;1.562393e-002
3.500315e+003;1.566535e-002
3.502243e+003;1.577986e-002
3.504172e+003;1.578993e-002
3.506100e+003;1.586250e-002
3.508029e+003;1.542579e-002
3.509957e+003;1.504346e-002
3.511886e+003;1.509502e-002
3.513814e+003;1.522149e-002
3.515743e+003;1.512538e-002
3.517672e+003;1.508377e-002
3.519600e+003;1.486941e-002
3.521529e+003;1.453314e-002
3.523457e+003;1.465273e-002
3.525386e+003;1.495164e-002
3.527314e+003;1.475031e-002
3.529243e+003;1.415622e-002
3.531171e+003;1.415705e-002
3.533100e+003;1.498035e-002
3.535029e+003;1.494369e-002
3.536957e+003;1.420942e-002
3.538885e+003;1.413593e-002
3.540814e+003;1.436420e-002
3.542743e+003;1.421922e-002
3.544671e+003;1.398284e-002
3.546600e+003;1.398760e-002
3.548528e+003;1.436180e-002
3.550457e+003;1.445089e-002
3.552385e+003;1.393839e-002
3.554314e+003;1.366459e-002
3.556242e+003;1.382133e-002
3.558171e+003;1.356814e-002
3.560100e+003;1.358616e-002
3.562028e+003;1.359221e-002
3.563957e+003;1.291320e-002
3.565885e+003;1.201245e-002
3.567814e+003;1.205939e-002
3.569742e+003;1.263854e-002
3.571671e+003;1.281535e-002
3.573599e+003;1.311364e-002
3.575528e+003;1.380587e-002
3.577457e+003;1.405713e-002
3.579385e+003;1.356384e-002
3.581314e+003;1.314639e-002
3.583242e+003;1.288835e-002
3.585171e+003;1.223150e-002
3.587099e+003;1.146050e-002
3.589028e+003;1.183900e-002
3.590956e+003;1.268647e-002
3.592885e+003;1.316125e-002
3.594813e+003;1.335966e-002
3.596742e+003;1.324599e-002
3.598671e+003;1.280671e-002
3.600599e+003;1.268401e-002
3.602528e+003;1.288190e-002
3.604456e+003;1.280961e-002
3.606385e+003;1.200073e-002
3.608313e+003;1.144032e-002
3.610242e+003;1.226248e-002
3.612170e+003;1.275259e-002
3.614099e+003;1.308998e-002
3.616028e+003;1.295044e-002
3.617956e+003;1.217632e-002
3.619885e+003;1.252458e-002
3.621813e+003;1.338091e-002
3.623742e+003;1.339045e-002
3.625670e+003;1.268309e-002
3.627599e+003;1.056387e-002
3.629527e+003;1.058631e-002
3.631456e+003;1.236324e-002
3.633385e+003;1.277153e-002
3.635313e+003;1.319971e-002
3.637241e+003;1.361618e-002
3.639170e+003;1.374064e-002
3.641099e+003;1.356448e-002
3.643027e+003;1.345217e-002
3.644956e+003;1.265051e-002
3.646884e+003;1.027787e-002
3.648813e+003;8.511636e-003
3.650741e+003;9.625661e-003
3.652670e+003;1.165476e-002
3.654598e+003;1.149550e-002
3.656527e+003;1.169278e-002
3.658456e+003;1.314066e-002
3.660384e+003;1.318089e-002
3.662313e+003;1.320497e-002
3.664241e+003;1.415821e-002
3.666170e+003;1.389720e-002
3.668098e+003;1.150622e-002
3.670027e+003;1.040702e-002
3.671955e+003;1.201953e-002
3.673884e+003;1.100453e-002
3.675813e+003;1.042663e-002
3.677741e+003;1.296047e-002
3.679669e+003;1.385040e-002
3.681598e+003;1.420525e-002
3.683527e+003;1.462124e-002
3.685455e+003;1.403869e-002
3.687384e+003;1.218913e-002
3.689312e+003;1.263659e-002
3.691241e+003;1.480568e-002
3.693169e+003;1.612862e-002
3.695098e+003;1.638529e-002
3.697026e+003;1.651100e-002
3.698955e+003;1.604441e-002
3.700884e+003;1.509752e-002
3.702812e+003;1.471933e-002
3.704741e+003;1.520207e-002
3.706669e+003;1.482049e-002
3.708598e+003;1.322393e-002
3.710526e+003;1.106941e-002
3.712455e+003;1.109334e-002
3.714383e+003;1.315753e-002
3.716312e+003;1.375449e-002
3.718240e+003;1.354281e-002
3.720169e+003;1.329621e-002
3.722098e+003;1.277190e-002
3.724026e+003;1.254170e-002
3.725955e+003;1.286353e-002
3.727883e+003;1.342182e-002
3.729812e+003;1.254300e-002
3.731740e+003;1.087224e-002
3.733669e+003;1.051729e-002
3.735597e+003;1.048219e-002
3.737526e+003;1.179167e-002
3.739455e+003;1.319127e-002
3.741383e+003;1.207584e-002
3.743312e+003;8.266256e-003
3.745240e+003;9.144474e-003
3.747169e+003;1.124316e-002
3.749097e+003;9.690573e-003
3.751026e+003;9.498405e-003
3.752954e+003;1.105523e-002
3.754883e+003;1.275706e-002
3.756812e+003;1.333537e-002
3.758740e+003;1.379721e-002
3.760668e+003;1.428348e-002
3.762597e+003;1.477702e-002
3.764526e+003;1.426379e-002
3.766454e+003;1.392088e-002
3.768383e+003;1.334100e-002
3.770311e+003;1.329064e-002
3.772240e+003;1.379294e-002
3.774168e+003;1.424743e-002
3.776097e+003;1.443702e-002
3.778025e+003;1.400125e-002
3.779954e+003;1.390589e-002
3.781883e+003;1.429040e-002
3.783811e+003;1.435834e-002
3.785740e+003;1.452458e-002
3.787668e+003;1.489561e-002
3.789597e+003;1.501962e-002
3.791525e+003;1.475333e-002
3.793454e+003;1.452653e-002
3.795382e+003;1.396864e-002
3.797311e+003;1.390801e-002
3.799240e+003;1.264082e-002
3.801168e+003;1.130407e-002
3.803097e+003;1.300008e-002
3.805025e+003;1.271762e-002
3.806954e+003;1.205486e-002
3.808882e+003;1.390603e-002
3.810811e+003;1.492887e-002
3.812739e+003;1.448456e-002
3.814668e+003;1.220059e-002
3.816596e+003;1.188718e-002
3.818525e+003;1.283401e-002
3.820454e+003;1.174683e-002
3.822382e+003;1.269084e-002
3.824311e+003;1.412720e-002
3.826239e+003;1.413353e-002
3.828168e+003;1.435663e-002
3.830096e+003;1.391123e-002
3.832025e+003;1.331893e-002
3.833953e+003;1.341208e-002
3.835882e+003;1.216443e-002
3.837811e+003;1.084772e-002
3.839739e+003;1.218709e-002
3.841667e+003;1.319121e-002
3.843596e+003;1.366329e-002
3.845525e+003;1.477626e-002
3.847453e+003;1.536204e-002
3.849382e+003;1.384712e-002
3.851310e+003;1.006197e-002
3.853239e+003;7.681032e-003
3.855167e+003;1.122419e-002
3.857096e+003;1.437201e-002
3.859024e+003;1.460510e-002
3.860953e+003;1.398859e-002
3.862882e+003;1.350213e-002
3.864810e+003;1.335313e-002
3.866739e+003;1.406145e-002
3.868667e+003;1.322458e-002
3.870596e+003;1.319134e-002
3.872524e+003;1.413681e-002
3.874453e+003;1.441955e-002
3.876381e+003;1.526552e-002
3.878310e+003;1.534680e-002
3.880239e+003;1.481418e-002
3.882167e+003;1.487164e-002
3.884096e+003;1.417871e-002
3.886024e+003;1.415752e-002
3.887953e+003;1.564007e-002
3.889881e+003;1.483588e-002
3.891810e+003;1.433632e-002
3.893738e+003;1.548646e-002
3.895667e+003;1.593781e-002
3.897595e+003;1.531714e-002
3.899524e+003;1.456525e-002
3.901453e+003;1.405402e-002
3.903381e+003;1.372795e-002
3.905310e+003;1.439430e-002
3.907238e+003;1.558859e-002
3.909167e+003;1.607436e-002
3.911095e+003;1.607735e-002
3.913024e+003;1.622598e-002
3.914952e+003;1.643546e-002
3.916881e+003;1.594764e-002
3.918810e+003;1.559037e-002
3.920738e+003;1.573777e-002
3.922667e+003;1.607439e-002
3.924595e+003;1.645136e-002
3.926524e+003;1.708772e-002
3.928452e+003;1.708637e-002
3.930381e+003;1.668113e-002
3.932309e+003;1.614839e-002
3.934238e+003;1.614712e-002
3.936167e+003;1.660484e-002
3.938095e+003;1.719633e-002
3.940023e+003;1.689359e-002
3.941952e+003;1.688818e-002
3.943881e+003;1.735848e-002
3.945809e+003;1.670045e-002
3.947738e+003;1.608024e-002
3.949666e+003;1.640680e-002
3.951595e+003;1.619850e-002
3.953523e+003;1.626416e-002
3.955452e+003;1.643085e-002
3.957380e+003;1.669373e-002
3.959309e+003;1.719195e-002
3.961238e+003;1.736134e-002
3.963166e+003;1.773315e-002
3.965095e+003;1.738738e-002
3.967023e+003;1.664667e-002
3.968952e+003;1.680614e-002
3.970880e+003;1.723749e-002
3.972809e+003;1.727338e-002
3.974737e+003;1.710977e-002
3.976666e+003;1.691405e-002
3.978594e+003;1.707149e-002
3.980523e+003;1.783871e-002
3.982452e+003;1.821124e-002
3.984380e+003;1.799399e-002
3.986309e+003;1.803440e-002
3.988237e+003;1.862939e-002
3.990166e+003;1.867370e-002
3.992094e+003;1.835504e-002
3.994023e+003;1.863600e-002
3.995951e+003;1.821953e-002
3.997880e+003;1.765022e-002
3.999809e+003;1.800400e-002
4.001737e+003;0.000000e+000
