3.992094e+002;0.000000e+000
4.011380e+002;0.000000e+000
4.030665e+002;0.000000e+000
4.049951e+002;0.000000e+000
4.069236e+002;0.000000e+000
4.088522e+002;0.000000e+000
4.107807e+002;0.000000e+000
4.127093e+002;0.000000e+000
4.146378e+002;0.000000e+000
4.165664e+002;0.000000e+000
4.184949e+002;0.000000e+000
4.204235e+002;0.000000e+000
4.223520e+002;0.000000e+000
4.242806e+002;0.000000e+000
4.262091e+002;0.000000e+000
4.281377e+002;0.000000e+000
4.300662e+002;0.000000e+000
4.319948e+002;0.000000e+000
4.339233e+002;0.000000e+000
4.358519e+002;0.000000e+000
4.377804e+002;0.000000e+000
4.397090e+002;0.000000e+000
4.416375e+002;0.000000e+000
4.435660e+002;0.000000e+000
4.454946e+002;0.000000e+000
4.474232e+002;0.000000e+000
4.493517e+002;0.000000e+000
4.512802e+002;0.000000e+000
4.532088e+002;0.000000e+000
4.551373e+002;0.000000e+000
4.570659e+002;0.000000e+000
4.589944e+002;0.000000e+000
4.609230e+002;0.000000e+000
4.628515e+002;0.000000e+000
4.647801e+002;0.000000e+000
4.667086e+002;0.000000e+000
4.686372e+002;0.000000e+000
4.705657e+002;0.000000e+000
4.724943e+002;0.000000e+000
4.744228e+002;0.000000e+000
4.763513e+002;0.000000e+000
4.782799e+002;0.000000e+000
4.802085e+002;0.000000e+000
4.821370e+002;0.000000e+000
4.840656e+002;0.000000e+000
4.859941e+002;0.000000e+000
4.879226e+002;0.000000e+000
4.898512e+002;0.000000e+000
4.917798e+002;0.000000e+000
4.937083e+002;0.000000e+000
4.956368e+002;0.000000e+000
4.975654e+002;0.000000e+000
4.994939e+002;0.000000e+000
5.014225e+002;0.000000e+000
5.033510e+002;0.000000e+000
5.052796e+002;0.000000e+000
5.072081e+002;0.000000e+000
5.091367e+002;0.000000e+000
5.110652e+002;0.000000e+000
5.129938e+002;0.000000e+000
5.149223e+002;0.000000e+000
5.168509e+002;0.000000e+000
5.187794e+002;0.000000e+000
5.207079e+002;0.000000e+000
5.226365e+002;0.000000e+000
5.245651e+002;0.000000e+000
5.264936e+002;0.000000e+000
5.284222e+002;0.000000e+000
5.303507e+002;0.000000e+000
5.322792e+002;0.000000e+000
5.342078e+002;0.000000e+000
5.361364e+002;0.000000e+000
5.380649e+002;0.000000e+000
5.399935e+002;0.000000e+000
5.419220e+002;0.000000e+000
5.438505e+002;0.000000e+000
5.457791e+002;0.000000e+000
5.477076e+002;0.000000e+000
5.496362e+002;0.000000e+000
5.515648e+002;0.000000e+000
5.534933e+002;0.000000e+000
5.554218e+002;0.000000e+000
5.573504e+002;0.000000e+000
5.592789e+002;0.000000e+000
5.612075e+002;0.000000e+000
5.631360e+002;0.000000e+000
5.650646e+002;0.000000e+000
5.669931e+002;0.000000e+000
5.689217e+002;0.000000e+000
5.708502e+002;0.000000e+000
5.727787e+002;0.000000e+000
5.747073e+002;0.000000e+000
5.766359e+002;0.000000e+000
5.785644e+002;0.000000e+000
5.804930e+002;0.000000e+000
5.824215e+002;0.000000e+000
5.843500e+002;0.000000e+000
5.862786e+002;0.000000e+000
5.882072e+002;0.000000e+000
5.901357e+002;0.000000e+000
5.920643e+002;0.000000e+000
5.939928e+002;0.000000e+000
5.959213e+002;0.000000e+000
5.978499e+002;0.000000e+000
5.997784e+002;3.123141e-002
6.017070e+002;2.547979e-002
6.036355e+002;2.535662e-002
6.055641e+002;3.199698e-002
6.074926e+002;3.780430e-002
6.094211e+002;3.586829e-002
6.113497e+002;3.208790e-002
6.132783e+002;3.029314e-002
6.152068e+002;3.211669e-002
6.171354e+002;3.308759e-002
6.190639e+002;3.455848e-002
6.209924e+002;3.489845e-002
6.229210e+002;3.479602e-002
6.248495e+002;3.619060e-002
6.267781e+002;3.783513e-002
6.287067e+002;3.614742e-002
6.306352e+002;3.318297e-002
6.325637e+002;3.131377e-002
6.344923e+002;2.988650e-002
6.364208e+002;2.915983e-002
6.383494e+002;2.829900e-002
6.402780e+002;3.048279e-002
6.422065e+002;3.300968e-002
6.441350e+002;3.127275e-002
6.460636e+002;3.139921e-002
6.479921e+002;3.124038e-002
6.499207e+002;3.121756e-002
6.518492e+002;3.014128e-002
6.537778e+002;2.927990e-002
6.557063e+002;2.882233e-002
6.576349e+002;2.924162e-002
6.595634e+002;3.048439e-002
6.614919e+002;3.237607e-002
6.634205e+002;3.320013e-002
6.653491e+002;3.009320e-002
6.672776e+002;2.751133e-002
6.692062e+002;2.797815e-002
6.711347e+002;2.930219e-002
6.730632e+002;3.002318e-002
6.749918e+002;2.815046e-002
6.769203e+002;2.747871e-002
6.788489e+002;2.899937e-002
6.807775e+002;3.059847e-002
6.827060e+002;3.048208e-002
6.846345e+002;2.859171e-002
6.865631e+002;2.815043e-002
6.884916e+002;2.790303e-002
6.904202e+002;2.703820e-002
6.923488e+002;2.651723e-002
6.942773e+002;2.572384e-002
6.962058e+002;2.622021e-002
6.981344e+002;2.719624e-002
7.000629e+002;2.726592e-002
7.019915e+002;2.725258e-002
7.039200e+002;2.711032e-002
7.058486e+002;2.699360e-002
7.077771e+002;2.719920e-002
7.097057e+002;2.700400e-002
7.116342e+002;2.734322e-002
7.135627e+002;2.728885e-002
7.154913e+002;2.651730e-002
7.174199e+002;2.837688e-002
7.193484e+002;3.021825e-002
7.212770e+002;2.983866e-002
7.232055e+002;2.885636e-002
7.251340e+002;2.763200e-002
7.270626e+002;2.714612e-002
7.289911e+002;2.690236e-002
7.309197e+002;2.684120e-002
7.328483e+002;2.647373e-002
7.347768e+002;2.604226e-002
7.367053e+002;2.579384e-002
7.386339e+002;2.526794e-002
7.405624e+002;2.566788e-002
7.424910e+002;2.535125e-002
7.444196e+002;2.498325e-002
7.463481e+002;2.496374e-002
7.482766e+002;2.430716e-002
7.502052e+002;2.426031e-002
7.521337e+002;2.512590e-002
7.540623e+002;2.564391e-002
7.559908e+002;2.455504e-002
7.579194e+002;2.337413e-002
7.598479e+002;2.340589e-002
7.617765e+002;2.440059e-002
7.637050e+002;2.451599e-002
7.656335e+002;2.495437e-002
7.675621e+002;2.520395e-002
7.694907e+002;2.521013e-002
7.714192e+002;2.462752e-002
7.733478e+002;2.388060e-002
7.752763e+002;2.423442e-002
7.772048e+002;2.407854e-002
7.791334e+002;2.398136e-002
7.810620e+002;2.495117e-002
7.829905e+002;2.565269e-002
7.849191e+002;2.606562e-002
7.868476e+002;2.670647e-002
7.887761e+002;2.742594e-002
7.907047e+002;2.833172e-002
7.926332e+002;2.954199e-002
7.945618e+002;3.124654e-002
7.964903e+002;3.333721e-002
7.984189e+002;3.421669e-002
8.003474e+002;3.570886e-002
8.022759e+002;3.765547e-002
8.042045e+002;4.023122e-002
8.061331e+002;4.311427e-002
8.080616e+002;4.517487e-002
8.099902e+002;4.562869e-002
8.119187e+002;4.480127e-002
8.138472e+002;4.229904e-002
8.157758e+002;3.888395e-002
8.177043e+002;3.630089e-002
8.196329e+002;3.477039e-002
8.215615e+002;3.329625e-002
8.234900e+002;3.260628e-002
8.254185e+002;3.282446e-002
8.273471e+002;3.281153e-002
8.292756e+002;3.248565e-002
8.312042e+002;3.338072e-002
8.331328e+002;3.556783e-002
8.350613e+002;3.778340e-002
8.369898e+002;3.998004e-002
8.389184e+002;4.520138e-002
8.408469e+002;5.038117e-002
8.427755e+002;5.018999e-002
8.447040e+002;4.584913e-002
8.466326e+002;4.080705e-002
8.485611e+002;3.667507e-002
8.504897e+002;3.379114e-002
8.524182e+002;3.247879e-002
8.543467e+002;3.196641e-002
8.562753e+002;3.114732e-002
8.582039e+002;3.021186e-002
8.601324e+002;2.939121e-002
8.620610e+002;2.928195e-002
8.639895e+002;2.939961e-002
8.659180e+002;2.899119e-002
8.678466e+002;2.877439e-002
8.697751e+002;2.899802e-002
8.717037e+002;2.976747e-002
8.736323e+002;3.000805e-002
8.755608e+002;2.959395e-002
8.774893e+002;2.895099e-002
8.794179e+002;2.797529e-002
8.813464e+002;2.745997e-002
8.832750e+002;2.720524e-002
8.852036e+002;2.762526e-002
8.871321e+002;2.867644e-002
8.890606e+002;2.899802e-002
8.909892e+002;3.025925e-002
8.929177e+002;3.329879e-002
8.948463e+002;3.729567e-002
8.967748e+002;4.193417e-002
8.987034e+002;4.469464e-002
9.006319e+002;4.400269e-002
9.025605e+002;4.010866e-002
9.044890e+002;3.500830e-002
9.064175e+002;3.074941e-002
9.083461e+002;2.783067e-002
9.102747e+002;2.589818e-002
9.122032e+002;2.476827e-002
9.141318e+002;2.428680e-002
9.160603e+002;2.381903e-002
9.179888e+002;2.358304e-002
9.199174e+002;2.375498e-002
9.218459e+002;2.381875e-002
9.237745e+002;2.362400e-002
9.257031e+002;2.373234e-002
9.276316e+002;2.434175e-002
9.295601e+002;2.431928e-002
9.314887e+002;2.448945e-002
9.334172e+002;2.558384e-002
9.353458e+002;2.701909e-002
9.372744e+002;2.810376e-002
9.392029e+002;2.918928e-002
9.411314e+002;3.021292e-002
9.430600e+002;3.063242e-002
9.449885e+002;3.051834e-002
9.469171e+002;3.028355e-002
9.488456e+002;3.032572e-002
9.507742e+002;3.118833e-002
9.527027e+002;3.214934e-002
9.546313e+002;3.308351e-002
9.565598e+002;3.400695e-002
9.584883e+002;3.486847e-002
9.604169e+002;3.672923e-002
9.623455e+002;3.960858e-002
9.642740e+002;4.264754e-002
9.662026e+002;4.699567e-002
9.681311e+002;5.399932e-002
9.700596e+002;6.251269e-002
9.719882e+002;6.937422e-002
9.739167e+002;7.179829e-002
9.758453e+002;6.821521e-002
9.777739e+002;6.029653e-002
9.797024e+002;5.124499e-002
9.816309e+002;4.382768e-002
9.835595e+002;3.861038e-002
9.854880e+002;3.595884e-002
9.874166e+002;3.609298e-002
9.893452e+002;3.766707e-002
9.912737e+002;4.085845e-002
9.932022e+002;4.636537e-002
9.951307e+002;5.303389e-002
9.970593e+002;5.786632e-002
9.989879e+002;5.810424e-002
1.000916e+003;5.366442e-002
1.002845e+003;4.729387e-002
1.004773e+003;4.213697e-002
1.006702e+003;3.868679e-002
1.008631e+003;3.677654e-002
1.010559e+003;3.556614e-002
1.012488e+003;3.440003e-002
1.014416e+003;3.364956e-002
1.016345e+003;3.311934e-002
1.018273e+003;3.237761e-002
1.020202e+003;3.230547e-002
1.022130e+003;3.264375e-002
1.024059e+003;3.289312e-002
1.025988e+003;3.281778e-002
1.027916e+003;3.231225e-002
1.029845e+003;3.266962e-002
1.031773e+003;3.416080e-002
1.033702e+003;3.604236e-002
1.035630e+003;3.769818e-002
1.037559e+003;3.853585e-002
1.039487e+003;3.889479e-002
1.041416e+003;3.962448e-002
1.043344e+003;3.974599e-002
1.045273e+003;3.897028e-002
1.047202e+003;3.812175e-002
1.049130e+003;3.719993e-002
1.051059e+003;3.624131e-002
1.052987e+003;3.553191e-002
1.054916e+003;3.502389e-002
1.056844e+003;3.453200e-002
1.058773e+003;3.401788e-002
1.060701e+003;3.359381e-002
1.062630e+003;3.366438e-002
1.064558e+003;3.407468e-002
1.066487e+003;3.388041e-002
1.068416e+003;3.352573e-002
1.070344e+003;3.395120e-002
1.072273e+003;3.432723e-002
1.074201e+003;3.430450e-002
1.076130e+003;3.389989e-002
1.078058e+003;3.401096e-002
1.079987e+003;3.492204e-002
1.081915e+003;3.533770e-002
1.083844e+003;3.532537e-002
1.085773e+003;3.621966e-002
1.087701e+003;3.699199e-002
1.089630e+003;3.788936e-002
1.091558e+003;3.826398e-002
1.093487e+003;3.882728e-002
1.095415e+003;4.004976e-002
1.097344e+003;4.162701e-002
1.099272e+003;4.322183e-002
1.101201e+003;4.424219e-002
1.103129e+003;4.414520e-002
1.105058e+003;4.339386e-002
1.106987e+003;4.209535e-002
1.108915e+003;4.035326e-002
1.110844e+003;3.867133e-002
1.112772e+003;3.730690e-002
1.114701e+003;3.670042e-002
1.116629e+003;3.630470e-002
1.118558e+003;3.565088e-002
1.120486e+003;3.491694e-002
1.122415e+003;3.461201e-002
1.124344e+003;3.429324e-002
1.126272e+003;3.412109e-002
1.128201e+003;3.433433e-002
1.130129e+003;3.480654e-002
1.132058e+003;3.560308e-002
1.133986e+003;3.696569e-002
1.135915e+003;3.852897e-002
1.137843e+003;4.013508e-002
1.139772e+003;4.315449e-002
1.141700e+003;4.656859e-002
1.143629e+003;5.038418e-002
1.145557e+003;5.401091e-002
1.147486e+003;5.704232e-002
1.149415e+003;6.035760e-002
1.151343e+003;6.371802e-002
1.153272e+003;6.555634e-002
1.155200e+003;6.608907e-002
1.157129e+003;6.633185e-002
1.159057e+003;6.654444e-002
1.160986e+003;6.670243e-002
1.162914e+003;6.741946e-002
1.164843e+003;6.815268e-002
1.166771e+003;6.780282e-002
1.168700e+003;6.568425e-002
1.170629e+003;6.206695e-002
1.172557e+003;5.740600e-002
1.174486e+003;5.228436e-002
1.176414e+003;4.783399e-002
1.178343e+003;4.452012e-002
1.180271e+003;4.228548e-002
1.182200e+003;4.073852e-002
1.184128e+003;3.959033e-002
1.186057e+003;3.887609e-002
1.187986e+003;3.868212e-002
1.189914e+003;3.853878e-002
1.191843e+003;3.838854e-002
1.193771e+003;3.834236e-002
1.195700e+003;3.805838e-002
1.197628e+003;3.774943e-002
1.199557e+003;3.770758e-002
1.201485e+003;3.734529e-002
1.203414e+003;3.697680e-002
1.205343e+003;3.704276e-002
1.207271e+003;3.725376e-002
1.209200e+003;3.789377e-002
1.211128e+003;3.896709e-002
1.213057e+003;4.021112e-002
1.214985e+003;4.129856e-002
1.216914e+003;4.120022e-002
1.218842e+003;4.048527e-002
1.220771e+003;3.974897e-002
1.222699e+003;3.895136e-002
1.224628e+003;3.813937e-002
1.226557e+003;3.767469e-002
1.228485e+003;3.750658e-002
1.230414e+003;3.752609e-002
1.232342e+003;3.745168e-002
1.234271e+003;3.772265e-002
1.236199e+003;3.825493e-002
1.238128e+003;3.825782e-002
1.240056e+003;3.822482e-002
1.241985e+003;3.819324e-002
1.243913e+003;3.820525e-002
1.245842e+003;3.885620e-002
1.247771e+003;3.949996e-002
1.249699e+003;4.012316e-002
1.251628e+003;4.242371e-002
1.253556e+003;4.585142e-002
1.255485e+003;4.768312e-002
1.257413e+003;4.713481e-002
1.259342e+003;4.510531e-002
1.261270e+003;4.262487e-002
1.263199e+003;4.045195e-002
1.265127e+003;3.962456e-002
1.267056e+003;3.919814e-002
1.268985e+003;3.858709e-002
1.270913e+003;3.789157e-002
1.272842e+003;3.729199e-002
1.274770e+003;3.717207e-002
1.276699e+003;3.728520e-002
1.278627e+003;3.712233e-002
1.280556e+003;3.697409e-002
1.282484e+003;3.712172e-002
1.284413e+003;3.753988e-002
1.286342e+003;3.810638e-002
1.288270e+003;3.910843e-002
1.290199e+003;4.024376e-002
1.292127e+003;4.095435e-002
1.294056e+003;4.183321e-002
1.295984e+003;4.254166e-002
1.297913e+003;4.231905e-002
1.299841e+003;4.223224e-002
1.301770e+003;4.298238e-002
1.303698e+003;4.343351e-002
1.305627e+003;4.210265e-002
1.307556e+003;3.941857e-002
1.309484e+003;3.716023e-002
1.311413e+003;3.607512e-002
1.313341e+003;3.594736e-002
1.315270e+003;3.667421e-002
1.317198e+003;3.754487e-002
1.319127e+003;3.860610e-002
1.321055e+003;4.034413e-002
1.322984e+003;4.184521e-002
1.324912e+003;4.348218e-002
1.326841e+003;4.537768e-002
1.328770e+003;4.646824e-002
1.330698e+003;4.669675e-002
1.332627e+003;4.632681e-002
1.334555e+003;4.532472e-002
1.336484e+003;4.422535e-002
1.338412e+003;4.384465e-002
1.340341e+003;4.438996e-002
1.342269e+003;4.593859e-002
1.344198e+003;4.788360e-002
1.346126e+003;5.031022e-002
1.348055e+003;5.341296e-002
1.349984e+003;5.722940e-002
1.351912e+003;6.224102e-002
1.353841e+003;6.851865e-002
1.355769e+003;7.523675e-002
1.357698e+003;8.059053e-002
1.359626e+003;8.248862e-002
1.361555e+003;8.168162e-002
1.363483e+003;8.113865e-002
1.365412e+003;8.329792e-002
1.367341e+003;9.046688e-002
1.369269e+003;1.053083e-001
1.371198e+003;1.274105e-001
1.373126e+003;1.527834e-001
1.375055e+003;1.732548e-001
1.376983e+003;1.754886e-001
1.378912e+003;1.561525e-001
1.380840e+003;1.281589e-001
1.382769e+003;1.023908e-001
1.384698e+003;8.235370e-002
1.386626e+003;6.776305e-002
1.388555e+003;5.871290e-002
1.390483e+003;5.344890e-002
1.392412e+003;4.930599e-002
1.394340e+003;4.615244e-002
1.396269e+003;4.487768e-002
1.398197e+003;4.421816e-002
1.400126e+003;4.425632e-002
1.402054e+003;4.479282e-002
1.403983e+003;4.463816e-002
1.405911e+003;4.468314e-002
1.407840e+003;4.570625e-002
1.409769e+003;4.635442e-002
1.411697e+003;4.662972e-002
1.413626e+003;4.684805e-002
1.415554e+003;4.703927e-002
1.417483e+003;4.639697e-002
1.419411e+003;4.644347e-002
1.421340e+003;4.892451e-002
1.423268e+003;5.096005e-002
1.425197e+003;5.352138e-002
1.427125e+003;5.746568e-002
1.429054e+003;6.266776e-002
1.430983e+003;7.107544e-002
1.432911e+003;8.109156e-002
1.434840e+003;8.719552e-002
1.436768e+003;8.901440e-002
1.438697e+003;9.150717e-002
1.440625e+003;9.534621e-002
1.442554e+003;1.006020e-001
1.444482e+003;1.075498e-001
1.446411e+003;1.164621e-001
1.448340e+003;1.262080e-001
1.450268e+003;1.351441e-001
1.452197e+003;1.409544e-001
1.454125e+003;1.427638e-001
1.456054e+003;1.403701e-001
1.457982e+003;1.395333e-001
1.459911e+003;1.393195e-001
1.461839e+003;1.349143e-001
1.463768e+003;1.270996e-001
1.465697e+003;1.180977e-001
1.467625e+003;1.083612e-001
1.469554e+003;9.687663e-002
1.471482e+003;8.435640e-002
1.473411e+003;7.450293e-002
1.475339e+003;6.805690e-002
1.477268e+003;6.225743e-002
1.479196e+003;5.720037e-002
1.481125e+003;5.236091e-002
1.483053e+003;4.844404e-002
1.484982e+003;4.497303e-002
1.486911e+003;4.136948e-002
1.488839e+003;3.818195e-002
1.490768e+003;3.671318e-002
1.492696e+003;3.631364e-002
1.494625e+003;3.422691e-002
1.496553e+003;3.199619e-002
1.498482e+003;3.186652e-002
1.500410e+003;3.185102e-002
1.502339e+003;3.084851e-002
1.504267e+003;2.728701e-002
1.506196e+003;2.341375e-002
1.508125e+003;2.429360e-002
1.510053e+003;2.603136e-002
1.511982e+003;2.593198e-002
1.513910e+003;2.581301e-002
1.515839e+003;2.493135e-002
1.517767e+003;2.402037e-002
1.519696e+003;2.226018e-002
1.521624e+003;2.088184e-002
1.523553e+003;2.242207e-002
1.525481e+003;2.339564e-002
1.527410e+003;2.417872e-002
1.529339e+003;2.504436e-002
1.531267e+003;2.484026e-002
1.533196e+003;2.415749e-002
1.535124e+003;2.536632e-002
1.537053e+003;2.467395e-002
1.538981e+003;2.179831e-002
1.540910e+003;2.248428e-002
1.542838e+003;2.541799e-002
1.544767e+003;2.743879e-002
1.546695e+003;2.892258e-002
1.548624e+003;2.893207e-002
1.550553e+003;2.871584e-002
1.552481e+003;2.799674e-002
1.554410e+003;2.650374e-002
1.556338e+003;2.386632e-002
1.558267e+003;1.948105e-002
1.560195e+003;2.057195e-002
1.562124e+003;2.464120e-002
1.564052e+003;2.534643e-002
1.565981e+003;2.504555e-002
1.567910e+003;2.430702e-002
1.569838e+003;2.387983e-002
1.571767e+003;2.504120e-002
1.573695e+003;2.427272e-002
1.575624e+003;2.178970e-002
1.577552e+003;2.314698e-002
1.579481e+003;2.544915e-002
1.581409e+003;2.583516e-002
1.583338e+003;2.571186e-002
1.585266e+003;2.501894e-002
1.587195e+003;2.452759e-002
1.589124e+003;2.429223e-002
1.591052e+003;2.455781e-002
1.592981e+003;2.491941e-002
1.594909e+003;2.470706e-002
1.596838e+003;2.437020e-002
1.598766e+003;2.493552e-002
1.600695e+003;2.549880e-002
1.602623e+003;2.578193e-002
1.604552e+003;2.631638e-002
1.606480e+003;2.664605e-002
1.608409e+003;2.682139e-002
1.610338e+003;2.737939e-002
1.612266e+003;2.796228e-002
1.614195e+003;2.758130e-002
1.616123e+003;2.642063e-002
1.618052e+003;2.826873e-002
1.619980e+003;3.031577e-002
1.621909e+003;2.966560e-002
1.623837e+003;2.956337e-002
1.625766e+003;3.056530e-002
1.627694e+003;3.100933e-002
1.629623e+003;3.155136e-002
1.631552e+003;3.182677e-002
1.633480e+003;3.016877e-002
1.635409e+003;2.812374e-002
1.637337e+003;2.994262e-002
1.639266e+003;3.209800e-002
1.641194e+003;3.244751e-002
1.643123e+003;3.185536e-002
1.645051e+003;3.035578e-002
1.646980e+003;3.027314e-002
1.648909e+003;3.207320e-002
1.650837e+003;2.964765e-002
1.652766e+003;2.546943e-002
1.654694e+003;2.895842e-002
1.656623e+003;3.307147e-002
1.658551e+003;3.365009e-002
1.660480e+003;3.319158e-002
1.662408e+003;3.226100e-002
1.664337e+003;3.242898e-002
1.666266e+003;3.242934e-002
1.668194e+003;3.078558e-002
1.670123e+003;3.028330e-002
1.672051e+003;3.098566e-002
1.673980e+003;3.013933e-002
1.675908e+003;2.987411e-002
1.677837e+003;3.088714e-002
1.679765e+003;3.060295e-002
1.681694e+003;2.868448e-002
1.683622e+003;2.516329e-002
1.685551e+003;2.654953e-002
1.687479e+003;2.975317e-002
1.689408e+003;3.004263e-002
1.691337e+003;3.018238e-002
1.693265e+003;2.941613e-002
1.695194e+003;2.698989e-002
1.697122e+003;2.757890e-002
1.699051e+003;2.757498e-002
1.700979e+003;2.825975e-002
1.702908e+003;3.179183e-002
1.704836e+003;3.313343e-002
1.706765e+003;3.436238e-002
1.708693e+003;3.529953e-002
1.710622e+003;3.560268e-002
1.712551e+003;3.500967e-002
1.714479e+003;3.331238e-002
1.716408e+003;3.106485e-002
1.718336e+003;3.175950e-002
1.720265e+003;3.463161e-002
1.722193e+003;3.547503e-002
1.724122e+003;3.529730e-002
1.726050e+003;3.557726e-002
1.727979e+003;3.581878e-002
1.729908e+003;3.609525e-002
1.731836e+003;3.485267e-002
1.733765e+003;3.330988e-002
1.735693e+003;3.625619e-002
1.737622e+003;3.882196e-002
1.739550e+003;3.876080e-002
1.741479e+003;3.884464e-002
1.743407e+003;3.785697e-002
1.745336e+003;3.616906e-002
1.747265e+003;3.396391e-002
1.749193e+003;3.077797e-002
1.751122e+003;2.748351e-002
1.753050e+003;2.602446e-002
1.754979e+003;2.402776e-002
1.756907e+003;2.138900e-002
1.758836e+003;1.951744e-002
1.760764e+003;1.733965e-002
1.762693e+003;1.604510e-002
1.764621e+003;1.568906e-002
1.766550e+003;1.439944e-002
1.768479e+003;1.309298e-002
1.770407e+003;1.170289e-002
1.772336e+003;1.049475e-002
1.774264e+003;1.152218e-002
1.776193e+003;1.260552e-002
1.778121e+003;1.242798e-002
1.780050e+003;1.146961e-002
1.781978e+003;1.092453e-002
1.783907e+003;1.038041e-002
1.785835e+003;9.870014e-003
1.787764e+003;9.619767e-003
1.789693e+003;8.564791e-003
1.791621e+003;7.074098e-003
1.793550e+003;7.097067e-003
1.795478e+003;7.808667e-003
1.797407e+003;7.436963e-003
1.799335e+003;6.767062e-003
1.801264e+003;6.393894e-003
1.803192e+003;6.440434e-003
1.805121e+003;6.159353e-003
1.807049e+003;5.841947e-003
1.808978e+003;5.659731e-003
1.810907e+003;5.641134e-003
1.812835e+003;5.768742e-003
1.814764e+003;5.700217e-003
1.816692e+003;5.669265e-003
1.818621e+003;5.793355e-003
1.820549e+003;5.660571e-003
1.822478e+003;5.321189e-003
1.824406e+003;4.999401e-003
1.826335e+003;5.173258e-003
1.828264e+003;4.862034e-003
1.830192e+003;4.761423e-003
1.832121e+003;5.540948e-003
1.834049e+003;5.773880e-003
1.835978e+003;5.733723e-003
1.837906e+003;5.747153e-003
1.839835e+003;5.850343e-003
1.841763e+003;5.160651e-003
1.843692e+003;3.722179e-003
1.845620e+003;4.009647e-003
1.847549e+003;5.053904e-003
1.849478e+003;5.381603e-003
1.851406e+003;5.412736e-003
1.853335e+003;5.608307e-003
1.855263e+003;5.555815e-003
1.857192e+003;5.357249e-003
1.859120e+003;5.279498e-003
1.861049e+003;5.254948e-003
1.862977e+003;5.128832e-003
1.864906e+003;4.703105e-003
1.866834e+003;4.075765e-003
1.868763e+003;3.733074e-003
1.870692e+003;4.449757e-003
1.872620e+003;4.990686e-003
1.874549e+003;4.954188e-003
1.876477e+003;5.133760e-003
1.878406e+003;5.105028e-003
1.880334e+003;4.907203e-003
1.882263e+003;4.792646e-003
1.884191e+003;5.016797e-003
1.886120e+003;5.192036e-003
1.888048e+003;4.779815e-003
1.889977e+003;4.741559e-003
1.891906e+003;5.279632e-003
1.893834e+003;5.289627e-003
1.895763e+003;5.189488e-003
1.897691e+003;5.179462e-003
1.899620e+003;5.060642e-003
1.901548e+003;5.162964e-003
1.903477e+003;5.253874e-003
1.905405e+003;5.022529e-003
1.907334e+003;4.965315e-003
1.909262e+003;4.998261e-003
1.911191e+003;5.102983e-003
1.913120e+003;5.078811e-003
1.915048e+003;4.905159e-003
1.916977e+003;4.364772e-003
1.918905e+003;4.341177e-003
1.920834e+003;4.693659e-003
1.922762e+003;4.658526e-003
1.924691e+003;4.619812e-003
1.926619e+003;4.577819e-003
1.928548e+003;4.569247e-003
1.930477e+003;4.379097e-003
1.932405e+003;4.147949e-003
1.934334e+003;4.095633e-003
1.936262e+003;4.247045e-003
1.938191e+003;4.287834e-003
1.940119e+003;4.038273e-003
1.942048e+003;3.724485e-003
1.943976e+003;3.745874e-003
1.945905e+003;4.001253e-003
1.947833e+003;4.259592e-003
1.949762e+003;4.489160e-003
1.951691e+003;4.543666e-003
1.953619e+003;4.380971e-003
1.955548e+003;4.323105e-003
1.957476e+003;4.160794e-003
1.959405e+003;4.163605e-003
1.961333e+003;4.231788e-003
1.963262e+003;4.081986e-003
1.965190e+003;3.879579e-003
1.967119e+003;3.789892e-003
1.969047e+003;3.882588e-003
1.970976e+003;4.063290e-003
1.972905e+003;3.982393e-003
1.974833e+003;3.909869e-003
1.976762e+003;3.851999e-003
1.978690e+003;3.734010e-003
1.980619e+003;3.887335e-003
1.982547e+003;4.016201e-003
1.984476e+003;4.151595e-003
1.986404e+003;4.197427e-003
1.988333e+003;4.157550e-003
1.990261e+003;3.988312e-003
1.992190e+003;3.735915e-003
1.994119e+003;3.922741e-003
1.996047e+003;4.164407e-003
1.997976e+003;4.127510e-003
1.999904e+003;4.126272e-003
2.001833e+003;4.081886e-003
2.003761e+003;4.090783e-003
2.005690e+003;3.964135e-003
2.007618e+003;3.882855e-003
2.009547e+003;3.925316e-003
2.011476e+003;4.002959e-003
2.013404e+003;4.079645e-003
2.015333e+003;4.077404e-003
2.017261e+003;4.206393e-003
2.019190e+003;4.248718e-003
2.021118e+003;4.213419e-003
2.023047e+003;4.430342e-003
2.024975e+003;4.299881e-003
2.026904e+003;4.098041e-003
2.028833e+003;4.036133e-003
2.030761e+003;4.071618e-003
2.032690e+003;4.309686e-003
2.034618e+003;4.452569e-003
2.036547e+003;4.480388e-003
2.038475e+003;4.584784e-003
2.040404e+003;4.676913e-003
2.042332e+003;4.517517e-003
2.044261e+003;4.421873e-003
2.046189e+003;4.830974e-003
2.048118e+003;5.102513e-003
2.050047e+003;4.828729e-003
2.051975e+003;4.553208e-003
2.053904e+003;4.491469e-003
2.055832e+003;4.542025e-003
2.057761e+003;4.652062e-003
2.059689e+003;4.591984e-003
2.061618e+003;4.526791e-003
2.063546e+003;4.498299e-003
2.065475e+003;4.639604e-003
2.067404e+003;4.757002e-003
2.069332e+003;4.707795e-003
2.071260e+003;4.793450e-003
2.073189e+003;5.002149e-003
2.075118e+003;4.857343e-003
2.077046e+003;4.682674e-003
2.078975e+003;4.811106e-003
2.080903e+003;5.031210e-003
2.082832e+003;5.460346e-003
2.084760e+003;5.893768e-003
2.086689e+003;5.940759e-003
2.088617e+003;5.621297e-003
2.090546e+003;5.474941e-003
2.092475e+003;5.612637e-003
2.094403e+003;5.603038e-003
2.096332e+003;5.506685e-003
2.098260e+003;5.576992e-003
2.100189e+003;5.710154e-003
2.102117e+003;5.824484e-003
2.104046e+003;5.934376e-003
2.105974e+003;5.968102e-003
2.107903e+003;5.837413e-003
2.109832e+003;5.803429e-003
2.111760e+003;5.704313e-003
2.113688e+003;5.783617e-003
2.115617e+003;6.121513e-003
2.117546e+003;6.126116e-003
2.119474e+003;6.183819e-003
2.121403e+003;6.403376e-003
2.123331e+003;6.644913e-003
2.125260e+003;6.833904e-003
2.127188e+003;7.022506e-003
2.129117e+003;7.329218e-003
2.131045e+003;7.401539e-003
2.132974e+003;7.370702e-003
2.134903e+003;7.395945e-003
2.136831e+003;7.302159e-003
2.138760e+003;7.237839e-003
2.140688e+003;7.154529e-003
2.142617e+003;7.059650e-003
2.144545e+003;7.143380e-003
2.146474e+003;7.127380e-003
2.148402e+003;7.056923e-003
2.150331e+003;7.130445e-003
2.152260e+003;7.372926e-003
2.154188e+003;7.454491e-003
2.156117e+003;7.422470e-003
2.158045e+003;7.663664e-003
2.159974e+003;8.007953e-003
2.161902e+003;8.214590e-003
2.163831e+003;8.309079e-003
2.165759e+003;8.432169e-003
2.167688e+003;8.832184e-003
2.169616e+003;9.257849e-003
2.171545e+003;9.317189e-003
2.173474e+003;9.431050e-003
2.175402e+003;9.411072e-003
2.177331e+003;9.227962e-003
2.179259e+003;8.845371e-003
2.181188e+003;8.518934e-003
2.183116e+003;8.507852e-003
2.185045e+003;8.902389e-003
2.186973e+003;9.130938e-003
2.188902e+003;9.166334e-003
2.190831e+003;8.886155e-003
2.192759e+003;8.804388e-003
2.194688e+003;8.983193e-003
2.196616e+003;9.038672e-003
2.198545e+003;8.863768e-003
2.200473e+003;8.787144e-003
2.202402e+003;8.775750e-003
2.204330e+003;8.645566e-003
2.206259e+003;8.616634e-003
2.208188e+003;8.720913e-003
2.210116e+003;8.646614e-003
2.212044e+003;8.295199e-003
2.213973e+003;8.123835e-003
2.215902e+003;8.281791e-003
2.217830e+003;8.556680e-003
2.219759e+003;8.512008e-003
2.221687e+003;8.364101e-003
2.223616e+003;8.636372e-003
2.225544e+003;9.129145e-003
2.227473e+003;9.190497e-003
2.229401e+003;9.089150e-003
2.231330e+003;9.083432e-003
2.233259e+003;9.029571e-003
2.235187e+003;8.818928e-003
2.237116e+003;8.915443e-003
2.239044e+003;9.028556e-003
2.240973e+003;8.920685e-003
2.242901e+003;8.700292e-003
2.244830e+003;8.729804e-003
2.246758e+003;9.093177e-003
2.248687e+003;9.302023e-003
2.250615e+003;9.520453e-003
2.252544e+003;9.794637e-003
2.254473e+003;1.003803e-002
2.256401e+003;1.006723e-002
2.258330e+003;9.975579e-003
2.260258e+003;9.723441e-003
2.262187e+003;9.413408e-003
2.264115e+003;9.492648e-003
2.266044e+003;9.696029e-003
2.267972e+003;9.400914e-003
2.269901e+003;9.085123e-003
2.271830e+003;8.946662e-003
2.273758e+003;8.821329e-003
2.275687e+003;8.902389e-003
2.277615e+003;8.878174e-003
2.279544e+003;8.713510e-003
2.281472e+003;8.573307e-003
2.283401e+003;8.606629e-003
2.285329e+003;8.779334e-003
2.287258e+003;8.703942e-003
2.289187e+003;8.465110e-003
2.291115e+003;8.574490e-003
2.293043e+003;8.683627e-003
2.294972e+003;8.538973e-003
2.296901e+003;8.282939e-003
2.298829e+003;8.385044e-003
2.300758e+003;8.661993e-003
2.302686e+003;8.621974e-003
2.304615e+003;8.512143e-003
2.306543e+003;8.473895e-003
2.308472e+003;8.599870e-003
2.310400e+003;8.831575e-003
2.312329e+003;8.985662e-003
2.314258e+003;9.007921e-003
2.316186e+003;8.910945e-003
2.318115e+003;8.778523e-003
2.320043e+003;8.961781e-003
2.321972e+003;9.247492e-003
2.323900e+003;9.482048e-003
2.325829e+003;9.628642e-003
2.327757e+003;9.803075e-003
2.329686e+003;9.895878e-003
2.331615e+003;1.004532e-002
2.333543e+003;1.014656e-002
2.335472e+003;1.026650e-002
2.337400e+003;1.037013e-002
2.339329e+003;1.029046e-002
2.341257e+003;1.030481e-002
2.343186e+003;1.049499e-002
2.345114e+003;1.058516e-002
2.347043e+003;1.067432e-002
2.348971e+003;1.075719e-002
2.350900e+003;1.077336e-002
2.352829e+003;1.109697e-002
2.354757e+003;1.135576e-002
2.356686e+003;1.141692e-002
2.358614e+003;1.152293e-002
2.360543e+003;1.165091e-002
2.362471e+003;1.172719e-002
2.364400e+003;1.185664e-002
2.366328e+003;1.184009e-002
2.368257e+003;1.158023e-002
2.370186e+003;1.149394e-002
2.372114e+003;1.160817e-002
2.374042e+003;1.172617e-002
2.375971e+003;1.180995e-002
2.377900e+003;1.186280e-002
2.379828e+003;1.176866e-002
2.381757e+003;1.166623e-002
2.383685e+003;1.180233e-002
2.385614e+003;1.184162e-002
2.387542e+003;1.189811e-002
2.389471e+003;1.214303e-002
2.391399e+003;1.204760e-002
2.393328e+003;1.184860e-002
2.395257e+003;1.220372e-002
2.397185e+003;1.255760e-002
2.399114e+003;1.270810e-002
2.401042e+003;1.293876e-002
2.402971e+003;1.275140e-002
2.404899e+003;1.223852e-002
2.406828e+003;1.196585e-002
2.408756e+003;1.206004e-002
2.410685e+003;1.221299e-002
2.412614e+003;1.229465e-002
2.414542e+003;1.230818e-002
2.416471e+003;1.218348e-002
2.418399e+003;1.226694e-002
2.420328e+003;1.259778e-002
2.422256e+003;1.259065e-002
2.424185e+003;1.268364e-002
2.426113e+003;1.301923e-002
2.428042e+003;1.318977e-002
2.429970e+003;1.293569e-002
2.431899e+003;1.265928e-002
2.433828e+003;1.266593e-002
2.435756e+003;1.259754e-002
2.437685e+003;1.225266e-002
2.439613e+003;1.193837e-002
2.441542e+003;1.183283e-002
2.443470e+003;1.191391e-002
2.445399e+003;1.197856e-002
2.447327e+003;1.169553e-002
2.449256e+003;1.137511e-002
2.451185e+003;1.152054e-002
2.453113e+003;1.169040e-002
2.455042e+003;1.165643e-002
2.456970e+003;1.158659e-002
2.458899e+003;1.122126e-002
2.460827e+003;1.119777e-002
2.462756e+003;1.129560e-002
2.464684e+003;1.116523e-002
2.466613e+003;1.126686e-002
2.468542e+003;1.127043e-002
2.470470e+003;1.115228e-002
2.472398e+003;1.140039e-002
2.474327e+003;1.156046e-002
2.476256e+003;1.142760e-002
2.478184e+003;1.160085e-002
2.480113e+003;1.187969e-002
2.482041e+003;1.214197e-002
2.483970e+003;1.238765e-002
2.485898e+003;1.229867e-002
2.487827e+003;1.217101e-002
2.489755e+003;1.213175e-002
2.491684e+003;1.204958e-002
2.493613e+003;1.211772e-002
2.495541e+003;1.202089e-002
2.497470e+003;1.182235e-002
2.499398e+003;1.205656e-002
2.501327e+003;1.235274e-002
2.503255e+003;1.211884e-002
2.505184e+003;1.208317e-002
2.507112e+003;1.228449e-002
2.509041e+003;1.257192e-002
2.510969e+003;1.276286e-002
2.512898e+003;1.285691e-002
2.514827e+003;1.310350e-002
2.516755e+003;1.331429e-002
2.518684e+003;1.345740e-002
2.520612e+003;1.381295e-002
2.522541e+003;1.408291e-002
2.524469e+003;1.442609e-002
2.526398e+003;1.468896e-002
2.528326e+003;1.458893e-002
2.530255e+003;1.455209e-002
2.532184e+003;1.486389e-002
2.534112e+003;1.521696e-002
2.536041e+003;1.540272e-002
2.537969e+003;1.574512e-002
2.539898e+003;1.595840e-002
2.541826e+003;1.606972e-002
2.543755e+003;1.622763e-002
2.545683e+003;1.633231e-002
2.547612e+003;1.673330e-002
2.549541e+003;1.757531e-002
2.551469e+003;1.817569e-002
2.553397e+003;1.834902e-002
2.555326e+003;1.865755e-002
2.557255e+003;1.897889e-002
2.559183e+003;1.897616e-002
2.561112e+003;1.933057e-002
2.563040e+003;1.997866e-002
2.564969e+003;2.016032e-002
2.566897e+003;2.049580e-002
2.568826e+003;2.118720e-002
2.570754e+003;2.183423e-002
2.572683e+003;2.264909e-002
2.574612e+003;2.319560e-002
2.576540e+003;2.361592e-002
2.578469e+003;2.427429e-002
2.580397e+003;2.451031e-002
2.582326e+003;2.438212e-002
2.584254e+003;2.402510e-002
2.586183e+003;2.349576e-002
2.588111e+003;2.272599e-002
2.590040e+003;2.205811e-002
2.591969e+003;2.181235e-002
2.593897e+003;2.176918e-002
2.595826e+003;2.169495e-002
2.597754e+003;2.130909e-002
2.599683e+003;2.123278e-002
2.601611e+003;2.138005e-002
2.603540e+003;2.160854e-002
2.605468e+003;2.207659e-002
2.607397e+003;2.259645e-002
2.609325e+003;2.291810e-002
2.611254e+003;2.312060e-002
2.613183e+003;2.373038e-002
2.615111e+003;2.408579e-002
2.617040e+003;2.378417e-002
2.618968e+003;2.331386e-002
2.620897e+003;2.344523e-002
2.622825e+003;2.356026e-002
2.624754e+003;2.311749e-002
2.626682e+003;2.251370e-002
2.628611e+003;2.252117e-002
2.630540e+003;2.262521e-002
2.632468e+003;2.244454e-002
2.634396e+003;2.245979e-002
2.636325e+003;2.271852e-002
2.638254e+003;2.285911e-002
2.640182e+003;2.306301e-002
2.642111e+003;2.337004e-002
2.644039e+003;2.347688e-002
2.645968e+003;2.360525e-002
2.647896e+003;2.420247e-002
2.649825e+003;2.493812e-002
2.651753e+003;2.558433e-002
2.653682e+003;2.585507e-002
2.655611e+003;2.599804e-002
2.657539e+003;2.608638e-002
2.659468e+003;2.648338e-002
2.661396e+003;2.697671e-002
2.663325e+003;2.691642e-002
2.665253e+003;2.681709e-002
2.667182e+003;2.709004e-002
2.669110e+003;2.722721e-002
2.671039e+003;2.713765e-002
2.672968e+003;2.704233e-002
2.674896e+003;2.734633e-002
2.676825e+003;2.740424e-002
2.678753e+003;2.732074e-002
2.680682e+003;2.753053e-002
2.682610e+003;2.745499e-002
2.684539e+003;2.730836e-002
2.686467e+003;2.752665e-002
2.688396e+003;2.765665e-002
2.690324e+003;2.755747e-002
2.692253e+003;2.764348e-002
2.694182e+003;2.761929e-002
2.696110e+003;2.751260e-002
2.698039e+003;2.790932e-002
2.699967e+003;2.841038e-002
2.701896e+003;2.864020e-002
2.703824e+003;2.924516e-002
2.705753e+003;3.016810e-002
2.707681e+003;3.120061e-002
2.709610e+003;3.215298e-002
2.711539e+003;3.323991e-002
2.713467e+003;3.468439e-002
2.715396e+003;3.620137e-002
2.717324e+003;3.769565e-002
2.719253e+003;3.922374e-002
2.721181e+003;4.041348e-002
2.723110e+003;4.101549e-002
2.725038e+003;4.069795e-002
2.726967e+003;3.963773e-002
2.728896e+003;3.838677e-002
2.730824e+003;3.697460e-002
2.732752e+003;3.591544e-002
2.734681e+003;3.509764e-002
2.736610e+003;3.404346e-002
2.738538e+003;3.299857e-002
2.740467e+003;3.180131e-002
2.742395e+003;3.079394e-002
2.744324e+003;3.020429e-002
2.746252e+003;2.981687e-002
2.748181e+003;2.953698e-002
2.750109e+003;2.961973e-002
2.752038e+003;2.977812e-002
2.753967e+003;2.971503e-002
2.755895e+003;2.975079e-002
2.757824e+003;2.974731e-002
2.759752e+003;3.002293e-002
2.761681e+003;3.093421e-002
2.763609e+003;3.140452e-002
2.765538e+003;3.144940e-002
2.767466e+003;3.159587e-002
2.769395e+003;3.194012e-002
2.771323e+003;3.227231e-002
2.773252e+003;3.293948e-002
2.775181e+003;3.397312e-002
2.777109e+003;3.486592e-002
2.779038e+003;3.575840e-002
2.780966e+003;3.675742e-002
2.782895e+003;3.798392e-002
2.784823e+003;3.932922e-002
2.786752e+003;4.073022e-002
2.788680e+003;4.233837e-002
2.790609e+003;4.410269e-002
2.792538e+003;4.572281e-002
2.794466e+003;4.701247e-002
2.796395e+003;4.805518e-002
2.798323e+003;4.922434e-002
2.800252e+003;5.057812e-002
2.802180e+003;5.228522e-002
2.804109e+003;5.445153e-002
2.806037e+003;5.691705e-002
2.807966e+003;5.897633e-002
2.809895e+003;6.049892e-002
2.811823e+003;6.217105e-002
2.813751e+003;6.418508e-002
2.815680e+003;6.610733e-002
2.817609e+003;6.816257e-002
2.819537e+003;7.073945e-002
2.821466e+003;7.339134e-002
2.823394e+003;7.665242e-002
2.825323e+003;8.101285e-002
2.827251e+003;8.654196e-002
2.829180e+003;9.376738e-002
2.831108e+003;1.024904e-001
2.833037e+003;1.115147e-001
2.834966e+003;1.188324e-001
2.836894e+003;1.225376e-001
2.838823e+003;1.224417e-001
2.840751e+003;1.199925e-001
2.842680e+003;1.163681e-001
2.844608e+003;1.118263e-001
2.846537e+003;1.072429e-001
2.848465e+003;1.037566e-001
2.850394e+003;1.018279e-001
2.852323e+003;1.011110e-001
2.854251e+003;1.006279e-001
2.856180e+003;1.013242e-001
2.858108e+003;1.044011e-001
2.860037e+003;1.094826e-001
2.861965e+003;1.163681e-001
2.863894e+003;1.239312e-001
2.865822e+003;1.300462e-001
2.867751e+003;1.333236e-001
2.869679e+003;1.339891e-001
2.871608e+003;1.337330e-001
2.873536e+003;1.337550e-001
2.875465e+003;1.335311e-001
2.877394e+003;1.324239e-001
2.879322e+003;1.309878e-001
2.881251e+003;1.296024e-001
2.883179e+003;1.290141e-001
2.885108e+003;1.290816e-001
2.887036e+003;1.295738e-001
2.888965e+003;1.310089e-001
2.890893e+003;1.333365e-001
2.892822e+003;1.363707e-001
2.894750e+003;1.405405e-001
2.896679e+003;1.454222e-001
2.898608e+003;1.503310e-001
2.900536e+003;1.557288e-001
2.902465e+003;1.613282e-001
2.904393e+003;1.673041e-001
2.906322e+003;1.733875e-001
2.908250e+003;1.789217e-001
2.910179e+003;1.829565e-001
2.912107e+003;1.866331e-001
2.914036e+003;1.900012e-001
2.915965e+003;1.911339e-001
2.917893e+003;1.901857e-001
2.919822e+003;1.874509e-001
2.921750e+003;1.834285e-001
2.923679e+003;1.778106e-001
2.925607e+003;1.708887e-001
2.927536e+003;1.637095e-001
2.929464e+003;1.555471e-001
2.931393e+003;1.465177e-001
2.933322e+003;1.382022e-001
2.935250e+003;1.311138e-001
2.937178e+003;1.259284e-001
2.939107e+003;1.235496e-001
2.941036e+003;1.243980e-001
2.942964e+003;1.285405e-001
2.944893e+003;1.355926e-001
2.946821e+003;1.442056e-001
2.948750e+003;1.513101e-001
2.950678e+003;1.547272e-001
2.952607e+003;1.549136e-001
2.954535e+003;1.523818e-001
2.956464e+003;1.485671e-001
2.958393e+003;1.439492e-001
2.960321e+003;1.377289e-001
2.962250e+003;1.304628e-001
2.964178e+003;1.226517e-001
2.966107e+003;1.147843e-001
2.968035e+003;1.070349e-001
2.969964e+003;9.984106e-002
2.971892e+003;9.344053e-002
2.973821e+003;8.788334e-002
2.975750e+003;8.261251e-002
2.977678e+003;7.808252e-002
2.979607e+003;7.425150e-002
2.981535e+003;7.042728e-002
2.983464e+003;6.693449e-002
2.985392e+003;6.406479e-002
2.987321e+003;6.157906e-002
2.989249e+003;5.913105e-002
2.991178e+003;5.682326e-002
2.993106e+003;5.496254e-002
2.995035e+003;5.320206e-002
2.996964e+003;5.117882e-002
2.998892e+003;4.914712e-002
3.000821e+003;4.722312e-002
3.002749e+003;4.498715e-002
3.004678e+003;4.310634e-002
3.006606e+003;4.156783e-002
3.008535e+003;4.001037e-002
3.010463e+003;3.866238e-002
3.012392e+003;3.736327e-002
3.014321e+003;3.600118e-002
3.016249e+003;3.474871e-002
3.018177e+003;3.350526e-002
3.020106e+003;3.249129e-002
3.022035e+003;3.151791e-002
3.023963e+003;3.044259e-002
3.025892e+003;2.935200e-002
3.027820e+003;2.868483e-002
3.029749e+003;2.805682e-002
3.031677e+003;2.758458e-002
3.033606e+003;2.730021e-002
3.035534e+003;2.652579e-002
3.037463e+003;2.575963e-002
3.039392e+003;2.539505e-002
3.041320e+003;2.484583e-002
3.043249e+003;2.429115e-002
3.045177e+003;2.383009e-002
3.047106e+003;2.369188e-002
3.049034e+003;2.372471e-002
3.050963e+003;2.367687e-002
3.052891e+003;2.366155e-002
3.054820e+003;2.338599e-002
3.056749e+003;2.284336e-002
3.058677e+003;2.279021e-002
3.060606e+003;2.253024e-002
3.062534e+003;2.229206e-002
3.064463e+003;2.251695e-002
3.066391e+003;2.224867e-002
3.068320e+003;2.171299e-002
3.070248e+003;2.151456e-002
3.072177e+003;2.154809e-002
3.074105e+003;2.172731e-002
3.076034e+003;2.141764e-002
3.077963e+003;2.111512e-002
3.079891e+003;2.107832e-002
3.081820e+003;2.118226e-002
3.083748e+003;2.131848e-002
3.085677e+003;2.118480e-002
3.087605e+003;2.090583e-002
3.089534e+003;2.079379e-002
3.091462e+003;2.086251e-002
3.093391e+003;2.076254e-002
3.095320e+003;2.056802e-002
3.097248e+003;2.049417e-002
3.099177e+003;2.077186e-002
3.101105e+003;2.114524e-002
3.103034e+003;2.135155e-002
3.104962e+003;2.154444e-002
3.106891e+003;2.140431e-002
3.108819e+003;2.065016e-002
3.110748e+003;2.030699e-002
3.112677e+003;2.046176e-002
3.114605e+003;2.063942e-002
3.116533e+003;2.072317e-002
3.118462e+003;2.057580e-002
3.120391e+003;2.029872e-002
3.122319e+003;2.046753e-002
3.124248e+003;2.057552e-002
3.126176e+003;2.095347e-002
3.128105e+003;2.155457e-002
3.130033e+003;2.151877e-002
3.131962e+003;2.136749e-002
3.133890e+003;2.165225e-002
3.135819e+003;2.208994e-002
3.137748e+003;2.214346e-002
3.139676e+003;2.197540e-002
3.141605e+003;2.189622e-002
3.143533e+003;2.213300e-002
3.145462e+003;2.251035e-002
3.147390e+003;2.263174e-002
3.149319e+003;2.275372e-002
3.151247e+003;2.261118e-002
3.153176e+003;2.200935e-002
3.155104e+003;2.180817e-002
3.157033e+003;2.194480e-002
3.158962e+003;2.219092e-002
3.160890e+003;2.270672e-002
3.162819e+003;2.298217e-002
3.164747e+003;2.278563e-002
3.166676e+003;2.280746e-002
3.168604e+003;2.304928e-002
3.170533e+003;2.316253e-002
3.172461e+003;2.284203e-002
3.174390e+003;2.288607e-002
3.176319e+003;2.314045e-002
3.178247e+003;2.314765e-002
3.180176e+003;2.345393e-002
3.182104e+003;2.350874e-002
3.184033e+003;2.354634e-002
3.185961e+003;2.352885e-002
3.187890e+003;2.346394e-002
3.189818e+003;2.385690e-002
3.191747e+003;2.410295e-002
3.193676e+003;2.370298e-002
3.195604e+003;2.349580e-002
3.197532e+003;2.347016e-002
3.199461e+003;2.356579e-002
3.201390e+003;2.398931e-002
3.203318e+003;2.403158e-002
3.205247e+003;2.392804e-002
3.207175e+003;2.375228e-002
3.209104e+003;2.390420e-002
3.211032e+003;2.426410e-002
3.212961e+003;2.412166e-002
3.214889e+003;2.365234e-002
3.216818e+003;2.346359e-002
3.218747e+003;2.343299e-002
3.220675e+003;2.356646e-002
3.222604e+003;2.317854e-002
3.224532e+003;2.287042e-002
3.226461e+003;2.306249e-002
3.228389e+003;2.259593e-002
3.230318e+003;2.229565e-002
3.232246e+003;2.223751e-002
3.234175e+003;2.160377e-002
3.236104e+003;2.111199e-002
3.238032e+003;2.147825e-002
3.239961e+003;2.172839e-002
3.241889e+003;2.147115e-002
3.243818e+003;2.117426e-002
3.245746e+003;2.111971e-002
3.247675e+003;2.095284e-002
3.249603e+003;2.078374e-002
3.251532e+003;2.084840e-002
3.253460e+003;2.095340e-002
3.255389e+003;2.104722e-002
3.257318e+003;2.089766e-002
3.259246e+003;2.089005e-002
3.261175e+003;2.084034e-002
3.263103e+003;2.093066e-002
3.265032e+003;2.130825e-002
3.266960e+003;2.099933e-002
3.268889e+003;2.030570e-002
3.270817e+003;2.047093e-002
3.272746e+003;2.096241e-002
3.274675e+003;2.125605e-002
3.276603e+003;2.139470e-002
3.278531e+003;2.127551e-002
3.280460e+003;2.091303e-002
3.282389e+003;2.097586e-002
3.284317e+003;2.151749e-002
3.286246e+003;2.195191e-002
3.288174e+003;2.198794e-002
3.290103e+003;2.181378e-002
3.292031e+003;2.156481e-002
3.293960e+003;2.132419e-002
3.295888e+003;2.130561e-002
3.297817e+003;2.133279e-002
3.299746e+003;2.114883e-002
3.301674e+003;2.094537e-002
3.303603e+003;2.095107e-002
3.305531e+003;2.106903e-002
3.307460e+003;2.096710e-002
3.309388e+003;2.112698e-002
3.311317e+003;2.122161e-002
3.313245e+003;2.113251e-002
3.315174e+003;2.116605e-002
3.317103e+003;2.139557e-002
3.319031e+003;2.114455e-002
3.320960e+003;2.071858e-002
3.322888e+003;2.080026e-002
3.324817e+003;2.096720e-002
3.326745e+003;2.120574e-002
3.328674e+003;2.148803e-002
3.330602e+003;2.107473e-002
3.332531e+003;2.054881e-002
3.334459e+003;2.066089e-002
3.336388e+003;2.096891e-002
3.338317e+003;2.121625e-002
3.340245e+003;2.117784e-002
3.342174e+003;2.093254e-002
3.344102e+003;2.085629e-002
3.346031e+003;2.072543e-002
3.347959e+003;2.044280e-002
3.349888e+003;2.061423e-002
3.351816e+003;2.114496e-002
3.353745e+003;2.119781e-002
3.355674e+003;2.059665e-002
3.357602e+003;2.060238e-002
3.359531e+003;2.095667e-002
3.361459e+003;2.076981e-002
3.363388e+003;2.064140e-002
3.365316e+003;2.068397e-002
3.367245e+003;2.076814e-002
3.369173e+003;2.081750e-002
3.371102e+003;2.066082e-002
3.373031e+003;2.044457e-002
3.374959e+003;2.007380e-002
3.376887e+003;1.966725e-002
3.378816e+003;1.956672e-002
3.380745e+003;1.973472e-002
3.382673e+003;1.951335e-002
3.384602e+003;1.913278e-002
3.386530e+003;1.941812e-002
3.388459e+003;2.016046e-002
3.390387e+003;2.002744e-002
3.392316e+003;1.942526e-002
3.394244e+003;1.929773e-002
3.396173e+003;1.921481e-002
3.398102e+003;1.929216e-002
3.400030e+003;1.961723e-002
3.401959e+003;1.970650e-002
3.403887e+003;1.956745e-002
3.405816e+003;1.953868e-002
3.407744e+003;1.956790e-002
3.409673e+003;1.965411e-002
3.411601e+003;1.934502e-002
3.413530e+003;1.921949e-002
3.415458e+003;1.953934e-002
3.417387e+003;1.928447e-002
3.419316e+003;1.877496e-002
3.421244e+003;1.890884e-002
3.423173e+003;1.883388e-002
3.425101e+003;1.820892e-002
3.427030e+003;1.806158e-002
3.428958e+003;1.800062e-002
3.430887e+003;1.774530e-002
3.432815e+003;1.716837e-002
3.434744e+003;1.691040e-002
3.436673e+003;1.734637e-002
3.438601e+003;1.775389e-002
3.440530e+003;1.758583e-002
3.442458e+003;1.689001e-002
3.444387e+003;1.673888e-002
3.446315e+003;1.638702e-002
3.448244e+003;1.593252e-002
3.450172e+003;1.581457e-002
3.452101e+003;1.554270e-002
3.454030e+003;1.537992e-002
3.455958e+003;1.547612e-002
3.457886e+003;1.562654e-002
3.459815e+003;1.598731e-002
3.461744e+003;1.601701e-002
3.463672e+003;1.594857e-002
3.465601e+003;1.571829e-002
3.467529e+003;1.525934e-002
3.469458e+003;1.493625e-002
3.471386e+003;1.463645e-002
3.473315e+003;1.428787e-002
3.475243e+003;1.432084e-002
3.477172e+003;1.425482e-002
3.479101e+003;1.422141e-002
3.481029e+003;1.435070e-002
3.482958e+003;1.404433e-002
3.484886e+003;1.374888e-002
3.486815e+003;1.397062e-002
3.488743e+003;1.414277e-002
3.490672e+003;1.392957e-002
3.492600e+003;1.393422e-002
3.494529e+003;1.325634e-002
3.496458e+003;1.270810e-002
3.498386e+003;1.281401e-002
3.500315e+003;1.258809e-002
3.502243e+003;1.228473e-002
3.504172e+003;1.238308e-002
3.506100e+003;1.252018e-002
3.508029e+003;1.284360e-002
3.509957e+003;1.300776e-002
3.511886e+003;1.287323e-002
3.513814e+003;1.279941e-002
3.515743e+003;1.258526e-002
3.517672e+003;1.224445e-002
3.519600e+003;1.204477e-002
3.521529e+003;1.179215e-002
3.523457e+003;1.158040e-002
3.525386e+003;1.144318e-002
3.527314e+003;1.129213e-002
3.529243e+003;1.143284e-002
3.531171e+003;1.147274e-002
3.533100e+003;1.113178e-002
3.535029e+003;1.091543e-002
3.536957e+003;1.110833e-002
3.538885e+003;1.137460e-002
3.540814e+003;1.105017e-002
3.542743e+003;1.024598e-002
3.544671e+003;9.631793e-003
3.546600e+003;1.013994e-002
3.548528e+003;1.059283e-002
3.550457e+003;1.037087e-002
3.552385e+003;1.009673e-002
3.554314e+003;9.667806e-003
3.556242e+003;9.407111e-003
3.558171e+003;9.543823e-003
3.560100e+003;9.285741e-003
3.562028e+003;8.914023e-003
3.563957e+003;8.544109e-003
3.565885e+003;7.581385e-003
3.567814e+003;7.054734e-003
3.569742e+003;7.595075e-003
3.571671e+003;8.144192e-003
3.573599e+003;8.232216e-003
3.575528e+003;8.388151e-003
3.577457e+003;8.087612e-003
3.579385e+003;7.887783e-003
3.581314e+003;7.987737e-003
3.583242e+003;7.459075e-003
3.585171e+003;6.367028e-003
3.587099e+003;5.488699e-003
3.589028e+003;5.930245e-003
3.590956e+003;6.663082e-003
3.592885e+003;6.324833e-003
3.594813e+003;6.286205e-003
3.596742e+003;6.877933e-003
3.598671e+003;6.959170e-003
3.600599e+003;7.146377e-003
3.602528e+003;7.213986e-003
3.604456e+003;6.666783e-003
3.606385e+003;5.764747e-003
3.608313e+003;4.585152e-003
3.610242e+003;4.381339e-003
3.612170e+003;4.458059e-003
3.614099e+003;5.035803e-003
3.616028e+003;5.390930e-003
3.617956e+003;4.199802e-003
3.619885e+003;4.232289e-003
3.621813e+003;5.592264e-003
3.623742e+003;5.711330e-003
3.625670e+003;4.594930e-003
3.627599e+003;2.098637e-003
3.629527e+003;1.629337e-003
3.631456e+003;3.813390e-003
3.633385e+003;5.071369e-003
3.635313e+003;5.589545e-003
3.637241e+003;5.787546e-003
3.639170e+003;5.988695e-003
3.641099e+003;5.967128e-003
3.643027e+003;5.435181e-003
3.644956e+003;4.201810e-003
3.646884e+003;2.500955e-003
3.648813e+003;1.630834e-003
3.650741e+003;3.014569e-003
3.652670e+003;4.527695e-003
3.654598e+003;3.554113e-003
3.656527e+003;3.045366e-003
3.658456e+003;4.127644e-003
3.660384e+003;4.617199e-003
3.662313e+003;5.142243e-003
3.664241e+003;5.139863e-003
3.666170e+003;4.412501e-003
3.668098e+003;3.043698e-003
3.670027e+003;1.950768e-003
3.671955e+003;2.979938e-003
3.673884e+003;2.031553e-003
3.675813e+003;1.703943e-003
3.677741e+003;4.425656e-003
3.679669e+003;5.205784e-003
3.681598e+003;5.052295e-003
3.683527e+003;5.439912e-003
3.685455e+003;5.223625e-003
3.687384e+003;3.232329e-003
3.689312e+003;2.818095e-003
3.691241e+003;4.114331e-003
3.693169e+003;5.128362e-003
3.695098e+003;5.529605e-003
3.697026e+003;5.860820e-003
3.698955e+003;5.853499e-003
3.700884e+003;4.865686e-003
3.702812e+003;4.936493e-003
3.704741e+003;5.482089e-003
3.706669e+003;5.307303e-003
3.708598e+003;4.737237e-003
3.710526e+003;3.957916e-003
3.712455e+003;4.085833e-003
3.714383e+003;4.853523e-003
3.716312e+003;4.847659e-003
3.718240e+003;5.451018e-003
3.720169e+003;5.752290e-003
3.722098e+003;5.496048e-003
3.724026e+003;5.125915e-003
3.725955e+003;4.854762e-003
3.727883e+003;5.048306e-003
3.729812e+003;4.429505e-003
3.731740e+003;3.092316e-003
3.733669e+003;2.782312e-003
3.735597e+003;2.366107e-003
3.737526e+003;3.237337e-003
3.739455e+003;4.419832e-003
3.741383e+003;4.168923e-003
3.743312e+003;1.333736e-003
3.745240e+003;1.568844e-003
3.747169e+003;2.849811e-003
3.749097e+003;1.118587e-003
3.751026e+003;8.258887e-004
3.752954e+003;2.878495e-003
3.754883e+003;5.095607e-003
3.756812e+003;5.260448e-003
3.758740e+003;5.319713e-003
3.760668e+003;5.910629e-003
3.762597e+003;6.446319e-003
3.764526e+003;6.341172e-003
3.766454e+003;6.659549e-003
3.768383e+003;5.948081e-003
3.770311e+003;5.276412e-003
3.772240e+003;5.957319e-003
3.774168e+003;6.569791e-003
3.776097e+003;6.359833e-003
3.778025e+003;6.086800e-003
3.779954e+003;5.967027e-003
3.781883e+003;6.116237e-003
3.783811e+003;6.050882e-003
3.785740e+003;6.078098e-003
3.787668e+003;6.210607e-003
3.789597e+003;6.722775e-003
3.791525e+003;6.827476e-003
3.793454e+003;6.359127e-003
3.795382e+003;5.716231e-003
3.797311e+003;5.680041e-003
3.799240e+003;4.547684e-003
3.801168e+003;3.330482e-003
3.803097e+003;4.603838e-003
3.805025e+003;4.467299e-003
3.806954e+003;3.884226e-003
3.808882e+003;5.355672e-003
3.810811e+003;6.021450e-003
3.812739e+003;5.374525e-003
3.814668e+003;3.648897e-003
3.816596e+003;4.053859e-003
3.818525e+003;4.581570e-003
3.820454e+003;3.424383e-003
3.822382e+003;4.897084e-003
3.824311e+003;6.180593e-003
3.826239e+003;5.811959e-003
3.828168e+003;5.610959e-003
3.830096e+003;5.350674e-003
3.832025e+003;5.594311e-003
3.833953e+003;5.429276e-003
3.835882e+003;3.915887e-003
3.837811e+003;2.722258e-003
3.839739e+003;3.773581e-003
3.841667e+003;4.694531e-003
3.843596e+003;5.170911e-003
3.845525e+003;5.671581e-003
3.847453e+003;6.206540e-003
3.849382e+003;5.789225e-003
3.851310e+003;2.373837e-003
3.853239e+003;-1.807086e-004
3.855167e+003;2.988312e-003
3.857096e+003;6.124906e-003
3.859024e+003;6.303653e-003
3.860953e+003;5.592901e-003
3.862882e+003;5.288419e-003
3.864810e+003;5.225536e-003
3.866739e+003;5.654528e-003
3.868667e+003;4.756198e-003
3.870596e+003;4.926506e-003
3.872524e+003;6.063952e-003
3.874453e+003;6.701609e-003
3.876381e+003;7.171068e-003
3.878310e+003;6.185130e-003
3.880239e+003;5.378450e-003
3.882167e+003;5.959838e-003
3.884096e+003;5.687796e-003
3.886024e+003;5.735872e-003
3.887953e+003;6.709920e-003
3.889881e+003;6.016209e-003
3.891810e+003;5.993767e-003
3.893738e+003;7.338653e-003
3.895667e+003;7.619960e-003
3.897595e+003;7.063119e-003
3.899524e+003;6.579311e-003
3.901453e+003;5.671380e-003
3.903381e+003;5.678262e-003
3.905310e+003;6.774398e-003
3.907238e+003;7.260210e-003
3.909167e+003;7.152676e-003
3.911095e+003;7.071202e-003
3.913024e+003;7.237670e-003
3.914952e+003;7.076624e-003
3.916881e+003;6.357816e-003
3.918810e+003;6.638285e-003
3.920738e+003;7.583847e-003
3.922667e+003;7.858429e-003
3.924595e+003;7.668217e-003
3.926524e+003;7.927465e-003
3.928452e+003;7.924630e-003
3.930381e+003;7.515203e-003
3.932309e+003;7.595210e-003
3.934238e+003;7.753480e-003
3.936167e+003;7.764679e-003
3.938095e+003;8.004848e-003
3.940023e+003;8.121674e-003
3.941952e+003;7.918591e-003
3.943881e+003;8.003362e-003
3.945809e+003;7.880664e-003
3.947738e+003;7.596053e-003
3.949666e+003;7.633651e-003
3.951595e+003;7.914811e-003
3.953523e+003;8.265479e-003
3.955452e+003;8.028407e-003
3.957380e+003;7.657256e-003
3.959309e+003;7.508292e-003
3.961238e+003;8.068236e-003
3.963166e+003;8.141592e-003
3.965095e+003;7.874355e-003
3.967023e+003;8.312626e-003
3.968952e+003;8.502107e-003
3.970880e+003;8.191798e-003
3.972809e+003;8.514812e-003
3.974737e+003;8.799012e-003
3.976666e+003;8.679638e-003
3.978594e+003;8.451697e-003
3.980523e+003;8.596828e-003
3.982452e+003;8.406393e-003
3.984380e+003;8.513055e-003
3.986309e+003;9.554323e-003
3.988237e+003;1.022858e-002
3.990166e+003;1.040800e-002
3.992094e+003;1.041679e-002
3.994023e+003;1.004946e-002
3.995951e+003;9.722525e-003
3.997880e+003;9.787384e-003
3.999809e+003;9.184608e-003
4.001737e+003;0.000000e+000
