3.992094e+002;0.000000e+000
4.011380e+002;0.000000e+000
4.030665e+002;0.000000e+000
4.049951e+002;0.000000e+000
4.069236e+002;0.000000e+000
4.088522e+002;0.000000e+000
4.107807e+002;0.000000e+000
4.127093e+002;0.000000e+000
4.146378e+002;0.000000e+000
4.165664e+002;0.000000e+000
4.184949e+002;0.000000e+000
4.204235e+002;0.000000e+000
4.223520e+002;0.000000e+000
4.242806e+002;0.000000e+000
4.262091e+002;0.000000e+000
4.281377e+002;0.000000e+000
4.300662e+002;0.000000e+000
4.319948e+002;0.000000e+000
4.339233e+002;0.000000e+000
4.358519e+002;0.000000e+000
4.377804e+002;0.000000e+000
4.397090e+002;0.000000e+000
4.416375e+002;0.000000e+000
4.435660e+002;0.000000e+000
4.454946e+002;0.000000e+000
4.474232e+002;0.000000e+000
4.493517e+002;0.000000e+000
4.512802e+002;0.000000e+000
4.532088e+002;0.000000e+000
4.551373e+002;0.000000e+000
4.570659e+002;0.000000e+000
4.589944e+002;0.000000e+000
4.609230e+002;0.000000e+000
4.628515e+002;0.000000e+000
4.647801e+002;0.000000e+000
4.667086e+002;0.000000e+000
4.686372e+002;0.000000e+000
4.705657e+002;0.000000e+000
4.724943e+002;0.000000e+000
4.744228e+002;0.000000e+000
4.763513e+002;0.000000e+000
4.782799e+002;0.000000e+000
4.802085e+002;0.000000e+000
4.821370e+002;0.000000e+000
4.840656e+002;0.000000e+000
4.859941e+002;0.000000e+000
4.879226e+002;0.000000e+000
4.898512e+002;0.000000e+000
4.917798e+002;0.000000e+000
4.937083e+002;0.000000e+000
4.956368e+002;0.000000e+000
4.975654e+002;0.000000e+000
4.994939e+002;0.000000e+000
5.014225e+002;0.000000e+000
5.033510e+002;0.000000e+000
5.052796e+002;0.000000e+000
5.072081e+002;0.000000e+000
5.091367e+002;0.000000e+000
5.110652e+002;0.000000e+000
5.129938e+002;0.000000e+000
5.149223e+002;0.000000e+000
5.168509e+002;0.000000e+000
5.187794e+002;0.000000e+000
5.207079e+002;0.000000e+000
5.226365e+002;0.000000e+000
5.245651e+002;0.000000e+000
5.264936e+002;0.000000e+000
5.284222e+002;0.000000e+000
5.303507e+002;0.000000e+000
5.322792e+002;0.000000e+000
5.342078e+002;0.000000e+000
5.361364e+002;0.000000e+000
5.380649e+002;0.000000e+000
5.399935e+002;0.000000e+000
5.419220e+002;0.000000e+000
5.438505e+002;0.000000e+000
5.457791e+002;0.000000e+000
5.477076e+002;0.000000e+000
5.496362e+002;0.000000e+000
5.515648e+002;0.000000e+000
5.534933e+002;0.000000e+000
5.554218e+002;0.000000e+000
5.573504e+002;0.000000e+000
5.592789e+002;0.000000e+000
5.612075e+002;0.000000e+000
5.631360e+002;0.000000e+000
5.650646e+002;0.000000e+000
5.669931e+002;0.000000e+000
5.689217e+002;0.000000e+000
5.708502e+002;0.000000e+000
5.727787e+002;0.000000e+000
5.747073e+002;0.000000e+000
5.766359e+002;0.000000e+000
5.785644e+002;0.000000e+000
5.804930e+002;0.000000e+000
5.824215e+002;0.000000e+000
5.843500e+002;0.000000e+000
5.862786e+002;0.000000e+000
5.882072e+002;0.000000e+000
5.901357e+002;0.000000e+000
5.920643e+002;0.000000e+000
5.939928e+002;0.000000e+000
5.959213e+002;0.000000e+000
5.978499e+002;0.000000e+000
5.997784e+002;2.949727e-002
6.017070e+002;2.817528e-002
6.036355e+002;3.024827e-002
6.055641e+002;3.243891e-002
6.074926e+002;3.856210e-002
6.094211e+002;3.772847e-002
6.113497e+002;3.254542e-002
6.132783e+002;3.294959e-002
6.152068e+002;3.743062e-002
6.171354e+002;3.745402e-002
6.190639e+002;3.586699e-002
6.209924e+002;3.651030e-002
6.229210e+002;3.251946e-002
6.248495e+002;2.986173e-002
6.267781e+002;3.224733e-002
6.287067e+002;3.663408e-002
6.306352e+002;3.836339e-002
6.325637e+002;3.710400e-002
6.344923e+002;3.658058e-002
6.364208e+002;3.392752e-002
6.383494e+002;3.472079e-002
6.402780e+002;4.096327e-002
6.422065e+002;4.360947e-002
6.441350e+002;3.968986e-002
6.460636e+002;3.242784e-002
6.479921e+002;3.199195e-002
6.499207e+002;3.588485e-002
6.518492e+002;3.487974e-002
6.537778e+002;3.260332e-002
6.557063e+002;3.261328e-002
6.576349e+002;3.178734e-002
6.595634e+002;3.306546e-002
6.614919e+002;3.654324e-002
6.634205e+002;3.825355e-002
6.653491e+002;3.658199e-002
6.672776e+002;3.492287e-002
6.692062e+002;3.492107e-002
6.711347e+002;3.438547e-002
6.730632e+002;3.374996e-002
6.749918e+002;3.165360e-002
6.769203e+002;3.100495e-002
6.788489e+002;3.345766e-002
6.807775e+002;3.434409e-002
6.827060e+002;3.449588e-002
6.846345e+002;3.424881e-002
6.865631e+002;3.393611e-002
6.884916e+002;3.401526e-002
6.904202e+002;3.207795e-002
6.923488e+002;3.111774e-002
6.942773e+002;3.158446e-002
6.962058e+002;3.298305e-002
6.981344e+002;3.346664e-002
7.000629e+002;3.238089e-002
7.019915e+002;3.256499e-002
7.039200e+002;3.289830e-002
7.058486e+002;3.238921e-002
7.077771e+002;3.262693e-002
7.097057e+002;3.185922e-002
7.116342e+002;3.167392e-002
7.135627e+002;3.280620e-002
7.154913e+002;3.251160e-002
7.174199e+002;3.286048e-002
7.193484e+002;3.374505e-002
7.212770e+002;3.385472e-002
7.232055e+002;3.318350e-002
7.251340e+002;3.209696e-002
7.270626e+002;3.210817e-002
7.289911e+002;3.214588e-002
7.309197e+002;3.254835e-002
7.328483e+002;3.270284e-002
7.347768e+002;3.231132e-002
7.367053e+002;3.209389e-002
7.386339e+002;3.180499e-002
7.405624e+002;3.216026e-002
7.424910e+002;3.231125e-002
7.444196e+002;3.169869e-002
7.463481e+002;3.127261e-002
7.482766e+002;3.099485e-002
7.502052e+002;3.077463e-002
7.521337e+002;3.175764e-002
7.540623e+002;3.163368e-002
7.559908e+002;2.962403e-002
7.579194e+002;2.962144e-002
7.598479e+002;3.059036e-002
7.617765e+002;3.087754e-002
7.637050e+002;3.158706e-002
7.656335e+002;3.234470e-002
7.675621e+002;3.194426e-002
7.694907e+002;3.129319e-002
7.714192e+002;3.058911e-002
7.733478e+002;2.950159e-002
7.752763e+002;2.921174e-002
7.772048e+002;2.957511e-002
7.791334e+002;2.980246e-002
7.810620e+002;3.054222e-002
7.829905e+002;3.094983e-002
7.849191e+002;3.123230e-002
7.868476e+002;3.263550e-002
7.887761e+002;3.349663e-002
7.907047e+002;3.372138e-002
7.926332e+002;3.499071e-002
7.945618e+002;3.700653e-002
7.964903e+002;3.844758e-002
7.984189e+002;3.923129e-002
8.003474e+002;4.094645e-002
8.022759e+002;4.348167e-002
8.042045e+002;4.577608e-002
8.061331e+002;4.781194e-002
8.080616e+002;4.961183e-002
8.099902e+002;4.969746e-002
8.119187e+002;4.901508e-002
8.138472e+002;4.678940e-002
8.157758e+002;4.350518e-002
8.177043e+002;4.120460e-002
8.196329e+002;4.014834e-002
8.215615e+002;3.927470e-002
8.234900e+002;3.884352e-002
8.254185e+002;3.852275e-002
8.273471e+002;3.827664e-002
8.292756e+002;3.840179e-002
8.312042e+002;3.926861e-002
8.331328e+002;4.093316e-002
8.350613e+002;4.292839e-002
8.369898e+002;4.539751e-002
8.389184e+002;5.073961e-002
8.408469e+002;5.613753e-002
8.427755e+002;5.593287e-002
8.447040e+002;5.135473e-002
8.466326e+002;4.660954e-002
8.485611e+002;4.319676e-002
8.504897e+002;4.050400e-002
8.524182e+002;3.884297e-002
8.543467e+002;3.818369e-002
8.562753e+002;3.776685e-002
8.582039e+002;3.723159e-002
8.601324e+002;3.622003e-002
8.620610e+002;3.558873e-002
8.639895e+002;3.614479e-002
8.659180e+002;3.630575e-002
8.678466e+002;3.553008e-002
8.697751e+002;3.509799e-002
8.717037e+002;3.562555e-002
8.736323e+002;3.606738e-002
8.755608e+002;3.558927e-002
8.774893e+002;3.501136e-002
8.794179e+002;3.451457e-002
8.813464e+002;3.405318e-002
8.832750e+002;3.343275e-002
8.852036e+002;3.340108e-002
8.871321e+002;3.422792e-002
8.890606e+002;3.518116e-002
8.909892e+002;3.668881e-002
8.929177e+002;3.927941e-002
8.948463e+002;4.304907e-002
8.967748e+002;4.791867e-002
8.987034e+002;5.113461e-002
9.006319e+002;5.065761e-002
9.025605e+002;4.680384e-002
9.044890e+002;4.168401e-002
9.064175e+002;3.744904e-002
9.083461e+002;3.482083e-002
9.102747e+002;3.286899e-002
9.122032e+002;3.119969e-002
9.141318e+002;3.053327e-002
9.160603e+002;3.042262e-002
9.179888e+002;2.991642e-002
9.199174e+002;2.969026e-002
9.218459e+002;2.995349e-002
9.237745e+002;3.005211e-002
9.257031e+002;2.972833e-002
9.276316e+002;2.971964e-002
9.295601e+002;3.018614e-002
9.314887e+002;3.077072e-002
9.334172e+002;3.147320e-002
9.353458e+002;3.238882e-002
9.372744e+002;3.346392e-002
9.392029e+002;3.481401e-002
9.411314e+002;3.594473e-002
9.430600e+002;3.608254e-002
9.449885e+002;3.593653e-002
9.469171e+002;3.551864e-002
9.488456e+002;3.520236e-002
9.507742e+002;3.551386e-002
9.527027e+002;3.655297e-002
9.546313e+002;3.757580e-002
9.565598e+002;3.831004e-002
9.584883e+002;3.926422e-002
9.604169e+002;4.124154e-002
9.623455e+002;4.376625e-002
9.642740e+002;4.670158e-002
9.662026e+002;5.144242e-002
9.681311e+002;5.866822e-002
9.700596e+002;6.742086e-002
9.719882e+002;7.470721e-002
9.739167e+002;7.744632e-002
9.758453e+002;7.394635e-002
9.777739e+002;6.558597e-002
9.797024e+002;5.571731e-002
9.816309e+002;4.769603e-002
9.835595e+002;4.239514e-002
9.854880e+002;3.945961e-002
9.874166e+002;3.860219e-002
9.893452e+002;3.967411e-002
9.912737e+002;4.305522e-002
9.932022e+002;4.895618e-002
9.951307e+002;5.606747e-002
9.970593e+002;6.120680e-002
9.989879e+002;6.150480e-002
1.000916e+003;5.697583e-002
1.002845e+003;5.060742e-002
1.004773e+003;4.559723e-002
1.006702e+003;4.223834e-002
1.008631e+003;4.003450e-002
1.010559e+003;3.842416e-002
1.012488e+003;3.717351e-002
1.014416e+003;3.612236e-002
1.016345e+003;3.545396e-002
1.018273e+003;3.489041e-002
1.020202e+003;3.444845e-002
1.022130e+003;3.456246e-002
1.024059e+003;3.466534e-002
1.025988e+003;3.448522e-002
1.027916e+003;3.424795e-002
1.029845e+003;3.454779e-002
1.031773e+003;3.560905e-002
1.033702e+003;3.676496e-002
1.035630e+003;3.764022e-002
1.037559e+003;3.873240e-002
1.039487e+003;3.956760e-002
1.041416e+003;3.976727e-002
1.043344e+003;3.913095e-002
1.045273e+003;3.828312e-002
1.047202e+003;3.753667e-002
1.049130e+003;3.634988e-002
1.051059e+003;3.514721e-002
1.052987e+003;3.463986e-002
1.054916e+003;3.422074e-002
1.056844e+003;3.397724e-002
1.058773e+003;3.370176e-002
1.060701e+003;3.330190e-002
1.062630e+003;3.308015e-002
1.064558e+003;3.322206e-002
1.066487e+003;3.361501e-002
1.068416e+003;3.317142e-002
1.070344e+003;3.267854e-002
1.072273e+003;3.320260e-002
1.074201e+003;3.393988e-002
1.076130e+003;3.400799e-002
1.078058e+003;3.424824e-002
1.079987e+003;3.492980e-002
1.081915e+003;3.540258e-002
1.083844e+003;3.554090e-002
1.085773e+003;3.575793e-002
1.087701e+003;3.518080e-002
1.089630e+003;3.539227e-002
1.091558e+003;3.633803e-002
1.093487e+003;3.766822e-002
1.095415e+003;3.995824e-002
1.097344e+003;4.152659e-002
1.099272e+003;4.268065e-002
1.101201e+003;4.390249e-002
1.103129e+003;4.446333e-002
1.105058e+003;4.424707e-002
1.106987e+003;4.237837e-002
1.108915e+003;4.028305e-002
1.110844e+003;3.900758e-002
1.112772e+003;3.769316e-002
1.114701e+003;3.665989e-002
1.116629e+003;3.608617e-002
1.118558e+003;3.572462e-002
1.120486e+003;3.493253e-002
1.122415e+003;3.394059e-002
1.124344e+003;3.348933e-002
1.126272e+003;3.309996e-002
1.128201e+003;3.278298e-002
1.130129e+003;3.270409e-002
1.132058e+003;3.329296e-002
1.133986e+003;3.437726e-002
1.135915e+003;3.591259e-002
1.137843e+003;3.850689e-002
1.139772e+003;4.174073e-002
1.141700e+003;4.474786e-002
1.143629e+003;4.801777e-002
1.145557e+003;5.165900e-002
1.147486e+003;5.508206e-002
1.149415e+003;5.873168e-002
1.151343e+003;6.212020e-002
1.153272e+003;6.401780e-002
1.155200e+003;6.478048e-002
1.157129e+003;6.510662e-002
1.159057e+003;6.554008e-002
1.160986e+003;6.562088e-002
1.162914e+003;6.587184e-002
1.164843e+003;6.633084e-002
1.166771e+003;6.599888e-002
1.168700e+003;6.408073e-002
1.170629e+003;6.020266e-002
1.172557e+003;5.498341e-002
1.174486e+003;4.958149e-002
1.176414e+003;4.484329e-002
1.178343e+003;4.137885e-002
1.180271e+003;3.932076e-002
1.182200e+003;3.758356e-002
1.184128e+003;3.607343e-002
1.186057e+003;3.540744e-002
1.187986e+003;3.545615e-002
1.189914e+003;3.525957e-002
1.191843e+003;3.475980e-002
1.193771e+003;3.481789e-002
1.195700e+003;3.518756e-002
1.197628e+003;3.507536e-002
1.199557e+003;3.461068e-002
1.201485e+003;3.426961e-002
1.203414e+003;3.394170e-002
1.205343e+003;3.400254e-002
1.207271e+003;3.449975e-002
1.209200e+003;3.545464e-002
1.211128e+003;3.670475e-002
1.213057e+003;3.793250e-002
1.214985e+003;3.892403e-002
1.216914e+003;3.897198e-002
1.218842e+003;3.817978e-002
1.220771e+003;3.723679e-002
1.222699e+003;3.647001e-002
1.224628e+003;3.575211e-002
1.226557e+003;3.500891e-002
1.228485e+003;3.476705e-002
1.230414e+003;3.512383e-002
1.232342e+003;3.513424e-002
1.234271e+003;3.539561e-002
1.236199e+003;3.575157e-002
1.238128e+003;3.564369e-002
1.240056e+003;3.592335e-002
1.241985e+003;3.637514e-002
1.243913e+003;3.663113e-002
1.245842e+003;3.748368e-002
1.247771e+003;3.833827e-002
1.249699e+003;3.904651e-002
1.251628e+003;4.153724e-002
1.253556e+003;4.465248e-002
1.255485e+003;4.629843e-002
1.257413e+003;4.624181e-002
1.259342e+003;4.423849e-002
1.261270e+003;4.142608e-002
1.263199e+003;3.922733e-002
1.265127e+003;3.841696e-002
1.267056e+003;3.799502e-002
1.268985e+003;3.706903e-002
1.270913e+003;3.615445e-002
1.272842e+003;3.533853e-002
1.274770e+003;3.495383e-002
1.276699e+003;3.526604e-002
1.278627e+003;3.532149e-002
1.280556e+003;3.526909e-002
1.282484e+003;3.583853e-002
1.284413e+003;3.644435e-002
1.286342e+003;3.718524e-002
1.288270e+003;3.837566e-002
1.290199e+003;3.931732e-002
1.292127e+003;3.991556e-002
1.294056e+003;4.080298e-002
1.295984e+003;4.150450e-002
1.297913e+003;4.139503e-002
1.299841e+003;4.123229e-002
1.301770e+003;4.164714e-002
1.303698e+003;4.194935e-002
1.305627e+003;4.091117e-002
1.307556e+003;3.842532e-002
1.309484e+003;3.594765e-002
1.311413e+003;3.454112e-002
1.313341e+003;3.439447e-002
1.315270e+003;3.517118e-002
1.317198e+003;3.618300e-002
1.319127e+003;3.713146e-002
1.321055e+003;3.859875e-002
1.322984e+003;4.023790e-002
1.324912e+003;4.178078e-002
1.326841e+003;4.372594e-002
1.328770e+003;4.517553e-002
1.330698e+003;4.541984e-002
1.332627e+003;4.494966e-002
1.334555e+003;4.425694e-002
1.336484e+003;4.345369e-002
1.338412e+003;4.317063e-002
1.340341e+003;4.383299e-002
1.342269e+003;4.517171e-002
1.344198e+003;4.692741e-002
1.346126e+003;4.961481e-002
1.348055e+003;5.300454e-002
1.349984e+003;5.700730e-002
1.351912e+003;6.204459e-002
1.353841e+003;6.853700e-002
1.355769e+003;7.595923e-002
1.357698e+003;8.189262e-002
1.359626e+003;8.419222e-002
1.361555e+003;8.379927e-002
1.363483e+003;8.333621e-002
1.365412e+003;8.548992e-002
1.367341e+003;9.309939e-002
1.369269e+003;1.085294e-001
1.371198e+003;1.313638e-001
1.373126e+003;1.579244e-001
1.375055e+003;1.792253e-001
1.376983e+003;1.809672e-001
1.378912e+003;1.607957e-001
1.380840e+003;1.324268e-001
1.382769e+003;1.064042e-001
1.384698e+003;8.560996e-002
1.386626e+003;6.976647e-002
1.388555e+003;5.929962e-002
1.390483e+003;5.299586e-002
1.392412e+003;4.823894e-002
1.394340e+003;4.486276e-002
1.396269e+003;4.351251e-002
1.398197e+003;4.284533e-002
1.400126e+003;4.246441e-002
1.402054e+003;4.233570e-002
1.403983e+003;4.212167e-002
1.405911e+003;4.224571e-002
1.407840e+003;4.275099e-002
1.409769e+003;4.318175e-002
1.411697e+003;4.357452e-002
1.413626e+003;4.381980e-002
1.415554e+003;4.403089e-002
1.417483e+003;4.424480e-002
1.419411e+003;4.493680e-002
1.421340e+003;4.664868e-002
1.423268e+003;4.853559e-002
1.425197e+003;5.121998e-002
1.427125e+003;5.529264e-002
1.429054e+003;6.109866e-002
1.430983e+003;7.003307e-002
1.432911e+003;8.084463e-002
1.434840e+003;8.856224e-002
1.436768e+003;9.136198e-002
1.438697e+003;9.319855e-002
1.440625e+003;9.660579e-002
1.442554e+003;1.020604e-001
1.444482e+003;1.096402e-001
1.446411e+003;1.196106e-001
1.448340e+003;1.302641e-001
1.450268e+003;1.393733e-001
1.452197e+003;1.452552e-001
1.454125e+003;1.476531e-001
1.456054e+003;1.471558e-001
1.457982e+003;1.461765e-001
1.459911e+003;1.442919e-001
1.461839e+003;1.392021e-001
1.463768e+003;1.312924e-001
1.465697e+003;1.216666e-001
1.467625e+003;1.110756e-001
1.469554e+003;9.994428e-002
1.471482e+003;8.865688e-002
1.473411e+003;7.863951e-002
1.475339e+003;7.088415e-002
1.477268e+003;6.415723e-002
1.479196e+003;5.841513e-002
1.481125e+003;5.297272e-002
1.483053e+003;4.846053e-002
1.484982e+003;4.506444e-002
1.486911e+003;4.186944e-002
1.488839e+003;3.901120e-002
1.490768e+003;3.726989e-002
1.492696e+003;3.628526e-002
1.494625e+003;3.477115e-002
1.496553e+003;3.288418e-002
1.498482e+003;3.172570e-002
1.500410e+003;3.087572e-002
1.502339e+003;2.984888e-002
1.504267e+003;2.768006e-002
1.506196e+003;2.533235e-002
1.508125e+003;2.521161e-002
1.510053e+003;2.536733e-002
1.511982e+003;2.471860e-002
1.513910e+003;2.438639e-002
1.515839e+003;2.375232e-002
1.517767e+003;2.303831e-002
1.519696e+003;2.195473e-002
1.521624e+003;2.095378e-002
1.523553e+003;2.132910e-002
1.525481e+003;2.164121e-002
1.527410e+003;2.180545e-002
1.529339e+003;2.209604e-002
1.531267e+003;2.209988e-002
1.533196e+003;2.200283e-002
1.535124e+003;2.289365e-002
1.537053e+003;2.300169e-002
1.538981e+003;2.199338e-002
1.540910e+003;2.234752e-002
1.542838e+003;2.372369e-002
1.544767e+003;2.465824e-002
1.546695e+003;2.518654e-002
1.548624e+003;2.520536e-002
1.550553e+003;2.525831e-002
1.552481e+003;2.493215e-002
1.554410e+003;2.417269e-002
1.556338e+003;2.302126e-002
1.558267e+003;2.073609e-002
1.560195e+003;2.092012e-002
1.562124e+003;2.287308e-002
1.564052e+003;2.298161e-002
1.565981e+003;2.233091e-002
1.567910e+003;2.175462e-002
1.569838e+003;2.157804e-002
1.571767e+003;2.219758e-002
1.573695e+003;2.202245e-002
1.575624e+003;2.088581e-002
1.577552e+003;2.133320e-002
1.579481e+003;2.226740e-002
1.581409e+003;2.210155e-002
1.583338e+003;2.179158e-002
1.585266e+003;2.136432e-002
1.587195e+003;2.108145e-002
1.589124e+003;2.103829e-002
1.591052e+003;2.118247e-002
1.592981e+003;2.121068e-002
1.594909e+003;2.108618e-002
1.596838e+003;2.101064e-002
1.598766e+003;2.146596e-002
1.600695e+003;2.193734e-002
1.602623e+003;2.235805e-002
1.604552e+003;2.257069e-002
1.606480e+003;2.248669e-002
1.608409e+003;2.258350e-002
1.610338e+003;2.328327e-002
1.612266e+003;2.379330e-002
1.614195e+003;2.364776e-002
1.616123e+003;2.333067e-002
1.618052e+003;2.440133e-002
1.619980e+003;2.534074e-002
1.621909e+003;2.500020e-002
1.623837e+003;2.493626e-002
1.625766e+003;2.550976e-002
1.627694e+003;2.583745e-002
1.629623e+003;2.578375e-002
1.631552e+003;2.560103e-002
1.633480e+003;2.479118e-002
1.635409e+003;2.373433e-002
1.637337e+003;2.449579e-002
1.639266e+003;2.550586e-002
1.641194e+003;2.573130e-002
1.643123e+003;2.540836e-002
1.645051e+003;2.483692e-002
1.646980e+003;2.493900e-002
1.648909e+003;2.580496e-002
1.650837e+003;2.466007e-002
1.652766e+003;2.263376e-002
1.654694e+003;2.416849e-002
1.656623e+003;2.614240e-002
1.658551e+003;2.655728e-002
1.660480e+003;2.619617e-002
1.662408e+003;2.547860e-002
1.664337e+003;2.545323e-002
1.666266e+003;2.547118e-002
1.668194e+003;2.487239e-002
1.670123e+003;2.473859e-002
1.672051e+003;2.494619e-002
1.673980e+003;2.445573e-002
1.675908e+003;2.433617e-002
1.677837e+003;2.464309e-002
1.679765e+003;2.448987e-002
1.681694e+003;2.365399e-002
1.683622e+003;2.193490e-002
1.685551e+003;2.248638e-002
1.687479e+003;2.397810e-002
1.689408e+003;2.422661e-002
1.691337e+003;2.437844e-002
1.693265e+003;2.410229e-002
1.695194e+003;2.304809e-002
1.697122e+003;2.340326e-002
1.699051e+003;2.358867e-002
1.700979e+003;2.408943e-002
1.702908e+003;2.566510e-002
1.704836e+003;2.618843e-002
1.706765e+003;2.683891e-002
1.708693e+003;2.751984e-002
1.710622e+003;2.789073e-002
1.712551e+003;2.765344e-002
1.714479e+003;2.668230e-002
1.716408e+003;2.542786e-002
1.718336e+003;2.557379e-002
1.720265e+003;2.674012e-002
1.722193e+003;2.701119e-002
1.724122e+003;2.703140e-002
1.726050e+003;2.726405e-002
1.727979e+003;2.732625e-002
1.729908e+003;2.739718e-002
1.731836e+003;2.692671e-002
1.733765e+003;2.635595e-002
1.735693e+003;2.790656e-002
1.737622e+003;2.925792e-002
1.739550e+003;2.924095e-002
1.741479e+003;2.914207e-002
1.743407e+003;2.841633e-002
1.745336e+003;2.712880e-002
1.747265e+003;2.552090e-002
1.749193e+003;2.364895e-002
1.751122e+003;2.191601e-002
1.753050e+003;2.089551e-002
1.754979e+003;1.928939e-002
1.756907e+003;1.753353e-002
1.758836e+003;1.633571e-002
1.760764e+003;1.490147e-002
1.762693e+003;1.383867e-002
1.764621e+003;1.342739e-002
1.766550e+003;1.266389e-002
1.768479e+003;1.202376e-002
1.770407e+003;1.113440e-002
1.772336e+003;1.025616e-002
1.774264e+003;1.066512e-002
1.776193e+003;1.101421e-002
1.778121e+003;1.090666e-002
1.780050e+003;1.070153e-002
1.781978e+003;1.035333e-002
1.783907e+003;9.704228e-003
1.785835e+003;9.187756e-003
1.787764e+003;8.849192e-003
1.789693e+003;8.201556e-003
1.791621e+003;7.275540e-003
1.793550e+003;7.056552e-003
1.795478e+003;7.206136e-003
1.797407e+003;7.017017e-003
1.799335e+003;6.833433e-003
1.801264e+003;6.500197e-003
1.803192e+003;6.263581e-003
1.805121e+003;5.986276e-003
1.807049e+003;5.568870e-003
1.808978e+003;5.408912e-003
1.810907e+003;5.663021e-003
1.812835e+003;5.775659e-003
1.814764e+003;5.607938e-003
1.816692e+003;5.554271e-003
1.818621e+003;5.613711e-003
1.820549e+003;5.509202e-003
1.822478e+003;5.358557e-003
1.824406e+003;5.343998e-003
1.826335e+003;5.434779e-003
1.828264e+003;5.316292e-003
1.830192e+003;5.320786e-003
1.832121e+003;5.601225e-003
1.834049e+003;5.599815e-003
1.835978e+003;5.727243e-003
1.837906e+003;5.909286e-003
1.839835e+003;5.706965e-003
1.841763e+003;5.160315e-003
1.843692e+003;4.482196e-003
1.845620e+003;4.597944e-003
1.847549e+003;5.087662e-003
1.849478e+003;5.154414e-003
1.851406e+003;5.023567e-003
1.853335e+003;5.211351e-003
1.855263e+003;5.339638e-003
1.857192e+003;5.138924e-003
1.859120e+003;5.060106e-003
1.861049e+003;4.939140e-003
1.862977e+003;4.702871e-003
1.864906e+003;4.556389e-003
1.866834e+003;4.328594e-003
1.868763e+003;4.213520e-003
1.870692e+003;4.446577e-003
1.872620e+003;4.514403e-003
1.874549e+003;4.531947e-003
1.876477e+003;4.844744e-003
1.878406e+003;4.708129e-003
1.880334e+003;4.387330e-003
1.882263e+003;4.451933e-003
1.884191e+003;4.668808e-003
1.886120e+003;4.502015e-003
1.888048e+003;4.187725e-003
1.889977e+003;4.315141e-003
1.891906e+003;4.824172e-003
1.893834e+003;4.931332e-003
1.895763e+003;4.804472e-003
1.897691e+003;4.591515e-003
1.899620e+003;4.410158e-003
1.901548e+003;4.508745e-003
1.903477e+003;4.633576e-003
1.905405e+003;4.346632e-003
1.907334e+003;4.167251e-003
1.909262e+003;4.164708e-003
1.911191e+003;4.175079e-003
1.913120e+003;4.174109e-003
1.915048e+003;4.170362e-003
1.916977e+003;3.877741e-003
1.918905e+003;3.831340e-003
1.920834e+003;4.156278e-003
1.922762e+003;4.216732e-003
1.924691e+003;4.185015e-003
1.926619e+003;4.101286e-003
1.928548e+003;3.914918e-003
1.930477e+003;3.790795e-003
1.932405e+003;3.572020e-003
1.934334e+003;3.420642e-003
1.936262e+003;3.478388e-003
1.938191e+003;3.659890e-003
1.940119e+003;3.613681e-003
1.942048e+003;3.203322e-003
1.943976e+003;3.137670e-003
1.945905e+003;3.353555e-003
1.947833e+003;3.454240e-003
1.949762e+003;3.494187e-003
1.951691e+003;3.550873e-003
1.953619e+003;3.521076e-003
1.955548e+003;3.545996e-003
1.957476e+003;3.433733e-003
1.959405e+003;3.385979e-003
1.961333e+003;3.313654e-003
1.963262e+003;3.103195e-003
1.965190e+003;2.908349e-003
1.967119e+003;3.018673e-003
1.969047e+003;3.243112e-003
1.970976e+003;3.097088e-003
1.972905e+003;3.021109e-003
1.974833e+003;3.310516e-003
1.976762e+003;3.550305e-003
1.978690e+003;3.422512e-003
1.980619e+003;3.413696e-003
1.982547e+003;3.510119e-003
1.984476e+003;3.556652e-003
1.986404e+003;3.440747e-003
1.988333e+003;3.331918e-003
1.990261e+003;3.239473e-003
1.992190e+003;3.087344e-003
1.994119e+003;3.350750e-003
1.996047e+003;3.500266e-003
1.997976e+003;3.520942e-003
1.999904e+003;3.661728e-003
2.001833e+003;3.584614e-003
2.003761e+003;3.749584e-003
2.005690e+003;3.783876e-003
2.007618e+003;3.575962e-003
2.009547e+003;3.487707e-003
2.011476e+003;3.495890e-003
2.013404e+003;3.504240e-003
2.015333e+003;3.625041e-003
2.017261e+003;3.752692e-003
2.019190e+003;3.649165e-003
2.021118e+003;3.595639e-003
2.023047e+003;3.702463e-003
2.024975e+003;3.587454e-003
2.026904e+003;3.399837e-003
2.028833e+003;3.360767e-003
2.030761e+003;3.452102e-003
2.032690e+003;3.675161e-003
2.034618e+003;3.889074e-003
2.036547e+003;3.864402e-003
2.038475e+003;3.843508e-003
2.040404e+003;4.129082e-003
2.042332e+003;4.179629e-003
2.044261e+003;4.126172e-003
2.046189e+003;4.394995e-003
2.048118e+003;4.592620e-003
2.050047e+003;4.403698e-003
2.051975e+003;4.233728e-003
2.053904e+003;4.112658e-003
2.055832e+003;4.042421e-003
2.057761e+003;4.083191e-003
2.059689e+003;4.054761e-003
2.061618e+003;4.052621e-003
2.063546e+003;4.021820e-003
2.065475e+003;4.078408e-003
2.067404e+003;4.070581e-003
2.069332e+003;3.953268e-003
2.071260e+003;4.109113e-003
2.073189e+003;4.334651e-003
2.075118e+003;4.263340e-003
2.077046e+003;4.035297e-003
2.078975e+003;4.160293e-003
2.080903e+003;4.503790e-003
2.082832e+003;4.720221e-003
2.084760e+003;4.877615e-003
2.086689e+003;5.145965e-003
2.088617e+003;4.980497e-003
2.090546e+003;4.873761e-003
2.092475e+003;4.970141e-003
2.094403e+003;4.883144e-003
2.096332e+003;4.629255e-003
2.098260e+003;4.711713e-003
2.100189e+003;4.952713e-003
2.102117e+003;4.860191e-003
2.104046e+003;5.100233e-003
2.105974e+003;5.498631e-003
2.107903e+003;5.418339e-003
2.109832e+003;5.169771e-003
2.111760e+003;5.123031e-003
2.113688e+003;5.127155e-003
2.115617e+003;5.331588e-003
2.117546e+003;5.312636e-003
2.119474e+003;5.258435e-003
2.121403e+003;5.536149e-003
2.123331e+003;5.869217e-003
2.125260e+003;6.037543e-003
2.127188e+003;6.309738e-003
2.129117e+003;6.624592e-003
2.131045e+003;6.670383e-003
2.132974e+003;6.825187e-003
2.134903e+003;6.910183e-003
2.136831e+003;6.632095e-003
2.138760e+003;6.511196e-003
2.140688e+003;6.696797e-003
2.142617e+003;6.638723e-003
2.144545e+003;6.386261e-003
2.146474e+003;6.446756e-003
2.148402e+003;6.554317e-003
2.150331e+003;6.549507e-003
2.152260e+003;6.609823e-003
2.154188e+003;6.634719e-003
2.156117e+003;6.639732e-003
2.158045e+003;6.938867e-003
2.159974e+003;7.257177e-003
2.161902e+003;7.515304e-003
2.163831e+003;7.565302e-003
2.165759e+003;7.580037e-003
2.167688e+003;7.943224e-003
2.169616e+003;8.288376e-003
2.171545e+003;8.457880e-003
2.173474e+003;8.587501e-003
2.175402e+003;8.552794e-003
2.177331e+003;8.300467e-003
2.179259e+003;8.157291e-003
2.181188e+003;8.069755e-003
2.183116e+003;7.904149e-003
2.185045e+003;8.102600e-003
2.186973e+003;8.357852e-003
2.188902e+003;8.431258e-003
2.190831e+003;8.292058e-003
2.192759e+003;8.279764e-003
2.194688e+003;8.481260e-003
2.196616e+003;8.633601e-003
2.198545e+003;8.407171e-003
2.200473e+003;8.089299e-003
2.202402e+003;7.929186e-003
2.204330e+003;7.914103e-003
2.206259e+003;7.931818e-003
2.208188e+003;7.812175e-003
2.210116e+003;7.661202e-003
2.212044e+003;7.408246e-003
2.213973e+003;7.363288e-003
2.215902e+003;7.444210e-003
2.217830e+003;7.695534e-003
2.219759e+003;7.782625e-003
2.221687e+003;7.916127e-003
2.223616e+003;8.211956e-003
2.225544e+003;8.245555e-003
2.227473e+003;8.154489e-003
2.229401e+003;8.152632e-003
2.231330e+003;8.432508e-003
2.233259e+003;8.556207e-003
2.235187e+003;8.222255e-003
2.237116e+003;8.124745e-003
2.239044e+003;8.342990e-003
2.240973e+003;8.362041e-003
2.242901e+003;7.938905e-003
2.244830e+003;7.801448e-003
2.246758e+003;8.142537e-003
2.248687e+003;8.579694e-003
2.250615e+003;8.973823e-003
2.252544e+003;9.030959e-003
2.254473e+003;8.959717e-003
2.256401e+003;9.064519e-003
2.258330e+003;9.086782e-003
2.260258e+003;8.871478e-003
2.262187e+003;8.635358e-003
2.264115e+003;8.743868e-003
2.266044e+003;8.930764e-003
2.267972e+003;8.720270e-003
2.269901e+003;8.404468e-003
2.271830e+003;8.248290e-003
2.273758e+003;8.043156e-003
2.275687e+003;7.970153e-003
2.277615e+003;8.166947e-003
2.279544e+003;8.185450e-003
2.281472e+003;7.952403e-003
2.283401e+003;7.805496e-003
2.285329e+003;7.912989e-003
2.287258e+003;7.984160e-003
2.289187e+003;7.911268e-003
2.291115e+003;7.791800e-003
2.293043e+003;7.902157e-003
2.294972e+003;7.872330e-003
2.296901e+003;7.625827e-003
2.298829e+003;7.603741e-003
2.300758e+003;7.813222e-003
2.302686e+003;7.790889e-003
2.304615e+003;7.727575e-003
2.306543e+003;7.824152e-003
2.308472e+003;8.062700e-003
2.310400e+003;8.314619e-003
2.312329e+003;8.466799e-003
2.314258e+003;8.494100e-003
2.316186e+003;8.410042e-003
2.318115e+003;8.260583e-003
2.320043e+003;8.168703e-003
2.321972e+003;8.267405e-003
2.323900e+003;8.471090e-003
2.325829e+003;8.801278e-003
2.327757e+003;9.299146e-003
2.329686e+003;9.405181e-003
2.331615e+003;9.483132e-003
2.333543e+003;9.643176e-003
2.335472e+003;9.704601e-003
2.337400e+003;9.754683e-003
2.339329e+003;9.742518e-003
2.341257e+003;9.697316e-003
2.343186e+003;9.669771e-003
2.345114e+003;9.716562e-003
2.347043e+003;9.945439e-003
2.348971e+003;1.028713e-002
2.350900e+003;1.030739e-002
2.352829e+003;1.050966e-002
2.354757e+003;1.077275e-002
2.356686e+003;1.078430e-002
2.358614e+003;1.080556e-002
2.360543e+003;1.093779e-002
2.362471e+003;1.098142e-002
2.364400e+003;1.085825e-002
2.366328e+003;1.091458e-002
2.368257e+003;1.083528e-002
2.370186e+003;1.083253e-002
2.372114e+003;1.077628e-002
2.374042e+003;1.066899e-002
2.375971e+003;1.076375e-002
2.377900e+003;1.112427e-002
2.379828e+003;1.123041e-002
2.381757e+003;1.107729e-002
2.383685e+003;1.119474e-002
2.385614e+003;1.129652e-002
2.387542e+003;1.119896e-002
2.389471e+003;1.130733e-002
2.391399e+003;1.145151e-002
2.393328e+003;1.134273e-002
2.395257e+003;1.139317e-002
2.397185e+003;1.147713e-002
2.399114e+003;1.153507e-002
2.401042e+003;1.186028e-002
2.402971e+003;1.205990e-002
2.404899e+003;1.173257e-002
2.406828e+003;1.159728e-002
2.408756e+003;1.154191e-002
2.410685e+003;1.149595e-002
2.412614e+003;1.166072e-002
2.414542e+003;1.147842e-002
2.416471e+003;1.124660e-002
2.418399e+003;1.152490e-002
2.420328e+003;1.192519e-002
2.422256e+003;1.197764e-002
2.424185e+003;1.192120e-002
2.426113e+003;1.222393e-002
2.428042e+003;1.261384e-002
2.429970e+003;1.240217e-002
2.431899e+003;1.206395e-002
2.433828e+003;1.189253e-002
2.435756e+003;1.187026e-002
2.437685e+003;1.183389e-002
2.439613e+003;1.154572e-002
2.441542e+003;1.139896e-002
2.443470e+003;1.143634e-002
2.445399e+003;1.124235e-002
2.447327e+003;1.093296e-002
2.449256e+003;1.090547e-002
2.451185e+003;1.091855e-002
2.453113e+003;1.081551e-002
2.455042e+003;1.088305e-002
2.456970e+003;1.080984e-002
2.458899e+003;1.074799e-002
2.460827e+003;1.094594e-002
2.462756e+003;1.057745e-002
2.464684e+003;1.033908e-002
2.466613e+003;1.057066e-002
2.468542e+003;1.066971e-002
2.470470e+003;1.049723e-002
2.472398e+003;1.059789e-002
2.474327e+003;1.081847e-002
2.476256e+003;1.094560e-002
2.478184e+003;1.112311e-002
2.480113e+003;1.139753e-002
2.482041e+003;1.158275e-002
2.483970e+003;1.169142e-002
2.485898e+003;1.159091e-002
2.487827e+003;1.141348e-002
2.489755e+003;1.146778e-002
2.491684e+003;1.139722e-002
2.493613e+003;1.139522e-002
2.495541e+003;1.135930e-002
2.497470e+003;1.096514e-002
2.499398e+003;1.112865e-002
2.501327e+003;1.152817e-002
2.503255e+003;1.170309e-002
2.505184e+003;1.196074e-002
2.507112e+003;1.197011e-002
2.509041e+003;1.180008e-002
2.510969e+003;1.199841e-002
2.512898e+003;1.258788e-002
2.514827e+003;1.275467e-002
2.516755e+003;1.254433e-002
2.518684e+003;1.263905e-002
2.520612e+003;1.306293e-002
2.522541e+003;1.325136e-002
2.524469e+003;1.361638e-002
2.526398e+003;1.413356e-002
2.528326e+003;1.417327e-002
2.530255e+003;1.406336e-002
2.532184e+003;1.440619e-002
2.534112e+003;1.485398e-002
2.536041e+003;1.471103e-002
2.537969e+003;1.464814e-002
2.539898e+003;1.501197e-002
2.541826e+003;1.530962e-002
2.543755e+003;1.537556e-002
2.545683e+003;1.548536e-002
2.547612e+003;1.575732e-002
2.549541e+003;1.649049e-002
2.551469e+003;1.722270e-002
2.553397e+003;1.774723e-002
2.555326e+003;1.798881e-002
2.557255e+003;1.794875e-002
2.559183e+003;1.792202e-002
2.561112e+003;1.842922e-002
2.563040e+003;1.912031e-002
2.564969e+003;1.927355e-002
2.566897e+003;1.942082e-002
2.568826e+003;1.994046e-002
2.570754e+003;2.072112e-002
2.572683e+003;2.146022e-002
2.574612e+003;2.191862e-002
2.576540e+003;2.231919e-002
2.578469e+003;2.301221e-002
2.580397e+003;2.336287e-002
2.582326e+003;2.332746e-002
2.584254e+003;2.309778e-002
2.586183e+003;2.238027e-002
2.588111e+003;2.163202e-002
2.590040e+003;2.123417e-002
2.591969e+003;2.056319e-002
2.593897e+003;2.037105e-002
2.595826e+003;2.090281e-002
2.597754e+003;2.069568e-002
2.599683e+003;2.056264e-002
2.601611e+003;2.065408e-002
2.603540e+003;2.077148e-002
2.605468e+003;2.108694e-002
2.607397e+003;2.136355e-002
2.609325e+003;2.177841e-002
2.611254e+003;2.214091e-002
2.613183e+003;2.256985e-002
2.615111e+003;2.297940e-002
2.617040e+003;2.317508e-002
2.618968e+003;2.301043e-002
2.620897e+003;2.302126e-002
2.622825e+003;2.301266e-002
2.624754e+003;2.246973e-002
2.626682e+003;2.191936e-002
2.628611e+003;2.179904e-002
2.630540e+003;2.186256e-002
2.632468e+003;2.188977e-002
2.634396e+003;2.200007e-002
2.636325e+003;2.222555e-002
2.638254e+003;2.223336e-002
2.640182e+003;2.236583e-002
2.642111e+003;2.281332e-002
2.644039e+003;2.339036e-002
2.645968e+003;2.377801e-002
2.647896e+003;2.402125e-002
2.649825e+003;2.434438e-002
2.651753e+003;2.494464e-002
2.653682e+003;2.525754e-002
2.655611e+003;2.537271e-002
2.657539e+003;2.535585e-002
2.659468e+003;2.564489e-002
2.661396e+003;2.624580e-002
2.663325e+003;2.630142e-002
2.665253e+003;2.627178e-002
2.667182e+003;2.625376e-002
2.669110e+003;2.608547e-002
2.671039e+003;2.616651e-002
2.672968e+003;2.635922e-002
2.674896e+003;2.670552e-002
2.676825e+003;2.708055e-002
2.678753e+003;2.746255e-002
2.680682e+003;2.749696e-002
2.682610e+003;2.697167e-002
2.684539e+003;2.680282e-002
2.686467e+003;2.697646e-002
2.688396e+003;2.701775e-002
2.690324e+003;2.702907e-002
2.692253e+003;2.728377e-002
2.694182e+003;2.722633e-002
2.696110e+003;2.699638e-002
2.698039e+003;2.738380e-002
2.699967e+003;2.814834e-002
2.701896e+003;2.871163e-002
2.703824e+003;2.923074e-002
2.705753e+003;2.985168e-002
2.707681e+003;3.069415e-002
2.709610e+003;3.163824e-002
2.711539e+003;3.278258e-002
2.713467e+003;3.421598e-002
2.715396e+003;3.575678e-002
2.717324e+003;3.730589e-002
2.719253e+003;3.912268e-002
2.721181e+003;4.053488e-002
2.723110e+003;4.128672e-002
2.725038e+003;4.086606e-002
2.726967e+003;3.953091e-002
2.728896e+003;3.819628e-002
2.730824e+003;3.667568e-002
2.732752e+003;3.556323e-002
2.734681e+003;3.459601e-002
2.736610e+003;3.349616e-002
2.738538e+003;3.267365e-002
2.740467e+003;3.189270e-002
2.742395e+003;3.092735e-002
2.744324e+003;2.989853e-002
2.746252e+003;2.924601e-002
2.748181e+003;2.893133e-002
2.750109e+003;2.892602e-002
2.752038e+003;2.907695e-002
2.753967e+003;2.925381e-002
2.755895e+003;2.951681e-002
2.757824e+003;2.957824e-002
2.759752e+003;2.998419e-002
2.761681e+003;3.066253e-002
2.763609e+003;3.076104e-002
2.765538e+003;3.085086e-002
2.767466e+003;3.144281e-002
2.769395e+003;3.209172e-002
2.771323e+003;3.267283e-002
2.773252e+003;3.313837e-002
2.775181e+003;3.356253e-002
2.777109e+003;3.457269e-002
2.779038e+003;3.581244e-002
2.780966e+003;3.667983e-002
2.782895e+003;3.771206e-002
2.784823e+003;3.917823e-002
2.786752e+003;4.086307e-002
2.788680e+003;4.251812e-002
2.790609e+003;4.416112e-002
2.792538e+003;4.572270e-002
2.794466e+003;4.715173e-002
2.796395e+003;4.856920e-002
2.798323e+003;5.011918e-002
2.800252e+003;5.150572e-002
2.802180e+003;5.330064e-002
2.804109e+003;5.550038e-002
2.806037e+003;5.774433e-002
2.807966e+003;5.999696e-002
2.809895e+003;6.204455e-002
2.811823e+003;6.395963e-002
2.813751e+003;6.562686e-002
2.815680e+003;6.743792e-002
2.817609e+003;6.986095e-002
2.819537e+003;7.244811e-002
2.821466e+003;7.551056e-002
2.823394e+003;7.916151e-002
2.825323e+003;8.381751e-002
2.827251e+003;8.997575e-002
2.829180e+003;9.766156e-002
2.831108e+003;1.066820e-001
2.833037e+003;1.158665e-001
2.834966e+003;1.236144e-001
2.836894e+003;1.280970e-001
2.838823e+003;1.280791e-001
2.840751e+003;1.251506e-001
2.842680e+003;1.209181e-001
2.844608e+003;1.160360e-001
2.846537e+003;1.107272e-001
2.848465e+003;1.065167e-001
2.850394e+003;1.040032e-001
2.852323e+003;1.024458e-001
2.854251e+003;1.017742e-001
2.856180e+003;1.023124e-001
2.858108e+003;1.053905e-001
2.860037e+003;1.113155e-001
2.861965e+003;1.187629e-001
2.863894e+003;1.265987e-001
2.865822e+003;1.335286e-001
2.867751e+003;1.375524e-001
2.869679e+003;1.382898e-001
2.871608e+003;1.380522e-001
2.873536e+003;1.380953e-001
2.875465e+003;1.379500e-001
2.877394e+003;1.371901e-001
2.879322e+003;1.358498e-001
2.881251e+003;1.344380e-001
2.883179e+003;1.334499e-001
2.885108e+003;1.334418e-001
2.887036e+003;1.342952e-001
2.888965e+003;1.353958e-001
2.890893e+003;1.377219e-001
2.892822e+003;1.406369e-001
2.894750e+003;1.440298e-001
2.896679e+003;1.486833e-001
2.898608e+003;1.541070e-001
2.900536e+003;1.599164e-001
2.902465e+003;1.657565e-001
2.904393e+003;1.715415e-001
2.906322e+003;1.776365e-001
2.908250e+003;1.830635e-001
2.910179e+003;1.869608e-001
2.912107e+003;1.903072e-001
2.914036e+003;1.932387e-001
2.915965e+003;1.945206e-001
2.917893e+003;1.940036e-001
2.919822e+003;1.915824e-001
2.921750e+003;1.873251e-001
2.923679e+003;1.812496e-001
2.925607e+003;1.742909e-001
2.927536e+003;1.668326e-001
2.929464e+003;1.584443e-001
2.931393e+003;1.498005e-001
2.933322e+003;1.411254e-001
2.935250e+003;1.336734e-001
2.937178e+003;1.286373e-001
2.939107e+003;1.262825e-001
2.941036e+003;1.274293e-001
2.942964e+003;1.325482e-001
2.944893e+003;1.411741e-001
2.946821e+003;1.506805e-001
2.948750e+003;1.581333e-001
2.950678e+003;1.619694e-001
2.952607e+003;1.621262e-001
2.954535e+003;1.595435e-001
2.956464e+003;1.551693e-001
2.958393e+003;1.498763e-001
2.960321e+003;1.438293e-001
2.962250e+003;1.367009e-001
2.964178e+003;1.289087e-001
2.966107e+003;1.210941e-001
2.968035e+003;1.130183e-001
2.969964e+003;1.051134e-001
2.971892e+003;9.806175e-002
2.973821e+003;9.203959e-002
2.975750e+003;8.645777e-002
2.977678e+003;8.155939e-002
2.979607e+003;7.767199e-002
2.981535e+003;7.417548e-002
2.983464e+003;7.082719e-002
2.985392e+003;6.783412e-002
2.987321e+003;6.468379e-002
2.989249e+003;6.160831e-002
2.991178e+003;5.936522e-002
2.993106e+003;5.727230e-002
2.995035e+003;5.497021e-002
2.996964e+003;5.270157e-002
2.998892e+003;5.062526e-002
3.000821e+003;4.855000e-002
3.002749e+003;4.642355e-002
3.004678e+003;4.451912e-002
3.006606e+003;4.259520e-002
3.008535e+003;4.098519e-002
3.010463e+003;3.956583e-002
3.012392e+003;3.789569e-002
3.014321e+003;3.633788e-002
3.016249e+003;3.465784e-002
3.018177e+003;3.285498e-002
3.020106e+003;3.179504e-002
3.022035e+003;3.115810e-002
3.023963e+003;3.048656e-002
3.025892e+003;2.975118e-002
3.027820e+003;2.882212e-002
3.029749e+003;2.766036e-002
3.031677e+003;2.696052e-002
3.033606e+003;2.645359e-002
3.035534e+003;2.570922e-002
3.037463e+003;2.488285e-002
3.039392e+003;2.445155e-002
3.041320e+003;2.416838e-002
3.043249e+003;2.391134e-002
3.045177e+003;2.347583e-002
3.047106e+003;2.309953e-002
3.049034e+003;2.279160e-002
3.050963e+003;2.270152e-002
3.052891e+003;2.253813e-002
3.054820e+003;2.227057e-002
3.056749e+003;2.192971e-002
3.058677e+003;2.147480e-002
3.060606e+003;2.144452e-002
3.062534e+003;2.173689e-002
3.064463e+003;2.155749e-002
3.066391e+003;2.114183e-002
3.068320e+003;2.076237e-002
3.070248e+003;2.059672e-002
3.072177e+003;2.056666e-002
3.074105e+003;2.060488e-002
3.076034e+003;2.029865e-002
3.077963e+003;1.987590e-002
3.079891e+003;1.999961e-002
3.081820e+003;2.023960e-002
3.083748e+003;1.997040e-002
3.085677e+003;1.975071e-002
3.087605e+003;1.981764e-002
3.089534e+003;1.957352e-002
3.091462e+003;1.944369e-002
3.093391e+003;1.931363e-002
3.095320e+003;1.899855e-002
3.097248e+003;1.921464e-002
3.099177e+003;1.972533e-002
3.101105e+003;1.976663e-002
3.103034e+003;1.961241e-002
3.104962e+003;1.988052e-002
3.106891e+003;2.005908e-002
3.108819e+003;1.965917e-002
3.110748e+003;1.939913e-002
3.112677e+003;1.926237e-002
3.114605e+003;1.940371e-002
3.116533e+003;2.017660e-002
3.118462e+003;2.015560e-002
3.120391e+003;1.950621e-002
3.122319e+003;1.942949e-002
3.124248e+003;1.952749e-002
3.126176e+003;1.958925e-002
3.128105e+003;1.990903e-002
3.130033e+003;2.003615e-002
3.131962e+003;2.030591e-002
3.133890e+003;2.080808e-002
3.135819e+003;2.088125e-002
3.137748e+003;2.055989e-002
3.139676e+003;2.056673e-002
3.141605e+003;2.070735e-002
3.143533e+003;2.115516e-002
3.145462e+003;2.143846e-002
3.147390e+003;2.143745e-002
3.149319e+003;2.142008e-002
3.151247e+003;2.130975e-002
3.153176e+003;2.101248e-002
3.155104e+003;2.089565e-002
3.157033e+003;2.114865e-002
3.158962e+003;2.127464e-002
3.160890e+003;2.144420e-002
3.162819e+003;2.143028e-002
3.164747e+003;2.111536e-002
3.166676e+003;2.135670e-002
3.168604e+003;2.176904e-002
3.170533e+003;2.180879e-002
3.172461e+003;2.173609e-002
3.174390e+003;2.181966e-002
3.176319e+003;2.181318e-002
3.178247e+003;2.179448e-002
3.180176e+003;2.174877e-002
3.182104e+003;2.154255e-002
3.184033e+003;2.152518e-002
3.185961e+003;2.152650e-002
3.187890e+003;2.157828e-002
3.189818e+003;2.183736e-002
3.191747e+003;2.232927e-002
3.193676e+003;2.218767e-002
3.195604e+003;2.182893e-002
3.197532e+003;2.199913e-002
3.199461e+003;2.216400e-002
3.201390e+003;2.215242e-002
3.203318e+003;2.204340e-002
3.205247e+003;2.221798e-002
3.207175e+003;2.231026e-002
3.209104e+003;2.224434e-002
3.211032e+003;2.212603e-002
3.212961e+003;2.205700e-002
3.214889e+003;2.189521e-002
3.216818e+003;2.192180e-002
3.218747e+003;2.191075e-002
3.220675e+003;2.154444e-002
3.222604e+003;2.107762e-002
3.224532e+003;2.071580e-002
3.226461e+003;2.083585e-002
3.228389e+003;2.055193e-002
3.230318e+003;2.047930e-002
3.232246e+003;2.039140e-002
3.234175e+003;1.953009e-002
3.236104e+003;1.891361e-002
3.238032e+003;1.908520e-002
3.239961e+003;1.922382e-002
3.241889e+003;1.882661e-002
3.243818e+003;1.858087e-002
3.245746e+003;1.867567e-002
3.247675e+003;1.857482e-002
3.249603e+003;1.844225e-002
3.251532e+003;1.859457e-002
3.253460e+003;1.895733e-002
3.255389e+003;1.923206e-002
3.257318e+003;1.893822e-002
3.259246e+003;1.827060e-002
3.261175e+003;1.794050e-002
3.263103e+003;1.830693e-002
3.265032e+003;1.863572e-002
3.266960e+003;1.824306e-002
3.268889e+003;1.778769e-002
3.270817e+003;1.771696e-002
3.272746e+003;1.783736e-002
3.274675e+003;1.812072e-002
3.276603e+003;1.830589e-002
3.278531e+003;1.845881e-002
3.280460e+003;1.844325e-002
3.282389e+003;1.832970e-002
3.284317e+003;1.881457e-002
3.286246e+003;1.910573e-002
3.288174e+003;1.908669e-002
3.290103e+003;1.908458e-002
3.292031e+003;1.892645e-002
3.293960e+003;1.864703e-002
3.295888e+003;1.872358e-002
3.297817e+003;1.896290e-002
3.299746e+003;1.877433e-002
3.301674e+003;1.857949e-002
3.303603e+003;1.844554e-002
3.305531e+003;1.847499e-002
3.307460e+003;1.863275e-002
3.309388e+003;1.898398e-002
3.311317e+003;1.840609e-002
3.313245e+003;1.790579e-002
3.315174e+003;1.784748e-002
3.317103e+003;1.774033e-002
3.319031e+003;1.758970e-002
3.320960e+003;1.756372e-002
3.322888e+003;1.786754e-002
3.324817e+003;1.823284e-002
3.326745e+003;1.831370e-002
3.328674e+003;1.845581e-002
3.330602e+003;1.845491e-002
3.332531e+003;1.842109e-002
3.334459e+003;1.841964e-002
3.336388e+003;1.847095e-002
3.338317e+003;1.879814e-002
3.340245e+003;1.904885e-002
3.342174e+003;1.886779e-002
3.344102e+003;1.832784e-002
3.346031e+003;1.819013e-002
3.347959e+003;1.806331e-002
3.349888e+003;1.767358e-002
3.351816e+003;1.800697e-002
3.353745e+003;1.854207e-002
3.355674e+003;1.858191e-002
3.357602e+003;1.853889e-002
3.359531e+003;1.885966e-002
3.361459e+003;1.859028e-002
3.363388e+003;1.810752e-002
3.365316e+003;1.814152e-002
3.367245e+003;1.822820e-002
3.369173e+003;1.834660e-002
3.371102e+003;1.852603e-002
3.373031e+003;1.834066e-002
3.374959e+003;1.785794e-002
3.376887e+003;1.747150e-002
3.378816e+003;1.738210e-002
3.380745e+003;1.732844e-002
3.382673e+003;1.708072e-002
3.384602e+003;1.722180e-002
3.386530e+003;1.764987e-002
3.388459e+003;1.776377e-002
3.390387e+003;1.732341e-002
3.392316e+003;1.709509e-002
3.394244e+003;1.731637e-002
3.396173e+003;1.717816e-002
3.398102e+003;1.699064e-002
3.400030e+003;1.690317e-002
3.401959e+003;1.704957e-002
3.403887e+003;1.708799e-002
3.405816e+003;1.694937e-002
3.407744e+003;1.737203e-002
3.409673e+003;1.753391e-002
3.411601e+003;1.719781e-002
3.413530e+003;1.694816e-002
3.415458e+003;1.677607e-002
3.417387e+003;1.657819e-002
3.419316e+003;1.667511e-002
3.421244e+003;1.696305e-002
3.423173e+003;1.664915e-002
3.425101e+003;1.576663e-002
3.427030e+003;1.609055e-002
3.428958e+003;1.698461e-002
3.430887e+003;1.681406e-002
3.432815e+003;1.545384e-002
3.434744e+003;1.490648e-002
3.436673e+003;1.570637e-002
3.438601e+003;1.625673e-002
3.440530e+003;1.611799e-002
3.442458e+003;1.542462e-002
3.444387e+003;1.526099e-002
3.446315e+003;1.504175e-002
3.448244e+003;1.496783e-002
3.450172e+003;1.513128e-002
3.452101e+003;1.458632e-002
3.454030e+003;1.411179e-002
3.455958e+003;1.441578e-002
3.457886e+003;1.461157e-002
3.459815e+003;1.498368e-002
3.461744e+003;1.500779e-002
3.463672e+003;1.449056e-002
3.465601e+003;1.386566e-002
3.467529e+003;1.359159e-002
3.469458e+003;1.345794e-002
3.471386e+003;1.330978e-002
3.473315e+003;1.306065e-002
3.475243e+003;1.265730e-002
3.477172e+003;1.229359e-002
3.479101e+003;1.233961e-002
3.481029e+003;1.280767e-002
3.482958e+003;1.306741e-002
3.484886e+003;1.269875e-002
3.486815e+003;1.228852e-002
3.488743e+003;1.208497e-002
3.490672e+003;1.196439e-002
3.492600e+003;1.241458e-002
3.494529e+003;1.253557e-002
3.496458e+003;1.215864e-002
3.498386e+003;1.199964e-002
3.500315e+003;1.182957e-002
3.502243e+003;1.148764e-002
3.504172e+003;1.145509e-002
3.506100e+003;1.171371e-002
3.508029e+003;1.173917e-002
3.509957e+003;1.156304e-002
3.511886e+003;1.169006e-002
3.513814e+003;1.175334e-002
3.515743e+003;1.166868e-002
3.517672e+003;1.173322e-002
3.519600e+003;1.150340e-002
3.521529e+003;1.134090e-002
3.523457e+003;1.132984e-002
3.525386e+003;1.124673e-002
3.527314e+003;1.143954e-002
3.529243e+003;1.171085e-002
3.531171e+003;1.127223e-002
3.533100e+003;1.063823e-002
3.535029e+003;1.059083e-002
3.536957e+003;1.074775e-002
3.538885e+003;1.059959e-002
3.540814e+003;1.036653e-002
3.542743e+003;1.019119e-002
3.544671e+003;1.006377e-002
3.546600e+003;1.059833e-002
3.548528e+003;1.082006e-002
3.550457e+003;1.063836e-002
3.552385e+003;9.924116e-003
3.554314e+003;8.962728e-003
3.556242e+003;8.646141e-003
3.558171e+003;8.978491e-003
3.560100e+003;9.212360e-003
3.562028e+003;8.851728e-003
3.563957e+003;8.466022e-003
3.565885e+003;7.914575e-003
3.567814e+003;7.570663e-003
3.569742e+003;7.972651e-003
3.571671e+003;8.243461e-003
3.573599e+003;8.200374e-003
3.575528e+003;8.299049e-003
3.577457e+003;8.180014e-003
3.579385e+003;8.131532e-003
3.581314e+003;8.055443e-003
3.583242e+003;7.554075e-003
3.585171e+003;7.077701e-003
3.587099e+003;6.686669e-003
3.589028e+003;6.902171e-003
3.590956e+003;7.379767e-003
3.592885e+003;7.058775e-003
3.594813e+003;6.904023e-003
3.596742e+003;7.106161e-003
3.598671e+003;7.092251e-003
3.600599e+003;7.386508e-003
3.602528e+003;7.496965e-003
3.604456e+003;7.070730e-003
3.606385e+003;6.391742e-003
3.608313e+003;5.661712e-003
3.610242e+003;5.404483e-003
3.612170e+003;5.651004e-003
3.614099e+003;6.075208e-003
3.616028e+003;6.371097e-003
3.617956e+003;5.869754e-003
3.619885e+003;5.713377e-003
3.621813e+003;6.211111e-003
3.623742e+003;6.325371e-003
3.625670e+003;6.117614e-003
3.627599e+003;4.855835e-003
3.629527e+003;4.087003e-003
3.631456e+003;5.165915e-003
3.633385e+003;5.975257e-003
3.635313e+003;5.994439e-003
3.637241e+003;6.220791e-003
3.639170e+003;6.817378e-003
3.641099e+003;6.652551e-003
3.643027e+003;5.923829e-003
3.644956e+003;5.173191e-003
3.646884e+003;4.643656e-003
3.648813e+003;4.424919e-003
3.650741e+003;4.835296e-003
3.652670e+003;5.293450e-003
3.654598e+003;5.069391e-003
3.656527e+003;4.992798e-003
3.658456e+003;5.132687e-003
3.660384e+003;4.961226e-003
3.662313e+003;5.368017e-003
3.664241e+003;5.604648e-003
3.666170e+003;5.261286e-003
3.668098e+003;4.876040e-003
3.670027e+003;4.612176e-003
3.671955e+003;5.205483e-003
3.673884e+003;4.873359e-003
3.675813e+003;4.734658e-003
3.677741e+003;6.109549e-003
3.679669e+003;6.537599e-003
3.681598e+003;6.373786e-003
3.683527e+003;6.395172e-003
3.685455e+003;6.179921e-003
3.687384e+003;5.515913e-003
3.689312e+003;5.446723e-003
3.691241e+003;5.911570e-003
3.693169e+003;6.742057e-003
3.695098e+003;6.846695e-003
3.697026e+003;6.314579e-003
3.698955e+003;6.200423e-003
3.700884e+003;5.645666e-003
3.702812e+003;6.107600e-003
3.704741e+003;6.769148e-003
3.706669e+003;6.239009e-003
3.708598e+003;5.904482e-003
3.710526e+003;5.890241e-003
3.712455e+003;5.947174e-003
3.714383e+003;6.359261e-003
3.716312e+003;5.913349e-003
3.718240e+003;5.727344e-003
3.720169e+003;6.201128e-003
3.722098e+003;6.569286e-003
3.724026e+003;6.603498e-003
3.725955e+003;6.472046e-003
3.727883e+003;6.463605e-003
3.729812e+003;6.365683e-003
3.731740e+003;5.942304e-003
3.733669e+003;5.525612e-003
3.735597e+003;5.418842e-003
3.737526e+003;5.884767e-003
3.739455e+003;5.957688e-003
3.741383e+003;5.555446e-003
3.743312e+003;4.389707e-003
3.745240e+003;4.386092e-003
3.747169e+003;5.082834e-003
3.749097e+003;4.407313e-003
3.751026e+003;4.221717e-003
3.752954e+003;5.423372e-003
3.754883e+003;6.459233e-003
3.756812e+003;6.345577e-003
3.758740e+003;6.513583e-003
3.760668e+003;7.088681e-003
3.762597e+003;7.599863e-003
3.764526e+003;7.632639e-003
3.766454e+003;7.517664e-003
3.768383e+003;6.872816e-003
3.770311e+003;6.322748e-003
3.772240e+003;6.538676e-003
3.774168e+003;6.837304e-003
3.776097e+003;6.834510e-003
3.778025e+003;6.859554e-003
3.779954e+003;7.125022e-003
3.781883e+003;7.156280e-003
3.783811e+003;6.807415e-003
3.785740e+003;7.037525e-003
3.787668e+003;7.166015e-003
3.789597e+003;7.207113e-003
3.791525e+003;7.069855e-003
3.793454e+003;7.103736e-003
3.795382e+003;7.127852e-003
3.797311e+003;6.913752e-003
3.799240e+003;6.333507e-003
3.801168e+003;5.998740e-003
3.803097e+003;6.473728e-003
3.805025e+003;6.189500e-003
3.806954e+003;6.051957e-003
3.808882e+003;6.790688e-003
3.810811e+003;6.875577e-003
3.812739e+003;6.660659e-003
3.814668e+003;6.284659e-003
3.816596e+003;6.513146e-003
3.818525e+003;6.641650e-003
3.820454e+003;6.051117e-003
3.822382e+003;6.449279e-003
3.824311e+003;6.811959e-003
3.826239e+003;6.815190e-003
3.828168e+003;7.127010e-003
3.830096e+003;7.024190e-003
3.832025e+003;7.042711e-003
3.833953e+003;7.236019e-003
3.835882e+003;6.852014e-003
3.837811e+003;6.193465e-003
3.839739e+003;6.221228e-003
3.841667e+003;6.125847e-003
3.843596e+003;5.751451e-003
3.845525e+003;5.527290e-003
3.847453e+003;6.016915e-003
3.849382e+003;6.772783e-003
3.851310e+003;6.062406e-003
3.853239e+003;4.959081e-003
3.855167e+003;5.698236e-003
3.857096e+003;6.538205e-003
3.859024e+003;6.810074e-003
3.860953e+003;7.107946e-003
3.862882e+003;7.293634e-003
3.864810e+003;6.941628e-003
3.866739e+003;7.087030e-003
3.868667e+003;6.796981e-003
3.870596e+003;6.840704e-003
3.872524e+003;7.405146e-003
3.874453e+003;7.542747e-003
3.876381e+003;8.042616e-003
3.878310e+003;7.907185e-003
3.880239e+003;7.423987e-003
3.882167e+003;7.367669e-003
3.884096e+003;7.456008e-003
3.886024e+003;7.716142e-003
3.887953e+003;7.895409e-003
3.889881e+003;7.029511e-003
3.891810e+003;6.618537e-003
3.893738e+003;7.352166e-003
3.895667e+003;7.985374e-003
3.897595e+003;8.179947e-003
3.899524e+003;8.115631e-003
3.901453e+003;7.379565e-003
3.903381e+003;7.113200e-003
3.905310e+003;8.083122e-003
3.907238e+003;8.656213e-003
3.909167e+003;8.326507e-003
3.911095e+003;7.775304e-003
3.913024e+003;8.082515e-003
3.914952e+003;7.988040e-003
3.916881e+003;7.453648e-003
3.918810e+003;7.653985e-003
3.920738e+003;8.221276e-003
3.922667e+003;8.712935e-003
3.924595e+003;8.554011e-003
3.926524e+003;8.864174e-003
3.928452e+003;9.226406e-003
3.930381e+003;8.788328e-003
3.932309e+003;8.559113e-003
3.934238e+003;8.903166e-003
3.936167e+003;8.958263e-003
3.938095e+003;8.554450e-003
3.940023e+003;8.670511e-003
3.941952e+003;8.971421e-003
3.943881e+003;8.859236e-003
3.945809e+003;8.887609e-003
3.947738e+003;8.636980e-003
3.949666e+003;8.037722e-003
3.951595e+003;8.530086e-003
3.953523e+003;9.288788e-003
3.955452e+003;9.101703e-003
3.957380e+003;8.695593e-003
3.959309e+003;8.732982e-003
3.961238e+003;9.062286e-003
3.963166e+003;8.527687e-003
3.965095e+003;8.351637e-003
3.967023e+003;8.838439e-003
3.968952e+003;9.059985e-003
3.970880e+003;8.736633e-003
3.972809e+003;8.682342e-003
3.974737e+003;9.261505e-003
3.976666e+003;9.359608e-003
3.978594e+003;8.915173e-003
3.980523e+003;9.329173e-003
3.982452e+003;1.014340e-002
3.984380e+003;1.009745e-002
3.986309e+003;1.007985e-002
3.988237e+003;1.037342e-002
3.990166e+003;1.048820e-002
3.992094e+003;1.083029e-002
3.994023e+003;1.069073e-002
3.995951e+003;1.036049e-002
3.997880e+003;1.014218e-002
3.999809e+003;9.787757e-003
4.001737e+003;0.000000e+000
