3.992094e+002;0.000000e+000
4.011380e+002;0.000000e+000
4.030665e+002;0.000000e+000
4.049951e+002;0.000000e+000
4.069236e+002;0.000000e+000
4.088522e+002;0.000000e+000
4.107807e+002;0.000000e+000
4.127093e+002;0.000000e+000
4.146378e+002;0.000000e+000
4.165664e+002;0.000000e+000
4.184949e+002;0.000000e+000
4.204235e+002;0.000000e+000
4.223520e+002;0.000000e+000
4.242806e+002;0.000000e+000
4.262091e+002;0.000000e+000
4.281377e+002;0.000000e+000
4.300662e+002;0.000000e+000
4.319948e+002;0.000000e+000
4.339233e+002;0.000000e+000
4.358519e+002;0.000000e+000
4.377804e+002;0.000000e+000
4.397090e+002;0.000000e+000
4.416375e+002;0.000000e+000
4.435660e+002;0.000000e+000
4.454946e+002;0.000000e+000
4.474232e+002;0.000000e+000
4.493517e+002;0.000000e+000
4.512802e+002;0.000000e+000
4.532088e+002;0.000000e+000
4.551373e+002;0.000000e+000
4.570659e+002;0.000000e+000
4.589944e+002;0.000000e+000
4.609230e+002;0.000000e+000
4.628515e+002;0.000000e+000
4.647801e+002;0.000000e+000
4.667086e+002;0.000000e+000
4.686372e+002;0.000000e+000
4.705657e+002;0.000000e+000
4.724943e+002;0.000000e+000
4.744228e+002;0.000000e+000
4.763513e+002;0.000000e+000
4.782799e+002;0.000000e+000
4.802085e+002;0.000000e+000
4.821370e+002;0.000000e+000
4.840656e+002;0.000000e+000
4.859941e+002;0.000000e+000
4.879226e+002;0.000000e+000
4.898512e+002;0.000000e+000
4.917798e+002;0.000000e+000
4.937083e+002;0.000000e+000
4.956368e+002;0.000000e+000
4.975654e+002;0.000000e+000
4.994939e+002;0.000000e+000
5.014225e+002;0.000000e+000
5.033510e+002;0.000000e+000
5.052796e+002;0.000000e+000
5.072081e+002;0.000000e+000
5.091367e+002;0.000000e+000
5.110652e+002;0.000000e+000
5.129938e+002;0.000000e+000
5.149223e+002;0.000000e+000
5.168509e+002;0.000000e+000
5.187794e+002;0.000000e+000
5.207079e+002;0.000000e+000
5.226365e+002;0.000000e+000
5.245651e+002;0.000000e+000
5.264936e+002;0.000000e+000
5.284222e+002;0.000000e+000
5.303507e+002;0.000000e+000
5.322792e+002;0.000000e+000
5.342078e+002;0.000000e+000
5.361364e+002;0.000000e+000
5.380649e+002;0.000000e+000
5.399935e+002;0.000000e+000
5.419220e+002;0.000000e+000
5.438505e+002;0.000000e+000
5.457791e+002;0.000000e+000
5.477076e+002;0.000000e+000
5.496362e+002;0.000000e+000
5.515648e+002;0.000000e+000
5.534933e+002;0.000000e+000
5.554218e+002;0.000000e+000
5.573504e+002;0.000000e+000
5.592789e+002;0.000000e+000
5.612075e+002;0.000000e+000
5.631360e+002;0.000000e+000
5.650646e+002;0.000000e+000
5.669931e+002;0.000000e+000
5.689217e+002;0.000000e+000
5.708502e+002;0.000000e+000
5.727787e+002;0.000000e+000
5.747073e+002;0.000000e+000
5.766359e+002;0.000000e+000
5.785644e+002;0.000000e+000
5.804930e+002;0.000000e+000
5.824215e+002;0.000000e+000
5.843500e+002;0.000000e+000
5.862786e+002;0.000000e+000
5.882072e+002;0.000000e+000
5.901357e+002;0.000000e+000
5.920643e+002;0.000000e+000
5.939928e+002;0.000000e+000
5.959213e+002;0.000000e+000
5.978499e+002;0.000000e+000
5.997784e+002;5.465861e-002
6.017070e+002;4.661573e-002
6.036355e+002;4.654447e-002
6.055641e+002;4.598315e-002
6.074926e+002;4.773342e-002
6.094211e+002;4.233439e-002
6.113497e+002;3.802532e-002
6.132783e+002;4.031654e-002
6.152068e+002;4.102255e-002
6.171354e+002;4.441947e-002
6.190639e+002;4.948204e-002
6.209924e+002;4.712218e-002
6.229210e+002;4.586556e-002
6.248495e+002;4.613059e-002
6.267781e+002;4.719468e-002
6.287067e+002;4.766900e-002
6.306352e+002;4.883062e-002
6.325637e+002;4.868601e-002
6.344923e+002;4.946766e-002
6.364208e+002;4.910779e-002
6.383494e+002;4.598728e-002
6.402780e+002;4.423101e-002
6.422065e+002;4.441873e-002
6.441350e+002;4.660375e-002
6.460636e+002;4.731356e-002
6.479921e+002;4.654510e-002
6.499207e+002;4.716269e-002
6.518492e+002;4.666384e-002
6.537778e+002;4.667649e-002
6.557063e+002;4.734216e-002
6.576349e+002;4.690304e-002
6.595634e+002;4.707498e-002
6.614919e+002;5.085309e-002
6.634205e+002;5.247075e-002
6.653491e+002;5.031732e-002
6.672776e+002;4.734911e-002
6.692062e+002;4.673339e-002
6.711347e+002;4.941193e-002
6.730632e+002;5.101561e-002
6.749918e+002;5.028172e-002
6.769203e+002;5.014064e-002
6.788489e+002;4.926806e-002
6.807775e+002;4.856568e-002
6.827060e+002;4.905615e-002
6.846345e+002;4.832704e-002
6.865631e+002;4.728774e-002
6.884916e+002;4.686281e-002
6.904202e+002;4.639738e-002
6.923488e+002;4.664905e-002
6.942773e+002;4.657885e-002
6.962058e+002;4.784098e-002
6.981344e+002;4.844642e-002
7.000629e+002;4.804352e-002
7.019915e+002;4.827645e-002
7.039200e+002;4.778904e-002
7.058486e+002;4.721958e-002
7.077771e+002;4.891710e-002
7.097057e+002;4.928955e-002
7.116342e+002;4.887193e-002
7.135627e+002;5.040457e-002
7.154913e+002;5.160844e-002
7.174199e+002;5.180614e-002
7.193484e+002;5.196987e-002
7.212770e+002;5.176855e-002
7.232055e+002;5.214895e-002
7.251340e+002;5.225977e-002
7.270626e+002;5.191023e-002
7.289911e+002;5.146416e-002
7.309197e+002;5.118035e-002
7.328483e+002;5.070129e-002
7.347768e+002;4.990831e-002
7.367053e+002;4.967955e-002
7.386339e+002;5.049475e-002
7.405624e+002;5.053878e-002
7.424910e+002;5.090756e-002
7.444196e+002;5.008400e-002
7.463481e+002;4.932306e-002
7.482766e+002;4.974342e-002
7.502052e+002;4.940562e-002
7.521337e+002;4.974115e-002
7.540623e+002;5.075048e-002
7.559908e+002;5.102597e-002
7.579194e+002;5.102072e-002
7.598479e+002;5.055624e-002
7.617765e+002;5.066156e-002
7.637050e+002;5.104952e-002
7.656335e+002;5.115064e-002
7.675621e+002;5.110997e-002
7.694907e+002;5.096441e-002
7.714192e+002;5.130279e-002
7.733478e+002;5.136663e-002
7.752763e+002;5.096184e-002
7.772048e+002;5.057269e-002
7.791334e+002;5.071462e-002
7.810620e+002;5.092760e-002
7.829905e+002;5.184243e-002
7.849191e+002;5.328045e-002
7.868476e+002;5.333342e-002
7.887761e+002;5.350013e-002
7.907047e+002;5.428619e-002
7.926332e+002;5.502350e-002
7.945618e+002;5.624497e-002
7.964903e+002;5.839849e-002
7.984189e+002;6.021964e-002
8.003474e+002;6.154187e-002
8.022759e+002;6.314415e-002
8.042045e+002;6.542122e-002
8.061331e+002;6.789409e-002
8.080616e+002;7.042097e-002
8.099902e+002;7.111330e-002
8.119187e+002;6.945368e-002
8.138472e+002;6.632636e-002
8.157758e+002;6.343517e-002
8.177043e+002;6.144850e-002
8.196329e+002;5.993541e-002
8.215615e+002;5.947935e-002
8.234900e+002;5.919549e-002
8.254185e+002;5.866124e-002
8.273471e+002;5.809170e-002
8.292756e+002;5.829556e-002
8.312042e+002;5.885524e-002
8.331328e+002;5.960445e-002
8.350613e+002;6.118254e-002
8.369898e+002;6.435731e-002
8.389184e+002;6.952608e-002
8.408469e+002;7.400013e-002
8.427755e+002;7.360506e-002
8.447040e+002;6.870266e-002
8.466326e+002;6.400985e-002
8.485611e+002;6.088879e-002
8.504897e+002;5.848761e-002
8.524182e+002;5.748663e-002
8.543467e+002;5.723208e-002
8.562753e+002;5.623131e-002
8.582039e+002;5.534777e-002
8.601324e+002;5.430136e-002
8.620610e+002;5.398484e-002
8.639895e+002;5.472607e-002
8.659180e+002;5.509985e-002
8.678466e+002;5.467451e-002
8.697751e+002;5.404555e-002
8.717037e+002;5.433740e-002
8.736323e+002;5.517208e-002
8.755608e+002;5.534710e-002
8.774893e+002;5.519876e-002
8.794179e+002;5.486527e-002
8.813464e+002;5.429028e-002
8.832750e+002;5.384971e-002
8.852036e+002;5.414294e-002
8.871321e+002;5.462987e-002
8.890606e+002;5.483617e-002
8.909892e+002;5.618587e-002
8.929177e+002;5.871188e-002
8.948463e+002;6.273066e-002
8.967748e+002;6.735716e-002
8.987034e+002;6.996327e-002
9.006319e+002;6.968629e-002
9.025605e+002;6.605077e-002
9.044890e+002;6.057810e-002
9.064175e+002;5.591301e-002
9.083461e+002;5.329293e-002
9.102747e+002;5.227199e-002
9.122032e+002;5.124399e-002
9.141318e+002;5.044257e-002
9.160603e+002;5.053007e-002
9.179888e+002;5.021536e-002
9.199174e+002;4.956403e-002
9.218459e+002;4.951297e-002
9.237745e+002;4.958710e-002
9.257031e+002;4.971949e-002
9.276316e+002;5.003284e-002
9.295601e+002;5.008909e-002
9.314887e+002;5.026758e-002
9.334172e+002;5.091501e-002
9.353458e+002;5.197715e-002
9.372744e+002;5.365112e-002
9.392029e+002;5.547162e-002
9.411314e+002;5.656163e-002
9.430600e+002;5.705207e-002
9.449885e+002;5.734142e-002
9.469171e+002;5.680393e-002
9.488456e+002;5.617543e-002
9.507742e+002;5.653540e-002
9.527027e+002;5.789865e-002
9.546313e+002;5.855843e-002
9.565598e+002;5.878858e-002
9.584883e+002;5.973735e-002
9.604169e+002;6.134511e-002
9.623455e+002;6.376806e-002
9.642740e+002;6.704788e-002
9.662026e+002;7.139963e-002
9.681311e+002;7.722777e-002
9.700596e+002;8.440779e-002
9.719882e+002;9.052536e-002
9.739167e+002;9.215941e-002
9.758453e+002;8.840975e-002
9.777739e+002;8.101249e-002
9.797024e+002;7.287262e-002
9.816309e+002;6.614946e-002
9.835595e+002;6.190086e-002
9.854880e+002;5.990547e-002
9.874166e+002;6.004223e-002
9.893452e+002;6.205239e-002
9.912737e+002;6.535779e-002
9.932022e+002;7.023560e-002
9.951307e+002;7.664009e-002
9.970593e+002;8.141533e-002
9.989879e+002;8.125521e-002
1.000916e+003;7.695359e-002
1.002845e+003;7.165720e-002
1.004773e+003;6.732075e-002
1.006702e+003;6.459032e-002
1.008631e+003;6.284291e-002
1.010559e+003;6.186128e-002
1.012488e+003;6.113569e-002
1.014416e+003;6.026151e-002
1.016345e+003;5.940610e-002
1.018273e+003;5.929620e-002
1.020202e+003;6.001035e-002
1.022130e+003;5.995351e-002
1.024059e+003;5.951841e-002
1.025988e+003;5.966333e-002
1.027916e+003;6.008020e-002
1.029845e+003;6.074659e-002
1.031773e+003;6.175145e-002
1.033702e+003;6.268636e-002
1.035630e+003;6.363726e-002
1.037559e+003;6.420006e-002
1.039487e+003;6.505693e-002
1.041416e+003;6.557699e-002
1.043344e+003;6.604209e-002
1.045273e+003;6.586471e-002
1.047202e+003;6.469683e-002
1.049130e+003;6.355689e-002
1.051059e+003;6.293126e-002
1.052987e+003;6.225273e-002
1.054916e+003;6.177731e-002
1.056844e+003;6.210334e-002
1.058773e+003;6.259225e-002
1.060701e+003;6.194457e-002
1.062630e+003;6.134942e-002
1.064558e+003;6.192314e-002
1.066487e+003;6.199345e-002
1.068416e+003;6.188011e-002
1.070344e+003;6.163619e-002
1.072273e+003;6.200251e-002
1.074201e+003;6.285390e-002
1.076130e+003;6.277472e-002
1.078058e+003;6.220206e-002
1.079987e+003;6.229116e-002
1.081915e+003;6.283978e-002
1.083844e+003;6.313377e-002
1.085773e+003;6.332134e-002
1.087701e+003;6.406579e-002
1.089630e+003;6.499150e-002
1.091558e+003;6.512268e-002
1.093487e+003;6.511313e-002
1.095415e+003;6.620865e-002
1.097344e+003;6.813683e-002
1.099272e+003;6.988025e-002
1.101201e+003;7.060824e-002
1.103129e+003;7.046286e-002
1.105058e+003;7.020655e-002
1.106987e+003;6.902691e-002
1.108915e+003;6.753983e-002
1.110844e+003;6.590108e-002
1.112772e+003;6.428392e-002
1.114701e+003;6.329255e-002
1.116629e+003;6.210384e-002
1.118558e+003;6.097022e-002
1.120486e+003;6.105286e-002
1.122415e+003;6.152756e-002
1.124344e+003;6.140308e-002
1.126272e+003;6.093362e-002
1.128201e+003;6.069968e-002
1.130129e+003;6.121309e-002
1.132058e+003;6.187301e-002
1.133986e+003;6.238992e-002
1.135915e+003;6.381273e-002
1.137843e+003;6.580348e-002
1.139772e+003;6.823262e-002
1.141700e+003;7.118301e-002
1.143629e+003;7.424517e-002
1.145557e+003;7.716567e-002
1.147486e+003;7.999116e-002
1.149415e+003;8.280236e-002
1.151343e+003;8.552474e-002
1.153272e+003;8.701314e-002
1.155200e+003;8.733904e-002
1.157129e+003;8.759160e-002
1.159057e+003;8.780607e-002
1.160986e+003;8.814239e-002
1.162914e+003;8.879820e-002
1.164843e+003;8.959142e-002
1.166771e+003;8.921194e-002
1.168700e+003;8.746887e-002
1.170629e+003;8.437479e-002
1.172557e+003;8.053062e-002
1.174486e+003;7.660230e-002
1.176414e+003;7.307405e-002
1.178343e+003;6.997588e-002
1.180271e+003;6.757753e-002
1.182200e+003;6.630151e-002
1.184128e+003;6.573120e-002
1.186057e+003;6.502391e-002
1.187986e+003;6.460016e-002
1.189914e+003;6.470798e-002
1.191843e+003;6.499109e-002
1.193771e+003;6.497827e-002
1.195700e+003;6.510397e-002
1.197628e+003;6.518777e-002
1.199557e+003;6.534508e-002
1.201485e+003;6.537242e-002
1.203414e+003;6.514782e-002
1.205343e+003;6.508434e-002
1.207271e+003;6.538290e-002
1.209200e+003;6.606500e-002
1.211128e+003;6.732211e-002
1.213057e+003;6.855027e-002
1.214985e+003;6.900982e-002
1.216914e+003;6.908063e-002
1.218842e+003;6.908561e-002
1.220771e+003;6.895249e-002
1.222699e+003;6.822502e-002
1.224628e+003;6.770271e-002
1.226557e+003;6.739965e-002
1.228485e+003;6.696866e-002
1.230414e+003;6.674520e-002
1.232342e+003;6.706946e-002
1.234271e+003;6.745622e-002
1.236199e+003;6.749593e-002
1.238128e+003;6.761672e-002
1.240056e+003;6.789222e-002
1.241985e+003;6.814985e-002
1.243913e+003;6.866796e-002
1.245842e+003;6.911039e-002
1.247771e+003;6.955933e-002
1.249699e+003;7.047841e-002
1.251628e+003;7.229268e-002
1.253556e+003;7.452771e-002
1.255485e+003;7.583693e-002
1.257413e+003;7.594348e-002
1.259342e+003;7.514153e-002
1.261270e+003;7.337478e-002
1.263199e+003;7.104196e-002
1.265127e+003;6.957080e-002
1.267056e+003;6.887425e-002
1.268985e+003;6.820971e-002
1.270913e+003;6.746737e-002
1.272842e+003;6.718807e-002
1.274770e+003;6.709336e-002
1.276699e+003;6.701981e-002
1.278627e+003;6.686534e-002
1.280556e+003;6.678914e-002
1.282484e+003;6.717588e-002
1.284413e+003;6.795213e-002
1.286342e+003;6.859854e-002
1.288270e+003;6.925365e-002
1.290199e+003;7.024184e-002
1.292127e+003;7.110136e-002
1.294056e+003;7.171484e-002
1.295984e+003;7.182515e-002
1.297913e+003;7.181799e-002
1.299841e+003;7.183398e-002
1.301770e+003;7.210753e-002
1.303698e+003;7.239554e-002
1.305627e+003;7.116513e-002
1.307556e+003;6.850895e-002
1.309484e+003;6.633849e-002
1.311413e+003;6.547042e-002
1.313341e+003;6.518812e-002
1.315270e+003;6.528465e-002
1.317198e+003;6.605157e-002
1.319127e+003;6.691072e-002
1.321055e+003;6.789289e-002
1.322984e+003;6.939910e-002
1.324912e+003;7.103740e-002
1.326841e+003;7.229894e-002
1.328770e+003;7.312173e-002
1.330698e+003;7.307232e-002
1.332627e+003;7.233088e-002
1.334555e+003;7.153978e-002
1.336484e+003;7.107268e-002
1.338412e+003;7.108258e-002
1.340341e+003;7.165462e-002
1.342269e+003;7.274497e-002
1.344198e+003;7.421262e-002
1.346126e+003;7.613481e-002
1.348055e+003;7.897881e-002
1.349984e+003;8.273697e-002
1.351912e+003;8.681599e-002
1.353841e+003;9.204684e-002
1.355769e+003;9.855733e-002
1.357698e+003;1.038223e-001
1.359626e+003;1.054134e-001
1.361555e+003;1.042236e-001
1.363483e+003;1.034260e-001
1.365412e+003;1.055113e-001
1.367341e+003;1.124343e-001
1.369269e+003;1.262333e-001
1.371198e+003;1.475798e-001
1.373126e+003;1.731507e-001
1.375055e+003;1.930319e-001
1.376983e+003;1.937925e-001
1.378912e+003;1.733207e-001
1.380840e+003;1.451626e-001
1.382769e+003;1.200437e-001
1.384698e+003;1.009631e-001
1.386626e+003;8.810350e-002
1.388555e+003;8.006454e-002
1.390483e+003;7.518049e-002
1.392412e+003;7.207444e-002
1.394340e+003;7.009105e-002
1.396269e+003;6.898158e-002
1.398197e+003;6.842291e-002
1.400126e+003;6.825371e-002
1.402054e+003;6.849603e-002
1.403983e+003;6.863792e-002
1.405911e+003;6.881896e-002
1.407840e+003;6.923123e-002
1.409769e+003;6.956135e-002
1.411697e+003;7.039521e-002
1.413626e+003;7.137776e-002
1.415554e+003;7.166947e-002
1.417483e+003;7.151916e-002
1.419411e+003;7.188950e-002
1.421340e+003;7.324204e-002
1.423268e+003;7.491288e-002
1.425197e+003;7.691866e-002
1.427125e+003;7.988912e-002
1.429054e+003;8.492835e-002
1.430983e+003;9.265883e-002
1.432911e+003;1.014654e-001
1.434840e+003;1.074899e-001
1.436768e+003;1.097813e-001
1.438697e+003;1.112095e-001
1.440625e+003;1.137253e-001
1.442554e+003;1.186002e-001
1.444482e+003;1.261339e-001
1.446411e+003;1.353944e-001
1.448340e+003;1.448626e-001
1.450268e+003;1.524819e-001
1.452197e+003;1.572680e-001
1.454125e+003;1.593848e-001
1.456054e+003;1.588840e-001
1.457982e+003;1.576811e-001
1.459911e+003;1.561219e-001
1.461839e+003;1.516273e-001
1.463768e+003;1.438069e-001
1.465697e+003;1.344516e-001
1.467625e+003;1.246914e-001
1.469554e+003;1.144441e-001
1.471482e+003;1.044878e-001
1.473411e+003;9.593733e-002
1.475339e+003;8.899162e-002
1.477268e+003;8.314212e-002
1.479196e+003;7.817605e-002
1.481125e+003;7.390063e-002
1.483053e+003;7.012372e-002
1.484982e+003;6.656213e-002
1.486911e+003;6.378471e-002
1.488839e+003;6.183129e-002
1.490768e+003;6.021758e-002
1.492696e+003;5.910376e-002
1.494625e+003;5.799365e-002
1.496553e+003;5.675993e-002
1.498482e+003;5.599747e-002
1.500410e+003;5.534913e-002
1.502339e+003;5.456783e-002
1.504267e+003;5.351137e-002
1.506196e+003;5.245949e-002
1.508125e+003;5.229348e-002
1.510053e+003;5.257900e-002
1.511982e+003;5.256711e-002
1.513910e+003;5.234286e-002
1.515839e+003;5.217566e-002
1.517767e+003;5.183481e-002
1.519696e+003;5.115638e-002
1.521624e+003;5.095644e-002
1.523553e+003;5.130424e-002
1.525481e+003;5.142813e-002
1.527410e+003;5.206127e-002
1.529339e+003;5.261165e-002
1.531267e+003;5.266929e-002
1.533196e+003;5.284049e-002
1.535124e+003;5.359822e-002
1.537053e+003;5.399035e-002
1.538981e+003;5.392586e-002
1.540910e+003;5.506829e-002
1.542838e+003;5.659941e-002
1.544767e+003;5.752352e-002
1.546695e+003;5.787843e-002
1.548624e+003;5.783850e-002
1.550553e+003;5.739174e-002
1.552481e+003;5.664022e-002
1.554410e+003;5.617320e-002
1.556338e+003;5.548469e-002
1.558267e+003;5.408300e-002
1.560195e+003;5.381078e-002
1.562124e+003;5.402754e-002
1.564052e+003;5.362427e-002
1.565981e+003;5.335073e-002
1.567910e+003;5.327225e-002
1.569838e+003;5.327420e-002
1.571767e+003;5.327363e-002
1.573695e+003;5.274531e-002
1.575624e+003;5.250776e-002
1.577552e+003;5.330993e-002
1.579481e+003;5.407388e-002
1.581409e+003;5.399943e-002
1.583338e+003;5.362093e-002
1.585266e+003;5.330903e-002
1.587195e+003;5.267883e-002
1.589124e+003;5.208259e-002
1.591052e+003;5.203250e-002
1.592981e+003;5.216430e-002
1.594909e+003;5.207673e-002
1.596838e+003;5.199967e-002
1.598766e+003;5.220331e-002
1.600695e+003;5.256120e-002
1.602623e+003;5.290116e-002
1.604552e+003;5.334365e-002
1.606480e+003;5.390470e-002
1.608409e+003;5.439403e-002
1.610338e+003;5.464133e-002
1.612266e+003;5.503839e-002
1.614195e+003;5.548235e-002
1.616123e+003;5.578301e-002
1.618052e+003;5.633689e-002
1.619980e+003;5.680793e-002
1.621909e+003;5.709814e-002
1.623837e+003;5.756006e-002
1.625766e+003;5.818148e-002
1.627694e+003;5.847643e-002
1.629623e+003;5.879495e-002
1.631552e+003;5.916830e-002
1.633480e+003;5.892088e-002
1.635409e+003;5.862343e-002
1.637337e+003;5.937761e-002
1.639266e+003;5.995176e-002
1.641194e+003;6.030947e-002
1.643123e+003;6.064111e-002
1.645051e+003;6.064489e-002
1.646980e+003;6.074548e-002
1.648909e+003;6.104676e-002
1.650837e+003;6.051015e-002
1.652766e+003;5.981576e-002
1.654694e+003;6.061913e-002
1.656623e+003;6.157196e-002
1.658551e+003;6.181440e-002
1.660480e+003;6.138022e-002
1.662408e+003;6.081012e-002
1.664337e+003;6.085582e-002
1.666266e+003;6.062725e-002
1.668194e+003;5.972652e-002
1.670123e+003;5.898138e-002
1.672051e+003;5.876319e-002
1.673980e+003;5.838474e-002
1.675908e+003;5.810337e-002
1.677837e+003;5.801334e-002
1.679765e+003;5.748001e-002
1.681694e+003;5.682326e-002
1.683622e+003;5.576511e-002
1.685551e+003;5.535041e-002
1.687479e+003;5.556959e-002
1.689408e+003;5.561290e-002
1.691337e+003;5.590958e-002
1.693265e+003;5.602473e-002
1.695194e+003;5.542893e-002
1.697122e+003;5.551349e-002
1.699051e+003;5.550464e-002
1.700979e+003;5.556779e-002
1.702908e+003;5.662738e-002
1.704836e+003;5.729676e-002
1.706765e+003;5.761298e-002
1.708693e+003;5.784198e-002
1.710622e+003;5.790509e-002
1.712551e+003;5.760420e-002
1.714479e+003;5.704486e-002
1.716408e+003;5.614673e-002
1.718336e+003;5.568864e-002
1.720265e+003;5.591120e-002
1.722193e+003;5.606921e-002
1.724122e+003;5.616271e-002
1.726050e+003;5.610921e-002
1.727979e+003;5.614767e-002
1.729908e+003;5.633949e-002
1.731836e+003;5.636247e-002
1.733765e+003;5.661077e-002
1.735693e+003;5.789396e-002
1.737622e+003;5.860796e-002
1.739550e+003;5.849406e-002
1.741479e+003;5.804724e-002
1.743407e+003;5.677179e-002
1.745336e+003;5.485011e-002
1.747265e+003;5.287335e-002
1.749193e+003;5.062287e-002
1.751122e+003;4.827745e-002
1.753050e+003;4.648668e-002
1.754979e+003;4.455870e-002
1.756907e+003;4.245794e-002
1.758836e+003;4.068539e-002
1.760764e+003;3.905188e-002
1.762693e+003;3.768228e-002
1.764621e+003;3.661551e-002
1.766550e+003;3.565480e-002
1.768479e+003;3.511948e-002
1.770407e+003;3.452196e-002
1.772336e+003;3.361304e-002
1.774264e+003;3.336344e-002
1.776193e+003;3.334498e-002
1.778121e+003;3.286770e-002
1.780050e+003;3.210945e-002
1.781978e+003;3.140997e-002
1.783907e+003;3.086142e-002
1.785835e+003;3.039295e-002
1.787764e+003;3.004185e-002
1.789693e+003;2.957887e-002
1.791621e+003;2.887339e-002
1.793550e+003;2.860870e-002
1.795478e+003;2.852137e-002
1.797407e+003;2.793903e-002
1.799335e+003;2.723155e-002
1.801264e+003;2.674798e-002
1.803192e+003;2.643711e-002
1.805121e+003;2.612811e-002
1.807049e+003;2.587662e-002
1.808978e+003;2.567667e-002
1.810907e+003;2.547413e-002
1.812835e+003;2.533902e-002
1.814764e+003;2.526530e-002
1.816692e+003;2.527777e-002
1.818621e+003;2.526671e-002
1.820549e+003;2.493675e-002
1.822478e+003;2.462678e-002
1.824406e+003;2.475091e-002
1.826335e+003;2.487155e-002
1.828264e+003;2.477079e-002
1.830192e+003;2.472632e-002
1.832121e+003;2.475490e-002
1.834049e+003;2.484675e-002
1.835978e+003;2.512836e-002
1.837906e+003;2.506577e-002
1.839835e+003;2.468735e-002
1.841763e+003;2.422366e-002
1.843692e+003;2.374686e-002
1.845620e+003;2.392783e-002
1.847549e+003;2.400451e-002
1.849478e+003;2.371886e-002
1.851406e+003;2.351843e-002
1.853335e+003;2.337340e-002
1.855263e+003;2.346268e-002
1.857192e+003;2.351266e-002
1.859120e+003;2.328984e-002
1.861049e+003;2.324897e-002
1.862977e+003;2.316778e-002
1.864906e+003;2.299834e-002
1.866834e+003;2.289389e-002
1.868763e+003;2.277271e-002
1.870692e+003;2.277537e-002
1.872620e+003;2.273423e-002
1.874549e+003;2.290238e-002
1.876477e+003;2.300396e-002
1.878406e+003;2.283836e-002
1.880334e+003;2.288216e-002
1.882263e+003;2.285142e-002
1.884191e+003;2.271468e-002
1.886120e+003;2.283110e-002
1.888048e+003;2.298314e-002
1.889977e+003;2.327533e-002
1.891906e+003;2.343043e-002
1.893834e+003;2.310271e-002
1.895763e+003;2.285921e-002
1.897691e+003;2.286606e-002
1.899620e+003;2.290874e-002
1.901548e+003;2.289250e-002
1.903477e+003;2.280899e-002
1.905405e+003;2.258318e-002
1.907334e+003;2.239109e-002
1.909262e+003;2.239203e-002
1.911191e+003;2.224776e-002
1.913120e+003;2.226377e-002
1.915048e+003;2.227448e-002
1.916977e+003;2.210661e-002
1.918905e+003;2.218300e-002
1.920834e+003;2.201848e-002
1.922762e+003;2.190674e-002
1.924691e+003;2.206021e-002
1.926619e+003;2.199192e-002
1.928548e+003;2.196254e-002
1.930477e+003;2.179730e-002
1.932405e+003;2.156857e-002
1.934334e+003;2.154590e-002
1.936262e+003;2.149479e-002
1.938191e+003;2.126750e-002
1.940119e+003;2.101213e-002
1.942048e+003;2.088584e-002
1.943976e+003;2.090893e-002
1.945905e+003;2.113342e-002
1.947833e+003;2.127429e-002
1.949762e+003;2.128382e-002
1.951691e+003;2.131267e-002
1.953619e+003;2.096018e-002
1.955548e+003;2.070284e-002
1.957476e+003;2.076560e-002
1.959405e+003;2.090444e-002
1.961333e+003;2.095649e-002
1.963262e+003;2.083168e-002
1.965190e+003;2.068511e-002
1.967119e+003;2.042505e-002
1.969047e+003;2.025602e-002
1.970976e+003;2.029761e-002
1.972905e+003;2.048211e-002
1.974833e+003;2.069300e-002
1.976762e+003;2.060617e-002
1.978690e+003;2.053512e-002
1.980619e+003;2.042057e-002
1.982547e+003;2.032796e-002
1.984476e+003;2.039261e-002
1.986404e+003;2.055753e-002
1.988333e+003;2.042738e-002
1.990261e+003;2.021627e-002
1.992190e+003;2.013838e-002
1.994119e+003;2.012034e-002
1.996047e+003;2.023214e-002
1.997976e+003;2.023286e-002
1.999904e+003;2.030761e-002
2.001833e+003;2.021735e-002
2.003761e+003;2.005204e-002
2.005690e+003;1.995399e-002
2.007618e+003;1.998355e-002
2.009547e+003;1.999292e-002
2.011476e+003;2.029907e-002
2.013404e+003;2.045235e-002
2.015333e+003;2.023047e-002
2.017261e+003;2.012714e-002
2.019190e+003;2.023703e-002
2.021118e+003;2.020603e-002
2.023047e+003;1.996110e-002
2.024975e+003;1.988794e-002
2.026904e+003;1.996898e-002
2.028833e+003;1.977411e-002
2.030761e+003;1.939085e-002
2.032690e+003;1.951768e-002
2.034618e+003;1.956967e-002
2.036547e+003;1.945225e-002
2.038475e+003;1.962118e-002
2.040404e+003;2.003861e-002
2.042332e+003;2.025945e-002
2.044261e+003;2.014866e-002
2.046189e+003;2.004687e-002
2.048118e+003;1.988621e-002
2.050047e+003;1.977040e-002
2.051975e+003;1.982322e-002
2.053904e+003;1.995645e-002
2.055832e+003;1.997814e-002
2.057761e+003;1.977720e-002
2.059689e+003;1.977803e-002
2.061618e+003;1.982343e-002
2.063546e+003;1.972484e-002
2.065475e+003;1.949183e-002
2.067404e+003;1.939179e-002
2.069332e+003;1.942817e-002
2.071260e+003;1.937630e-002
2.073189e+003;1.957033e-002
2.075118e+003;1.977269e-002
2.077046e+003;1.965900e-002
2.078975e+003;1.968143e-002
2.080903e+003;1.991358e-002
2.082832e+003;1.995593e-002
2.084760e+003;1.995874e-002
2.086689e+003;1.998684e-002
2.088617e+003;1.984528e-002
2.090546e+003;1.998927e-002
2.092475e+003;2.007921e-002
2.094403e+003;2.000277e-002
2.096332e+003;2.000492e-002
2.098260e+003;1.993435e-002
2.100189e+003;2.004316e-002
2.102117e+003;2.014685e-002
2.104046e+003;1.994240e-002
2.105974e+003;2.000926e-002
2.107903e+003;2.006346e-002
2.109832e+003;2.002095e-002
2.111760e+003;2.001151e-002
2.113688e+003;2.000044e-002
2.115617e+003;1.998875e-002
2.117546e+003;2.007269e-002
2.119474e+003;2.025164e-002
2.121403e+003;2.054110e-002
2.123331e+003;2.081924e-002
2.125260e+003;2.095350e-002
2.127188e+003;2.114698e-002
2.129117e+003;2.146338e-002
2.131045e+003;2.179594e-002
2.132974e+003;2.195532e-002
2.134903e+003;2.183127e-002
2.136831e+003;2.165322e-002
2.138760e+003;2.144528e-002
2.140688e+003;2.123187e-002
2.142617e+003;2.121413e-002
2.144545e+003;2.126841e-002
2.146474e+003;2.117262e-002
2.148402e+003;2.098017e-002
2.150331e+003;2.122898e-002
2.152260e+003;2.149120e-002
2.154188e+003;2.144744e-002
2.156117e+003;2.130609e-002
2.158045e+003;2.115210e-002
2.159974e+003;2.122411e-002
2.161902e+003;2.138719e-002
2.163831e+003;2.147191e-002
2.165759e+003;2.161387e-002
2.167688e+003;2.196292e-002
2.169616e+003;2.214970e-002
2.171545e+003;2.232606e-002
2.173474e+003;2.256144e-002
2.175402e+003;2.255701e-002
2.177331e+003;2.256458e-002
2.179259e+003;2.251844e-002
2.181188e+003;2.248543e-002
2.183116e+003;2.248585e-002
2.185045e+003;2.247859e-002
2.186973e+003;2.236294e-002
2.188902e+003;2.229962e-002
2.190831e+003;2.230053e-002
2.192759e+003;2.238066e-002
2.194688e+003;2.236165e-002
2.196616e+003;2.230189e-002
2.198545e+003;2.238275e-002
2.200473e+003;2.238676e-002
2.202402e+003;2.209284e-002
2.204330e+003;2.188883e-002
2.206259e+003;2.163734e-002
2.208188e+003;2.162794e-002
2.210116e+003;2.206289e-002
2.212044e+003;2.213638e-002
2.213973e+003;2.180245e-002
2.215902e+003;2.168614e-002
2.217830e+003;2.167907e-002
2.219759e+003;2.152828e-002
2.221687e+003;2.156272e-002
2.223616e+003;2.164978e-002
2.225544e+003;2.180493e-002
2.227473e+003;2.181858e-002
2.229401e+003;2.186360e-002
2.231330e+003;2.185489e-002
2.233259e+003;2.185830e-002
2.235187e+003;2.168854e-002
2.237116e+003;2.155387e-002
2.239044e+003;2.169889e-002
2.240973e+003;2.177054e-002
2.242901e+003;2.166541e-002
2.244830e+003;2.161133e-002
2.246758e+003;2.187628e-002
2.248687e+003;2.225086e-002
2.250615e+003;2.249440e-002
2.252544e+003;2.253178e-002
2.254473e+003;2.266692e-002
2.256401e+003;2.276685e-002
2.258330e+003;2.268141e-002
2.260258e+003;2.236813e-002
2.262187e+003;2.214067e-002
2.264115e+003;2.212415e-002
2.266044e+003;2.211191e-002
2.267972e+003;2.209559e-002
2.269901e+003;2.182667e-002
2.271830e+003;2.149259e-002
2.273758e+003;2.163320e-002
2.275687e+003;2.169962e-002
2.277615e+003;2.157772e-002
2.279544e+003;2.158640e-002
2.281472e+003;2.159183e-002
2.283401e+003;2.142370e-002
2.285329e+003;2.139961e-002
2.287258e+003;2.129155e-002
2.289187e+003;2.107473e-002
2.291115e+003;2.099200e-002
2.293043e+003;2.107779e-002
2.294972e+003;2.121350e-002
2.296901e+003;2.095858e-002
2.298829e+003;2.082640e-002
2.300758e+003;2.117450e-002
2.302686e+003;2.137497e-002
2.304615e+003;2.141921e-002
2.306543e+003;2.152654e-002
2.308472e+003;2.169310e-002
2.310400e+003;2.161171e-002
2.312329e+003;2.124113e-002
2.314258e+003;2.122443e-002
2.316186e+003;2.150607e-002
2.318115e+003;2.148883e-002
2.320043e+003;2.146780e-002
2.321972e+003;2.147344e-002
2.323900e+003;2.175960e-002
2.325829e+003;2.218185e-002
2.327757e+003;2.216602e-002
2.329686e+003;2.221170e-002
2.331615e+003;2.246705e-002
2.333543e+003;2.258919e-002
2.335472e+003;2.268822e-002
2.337400e+003;2.273867e-002
2.339329e+003;2.264654e-002
2.341257e+003;2.265502e-002
2.343186e+003;2.281172e-002
2.345114e+003;2.287381e-002
2.347043e+003;2.305676e-002
2.348971e+003;2.336085e-002
2.350900e+003;2.331928e-002
2.352829e+003;2.328494e-002
2.354757e+003;2.372495e-002
2.356686e+003;2.383926e-002
2.358614e+003;2.374815e-002
2.360543e+003;2.392541e-002
2.362471e+003;2.413486e-002
2.364400e+003;2.402149e-002
2.366328e+003;2.362918e-002
2.368257e+003;2.358272e-002
2.370186e+003;2.395937e-002
2.372114e+003;2.393192e-002
2.374042e+003;2.384370e-002
2.375971e+003;2.386159e-002
2.377900e+003;2.370732e-002
2.379828e+003;2.386338e-002
2.381757e+003;2.417739e-002
2.383685e+003;2.420096e-002
2.385614e+003;2.392531e-002
2.387542e+003;2.359070e-002
2.389471e+003;2.350381e-002
2.391399e+003;2.383996e-002
2.393328e+003;2.409090e-002
2.395257e+003;2.428095e-002
2.397185e+003;2.428449e-002
2.399114e+003;2.431669e-002
2.401042e+003;2.437210e-002
2.402971e+003;2.434143e-002
2.404899e+003;2.446596e-002
2.406828e+003;2.454975e-002
2.408756e+003;2.447199e-002
2.410685e+003;2.443518e-002
2.412614e+003;2.453937e-002
2.414542e+003;2.441829e-002
2.416471e+003;2.429511e-002
2.418399e+003;2.443914e-002
2.420328e+003;2.476462e-002
2.422256e+003;2.519521e-002
2.424185e+003;2.543819e-002
2.426113e+003;2.528722e-002
2.428042e+003;2.510775e-002
2.429970e+003;2.507272e-002
2.431899e+003;2.521740e-002
2.433828e+003;2.522653e-002
2.435756e+003;2.475150e-002
2.437685e+003;2.423680e-002
2.439613e+003;2.418282e-002
2.441542e+003;2.428463e-002
2.443470e+003;2.435783e-002
2.445399e+003;2.437175e-002
2.447327e+003;2.433740e-002
2.449256e+003;2.411794e-002
2.451185e+003;2.403487e-002
2.453113e+003;2.410131e-002
2.455042e+003;2.402006e-002
2.456970e+003;2.399593e-002
2.458899e+003;2.403469e-002
2.460827e+003;2.389383e-002
2.462756e+003;2.368779e-002
2.464684e+003;2.358031e-002
2.466613e+003;2.384234e-002
2.468542e+003;2.404404e-002
2.470470e+003;2.387045e-002
2.472398e+003;2.399568e-002
2.474327e+003;2.414337e-002
2.476256e+003;2.411395e-002
2.478184e+003;2.460701e-002
2.480113e+003;2.499494e-002
2.482041e+003;2.471085e-002
2.483970e+003;2.472761e-002
2.485898e+003;2.473267e-002
2.487827e+003;2.461591e-002
2.489755e+003;2.495223e-002
2.491684e+003;2.511119e-002
2.493613e+003;2.483584e-002
2.495541e+003;2.438748e-002
2.497470e+003;2.430828e-002
2.499398e+003;2.437020e-002
2.501327e+003;2.430467e-002
2.503255e+003;2.450319e-002
2.505184e+003;2.462731e-002
2.507112e+003;2.451504e-002
2.509041e+003;2.470941e-002
2.510969e+003;2.506907e-002
2.512898e+003;2.533456e-002
2.514827e+003;2.574508e-002
2.516755e+003;2.599572e-002
2.518684e+003;2.625499e-002
2.520612e+003;2.665989e-002
2.522541e+003;2.696038e-002
2.524469e+003;2.705774e-002
2.526398e+003;2.707696e-002
2.528326e+003;2.731072e-002
2.530255e+003;2.770376e-002
2.532184e+003;2.821633e-002
2.534112e+003;2.842089e-002
2.536041e+003;2.832723e-002
2.537969e+003;2.834795e-002
2.539898e+003;2.837034e-002
2.541826e+003;2.857133e-002
2.543755e+003;2.884882e-002
2.545683e+003;2.918304e-002
2.547612e+003;2.973518e-002
2.549541e+003;3.018870e-002
2.551469e+003;3.042077e-002
2.553397e+003;3.067495e-002
2.555326e+003;3.113447e-002
2.557255e+003;3.170364e-002
2.559183e+003;3.187669e-002
2.561112e+003;3.208918e-002
2.563040e+003;3.233416e-002
2.564969e+003;3.258828e-002
2.566897e+003;3.329045e-002
2.568826e+003;3.412722e-002
2.570754e+003;3.443683e-002
2.572683e+003;3.457742e-002
2.574612e+003;3.517725e-002
2.576540e+003;3.611635e-002
2.578469e+003;3.686497e-002
2.580397e+003;3.741885e-002
2.582326e+003;3.756947e-002
2.584254e+003;3.696443e-002
2.586183e+003;3.615754e-002
2.588111e+003;3.558682e-002
2.590040e+003;3.496101e-002
2.591969e+003;3.482324e-002
2.593897e+003;3.457775e-002
2.595826e+003;3.434538e-002
2.597754e+003;3.427621e-002
2.599683e+003;3.437378e-002
2.601611e+003;3.453505e-002
2.603540e+003;3.467747e-002
2.605468e+003;3.487942e-002
2.607397e+003;3.524954e-002
2.609325e+003;3.581226e-002
2.611254e+003;3.630896e-002
2.613183e+003;3.666062e-002
2.615111e+003;3.668437e-002
2.617040e+003;3.649307e-002
2.618968e+003;3.659861e-002
2.620897e+003;3.661450e-002
2.622825e+003;3.640331e-002
2.624754e+003;3.625979e-002
2.626682e+003;3.598033e-002
2.628611e+003;3.592544e-002
2.630540e+003;3.595211e-002
2.632468e+003;3.587401e-002
2.634396e+003;3.589726e-002
2.636325e+003;3.605615e-002
2.638254e+003;3.608164e-002
2.640182e+003;3.603501e-002
2.642111e+003;3.635385e-002
2.644039e+003;3.715254e-002
2.645968e+003;3.740606e-002
2.647896e+003;3.771780e-002
2.649825e+003;3.818524e-002
2.651753e+003;3.835977e-002
2.653682e+003;3.880652e-002
2.655611e+003;3.926044e-002
2.657539e+003;3.954296e-002
2.659468e+003;3.970929e-002
2.661396e+003;3.965450e-002
2.663325e+003;3.971386e-002
2.665253e+003;4.011898e-002
2.667182e+003;4.022638e-002
2.669110e+003;4.001702e-002
2.671039e+003;3.994095e-002
2.672968e+003;4.020214e-002
2.674896e+003;4.070701e-002
2.676825e+003;4.111131e-002
2.678753e+003;4.109532e-002
2.680682e+003;4.087738e-002
2.682610e+003;4.074940e-002
2.684539e+003;4.081193e-002
2.686467e+003;4.098697e-002
2.688396e+003;4.119636e-002
2.690324e+003;4.129449e-002
2.692253e+003;4.124427e-002
2.694182e+003;4.127521e-002
2.696110e+003;4.144395e-002
2.698039e+003;4.189439e-002
2.699967e+003;4.218922e-002
2.701896e+003;4.260832e-002
2.703824e+003;4.330599e-002
2.705753e+003;4.398106e-002
2.707681e+003;4.468098e-002
2.709610e+003;4.567934e-002
2.711539e+003;4.667181e-002
2.713467e+003;4.775269e-002
2.715396e+003;4.896197e-002
2.717324e+003;5.043315e-002
2.719253e+003;5.211756e-002
2.721181e+003;5.324607e-002
2.723110e+003;5.389026e-002
2.725038e+003;5.370668e-002
2.726967e+003;5.248858e-002
2.728896e+003;5.131804e-002
2.730824e+003;5.036837e-002
2.732752e+003;4.902061e-002
2.734681e+003;4.776659e-002
2.736610e+003;4.693287e-002
2.738538e+003;4.624255e-002
2.740467e+003;4.568990e-002
2.742395e+003;4.492728e-002
2.744324e+003;4.405711e-002
2.746252e+003;4.355822e-002
2.748181e+003;4.333791e-002
2.750109e+003;4.332133e-002
2.752038e+003;4.334864e-002
2.753967e+003;4.348625e-002
2.755895e+003;4.369703e-002
2.757824e+003;4.373756e-002
2.759752e+003;4.424271e-002
2.761681e+003;4.518053e-002
2.763609e+003;4.571898e-002
2.765538e+003;4.558052e-002
2.767466e+003;4.564805e-002
2.769395e+003;4.599752e-002
2.771323e+003;4.650453e-002
2.773252e+003;4.719597e-002
2.775181e+003;4.780366e-002
2.777109e+003;4.818803e-002
2.779038e+003;4.904780e-002
2.780966e+003;5.066923e-002
2.782895e+003;5.195568e-002
2.784823e+003;5.287373e-002
2.786752e+003;5.413828e-002
2.788680e+003;5.565753e-002
2.790609e+003;5.706564e-002
2.792538e+003;5.824073e-002
2.794466e+003;5.949922e-002
2.796395e+003;6.097015e-002
2.798323e+003;6.229950e-002
2.800252e+003;6.357277e-002
2.802180e+003;6.530953e-002
2.804109e+003;6.761815e-002
2.806037e+003;6.974546e-002
2.807966e+003;7.121291e-002
2.809895e+003;7.234821e-002
2.811823e+003;7.392808e-002
2.813751e+003;7.579637e-002
2.815680e+003;7.755298e-002
2.817609e+003;7.935725e-002
2.819537e+003;8.165407e-002
2.821466e+003;8.441427e-002
2.823394e+003;8.780071e-002
2.825323e+003;9.192453e-002
2.827251e+003;9.727837e-002
2.829180e+003;1.040761e-001
2.831108e+003;1.123303e-001
2.833037e+003;1.210316e-001
2.834966e+003;1.280524e-001
2.836894e+003;1.314179e-001
2.838823e+003;1.311654e-001
2.840751e+003;1.283975e-001
2.842680e+003;1.241637e-001
2.844608e+003;1.193938e-001
2.846537e+003;1.149475e-001
2.848465e+003;1.114775e-001
2.850394e+003;1.092938e-001
2.852323e+003;1.081175e-001
2.854251e+003;1.081325e-001
2.856180e+003;1.091869e-001
2.858108e+003;1.117558e-001
2.860037e+003;1.166356e-001
2.861965e+003;1.236331e-001
2.863894e+003;1.313287e-001
2.865822e+003;1.370562e-001
2.867751e+003;1.394525e-001
2.869679e+003;1.400654e-001
2.871608e+003;1.399387e-001
2.873536e+003;1.398731e-001
2.875465e+003;1.397973e-001
2.877394e+003;1.388307e-001
2.879322e+003;1.370683e-001
2.881251e+003;1.355649e-001
2.883179e+003;1.347040e-001
2.885108e+003;1.346662e-001
2.887036e+003;1.355169e-001
2.888965e+003;1.371925e-001
2.890893e+003;1.392178e-001
2.892822e+003;1.417226e-001
2.894750e+003;1.451152e-001
2.896679e+003;1.497539e-001
2.898608e+003;1.552310e-001
2.900536e+003;1.602460e-001
2.902465e+003;1.650154e-001
2.904393e+003;1.706064e-001
2.906322e+003;1.761402e-001
2.908250e+003;1.803455e-001
2.910179e+003;1.842945e-001
2.912107e+003;1.876904e-001
2.914036e+003;1.902983e-001
2.915965e+003;1.919036e-001
2.917893e+003;1.917465e-001
2.919822e+003;1.889922e-001
2.921750e+003;1.842195e-001
2.923679e+003;1.790478e-001
2.925607e+003;1.728693e-001
2.927536e+003;1.649901e-001
2.929464e+003;1.566283e-001
2.931393e+003;1.486783e-001
2.933322e+003;1.407730e-001
2.935250e+003;1.334984e-001
2.937178e+003;1.286576e-001
2.939107e+003;1.266421e-001
2.941036e+003;1.279518e-001
2.942964e+003;1.327174e-001
2.944893e+003;1.401827e-001
2.946821e+003;1.486153e-001
2.948750e+003;1.554398e-001
2.950678e+003;1.588274e-001
2.952607e+003;1.590567e-001
2.954535e+003;1.561171e-001
2.956464e+003;1.513470e-001
2.958393e+003;1.460113e-001
2.960321e+003;1.403807e-001
2.962250e+003;1.342895e-001
2.964178e+003;1.271701e-001
2.966107e+003;1.196001e-001
2.968035e+003;1.126001e-001
2.969964e+003;1.059412e-001
2.971892e+003;9.945907e-002
2.973821e+003;9.400853e-002
2.975750e+003;8.960087e-002
2.977678e+003;8.544789e-002
2.979607e+003;8.137017e-002
2.981535e+003;7.816134e-002
2.983464e+003;7.546991e-002
2.985392e+003;7.284585e-002
2.987321e+003;7.042038e-002
2.989249e+003;6.828310e-002
2.991178e+003;6.644697e-002
2.993106e+003;6.460270e-002
2.995035e+003;6.277273e-002
2.996964e+003;6.084633e-002
2.998892e+003;5.908952e-002
3.000821e+003;5.754614e-002
3.002749e+003;5.605620e-002
3.004678e+003;5.484169e-002
3.006606e+003;5.354626e-002
3.008535e+003;5.202634e-002
3.010463e+003;5.069816e-002
3.012392e+003;4.931063e-002
3.014321e+003;4.800193e-002
3.016249e+003;4.698304e-002
3.018177e+003;4.596978e-002
3.020106e+003;4.518994e-002
3.022035e+003;4.446546e-002
3.023963e+003;4.341370e-002
3.025892e+003;4.265452e-002
3.027820e+003;4.220219e-002
3.029749e+003;4.162074e-002
3.031677e+003;4.098974e-002
3.033606e+003;4.031850e-002
3.035534e+003;3.979723e-002
3.037463e+003;3.944230e-002
3.039392e+003;3.925272e-002
3.041320e+003;3.883576e-002
3.043249e+003;3.825298e-002
3.045177e+003;3.830751e-002
3.047106e+003;3.842956e-002
3.049034e+003;3.815569e-002
3.050963e+003;3.747703e-002
3.052891e+003;3.711338e-002
3.054820e+003;3.709407e-002
3.056749e+003;3.710371e-002
3.058677e+003;3.715961e-002
3.060606e+003;3.702421e-002
3.062534e+003;3.674106e-002
3.064463e+003;3.663588e-002
3.066391e+003;3.654879e-002
3.068320e+003;3.618142e-002
3.070248e+003;3.600161e-002
3.072177e+003;3.617864e-002
3.074105e+003;3.620385e-002
3.076034e+003;3.600517e-002
3.077963e+003;3.576887e-002
3.079891e+003;3.563261e-002
3.081820e+003;3.565645e-002
3.083748e+003;3.572516e-002
3.085677e+003;3.537846e-002
3.087605e+003;3.520995e-002
3.089534e+003;3.512192e-002
3.091462e+003;3.520732e-002
3.093391e+003;3.545942e-002
3.095320e+003;3.554014e-002
3.097248e+003;3.564674e-002
3.099177e+003;3.545946e-002
3.101105e+003;3.519633e-002
3.103034e+003;3.549412e-002
3.104962e+003;3.550214e-002
3.106891e+003;3.535125e-002
3.108819e+003;3.536139e-002
3.110748e+003;3.554453e-002
3.112677e+003;3.601979e-002
3.114605e+003;3.605298e-002
3.116533e+003;3.574214e-002
3.118462e+003;3.551256e-002
3.120391e+003;3.527283e-002
3.122319e+003;3.549340e-002
3.124248e+003;3.602292e-002
3.126176e+003;3.591993e-002
3.128105e+003;3.571609e-002
3.130033e+003;3.611926e-002
3.131962e+003;3.620547e-002
3.133890e+003;3.635752e-002
3.135819e+003;3.670215e-002
3.137748e+003;3.673438e-002
3.139676e+003;3.692070e-002
3.141605e+003;3.730730e-002
3.143533e+003;3.732120e-002
3.145462e+003;3.729351e-002
3.147390e+003;3.712045e-002
3.149319e+003;3.690685e-002
3.151247e+003;3.687118e-002
3.153176e+003;3.699650e-002
3.155104e+003;3.727582e-002
3.157033e+003;3.744246e-002
3.158962e+003;3.746208e-002
3.160890e+003;3.740935e-002
3.162819e+003;3.727881e-002
3.164747e+003;3.734630e-002
3.166676e+003;3.740765e-002
3.168604e+003;3.741177e-002
3.170533e+003;3.735374e-002
3.172461e+003;3.743560e-002
3.174390e+003;3.779811e-002
3.176319e+003;3.801201e-002
3.178247e+003;3.788112e-002
3.180176e+003;3.758125e-002
3.182104e+003;3.781283e-002
3.184033e+003;3.810063e-002
3.185961e+003;3.804438e-002
3.187890e+003;3.821371e-002
3.189818e+003;3.867336e-002
3.191747e+003;3.864945e-002
3.193676e+003;3.844281e-002
3.195604e+003;3.850595e-002
3.197532e+003;3.864945e-002
3.199461e+003;3.859882e-002
3.201390e+003;3.840074e-002
3.203318e+003;3.835057e-002
3.205247e+003;3.819946e-002
3.207175e+003;3.818546e-002
3.209104e+003;3.839028e-002
3.211032e+003;3.848668e-002
3.212961e+003;3.829785e-002
3.214889e+003;3.794649e-002
3.216818e+003;3.770519e-002
3.218747e+003;3.787584e-002
3.220675e+003;3.813586e-002
3.222604e+003;3.806565e-002
3.224532e+003;3.760047e-002
3.226461e+003;3.732272e-002
3.228389e+003;3.744998e-002
3.230318e+003;3.743369e-002
3.232246e+003;3.724694e-002
3.234175e+003;3.722087e-002
3.236104e+003;3.698279e-002
3.238032e+003;3.681459e-002
3.239961e+003;3.677787e-002
3.241889e+003;3.659764e-002
3.243818e+003;3.673110e-002
3.245746e+003;3.707689e-002
3.247675e+003;3.688456e-002
3.249603e+003;3.645949e-002
3.251532e+003;3.667767e-002
3.253460e+003;3.698080e-002
3.255389e+003;3.677993e-002
3.257318e+003;3.668311e-002
3.259246e+003;3.693939e-002
3.261175e+003;3.706665e-002
3.263103e+003;3.697355e-002
3.265032e+003;3.710108e-002
3.266960e+003;3.709133e-002
3.268889e+003;3.673702e-002
3.270817e+003;3.661404e-002
3.272746e+003;3.659944e-002
3.274675e+003;3.687630e-002
3.276603e+003;3.687485e-002
3.278531e+003;3.693593e-002
3.280460e+003;3.716175e-002
3.282389e+003;3.706997e-002
3.284317e+003;3.690036e-002
3.286246e+003;3.707448e-002
3.288174e+003;3.736128e-002
3.290103e+003;3.691410e-002
3.292031e+003;3.659489e-002
3.293960e+003;3.693163e-002
3.295888e+003;3.720387e-002
3.297817e+003;3.761557e-002
3.299746e+003;3.755390e-002
3.301674e+003;3.687727e-002
3.303603e+003;3.672094e-002
3.305531e+003;3.726661e-002
3.307460e+003;3.758422e-002
3.309388e+003;3.755253e-002
3.311317e+003;3.734583e-002
3.313245e+003;3.723372e-002
3.315174e+003;3.717008e-002
3.317103e+003;3.702273e-002
3.319031e+003;3.687370e-002
3.320960e+003;3.664288e-002
3.322888e+003;3.627348e-002
3.324817e+003;3.671156e-002
3.326745e+003;3.689318e-002
3.328674e+003;3.628565e-002
3.330602e+003;3.591079e-002
3.332531e+003;3.628792e-002
3.334459e+003;3.666498e-002
3.336388e+003;3.699401e-002
3.338317e+003;3.702068e-002
3.340245e+003;3.701559e-002
3.342174e+003;3.637153e-002
3.344102e+003;3.577808e-002
3.346031e+003;3.579823e-002
3.347959e+003;3.616809e-002
3.349888e+003;3.653596e-002
3.351816e+003;3.646702e-002
3.353745e+003;3.618192e-002
3.355674e+003;3.609014e-002
3.357602e+003;3.588344e-002
3.359531e+003;3.559891e-002
3.361459e+003;3.559578e-002
3.363388e+003;3.566717e-002
3.365316e+003;3.579935e-002
3.367245e+003;3.576675e-002
3.369173e+003;3.513220e-002
3.371102e+003;3.495296e-002
3.373031e+003;3.504652e-002
3.374959e+003;3.495390e-002
3.376887e+003;3.505090e-002
3.378816e+003;3.487141e-002
3.380745e+003;3.428865e-002
3.382673e+003;3.373986e-002
3.384602e+003;3.368371e-002
3.386530e+003;3.435305e-002
3.388459e+003;3.423799e-002
3.390387e+003;3.388692e-002
3.392316e+003;3.363892e-002
3.394244e+003;3.336000e-002
3.396173e+003;3.340813e-002
3.398102e+003;3.353525e-002
3.400030e+003;3.336909e-002
3.401959e+003;3.333231e-002
3.403887e+003;3.353794e-002
3.405816e+003;3.344656e-002
3.407744e+003;3.307690e-002
3.409673e+003;3.313984e-002
3.411601e+003;3.348625e-002
3.413530e+003;3.338584e-002
3.415458e+003;3.289691e-002
3.417387e+003;3.279763e-002
3.419316e+003;3.291910e-002
3.421244e+003;3.251050e-002
3.423173e+003;3.257410e-002
3.425101e+003;3.261850e-002
3.427030e+003;3.260257e-002
3.428958e+003;3.247429e-002
3.430887e+003;3.205708e-002
3.432815e+003;3.162356e-002
3.434744e+003;3.177522e-002
3.436673e+003;3.149332e-002
3.438601e+003;3.112781e-002
3.440530e+003;3.087754e-002
3.442458e+003;3.062972e-002
3.444387e+003;3.045446e-002
3.446315e+003;3.021712e-002
3.448244e+003;3.031708e-002
3.450172e+003;3.037646e-002
3.452101e+003;2.992438e-002
3.454030e+003;2.956504e-002
3.455958e+003;2.936395e-002
3.457886e+003;2.938940e-002
3.459815e+003;2.941936e-002
3.461744e+003;2.890123e-002
3.463672e+003;2.868834e-002
3.465601e+003;2.896452e-002
3.467529e+003;2.886868e-002
3.469458e+003;2.843833e-002
3.471386e+003;2.850654e-002
3.473315e+003;2.851553e-002
3.475243e+003;2.825759e-002
3.477172e+003;2.805619e-002
3.479101e+003;2.768646e-002
3.481029e+003;2.750053e-002
3.482958e+003;2.752795e-002
3.484886e+003;2.741853e-002
3.486815e+003;2.711335e-002
3.488743e+003;2.675764e-002
3.490672e+003;2.652808e-002
3.492600e+003;2.609729e-002
3.494529e+003;2.581646e-002
3.496458e+003;2.581737e-002
3.498386e+003;2.555021e-002
3.500315e+003;2.569699e-002
3.502243e+003;2.607618e-002
3.504172e+003;2.630156e-002
3.506100e+003;2.624598e-002
3.508029e+003;2.574353e-002
3.509957e+003;2.507030e-002
3.511886e+003;2.438219e-002
3.513814e+003;2.458881e-002
3.515743e+003;2.499778e-002
3.517672e+003;2.480461e-002
3.519600e+003;2.466750e-002
3.521529e+003;2.496184e-002
3.523457e+003;2.501480e-002
3.525386e+003;2.464975e-002
3.527314e+003;2.414922e-002
3.529243e+003;2.384686e-002
3.531171e+003;2.389257e-002
3.533100e+003;2.408751e-002
3.535029e+003;2.377482e-002
3.536957e+003;2.338176e-002
3.538885e+003;2.329613e-002
3.540814e+003;2.281308e-002
3.542743e+003;2.256483e-002
3.544671e+003;2.255659e-002
3.546600e+003;2.260095e-002
3.548528e+003;2.246282e-002
3.550457e+003;2.235003e-002
3.552385e+003;2.203054e-002
3.554314e+003;2.158580e-002
3.556242e+003;2.169366e-002
3.558171e+003;2.174602e-002
3.560100e+003;2.127582e-002
3.562028e+003;2.093657e-002
3.563957e+003;2.072876e-002
3.565885e+003;2.018441e-002
3.567814e+003;2.024960e-002
3.569742e+003;2.062889e-002
3.571671e+003;2.031108e-002
3.573599e+003;1.994098e-002
3.575528e+003;1.976382e-002
3.577457e+003;1.929704e-002
3.579385e+003;1.884606e-002
3.581314e+003;1.876437e-002
3.583242e+003;1.905408e-002
3.585171e+003;1.897903e-002
3.587099e+003;1.834415e-002
3.589028e+003;1.807975e-002
3.590956e+003;1.863178e-002
3.592885e+003;1.912689e-002
3.594813e+003;1.901250e-002
3.596742e+003;1.876596e-002
3.598671e+003;1.816528e-002
3.600599e+003;1.773187e-002
3.602528e+003;1.783312e-002
3.604456e+003;1.779911e-002
3.606385e+003;1.725593e-002
3.608313e+003;1.701707e-002
3.610242e+003;1.712253e-002
3.612170e+003;1.701931e-002
3.614099e+003;1.688364e-002
3.616028e+003;1.677858e-002
3.617956e+003;1.679484e-002
3.619885e+003;1.651775e-002
3.621813e+003;1.615695e-002
3.623742e+003;1.657709e-002
3.625670e+003;1.668950e-002
3.627599e+003;1.615049e-002
3.629527e+003;1.628910e-002
3.631456e+003;1.672886e-002
3.633385e+003;1.668323e-002
3.635313e+003;1.676594e-002
3.637241e+003;1.693566e-002
3.639170e+003;1.642927e-002
3.641099e+003;1.577759e-002
3.643027e+003;1.585790e-002
3.644956e+003;1.598040e-002
3.646884e+003;1.524771e-002
3.648813e+003;1.476814e-002
3.650741e+003;1.469170e-002
3.652670e+003;1.486551e-002
3.654598e+003;1.477808e-002
3.656527e+003;1.469287e-002
3.658456e+003;1.503118e-002
3.660384e+003;1.487353e-002
3.662313e+003;1.476495e-002
3.664241e+003;1.501654e-002
3.666170e+003;1.518834e-002
3.668098e+003;1.466332e-002
3.670027e+003;1.422682e-002
3.671955e+003;1.474514e-002
3.673884e+003;1.508209e-002
3.675813e+003;1.544982e-002
3.677741e+003;1.579398e-002
3.679669e+003;1.540721e-002
3.681598e+003;1.537086e-002
3.683527e+003;1.570695e-002
3.685455e+003;1.554150e-002
3.687384e+003;1.493800e-002
3.689312e+003;1.514686e-002
3.691241e+003;1.597287e-002
3.693169e+003;1.619709e-002
3.695098e+003;1.594351e-002
3.697026e+003;1.591193e-002
3.698955e+003;1.602076e-002
3.700884e+003;1.596087e-002
3.702812e+003;1.594578e-002
3.704741e+003;1.596125e-002
3.706669e+003;1.591890e-002
3.708598e+003;1.572671e-002
3.710526e+003;1.559951e-002
3.712455e+003;1.583724e-002
3.714383e+003;1.576162e-002
3.716312e+003;1.528649e-002
3.718240e+003;1.503146e-002
3.720169e+003;1.463508e-002
3.722098e+003;1.477585e-002
3.724026e+003;1.560514e-002
3.725955e+003;1.591719e-002
3.727883e+003;1.578745e-002
3.729812e+003;1.594159e-002
3.731740e+003;1.563705e-002
3.733669e+003;1.492164e-002
3.735597e+003;1.504065e-002
3.737526e+003;1.592117e-002
3.739455e+003;1.611868e-002
3.741383e+003;1.595513e-002
3.743312e+003;1.561555e-002
3.745240e+003;1.538795e-002
3.747169e+003;1.510854e-002
3.749097e+003;1.478171e-002
3.751026e+003;1.486866e-002
3.752954e+003;1.542658e-002
3.754883e+003;1.596864e-002
3.756812e+003;1.617099e-002
3.758740e+003;1.660381e-002
3.760668e+003;1.660343e-002
3.762597e+003;1.657117e-002
3.764526e+003;1.652780e-002
3.766454e+003;1.646492e-002
3.768383e+003;1.640749e-002
3.770311e+003;1.647236e-002
3.772240e+003;1.639830e-002
3.774168e+003;1.643650e-002
3.776097e+003;1.668533e-002
3.778025e+003;1.665603e-002
3.779954e+003;1.630943e-002
3.781883e+003;1.618340e-002
3.783811e+003;1.626657e-002
3.785740e+003;1.641021e-002
3.787668e+003;1.613488e-002
3.789597e+003;1.604953e-002
3.791525e+003;1.600233e-002
3.793454e+003;1.634101e-002
3.795382e+003;1.694223e-002
3.797311e+003;1.690558e-002
3.799240e+003;1.591151e-002
3.801168e+003;1.521181e-002
3.803097e+003;1.560064e-002
3.805025e+003;1.567975e-002
3.806954e+003;1.597796e-002
3.808882e+003;1.660246e-002
3.810811e+003;1.665063e-002
3.812739e+003;1.610056e-002
3.814668e+003;1.512607e-002
3.816596e+003;1.489537e-002
3.818525e+003;1.545658e-002
3.820454e+003;1.597871e-002
3.822382e+003;1.688729e-002
3.824311e+003;1.761399e-002
3.826239e+003;1.764532e-002
3.828168e+003;1.688212e-002
3.830096e+003;1.589900e-002
3.832025e+003;1.593086e-002
3.833953e+003;1.645525e-002
3.835882e+003;1.651276e-002
3.837811e+003;1.646957e-002
3.839739e+003;1.668826e-002
3.841667e+003;1.657048e-002
3.843596e+003;1.688525e-002
3.845525e+003;1.721208e-002
3.847453e+003;1.691970e-002
3.849382e+003;1.678682e-002
3.851310e+003;1.596912e-002
3.853239e+003;1.563791e-002
3.855167e+003;1.663844e-002
3.857096e+003;1.739469e-002
3.859024e+003;1.744580e-002
3.860953e+003;1.717671e-002
3.862882e+003;1.709168e-002
3.864810e+003;1.698069e-002
3.866739e+003;1.731734e-002
3.868667e+003;1.725242e-002
3.870596e+003;1.741107e-002
3.872524e+003;1.744853e-002
3.874453e+003;1.673757e-002
3.876381e+003;1.711153e-002
3.878310e+003;1.773363e-002
3.880239e+003;1.763642e-002
3.882167e+003;1.767652e-002
3.884096e+003;1.771482e-002
3.886024e+003;1.790952e-002
3.887953e+003;1.813036e-002
3.889881e+003;1.808932e-002
3.891810e+003;1.801616e-002
3.893738e+003;1.775479e-002
3.895667e+003;1.784938e-002
3.897595e+003;1.759704e-002
3.899524e+003;1.695267e-002
3.901453e+003;1.673306e-002
3.903381e+003;1.728210e-002
3.905310e+003;1.802887e-002
3.907238e+003;1.814659e-002
3.909167e+003;1.802573e-002
3.911095e+003;1.821925e-002
3.913024e+003;1.850210e-002
3.914952e+003;1.849449e-002
3.916881e+003;1.813043e-002
3.918810e+003;1.809067e-002
3.920738e+003;1.836195e-002
3.922667e+003;1.829794e-002
3.924595e+003;1.833810e-002
3.926524e+003;1.838756e-002
3.928452e+003;1.873742e-002
3.930381e+003;1.890281e-002
3.932309e+003;1.861013e-002
3.934238e+003;1.847935e-002
3.936167e+003;1.855355e-002
3.938095e+003;1.863458e-002
3.940023e+003;1.870653e-002
3.941952e+003;1.872632e-002
3.943881e+003;1.862818e-002
3.945809e+003;1.799264e-002
3.947738e+003;1.745329e-002
3.949666e+003;1.777809e-002
3.951595e+003;1.825979e-002
3.953523e+003;1.843364e-002
3.955452e+003;1.889205e-002
3.957380e+003;1.901807e-002
3.959309e+003;1.888496e-002
3.961238e+003;1.900136e-002
3.963166e+003;1.890229e-002
3.965095e+003;1.884066e-002
3.967023e+003;1.859477e-002
3.968952e+003;1.880533e-002
3.970880e+003;1.900534e-002
3.972809e+003;1.889551e-002
3.974737e+003;1.888887e-002
3.976666e+003;1.928499e-002
3.978594e+003;1.918399e-002
3.980523e+003;1.895206e-002
3.982452e+003;1.955213e-002
3.984380e+003;1.970369e-002
3.986309e+003;1.948590e-002
3.988237e+003;1.971180e-002
3.990166e+003;2.001800e-002
3.992094e+003;2.018316e-002
3.994023e+003;2.045457e-002
3.995951e+003;2.069498e-002
3.997880e+003;2.071312e-002
3.999809e+003;2.063476e-002
4.001737e+003;0.000000e+000
