3.992094e+002;0.000000e+000
4.011380e+002;0.000000e+000
4.030665e+002;0.000000e+000
4.049951e+002;0.000000e+000
4.069236e+002;0.000000e+000
4.088522e+002;0.000000e+000
4.107807e+002;0.000000e+000
4.127093e+002;0.000000e+000
4.146378e+002;0.000000e+000
4.165664e+002;0.000000e+000
4.184949e+002;0.000000e+000
4.204235e+002;0.000000e+000
4.223520e+002;0.000000e+000
4.242806e+002;0.000000e+000
4.262091e+002;0.000000e+000
4.281377e+002;0.000000e+000
4.300662e+002;0.000000e+000
4.319948e+002;0.000000e+000
4.339233e+002;0.000000e+000
4.358519e+002;0.000000e+000
4.377804e+002;0.000000e+000
4.397090e+002;0.000000e+000
4.416375e+002;0.000000e+000
4.435660e+002;0.000000e+000
4.454946e+002;0.000000e+000
4.474232e+002;0.000000e+000
4.493517e+002;0.000000e+000
4.512802e+002;0.000000e+000
4.532088e+002;0.000000e+000
4.551373e+002;0.000000e+000
4.570659e+002;0.000000e+000
4.589944e+002;0.000000e+000
4.609230e+002;0.000000e+000
4.628515e+002;0.000000e+000
4.647801e+002;0.000000e+000
4.667086e+002;0.000000e+000
4.686372e+002;0.000000e+000
4.705657e+002;0.000000e+000
4.724943e+002;0.000000e+000
4.744228e+002;0.000000e+000
4.763513e+002;0.000000e+000
4.782799e+002;0.000000e+000
4.802085e+002;0.000000e+000
4.821370e+002;0.000000e+000
4.840656e+002;0.000000e+000
4.859941e+002;0.000000e+000
4.879226e+002;0.000000e+000
4.898512e+002;0.000000e+000
4.917798e+002;0.000000e+000
4.937083e+002;0.000000e+000
4.956368e+002;0.000000e+000
4.975654e+002;0.000000e+000
4.994939e+002;0.000000e+000
5.014225e+002;0.000000e+000
5.033510e+002;0.000000e+000
5.052796e+002;0.000000e+000
5.072081e+002;0.000000e+000
5.091367e+002;0.000000e+000
5.110652e+002;0.000000e+000
5.129938e+002;0.000000e+000
5.149223e+002;0.000000e+000
5.168509e+002;0.000000e+000
5.187794e+002;0.000000e+000
5.207079e+002;0.000000e+000
5.226365e+002;0.000000e+000
5.245651e+002;0.000000e+000
5.264936e+002;0.000000e+000
5.284222e+002;0.000000e+000
5.303507e+002;0.000000e+000
5.322792e+002;0.000000e+000
5.342078e+002;0.000000e+000
5.361364e+002;0.000000e+000
5.380649e+002;0.000000e+000
5.399935e+002;0.000000e+000
5.419220e+002;0.000000e+000
5.438505e+002;0.000000e+000
5.457791e+002;0.000000e+000
5.477076e+002;0.000000e+000
5.496362e+002;0.000000e+000
5.515648e+002;0.000000e+000
5.534933e+002;0.000000e+000
5.554218e+002;0.000000e+000
5.573504e+002;0.000000e+000
5.592789e+002;0.000000e+000
5.612075e+002;0.000000e+000
5.631360e+002;0.000000e+000
5.650646e+002;0.000000e+000
5.669931e+002;0.000000e+000
5.689217e+002;0.000000e+000
5.708502e+002;0.000000e+000
5.727787e+002;0.000000e+000
5.747073e+002;0.000000e+000
5.766359e+002;0.000000e+000
5.785644e+002;0.000000e+000
5.804930e+002;0.000000e+000
5.824215e+002;0.000000e+000
5.843500e+002;0.000000e+000
5.862786e+002;0.000000e+000
5.882072e+002;0.000000e+000
5.901357e+002;0.000000e+000
5.920643e+002;0.000000e+000
5.939928e+002;0.000000e+000
5.959213e+002;0.000000e+000
5.978499e+002;0.000000e+000
5.997784e+002;4.036490e-002
6.017070e+002;3.379283e-002
6.036355e+002;2.946425e-002
6.055641e+002;3.068238e-002
6.074926e+002;3.398652e-002
6.094211e+002;2.923808e-002
6.113497e+002;2.725127e-002
6.132783e+002;3.042347e-002
6.152068e+002;3.417772e-002
6.171354e+002;3.717261e-002
6.190639e+002;3.653340e-002
6.209924e+002;3.438698e-002
6.229210e+002;3.500410e-002
6.248495e+002;3.527420e-002
6.267781e+002;3.576769e-002
6.287067e+002;3.437109e-002
6.306352e+002;3.293272e-002
6.325637e+002;3.649603e-002
6.344923e+002;3.647325e-002
6.364208e+002;3.143184e-002
6.383494e+002;3.107196e-002
6.402780e+002;3.117772e-002
6.422065e+002;2.786462e-002
6.441350e+002;2.710263e-002
6.460636e+002;2.954883e-002
6.479921e+002;3.199986e-002
6.499207e+002;3.429952e-002
6.518492e+002;3.529971e-002
6.537778e+002;3.494312e-002
6.557063e+002;3.400379e-002
6.576349e+002;3.298184e-002
6.595634e+002;3.378753e-002
6.614919e+002;3.579406e-002
6.634205e+002;3.416396e-002
6.653491e+002;3.093930e-002
6.672776e+002;3.005900e-002
6.692062e+002;3.138097e-002
6.711347e+002;3.319616e-002
6.730632e+002;3.409880e-002
6.749918e+002;3.419285e-002
6.769203e+002;3.335567e-002
6.788489e+002;3.346574e-002
6.807775e+002;3.332898e-002
6.827060e+002;3.156098e-002
6.846345e+002;3.102111e-002
6.865631e+002;3.187989e-002
6.884916e+002;3.212907e-002
6.904202e+002;3.194765e-002
6.923488e+002;3.162648e-002
6.942773e+002;3.189644e-002
6.962058e+002;3.288522e-002
6.981344e+002;3.363423e-002
7.000629e+002;3.306814e-002
7.019915e+002;3.298702e-002
7.039200e+002;3.289969e-002
7.058486e+002;3.287249e-002
7.077771e+002;3.416489e-002
7.097057e+002;3.428672e-002
7.116342e+002;3.401544e-002
7.135627e+002;3.595236e-002
7.154913e+002;3.683359e-002
7.174199e+002;3.594556e-002
7.193484e+002;3.490211e-002
7.212770e+002;3.413525e-002
7.232055e+002;3.445193e-002
7.251340e+002;3.444835e-002
7.270626e+002;3.409865e-002
7.289911e+002;3.455791e-002
7.309197e+002;3.459824e-002
7.328483e+002;3.400261e-002
7.347768e+002;3.357062e-002
7.367053e+002;3.403942e-002
7.386339e+002;3.520750e-002
7.405624e+002;3.594610e-002
7.424910e+002;3.590190e-002
7.444196e+002;3.463200e-002
7.463481e+002;3.439089e-002
7.482766e+002;3.447568e-002
7.502052e+002;3.442259e-002
7.521337e+002;3.539960e-002
7.540623e+002;3.595679e-002
7.559908e+002;3.608779e-002
7.579194e+002;3.494449e-002
7.598479e+002;3.356557e-002
7.617765e+002;3.384254e-002
7.637050e+002;3.410808e-002
7.656335e+002;3.438153e-002
7.675621e+002;3.450969e-002
7.694907e+002;3.432551e-002
7.714192e+002;3.504760e-002
7.733478e+002;3.543440e-002
7.752763e+002;3.451460e-002
7.772048e+002;3.442995e-002
7.791334e+002;3.530162e-002
7.810620e+002;3.528487e-002
7.829905e+002;3.542897e-002
7.849191e+002;3.610094e-002
7.868476e+002;3.585033e-002
7.887761e+002;3.568580e-002
7.907047e+002;3.622327e-002
7.926332e+002;3.705120e-002
7.945618e+002;3.855417e-002
7.964903e+002;4.052110e-002
7.984189e+002;4.179964e-002
8.003474e+002;4.272247e-002
8.022759e+002;4.399518e-002
8.042045e+002;4.593582e-002
8.061331e+002;4.805677e-002
8.080616e+002;5.112432e-002
8.099902e+002;5.323000e-002
8.119187e+002;5.279174e-002
8.138472e+002;5.034225e-002
8.157758e+002;4.787254e-002
8.177043e+002;4.590982e-002
8.196329e+002;4.376028e-002
8.215615e+002;4.253186e-002
8.234900e+002;4.204356e-002
8.254185e+002;4.175780e-002
8.273471e+002;4.197245e-002
8.292756e+002;4.224681e-002
8.312042e+002;4.201110e-002
8.331328e+002;4.238896e-002
8.350613e+002;4.420694e-002
8.369898e+002;4.754414e-002
8.389184e+002;5.320955e-002
8.408469e+002;5.992845e-002
8.427755e+002;6.105477e-002
8.447040e+002;5.578011e-002
8.466326e+002;4.975742e-002
8.485611e+002;4.612993e-002
8.504897e+002;4.413343e-002
8.524182e+002;4.315138e-002
8.543467e+002;4.236317e-002
8.562753e+002;4.089187e-002
8.582039e+002;3.979233e-002
8.601324e+002;3.934743e-002
8.620610e+002;3.927045e-002
8.639895e+002;3.914367e-002
8.659180e+002;3.866622e-002
8.678466e+002;3.829481e-002
8.697751e+002;3.871375e-002
8.717037e+002;3.905753e-002
8.736323e+002;3.888037e-002
8.755608e+002;3.882518e-002
8.774893e+002;3.901733e-002
8.794179e+002;3.842887e-002
8.813464e+002;3.789406e-002
8.832750e+002;3.812215e-002
8.852036e+002;3.818503e-002
8.871321e+002;3.790266e-002
8.890606e+002;3.850117e-002
8.909892e+002;4.028931e-002
8.929177e+002;4.266234e-002
8.948463e+002;4.578127e-002
8.967748e+002;4.998484e-002
8.987034e+002;5.306834e-002
9.006319e+002;5.350425e-002
9.025605e+002;5.109148e-002
9.044890e+002;4.607459e-002
9.064175e+002;4.112424e-002
9.083461e+002;3.837255e-002
9.102747e+002;3.700949e-002
9.122032e+002;3.595927e-002
9.141318e+002;3.552914e-002
9.160603e+002;3.528383e-002
9.179888e+002;3.483085e-002
9.199174e+002;3.479818e-002
9.218459e+002;3.498309e-002
9.237745e+002;3.480212e-002
9.257031e+002;3.426968e-002
9.276316e+002;3.435940e-002
9.295601e+002;3.482772e-002
9.314887e+002;3.535089e-002
9.334172e+002;3.593934e-002
9.353458e+002;3.660452e-002
9.372744e+002;3.775261e-002
9.392029e+002;3.923861e-002
9.411314e+002;4.030003e-002
9.430600e+002;4.075282e-002
9.449885e+002;4.083952e-002
9.469171e+002;4.068910e-002
9.488456e+002;4.043730e-002
9.507742e+002;4.071152e-002
9.527027e+002;4.178866e-002
9.546313e+002;4.269915e-002
9.565598e+002;4.299358e-002
9.584883e+002;4.369344e-002
9.604169e+002;4.512392e-002
9.623455e+002;4.710914e-002
9.642740e+002;4.974286e-002
9.662026e+002;5.345212e-002
9.681311e+002;5.922663e-002
9.700596e+002;6.713439e-002
9.719882e+002;7.483367e-002
9.739167e+002;7.839944e-002
9.758453e+002;7.557605e-002
9.777739e+002;6.800354e-002
9.797024e+002;5.913770e-002
9.816309e+002;5.153064e-002
9.835595e+002;4.652662e-002
9.854880e+002;4.403683e-002
9.874166e+002;4.343608e-002
9.893452e+002;4.444854e-002
9.912737e+002;4.742353e-002
9.932022e+002;5.271298e-002
9.951307e+002;5.972587e-002
9.970593e+002;6.577549e-002
9.989879e+002;6.692602e-002
1.000916e+003;6.297026e-002
1.002845e+003;5.705309e-002
1.004773e+003;5.150266e-002
1.006702e+003;4.773919e-002
1.008631e+003;4.558725e-002
1.010559e+003;4.459868e-002
1.012488e+003;4.384831e-002
1.014416e+003;4.269184e-002
1.016345e+003;4.182503e-002
1.018273e+003;4.178866e-002
1.020202e+003;4.233414e-002
1.022130e+003;4.233991e-002
1.024059e+003;4.176221e-002
1.025988e+003;4.160024e-002
1.027916e+003;4.203063e-002
1.029845e+003;4.277213e-002
1.031773e+003;4.356459e-002
1.033702e+003;4.439491e-002
1.035630e+003;4.552598e-002
1.037559e+003;4.647802e-002
1.039487e+003;4.713377e-002
1.041416e+003;4.745517e-002
1.043344e+003;4.756865e-002
1.045273e+003;4.733104e-002
1.047202e+003;4.677413e-002
1.049130e+003;4.583348e-002
1.051059e+003;4.479480e-002
1.052987e+003;4.436328e-002
1.054916e+003;4.442075e-002
1.056844e+003;4.437579e-002
1.058773e+003;4.386613e-002
1.060701e+003;4.325876e-002
1.062630e+003;4.279333e-002
1.064558e+003;4.279944e-002
1.066487e+003;4.323011e-002
1.068416e+003;4.298662e-002
1.070344e+003;4.238334e-002
1.072273e+003;4.288128e-002
1.074201e+003;4.320836e-002
1.076130e+003;4.276046e-002
1.078058e+003;4.266581e-002
1.079987e+003;4.291855e-002
1.081915e+003;4.349833e-002
1.083844e+003;4.411179e-002
1.085773e+003;4.383197e-002
1.087701e+003;4.387866e-002
1.089630e+003;4.461065e-002
1.091558e+003;4.425551e-002
1.093487e+003;4.414120e-002
1.095415e+003;4.520928e-002
1.097344e+003;4.694243e-002
1.099272e+003;4.885980e-002
1.101201e+003;4.994027e-002
1.103129e+003;5.043684e-002
1.105058e+003;5.041235e-002
1.106987e+003;4.904027e-002
1.108915e+003;4.726010e-002
1.110844e+003;4.577656e-002
1.112772e+003;4.493834e-002
1.114701e+003;4.433759e-002
1.116629e+003;4.394810e-002
1.118558e+003;4.353489e-002
1.120486e+003;4.324709e-002
1.122415e+003;4.307688e-002
1.124344e+003;4.296105e-002
1.126272e+003;4.276405e-002
1.128201e+003;4.269436e-002
1.130129e+003;4.335907e-002
1.132058e+003;4.390762e-002
1.133986e+003;4.460011e-002
1.135915e+003;4.600982e-002
1.137843e+003;4.766116e-002
1.139772e+003;4.982806e-002
1.141700e+003;5.209851e-002
1.143629e+003;5.479918e-002
1.145557e+003;5.809424e-002
1.147486e+003;6.167762e-002
1.149415e+003;6.510913e-002
1.151343e+003;6.783288e-002
1.153272e+003;6.969391e-002
1.155200e+003;7.091948e-002
1.157129e+003;7.109925e-002
1.159057e+003;7.105148e-002
1.160986e+003;7.163113e-002
1.162914e+003;7.282293e-002
1.164843e+003;7.369684e-002
1.166771e+003;7.408351e-002
1.168700e+003;7.354834e-002
1.170629e+003;7.072229e-002
1.172557e+003;6.656958e-002
1.174486e+003;6.205728e-002
1.176414e+003;5.774103e-002
1.178343e+003;5.429516e-002
1.180271e+003;5.193413e-002
1.182200e+003;5.054425e-002
1.184128e+003;4.954691e-002
1.186057e+003;4.892700e-002
1.187986e+003;4.845071e-002
1.189914e+003;4.808623e-002
1.191843e+003;4.825020e-002
1.193771e+003;4.811722e-002
1.195700e+003;4.775146e-002
1.197628e+003;4.780032e-002
1.199557e+003;4.811599e-002
1.201485e+003;4.816367e-002
1.203414e+003;4.831704e-002
1.205343e+003;4.837229e-002
1.207271e+003;4.853878e-002
1.209200e+003;4.891928e-002
1.211128e+003;4.956017e-002
1.213057e+003;5.044878e-002
1.214985e+003;5.133627e-002
1.216914e+003;5.193652e-002
1.218842e+003;5.209944e-002
1.220771e+003;5.181730e-002
1.222699e+003;5.083391e-002
1.224628e+003;5.000113e-002
1.226557e+003;4.978715e-002
1.228485e+003;4.982777e-002
1.230414e+003;4.961588e-002
1.232342e+003;4.944966e-002
1.234271e+003;4.952262e-002
1.236199e+003;4.952225e-002
1.238128e+003;4.974167e-002
1.240056e+003;5.008389e-002
1.241985e+003;5.003641e-002
1.243913e+003;5.036855e-002
1.245842e+003;5.113208e-002
1.247771e+003;5.173592e-002
1.249699e+003;5.247030e-002
1.251628e+003;5.407369e-002
1.253556e+003;5.615861e-002
1.255485e+003;5.716333e-002
1.257413e+003;5.677576e-002
1.259342e+003;5.521080e-002
1.261270e+003;5.316180e-002
1.263199e+003;5.147174e-002
1.265127e+003;5.044882e-002
1.267056e+003;4.983583e-002
1.268985e+003;4.941687e-002
1.270913e+003;4.900767e-002
1.272842e+003;4.883429e-002
1.274770e+003;4.908401e-002
1.276699e+003;4.912560e-002
1.278627e+003;4.901894e-002
1.280556e+003;4.908556e-002
1.282484e+003;4.928346e-002
1.284413e+003;4.978213e-002
1.286342e+003;5.065534e-002
1.288270e+003;5.126151e-002
1.290199e+003;5.168908e-002
1.292127e+003;5.261311e-002
1.294056e+003;5.338984e-002
1.295984e+003;5.372652e-002
1.297913e+003;5.399876e-002
1.299841e+003;5.388407e-002
1.301770e+003;5.400506e-002
1.303698e+003;5.431127e-002
1.305627e+003;5.351988e-002
1.307556e+003;5.128970e-002
1.309484e+003;4.896701e-002
1.311413e+003;4.802624e-002
1.313341e+003;4.782281e-002
1.315270e+003;4.794994e-002
1.317198e+003;4.847783e-002
1.319127e+003;4.908757e-002
1.321055e+003;4.991407e-002
1.322984e+003;5.116991e-002
1.324912e+003;5.277236e-002
1.326841e+003;5.406228e-002
1.328770e+003;5.478843e-002
1.330698e+003;5.479185e-002
1.332627e+003;5.426088e-002
1.334555e+003;5.323423e-002
1.336484e+003;5.255312e-002
1.338412e+003;5.241605e-002
1.340341e+003;5.275185e-002
1.342269e+003;5.370728e-002
1.344198e+003;5.531560e-002
1.346126e+003;5.725461e-002
1.348055e+003;5.988315e-002
1.349984e+003;6.329680e-002
1.351912e+003;6.744241e-002
1.353841e+003;7.316274e-002
1.355769e+003;8.045194e-002
1.357698e+003;8.688211e-002
1.359626e+003;9.010813e-002
1.361555e+003;8.989950e-002
1.363483e+003;8.912748e-002
1.365412e+003;9.114996e-002
1.367341e+003;9.915492e-002
1.369269e+003;1.151736e-001
1.371198e+003;1.388479e-001
1.373126e+003;1.663021e-001
1.375055e+003;1.877364e-001
1.376983e+003;1.906155e-001
1.378912e+003;1.731394e-001
1.380840e+003;1.460764e-001
1.382769e+003;1.190052e-001
1.384698e+003;9.644605e-002
1.386626e+003;7.943801e-002
1.388555e+003;6.780972e-002
1.390483e+003;6.066268e-002
1.392412e+003;5.613998e-002
1.394340e+003;5.319168e-002
1.396269e+003;5.180110e-002
1.398197e+003;5.109391e-002
1.400126e+003;5.097652e-002
1.402054e+003;5.117837e-002
1.403983e+003;5.092932e-002
1.405911e+003;5.064819e-002
1.407840e+003;5.075849e-002
1.409769e+003;5.098476e-002
1.411697e+003;5.154407e-002
1.413626e+003;5.221310e-002
1.415554e+003;5.261416e-002
1.417483e+003;5.260731e-002
1.419411e+003;5.296157e-002
1.421340e+003;5.437938e-002
1.423268e+003;5.625919e-002
1.425197e+003;5.841369e-002
1.427125e+003;6.189895e-002
1.429054e+003;6.795065e-002
1.430983e+003;7.700122e-002
1.432911e+003;8.740513e-002
1.434840e+003;9.514669e-002
1.436768e+003;9.867197e-002
1.438697e+003;1.006407e-001
1.440625e+003;1.036897e-001
1.442554e+003;1.095947e-001
1.444482e+003;1.189350e-001
1.446411e+003;1.300794e-001
1.448340e+003;1.407121e-001
1.450268e+003;1.490812e-001
1.452197e+003;1.543675e-001
1.454125e+003;1.568256e-001
1.456054e+003;1.565911e-001
1.457982e+003;1.552402e-001
1.459911e+003;1.530852e-001
1.461839e+003;1.484054e-001
1.463768e+003;1.408274e-001
1.465697e+003;1.314714e-001
1.467625e+003;1.207641e-001
1.469554e+003;1.089250e-001
1.471482e+003;9.729085e-002
1.473411e+003;8.668713e-002
1.475339e+003;7.743428e-002
1.477268e+003;6.962362e-002
1.479196e+003;6.338935e-002
1.481125e+003;5.833308e-002
1.483053e+003;5.394424e-002
1.484982e+003;4.999912e-002
1.486911e+003;4.685997e-002
1.488839e+003;4.455874e-002
1.490768e+003;4.277147e-002
1.492696e+003;4.142077e-002
1.494625e+003;4.007021e-002
1.496553e+003;3.867412e-002
1.498482e+003;3.780140e-002
1.500410e+003;3.727408e-002
1.502339e+003;3.675375e-002
1.504267e+003;3.581446e-002
1.506196e+003;3.499125e-002
1.508125e+003;3.478654e-002
1.510053e+003;3.457864e-002
1.511982e+003;3.448583e-002
1.513910e+003;3.439942e-002
1.515839e+003;3.403135e-002
1.517767e+003;3.350307e-002
1.519696e+003;3.282732e-002
1.521624e+003;3.245144e-002
1.523553e+003;3.277008e-002
1.525481e+003;3.292203e-002
1.527410e+003;3.299756e-002
1.529339e+003;3.299395e-002
1.531267e+003;3.280695e-002
1.533196e+003;3.265050e-002
1.535124e+003;3.281192e-002
1.537053e+003;3.242430e-002
1.538981e+003;3.154766e-002
1.540910e+003;3.173857e-002
1.542838e+003;3.253642e-002
1.544767e+003;3.312732e-002
1.546695e+003;3.372428e-002
1.548624e+003;3.409005e-002
1.550553e+003;3.420414e-002
1.552481e+003;3.416697e-002
1.554410e+003;3.392103e-002
1.556338e+003;3.325289e-002
1.558267e+003;3.212843e-002
1.560195e+003;3.227895e-002
1.562124e+003;3.282157e-002
1.564052e+003;3.274003e-002
1.565981e+003;3.271848e-002
1.567910e+003;3.228637e-002
1.569838e+003;3.154074e-002
1.571767e+003;3.134276e-002
1.573695e+003;3.113700e-002
1.575624e+003;3.073270e-002
1.577552e+003;3.112386e-002
1.579481e+003;3.172567e-002
1.581409e+003;3.179875e-002
1.583338e+003;3.195978e-002
1.585266e+003;3.217631e-002
1.587195e+003;3.245797e-002
1.589124e+003;3.254760e-002
1.591052e+003;3.250186e-002
1.592981e+003;3.265582e-002
1.594909e+003;3.284637e-002
1.596838e+003;3.312818e-002
1.598766e+003;3.322699e-002
1.600695e+003;3.325539e-002
1.602623e+003;3.355501e-002
1.604552e+003;3.404095e-002
1.606480e+003;3.444817e-002
1.608409e+003;3.470474e-002
1.610338e+003;3.505808e-002
1.612266e+003;3.544511e-002
1.614195e+003;3.574930e-002
1.616123e+003;3.592630e-002
1.618052e+003;3.665820e-002
1.619980e+003;3.731340e-002
1.621909e+003;3.730282e-002
1.623837e+003;3.732961e-002
1.625766e+003;3.768438e-002
1.627694e+003;3.782797e-002
1.629623e+003;3.801950e-002
1.631552e+003;3.822862e-002
1.633480e+003;3.808428e-002
1.635409e+003;3.798258e-002
1.637337e+003;3.856460e-002
1.639266e+003;3.898942e-002
1.641194e+003;3.919593e-002
1.643123e+003;3.939949e-002
1.645051e+003;3.913233e-002
1.646980e+003;3.906721e-002
1.648909e+003;3.959628e-002
1.650837e+003;3.923161e-002
1.652766e+003;3.836042e-002
1.654694e+003;3.898235e-002
1.656623e+003;3.986921e-002
1.658551e+003;4.015728e-002
1.660480e+003;4.010066e-002
1.662408e+003;3.998639e-002
1.664337e+003;3.996122e-002
1.666266e+003;3.963875e-002
1.668194e+003;3.902730e-002
1.670123e+003;3.873718e-002
1.672051e+003;3.900287e-002
1.673980e+003;3.892708e-002
1.675908e+003;3.863388e-002
1.677837e+003;3.859079e-002
1.679765e+003;3.847278e-002
1.681694e+003;3.816093e-002
1.683622e+003;3.741238e-002
1.685551e+003;3.742715e-002
1.687479e+003;3.804268e-002
1.689408e+003;3.849418e-002
1.691337e+003;3.908853e-002
1.693265e+003;3.941378e-002
1.695194e+003;3.908958e-002
1.697122e+003;3.948403e-002
1.699051e+003;4.011702e-002
1.700979e+003;4.095056e-002
1.702908e+003;4.229852e-002
1.704836e+003;4.318933e-002
1.706765e+003;4.370286e-002
1.708693e+003;4.403070e-002
1.710622e+003;4.401413e-002
1.712551e+003;4.358130e-002
1.714479e+003;4.294277e-002
1.716408e+003;4.240902e-002
1.718336e+003;4.254176e-002
1.720265e+003;4.295893e-002
1.722193e+003;4.304622e-002
1.724122e+003;4.285389e-002
1.726050e+003;4.264852e-002
1.727979e+003;4.232906e-002
1.729908e+003;4.211583e-002
1.731836e+003;4.205545e-002
1.733765e+003;4.211569e-002
1.735693e+003;4.281820e-002
1.737622e+003;4.318319e-002
1.739550e+003;4.297327e-002
1.741479e+003;4.253581e-002
1.743407e+003;4.142740e-002
1.745336e+003;3.967037e-002
1.747265e+003;3.776432e-002
1.749193e+003;3.599038e-002
1.751122e+003;3.436517e-002
1.753050e+003;3.300686e-002
1.754979e+003;3.160581e-002
1.756907e+003;2.991806e-002
1.758836e+003;2.849731e-002
1.760764e+003;2.717821e-002
1.762693e+003;2.601011e-002
1.764621e+003;2.484633e-002
1.766550e+003;2.391508e-002
1.768479e+003;2.341368e-002
1.770407e+003;2.293654e-002
1.772336e+003;2.252619e-002
1.774264e+003;2.243896e-002
1.776193e+003;2.225634e-002
1.778121e+003;2.200478e-002
1.780050e+003;2.157884e-002
1.781978e+003;2.092141e-002
1.783907e+003;2.020520e-002
1.785835e+003;1.957764e-002
1.787764e+003;1.917852e-002
1.789693e+003;1.851628e-002
1.791621e+003;1.740828e-002
1.793550e+003;1.683059e-002
1.795478e+003;1.664570e-002
1.797407e+003;1.598906e-002
1.799335e+003;1.526524e-002
1.801264e+003;1.484908e-002
1.803192e+003;1.436529e-002
1.805121e+003;1.387671e-002
1.807049e+003;1.374406e-002
1.808978e+003;1.353649e-002
1.810907e+003;1.331193e-002
1.812835e+003;1.307984e-002
1.814764e+003;1.277675e-002
1.816692e+003;1.260562e-002
1.818621e+003;1.259590e-002
1.820549e+003;1.243910e-002
1.822478e+003;1.234602e-002
1.824406e+003;1.233988e-002
1.826335e+003;1.224448e-002
1.828264e+003;1.216129e-002
1.830192e+003;1.209799e-002
1.832121e+003;1.202096e-002
1.834049e+003;1.203002e-002
1.835978e+003;1.222771e-002
1.837906e+003;1.208259e-002
1.839835e+003;1.146948e-002
1.841763e+003;1.122232e-002
1.843692e+003;1.113107e-002
1.845620e+003;1.111292e-002
1.847549e+003;1.116435e-002
1.849478e+003;1.120620e-002
1.851406e+003;1.114579e-002
1.853335e+003;1.099015e-002
1.855263e+003;1.106043e-002
1.857192e+003;1.121348e-002
1.859120e+003;1.104966e-002
1.861049e+003;1.086735e-002
1.862977e+003;1.085203e-002
1.864906e+003;1.075057e-002
1.866834e+003;1.061487e-002
1.868763e+003;1.062502e-002
1.870692e+003;1.043861e-002
1.872620e+003;1.032910e-002
1.874549e+003;1.050412e-002
1.876477e+003;1.052157e-002
1.878406e+003;1.047405e-002
1.880334e+003;1.062122e-002
1.882263e+003;1.069701e-002
1.884191e+003;1.069606e-002
1.886120e+003;1.067456e-002
1.888048e+003;1.053922e-002
1.889977e+003;1.047978e-002
1.891906e+003;1.053607e-002
1.893834e+003;1.065361e-002
1.895763e+003;1.075549e-002
1.897691e+003;1.076622e-002
1.899620e+003;1.073712e-002
1.901548e+003;1.059969e-002
1.903477e+003;1.053892e-002
1.905405e+003;1.039137e-002
1.907334e+003;1.020890e-002
1.909262e+003;1.019157e-002
1.911191e+003;1.008191e-002
1.913120e+003;1.019520e-002
1.915048e+003;1.025653e-002
1.916977e+003;1.015076e-002
1.918905e+003;1.028421e-002
1.920834e+003;1.007238e-002
1.922762e+003;9.908691e-003
1.924691e+003;1.013943e-002
1.926619e+003;1.006930e-002
1.928548e+003;9.917065e-003
1.930477e+003;9.710158e-003
1.932405e+003;9.490176e-003
1.934334e+003;9.490075e-003
1.936262e+003;9.501928e-003
1.938191e+003;9.283406e-003
1.940119e+003;9.106576e-003
1.942048e+003;9.155675e-003
1.943976e+003;9.456955e-003
1.945905e+003;9.483708e-003
1.947833e+003;9.306897e-003
1.949762e+003;9.195168e-003
1.951691e+003;9.346540e-003
1.953619e+003;9.298434e-003
1.955548e+003;9.227658e-003
1.957476e+003;9.349147e-003
1.959405e+003;9.303242e-003
1.961333e+003;9.126979e-003
1.963262e+003;9.044829e-003
1.965190e+003;8.895151e-003
1.967119e+003;8.592300e-003
1.969047e+003;8.591184e-003
1.970976e+003;8.810847e-003
1.972905e+003;8.812436e-003
1.974833e+003;8.927078e-003
1.976762e+003;9.069425e-003
1.978690e+003;8.886493e-003
1.980619e+003;8.589157e-003
1.982547e+003;8.577295e-003
1.984476e+003;8.632080e-003
1.986404e+003;8.741907e-003
1.988333e+003;8.757019e-003
1.990261e+003;8.619472e-003
1.992190e+003;8.636169e-003
1.994119e+003;8.748432e-003
1.996047e+003;8.571989e-003
1.997976e+003;8.604129e-003
1.999904e+003;8.892073e-003
2.001833e+003;8.811861e-003
2.003761e+003;8.724159e-003
2.005690e+003;8.561411e-003
2.007618e+003;8.492275e-003
2.009547e+003;8.499573e-003
2.011476e+003;8.616364e-003
2.013404e+003;8.686703e-003
2.015333e+003;8.649859e-003
2.017261e+003;8.452576e-003
2.019190e+003;8.370890e-003
2.021118e+003;8.497107e-003
2.023047e+003;8.491802e-003
2.024975e+003;8.431359e-003
2.026904e+003;8.397948e-003
2.028833e+003;8.117758e-003
2.030761e+003;7.944033e-003
2.032690e+003;8.254774e-003
2.034618e+003;8.495958e-003
2.036547e+003;8.554382e-003
2.038475e+003;8.421798e-003
2.040404e+003;8.409806e-003
2.042332e+003;8.500283e-003
2.044261e+003;8.491126e-003
2.046189e+003;8.571617e-003
2.048118e+003;8.424602e-003
2.050047e+003;8.231136e-003
2.051975e+003;8.152193e-003
2.053904e+003;8.124240e-003
2.055832e+003;8.190988e-003
2.057761e+003;8.160702e-003
2.059689e+003;7.986521e-003
2.061618e+003;7.894667e-003
2.063546e+003;7.894430e-003
2.065475e+003;7.770616e-003
2.067404e+003;7.867371e-003
2.069332e+003;7.999279e-003
2.071260e+003;7.840447e-003
2.073189e+003;7.910728e-003
2.075118e+003;8.084506e-003
2.077046e+003;7.919400e-003
2.078975e+003;7.968095e-003
2.080903e+003;8.130452e-003
2.082832e+003;8.016829e-003
2.084760e+003;7.970964e-003
2.086689e+003;8.050751e-003
2.088617e+003;8.024795e-003
2.090546e+003;7.973967e-003
2.092475e+003;7.949400e-003
2.094403e+003;8.064287e-003
2.096332e+003;8.069788e-003
2.098260e+003;7.958376e-003
2.100189e+003;8.177380e-003
2.102117e+003;8.326777e-003
2.104046e+003;8.199598e-003
2.105974e+003;8.229718e-003
2.107903e+003;7.920109e-003
2.109832e+003;7.554008e-003
2.111760e+003;7.943663e-003
2.113688e+003;8.142132e-003
2.115617e+003;7.925204e-003
2.117546e+003;7.739819e-003
2.119474e+003;7.708890e-003
2.121403e+003;7.747948e-003
2.123331e+003;7.881407e-003
2.125260e+003;8.153004e-003
2.127188e+003;8.683255e-003
2.129117e+003;9.121700e-003
2.131045e+003;9.215846e-003
2.132974e+003;9.229316e-003
2.134903e+003;9.295050e-003
2.136831e+003;9.259914e-003
2.138760e+003;8.887203e-003
2.140688e+003;8.494133e-003
2.142617e+003;8.447069e-003
2.144545e+003;8.392780e-003
2.146474e+003;8.265513e-003
2.148402e+003;8.247311e-003
2.150331e+003;8.458488e-003
2.152260e+003;8.719899e-003
2.154188e+003;8.723550e-003
2.156117e+003;8.560228e-003
2.158045e+003;8.275070e-003
2.159974e+003;8.489978e-003
2.161902e+003;8.986779e-003
2.163831e+003;9.257375e-003
2.165759e+003;9.133442e-003
2.167688e+003;8.987387e-003
2.169616e+003;9.046317e-003
2.171545e+003;9.211582e-003
2.173474e+003;9.492750e-003
2.175402e+003;9.625932e-003
2.177331e+003;9.516220e-003
2.179259e+003;9.528921e-003
2.181188e+003;9.739332e-003
2.183116e+003;9.791553e-003
2.185045e+003;9.705008e-003
2.186973e+003;9.460240e-003
2.188902e+003;9.269324e-003
2.190831e+003;9.366955e-003
2.192759e+003;9.474022e-003
2.194688e+003;9.348131e-003
2.196616e+003;9.347352e-003
2.198545e+003;9.664181e-003
2.200473e+003;9.732725e-003
2.202402e+003;9.420926e-003
2.204330e+003;9.237744e-003
2.206259e+003;9.045877e-003
2.208188e+003;9.056806e-003
2.210116e+003;9.250809e-003
2.212044e+003;9.254194e-003
2.213973e+003;9.131175e-003
2.215902e+003;9.111245e-003
2.217830e+003;9.157028e-003
2.219759e+003;9.218452e-003
2.221687e+003;9.199263e-003
2.223616e+003;9.135879e-003
2.225544e+003;9.338482e-003
2.227473e+003;9.505721e-003
2.229401e+003;9.457327e-003
2.231330e+003;9.503351e-003
2.233259e+003;9.528887e-003
2.235187e+003;9.339498e-003
2.237116e+003;9.124509e-003
2.239044e+003;9.335672e-003
2.240973e+003;9.552765e-003
2.242901e+003;9.484385e-003
2.244830e+003;9.181664e-003
2.246758e+003;9.112936e-003
2.248687e+003;9.534238e-003
2.250615e+003;9.762273e-003
2.252544e+003;9.784741e-003
2.254473e+003;1.020293e-002
2.256401e+003;1.030359e-002
2.258330e+003;1.015392e-002
2.260258e+003;1.003929e-002
2.262187e+003;9.858829e-003
2.264115e+003;9.967645e-003
2.266044e+003;1.005719e-002
2.267972e+003;9.880590e-003
2.269901e+003;9.534645e-003
2.271830e+003;9.229181e-003
2.273758e+003;9.207148e-003
2.275687e+003;9.401388e-003
2.277615e+003;9.583860e-003
2.279544e+003;9.478560e-003
2.281472e+003;9.497288e-003
2.283401e+003;9.578169e-003
2.285329e+003;9.526143e-003
2.287258e+003;9.201191e-003
2.289187e+003;9.063234e-003
2.291115e+003;9.049769e-003
2.293043e+003;9.100586e-003
2.294972e+003;9.298434e-003
2.296901e+003;9.072199e-003
2.298829e+003;8.912669e-003
2.300758e+003;9.055181e-003
2.302686e+003;9.178314e-003
2.304615e+003;9.485164e-003
2.306543e+003;9.561842e-003
2.308472e+003;9.381209e-003
2.310400e+003;9.238353e-003
2.312329e+003;9.110873e-003
2.314258e+003;9.223258e-003
2.316186e+003;9.630438e-003
2.318115e+003;9.663672e-003
2.320043e+003;9.553375e-003
2.321972e+003;9.574071e-003
2.323900e+003;9.786402e-003
2.325829e+003;1.011257e-002
2.327757e+003;1.005078e-002
2.329686e+003;9.996701e-003
2.331615e+003;1.036181e-002
2.333543e+003;1.055080e-002
2.335472e+003;1.049038e-002
2.337400e+003;1.041044e-002
2.339329e+003;1.039982e-002
2.341257e+003;1.049974e-002
2.343186e+003;1.051638e-002
2.345114e+003;1.038686e-002
2.347043e+003;1.046808e-002
2.348971e+003;1.081436e-002
2.350900e+003;1.056044e-002
2.352829e+003;1.030647e-002
2.354757e+003;1.066801e-002
2.356686e+003;1.103345e-002
2.358614e+003;1.114042e-002
2.360543e+003;1.112835e-002
2.362471e+003;1.129053e-002
2.364400e+003;1.136154e-002
2.366328e+003;1.098155e-002
2.368257e+003;1.083335e-002
2.370186e+003;1.104093e-002
2.372114e+003;1.101425e-002
2.374042e+003;1.100690e-002
2.375971e+003;1.105731e-002
2.377900e+003;1.091274e-002
2.379828e+003;1.110670e-002
2.381757e+003;1.135420e-002
2.383685e+003;1.130216e-002
2.385614e+003;1.113338e-002
2.387542e+003;1.099386e-002
2.389471e+003;1.091020e-002
2.391399e+003;1.127002e-002
2.393328e+003;1.165517e-002
2.395257e+003;1.177226e-002
2.397185e+003;1.156352e-002
2.399114e+003;1.143835e-002
2.401042e+003;1.172083e-002
2.402971e+003;1.195567e-002
2.404899e+003;1.210296e-002
2.406828e+003;1.209022e-002
2.408756e+003;1.179494e-002
2.410685e+003;1.156318e-002
2.412614e+003;1.194695e-002
2.414542e+003;1.213448e-002
2.416471e+003;1.197171e-002
2.418399e+003;1.210845e-002
2.420328e+003;1.239474e-002
2.422256e+003;1.272727e-002
2.424185e+003;1.295597e-002
2.426113e+003;1.278484e-002
2.428042e+003;1.246354e-002
2.429970e+003;1.226592e-002
2.431899e+003;1.235073e-002
2.433828e+003;1.239896e-002
2.435756e+003;1.210807e-002
2.437685e+003;1.189150e-002
2.439613e+003;1.197116e-002
2.441542e+003;1.201098e-002
2.443470e+003;1.197307e-002
2.445399e+003;1.188194e-002
2.447327e+003;1.186889e-002
2.449256e+003;1.191453e-002
2.451185e+003;1.175711e-002
2.453113e+003;1.149292e-002
2.455042e+003;1.130794e-002
2.456970e+003;1.132406e-002
2.458899e+003;1.146556e-002
2.460827e+003;1.142515e-002
2.462756e+003;1.135749e-002
2.464684e+003;1.133926e-002
2.466613e+003;1.162624e-002
2.468542e+003;1.191027e-002
2.470470e+003;1.174306e-002
2.472398e+003;1.164193e-002
2.474327e+003;1.146012e-002
2.476256e+003;1.156063e-002
2.478184e+003;1.207680e-002
2.480113e+003;1.235533e-002
2.482041e+003;1.236150e-002
2.483970e+003;1.249822e-002
2.485898e+003;1.230975e-002
2.487827e+003;1.197821e-002
2.489755e+003;1.231882e-002
2.491684e+003;1.263554e-002
2.493613e+003;1.250832e-002
2.495541e+003;1.210879e-002
2.497470e+003;1.198945e-002
2.499398e+003;1.233838e-002
2.501327e+003;1.243896e-002
2.503255e+003;1.227117e-002
2.505184e+003;1.211877e-002
2.507112e+003;1.196732e-002
2.509041e+003;1.214726e-002
2.510969e+003;1.234500e-002
2.512898e+003;1.258253e-002
2.514827e+003;1.312444e-002
2.516755e+003;1.341720e-002
2.518684e+003;1.334100e-002
2.520612e+003;1.352210e-002
2.522541e+003;1.400217e-002
2.524469e+003;1.431899e-002
2.526398e+003;1.425996e-002
2.528326e+003;1.443417e-002
2.530255e+003;1.444164e-002
2.532184e+003;1.435375e-002
2.534112e+003;1.448285e-002
2.536041e+003;1.451368e-002
2.537969e+003;1.464266e-002
2.539898e+003;1.479639e-002
2.541826e+003;1.495144e-002
2.543755e+003;1.510504e-002
2.545683e+003;1.553350e-002
2.547612e+003;1.599253e-002
2.549541e+003;1.611624e-002
2.551469e+003;1.611548e-002
2.553397e+003;1.633802e-002
2.555326e+003;1.680765e-002
2.557255e+003;1.719264e-002
2.559183e+003;1.729117e-002
2.561112e+003;1.744029e-002
2.563040e+003;1.788321e-002
2.564969e+003;1.799520e-002
2.566897e+003;1.824825e-002
2.568826e+003;1.904729e-002
2.570754e+003;1.940298e-002
2.572683e+003;1.937928e-002
2.574612e+003;1.977255e-002
2.576540e+003;2.047100e-002
2.578469e+003;2.090955e-002
2.580397e+003;2.143209e-002
2.582326e+003;2.186388e-002
2.584254e+003;2.150506e-002
2.586183e+003;2.089610e-002
2.588111e+003;2.048048e-002
2.590040e+003;1.994445e-002
2.591969e+003;1.977626e-002
2.593897e+003;1.966632e-002
2.595826e+003;1.954492e-002
2.597754e+003;1.968979e-002
2.599683e+003;1.977793e-002
2.601611e+003;1.963948e-002
2.603540e+003;1.971811e-002
2.605468e+003;1.984406e-002
2.607397e+003;1.983196e-002
2.609325e+003;2.002147e-002
2.611254e+003;2.064897e-002
2.613183e+003;2.102622e-002
2.615111e+003;2.104614e-002
2.617040e+003;2.122783e-002
2.618968e+003;2.118316e-002
2.620897e+003;2.085035e-002
2.622825e+003;2.090458e-002
2.624754e+003;2.085494e-002
2.626682e+003;2.041560e-002
2.628611e+003;2.037577e-002
2.630540e+003;2.047208e-002
2.632468e+003;2.035584e-002
2.634396e+003;2.047232e-002
2.636325e+003;2.061471e-002
2.638254e+003;2.047871e-002
2.640182e+003;2.034476e-002
2.642111e+003;2.064293e-002
2.644039e+003;2.134215e-002
2.645968e+003;2.151996e-002
2.647896e+003;2.162390e-002
2.649825e+003;2.196926e-002
2.651753e+003;2.210619e-002
2.653682e+003;2.233827e-002
2.655611e+003;2.296487e-002
2.657539e+003;2.349510e-002
2.659468e+003;2.372793e-002
2.661396e+003;2.380160e-002
2.663325e+003;2.387664e-002
2.665253e+003;2.404352e-002
2.667182e+003;2.405952e-002
2.669110e+003;2.394327e-002
2.671039e+003;2.387482e-002
2.672968e+003;2.405826e-002
2.674896e+003;2.441689e-002
2.676825e+003;2.480023e-002
2.678753e+003;2.483689e-002
2.680682e+003;2.467402e-002
2.682610e+003;2.453208e-002
2.684539e+003;2.461195e-002
2.686467e+003;2.471927e-002
2.688396e+003;2.461234e-002
2.690324e+003;2.474035e-002
2.692253e+003;2.465754e-002
2.694182e+003;2.454982e-002
2.696110e+003;2.487208e-002
2.698039e+003;2.535402e-002
2.699967e+003;2.560198e-002
2.701896e+003;2.607203e-002
2.703824e+003;2.671877e-002
2.705753e+003;2.742986e-002
2.707681e+003;2.803653e-002
2.709610e+003;2.860690e-002
2.711539e+003;2.923907e-002
2.713467e+003;3.021722e-002
2.715396e+003;3.147248e-002
2.717324e+003;3.322767e-002
2.719253e+003;3.468102e-002
2.721181e+003;3.547398e-002
2.723110e+003;3.606687e-002
2.725038e+003;3.593297e-002
2.726967e+003;3.499541e-002
2.728896e+003;3.373041e-002
2.730824e+003;3.262971e-002
2.732752e+003;3.154017e-002
2.734681e+003;3.052498e-002
2.736610e+003;2.994021e-002
2.738538e+003;2.932371e-002
2.740467e+003;2.863503e-002
2.742395e+003;2.804293e-002
2.744324e+003;2.750942e-002
2.746252e+003;2.690317e-002
2.748181e+003;2.641686e-002
2.750109e+003;2.637732e-002
2.752038e+003;2.655203e-002
2.753967e+003;2.661924e-002
2.755895e+003;2.670098e-002
2.757824e+003;2.675626e-002
2.759752e+003;2.703993e-002
2.761681e+003;2.761435e-002
2.763609e+003;2.835365e-002
2.765538e+003;2.883554e-002
2.767466e+003;2.904103e-002
2.769395e+003;2.904266e-002
2.771323e+003;2.916900e-002
2.773252e+003;2.984114e-002
2.775181e+003;3.017925e-002
2.777109e+003;3.045205e-002
2.779038e+003;3.129091e-002
2.780966e+003;3.252414e-002
2.782895e+003;3.376389e-002
2.784823e+003;3.469774e-002
2.786752e+003;3.570329e-002
2.788680e+003;3.724654e-002
2.790609e+003;3.910013e-002
2.792538e+003;4.048065e-002
2.794466e+003;4.170436e-002
2.796395e+003;4.333736e-002
2.798323e+003;4.480677e-002
2.800252e+003;4.617732e-002
2.802180e+003;4.784427e-002
2.804109e+003;4.997406e-002
2.806037e+003;5.249726e-002
2.807966e+003;5.463265e-002
2.809895e+003;5.629607e-002
2.811823e+003;5.819322e-002
2.813751e+003;6.028796e-002
2.815680e+003;6.237267e-002
2.817609e+003;6.449782e-002
2.819537e+003;6.708605e-002
2.821466e+003;7.052958e-002
2.823394e+003;7.486854e-002
2.825323e+003;8.024471e-002
2.827251e+003;8.691417e-002
2.829180e+003;9.573997e-002
2.831108e+003;1.061834e-001
2.833037e+003;1.168623e-001
2.834966e+003;1.254724e-001
2.836894e+003;1.303331e-001
2.838823e+003;1.314186e-001
2.840751e+003;1.294415e-001
2.842680e+003;1.255388e-001
2.844608e+003;1.204905e-001
2.846537e+003;1.148120e-001
2.848465e+003;1.099220e-001
2.850394e+003;1.065085e-001
2.852323e+003;1.044170e-001
2.854251e+003;1.038777e-001
2.856180e+003;1.047015e-001
2.858108e+003;1.073939e-001
2.860037e+003;1.129120e-001
2.861965e+003;1.207676e-001
2.863894e+003;1.289039e-001
2.865822e+003;1.354113e-001
2.867751e+003;1.392398e-001
2.869679e+003;1.411240e-001
2.871608e+003;1.417131e-001
2.873536e+003;1.419101e-001
2.875465e+003;1.416465e-001
2.877394e+003;1.407223e-001
2.879322e+003;1.395786e-001
2.881251e+003;1.383438e-001
2.883179e+003;1.376770e-001
2.885108e+003;1.377423e-001
2.887036e+003;1.386637e-001
2.888965e+003;1.403433e-001
2.890893e+003;1.424732e-001
2.892822e+003;1.452623e-001
2.894750e+003;1.488170e-001
2.896679e+003;1.530060e-001
2.898608e+003;1.577365e-001
2.900536e+003;1.627653e-001
2.902465e+003;1.673498e-001
2.904393e+003;1.721048e-001
2.906322e+003;1.768701e-001
2.908250e+003;1.811258e-001
2.910179e+003;1.849190e-001
2.912107e+003;1.873345e-001
2.914036e+003;1.890204e-001
2.915965e+003;1.902083e-001
2.917893e+003;1.897711e-001
2.919822e+003;1.877959e-001
2.921750e+003;1.846968e-001
2.923679e+003;1.806231e-001
2.925607e+003;1.751443e-001
2.927536e+003;1.686301e-001
2.929464e+003;1.613294e-001
2.931393e+003;1.534101e-001
2.933322e+003;1.455172e-001
2.935250e+003;1.385120e-001
2.937178e+003;1.331567e-001
2.939107e+003;1.299620e-001
2.941036e+003;1.300740e-001
2.942964e+003;1.336723e-001
2.944893e+003;1.400561e-001
2.946821e+003;1.478400e-001
2.948750e+003;1.545508e-001
2.950678e+003;1.587793e-001
2.952607e+003;1.603950e-001
2.954535e+003;1.591794e-001
2.956464e+003;1.556423e-001
2.958393e+003;1.503751e-001
2.960321e+003;1.451194e-001
2.962250e+003;1.398115e-001
2.964178e+003;1.333351e-001
2.966107e+003;1.266964e-001
2.968035e+003;1.198709e-001
2.969964e+003;1.129457e-001
2.971892e+003;1.069940e-001
2.973821e+003;1.015450e-001
2.975750e+003;9.604897e-002
2.977678e+003;9.061165e-002
2.979607e+003;8.564692e-002
2.981535e+003;8.171249e-002
2.983464e+003;7.771721e-002
2.985392e+003;7.352452e-002
2.987321e+003;7.002513e-002
2.989249e+003;6.689163e-002
2.991178e+003;6.406963e-002
2.993106e+003;6.103516e-002
2.995035e+003;5.797067e-002
2.996964e+003;5.505464e-002
2.998892e+003;5.239736e-002
3.000821e+003;4.989987e-002
3.002749e+003;4.744548e-002
3.004678e+003;4.552657e-002
3.006606e+003;4.369399e-002
3.008535e+003;4.186780e-002
3.010463e+003;4.000844e-002
3.012392e+003;3.812417e-002
3.014321e+003;3.671325e-002
3.016249e+003;3.564120e-002
3.018177e+003;3.418920e-002
3.020106e+003;3.316011e-002
3.022035e+003;3.231967e-002
3.023963e+003;3.109556e-002
3.025892e+003;3.005354e-002
3.027820e+003;2.946844e-002
3.029749e+003;2.889393e-002
3.031677e+003;2.830799e-002
3.033606e+003;2.783696e-002
3.035534e+003;2.722171e-002
3.037463e+003;2.655597e-002
3.039392e+003;2.631687e-002
3.041320e+003;2.619512e-002
3.043249e+003;2.574494e-002
3.045177e+003;2.531440e-002
3.047106e+003;2.537130e-002
3.049034e+003;2.521484e-002
3.050963e+003;2.475536e-002
3.052891e+003;2.476883e-002
3.054820e+003;2.466518e-002
3.056749e+003;2.415437e-002
3.058677e+003;2.398938e-002
3.060606e+003;2.381966e-002
3.062534e+003;2.361225e-002
3.064463e+003;2.367418e-002
3.066391e+003;2.355589e-002
3.068320e+003;2.350139e-002
3.070248e+003;2.363667e-002
3.072177e+003;2.353658e-002
3.074105e+003;2.308314e-002
3.076034e+003;2.281277e-002
3.077963e+003;2.246509e-002
3.079891e+003;2.223238e-002
3.081820e+003;2.236213e-002
3.083748e+003;2.290661e-002
3.085677e+003;2.320989e-002
3.087605e+003;2.288055e-002
3.089534e+003;2.243456e-002
3.091462e+003;2.240204e-002
3.093391e+003;2.263153e-002
3.095320e+003;2.256472e-002
3.097248e+003;2.238425e-002
3.099177e+003;2.208914e-002
3.101105e+003;2.192051e-002
3.103034e+003;2.203936e-002
3.104962e+003;2.226318e-002
3.106891e+003;2.250787e-002
3.108819e+003;2.252082e-002
3.110748e+003;2.244925e-002
3.112677e+003;2.265296e-002
3.114605e+003;2.273888e-002
3.116533e+003;2.255823e-002
3.118462e+003;2.221787e-002
3.120391e+003;2.222328e-002
3.122319e+003;2.255558e-002
3.124248e+003;2.286295e-002
3.126176e+003;2.272397e-002
3.128105e+003;2.273738e-002
3.130033e+003;2.326152e-002
3.131962e+003;2.299879e-002
3.133890e+003;2.281580e-002
3.135819e+003;2.331466e-002
3.137748e+003;2.347013e-002
3.139676e+003;2.363877e-002
3.141605e+003;2.400521e-002
3.143533e+003;2.401211e-002
3.145462e+003;2.374045e-002
3.147390e+003;2.366186e-002
3.149319e+003;2.388571e-002
3.151247e+003;2.422282e-002
3.153176e+003;2.413472e-002
3.155104e+003;2.409728e-002
3.157033e+003;2.405602e-002
3.158962e+003;2.375242e-002
3.160890e+003;2.368146e-002
3.162819e+003;2.388722e-002
3.164747e+003;2.439298e-002
3.166676e+003;2.467823e-002
3.168604e+003;2.442681e-002
3.170533e+003;2.410537e-002
3.172461e+003;2.410418e-002
3.174390e+003;2.434091e-002
3.176319e+003;2.461395e-002
3.178247e+003;2.461111e-002
3.180176e+003;2.433288e-002
3.182104e+003;2.430124e-002
3.184033e+003;2.427202e-002
3.185961e+003;2.422065e-002
3.187890e+003;2.454109e-002
3.189818e+003;2.512229e-002
3.191747e+003;2.508413e-002
3.193676e+003;2.518247e-002
3.195604e+003;2.548531e-002
3.197532e+003;2.551567e-002
3.199461e+003;2.531686e-002
3.201390e+003;2.508490e-002
3.203318e+003;2.516122e-002
3.205247e+003;2.509238e-002
3.207175e+003;2.489955e-002
3.209104e+003;2.520367e-002
3.211032e+003;2.491924e-002
3.212961e+003;2.463471e-002
3.214889e+003;2.483731e-002
3.216818e+003;2.500652e-002
3.218747e+003;2.496503e-002
3.220675e+003;2.504762e-002
3.222604e+003;2.488036e-002
3.224532e+003;2.466487e-002
3.226461e+003;2.473474e-002
3.228389e+003;2.490208e-002
3.230318e+003;2.456584e-002
3.232246e+003;2.441100e-002
3.234175e+003;2.470769e-002
3.236104e+003;2.425898e-002
3.238032e+003;2.407546e-002
3.239961e+003;2.448983e-002
3.241889e+003;2.446719e-002
3.243818e+003;2.435482e-002
3.245746e+003;2.453972e-002
3.247675e+003;2.438534e-002
3.249603e+003;2.416586e-002
3.251532e+003;2.420240e-002
3.253460e+003;2.389607e-002
3.255389e+003;2.373675e-002
3.257318e+003;2.375921e-002
3.259246e+003;2.388585e-002
3.261175e+003;2.446912e-002
3.263103e+003;2.457145e-002
3.265032e+003;2.458481e-002
3.266960e+003;2.485478e-002
3.268889e+003;2.472064e-002
3.270817e+003;2.419315e-002
3.272746e+003;2.409595e-002
3.274675e+003;2.455901e-002
3.276603e+003;2.474778e-002
3.278531e+003;2.464228e-002
3.280460e+003;2.461230e-002
3.282389e+003;2.450172e-002
3.284317e+003;2.433453e-002
3.286246e+003;2.435871e-002
3.288174e+003;2.430804e-002
3.290103e+003;2.373020e-002
3.292031e+003;2.330218e-002
3.293960e+003;2.337323e-002
3.295888e+003;2.381567e-002
3.297817e+003;2.477609e-002
3.299746e+003;2.494738e-002
3.301674e+003;2.395559e-002
3.303603e+003;2.377241e-002
3.305531e+003;2.444584e-002
3.307460e+003;2.431652e-002
3.309388e+003;2.402941e-002
3.311317e+003;2.417774e-002
3.313245e+003;2.452742e-002
3.315174e+003;2.453927e-002
3.317103e+003;2.426213e-002
3.319031e+003;2.429977e-002
3.320960e+003;2.401575e-002
3.322888e+003;2.355453e-002
3.324817e+003;2.380370e-002
3.326745e+003;2.398871e-002
3.328674e+003;2.383933e-002
3.330602e+003;2.351969e-002
3.332531e+003;2.337686e-002
3.334459e+003;2.337067e-002
3.336388e+003;2.346565e-002
3.338317e+003;2.351143e-002
3.340245e+003;2.346834e-002
3.342174e+003;2.311501e-002
3.344102e+003;2.269852e-002
3.346031e+003;2.298975e-002
3.347959e+003;2.346159e-002
3.349888e+003;2.351518e-002
3.351816e+003;2.372702e-002
3.353745e+003;2.384195e-002
3.355674e+003;2.354781e-002
3.357602e+003;2.313744e-002
3.359531e+003;2.281944e-002
3.361459e+003;2.288928e-002
3.363388e+003;2.297148e-002
3.365316e+003;2.291132e-002
3.367245e+003;2.265690e-002
3.369173e+003;2.226844e-002
3.371102e+003;2.250623e-002
3.373031e+003;2.267460e-002
3.374959e+003;2.263362e-002
3.376887e+003;2.256022e-002
3.378816e+003;2.229373e-002
3.380745e+003;2.224372e-002
3.382673e+003;2.195640e-002
3.384602e+003;2.144786e-002
3.386530e+003;2.183813e-002
3.388459e+003;2.201437e-002
3.390387e+003;2.189688e-002
3.392316e+003;2.197617e-002
3.394244e+003;2.162630e-002
3.396173e+003;2.124603e-002
3.398102e+003;2.111025e-002
3.400030e+003;2.072549e-002
3.401959e+003;2.052998e-002
3.403887e+003;2.108566e-002
3.405816e+003;2.134330e-002
3.407744e+003;2.120943e-002
3.409673e+003;2.128601e-002
3.411601e+003;2.173302e-002
3.413530e+003;2.139164e-002
3.415458e+003;2.051466e-002
3.417387e+003;2.055687e-002
3.419316e+003;2.097159e-002
3.421244e+003;2.070332e-002
3.423173e+003;2.071514e-002
3.425101e+003;2.060387e-002
3.427030e+003;2.036907e-002
3.428958e+003;2.032535e-002
3.430887e+003;2.010437e-002
3.432815e+003;1.945038e-002
3.434744e+003;1.931554e-002
3.436673e+003;1.936581e-002
3.438601e+003;1.928055e-002
3.440530e+003;1.900634e-002
3.442458e+003;1.915591e-002
3.444387e+003;1.923234e-002
3.446315e+003;1.872441e-002
3.448244e+003;1.826742e-002
3.450172e+003;1.819714e-002
3.452101e+003;1.793559e-002
3.454030e+003;1.773584e-002
3.455958e+003;1.752266e-002
3.457886e+003;1.746353e-002
3.459815e+003;1.701180e-002
3.461744e+003;1.680893e-002
3.463672e+003;1.721232e-002
3.465601e+003;1.741621e-002
3.467529e+003;1.740773e-002
3.469458e+003;1.700956e-002
3.471386e+003;1.656370e-002
3.473315e+003;1.637060e-002
3.475243e+003;1.646028e-002
3.477172e+003;1.641313e-002
3.479101e+003;1.598555e-002
3.481029e+003;1.607367e-002
3.482958e+003;1.633527e-002
3.484886e+003;1.620421e-002
3.486815e+003;1.573262e-002
3.488743e+003;1.551708e-002
3.490672e+003;1.570352e-002
3.492600e+003;1.517843e-002
3.494529e+003;1.476283e-002
3.496458e+003;1.491087e-002
3.498386e+003;1.473413e-002
3.500315e+003;1.439232e-002
3.502243e+003;1.424106e-002
3.504172e+003;1.425000e-002
3.506100e+003;1.439355e-002
3.508029e+003;1.434231e-002
3.509957e+003;1.397292e-002
3.511886e+003;1.370696e-002
3.513814e+003;1.352063e-002
3.515743e+003;1.320839e-002
3.517672e+003;1.309513e-002
3.519600e+003;1.337463e-002
3.521529e+003;1.362746e-002
3.523457e+003;1.378688e-002
3.525386e+003;1.357621e-002
3.527314e+003;1.284435e-002
3.529243e+003;1.248629e-002
3.531171e+003;1.260856e-002
3.533100e+003;1.272936e-002
3.535029e+003;1.263219e-002
3.536957e+003;1.239133e-002
3.538885e+003;1.202376e-002
3.540814e+003;1.201381e-002
3.542743e+003;1.192413e-002
3.544671e+003;1.171204e-002
3.546600e+003;1.155028e-002
3.548528e+003;1.136164e-002
3.550457e+003;1.096470e-002
3.552385e+003;1.060950e-002
3.554314e+003;1.076724e-002
3.556242e+003;1.132542e-002
3.558171e+003;1.124680e-002
3.560100e+003;1.037963e-002
3.562028e+003;9.816158e-003
3.563957e+003;9.649681e-003
3.565885e+003;9.187452e-003
3.567814e+003;8.998956e-003
3.569742e+003;9.210702e-003
3.571671e+003;9.316613e-003
3.573599e+003;9.363231e-003
3.575528e+003;9.102819e-003
3.577457e+003;8.628767e-003
3.579385e+003;8.256429e-003
3.581314e+003;8.175422e-003
3.583242e+003;7.994352e-003
3.585171e+003;7.727879e-003
3.587099e+003;7.402079e-003
3.589028e+003;7.250506e-003
3.590956e+003;7.586308e-003
3.592885e+003;7.722584e-003
3.594813e+003;7.480312e-003
3.596742e+003;7.334576e-003
3.598671e+003;7.348830e-003
3.600599e+003;7.218972e-003
3.602528e+003;7.069551e-003
3.604456e+003;6.889985e-003
3.606385e+003;6.597308e-003
3.608313e+003;6.568008e-003
3.610242e+003;6.830134e-003
3.612170e+003;7.028130e-003
3.614099e+003;7.196131e-003
3.616028e+003;6.755821e-003
3.617956e+003;6.053502e-003
3.619885e+003;5.486552e-003
3.621813e+003;5.378786e-003
3.623742e+003;5.659765e-003
3.625670e+003;5.408173e-003
3.627599e+003;4.756667e-003
3.629527e+003;4.924160e-003
3.631456e+003;5.493967e-003
3.633385e+003;5.803160e-003
3.635313e+003;6.011237e-003
3.637241e+003;6.096646e-003
3.639170e+003;5.387038e-003
3.641099e+003;4.849871e-003
3.643027e+003;5.325751e-003
3.644956e+003;5.425921e-003
3.646884e+003;4.362931e-003
3.648813e+003;3.718436e-003
3.650741e+003;4.132929e-003
3.652670e+003;4.920608e-003
3.654598e+003;4.919234e-003
3.656527e+003;4.665793e-003
3.658456e+003;4.981335e-003
3.660384e+003;5.009858e-003
3.662313e+003;4.586190e-003
3.664241e+003;4.267556e-003
3.666170e+003;4.284522e-003
3.668098e+003;3.893554e-003
3.670027e+003;3.864101e-003
3.671955e+003;4.511490e-003
3.673884e+003;4.579594e-003
3.675813e+003;4.749062e-003
3.677741e+003;5.487491e-003
3.679669e+003;5.387072e-003
3.681598e+003;4.901875e-003
3.683527e+003;4.811475e-003
3.685455e+003;4.932471e-003
3.687384e+003;4.501245e-003
3.689312e+003;4.476036e-003
3.691241e+003;5.298716e-003
3.693169e+003;5.484438e-003
3.695098e+003;5.245021e-003
3.697026e+003;5.132486e-003
3.698955e+003;4.963170e-003
3.700884e+003;4.988776e-003
3.702812e+003;5.445717e-003
3.704741e+003;5.431457e-003
3.706669e+003;5.011467e-003
3.708598e+003;4.805544e-003
3.710526e+003;4.731108e-003
3.712455e+003;4.840991e-003
3.714383e+003;5.343596e-003
3.716312e+003;5.520142e-003
3.718240e+003;5.126686e-003
3.720169e+003;4.492574e-003
3.722098e+003;4.425355e-003
3.724026e+003;4.871717e-003
3.725955e+003;4.976978e-003
3.727883e+003;4.756064e-003
3.729812e+003;4.970342e-003
3.731740e+003;5.087662e-003
3.733669e+003;4.674301e-003
3.735597e+003;4.752278e-003
3.737526e+003;5.441892e-003
3.739455e+003;5.773779e-003
3.741383e+003;5.704648e-003
3.743312e+003;4.901641e-003
3.745240e+003;4.515977e-003
3.747169e+003;4.594428e-003
3.749097e+003;4.236070e-003
3.751026e+003;3.885463e-003
3.752954e+003;4.126573e-003
3.754883e+003;4.859386e-003
3.756812e+003;5.011601e-003
3.758740e+003;5.029735e-003
3.760668e+003;5.570112e-003
3.762597e+003;6.468616e-003
3.764526e+003;6.584357e-003
3.766454e+003;6.221530e-003
3.768383e+003;5.471284e-003
3.770311e+003;5.321424e-003
3.772240e+003;5.938273e-003
3.774168e+003;5.777473e-003
3.776097e+003;5.590988e-003
3.778025e+003;5.189454e-003
3.779954e+003;4.851713e-003
3.781883e+003;5.409448e-003
3.783811e+003;5.923728e-003
3.785740e+003;5.923325e-003
3.787668e+003;5.696457e-003
3.789597e+003;5.819447e-003
3.791525e+003;6.054947e-003
3.793454e+003;5.950701e-003
3.795382e+003;6.127797e-003
3.797311e+003;6.339055e-003
3.799240e+003;5.716164e-003
3.801168e+003;5.019411e-003
3.803097e+003;5.403577e-003
3.805025e+003;5.495779e-003
3.806954e+003;5.424412e-003
3.808882e+003;5.929304e-003
3.810811e+003;6.242303e-003
3.812739e+003;5.842719e-003
3.814668e+003;4.670717e-003
3.816596e+003;4.650789e-003
3.818525e+003;5.400692e-003
3.820454e+003;5.272220e-003
3.822382e+003;5.585517e-003
3.824311e+003;6.333641e-003
3.826239e+003;6.495825e-003
3.828168e+003;6.014227e-003
3.830096e+003;5.727411e-003
3.832025e+003;5.993129e-003
3.833953e+003;6.107667e-003
3.835882e+003;6.281095e-003
3.837811e+003;6.299181e-003
3.839739e+003;6.373080e-003
3.841667e+003;6.185802e-003
3.843596e+003;5.950970e-003
3.845525e+003;5.923829e-003
3.847453e+003;5.893869e-003
3.849382e+003;6.108944e-003
3.851310e+003;5.623915e-003
3.853239e+003;5.225101e-003
3.855167e+003;6.059752e-003
3.857096e+003;6.571406e-003
3.859024e+003;6.086968e-003
3.860953e+003;6.110154e-003
3.862882e+003;6.331456e-003
3.864810e+003;6.137407e-003
3.866739e+003;6.380881e-003
3.868667e+003;6.438753e-003
3.870596e+003;6.443562e-003
3.872524e+003;6.533260e-003
3.874453e+003;6.348569e-003
3.876381e+003;6.700532e-003
3.878310e+003;6.912944e-003
3.880239e+003;6.855211e-003
3.882167e+003;6.996645e-003
3.884096e+003;7.188989e-003
3.886024e+003;6.990146e-003
3.887953e+003;6.493168e-003
3.889881e+003;6.548262e-003
3.891810e+003;6.750908e-003
3.893738e+003;6.744514e-003
3.895667e+003;6.984860e-003
3.897595e+003;6.927724e-003
3.899524e+003;6.532251e-003
3.901453e+003;6.355058e-003
3.903381e+003;6.327758e-003
3.905310e+003;6.582170e-003
3.907238e+003;6.771975e-003
3.909167e+003;6.534505e-003
3.911095e+003;6.207010e-003
3.913024e+003;6.366221e-003
3.914952e+003;6.792471e-003
3.916881e+003;6.936646e-003
3.918810e+003;6.710627e-003
3.920738e+003;6.917926e-003
3.922667e+003;7.306472e-003
3.924595e+003;7.264354e-003
3.926524e+003;7.036515e-003
3.928452e+003;7.382363e-003
3.930381e+003;7.512101e-003
3.932309e+003;7.301721e-003
3.934238e+003;7.358334e-003
3.936167e+003;7.682280e-003
3.938095e+003;7.620601e-003
3.940023e+003;7.272103e-003
3.941952e+003;7.332722e-003
3.943881e+003;7.408954e-003
3.945809e+003;7.070124e-003
3.947738e+003;6.572044e-003
3.949666e+003;6.655848e-003
3.951595e+003;7.188484e-003
3.953523e+003;7.181410e-003
3.955452e+003;7.057866e-003
3.957380e+003;6.717996e-003
3.959309e+003;6.752321e-003
3.961238e+003;7.474750e-003
3.963166e+003;7.869462e-003
3.965095e+003;8.086025e-003
3.967023e+003;8.011835e-003
3.968952e+003;7.458165e-003
3.970880e+003;6.966577e-003
3.972809e+003;7.101715e-003
3.974737e+003;7.716378e-003
3.976666e+003;8.202468e-003
3.978594e+003;7.845677e-003
3.980523e+003;7.226957e-003
3.982452e+003;7.112560e-003
3.984380e+003;7.379127e-003
3.986309e+003;7.612946e-003
3.988237e+003;8.023276e-003
3.990166e+003;8.390483e-003
3.992094e+003;8.453014e-003
3.994023e+003;8.879459e-003
3.995951e+003;8.968648e-003
3.997880e+003;8.461123e-003
3.999809e+003;8.425683e-003
4.001737e+003;0.000000e+000
