3.992094e+002;0.000000e+000
4.011380e+002;0.000000e+000
4.030665e+002;0.000000e+000
4.049951e+002;0.000000e+000
4.069236e+002;0.000000e+000
4.088522e+002;0.000000e+000
4.107807e+002;0.000000e+000
4.127093e+002;0.000000e+000
4.146378e+002;0.000000e+000
4.165664e+002;0.000000e+000
4.184949e+002;0.000000e+000
4.204235e+002;0.000000e+000
4.223520e+002;0.000000e+000
4.242806e+002;0.000000e+000
4.262091e+002;0.000000e+000
4.281377e+002;0.000000e+000
4.300662e+002;0.000000e+000
4.319948e+002;0.000000e+000
4.339233e+002;0.000000e+000
4.358519e+002;0.000000e+000
4.377804e+002;0.000000e+000
4.397090e+002;0.000000e+000
4.416375e+002;0.000000e+000
4.435660e+002;0.000000e+000
4.454946e+002;0.000000e+000
4.474232e+002;0.000000e+000
4.493517e+002;0.000000e+000
4.512802e+002;0.000000e+000
4.532088e+002;0.000000e+000
4.551373e+002;0.000000e+000
4.570659e+002;0.000000e+000
4.589944e+002;0.000000e+000
4.609230e+002;0.000000e+000
4.628515e+002;0.000000e+000
4.647801e+002;0.000000e+000
4.667086e+002;0.000000e+000
4.686372e+002;0.000000e+000
4.705657e+002;0.000000e+000
4.724943e+002;0.000000e+000
4.744228e+002;0.000000e+000
4.763513e+002;0.000000e+000
4.782799e+002;0.000000e+000
4.802085e+002;0.000000e+000
4.821370e+002;0.000000e+000
4.840656e+002;0.000000e+000
4.859941e+002;0.000000e+000
4.879226e+002;0.000000e+000
4.898512e+002;0.000000e+000
4.917798e+002;0.000000e+000
4.937083e+002;0.000000e+000
4.956368e+002;0.000000e+000
4.975654e+002;0.000000e+000
4.994939e+002;0.000000e+000
5.014225e+002;0.000000e+000
5.033510e+002;0.000000e+000
5.052796e+002;0.000000e+000
5.072081e+002;0.000000e+000
5.091367e+002;0.000000e+000
5.110652e+002;0.000000e+000
5.129938e+002;0.000000e+000
5.149223e+002;0.000000e+000
5.168509e+002;0.000000e+000
5.187794e+002;0.000000e+000
5.207079e+002;0.000000e+000
5.226365e+002;0.000000e+000
5.245651e+002;0.000000e+000
5.264936e+002;0.000000e+000
5.284222e+002;0.000000e+000
5.303507e+002;0.000000e+000
5.322792e+002;0.000000e+000
5.342078e+002;0.000000e+000
5.361364e+002;0.000000e+000
5.380649e+002;0.000000e+000
5.399935e+002;0.000000e+000
5.419220e+002;0.000000e+000
5.438505e+002;0.000000e+000
5.457791e+002;0.000000e+000
5.477076e+002;0.000000e+000
5.496362e+002;0.000000e+000
5.515648e+002;0.000000e+000
5.534933e+002;0.000000e+000
5.554218e+002;0.000000e+000
5.573504e+002;0.000000e+000
5.592789e+002;0.000000e+000
5.612075e+002;0.000000e+000
5.631360e+002;0.000000e+000
5.650646e+002;0.000000e+000
5.669931e+002;0.000000e+000
5.689217e+002;0.000000e+000
5.708502e+002;0.000000e+000
5.727787e+002;0.000000e+000
5.747073e+002;0.000000e+000
5.766359e+002;0.000000e+000
5.785644e+002;0.000000e+000
5.804930e+002;0.000000e+000
5.824215e+002;0.000000e+000
5.843500e+002;0.000000e+000
5.862786e+002;0.000000e+000
5.882072e+002;0.000000e+000
5.901357e+002;0.000000e+000
5.920643e+002;0.000000e+000
5.939928e+002;0.000000e+000
5.959213e+002;0.000000e+000
5.978499e+002;0.000000e+000
5.997784e+002;2.791645e-002
6.017070e+002;2.955575e-002
6.036355e+002;3.219787e-002
6.055641e+002;2.926973e-002
6.074926e+002;2.511899e-002
6.094211e+002;2.536955e-002
6.113497e+002;2.661508e-002
6.132783e+002;2.658665e-002
6.152068e+002;2.819299e-002
6.171354e+002;3.160453e-002
6.190639e+002;3.587930e-002
6.209924e+002;3.516158e-002
6.229210e+002;3.155297e-002
6.248495e+002;3.242381e-002
6.267781e+002;3.390548e-002
6.287067e+002;2.805467e-002
6.306352e+002;2.606228e-002
6.325637e+002;2.821025e-002
6.344923e+002;2.817836e-002
6.364208e+002;2.905850e-002
6.383494e+002;3.156173e-002
6.402780e+002;2.761290e-002
6.422065e+002;2.615964e-002
6.441350e+002;2.784756e-002
6.460636e+002;2.783654e-002
6.479921e+002;2.652543e-002
6.499207e+002;3.023054e-002
6.518492e+002;3.191656e-002
6.537778e+002;3.002144e-002
6.557063e+002;2.995057e-002
6.576349e+002;3.222563e-002
6.595634e+002;3.411980e-002
6.614919e+002;3.591198e-002
6.634205e+002;3.542329e-002
6.653491e+002;3.058122e-002
6.672776e+002;2.648564e-002
6.692062e+002;2.913630e-002
6.711347e+002;3.218145e-002
6.730632e+002;3.244433e-002
6.749918e+002;3.110528e-002
6.769203e+002;2.979156e-002
6.788489e+002;2.813434e-002
6.807775e+002;2.743078e-002
6.827060e+002;2.745033e-002
6.846345e+002;2.782679e-002
6.865631e+002;2.895063e-002
6.884916e+002;2.955990e-002
6.904202e+002;2.897373e-002
6.923488e+002;2.949613e-002
6.942773e+002;3.121268e-002
6.962058e+002;3.183797e-002
6.981344e+002;3.181137e-002
7.000629e+002;3.178228e-002
7.019915e+002;3.184588e-002
7.039200e+002;3.340140e-002
7.058486e+002;3.622244e-002
7.077771e+002;4.057271e-002
7.097057e+002;4.941854e-002
7.116342e+002;6.302112e-002
7.135627e+002;6.917317e-002
7.154913e+002;6.167594e-002
7.174199e+002;4.997194e-002
7.193484e+002;4.274328e-002
7.212770e+002;3.820608e-002
7.232055e+002;3.620760e-002
7.251340e+002;3.513299e-002
7.270626e+002;3.413966e-002
7.289911e+002;3.334429e-002
7.309197e+002;3.336011e-002
7.328483e+002;3.264607e-002
7.347768e+002;3.066463e-002
7.367053e+002;2.980033e-002
7.386339e+002;3.033602e-002
7.405624e+002;3.113999e-002
7.424910e+002;3.225154e-002
7.444196e+002;3.172342e-002
7.463481e+002;3.133282e-002
7.482766e+002;3.147633e-002
7.502052e+002;3.209889e-002
7.521337e+002;3.291913e-002
7.540623e+002;3.338108e-002
7.559908e+002;3.354395e-002
7.579194e+002;3.377503e-002
7.598479e+002;3.487842e-002
7.617765e+002;3.520984e-002
7.637050e+002;3.466013e-002
7.656335e+002;3.460233e-002
7.675621e+002;3.445265e-002
7.694907e+002;3.353600e-002
7.714192e+002;3.260525e-002
7.733478e+002;3.267694e-002
7.752763e+002;3.185968e-002
7.772048e+002;3.169066e-002
7.791334e+002;3.288354e-002
7.810620e+002;3.311005e-002
7.829905e+002;3.322614e-002
7.849191e+002;3.489630e-002
7.868476e+002;3.655499e-002
7.887761e+002;3.728289e-002
7.907047e+002;3.729802e-002
7.926332e+002;3.703829e-002
7.945618e+002;3.768257e-002
7.964903e+002;3.937206e-002
7.984189e+002;4.220197e-002
8.003474e+002;4.435876e-002
8.022759e+002;4.593925e-002
8.042045e+002;4.894302e-002
8.061331e+002;5.316659e-002
8.080616e+002;5.747892e-002
8.099902e+002;5.923293e-002
8.119187e+002;5.824539e-002
8.138472e+002;5.445224e-002
8.157758e+002;4.978013e-002
8.177043e+002;4.723339e-002
8.196329e+002;4.623857e-002
8.215615e+002;4.534873e-002
8.234900e+002;4.406404e-002
8.254185e+002;4.361416e-002
8.273471e+002;4.498042e-002
8.292756e+002;4.601730e-002
8.312042e+002;4.596094e-002
8.331328e+002;4.716207e-002
8.350613e+002;5.015351e-002
8.369898e+002;5.526588e-002
8.389184e+002;6.374219e-002
8.408469e+002;7.122423e-002
8.427755e+002;7.056127e-002
8.447040e+002;6.580194e-002
8.466326e+002;6.438879e-002
8.485611e+002;6.095986e-002
8.504897e+002;5.425885e-002
8.524182e+002;5.031807e-002
8.543467e+002;4.929912e-002
8.562753e+002;4.876104e-002
8.582039e+002;4.919023e-002
8.601324e+002;5.243100e-002
8.620610e+002;5.742355e-002
8.639895e+002;6.274226e-002
8.659180e+002;6.958212e-002
8.678466e+002;7.967360e-002
8.697751e+002;9.303604e-002
8.717037e+002;1.093891e-001
8.736323e+002;1.250147e-001
8.755608e+002;1.317344e-001
8.774893e+002;1.222455e-001
8.794179e+002;1.017960e-001
8.813464e+002;8.393532e-002
8.832750e+002;7.098366e-002
8.852036e+002;5.912992e-002
8.871321e+002;5.014908e-002
8.890606e+002;4.594345e-002
8.909892e+002;4.549158e-002
8.929177e+002;4.745413e-002
8.948463e+002;5.120592e-002
8.967748e+002;5.571113e-002
8.987034e+002;5.921201e-002
9.006319e+002;5.925253e-002
9.025605e+002;5.539659e-002
9.044890e+002;4.971061e-002
9.064175e+002;4.509035e-002
9.083461e+002;4.228150e-002
9.102747e+002;4.058894e-002
9.122032e+002;3.982305e-002
9.141318e+002;3.894114e-002
9.160603e+002;3.800030e-002
9.179888e+002;3.763574e-002
9.199174e+002;3.746833e-002
9.218459e+002;3.722737e-002
9.237745e+002;3.728499e-002
9.257031e+002;3.763422e-002
9.276316e+002;3.792591e-002
9.295601e+002;3.784175e-002
9.314887e+002;3.822320e-002
9.334172e+002;3.921663e-002
9.353458e+002;4.021021e-002
9.372744e+002;4.155857e-002
9.392029e+002;4.304999e-002
9.411314e+002;4.424550e-002
9.430600e+002;4.435194e-002
9.449885e+002;4.348936e-002
9.469171e+002;4.293318e-002
9.488456e+002;4.290187e-002
9.507742e+002;4.291438e-002
9.527027e+002;4.349877e-002
9.546313e+002;4.422235e-002
9.565598e+002;4.458921e-002
9.584883e+002;4.538173e-002
9.604169e+002;4.702779e-002
9.623455e+002;4.962365e-002
9.642740e+002;5.314255e-002
9.662026e+002;5.789763e-002
9.681311e+002;6.474025e-002
9.700596e+002;7.392631e-002
9.719882e+002;8.169737e-002
9.739167e+002;8.329021e-002
9.758453e+002;7.835388e-002
9.777739e+002;6.967201e-002
9.797024e+002;6.052161e-002
9.816309e+002;5.278665e-002
9.835595e+002;4.741563e-002
9.854880e+002;4.481383e-002
9.874166e+002;4.450631e-002
9.893452e+002;4.627347e-002
9.912737e+002;5.073655e-002
9.932022e+002;5.734671e-002
9.951307e+002;6.457575e-002
9.970593e+002;7.082442e-002
9.989879e+002;7.182652e-002
1.000916e+003;6.615644e-002
1.002845e+003;5.821414e-002
1.004773e+003;5.208073e-002
1.006702e+003;4.824876e-002
1.008631e+003;4.576183e-002
1.010559e+003;4.390106e-002
1.012488e+003;4.267861e-002
1.014416e+003;4.181343e-002
1.016345e+003;4.082551e-002
1.018273e+003;4.002585e-002
1.020202e+003;3.960347e-002
1.022130e+003;3.901903e-002
1.024059e+003;3.866358e-002
1.025988e+003;3.913526e-002
1.027916e+003;4.046857e-002
1.029845e+003;4.179698e-002
1.031773e+003;4.337376e-002
1.033702e+003;4.556793e-002
1.035630e+003;4.754772e-002
1.037559e+003;4.841063e-002
1.039487e+003;4.793399e-002
1.041416e+003;4.697422e-002
1.043344e+003;4.609813e-002
1.045273e+003;4.493213e-002
1.047202e+003;4.340868e-002
1.049130e+003;4.106086e-002
1.051059e+003;3.895473e-002
1.052987e+003;3.799549e-002
1.054916e+003;3.740978e-002
1.056844e+003;3.647095e-002
1.058773e+003;3.577610e-002
1.060701e+003;3.547485e-002
1.062630e+003;3.536606e-002
1.064558e+003;3.538817e-002
1.066487e+003;3.562804e-002
1.068416e+003;3.566832e-002
1.070344e+003;3.518584e-002
1.072273e+003;3.518857e-002
1.074201e+003;3.552371e-002
1.076130e+003;3.558779e-002
1.078058e+003;3.596075e-002
1.079987e+003;3.695891e-002
1.081915e+003;3.784446e-002
1.083844e+003;3.833396e-002
1.085773e+003;3.941676e-002
1.087701e+003;4.096993e-002
1.089630e+003;4.189844e-002
1.091558e+003;4.274196e-002
1.093487e+003;4.418639e-002
1.095415e+003;4.563940e-002
1.097344e+003;4.730359e-002
1.099272e+003;4.989388e-002
1.101201e+003;5.236667e-002
1.103129e+003;5.309361e-002
1.105058e+003;5.257904e-002
1.106987e+003;5.129592e-002
1.108915e+003;4.944390e-002
1.110844e+003;4.708732e-002
1.112772e+003;4.423101e-002
1.114701e+003;4.188224e-002
1.116629e+003;4.035661e-002
1.118558e+003;3.927553e-002
1.120486e+003;3.842543e-002
1.122415e+003;3.750141e-002
1.124344e+003;3.682800e-002
1.126272e+003;3.668506e-002
1.128201e+003;3.677369e-002
1.130129e+003;3.717358e-002
1.132058e+003;3.813807e-002
1.133986e+003;3.996133e-002
1.135915e+003;4.176229e-002
1.137843e+003;4.376794e-002
1.139772e+003;4.620378e-002
1.141700e+003;4.895807e-002
1.143629e+003;5.190568e-002
1.145557e+003;5.474798e-002
1.147486e+003;5.801827e-002
1.149415e+003;6.181608e-002
1.151343e+003;6.551334e-002
1.153272e+003;6.771471e-002
1.155200e+003;6.842179e-002
1.157129e+003;6.857041e-002
1.159057e+003;6.932147e-002
1.160986e+003;7.051329e-002
1.162914e+003;7.182045e-002
1.164843e+003;7.320678e-002
1.166771e+003;7.450954e-002
1.168700e+003;7.391060e-002
1.170629e+003;7.023861e-002
1.172557e+003;6.477209e-002
1.174486e+003;5.932021e-002
1.176414e+003;5.457753e-002
1.178343e+003;5.156937e-002
1.180271e+003;5.001581e-002
1.182200e+003;4.916864e-002
1.184128e+003;4.898845e-002
1.186057e+003;4.936728e-002
1.187986e+003;5.030036e-002
1.189914e+003;5.104330e-002
1.191843e+003;5.088357e-002
1.193771e+003;5.048570e-002
1.195700e+003;5.065527e-002
1.197628e+003;5.136875e-002
1.199557e+003;5.159844e-002
1.201485e+003;5.132669e-002
1.203414e+003;5.121200e-002
1.205343e+003;5.131688e-002
1.207271e+003;5.173014e-002
1.209200e+003;5.334136e-002
1.211128e+003;5.569041e-002
1.213057e+003;5.809075e-002
1.214985e+003;5.950287e-002
1.216914e+003;5.845994e-002
1.218842e+003;5.664331e-002
1.220771e+003;5.533807e-002
1.222699e+003;5.431153e-002
1.224628e+003;5.376086e-002
1.226557e+003;5.395475e-002
1.228485e+003;5.408398e-002
1.230414e+003;5.408791e-002
1.232342e+003;5.448924e-002
1.234271e+003;5.476783e-002
1.236199e+003;5.480948e-002
1.238128e+003;5.477493e-002
1.240056e+003;5.501157e-002
1.241985e+003;5.579616e-002
1.243913e+003;5.620250e-002
1.245842e+003;5.687977e-002
1.247771e+003;5.818849e-002
1.249699e+003;6.001328e-002
1.251628e+003;6.254081e-002
1.253556e+003;6.644512e-002
1.255485e+003;6.997035e-002
1.257413e+003;7.005616e-002
1.259342e+003;6.682967e-002
1.261270e+003;6.360880e-002
1.263199e+003;6.180859e-002
1.265127e+003;6.107944e-002
1.267056e+003;6.074803e-002
1.268985e+003;5.972629e-002
1.270913e+003;5.835650e-002
1.272842e+003;5.710071e-002
1.274770e+003;5.632957e-002
1.276699e+003;5.605605e-002
1.278627e+003;5.592918e-002
1.280556e+003;5.575038e-002
1.282484e+003;5.574341e-002
1.284413e+003;5.659141e-002
1.286342e+003;5.812219e-002
1.288270e+003;5.954357e-002
1.290199e+003;6.081355e-002
1.292127e+003;6.221716e-002
1.294056e+003;6.374039e-002
1.295984e+003;6.459089e-002
1.297913e+003;6.474656e-002
1.299841e+003;6.493428e-002
1.301770e+003;6.575109e-002
1.303698e+003;6.709181e-002
1.305627e+003;6.664217e-002
1.307556e+003;6.403051e-002
1.309484e+003;6.167414e-002
1.311413e+003;6.083573e-002
1.313341e+003;6.106487e-002
1.315270e+003;6.190671e-002
1.317198e+003;6.293130e-002
1.319127e+003;6.401518e-002
1.321055e+003;6.522085e-002
1.322984e+003;6.695212e-002
1.324912e+003;6.921137e-002
1.326841e+003;7.094410e-002
1.328770e+003;7.191323e-002
1.330698e+003;7.220890e-002
1.332627e+003;7.197799e-002
1.334555e+003;7.163516e-002
1.336484e+003;7.130646e-002
1.338412e+003;7.126249e-002
1.340341e+003;7.188320e-002
1.342269e+003;7.359713e-002
1.344198e+003;7.608356e-002
1.346126e+003;7.872979e-002
1.348055e+003;8.167614e-002
1.349984e+003;8.557792e-002
1.351912e+003;9.072931e-002
1.353841e+003;9.753881e-002
1.355769e+003;1.051120e-001
1.357698e+003;1.110369e-001
1.359626e+003;1.133328e-001
1.361555e+003;1.122876e-001
1.363483e+003;1.118848e-001
1.365412e+003;1.150278e-001
1.367341e+003;1.235130e-001
1.369269e+003;1.402183e-001
1.371198e+003;1.649902e-001
1.373126e+003;1.928975e-001
1.375055e+003;2.139264e-001
1.376983e+003;2.135700e-001
1.378912e+003;1.907987e-001
1.380840e+003;1.612657e-001
1.382769e+003;1.359646e-001
1.384698e+003;1.179149e-001
1.386626e+003;1.072003e-001
1.388555e+003;1.031243e-001
1.390483e+003;1.029187e-001
1.392412e+003;1.032414e-001
1.394340e+003;1.040517e-001
1.396269e+003;1.063778e-001
1.398197e+003;1.086767e-001
1.400126e+003;1.113226e-001
1.402054e+003;1.137980e-001
1.403983e+003;1.154262e-001
1.405911e+003;1.173729e-001
1.407840e+003;1.195285e-001
1.409769e+003;1.215998e-001
1.411697e+003;1.240160e-001
1.413626e+003;1.267834e-001
1.415554e+003;1.292478e-001
1.417483e+003;1.306021e-001
1.419411e+003;1.327242e-001
1.421340e+003;1.366866e-001
1.423268e+003;1.397520e-001
1.425197e+003;1.425478e-001
1.427125e+003;1.452164e-001
1.429054e+003;1.481655e-001
1.430983e+003;1.529279e-001
1.432911e+003;1.582193e-001
1.434840e+003;1.598549e-001
1.436768e+003;1.585931e-001
1.438697e+003;1.597311e-001
1.440625e+003;1.620251e-001
1.442554e+003;1.652676e-001
1.444482e+003;1.705014e-001
1.446411e+003;1.771232e-001
1.448340e+003;1.832347e-001
1.450268e+003;1.877104e-001
1.452197e+003;1.894704e-001
1.454125e+003;1.873084e-001
1.456054e+003;1.819122e-001
1.457982e+003;1.795570e-001
1.459911e+003;1.787976e-001
1.461839e+003;1.742112e-001
1.463768e+003;1.653397e-001
1.465697e+003;1.555892e-001
1.467625e+003;1.465790e-001
1.469554e+003;1.366541e-001
1.471482e+003;1.259430e-001
1.473411e+003;1.180091e-001
1.475339e+003;1.137304e-001
1.477268e+003;1.103233e-001
1.479196e+003;1.070675e-001
1.481125e+003;1.032059e-001
1.483053e+003;9.994461e-002
1.484982e+003;9.679957e-002
1.486911e+003;9.329584e-002
1.488839e+003;9.008729e-002
1.490768e+003;8.811929e-002
1.492696e+003;8.698452e-002
1.494625e+003;8.413644e-002
1.496553e+003;8.115391e-002
1.498482e+003;8.012901e-002
1.500410e+003;7.916935e-002
1.502339e+003;7.725777e-002
1.504267e+003;7.232986e-002
1.506196e+003;6.685359e-002
1.508125e+003;6.672712e-002
1.510053e+003;6.776150e-002
1.511982e+003;6.681885e-002
1.513910e+003;6.544685e-002
1.515839e+003;6.294249e-002
1.517767e+003;6.060622e-002
1.519696e+003;5.752824e-002
1.521624e+003;5.520109e-002
1.523553e+003;5.582683e-002
1.525481e+003;5.545690e-002
1.527410e+003;5.479779e-002
1.529339e+003;5.420926e-002
1.531267e+003;5.254404e-002
1.533196e+003;5.045727e-002
1.535124e+003;5.033470e-002
1.537053e+003;4.778401e-002
1.538981e+003;4.238429e-002
1.540910e+003;4.166410e-002
1.542838e+003;4.391396e-002
1.544767e+003;4.559619e-002
1.546695e+003;4.732243e-002
1.548624e+003;4.764371e-002
1.550553e+003;4.726550e-002
1.552481e+003;4.623238e-002
1.554410e+003;4.460981e-002
1.556338e+003;4.163314e-002
1.558267e+003;3.634664e-002
1.560195e+003;3.721156e-002
1.562124e+003;4.165458e-002
1.564052e+003;4.263306e-002
1.565981e+003;4.226248e-002
1.567910e+003;4.061823e-002
1.569838e+003;3.921388e-002
1.571767e+003;4.007396e-002
1.573695e+003;3.900446e-002
1.575624e+003;3.617234e-002
1.577552e+003;3.725971e-002
1.579481e+003;3.929381e-002
1.581409e+003;3.954964e-002
1.583338e+003;3.943142e-002
1.585266e+003;3.901200e-002
1.587195e+003;3.861063e-002
1.589124e+003;3.795600e-002
1.591052e+003;3.720083e-002
1.592981e+003;3.656743e-002
1.594909e+003;3.629948e-002
1.596838e+003;3.635496e-002
1.598766e+003;3.650616e-002
1.600695e+003;3.654202e-002
1.602623e+003;3.649996e-002
1.604552e+003;3.654699e-002
1.606480e+003;3.617025e-002
1.608409e+003;3.542124e-002
1.610338e+003;3.541675e-002
1.612266e+003;3.584684e-002
1.614195e+003;3.508395e-002
1.616123e+003;3.335929e-002
1.618052e+003;3.499379e-002
1.619980e+003;3.649953e-002
1.621909e+003;3.479236e-002
1.623837e+003;3.344209e-002
1.625766e+003;3.320103e-002
1.627694e+003;3.272006e-002
1.629623e+003;3.286963e-002
1.631552e+003;3.263807e-002
1.633480e+003;3.010172e-002
1.635409e+003;2.751267e-002
1.637337e+003;2.929237e-002
1.639266e+003;3.129835e-002
1.641194e+003;3.146351e-002
1.643123e+003;3.050085e-002
1.645051e+003;2.799144e-002
1.646980e+003;2.716516e-002
1.648909e+003;2.872334e-002
1.650837e+003;2.577310e-002
1.652766e+003;2.084826e-002
1.654694e+003;2.471664e-002
1.656623e+003;2.941500e-002
1.658551e+003;3.004423e-002
1.660480e+003;2.929982e-002
1.662408e+003;2.856673e-002
1.664337e+003;2.930187e-002
1.666266e+003;2.944149e-002
1.668194e+003;2.756026e-002
1.670123e+003;2.689583e-002
1.672051e+003;2.769645e-002
1.673980e+003;2.689562e-002
1.675908e+003;2.705481e-002
1.677837e+003;2.878806e-002
1.679765e+003;2.866802e-002
1.681694e+003;2.678660e-002
1.683622e+003;2.315132e-002
1.685551e+003;2.430902e-002
1.687479e+003;2.748577e-002
1.689408e+003;2.796285e-002
1.691337e+003;2.828101e-002
1.693265e+003;2.687158e-002
1.695194e+003;2.352042e-002
1.697122e+003;2.385802e-002
1.699051e+003;2.297927e-002
1.700979e+003;2.299093e-002
1.702908e+003;2.606197e-002
1.704836e+003;2.619248e-002
1.706765e+003;2.669527e-002
1.708693e+003;2.751401e-002
1.710622e+003;2.760866e-002
1.712551e+003;2.675105e-002
1.714479e+003;2.497595e-002
1.716408e+003;2.257470e-002
1.718336e+003;2.327267e-002
1.720265e+003;2.617650e-002
1.722193e+003;2.688949e-002
1.724122e+003;2.696225e-002
1.726050e+003;2.740392e-002
1.727979e+003;2.695908e-002
1.729908e+003;2.621507e-002
1.731836e+003;2.410116e-002
1.733765e+003;2.156024e-002
1.735693e+003;2.376796e-002
1.737622e+003;2.546806e-002
1.739550e+003;2.460483e-002
1.741479e+003;2.495928e-002
1.743407e+003;2.494450e-002
1.745336e+003;2.479069e-002
1.747265e+003;2.419115e-002
1.749193e+003;2.299310e-002
1.751122e+003;2.261013e-002
1.753050e+003;2.404664e-002
1.754979e+003;2.406940e-002
1.756907e+003;2.355379e-002
1.758836e+003;2.387626e-002
1.760764e+003;2.326774e-002
1.762693e+003;2.308614e-002
1.764621e+003;2.363583e-002
1.766550e+003;2.281469e-002
1.768479e+003;2.208869e-002
1.770407e+003;2.131431e-002
1.772336e+003;2.037476e-002
1.774264e+003;2.172985e-002
1.776193e+003;2.295649e-002
1.778121e+003;2.296665e-002
1.780050e+003;2.269744e-002
1.781978e+003;2.333081e-002
1.783907e+003;2.402643e-002
1.785835e+003;2.497205e-002
1.787764e+003;2.691064e-002
1.789693e+003;2.897061e-002
1.791621e+003;3.110112e-002
1.793550e+003;3.466182e-002
1.795478e+003;3.764568e-002
1.797407e+003;3.798634e-002
1.799335e+003;3.676316e-002
1.801264e+003;3.451439e-002
1.803192e+003;3.173080e-002
1.805121e+003;2.877769e-002
1.807049e+003;2.615795e-002
1.808978e+003;2.388585e-002
1.810907e+003;2.281696e-002
1.812835e+003;2.262196e-002
1.814764e+003;2.222157e-002
1.816692e+003;2.181733e-002
1.818621e+003;2.153267e-002
1.820549e+003;2.114576e-002
1.822478e+003;2.081197e-002
1.824406e+003;2.037011e-002
1.826335e+003;2.062003e-002
1.828264e+003;2.036601e-002
1.830192e+003;2.005770e-002
1.832121e+003;2.081211e-002
1.834049e+003;2.107880e-002
1.835978e+003;2.087406e-002
1.837906e+003;2.084750e-002
1.839835e+003;2.088786e-002
1.841763e+003;1.993380e-002
1.843692e+003;1.834626e-002
1.845620e+003;1.894002e-002
1.847549e+003;2.004486e-002
1.849478e+003;2.023252e-002
1.851406e+003;2.010021e-002
1.853335e+003;1.990542e-002
1.855263e+003;1.965481e-002
1.857192e+003;1.943999e-002
1.859120e+003;1.938850e-002
1.861049e+003;1.925932e-002
1.862977e+003;1.928242e-002
1.864906e+003;1.929590e-002
1.866834e+003;1.854415e-002
1.868763e+003;1.792365e-002
1.870692e+003;1.871822e-002
1.872620e+003;1.931595e-002
1.874549e+003;1.894680e-002
1.876477e+003;1.877530e-002
1.878406e+003;1.892046e-002
1.880334e+003;1.910272e-002
1.882263e+003;1.904591e-002
1.884191e+003;1.903639e-002
1.886120e+003;1.899672e-002
1.888048e+003;1.878938e-002
1.889977e+003;1.886315e-002
1.891906e+003;1.925360e-002
1.893834e+003;1.925475e-002
1.895763e+003;1.911082e-002
1.897691e+003;1.907007e-002
1.899620e+003;1.908295e-002
1.901548e+003;1.912187e-002
1.903477e+003;1.927286e-002
1.905405e+003;1.919216e-002
1.907334e+003;1.874766e-002
1.909262e+003;1.832594e-002
1.911191e+003;1.837211e-002
1.913120e+003;1.871237e-002
1.915048e+003;1.865609e-002
1.916977e+003;1.788729e-002
1.918905e+003;1.786844e-002
1.920834e+003;1.811419e-002
1.922762e+003;1.812227e-002
1.924691e+003;1.837356e-002
1.926619e+003;1.838985e-002
1.928548e+003;1.822800e-002
1.930477e+003;1.814615e-002
1.932405e+003;1.800673e-002
1.934334e+003;1.785601e-002
1.936262e+003;1.776577e-002
1.938191e+003;1.770140e-002
1.940119e+003;1.753301e-002
1.942048e+003;1.732969e-002
1.943976e+003;1.752173e-002
1.945905e+003;1.770840e-002
1.947833e+003;1.769291e-002
1.949762e+003;1.776560e-002
1.951691e+003;1.780912e-002
1.953619e+003;1.780850e-002
1.955548e+003;1.784596e-002
1.957476e+003;1.782317e-002
1.959405e+003;1.771755e-002
1.961333e+003;1.768131e-002
1.963262e+003;1.744832e-002
1.965190e+003;1.720336e-002
1.967119e+003;1.718154e-002
1.969047e+003;1.720753e-002
1.970976e+003;1.722149e-002
1.972905e+003;1.751297e-002
1.974833e+003;1.746898e-002
1.976762e+003;1.743942e-002
1.978690e+003;1.752877e-002
1.980619e+003;1.762065e-002
1.982547e+003;1.759642e-002
1.984476e+003;1.740552e-002
1.986404e+003;1.726590e-002
1.988333e+003;1.732365e-002
1.990261e+003;1.705115e-002
1.992190e+003;1.691915e-002
1.994119e+003;1.744539e-002
1.996047e+003;1.776018e-002
1.997976e+003;1.755599e-002
1.999904e+003;1.744667e-002
2.001833e+003;1.751131e-002
2.003761e+003;1.737469e-002
2.005690e+003;1.701969e-002
2.007618e+003;1.707476e-002
2.009547e+003;1.738386e-002
2.011476e+003;1.739735e-002
2.013404e+003;1.708703e-002
2.015333e+003;1.708269e-002
2.017261e+003;1.719684e-002
2.019190e+003;1.736927e-002
2.021118e+003;1.734631e-002
2.023047e+003;1.702128e-002
2.024975e+003;1.687809e-002
2.026904e+003;1.696635e-002
2.028833e+003;1.691461e-002
2.030761e+003;1.687719e-002
2.032690e+003;1.728096e-002
2.034618e+003;1.754177e-002
2.036547e+003;1.735051e-002
2.038475e+003;1.725049e-002
2.040404e+003;1.710016e-002
2.042332e+003;1.717151e-002
2.044261e+003;1.739790e-002
2.046189e+003;1.744870e-002
2.048118e+003;1.735200e-002
2.050047e+003;1.725942e-002
2.051975e+003;1.714555e-002
2.053904e+003;1.731469e-002
2.055832e+003;1.733989e-002
2.057761e+003;1.706666e-002
2.059689e+003;1.717047e-002
2.061618e+003;1.718168e-002
2.063546e+003;1.683658e-002
2.065475e+003;1.679983e-002
2.067404e+003;1.707555e-002
2.069332e+003;1.708675e-002
2.071260e+003;1.701625e-002
2.073189e+003;1.702793e-002
2.075118e+003;1.701931e-002
2.077046e+003;1.710977e-002
2.078975e+003;1.716344e-002
2.080903e+003;1.719864e-002
2.082832e+003;1.716379e-002
2.084760e+003;1.733624e-002
2.086689e+003;1.754291e-002
2.088617e+003;1.720594e-002
2.090546e+003;1.696518e-002
2.092475e+003;1.720570e-002
2.094403e+003;1.749510e-002
2.096332e+003;1.753539e-002
2.098260e+003;1.745105e-002
2.100189e+003;1.759708e-002
2.102117e+003;1.772887e-002
2.104046e+003;1.773929e-002
2.105974e+003;1.774671e-002
2.107903e+003;1.762900e-002
2.109832e+003;1.749510e-002
2.111760e+003;1.747150e-002
2.113688e+003;1.744284e-002
2.115617e+003;1.760115e-002
2.117546e+003;1.774989e-002
2.119474e+003;1.796253e-002
2.121403e+003;1.823142e-002
2.123331e+003;1.819908e-002
2.125260e+003;1.838684e-002
2.127188e+003;1.890115e-002
2.129117e+003;1.933954e-002
2.131045e+003;1.949432e-002
2.132974e+003;1.959158e-002
2.134903e+003;1.972748e-002
2.136831e+003;1.969301e-002
2.138760e+003;1.943243e-002
2.140688e+003;1.920020e-002
2.142617e+003;1.920349e-002
2.144545e+003;1.908977e-002
2.146474e+003;1.906917e-002
2.148402e+003;1.898346e-002
2.150331e+003;1.888932e-002
2.152260e+003;1.888004e-002
2.154188e+003;1.881596e-002
2.156117e+003;1.901960e-002
2.158045e+003;1.909826e-002
2.159974e+003;1.914493e-002
2.161902e+003;1.940253e-002
2.163831e+003;1.964222e-002
2.165759e+003;1.971749e-002
2.167688e+003;1.963785e-002
2.169616e+003;1.980349e-002
2.171545e+003;2.005194e-002
2.173474e+003;1.974194e-002
2.175402e+003;1.930764e-002
2.177331e+003;1.934869e-002
2.179259e+003;1.954801e-002
2.181188e+003;1.968625e-002
2.183116e+003;1.964718e-002
2.185045e+003;1.951401e-002
2.186973e+003;1.941968e-002
2.188902e+003;1.927089e-002
2.190831e+003;1.929226e-002
2.192759e+003;1.947925e-002
2.194688e+003;1.954516e-002
2.196616e+003;1.952818e-002
2.198545e+003;1.923507e-002
2.200473e+003;1.877655e-002
2.202402e+003;1.874804e-002
2.204330e+003;1.881786e-002
2.206259e+003;1.878644e-002
2.208188e+003;1.888741e-002
2.210116e+003;1.876267e-002
2.212044e+003;1.850659e-002
2.213973e+003;1.853232e-002
2.215902e+003;1.870314e-002
2.217830e+003;1.900783e-002
2.219759e+003;1.887253e-002
2.221687e+003;1.847250e-002
2.223616e+003;1.836675e-002
2.225544e+003;1.842998e-002
2.227473e+003;1.863468e-002
2.229401e+003;1.872562e-002
2.231330e+003;1.879509e-002
2.233259e+003;1.881077e-002
2.235187e+003;1.854543e-002
2.237116e+003;1.829773e-002
2.239044e+003;1.823418e-002
2.240973e+003;1.820765e-002
2.242901e+003;1.822247e-002
2.244830e+003;1.830216e-002
2.246758e+003;1.839880e-002
2.248687e+003;1.862438e-002
2.250615e+003;1.902881e-002
2.252544e+003;1.924661e-002
2.254473e+003;1.944380e-002
2.256401e+003;1.974710e-002
2.258330e+003;1.953813e-002
2.260258e+003;1.923255e-002
2.262187e+003;1.923075e-002
2.264115e+003;1.893327e-002
2.266044e+003;1.871818e-002
2.267972e+003;1.878797e-002
2.269901e+003;1.861545e-002
2.271830e+003;1.840550e-002
2.273758e+003;1.841380e-002
2.275687e+003;1.829379e-002
2.277615e+003;1.808870e-002
2.279544e+003;1.811792e-002
2.281472e+003;1.792023e-002
2.283401e+003;1.753280e-002
2.285329e+003;1.767144e-002
2.287258e+003;1.779238e-002
2.289187e+003;1.755392e-002
2.291115e+003;1.756026e-002
2.293043e+003;1.760191e-002
2.294972e+003;1.757921e-002
2.296901e+003;1.770509e-002
2.298829e+003;1.780181e-002
2.300758e+003;1.762365e-002
2.302686e+003;1.729979e-002
2.304615e+003;1.723842e-002
2.306543e+003;1.732120e-002
2.308472e+003;1.686287e-002
2.310400e+003;1.633166e-002
2.312329e+003;1.617356e-002
2.314258e+003;1.579694e-002
2.316186e+003;1.537093e-002
2.318115e+003;1.500827e-002
2.320043e+003;1.433310e-002
2.321972e+003;1.375364e-002
2.323900e+003;1.359180e-002
2.325829e+003;1.327735e-002
2.327757e+003;1.268705e-002
2.329686e+003;1.203483e-002
2.331615e+003;1.171000e-002
2.333543e+003;1.174646e-002
2.335472e+003;1.147057e-002
2.337400e+003;1.153994e-002
2.339329e+003;1.217210e-002
2.341257e+003;1.281671e-002
2.343186e+003;1.376144e-002
2.345114e+003;1.493889e-002
2.347043e+003;1.631091e-002
2.348971e+003;1.709385e-002
2.350900e+003;1.641210e-002
2.352829e+003;1.472587e-002
2.354757e+003;1.291961e-002
2.356686e+003;1.164526e-002
2.358614e+003;1.083226e-002
2.360543e+003;1.035160e-002
2.362471e+003;1.009311e-002
2.364400e+003;1.039239e-002
2.366328e+003;1.138576e-002
2.368257e+003;1.265447e-002
2.370186e+003;1.377943e-002
2.372114e+003;1.530338e-002
2.374042e+003;1.664508e-002
2.375971e+003;1.765184e-002
2.377900e+003;1.854169e-002
2.379828e+003;1.913032e-002
2.381757e+003;1.961657e-002
2.383685e+003;1.968136e-002
2.385614e+003;1.967564e-002
2.387542e+003;1.984209e-002
2.389471e+003;2.004462e-002
2.391399e+003;2.013231e-002
2.393328e+003;2.012145e-002
2.395257e+003;2.006030e-002
2.397185e+003;2.024213e-002
2.399114e+003;2.045617e-002
2.401042e+003;2.055444e-002
2.402971e+003;2.046107e-002
2.404899e+003;2.027970e-002
2.406828e+003;2.021832e-002
2.408756e+003;2.029643e-002
2.410685e+003;2.041175e-002
2.412614e+003;2.061531e-002
2.414542e+003;2.068126e-002
2.416471e+003;2.068821e-002
2.418399e+003;2.093966e-002
2.420328e+003;2.100170e-002
2.422256e+003;2.100639e-002
2.424185e+003;2.130324e-002
2.426113e+003;2.134664e-002
2.428042e+003;2.122443e-002
2.429970e+003;2.132496e-002
2.431899e+003;2.136620e-002
2.433828e+003;2.121778e-002
2.435756e+003;2.105870e-002
2.437685e+003;2.080523e-002
2.439613e+003;2.054440e-002
2.441542e+003;2.036914e-002
2.443470e+003;2.009337e-002
2.445399e+003;2.024554e-002
2.447327e+003;2.021759e-002
2.449256e+003;2.006255e-002
2.451185e+003;2.024713e-002
2.453113e+003;2.076379e-002
2.455042e+003;2.069116e-002
2.456970e+003;2.026484e-002
2.458899e+003;2.026612e-002
2.460827e+003;2.033827e-002
2.462756e+003;2.022419e-002
2.464684e+003;2.026223e-002
2.466613e+003;2.034942e-002
2.468542e+003;2.026675e-002
2.470470e+003;2.031580e-002
2.472398e+003;2.066079e-002
2.474327e+003;2.097103e-002
2.476256e+003;2.116646e-002
2.478184e+003;2.168979e-002
2.480113e+003;2.237588e-002
2.482041e+003;2.255331e-002
2.483970e+003;2.280868e-002
2.485898e+003;2.316302e-002
2.487827e+003;2.348698e-002
2.489755e+003;2.401522e-002
2.491684e+003;2.456272e-002
2.493613e+003;2.500873e-002
2.495541e+003;2.562387e-002
2.497470e+003;2.636486e-002
2.499398e+003;2.737830e-002
2.501327e+003;2.873683e-002
2.503255e+003;2.991884e-002
2.505184e+003;3.087967e-002
2.507112e+003;3.169180e-002
2.509041e+003;3.234462e-002
2.510969e+003;3.304340e-002
2.512898e+003;3.337678e-002
2.514827e+003;3.346660e-002
2.516755e+003;3.352508e-002
2.518684e+003;3.370430e-002
2.520612e+003;3.388119e-002
2.522541e+003;3.380271e-002
2.524469e+003;3.349037e-002
2.526398e+003;3.298852e-002
2.528326e+003;3.235158e-002
2.530255e+003;3.194052e-002
2.532184e+003;3.132556e-002
2.534112e+003;3.035017e-002
2.536041e+003;2.942730e-002
2.537969e+003;2.865032e-002
2.539898e+003;2.819165e-002
2.541826e+003;2.808616e-002
2.543755e+003;2.810323e-002
2.545683e+003;2.833550e-002
2.547612e+003;2.891270e-002
2.549541e+003;2.918396e-002
2.551469e+003;2.888267e-002
2.553397e+003;2.907748e-002
2.555326e+003;2.931971e-002
2.557255e+003;2.922918e-002
2.559183e+003;2.957699e-002
2.561112e+003;2.982407e-002
2.563040e+003;2.980210e-002
2.564969e+003;2.991689e-002
2.566897e+003;3.052946e-002
2.568826e+003;3.114112e-002
2.570754e+003;3.149689e-002
2.572683e+003;3.209868e-002
2.574612e+003;3.301362e-002
2.576540e+003;3.366735e-002
2.578469e+003;3.385014e-002
2.580397e+003;3.414410e-002
2.582326e+003;3.445609e-002
2.584254e+003;3.423369e-002
2.586183e+003;3.366556e-002
2.588111e+003;3.295023e-002
2.590040e+003;3.232849e-002
2.591969e+003;3.185461e-002
2.593897e+003;3.148032e-002
2.595826e+003;3.119798e-002
2.597754e+003;3.106485e-002
2.599683e+003;3.116117e-002
2.601611e+003;3.124793e-002
2.603540e+003;3.110083e-002
2.605468e+003;3.121467e-002
2.607397e+003;3.182937e-002
2.609325e+003;3.241841e-002
2.611254e+003;3.291338e-002
2.613183e+003;3.305241e-002
2.615111e+003;3.271623e-002
2.617040e+003;3.259514e-002
2.618968e+003;3.241374e-002
2.620897e+003;3.210335e-002
2.622825e+003;3.186524e-002
2.624754e+003;3.157488e-002
2.626682e+003;3.113881e-002
2.628611e+003;3.069660e-002
2.630540e+003;3.045809e-002
2.632468e+003;3.054631e-002
2.634396e+003;3.043119e-002
2.636325e+003;3.006664e-002
2.638254e+003;2.978230e-002
2.640182e+003;2.986801e-002
2.642111e+003;3.035006e-002
2.644039e+003;3.084644e-002
2.645968e+003;3.122336e-002
2.647896e+003;3.161208e-002
2.649825e+003;3.196310e-002
2.651753e+003;3.210913e-002
2.653682e+003;3.242877e-002
2.655611e+003;3.300218e-002
2.657539e+003;3.332304e-002
2.659468e+003;3.362263e-002
2.661396e+003;3.348450e-002
2.663325e+003;3.335685e-002
2.665253e+003;3.359907e-002
2.667182e+003;3.374677e-002
2.669110e+003;3.369105e-002
2.671039e+003;3.372199e-002
2.672968e+003;3.415425e-002
2.674896e+003;3.467786e-002
2.676825e+003;3.489619e-002
2.678753e+003;3.479764e-002
2.680682e+003;3.464209e-002
2.682610e+003;3.458359e-002
2.684539e+003;3.465726e-002
2.686467e+003;3.484068e-002
2.688396e+003;3.489651e-002
2.690324e+003;3.489598e-002
2.692253e+003;3.478874e-002
2.694182e+003;3.449326e-002
2.696110e+003;3.421354e-002
2.698039e+003;3.439275e-002
2.699967e+003;3.498442e-002
2.701896e+003;3.576423e-002
2.703824e+003;3.647185e-002
2.705753e+003;3.694419e-002
2.707681e+003;3.755622e-002
2.709610e+003;3.848853e-002
2.711539e+003;3.975674e-002
2.713467e+003;4.131733e-002
2.715396e+003;4.309873e-002
2.717324e+003;4.492420e-002
2.719253e+003;4.664019e-002
2.721181e+003;4.791678e-002
2.723110e+003;4.857550e-002
2.725038e+003;4.826730e-002
2.726967e+003;4.705837e-002
2.728896e+003;4.545413e-002
2.730824e+003;4.397845e-002
2.732752e+003;4.303111e-002
2.734681e+003;4.199023e-002
2.736610e+003;4.056104e-002
2.738538e+003;3.957501e-002
2.740467e+003;3.903676e-002
2.742395e+003;3.812588e-002
2.744324e+003;3.713854e-002
2.746252e+003;3.668192e-002
2.748181e+003;3.632826e-002
2.750109e+003;3.623267e-002
2.752038e+003;3.640742e-002
2.753967e+003;3.668986e-002
2.755895e+003;3.661562e-002
2.757824e+003;3.649257e-002
2.759752e+003;3.690714e-002
2.761681e+003;3.740350e-002
2.763609e+003;3.768419e-002
2.765538e+003;3.816849e-002
2.767466e+003;3.885823e-002
2.769395e+003;3.929497e-002
2.771323e+003;3.956604e-002
2.773252e+003;4.028167e-002
2.775181e+003;4.117090e-002
2.777109e+003;4.176258e-002
2.779038e+003;4.252572e-002
2.780966e+003;4.371129e-002
2.782895e+003;4.475212e-002
2.784823e+003;4.603462e-002
2.786752e+003;4.774096e-002
2.788680e+003;4.959928e-002
2.790609e+003;5.142947e-002
2.792538e+003;5.311821e-002
2.794466e+003;5.413134e-002
2.796395e+003;5.506209e-002
2.798323e+003;5.666302e-002
2.800252e+003;5.839061e-002
2.802180e+003;6.012145e-002
2.804109e+003;6.220275e-002
2.806037e+003;6.461404e-002
2.807966e+003;6.655707e-002
2.809895e+003;6.813554e-002
2.811823e+003;7.004475e-002
2.813751e+003;7.233401e-002
2.815680e+003;7.421946e-002
2.817609e+003;7.609513e-002
2.819537e+003;7.870079e-002
2.821466e+003;8.177425e-002
2.823394e+003;8.535012e-002
2.825323e+003;8.978096e-002
2.827251e+003;9.528873e-002
2.829180e+003;1.028290e-001
2.831108e+003;1.123089e-001
2.833037e+003;1.220066e-001
2.834966e+003;1.298595e-001
2.836894e+003;1.343753e-001
2.838823e+003;1.351298e-001
2.840751e+003;1.320374e-001
2.842680e+003;1.267490e-001
2.844608e+003;1.204118e-001
2.846537e+003;1.144905e-001
2.848465e+003;1.101237e-001
2.850394e+003;1.069692e-001
2.852323e+003;1.048946e-001
2.854251e+003;1.040837e-001
2.856180e+003;1.053589e-001
2.858108e+003;1.091488e-001
2.860037e+003;1.155176e-001
2.861965e+003;1.238180e-001
2.863894e+003;1.320424e-001
2.865822e+003;1.384083e-001
2.867751e+003;1.419151e-001
2.869679e+003;1.431342e-001
2.871608e+003;1.438895e-001
2.873536e+003;1.440074e-001
2.875465e+003;1.430431e-001
2.877394e+003;1.419922e-001
2.879322e+003;1.407910e-001
2.881251e+003;1.395378e-001
2.883179e+003;1.386298e-001
2.885108e+003;1.382918e-001
2.887036e+003;1.389856e-001
2.888965e+003;1.404549e-001
2.890893e+003;1.425596e-001
2.892822e+003;1.446810e-001
2.894750e+003;1.479022e-001
2.896679e+003;1.522541e-001
2.898608e+003;1.575737e-001
2.900536e+003;1.632250e-001
2.902465e+003;1.690862e-001
2.904393e+003;1.747453e-001
2.906322e+003;1.800663e-001
2.908250e+003;1.849337e-001
2.910179e+003;1.893236e-001
2.912107e+003;1.930158e-001
2.914036e+003;1.961653e-001
2.915965e+003;1.987371e-001
2.917893e+003;1.994019e-001
2.919822e+003;1.975380e-001
2.921750e+003;1.926656e-001
2.923679e+003;1.864449e-001
2.925607e+003;1.794723e-001
2.927536e+003;1.706719e-001
2.929464e+003;1.607008e-001
2.931393e+003;1.514471e-001
2.933322e+003;1.426838e-001
2.935250e+003;1.347156e-001
2.937178e+003;1.293826e-001
2.939107e+003;1.278379e-001
2.941036e+003;1.296957e-001
2.942964e+003;1.353073e-001
2.944893e+003;1.439639e-001
2.946821e+003;1.539295e-001
2.948750e+003;1.628270e-001
2.950678e+003;1.681616e-001
2.952607e+003;1.688935e-001
2.954535e+003;1.654372e-001
2.956464e+003;1.603959e-001
2.958393e+003;1.544322e-001
2.960321e+003;1.485535e-001
2.962250e+003;1.426531e-001
2.964178e+003;1.356117e-001
2.966107e+003;1.275534e-001
2.968035e+003;1.191194e-001
2.969964e+003;1.114435e-001
2.971892e+003;1.045775e-001
2.973821e+003;9.836417e-002
2.975750e+003;9.269981e-002
2.977678e+003;8.797669e-002
2.979607e+003;8.383656e-002
2.981535e+003;7.978649e-002
2.983464e+003;7.650943e-002
2.985392e+003;7.378209e-002
2.987321e+003;7.087923e-002
2.989249e+003;6.798029e-002
2.991178e+003;6.546194e-002
2.993106e+003;6.330321e-002
2.995035e+003;6.087297e-002
2.996964e+003;5.850331e-002
2.998892e+003;5.606898e-002
3.000821e+003;5.369258e-002
3.002749e+003;5.165023e-002
3.004678e+003;4.994105e-002
3.006606e+003;4.821913e-002
3.008535e+003;4.644833e-002
3.010463e+003;4.467723e-002
3.012392e+003;4.309554e-002
3.014321e+003;4.181121e-002
3.016249e+003;4.044930e-002
3.018177e+003;3.932464e-002
3.020106e+003;3.849161e-002
3.022035e+003;3.745355e-002
3.023963e+003;3.650763e-002
3.025892e+003;3.550714e-002
3.027820e+003;3.468483e-002
3.029749e+003;3.392250e-002
3.031677e+003;3.323054e-002
3.033606e+003;3.280845e-002
3.035534e+003;3.210174e-002
3.037463e+003;3.171437e-002
3.039392e+003;3.164298e-002
3.041320e+003;3.159434e-002
3.043249e+003;3.131224e-002
3.045177e+003;3.082115e-002
3.047106e+003;3.031872e-002
3.049034e+003;2.999768e-002
3.050963e+003;2.968299e-002
3.052891e+003;2.934658e-002
3.054820e+003;2.887300e-002
3.056749e+003;2.832974e-002
3.058677e+003;2.795476e-002
3.060606e+003;2.781004e-002
3.062534e+003;2.794592e-002
3.064463e+003;2.789935e-002
3.066391e+003;2.749304e-002
3.068320e+003;2.733405e-002
3.070248e+003;2.718061e-002
3.072177e+003;2.734714e-002
3.074105e+003;2.731266e-002
3.076034e+003;2.674985e-002
3.077963e+003;2.659771e-002
3.079891e+003;2.643281e-002
3.081820e+003;2.615289e-002
3.083748e+003;2.619554e-002
3.085677e+003;2.626372e-002
3.087605e+003;2.607417e-002
3.089534e+003;2.588809e-002
3.091462e+003;2.588587e-002
3.093391e+003;2.622676e-002
3.095320e+003;2.631434e-002
3.097248e+003;2.595808e-002
3.099177e+003;2.563547e-002
3.101105e+003;2.561087e-002
3.103034e+003;2.562721e-002
3.104962e+003;2.558377e-002
3.106891e+003;2.545235e-002
3.108819e+003;2.567452e-002
3.110748e+003;2.585183e-002
3.112677e+003;2.584641e-002
3.114605e+003;2.582813e-002
3.116533e+003;2.578952e-002
3.118462e+003;2.582233e-002
3.120391e+003;2.606865e-002
3.122319e+003;2.617984e-002
3.124248e+003;2.626115e-002
3.126176e+003;2.610169e-002
3.128105e+003;2.587363e-002
3.130033e+003;2.610950e-002
3.131962e+003;2.653558e-002
3.133890e+003;2.652667e-002
3.135819e+003;2.659979e-002
3.137748e+003;2.684085e-002
3.139676e+003;2.663675e-002
3.141605e+003;2.647623e-002
3.143533e+003;2.652434e-002
3.145462e+003;2.668445e-002
3.147390e+003;2.671577e-002
3.149319e+003;2.674428e-002
3.151247e+003;2.679771e-002
3.153176e+003;2.687743e-002
3.155104e+003;2.662738e-002
3.157033e+003;2.606879e-002
3.158962e+003;2.559776e-002
3.160890e+003;2.560950e-002
3.162819e+003;2.596452e-002
3.164747e+003;2.605025e-002
3.166676e+003;2.593339e-002
3.168604e+003;2.598830e-002
3.170533e+003;2.609711e-002
3.172461e+003;2.608916e-002
3.174390e+003;2.612692e-002
3.176319e+003;2.569885e-002
3.178247e+003;2.536551e-002
3.180176e+003;2.556156e-002
3.182104e+003;2.595499e-002
3.184033e+003;2.604152e-002
3.185961e+003;2.598520e-002
3.187890e+003;2.631951e-002
3.189818e+003;2.638193e-002
3.191747e+003;2.658693e-002
3.193676e+003;2.654417e-002
3.195604e+003;2.620399e-002
3.197532e+003;2.648764e-002
3.199461e+003;2.677050e-002
3.201390e+003;2.636345e-002
3.203318e+003;2.574033e-002
3.205247e+003;2.564299e-002
3.207175e+003;2.590339e-002
3.209104e+003;2.545871e-002
3.211032e+003;2.490959e-002
3.212961e+003;2.502091e-002
3.214889e+003;2.488924e-002
3.216818e+003;2.466266e-002
3.218747e+003;2.469163e-002
3.220675e+003;2.431827e-002
3.222604e+003;2.401922e-002
3.224532e+003;2.388844e-002
3.226461e+003;2.363863e-002
3.228389e+003;2.368293e-002
3.230318e+003;2.355921e-002
3.232246e+003;2.302884e-002
3.234175e+003;2.254469e-002
3.236104e+003;2.203859e-002
3.238032e+003;2.140104e-002
3.239961e+003;2.129840e-002
3.241889e+003;2.171717e-002
3.243818e+003;2.175403e-002
3.245746e+003;2.134643e-002
3.247675e+003;2.103102e-002
3.249603e+003;2.077217e-002
3.251532e+003;2.037737e-002
3.253460e+003;2.043911e-002
3.255389e+003;2.065797e-002
3.257318e+003;2.078295e-002
3.259246e+003;2.101137e-002
3.261175e+003;2.129739e-002
3.263103e+003;2.127738e-002
3.265032e+003;2.095229e-002
3.266960e+003;2.057695e-002
3.268889e+003;2.083310e-002
3.270817e+003;2.083505e-002
3.272746e+003;2.041185e-002
3.274675e+003;2.032490e-002
3.276603e+003;2.037685e-002
3.278531e+003;2.056437e-002
3.280460e+003;2.071854e-002
3.282389e+003;2.057938e-002
3.284317e+003;2.029397e-002
3.286246e+003;1.990310e-002
3.288174e+003;1.980633e-002
3.290103e+003;2.022752e-002
3.292031e+003;2.041661e-002
3.293960e+003;2.043460e-002
3.295888e+003;2.050334e-002
3.297817e+003;2.036855e-002
3.299746e+003;2.004517e-002
3.301674e+003;2.004507e-002
3.303603e+003;2.044599e-002
3.305531e+003;2.052897e-002
3.307460e+003;2.056705e-002
3.309388e+003;2.046374e-002
3.311317e+003;2.039796e-002
3.313245e+003;2.051869e-002
3.315174e+003;2.049899e-002
3.317103e+003;2.041654e-002
3.319031e+003;1.996377e-002
3.320960e+003;1.930819e-002
3.322888e+003;1.923085e-002
3.324817e+003;1.983435e-002
3.326745e+003;2.010513e-002
3.328674e+003;2.026914e-002
3.330602e+003;2.024310e-002
3.332531e+003;2.014633e-002
3.334459e+003;2.012547e-002
3.336388e+003;2.022019e-002
3.338317e+003;2.045089e-002
3.340245e+003;2.075337e-002
3.342174e+003;2.058032e-002
3.344102e+003;2.037813e-002
3.346031e+003;2.097079e-002
3.347959e+003;2.097232e-002
3.349888e+003;2.021339e-002
3.351816e+003;2.027949e-002
3.353745e+003;2.059887e-002
3.355674e+003;2.047138e-002
3.357602e+003;2.065499e-002
3.359531e+003;2.099593e-002
3.361459e+003;2.104069e-002
3.363388e+003;2.068970e-002
3.365316e+003;2.033785e-002
3.367245e+003;2.041661e-002
3.369173e+003;2.041765e-002
3.371102e+003;2.041769e-002
3.373031e+003;2.035157e-002
3.374959e+003;2.021867e-002
3.376887e+003;2.004822e-002
3.378816e+003;2.047683e-002
3.380745e+003;2.091578e-002
3.382673e+003;2.023998e-002
3.384602e+003;1.962576e-002
3.386530e+003;2.001051e-002
3.388459e+003;2.040494e-002
3.390387e+003;2.025650e-002
3.392316e+003;1.978896e-002
3.394244e+003;1.980470e-002
3.396173e+003;2.003941e-002
3.398102e+003;2.019388e-002
3.400030e+003;2.030171e-002
3.401959e+003;2.041946e-002
3.403887e+003;2.005204e-002
3.405816e+003;1.934045e-002
3.407744e+003;1.894923e-002
3.409673e+003;1.964621e-002
3.411601e+003;2.042939e-002
3.413530e+003;2.036473e-002
3.415458e+003;2.024182e-002
3.417387e+003;2.026359e-002
3.419316e+003;2.003462e-002
3.421244e+003;1.987369e-002
3.423173e+003;1.956797e-002
3.425101e+003;1.928024e-002
3.427030e+003;1.927951e-002
3.428958e+003;1.968396e-002
3.430887e+003;2.016441e-002
3.432815e+003;2.012502e-002
3.434744e+003;1.997366e-002
3.436673e+003;1.965546e-002
3.438601e+003;1.931498e-002
3.440530e+003;1.899177e-002
3.442458e+003;1.881831e-002
3.444387e+003;1.885828e-002
3.446315e+003;1.893597e-002
3.448244e+003;1.891780e-002
3.450172e+003;1.898429e-002
3.452101e+003;1.874697e-002
3.454030e+003;1.887215e-002
3.455958e+003;1.880952e-002
3.457886e+003;1.833838e-002
3.459815e+003;1.818470e-002
3.461744e+003;1.808403e-002
3.463672e+003;1.800977e-002
3.465601e+003;1.768721e-002
3.467529e+003;1.761288e-002
3.469458e+003;1.778140e-002
3.471386e+003;1.794350e-002
3.473315e+003;1.810466e-002
3.475243e+003;1.812981e-002
3.477172e+003;1.763645e-002
3.479101e+003;1.737231e-002
3.481029e+003;1.778489e-002
3.482958e+003;1.790970e-002
3.484886e+003;1.785321e-002
3.486815e+003;1.764587e-002
3.488743e+003;1.727414e-002
3.490672e+003;1.714021e-002
3.492600e+003;1.724307e-002
3.494529e+003;1.717950e-002
3.496458e+003;1.708541e-002
3.498386e+003;1.722301e-002
3.500315e+003;1.738010e-002
3.502243e+003;1.703813e-002
3.504172e+003;1.722349e-002
3.506100e+003;1.752721e-002
3.508029e+003;1.685873e-002
3.509957e+003;1.637800e-002
3.511886e+003;1.653420e-002
3.513814e+003;1.675255e-002
3.515743e+003;1.669294e-002
3.517672e+003;1.679019e-002
3.519600e+003;1.708620e-002
3.521529e+003;1.674625e-002
3.523457e+003;1.652611e-002
3.525386e+003;1.696191e-002
3.527314e+003;1.689456e-002
3.529243e+003;1.652377e-002
3.531171e+003;1.669294e-002
3.533100e+003;1.692380e-002
3.535029e+003;1.660019e-002
3.536957e+003;1.620675e-002
3.538885e+003;1.612910e-002
3.540814e+003;1.624180e-002
3.542743e+003;1.611404e-002
3.544671e+003;1.598129e-002
3.546600e+003;1.602327e-002
3.548528e+003;1.637219e-002
3.550457e+003;1.678695e-002
3.552385e+003;1.662673e-002
3.554314e+003;1.615475e-002
3.556242e+003;1.624799e-002
3.558171e+003;1.602495e-002
3.560100e+003;1.557529e-002
3.562028e+003;1.529164e-002
3.563957e+003;1.511931e-002
3.565885e+003;1.480386e-002
3.567814e+003;1.471604e-002
3.569742e+003;1.517348e-002
3.571671e+003;1.535012e-002
3.573599e+003;1.550517e-002
3.575528e+003;1.634624e-002
3.577457e+003;1.663637e-002
3.579385e+003;1.597837e-002
3.581314e+003;1.556619e-002
3.583242e+003;1.557234e-002
3.585171e+003;1.460897e-002
3.587099e+003;1.349369e-002
3.589028e+003;1.395560e-002
3.590956e+003;1.522194e-002
3.592885e+003;1.538692e-002
3.594813e+003;1.506617e-002
3.596742e+003;1.539135e-002
3.598671e+003;1.581731e-002
3.600599e+003;1.576832e-002
3.602528e+003;1.569311e-002
3.604456e+003;1.571853e-002
3.606385e+003;1.493295e-002
3.608313e+003;1.402339e-002
3.610242e+003;1.470863e-002
3.612170e+003;1.538020e-002
3.614099e+003;1.581371e-002
3.616028e+003;1.576488e-002
3.617956e+003;1.515925e-002
3.619885e+003;1.575711e-002
3.621813e+003;1.664656e-002
3.623742e+003;1.605383e-002
3.625670e+003;1.476019e-002
3.627599e+003;1.263646e-002
3.629527e+003;1.305826e-002
3.631456e+003;1.514381e-002
3.633385e+003;1.547825e-002
3.635313e+003;1.576086e-002
3.637241e+003;1.634714e-002
3.639170e+003;1.653052e-002
3.641099e+003;1.682081e-002
3.643027e+003;1.721553e-002
3.644956e+003;1.626901e-002
3.646884e+003;1.363361e-002
3.648813e+003;1.197430e-002
3.650741e+003;1.342920e-002
3.652670e+003;1.534237e-002
3.654598e+003;1.480499e-002
3.656527e+003;1.472515e-002
3.658456e+003;1.627551e-002
3.660384e+003;1.684065e-002
3.662313e+003;1.669074e-002
3.664241e+003;1.696987e-002
3.666170e+003;1.670864e-002
3.668098e+003;1.432396e-002
3.670027e+003;1.286715e-002
3.671955e+003;1.478946e-002
3.673884e+003;1.370333e-002
3.675813e+003;1.296484e-002
3.677741e+003;1.608670e-002
3.679669e+003;1.719109e-002
3.681598e+003;1.720129e-002
3.683527e+003;1.742442e-002
3.685455e+003;1.667456e-002
3.687384e+003;1.480801e-002
3.689312e+003;1.554995e-002
3.691241e+003;1.777202e-002
3.693169e+003;1.893158e-002
3.695098e+003;1.933528e-002
3.697026e+003;1.947065e-002
3.698955e+003;1.905294e-002
3.700884e+003;1.797610e-002
3.702812e+003;1.757941e-002
3.704741e+003;1.774692e-002
3.706669e+003;1.712356e-002
3.708598e+003;1.591921e-002
3.710526e+003;1.432153e-002
3.712455e+003;1.460160e-002
3.714383e+003;1.667807e-002
3.716312e+003;1.700987e-002
3.718240e+003;1.655052e-002
3.720169e+003;1.638794e-002
3.722098e+003;1.631088e-002
3.724026e+003;1.602763e-002
3.725955e+003;1.580556e-002
3.727883e+003;1.641623e-002
3.729812e+003;1.577735e-002
3.731740e+003;1.410334e-002
3.733669e+003;1.370945e-002
3.735597e+003;1.360199e-002
3.737526e+003;1.525711e-002
3.739455e+003;1.675313e-002
3.741383e+003;1.524431e-002
3.743312e+003;1.111869e-002
3.745240e+003;1.193264e-002
3.747169e+003;1.410577e-002
3.749097e+003;1.245829e-002
3.751026e+003;1.258079e-002
3.752954e+003;1.494605e-002
3.754883e+003;1.676388e-002
3.756812e+003;1.652395e-002
3.758740e+003;1.679480e-002
3.760668e+003;1.755078e-002
3.762597e+003;1.811302e-002
3.764526e+003;1.745950e-002
3.766454e+003;1.700611e-002
3.768383e+003;1.631676e-002
3.770311e+003;1.679556e-002
3.772240e+003;1.746291e-002
3.774168e+003;1.724511e-002
3.776097e+003;1.711364e-002
3.778025e+003;1.682666e-002
3.779954e+003;1.679884e-002
3.781883e+003;1.728258e-002
3.783811e+003;1.729641e-002
3.785740e+003;1.723066e-002
3.787668e+003;1.756492e-002
3.789597e+003;1.808562e-002
3.791525e+003;1.812981e-002
3.793454e+003;1.787203e-002
3.795382e+003;1.707993e-002
3.797311e+003;1.661947e-002
3.799240e+003;1.505420e-002
3.801168e+003;1.370176e-002
3.803097e+003;1.592454e-002
3.805025e+003;1.619709e-002
3.806954e+003;1.526796e-002
3.808882e+003;1.695640e-002
3.810811e+003;1.835459e-002
3.812739e+003;1.792240e-002
3.814668e+003;1.497764e-002
3.816596e+003;1.480784e-002
3.818525e+003;1.611792e-002
3.820454e+003;1.486098e-002
3.822382e+003;1.577306e-002
3.824311e+003;1.718757e-002
3.826239e+003;1.718995e-002
3.828168e+003;1.737490e-002
3.830096e+003;1.682825e-002
3.832025e+003;1.620545e-002
3.833953e+003;1.615468e-002
3.835882e+003;1.482772e-002
3.837811e+003;1.396269e-002
3.839739e+003;1.559755e-002
3.841667e+003;1.637590e-002
3.843596e+003;1.639710e-002
3.845525e+003;1.722711e-002
3.847453e+003;1.782442e-002
3.849382e+003;1.637934e-002
3.851310e+003;1.227710e-002
3.853239e+003;9.935743e-003
3.855167e+003;1.409776e-002
3.857096e+003;1.747744e-002
3.859024e+003;1.772010e-002
3.860953e+003;1.730813e-002
3.862882e+003;1.695846e-002
3.864810e+003;1.695150e-002
3.866739e+003;1.757244e-002
3.868667e+003;1.649194e-002
3.870596e+003;1.605827e-002
3.872524e+003;1.696022e-002
3.874453e+003;1.748178e-002
3.876381e+003;1.851417e-002
3.878310e+003;1.822765e-002
3.880239e+003;1.795617e-002
3.882167e+003;1.854453e-002
3.884096e+003;1.771037e-002
3.886024e+003;1.711708e-002
3.887953e+003;1.846268e-002
3.889881e+003;1.810659e-002
3.891810e+003;1.783336e-002
3.893738e+003;1.872753e-002
3.895667e+003;1.921107e-002
3.897595e+003;1.839368e-002
3.899524e+003;1.685360e-002
3.901453e+003;1.615286e-002
3.903381e+003;1.606528e-002
3.905310e+003;1.714524e-002
3.907238e+003;1.874825e-002
3.909167e+003;1.964038e-002
3.911095e+003;1.955664e-002
3.913024e+003;1.931308e-002
3.914952e+003;1.921717e-002
3.916881e+003;1.888530e-002
3.918810e+003;1.895670e-002
3.920738e+003;1.959296e-002
3.922667e+003;2.028914e-002
3.924595e+003;2.034504e-002
3.926524e+003;2.045117e-002
3.928452e+003;2.017333e-002
3.930381e+003;1.968764e-002
3.932309e+003;1.923455e-002
3.934238e+003;1.913465e-002
3.936167e+003;1.903621e-002
3.938095e+003;1.944872e-002
3.940023e+003;2.019690e-002
3.941952e+003;2.054690e-002
3.943881e+003;2.044867e-002
3.945809e+003;1.992676e-002
3.947738e+003;1.941369e-002
3.949666e+003;1.946823e-002
3.951595e+003;1.947367e-002
3.953523e+003;1.959986e-002
3.955452e+003;1.964662e-002
3.957380e+003;1.963678e-002
3.959309e+003;2.002962e-002
3.961238e+003;2.011558e-002
3.963166e+003;2.050143e-002
3.965095e+003;2.018045e-002
3.967023e+003;1.978171e-002
3.968952e+003;2.017760e-002
3.970880e+003;2.013880e-002
3.972809e+003;1.996017e-002
3.974737e+003;1.995101e-002
3.976666e+003;1.984261e-002
3.978594e+003;2.019343e-002
3.980523e+003;2.079956e-002
3.982452e+003;2.100389e-002
3.984380e+003;2.128595e-002
3.986309e+003;2.137358e-002
3.988237e+003;2.145402e-002
3.990166e+003;2.190535e-002
3.992094e+003;2.193898e-002
3.994023e+003;2.137048e-002
3.995951e+003;2.115102e-002
3.997880e+003;2.166977e-002
3.999809e+003;2.192228e-002
4.001737e+003;0.000000e+000
