3.992094e+002;0.000000e+000
4.011380e+002;0.000000e+000
4.030665e+002;0.000000e+000
4.049951e+002;0.000000e+000
4.069236e+002;0.000000e+000
4.088522e+002;0.000000e+000
4.107807e+002;0.000000e+000
4.127093e+002;0.000000e+000
4.146378e+002;0.000000e+000
4.165664e+002;0.000000e+000
4.184949e+002;0.000000e+000
4.204235e+002;0.000000e+000
4.223520e+002;0.000000e+000
4.242806e+002;0.000000e+000
4.262091e+002;0.000000e+000
4.281377e+002;0.000000e+000
4.300662e+002;0.000000e+000
4.319948e+002;0.000000e+000
4.339233e+002;0.000000e+000
4.358519e+002;0.000000e+000
4.377804e+002;0.000000e+000
4.397090e+002;0.000000e+000
4.416375e+002;0.000000e+000
4.435660e+002;0.000000e+000
4.454946e+002;0.000000e+000
4.474232e+002;0.000000e+000
4.493517e+002;0.000000e+000
4.512802e+002;0.000000e+000
4.532088e+002;0.000000e+000
4.551373e+002;0.000000e+000
4.570659e+002;0.000000e+000
4.589944e+002;0.000000e+000
4.609230e+002;0.000000e+000
4.628515e+002;0.000000e+000
4.647801e+002;0.000000e+000
4.667086e+002;0.000000e+000
4.686372e+002;0.000000e+000
4.705657e+002;0.000000e+000
4.724943e+002;0.000000e+000
4.744228e+002;0.000000e+000
4.763513e+002;0.000000e+000
4.782799e+002;0.000000e+000
4.802085e+002;0.000000e+000
4.821370e+002;0.000000e+000
4.840656e+002;0.000000e+000
4.859941e+002;0.000000e+000
4.879226e+002;0.000000e+000
4.898512e+002;0.000000e+000
4.917798e+002;0.000000e+000
4.937083e+002;0.000000e+000
4.956368e+002;0.000000e+000
4.975654e+002;0.000000e+000
4.994939e+002;0.000000e+000
5.014225e+002;0.000000e+000
5.033510e+002;0.000000e+000
5.052796e+002;0.000000e+000
5.072081e+002;0.000000e+000
5.091367e+002;0.000000e+000
5.110652e+002;0.000000e+000
5.129938e+002;0.000000e+000
5.149223e+002;0.000000e+000
5.168509e+002;0.000000e+000
5.187794e+002;0.000000e+000
5.207079e+002;0.000000e+000
5.226365e+002;0.000000e+000
5.245651e+002;0.000000e+000
5.264936e+002;0.000000e+000
5.284222e+002;0.000000e+000
5.303507e+002;0.000000e+000
5.322792e+002;0.000000e+000
5.342078e+002;0.000000e+000
5.361364e+002;0.000000e+000
5.380649e+002;0.000000e+000
5.399935e+002;0.000000e+000
5.419220e+002;0.000000e+000
5.438505e+002;0.000000e+000
5.457791e+002;0.000000e+000
5.477076e+002;0.000000e+000
5.496362e+002;0.000000e+000
5.515648e+002;0.000000e+000
5.534933e+002;0.000000e+000
5.554218e+002;0.000000e+000
5.573504e+002;0.000000e+000
5.592789e+002;0.000000e+000
5.612075e+002;0.000000e+000
5.631360e+002;0.000000e+000
5.650646e+002;0.000000e+000
5.669931e+002;0.000000e+000
5.689217e+002;0.000000e+000
5.708502e+002;0.000000e+000
5.727787e+002;0.000000e+000
5.747073e+002;0.000000e+000
5.766359e+002;0.000000e+000
5.785644e+002;0.000000e+000
5.804930e+002;0.000000e+000
5.824215e+002;0.000000e+000
5.843500e+002;0.000000e+000
5.862786e+002;0.000000e+000
5.882072e+002;0.000000e+000
5.901357e+002;0.000000e+000
5.920643e+002;0.000000e+000
5.939928e+002;0.000000e+000
5.959213e+002;0.000000e+000
5.978499e+002;0.000000e+000
5.997784e+002;5.571079e-002
6.017070e+002;5.341559e-002
6.036355e+002;5.369877e-002
6.055641e+002;5.489391e-002
6.074926e+002;5.395899e-002
6.094211e+002;5.157956e-002
6.113497e+002;4.875188e-002
6.132783e+002;4.798087e-002
6.152068e+002;4.925006e-002
6.171354e+002;5.020111e-002
6.190639e+002;5.147520e-002
6.209924e+002;5.028399e-002
6.229210e+002;4.956916e-002
6.248495e+002;5.086531e-002
6.267781e+002;5.280038e-002
6.287067e+002;5.682032e-002
6.306352e+002;5.973553e-002
6.325637e+002;5.847821e-002
6.344923e+002;5.185240e-002
6.364208e+002;4.933977e-002
6.383494e+002;5.282713e-002
6.402780e+002;5.427680e-002
6.422065e+002;5.073097e-002
6.441350e+002;4.796981e-002
6.460636e+002;4.668815e-002
6.479921e+002;4.795660e-002
6.499207e+002;5.311682e-002
6.518492e+002;5.447745e-002
6.537778e+002;5.368970e-002
6.557063e+002;5.394214e-002
6.576349e+002;5.415487e-002
6.595634e+002;5.458910e-002
6.614919e+002;5.590246e-002
6.634205e+002;5.558093e-002
6.653491e+002;5.442847e-002
6.672776e+002;5.354477e-002
6.692062e+002;5.189134e-002
6.711347e+002;5.286972e-002
6.730632e+002;5.586089e-002
6.749918e+002;5.567143e-002
6.769203e+002;5.544534e-002
6.788489e+002;5.590875e-002
6.807775e+002;5.471160e-002
6.827060e+002;5.183347e-002
6.846345e+002;5.066212e-002
6.865631e+002;5.234566e-002
6.884916e+002;5.242812e-002
6.904202e+002;5.143212e-002
6.923488e+002;5.123560e-002
6.942773e+002;5.224591e-002
6.962058e+002;5.368197e-002
6.981344e+002;5.412916e-002
7.000629e+002;5.417739e-002
7.019915e+002;5.433920e-002
7.039200e+002;5.385515e-002
7.058486e+002;5.314730e-002
7.077771e+002;5.449687e-002
7.097057e+002;5.507051e-002
7.116342e+002;5.470536e-002
7.135627e+002;5.504813e-002
7.154913e+002;5.527770e-002
7.174199e+002;5.468563e-002
7.193484e+002;5.362633e-002
7.212770e+002;5.366416e-002
7.232055e+002;5.486245e-002
7.251340e+002;5.464013e-002
7.270626e+002;5.441439e-002
7.289911e+002;5.471634e-002
7.309197e+002;5.466823e-002
7.328483e+002;5.400044e-002
7.347768e+002;5.244207e-002
7.367053e+002;5.133896e-002
7.386339e+002;5.189634e-002
7.405624e+002;5.196259e-002
7.424910e+002;5.224221e-002
7.444196e+002;5.221994e-002
7.463481e+002;5.191344e-002
7.482766e+002;5.174167e-002
7.502052e+002;5.211936e-002
7.521337e+002;5.325678e-002
7.540623e+002;5.408844e-002
7.559908e+002;5.400667e-002
7.579194e+002;5.321258e-002
7.598479e+002;5.133840e-002
7.617765e+002;5.133542e-002
7.637050e+002;5.201028e-002
7.656335e+002;5.245291e-002
7.675621e+002;5.243691e-002
7.694907e+002;5.212918e-002
7.714192e+002;5.268152e-002
7.733478e+002;5.327547e-002
7.752763e+002;5.262422e-002
7.772048e+002;5.225103e-002
7.791334e+002;5.274471e-002
7.810620e+002;5.283866e-002
7.829905e+002;5.333777e-002
7.849191e+002;5.470172e-002
7.868476e+002;5.535455e-002
7.887761e+002;5.552316e-002
7.907047e+002;5.560684e-002
7.926332e+002;5.675427e-002
7.945618e+002;5.894073e-002
7.964903e+002;6.136339e-002
7.984189e+002;6.273023e-002
8.003474e+002;6.335550e-002
8.022759e+002;6.477479e-002
8.042045e+002;6.745084e-002
8.061331e+002;7.027004e-002
8.080616e+002;7.255105e-002
8.099902e+002;7.279178e-002
8.119187e+002;7.087232e-002
8.138472e+002;6.777474e-002
8.157758e+002;6.491828e-002
8.177043e+002;6.287688e-002
8.196329e+002;6.130012e-002
8.215615e+002;6.070558e-002
8.234900e+002;6.042545e-002
8.254185e+002;5.969641e-002
8.273471e+002;5.960533e-002
8.292756e+002;5.987310e-002
8.312042e+002;6.043033e-002
8.331328e+002;6.117533e-002
8.350613e+002;6.217361e-002
8.369898e+002;6.509539e-002
8.389184e+002;7.064415e-002
8.408469e+002;7.543878e-002
8.427755e+002;7.507382e-002
8.447040e+002;7.046976e-002
8.466326e+002;6.545636e-002
8.485611e+002;6.178556e-002
8.504897e+002;5.991616e-002
8.524182e+002;5.911811e-002
8.543467e+002;5.817004e-002
8.562753e+002;5.685129e-002
8.582039e+002;5.598047e-002
8.601324e+002;5.543593e-002
8.620610e+002;5.539381e-002
8.639895e+002;5.571094e-002
8.659180e+002;5.568420e-002
8.678466e+002;5.522731e-002
8.697751e+002;5.534115e-002
8.717037e+002;5.579416e-002
8.736323e+002;5.598078e-002
8.755608e+002;5.587238e-002
8.774893e+002;5.547994e-002
8.794179e+002;5.453786e-002
8.813464e+002;5.367736e-002
8.832750e+002;5.392320e-002
8.852036e+002;5.448988e-002
8.871321e+002;5.440304e-002
8.890606e+002;5.458249e-002
8.909892e+002;5.592040e-002
8.929177e+002;5.888980e-002
8.948463e+002;6.274133e-002
8.967748e+002;6.689657e-002
8.987034e+002;6.948028e-002
9.006319e+002;6.935774e-002
9.025605e+002;6.590913e-002
9.044890e+002;6.030323e-002
9.064175e+002;5.547915e-002
9.083461e+002;5.282463e-002
9.102747e+002;5.142321e-002
9.122032e+002;5.032856e-002
9.141318e+002;4.957699e-002
9.160603e+002;4.935751e-002
9.179888e+002;4.935042e-002
9.199174e+002;4.933282e-002
9.218459e+002;4.899108e-002
9.237745e+002;4.900729e-002
9.257031e+002;4.948645e-002
9.276316e+002;4.986560e-002
9.295601e+002;5.000927e-002
9.314887e+002;5.020439e-002
9.334172e+002;5.076613e-002
9.353458e+002;5.174574e-002
9.372744e+002;5.296119e-002
9.392029e+002;5.433620e-002
9.411314e+002;5.514574e-002
9.430600e+002;5.549594e-002
9.449885e+002;5.588124e-002
9.469171e+002;5.597486e-002
9.488456e+002;5.553759e-002
9.507742e+002;5.587577e-002
9.527027e+002;5.741289e-002
9.546313e+002;5.829120e-002
9.565598e+002;5.874370e-002
9.584883e+002;5.965068e-002
9.604169e+002;6.089920e-002
9.623455e+002;6.303588e-002
9.642740e+002;6.627098e-002
9.662026e+002;7.067070e-002
9.681311e+002;7.680990e-002
9.700596e+002;8.408770e-002
9.719882e+002;9.024192e-002
9.739167e+002;9.206626e-002
9.758453e+002;8.875272e-002
9.777739e+002;8.169806e-002
9.797024e+002;7.309887e-002
9.816309e+002;6.570441e-002
9.835595e+002;6.105861e-002
9.854880e+002;5.878159e-002
9.874166e+002;5.886336e-002
9.893452e+002;6.081065e-002
9.912737e+002;6.397295e-002
9.932022e+002;6.902520e-002
9.951307e+002;7.533164e-002
9.970593e+002;7.983332e-002
9.989879e+002;7.972634e-002
1.000916e+003;7.543427e-002
1.002845e+003;7.007688e-002
1.004773e+003;6.564729e-002
1.006702e+003;6.242006e-002
1.008631e+003;6.047115e-002
1.010559e+003;5.998889e-002
1.012488e+003;5.920567e-002
1.014416e+003;5.819091e-002
1.016345e+003;5.755567e-002
1.018273e+003;5.757073e-002
1.020202e+003;5.821159e-002
1.022130e+003;5.833201e-002
1.024059e+003;5.808428e-002
1.025988e+003;5.842571e-002
1.027916e+003;5.903277e-002
1.029845e+003;5.965855e-002
1.031773e+003;6.044282e-002
1.033702e+003;6.109809e-002
1.035630e+003;6.224481e-002
1.037559e+003;6.346849e-002
1.039487e+003;6.442610e-002
1.041416e+003;6.490247e-002
1.043344e+003;6.537373e-002
1.045273e+003;6.528126e-002
1.047202e+003;6.391633e-002
1.049130e+003;6.260882e-002
1.051059e+003;6.221934e-002
1.052987e+003;6.167911e-002
1.054916e+003;6.151511e-002
1.056844e+003;6.142217e-002
1.058773e+003;6.079834e-002
1.060701e+003;6.014451e-002
1.062630e+003;5.978374e-002
1.064558e+003;5.975195e-002
1.066487e+003;6.006601e-002
1.068416e+003;6.009245e-002
1.070344e+003;6.008613e-002
1.072273e+003;6.068097e-002
1.074201e+003;6.099627e-002
1.076130e+003;6.048425e-002
1.078058e+003;6.008834e-002
1.079987e+003;6.012663e-002
1.081915e+003;6.036769e-002
1.083844e+003;6.028926e-002
1.085773e+003;6.021998e-002
1.087701e+003;6.071035e-002
1.089630e+003;6.134007e-002
1.091558e+003;6.155604e-002
1.093487e+003;6.200060e-002
1.095415e+003;6.317963e-002
1.097344e+003;6.485265e-002
1.099272e+003;6.687999e-002
1.101201e+003;6.819908e-002
1.103129e+003;6.796076e-002
1.105058e+003;6.689537e-002
1.106987e+003;6.565657e-002
1.108915e+003;6.439862e-002
1.110844e+003;6.288898e-002
1.112772e+003;6.147789e-002
1.114701e+003;6.065971e-002
1.116629e+003;5.995541e-002
1.118558e+003;5.898775e-002
1.120486e+003;5.833111e-002
1.122415e+003;5.810159e-002
1.124344e+003;5.802099e-002
1.126272e+003;5.769770e-002
1.128201e+003;5.795416e-002
1.130129e+003;5.910372e-002
1.132058e+003;5.973192e-002
1.133986e+003;6.025401e-002
1.135915e+003;6.149034e-002
1.137843e+003;6.351225e-002
1.139772e+003;6.583128e-002
1.141700e+003;6.839394e-002
1.143629e+003;7.142967e-002
1.145557e+003;7.444177e-002
1.147486e+003;7.732277e-002
1.149415e+003;8.047343e-002
1.151343e+003;8.337997e-002
1.153272e+003;8.511030e-002
1.155200e+003;8.610772e-002
1.157129e+003;8.577766e-002
1.159057e+003;8.530902e-002
1.160986e+003;8.592220e-002
1.162914e+003;8.685856e-002
1.164843e+003;8.761078e-002
1.166771e+003;8.723024e-002
1.168700e+003;8.569781e-002
1.170629e+003;8.298041e-002
1.172557e+003;7.923913e-002
1.174486e+003;7.466951e-002
1.176414e+003;7.064669e-002
1.178343e+003;6.747364e-002
1.180271e+003;6.520872e-002
1.182200e+003;6.391586e-002
1.184128e+003;6.320301e-002
1.186057e+003;6.254445e-002
1.187986e+003;6.238039e-002
1.189914e+003;6.255604e-002
1.191843e+003;6.276017e-002
1.193771e+003;6.299350e-002
1.195700e+003;6.313856e-002
1.197628e+003;6.343425e-002
1.199557e+003;6.364654e-002
1.201485e+003;6.340147e-002
1.203414e+003;6.363726e-002
1.205343e+003;6.412681e-002
1.207271e+003;6.470787e-002
1.209200e+003;6.553345e-002
1.211128e+003;6.668933e-002
1.213057e+003;6.792954e-002
1.214985e+003;6.891575e-002
1.216914e+003;6.947009e-002
1.218842e+003;6.952989e-002
1.220771e+003;6.912453e-002
1.222699e+003;6.820563e-002
1.224628e+003;6.740534e-002
1.226557e+003;6.725997e-002
1.228485e+003;6.726589e-002
1.230414e+003;6.735263e-002
1.232342e+003;6.778365e-002
1.234271e+003;6.812101e-002
1.236199e+003;6.803039e-002
1.238128e+003;6.816117e-002
1.240056e+003;6.851453e-002
1.241985e+003;6.864510e-002
1.243913e+003;6.887207e-002
1.245842e+003;6.941962e-002
1.247771e+003;7.022980e-002
1.249699e+003;7.144564e-002
1.251628e+003;7.332104e-002
1.253556e+003;7.590200e-002
1.255485e+003;7.761455e-002
1.257413e+003;7.744117e-002
1.259342e+003;7.585706e-002
1.261270e+003;7.360981e-002
1.263199e+003;7.159217e-002
1.265127e+003;7.031386e-002
1.267056e+003;6.936788e-002
1.268985e+003;6.863129e-002
1.270913e+003;6.815392e-002
1.272842e+003;6.796162e-002
1.274770e+003;6.775898e-002
1.276699e+003;6.752036e-002
1.278627e+003;6.734548e-002
1.280556e+003;6.738212e-002
1.282484e+003;6.778590e-002
1.284413e+003;6.844138e-002
1.286342e+003;6.914594e-002
1.288270e+003;6.993346e-002
1.290199e+003;7.100048e-002
1.292127e+003;7.190154e-002
1.294056e+003;7.259353e-002
1.295984e+003;7.279276e-002
1.297913e+003;7.274974e-002
1.299841e+003;7.288351e-002
1.301770e+003;7.327911e-002
1.303698e+003;7.369418e-002
1.305627e+003;7.242889e-002
1.307556e+003;6.961452e-002
1.309484e+003;6.711160e-002
1.311413e+003;6.625400e-002
1.313341e+003;6.623948e-002
1.315270e+003;6.649552e-002
1.317198e+003;6.704877e-002
1.319127e+003;6.793833e-002
1.321055e+003;6.923997e-002
1.322984e+003;7.063924e-002
1.324912e+003;7.201530e-002
1.326841e+003;7.325588e-002
1.328770e+003;7.423400e-002
1.330698e+003;7.445904e-002
1.332627e+003;7.407263e-002
1.334555e+003;7.323109e-002
1.336484e+003;7.261182e-002
1.338412e+003;7.265839e-002
1.340341e+003;7.308009e-002
1.342269e+003;7.404186e-002
1.344198e+003;7.571858e-002
1.346126e+003;7.770330e-002
1.348055e+003;8.041777e-002
1.349984e+003;8.397110e-002
1.351912e+003;8.796277e-002
1.353841e+003;9.334838e-002
1.355769e+003;1.001787e-001
1.357698e+003;1.054596e-001
1.359626e+003;1.067953e-001
1.361555e+003;1.056089e-001
1.363483e+003;1.049332e-001
1.365412e+003;1.069954e-001
1.367341e+003;1.140220e-001
1.369269e+003;1.277679e-001
1.371198e+003;1.488467e-001
1.373126e+003;1.741814e-001
1.375055e+003;1.938795e-001
1.376983e+003;1.946193e-001
1.378912e+003;1.743416e-001
1.380840e+003;1.467385e-001
1.382769e+003;1.225505e-001
1.384698e+003;1.042062e-001
1.386626e+003;9.156710e-002
1.388555e+003;8.358879e-002
1.390483e+003;7.869300e-002
1.392412e+003;7.531686e-002
1.394340e+003;7.325714e-002
1.396269e+003;7.259674e-002
1.398197e+003;7.201979e-002
1.400126e+003;7.156717e-002
1.402054e+003;7.172793e-002
1.403983e+003;7.174892e-002
1.405911e+003;7.164931e-002
1.407840e+003;7.180924e-002
1.409769e+003;7.179047e-002
1.411697e+003;7.222655e-002
1.413626e+003;7.298988e-002
1.415554e+003;7.322302e-002
1.417483e+003;7.299137e-002
1.419411e+003;7.308875e-002
1.421340e+003;7.423531e-002
1.423268e+003;7.598606e-002
1.425197e+003;7.815800e-002
1.427125e+003;8.143591e-002
1.429054e+003;8.654867e-002
1.430983e+003;9.398981e-002
1.432911e+003;1.027229e-001
1.434840e+003;1.088261e-001
1.436768e+003;1.111734e-001
1.438697e+003;1.126002e-001
1.440625e+003;1.150416e-001
1.442554e+003;1.198187e-001
1.444482e+003;1.271345e-001
1.446411e+003;1.358279e-001
1.448340e+003;1.448895e-001
1.450268e+003;1.529393e-001
1.452197e+003;1.585658e-001
1.454125e+003;1.612580e-001
1.456054e+003;1.610420e-001
1.457982e+003;1.595684e-001
1.459911e+003;1.575448e-001
1.461839e+003;1.529613e-001
1.463768e+003;1.451873e-001
1.465697e+003;1.356708e-001
1.467625e+003;1.257105e-001
1.469554e+003;1.155178e-001
1.471482e+003;1.062497e-001
1.473411e+003;9.826665e-002
1.475339e+003;9.132505e-002
1.477268e+003;8.531886e-002
1.479196e+003;8.047531e-002
1.481125e+003;7.625718e-002
1.483053e+003;7.264754e-002
1.484982e+003;6.970698e-002
1.486911e+003;6.722748e-002
1.488839e+003;6.529971e-002
1.490768e+003;6.412355e-002
1.492696e+003;6.355064e-002
1.494625e+003;6.272258e-002
1.496553e+003;6.162881e-002
1.498482e+003;6.127311e-002
1.500410e+003;6.113806e-002
1.502339e+003;6.072109e-002
1.504267e+003;5.986425e-002
1.506196e+003;5.877507e-002
1.508125e+003;5.862866e-002
1.510053e+003;5.916443e-002
1.511982e+003;5.937745e-002
1.513910e+003;5.928443e-002
1.515839e+003;5.918554e-002
1.517767e+003;5.905008e-002
1.519696e+003;5.850012e-002
1.521624e+003;5.809560e-002
1.523553e+003;5.849959e-002
1.525481e+003;5.867512e-002
1.527410e+003;5.903850e-002
1.529339e+003;5.935128e-002
1.531267e+003;5.946738e-002
1.533196e+003;5.982823e-002
1.535124e+003;6.053845e-002
1.537053e+003;6.060511e-002
1.538981e+003;6.007233e-002
1.540910e+003;6.060721e-002
1.542838e+003;6.157486e-002
1.544767e+003;6.213133e-002
1.546695e+003;6.243211e-002
1.548624e+003;6.231338e-002
1.550553e+003;6.178140e-002
1.552481e+003;6.120867e-002
1.554410e+003;6.035436e-002
1.556338e+003;5.915812e-002
1.558267e+003;5.756255e-002
1.560195e+003;5.703650e-002
1.562124e+003;5.705933e-002
1.564052e+003;5.648950e-002
1.565981e+003;5.609345e-002
1.567910e+003;5.566050e-002
1.569838e+003;5.502151e-002
1.571767e+003;5.467699e-002
1.573695e+003;5.414365e-002
1.575624e+003;5.376806e-002
1.577552e+003;5.423040e-002
1.579481e+003;5.451753e-002
1.581409e+003;5.413190e-002
1.583338e+003;5.375051e-002
1.585266e+003;5.347228e-002
1.587195e+003;5.323273e-002
1.589124e+003;5.304172e-002
1.591052e+003;5.273715e-002
1.592981e+003;5.275125e-002
1.594909e+003;5.322734e-002
1.596838e+003;5.370466e-002
1.598766e+003;5.410612e-002
1.600695e+003;5.439212e-002
1.602623e+003;5.457246e-002
1.604552e+003;5.527582e-002
1.606480e+003;5.607291e-002
1.608409e+003;5.667925e-002
1.610338e+003;5.724898e-002
1.612266e+003;5.762649e-002
1.614195e+003;5.818046e-002
1.616123e+003;5.862593e-002
1.618052e+003;5.953517e-002
1.619980e+003;6.023833e-002
1.621909e+003;6.067426e-002
1.623837e+003;6.131744e-002
1.625766e+003;6.195080e-002
1.627694e+003;6.259913e-002
1.629623e+003;6.337149e-002
1.631552e+003;6.396512e-002
1.633480e+003;6.405208e-002
1.635409e+003;6.418432e-002
1.637337e+003;6.525442e-002
1.639266e+003;6.617481e-002
1.641194e+003;6.671850e-002
1.643123e+003;6.701869e-002
1.645051e+003;6.705786e-002
1.646980e+003;6.748467e-002
1.648909e+003;6.796677e-002
1.650837e+003;6.730717e-002
1.652766e+003;6.619143e-002
1.654694e+003;6.632413e-002
1.656623e+003;6.683539e-002
1.658551e+003;6.674868e-002
1.660480e+003;6.609991e-002
1.662408e+003;6.524021e-002
1.664337e+003;6.459051e-002
1.666266e+003;6.369346e-002
1.668194e+003;6.252455e-002
1.670123e+003;6.180672e-002
1.672051e+003;6.174263e-002
1.673980e+003;6.111197e-002
1.675908e+003;6.017473e-002
1.677837e+003;5.961708e-002
1.679765e+003;5.875591e-002
1.681694e+003;5.783017e-002
1.683622e+003;5.661560e-002
1.685551e+003;5.624191e-002
1.687479e+003;5.637556e-002
1.689408e+003;5.592439e-002
1.691337e+003;5.529998e-002
1.693265e+003;5.459947e-002
1.695194e+003;5.356512e-002
1.697122e+003;5.328071e-002
1.699051e+003;5.282534e-002
1.700979e+003;5.241717e-002
1.702908e+003;5.289614e-002
1.704836e+003;5.281164e-002
1.706765e+003;5.280828e-002
1.708693e+003;5.300083e-002
1.710622e+003;5.259430e-002
1.712551e+003;5.182485e-002
1.714479e+003;5.096128e-002
1.716408e+003;4.995536e-002
1.718336e+003;4.953046e-002
1.720265e+003;4.982201e-002
1.722193e+003;5.000403e-002
1.724122e+003;4.983658e-002
1.726050e+003;4.964229e-002
1.727979e+003;4.927392e-002
1.729908e+003;4.900377e-002
1.731836e+003;4.876712e-002
1.733765e+003;4.861503e-002
1.735693e+003;4.923462e-002
1.737622e+003;4.975538e-002
1.739550e+003;4.967253e-002
1.741479e+003;4.915517e-002
1.743407e+003;4.792862e-002
1.745336e+003;4.597395e-002
1.747265e+003;4.409492e-002
1.749193e+003;4.256665e-002
1.751122e+003;4.096964e-002
1.753050e+003;3.947713e-002
1.754979e+003;3.795933e-002
1.756907e+003;3.645639e-002
1.758836e+003;3.528095e-002
1.760764e+003;3.397151e-002
1.762693e+003;3.290774e-002
1.764621e+003;3.202708e-002
1.766550e+003;3.107175e-002
1.768479e+003;3.059608e-002
1.770407e+003;3.002108e-002
1.772336e+003;2.935310e-002
1.774264e+003;2.899629e-002
1.776193e+003;2.888019e-002
1.778121e+003;2.874494e-002
1.780050e+003;2.834774e-002
1.781978e+003;2.803130e-002
1.783907e+003;2.766527e-002
1.785835e+003;2.705767e-002
1.787764e+003;2.657239e-002
1.789693e+003;2.609996e-002
1.791621e+003;2.537218e-002
1.793550e+003;2.513004e-002
1.795478e+003;2.537341e-002
1.797407e+003;2.510017e-002
1.799335e+003;2.454070e-002
1.801264e+003;2.416068e-002
1.803192e+003;2.375949e-002
1.805121e+003;2.335420e-002
1.807049e+003;2.335955e-002
1.808978e+003;2.323010e-002
1.810907e+003;2.298702e-002
1.812835e+003;2.286358e-002
1.814764e+003;2.289358e-002
1.816692e+003;2.281678e-002
1.818621e+003;2.244977e-002
1.820549e+003;2.204274e-002
1.822478e+003;2.213307e-002
1.824406e+003;2.250166e-002
1.826335e+003;2.258332e-002
1.828264e+003;2.252071e-002
1.830192e+003;2.256346e-002
1.832121e+003;2.252183e-002
1.834049e+003;2.252630e-002
1.835978e+003;2.269377e-002
1.837906e+003;2.266225e-002
1.839835e+003;2.241778e-002
1.841763e+003;2.204957e-002
1.843692e+003;2.169652e-002
1.845620e+003;2.175250e-002
1.847549e+003;2.183677e-002
1.849478e+003;2.180939e-002
1.851406e+003;2.174992e-002
1.853335e+003;2.165012e-002
1.855263e+003;2.183576e-002
1.857192e+003;2.180235e-002
1.859120e+003;2.141528e-002
1.861049e+003;2.133306e-002
1.862977e+003;2.146321e-002
1.864906e+003;2.146593e-002
1.866834e+003;2.146408e-002
1.868763e+003;2.136675e-002
1.870692e+003;2.121569e-002
1.872620e+003;2.110482e-002
1.874549e+003;2.125299e-002
1.876477e+003;2.129304e-002
1.878406e+003;2.122919e-002
1.880334e+003;2.121788e-002
1.882263e+003;2.127565e-002
1.884191e+003;2.123814e-002
1.886120e+003;2.115965e-002
1.888048e+003;2.119475e-002
1.889977e+003;2.149559e-002
1.891906e+003;2.163006e-002
1.893834e+003;2.152873e-002
1.895763e+003;2.136679e-002
1.897691e+003;2.119983e-002
1.899620e+003;2.125870e-002
1.901548e+003;2.131793e-002
1.903477e+003;2.110809e-002
1.905405e+003;2.101050e-002
1.907334e+003;2.092447e-002
1.909262e+003;2.068907e-002
1.911191e+003;2.067059e-002
1.913120e+003;2.086968e-002
1.915048e+003;2.070694e-002
1.916977e+003;2.047531e-002
1.918905e+003;2.073425e-002
1.920834e+003;2.069217e-002
1.922762e+003;2.069821e-002
1.924691e+003;2.084482e-002
1.926619e+003;2.060325e-002
1.928548e+003;2.049938e-002
1.930477e+003;2.044290e-002
1.932405e+003;2.028209e-002
1.934334e+003;2.014806e-002
1.936262e+003;2.007251e-002
1.938191e+003;1.980533e-002
1.940119e+003;1.942748e-002
1.942048e+003;1.932649e-002
1.943976e+003;1.940586e-002
1.945905e+003;1.935039e-002
1.947833e+003;1.947062e-002
1.949762e+003;1.970386e-002
1.951691e+003;1.982912e-002
1.953619e+003;1.968462e-002
1.955548e+003;1.947429e-002
1.957476e+003;1.955788e-002
1.959405e+003;1.950226e-002
1.961333e+003;1.931873e-002
1.963262e+003;1.919161e-002
1.965190e+003;1.915591e-002
1.967119e+003;1.908112e-002
1.969047e+003;1.893220e-002
1.970976e+003;1.895116e-002
1.972905e+003;1.905577e-002
1.974833e+003;1.927515e-002
1.976762e+003;1.944078e-002
1.978690e+003;1.941223e-002
1.980619e+003;1.921547e-002
1.982547e+003;1.922718e-002
1.984476e+003;1.940568e-002
1.986404e+003;1.941784e-002
1.988333e+003;1.925402e-002
1.990261e+003;1.918004e-002
1.992190e+003;1.920612e-002
1.994119e+003;1.909272e-002
1.996047e+003;1.889593e-002
1.997976e+003;1.882499e-002
1.999904e+003;1.897031e-002
2.001833e+003;1.900457e-002
2.003761e+003;1.904871e-002
2.005690e+003;1.900942e-002
2.007618e+003;1.912464e-002
2.009547e+003;1.915726e-002
2.011476e+003;1.916297e-002
2.013404e+003;1.917592e-002
2.015333e+003;1.918191e-002
2.017261e+003;1.931796e-002
2.019190e+003;1.938670e-002
2.021118e+003;1.925264e-002
2.023047e+003;1.898121e-002
2.024975e+003;1.888856e-002
2.026904e+003;1.876586e-002
2.028833e+003;1.857949e-002
2.030761e+003;1.853726e-002
2.032690e+003;1.880952e-002
2.034618e+003;1.886776e-002
2.036547e+003;1.877482e-002
2.038475e+003;1.879945e-002
2.040404e+003;1.878364e-002
2.042332e+003;1.895601e-002
2.044261e+003;1.902306e-002
2.046189e+003;1.891243e-002
2.048118e+003;1.870462e-002
2.050047e+003;1.865267e-002
2.051975e+003;1.879672e-002
2.053904e+003;1.889551e-002
2.055832e+003;1.880758e-002
2.057761e+003;1.870549e-002
2.059689e+003;1.869418e-002
2.061618e+003;1.854881e-002
2.063546e+003;1.830036e-002
2.065475e+003;1.847057e-002
2.067404e+003;1.877897e-002
2.069332e+003;1.878828e-002
2.071260e+003;1.865935e-002
2.073189e+003;1.875669e-002
2.075118e+003;1.881122e-002
2.077046e+003;1.878509e-002
2.078975e+003;1.899135e-002
2.080903e+003;1.919171e-002
2.082832e+003;1.908029e-002
2.084760e+003;1.898377e-002
2.086689e+003;1.906754e-002
2.088617e+003;1.899686e-002
2.090546e+003;1.895919e-002
2.092475e+003;1.905726e-002
2.094403e+003;1.913042e-002
2.096332e+003;1.905775e-002
2.098260e+003;1.907873e-002
2.100189e+003;1.920713e-002
2.102117e+003;1.924159e-002
2.104046e+003;1.911145e-002
2.105974e+003;1.928987e-002
2.107903e+003;1.941999e-002
2.109832e+003;1.949051e-002
2.111760e+003;1.969249e-002
2.113688e+003;1.957619e-002
2.115617e+003;1.918368e-002
2.117546e+003;1.910913e-002
2.119474e+003;1.934488e-002
2.121403e+003;1.965040e-002
2.123331e+003;1.996093e-002
2.125260e+003;2.010201e-002
2.127188e+003;2.046680e-002
2.129117e+003;2.095580e-002
2.131045e+003;2.122307e-002
2.132974e+003;2.122811e-002
2.134903e+003;2.099579e-002
2.136831e+003;2.084736e-002
2.138760e+003;2.082549e-002
2.140688e+003;2.060686e-002
2.142617e+003;2.056302e-002
2.144545e+003;2.045190e-002
2.146474e+003;2.044912e-002
2.148402e+003;2.052202e-002
2.150331e+003;2.071841e-002
2.152260e+003;2.094283e-002
2.154188e+003;2.090736e-002
2.156117e+003;2.073092e-002
2.158045e+003;2.047777e-002
2.159974e+003;2.049521e-002
2.161902e+003;2.084465e-002
2.163831e+003;2.113516e-002
2.165759e+003;2.123967e-002
2.167688e+003;2.139530e-002
2.169616e+003;2.149158e-002
2.171545e+003;2.153716e-002
2.173474e+003;2.164058e-002
2.175402e+003;2.160596e-002
2.177331e+003;2.161091e-002
2.179259e+003;2.183952e-002
2.181188e+003;2.194849e-002
2.183116e+003;2.189273e-002
2.185045e+003;2.191674e-002
2.186973e+003;2.190556e-002
2.188902e+003;2.166427e-002
2.190831e+003;2.164577e-002
2.192759e+003;2.192441e-002
2.194688e+003;2.199952e-002
2.196616e+003;2.195243e-002
2.198545e+003;2.205170e-002
2.200473e+003;2.193546e-002
2.202402e+003;2.151756e-002
2.204330e+003;2.129910e-002
2.206259e+003;2.111780e-002
2.208188e+003;2.104277e-002
2.210116e+003;2.123142e-002
2.212044e+003;2.135252e-002
2.213973e+003;2.128605e-002
2.215902e+003;2.128455e-002
2.217830e+003;2.137445e-002
2.219759e+003;2.127091e-002
2.221687e+003;2.127885e-002
2.223616e+003;2.137305e-002
2.225544e+003;2.139658e-002
2.227473e+003;2.147149e-002
2.229401e+003;2.154283e-002
2.231330e+003;2.148608e-002
2.233259e+003;2.144358e-002
2.235187e+003;2.134347e-002
2.237116e+003;2.144709e-002
2.239044e+003;2.171369e-002
2.240973e+003;2.181977e-002
2.242901e+003;2.166033e-002
2.244830e+003;2.126813e-002
2.246758e+003;2.131208e-002
2.248687e+003;2.171731e-002
2.250615e+003;2.201349e-002
2.252544e+003;2.218722e-002
2.254473e+003;2.248107e-002
2.256401e+003;2.255875e-002
2.258330e+003;2.254734e-002
2.260258e+003;2.236838e-002
2.262187e+003;2.223343e-002
2.264115e+003;2.228428e-002
2.266044e+003;2.219876e-002
2.267972e+003;2.190500e-002
2.269901e+003;2.163233e-002
2.271830e+003;2.135391e-002
2.273758e+003;2.132217e-002
2.275687e+003;2.141524e-002
2.277615e+003;2.132844e-002
2.279544e+003;2.124081e-002
2.281472e+003;2.144706e-002
2.283401e+003;2.161481e-002
2.285329e+003;2.158284e-002
2.287258e+003;2.125835e-002
2.289187e+003;2.092019e-002
2.291115e+003;2.072098e-002
2.293043e+003;2.081458e-002
2.294972e+003;2.107021e-002
2.296901e+003;2.106392e-002
2.298829e+003;2.100879e-002
2.300758e+003;2.112406e-002
2.302686e+003;2.134566e-002
2.304615e+003;2.130895e-002
2.306543e+003;2.123587e-002
2.308472e+003;2.131274e-002
2.310400e+003;2.139613e-002
2.312329e+003;2.149593e-002
2.314258e+003;2.170568e-002
2.316186e+003;2.185482e-002
2.318115e+003;2.164946e-002
2.320043e+003;2.176295e-002
2.321972e+003;2.204814e-002
2.323900e+003;2.221400e-002
2.325829e+003;2.226513e-002
2.327757e+003;2.221512e-002
2.329686e+003;2.230053e-002
2.331615e+003;2.264141e-002
2.333543e+003;2.297504e-002
2.335472e+003;2.286085e-002
2.337400e+003;2.280260e-002
2.339329e+003;2.299551e-002
2.341257e+003;2.317658e-002
2.343186e+003;2.338683e-002
2.345114e+003;2.336791e-002
2.347043e+003;2.328826e-002
2.348971e+003;2.348160e-002
2.350900e+003;2.333344e-002
2.352829e+003;2.306322e-002
2.354757e+003;2.341522e-002
2.356686e+003;2.391725e-002
2.358614e+003;2.397002e-002
2.360543e+003;2.403147e-002
2.362471e+003;2.419879e-002
2.364400e+003;2.429574e-002
2.366328e+003;2.401494e-002
2.368257e+003;2.382921e-002
2.370186e+003;2.414215e-002
2.372114e+003;2.417297e-002
2.374042e+003;2.406726e-002
2.375971e+003;2.405973e-002
2.377900e+003;2.407066e-002
2.379828e+003;2.417714e-002
2.381757e+003;2.430415e-002
2.383685e+003;2.435317e-002
2.385614e+003;2.424139e-002
2.387542e+003;2.390633e-002
2.389471e+003;2.407126e-002
2.391399e+003;2.464804e-002
2.393328e+003;2.482921e-002
2.395257e+003;2.490015e-002
2.397185e+003;2.481903e-002
2.399114e+003;2.488710e-002
2.401042e+003;2.518078e-002
2.402971e+003;2.528349e-002
2.404899e+003;2.526506e-002
2.406828e+003;2.534591e-002
2.408756e+003;2.532251e-002
2.410685e+003;2.527285e-002
2.412614e+003;2.527710e-002
2.414542e+003;2.511586e-002
2.416471e+003;2.476767e-002
2.418399e+003;2.482380e-002
2.420328e+003;2.534675e-002
2.422256e+003;2.585447e-002
2.424185e+003;2.610876e-002
2.426113e+003;2.590483e-002
2.428042e+003;2.559474e-002
2.429970e+003;2.548334e-002
2.431899e+003;2.556166e-002
2.433828e+003;2.556219e-002
2.435756e+003;2.530537e-002
2.437685e+003;2.489787e-002
2.439613e+003;2.504337e-002
2.441542e+003;2.518892e-002
2.443470e+003;2.496454e-002
2.445399e+003;2.495644e-002
2.447327e+003;2.503274e-002
2.449256e+003;2.489387e-002
2.451185e+003;2.486327e-002
2.453113e+003;2.499251e-002
2.455042e+003;2.487562e-002
2.456970e+003;2.472148e-002
2.458899e+003;2.461392e-002
2.460827e+003;2.436708e-002
2.462756e+003;2.448801e-002
2.464684e+003;2.447157e-002
2.466613e+003;2.450098e-002
2.468542e+003;2.462387e-002
2.470470e+003;2.458306e-002
2.472398e+003;2.480258e-002
2.474327e+003;2.486032e-002
2.476256e+003;2.492991e-002
2.478184e+003;2.513626e-002
2.480113e+003;2.538852e-002
2.482041e+003;2.551732e-002
2.483970e+003;2.558272e-002
2.485898e+003;2.548014e-002
2.487827e+003;2.536983e-002
2.489755e+003;2.575700e-002
2.491684e+003;2.582444e-002
2.493613e+003;2.578217e-002
2.495541e+003;2.562444e-002
2.497470e+003;2.529277e-002
2.499398e+003;2.565055e-002
2.501327e+003;2.582581e-002
2.503255e+003;2.561864e-002
2.505184e+003;2.566964e-002
2.507112e+003;2.553046e-002
2.509041e+003;2.563705e-002
2.510969e+003;2.585802e-002
2.512898e+003;2.614529e-002
2.514827e+003;2.663114e-002
2.516755e+003;2.674308e-002
2.518684e+003;2.697131e-002
2.520612e+003;2.738010e-002
2.522541e+003;2.768875e-002
2.524469e+003;2.798458e-002
2.526398e+003;2.816450e-002
2.528326e+003;2.814219e-002
2.530255e+003;2.828511e-002
2.532184e+003;2.864045e-002
2.534112e+003;2.887867e-002
2.536041e+003;2.897571e-002
2.537969e+003;2.915235e-002
2.539898e+003;2.940709e-002
2.541826e+003;2.965014e-002
2.543755e+003;2.994049e-002
2.545683e+003;3.034380e-002
2.547612e+003;3.064828e-002
2.549541e+003;3.094357e-002
2.551469e+003;3.140719e-002
2.553397e+003;3.181953e-002
2.555326e+003;3.216768e-002
2.557255e+003;3.251864e-002
2.559183e+003;3.267787e-002
2.561112e+003;3.316040e-002
2.563040e+003;3.378344e-002
2.564969e+003;3.409005e-002
2.566897e+003;3.432612e-002
2.568826e+003;3.496887e-002
2.570754e+003;3.542171e-002
2.572683e+003;3.545249e-002
2.574612e+003;3.598775e-002
2.576540e+003;3.694090e-002
2.578469e+003;3.759458e-002
2.580397e+003;3.808901e-002
2.582326e+003;3.847651e-002
2.584254e+003;3.824769e-002
2.586183e+003;3.741899e-002
2.588111e+003;3.689354e-002
2.590040e+003;3.638620e-002
2.591969e+003;3.598998e-002
2.593897e+003;3.564034e-002
2.595826e+003;3.542656e-002
2.597754e+003;3.560459e-002
2.599683e+003;3.573926e-002
2.601611e+003;3.562969e-002
2.603540e+003;3.578243e-002
2.605468e+003;3.635813e-002
2.607397e+003;3.682310e-002
2.609325e+003;3.693214e-002
2.611254e+003;3.706986e-002
2.613183e+003;3.742629e-002
2.615111e+003;3.775763e-002
2.617040e+003;3.794674e-002
2.618968e+003;3.783929e-002
2.620897e+003;3.752760e-002
2.622825e+003;3.746464e-002
2.624754e+003;3.748830e-002
2.626682e+003;3.715088e-002
2.628611e+003;3.693907e-002
2.630540e+003;3.685448e-002
2.632468e+003;3.674325e-002
2.634396e+003;3.658401e-002
2.636325e+003;3.659800e-002
2.638254e+003;3.699758e-002
2.640182e+003;3.729185e-002
2.642111e+003;3.766540e-002
2.644039e+003;3.828804e-002
2.645968e+003;3.862077e-002
2.647896e+003;3.911641e-002
2.649825e+003;3.962263e-002
2.651753e+003;3.974512e-002
2.653682e+003;3.990644e-002
2.655611e+003;4.025590e-002
2.657539e+003;4.067844e-002
2.659468e+003;4.090025e-002
2.661396e+003;4.087866e-002
2.663325e+003;4.086744e-002
2.665253e+003;4.111724e-002
2.667182e+003;4.129423e-002
2.669110e+003;4.142419e-002
2.671039e+003;4.158030e-002
2.672968e+003;4.170301e-002
2.674896e+003;4.174452e-002
2.676825e+003;4.189042e-002
2.678753e+003;4.199793e-002
2.680682e+003;4.215844e-002
2.682610e+003;4.213394e-002
2.684539e+003;4.195891e-002
2.686467e+003;4.206173e-002
2.688396e+003;4.217619e-002
2.690324e+003;4.224794e-002
2.692253e+003;4.220405e-002
2.694182e+003;4.214340e-002
2.696110e+003;4.239598e-002
2.698039e+003;4.276130e-002
2.699967e+003;4.311995e-002
2.701896e+003;4.361262e-002
2.703824e+003;4.439106e-002
2.705753e+003;4.515965e-002
2.707681e+003;4.602946e-002
2.709610e+003;4.705944e-002
2.711539e+003;4.780081e-002
2.713467e+003;4.852825e-002
2.715396e+003;4.991314e-002
2.717324e+003;5.212145e-002
2.719253e+003;5.402570e-002
2.721181e+003;5.489899e-002
2.723110e+003;5.528353e-002
2.725038e+003;5.495893e-002
2.726967e+003;5.367796e-002
2.728896e+003;5.234648e-002
2.730824e+003;5.119071e-002
2.732752e+003;5.008185e-002
2.734681e+003;4.896935e-002
2.736610e+003;4.806073e-002
2.738538e+003;4.740487e-002
2.740467e+003;4.669568e-002
2.742395e+003;4.598820e-002
2.744324e+003;4.529136e-002
2.746252e+003;4.450059e-002
2.748181e+003;4.393930e-002
2.750109e+003;4.400566e-002
2.752038e+003;4.442233e-002
2.753967e+003;4.465233e-002
2.755895e+003;4.465520e-002
2.757824e+003;4.489789e-002
2.759752e+003;4.562939e-002
2.761681e+003;4.628593e-002
2.763609e+003;4.663403e-002
2.765538e+003;4.677837e-002
2.767466e+003;4.702665e-002
2.769395e+003;4.742730e-002
2.771323e+003;4.784890e-002
2.773252e+003;4.833611e-002
2.775181e+003;4.850436e-002
2.777109e+003;4.881594e-002
2.779038e+003;4.997741e-002
2.780966e+003;5.148561e-002
2.782895e+003;5.248263e-002
2.784823e+003;5.360872e-002
2.786752e+003;5.502553e-002
2.788680e+003;5.673301e-002
2.790609e+003;5.843177e-002
2.792538e+003;5.974226e-002
2.794466e+003;6.097114e-002
2.796395e+003;6.233602e-002
2.798323e+003;6.387491e-002
2.800252e+003;6.541263e-002
2.802180e+003;6.710233e-002
2.804109e+003;6.904909e-002
2.806037e+003;7.107072e-002
2.807966e+003;7.266380e-002
2.809895e+003;7.398520e-002
2.811823e+003;7.560314e-002
2.813751e+003;7.757521e-002
2.815680e+003;7.945061e-002
2.817609e+003;8.107919e-002
2.819537e+003;8.324774e-002
2.821466e+003;8.609678e-002
2.823394e+003;8.924966e-002
2.825323e+003;9.318824e-002
2.827251e+003;9.884953e-002
2.829180e+003;1.061016e-001
2.831108e+003;1.142972e-001
2.833037e+003;1.229350e-001
2.834966e+003;1.303953e-001
2.836894e+003;1.341984e-001
2.838823e+003;1.336980e-001
2.840751e+003;1.305277e-001
2.842680e+003;1.259316e-001
2.844608e+003;1.210562e-001
2.846537e+003;1.164986e-001
2.848465e+003;1.125366e-001
2.850394e+003;1.097718e-001
2.852323e+003;1.080787e-001
2.854251e+003;1.080917e-001
2.856180e+003;1.094981e-001
2.858108e+003;1.123751e-001
2.860037e+003;1.175577e-001
2.861965e+003;1.250635e-001
2.863894e+003;1.332593e-001
2.865822e+003;1.393121e-001
2.867751e+003;1.421630e-001
2.869679e+003;1.429053e-001
2.871608e+003;1.424399e-001
2.873536e+003;1.420659e-001
2.875465e+003;1.419583e-001
2.877394e+003;1.411068e-001
2.879322e+003;1.394647e-001
2.881251e+003;1.379739e-001
2.883179e+003;1.372318e-001
2.885108e+003;1.368382e-001
2.887036e+003;1.372424e-001
2.888965e+003;1.388638e-001
2.890893e+003;1.409076e-001
2.892822e+003;1.433949e-001
2.894750e+003;1.470539e-001
2.896679e+003;1.517746e-001
2.898608e+003;1.567688e-001
2.900536e+003;1.619324e-001
2.902465e+003;1.670608e-001
2.904393e+003;1.723319e-001
2.906322e+003;1.775927e-001
2.908250e+003;1.823432e-001
2.910179e+003;1.867199e-001
2.912107e+003;1.903464e-001
2.914036e+003;1.929941e-001
2.915965e+003;1.944941e-001
2.917893e+003;1.944846e-001
2.919822e+003;1.918226e-001
2.921750e+003;1.869696e-001
2.923679e+003;1.814930e-001
2.925607e+003;1.747344e-001
2.927536e+003;1.667311e-001
2.929464e+003;1.582518e-001
2.931393e+003;1.499989e-001
2.933322e+003;1.420731e-001
2.935250e+003;1.350517e-001
2.937178e+003;1.305134e-001
2.939107e+003;1.285318e-001
2.941036e+003;1.302396e-001
2.942964e+003;1.362378e-001
2.944893e+003;1.449149e-001
2.946821e+003;1.536449e-001
2.948750e+003;1.608287e-001
2.950678e+003;1.641858e-001
2.952607e+003;1.634686e-001
2.954535e+003;1.601226e-001
2.956464e+003;1.554326e-001
2.958393e+003;1.499411e-001
2.960321e+003;1.440114e-001
2.962250e+003;1.376201e-001
2.964178e+003;1.306188e-001
2.966107e+003;1.233864e-001
2.968035e+003;1.162087e-001
2.969964e+003;1.096003e-001
2.971892e+003;1.035608e-001
2.973821e+003;9.815095e-002
2.975750e+003;9.325612e-002
2.977678e+003;8.860609e-002
2.979607e+003;8.455285e-002
2.981535e+003;8.149230e-002
2.983464e+003;7.867633e-002
2.985392e+003;7.582904e-002
2.987321e+003;7.360113e-002
2.989249e+003;7.190134e-002
2.991178e+003;7.022525e-002
2.993106e+003;6.823789e-002
2.995035e+003;6.618804e-002
2.996964e+003;6.441011e-002
2.998892e+003;6.277426e-002
3.000821e+003;6.093713e-002
3.002749e+003;5.898225e-002
3.004678e+003;5.754375e-002
3.006606e+003;5.637903e-002
3.008535e+003;5.548028e-002
3.010463e+003;5.431863e-002
3.012392e+003;5.241007e-002
3.014321e+003;5.103473e-002
3.016249e+003;5.028960e-002
3.018177e+003;4.922460e-002
3.020106e+003;4.836752e-002
3.022035e+003;4.723472e-002
3.023963e+003;4.606424e-002
3.025892e+003;4.529427e-002
3.027820e+003;4.494885e-002
3.029749e+003;4.444461e-002
3.031677e+003;4.385894e-002
3.033606e+003;4.344142e-002
3.035534e+003;4.314432e-002
3.037463e+003;4.268976e-002
3.039392e+003;4.239777e-002
3.041320e+003;4.199563e-002
3.043249e+003;4.122547e-002
3.045177e+003;4.117123e-002
3.047106e+003;4.165498e-002
3.049034e+003;4.143206e-002
3.050963e+003;4.092915e-002
3.052891e+003;4.090964e-002
3.054820e+003;4.076400e-002
3.056749e+003;4.059712e-002
3.058677e+003;4.058475e-002
3.060606e+003;4.020352e-002
3.062534e+003;3.983798e-002
3.064463e+003;3.977787e-002
3.066391e+003;3.954452e-002
3.068320e+003;3.934536e-002
3.070248e+003;3.963338e-002
3.072177e+003;3.961980e-002
3.074105e+003;3.930992e-002
3.076034e+003;3.914817e-002
3.077963e+003;3.868502e-002
3.079891e+003;3.840668e-002
3.081820e+003;3.831739e-002
3.083748e+003;3.851467e-002
3.085677e+003;3.841808e-002
3.087605e+003;3.815514e-002
3.089534e+003;3.826322e-002
3.091462e+003;3.830921e-002
3.093391e+003;3.846978e-002
3.095320e+003;3.857362e-002
3.097248e+003;3.864257e-002
3.099177e+003;3.845421e-002
3.101105e+003;3.809791e-002
3.103034e+003;3.793607e-002
3.104962e+003;3.792913e-002
3.106891e+003;3.825080e-002
3.108819e+003;3.846351e-002
3.110748e+003;3.844393e-002
3.112677e+003;3.859234e-002
3.114605e+003;3.859361e-002
3.116533e+003;3.853951e-002
3.118462e+003;3.821979e-002
3.120391e+003;3.772695e-002
3.122319e+003;3.785538e-002
3.124248e+003;3.848357e-002
3.126176e+003;3.859336e-002
3.128105e+003;3.861722e-002
3.130033e+003;3.920220e-002
3.131962e+003;3.936234e-002
3.133890e+003;3.950214e-002
3.135819e+003;3.982189e-002
3.137748e+003;3.960339e-002
3.139676e+003;3.972773e-002
3.141605e+003;4.029356e-002
3.143533e+003;4.021595e-002
3.145462e+003;4.017135e-002
3.147390e+003;4.059552e-002
3.149319e+003;4.072003e-002
3.151247e+003;4.057504e-002
3.153176e+003;4.068197e-002
3.155104e+003;4.095763e-002
3.157033e+003;4.117931e-002
3.158962e+003;4.093465e-002
3.160890e+003;4.048359e-002
3.162819e+003;4.044202e-002
3.164747e+003;4.075934e-002
3.166676e+003;4.110632e-002
3.168604e+003;4.117217e-002
3.170533e+003;4.089224e-002
3.172461e+003;4.063230e-002
3.174390e+003;4.057020e-002
3.176319e+003;4.082547e-002
3.178247e+003;4.116084e-002
3.180176e+003;4.109735e-002
3.182104e+003;4.123575e-002
3.184033e+003;4.125287e-002
3.185961e+003;4.107743e-002
3.187890e+003;4.164393e-002
3.189818e+003;4.255218e-002
3.191747e+003;4.260079e-002
3.193676e+003;4.224757e-002
3.195604e+003;4.230400e-002
3.197532e+003;4.251056e-002
3.199461e+003;4.225415e-002
3.201390e+003;4.194636e-002
3.203318e+003;4.202366e-002
3.205247e+003;4.198651e-002
3.207175e+003;4.209437e-002
3.209104e+003;4.236361e-002
3.211032e+003;4.242338e-002
3.212961e+003;4.230221e-002
3.214889e+003;4.224086e-002
3.216818e+003;4.191859e-002
3.218747e+003;4.171935e-002
3.220675e+003;4.158340e-002
3.222604e+003;4.140513e-002
3.224532e+003;4.125597e-002
3.226461e+003;4.113673e-002
3.228389e+003;4.099251e-002
3.230318e+003;4.077128e-002
3.232246e+003;4.084164e-002
3.234175e+003;4.108566e-002
3.236104e+003;4.062758e-002
3.238032e+003;4.035188e-002
3.239961e+003;4.071450e-002
3.241889e+003;4.102167e-002
3.243818e+003;4.101916e-002
3.245746e+003;4.085485e-002
3.247675e+003;4.065061e-002
3.249603e+003;4.073219e-002
3.251532e+003;4.070377e-002
3.253460e+003;4.032595e-002
3.255389e+003;4.005662e-002
3.257318e+003;4.015401e-002
3.259246e+003;4.055147e-002
3.261175e+003;4.098519e-002
3.263103e+003;4.118230e-002
3.265032e+003;4.125969e-002
3.266960e+003;4.102914e-002
3.268889e+003;4.063154e-002
3.270817e+003;4.071989e-002
3.272746e+003;4.096432e-002
3.274675e+003;4.097463e-002
3.276603e+003;4.092424e-002
3.278531e+003;4.130615e-002
3.280460e+003;4.166825e-002
3.282389e+003;4.142350e-002
3.284317e+003;4.146658e-002
3.286246e+003;4.155138e-002
3.288174e+003;4.144446e-002
3.290103e+003;4.093287e-002
3.292031e+003;4.022231e-002
3.293960e+003;4.007603e-002
3.295888e+003;4.077990e-002
3.297817e+003;4.153013e-002
3.299746e+003;4.151675e-002
3.301674e+003;4.081386e-002
3.303603e+003;4.044639e-002
3.305531e+003;4.066105e-002
3.307460e+003;4.100103e-002
3.309388e+003;4.118507e-002
3.311317e+003;4.076294e-002
3.313245e+003;4.046137e-002
3.315174e+003;4.066028e-002
3.317103e+003;4.083122e-002
3.319031e+003;4.076538e-002
3.320960e+003;4.019091e-002
3.322888e+003;3.948726e-002
3.324817e+003;3.998505e-002
3.326745e+003;4.037675e-002
3.328674e+003;3.984175e-002
3.330602e+003;3.931130e-002
3.332531e+003;3.937398e-002
3.334459e+003;4.005750e-002
3.336388e+003;4.050320e-002
3.338317e+003;4.018436e-002
3.340245e+003;3.973924e-002
3.342174e+003;3.950355e-002
3.344102e+003;3.908204e-002
3.346031e+003;3.890505e-002
3.347959e+003;3.914781e-002
3.349888e+003;3.934794e-002
3.351816e+003;3.938904e-002
3.353745e+003;3.927916e-002
3.355674e+003;3.916162e-002
3.357602e+003;3.875486e-002
3.359531e+003;3.837381e-002
3.361459e+003;3.825493e-002
3.363388e+003;3.822884e-002
3.365316e+003;3.846467e-002
3.367245e+003;3.825511e-002
3.369173e+003;3.760213e-002
3.371102e+003;3.745171e-002
3.373031e+003;3.762226e-002
3.374959e+003;3.751348e-002
3.376887e+003;3.734651e-002
3.378816e+003;3.708440e-002
3.380745e+003;3.692860e-002
3.382673e+003;3.662993e-002
3.384602e+003;3.641517e-002
3.386530e+003;3.660200e-002
3.388459e+003;3.624480e-002
3.390387e+003;3.602583e-002
3.392316e+003;3.615084e-002
3.394244e+003;3.599837e-002
3.396173e+003;3.589939e-002
3.398102e+003;3.592422e-002
3.400030e+003;3.560441e-002
3.401959e+003;3.549922e-002
3.403887e+003;3.579776e-002
3.405816e+003;3.584515e-002
3.407744e+003;3.572088e-002
3.409673e+003;3.560923e-002
3.411601e+003;3.547877e-002
3.413530e+003;3.523420e-002
3.415458e+003;3.473346e-002
3.417387e+003;3.435725e-002
3.419316e+003;3.466186e-002
3.421244e+003;3.487766e-002
3.423173e+003;3.517322e-002
3.425101e+003;3.492409e-002
3.427030e+003;3.450847e-002
3.428958e+003;3.421623e-002
3.430887e+003;3.385594e-002
3.432815e+003;3.359342e-002
3.434744e+003;3.339249e-002
3.436673e+003;3.298920e-002
3.438601e+003;3.246636e-002
3.440530e+003;3.214306e-002
3.442458e+003;3.219276e-002
3.444387e+003;3.235362e-002
3.446315e+003;3.216768e-002
3.448244e+003;3.179992e-002
3.450172e+003;3.162630e-002
3.452101e+003;3.156280e-002
3.454030e+003;3.145307e-002
3.455958e+003;3.099079e-002
3.457886e+003;3.035695e-002
3.459815e+003;2.985718e-002
3.461744e+003;2.988955e-002
3.463672e+003;3.035670e-002
3.465601e+003;3.048969e-002
3.467529e+003;3.033624e-002
3.469458e+003;3.001047e-002
3.471386e+003;2.974490e-002
3.473315e+003;2.947556e-002
3.475243e+003;2.907249e-002
3.477172e+003;2.878827e-002
3.479101e+003;2.843971e-002
3.481029e+003;2.858524e-002
3.482958e+003;2.880024e-002
3.484886e+003;2.852459e-002
3.486815e+003;2.800957e-002
3.488743e+003;2.764662e-002
3.490672e+003;2.721896e-002
3.492600e+003;2.657866e-002
3.494529e+003;2.642676e-002
3.496458e+003;2.681850e-002
3.498386e+003;2.664707e-002
3.500315e+003;2.638588e-002
3.502243e+003;2.660842e-002
3.504172e+003;2.677279e-002
3.506100e+003;2.681716e-002
3.508029e+003;2.647789e-002
3.509957e+003;2.588313e-002
3.511886e+003;2.578593e-002
3.513814e+003;2.588724e-002
3.515743e+003;2.568219e-002
3.517672e+003;2.533319e-002
3.519600e+003;2.531286e-002
3.521529e+003;2.568391e-002
3.523457e+003;2.559776e-002
3.525386e+003;2.527032e-002
3.527314e+003;2.462787e-002
3.529243e+003;2.410099e-002
3.531171e+003;2.425019e-002
3.533100e+003;2.435307e-002
3.535029e+003;2.405840e-002
3.536957e+003;2.398987e-002
3.538885e+003;2.399582e-002
3.540814e+003;2.366127e-002
3.542743e+003;2.314880e-002
3.544671e+003;2.284388e-002
3.546600e+003;2.292310e-002
3.548528e+003;2.307178e-002
3.550457e+003;2.288303e-002
3.552385e+003;2.247081e-002
3.554314e+003;2.235097e-002
3.556242e+003;2.258765e-002
3.558171e+003;2.241541e-002
3.560100e+003;2.143599e-002
3.562028e+003;2.081837e-002
3.563957e+003;2.111975e-002
3.565885e+003;2.062976e-002
3.567814e+003;2.032691e-002
3.569742e+003;2.067493e-002
3.571671e+003;2.074586e-002
3.573599e+003;2.063077e-002
3.575528e+003;2.059376e-002
3.577457e+003;2.025591e-002
3.579385e+003;1.978421e-002
3.581314e+003;1.974533e-002
3.583242e+003;1.947090e-002
3.585171e+003;1.887707e-002
3.587099e+003;1.843824e-002
3.589028e+003;1.845242e-002
3.590956e+003;1.879295e-002
3.592885e+003;1.880277e-002
3.594813e+003;1.876129e-002
3.596742e+003;1.867536e-002
3.598671e+003;1.850995e-002
3.600599e+003;1.858495e-002
3.602528e+003;1.853422e-002
3.604456e+003;1.829922e-002
3.606385e+003;1.807284e-002
3.608313e+003;1.768607e-002
3.610242e+003;1.761813e-002
3.612170e+003;1.791615e-002
3.614099e+003;1.786661e-002
3.616028e+003;1.752100e-002
3.617956e+003;1.735006e-002
3.619885e+003;1.712291e-002
3.621813e+003;1.683872e-002
3.623742e+003;1.656191e-002
3.625670e+003;1.626929e-002
3.627599e+003;1.586395e-002
3.629527e+003;1.590759e-002
3.631456e+003;1.642483e-002
3.633385e+003;1.685036e-002
3.635313e+003;1.701194e-002
3.637241e+003;1.706004e-002
3.639170e+003;1.638158e-002
3.641099e+003;1.580429e-002
3.643027e+003;1.644383e-002
3.644956e+003;1.675234e-002
3.646884e+003;1.588402e-002
3.648813e+003;1.543121e-002
3.650741e+003;1.574938e-002
3.652670e+003;1.594771e-002
3.654598e+003;1.529847e-002
3.656527e+003;1.498525e-002
3.658456e+003;1.556310e-002
3.660384e+003;1.574519e-002
3.662313e+003;1.538624e-002
3.664241e+003;1.532912e-002
3.666170e+003;1.541126e-002
3.668098e+003;1.525063e-002
3.670027e+003;1.533234e-002
3.671955e+003;1.559044e-002
3.673884e+003;1.537470e-002
3.675813e+003;1.547451e-002
3.677741e+003;1.625752e-002
3.679669e+003;1.628762e-002
3.681598e+003;1.582165e-002
3.683527e+003;1.600405e-002
3.685455e+003;1.648750e-002
3.687384e+003;1.597926e-002
3.689312e+003;1.570689e-002
3.691241e+003;1.620775e-002
3.693169e+003;1.642249e-002
3.695098e+003;1.646637e-002
3.697026e+003;1.649813e-002
3.698955e+003;1.622337e-002
3.700884e+003;1.592334e-002
3.702812e+003;1.612968e-002
3.704741e+003;1.633647e-002
3.706669e+003;1.604114e-002
3.708598e+003;1.605297e-002
3.710526e+003;1.645656e-002
3.712455e+003;1.656580e-002
3.714383e+003;1.649930e-002
3.716312e+003;1.634201e-002
3.718240e+003;1.648547e-002
3.720169e+003;1.617811e-002
3.722098e+003;1.566305e-002
3.724026e+003;1.582821e-002
3.725955e+003;1.613952e-002
3.727883e+003;1.651727e-002
3.729812e+003;1.668936e-002
3.731740e+003;1.642872e-002
3.733669e+003;1.613639e-002
3.735597e+003;1.646465e-002
3.737526e+003;1.718660e-002
3.739455e+003;1.708468e-002
3.741383e+003;1.670496e-002
3.743312e+003;1.618722e-002
3.745240e+003;1.609289e-002
3.747169e+003;1.607446e-002
3.749097e+003;1.587305e-002
3.751026e+003;1.588326e-002
3.752954e+003;1.598827e-002
3.754883e+003;1.646403e-002
3.756812e+003;1.688333e-002
3.758740e+003;1.748423e-002
3.760668e+003;1.813115e-002
3.762597e+003;1.828429e-002
3.764526e+003;1.781606e-002
3.766454e+003;1.757317e-002
3.768383e+003;1.698978e-002
3.770311e+003;1.710788e-002
3.772240e+003;1.767748e-002
3.774168e+003;1.757300e-002
3.776097e+003;1.751076e-002
3.778025e+003;1.758576e-002
3.779954e+003;1.692439e-002
3.781883e+003;1.687565e-002
3.783811e+003;1.746126e-002
3.785740e+003;1.729083e-002
3.787668e+003;1.693714e-002
3.789597e+003;1.721756e-002
3.791525e+003;1.717175e-002
3.793454e+003;1.671584e-002
3.795382e+003;1.679914e-002
3.797311e+003;1.713600e-002
3.799240e+003;1.694165e-002
3.801168e+003;1.648712e-002
3.803097e+003;1.662298e-002
3.805025e+003;1.640945e-002
3.806954e+003;1.659985e-002
3.808882e+003;1.720370e-002
3.810811e+003;1.735617e-002
3.812739e+003;1.728634e-002
3.814668e+003;1.656064e-002
3.816596e+003;1.633131e-002
3.818525e+003;1.675544e-002
3.820454e+003;1.688191e-002
3.822382e+003;1.736427e-002
3.824311e+003;1.830928e-002
3.826239e+003;1.840053e-002
3.828168e+003;1.749993e-002
3.830096e+003;1.674824e-002
3.832025e+003;1.719822e-002
3.833953e+003;1.755571e-002
3.835882e+003;1.745288e-002
3.837811e+003;1.751855e-002
3.839739e+003;1.777958e-002
3.841667e+003;1.793076e-002
3.843596e+003;1.794713e-002
3.845525e+003;1.790863e-002
3.847453e+003;1.788653e-002
3.849382e+003;1.783194e-002
3.851310e+003;1.719412e-002
3.853239e+003;1.681922e-002
3.855167e+003;1.809243e-002
3.857096e+003;1.890863e-002
3.859024e+003;1.839565e-002
3.860953e+003;1.805457e-002
3.862882e+003;1.806092e-002
3.864810e+003;1.797959e-002
3.866739e+003;1.824731e-002
3.868667e+003;1.798591e-002
3.870596e+003;1.812411e-002
3.872524e+003;1.843541e-002
3.874453e+003;1.820025e-002
3.876381e+003;1.862334e-002
3.878310e+003;1.895300e-002
3.880239e+003;1.907824e-002
3.882167e+003;1.904615e-002
3.884096e+003;1.858135e-002
3.886024e+003;1.868377e-002
3.887953e+003;1.907367e-002
3.889881e+003;1.905404e-002
3.891810e+003;1.902299e-002
3.893738e+003;1.902849e-002
3.895667e+003;1.931315e-002
3.897595e+003;1.935943e-002
3.899524e+003;1.878914e-002
3.901453e+003;1.826407e-002
3.903381e+003;1.847499e-002
3.905310e+003;1.874790e-002
3.907238e+003;1.845221e-002
3.909167e+003;1.817385e-002
3.911095e+003;1.862742e-002
3.913024e+003;1.900907e-002
3.914952e+003;1.917499e-002
3.916881e+003;1.898900e-002
3.918810e+003;1.871895e-002
3.920738e+003;1.902991e-002
3.922667e+003;1.903722e-002
3.924595e+003;1.906491e-002
3.926524e+003;1.985679e-002
3.928452e+003;2.017826e-002
3.930381e+003;1.940929e-002
3.932309e+003;1.903784e-002
3.934238e+003;1.922091e-002
3.936167e+003;1.941324e-002
3.938095e+003;1.952291e-002
3.940023e+003;1.993574e-002
3.941952e+003;2.016962e-002
3.943881e+003;1.965623e-002
3.945809e+003;1.895940e-002
3.947738e+003;1.866104e-002
3.949666e+003;1.917191e-002
3.951595e+003;1.949924e-002
3.953523e+003;1.918662e-002
3.955452e+003;1.922174e-002
3.957380e+003;1.940929e-002
3.959309e+003;1.933854e-002
3.961238e+003;1.943354e-002
3.963166e+003;1.946417e-002
3.965095e+003;1.972651e-002
3.967023e+003;2.007182e-002
3.968952e+003;1.985027e-002
3.970880e+003;1.960658e-002
3.972809e+003;2.008619e-002
3.974737e+003;2.045089e-002
3.976666e+003;2.053311e-002
3.978594e+003;1.989713e-002
3.980523e+003;1.948815e-002
3.982452e+003;2.015275e-002
3.984380e+003;2.048771e-002
3.986309e+003;2.034431e-002
3.988237e+003;2.075535e-002
3.990166e+003;2.106347e-002
3.992094e+003;2.082549e-002
3.994023e+003;2.120038e-002
3.995951e+003;2.138478e-002
3.997880e+003;2.132777e-002
3.999809e+003;2.134403e-002
4.001737e+003;0.000000e+000
