3.992094e+002;0.000000e+000
4.011380e+002;0.000000e+000
4.030665e+002;0.000000e+000
4.049951e+002;0.000000e+000
4.069236e+002;0.000000e+000
4.088522e+002;0.000000e+000
4.107807e+002;0.000000e+000
4.127093e+002;0.000000e+000
4.146378e+002;0.000000e+000
4.165664e+002;0.000000e+000
4.184949e+002;0.000000e+000
4.204235e+002;0.000000e+000
4.223520e+002;0.000000e+000
4.242806e+002;0.000000e+000
4.262091e+002;0.000000e+000
4.281377e+002;0.000000e+000
4.300662e+002;0.000000e+000
4.319948e+002;0.000000e+000
4.339233e+002;0.000000e+000
4.358519e+002;0.000000e+000
4.377804e+002;0.000000e+000
4.397090e+002;0.000000e+000
4.416375e+002;0.000000e+000
4.435660e+002;0.000000e+000
4.454946e+002;0.000000e+000
4.474232e+002;0.000000e+000
4.493517e+002;0.000000e+000
4.512802e+002;0.000000e+000
4.532088e+002;0.000000e+000
4.551373e+002;0.000000e+000
4.570659e+002;0.000000e+000
4.589944e+002;0.000000e+000
4.609230e+002;0.000000e+000
4.628515e+002;0.000000e+000
4.647801e+002;0.000000e+000
4.667086e+002;0.000000e+000
4.686372e+002;0.000000e+000
4.705657e+002;0.000000e+000
4.724943e+002;0.000000e+000
4.744228e+002;0.000000e+000
4.763513e+002;0.000000e+000
4.782799e+002;0.000000e+000
4.802085e+002;0.000000e+000
4.821370e+002;0.000000e+000
4.840656e+002;0.000000e+000
4.859941e+002;0.000000e+000
4.879226e+002;0.000000e+000
4.898512e+002;0.000000e+000
4.917798e+002;0.000000e+000
4.937083e+002;0.000000e+000
4.956368e+002;0.000000e+000
4.975654e+002;0.000000e+000
4.994939e+002;0.000000e+000
5.014225e+002;0.000000e+000
5.033510e+002;0.000000e+000
5.052796e+002;0.000000e+000
5.072081e+002;0.000000e+000
5.091367e+002;0.000000e+000
5.110652e+002;0.000000e+000
5.129938e+002;0.000000e+000
5.149223e+002;0.000000e+000
5.168509e+002;0.000000e+000
5.187794e+002;0.000000e+000
5.207079e+002;0.000000e+000
5.226365e+002;0.000000e+000
5.245651e+002;0.000000e+000
5.264936e+002;0.000000e+000
5.284222e+002;0.000000e+000
5.303507e+002;0.000000e+000
5.322792e+002;0.000000e+000
5.342078e+002;0.000000e+000
5.361364e+002;0.000000e+000
5.380649e+002;0.000000e+000
5.399935e+002;0.000000e+000
5.419220e+002;0.000000e+000
5.438505e+002;0.000000e+000
5.457791e+002;0.000000e+000
5.477076e+002;0.000000e+000
5.496362e+002;0.000000e+000
5.515648e+002;0.000000e+000
5.534933e+002;0.000000e+000
5.554218e+002;0.000000e+000
5.573504e+002;0.000000e+000
5.592789e+002;0.000000e+000
5.612075e+002;0.000000e+000
5.631360e+002;0.000000e+000
5.650646e+002;0.000000e+000
5.669931e+002;0.000000e+000
5.689217e+002;0.000000e+000
5.708502e+002;0.000000e+000
5.727787e+002;0.000000e+000
5.747073e+002;0.000000e+000
5.766359e+002;0.000000e+000
5.785644e+002;0.000000e+000
5.804930e+002;0.000000e+000
5.824215e+002;0.000000e+000
5.843500e+002;0.000000e+000
5.862786e+002;0.000000e+000
5.882072e+002;0.000000e+000
5.901357e+002;0.000000e+000
5.920643e+002;0.000000e+000
5.939928e+002;0.000000e+000
5.959213e+002;0.000000e+000
5.978499e+002;0.000000e+000
5.997784e+002;3.204977e-002
6.017070e+002;3.968529e-002
6.036355e+002;3.413242e-002
6.055641e+002;2.558029e-002
6.074926e+002;2.778143e-002
6.094211e+002;3.089903e-002
6.113497e+002;3.497397e-002
6.132783e+002;3.525026e-002
6.152068e+002;3.088899e-002
6.171354e+002;3.132057e-002
6.190639e+002;3.258374e-002
6.209924e+002;3.201206e-002
6.229210e+002;3.633471e-002
6.248495e+002;4.247541e-002
6.267781e+002;4.348625e-002
6.287067e+002;3.657925e-002
6.306352e+002;3.259185e-002
6.325637e+002;2.877510e-002
6.344923e+002;2.742750e-002
6.364208e+002;3.020497e-002
6.383494e+002;3.318007e-002
6.402780e+002;3.320210e-002
6.422065e+002;3.512609e-002
6.441350e+002;3.624599e-002
6.460636e+002;3.472244e-002
6.479921e+002;2.941160e-002
6.499207e+002;2.919945e-002
6.518492e+002;3.341589e-002
6.537778e+002;3.396875e-002
6.557063e+002;3.253981e-002
6.576349e+002;3.343690e-002
6.595634e+002;3.597897e-002
6.614919e+002;3.698319e-002
6.634205e+002;3.477718e-002
6.653491e+002;3.270137e-002
6.672776e+002;2.977009e-002
6.692062e+002;3.193317e-002
6.711347e+002;3.399143e-002
6.730632e+002;3.352401e-002
6.749918e+002;3.332083e-002
6.769203e+002;3.327775e-002
6.788489e+002;3.212379e-002
6.807775e+002;3.143063e-002
6.827060e+002;3.310711e-002
6.846345e+002;3.499940e-002
6.865631e+002;3.487088e-002
6.884916e+002;3.439157e-002
6.904202e+002;3.298291e-002
6.923488e+002;3.346599e-002
6.942773e+002;3.501286e-002
6.962058e+002;3.618106e-002
6.981344e+002;3.734601e-002
7.000629e+002;3.813561e-002
7.019915e+002;3.798587e-002
7.039200e+002;3.912413e-002
7.058486e+002;4.281878e-002
7.077771e+002;4.860277e-002
7.097057e+002;5.954277e-002
7.116342e+002;7.563556e-002
7.135627e+002;8.041462e-002
7.154913e+002;6.840809e-002
7.174199e+002;5.422169e-002
7.193484e+002;4.654540e-002
7.212770e+002;4.232394e-002
7.232055e+002;4.035846e-002
7.251340e+002;3.915049e-002
7.270626e+002;3.826267e-002
7.289911e+002;3.681848e-002
7.309197e+002;3.653222e-002
7.328483e+002;3.664050e-002
7.347768e+002;3.535165e-002
7.367053e+002;3.566768e-002
7.386339e+002;3.663224e-002
7.405624e+002;3.693867e-002
7.424910e+002;3.790592e-002
7.444196e+002;3.786463e-002
7.463481e+002;3.828970e-002
7.482766e+002;3.873175e-002
7.502052e+002;3.960220e-002
7.521337e+002;4.053605e-002
7.540623e+002;4.067127e-002
7.559908e+002;3.997470e-002
7.579194e+002;4.018127e-002
7.598479e+002;4.092988e-002
7.617765e+002;4.100500e-002
7.637050e+002;4.140702e-002
7.656335e+002;4.205710e-002
7.675621e+002;4.210353e-002
7.694907e+002;4.143221e-002
7.714192e+002;4.028622e-002
7.733478e+002;4.048585e-002
7.752763e+002;4.001924e-002
7.772048e+002;4.041082e-002
7.791334e+002;4.154285e-002
7.810620e+002;4.165571e-002
7.829905e+002;4.243682e-002
7.849191e+002;4.400086e-002
7.868476e+002;4.518152e-002
7.887761e+002;4.587068e-002
7.907047e+002;4.667402e-002
7.926332e+002;4.722405e-002
7.945618e+002;4.838952e-002
7.964903e+002;5.076765e-002
7.984189e+002;5.375678e-002
8.003474e+002;5.628344e-002
8.022759e+002;5.871991e-002
8.042045e+002;6.121519e-002
8.061331e+002;6.393690e-002
8.080616e+002;6.699947e-002
8.099902e+002;6.769260e-002
8.119187e+002;6.533310e-002
8.138472e+002;6.118227e-002
8.157758e+002;5.793742e-002
8.177043e+002;5.673932e-002
8.196329e+002;5.651755e-002
8.215615e+002;5.607400e-002
8.234900e+002;5.454867e-002
8.254185e+002;5.342499e-002
8.273471e+002;5.476193e-002
8.292756e+002;5.548898e-002
8.312042e+002;5.543194e-002
8.331328e+002;5.713449e-002
8.350613e+002;5.951856e-002
8.369898e+002;6.316550e-002
8.389184e+002;7.046679e-002
8.408469e+002;7.714984e-002
8.427755e+002;7.746996e-002
8.447040e+002;7.453735e-002
8.466326e+002;7.350203e-002
8.485611e+002;7.066587e-002
8.504897e+002;6.508745e-002
8.524182e+002;6.190938e-002
8.543467e+002;6.087187e-002
8.562753e+002;6.107578e-002
8.582039e+002;6.150881e-002
8.601324e+002;6.321003e-002
8.620610e+002;6.671382e-002
8.639895e+002;7.082630e-002
8.659180e+002;7.688441e-002
8.678466e+002;8.643270e-002
8.697751e+002;9.960670e-002
8.717037e+002;1.154843e-001
8.736323e+002;1.302867e-001
8.755608e+002;1.367993e-001
8.774893e+002;1.282926e-001
8.794179e+002;1.094616e-001
8.813464e+002;9.181145e-002
8.832750e+002;7.836480e-002
8.852036e+002;6.597080e-002
8.871321e+002;5.672323e-002
8.890606e+002;5.247314e-002
8.909892e+002;5.182133e-002
8.929177e+002;5.331248e-002
8.948463e+002;5.682855e-002
8.967748e+002;6.105995e-002
8.987034e+002;6.388842e-002
9.006319e+002;6.342287e-002
9.025605e+002;5.952837e-002
9.044890e+002;5.465373e-002
9.064175e+002;5.100435e-002
9.083461e+002;4.862263e-002
9.102747e+002;4.681100e-002
9.122032e+002;4.573916e-002
9.141318e+002;4.498784e-002
9.160603e+002;4.442864e-002
9.179888e+002;4.436632e-002
9.199174e+002;4.453374e-002
9.218459e+002;4.441719e-002
9.237745e+002;4.434438e-002
9.257031e+002;4.430229e-002
9.276316e+002;4.447856e-002
9.295601e+002;4.459865e-002
9.314887e+002;4.485086e-002
9.334172e+002;4.557750e-002
9.353458e+002;4.683938e-002
9.372744e+002;4.822572e-002
9.392029e+002;4.922846e-002
9.411314e+002;4.975352e-002
9.430600e+002;4.996570e-002
9.449885e+002;4.961295e-002
9.469171e+002;4.925700e-002
9.488456e+002;4.972176e-002
9.507742e+002;5.018069e-002
9.527027e+002;5.069645e-002
9.546313e+002;5.154176e-002
9.565598e+002;5.231830e-002
9.584883e+002;5.332791e-002
9.604169e+002;5.503339e-002
9.623455e+002;5.780390e-002
9.642740e+002;6.183171e-002
9.662026e+002;6.689862e-002
9.681311e+002;7.391617e-002
9.700596e+002;8.311163e-002
9.719882e+002;9.065574e-002
9.739167e+002;9.244689e-002
9.758453e+002;8.828906e-002
9.777739e+002;7.975142e-002
9.797024e+002;6.989785e-002
9.816309e+002;6.148686e-002
9.835595e+002;5.599253e-002
9.854880e+002;5.365708e-002
9.874166e+002;5.348236e-002
9.893452e+002;5.506893e-002
9.912737e+002;5.872196e-002
9.932022e+002;6.476636e-002
9.951307e+002;7.162718e-002
9.970593e+002;7.694093e-002
9.989879e+002;7.745479e-002
1.000916e+003;7.249048e-002
1.002845e+003;6.573740e-002
1.004773e+003;6.052382e-002
1.006702e+003;5.731809e-002
1.008631e+003;5.534450e-002
1.010559e+003;5.372640e-002
1.012488e+003;5.197398e-002
1.014416e+003;5.047528e-002
1.016345e+003;4.967550e-002
1.018273e+003;4.902996e-002
1.020202e+003;4.836037e-002
1.022130e+003;4.771322e-002
1.024059e+003;4.728013e-002
1.025988e+003;4.779248e-002
1.027916e+003;4.919680e-002
1.029845e+003;5.031011e-002
1.031773e+003;5.157564e-002
1.033702e+003;5.335230e-002
1.035630e+003;5.490895e-002
1.037559e+003;5.536132e-002
1.039487e+003;5.476794e-002
1.041416e+003;5.383268e-002
1.043344e+003;5.286310e-002
1.045273e+003;5.139684e-002
1.047202e+003;4.964129e-002
1.049130e+003;4.759161e-002
1.051059e+003;4.613181e-002
1.052987e+003;4.491619e-002
1.054916e+003;4.410137e-002
1.056844e+003;4.356455e-002
1.058773e+003;4.290956e-002
1.060701e+003;4.256000e-002
1.062630e+003;4.247098e-002
1.064558e+003;4.262506e-002
1.066487e+003;4.293706e-002
1.068416e+003;4.307187e-002
1.070344e+003;4.306232e-002
1.072273e+003;4.266775e-002
1.074201e+003;4.291479e-002
1.076130e+003;4.374903e-002
1.078058e+003;4.420789e-002
1.079987e+003;4.466607e-002
1.081915e+003;4.512053e-002
1.083844e+003;4.546340e-002
1.085773e+003;4.644151e-002
1.087701e+003;4.791205e-002
1.089630e+003;4.929136e-002
1.091558e+003;5.033335e-002
1.093487e+003;5.169356e-002
1.095415e+003;5.302966e-002
1.097344e+003;5.483932e-002
1.099272e+003;5.708366e-002
1.101201e+003;5.855389e-002
1.103129e+003;5.889865e-002
1.105058e+003;5.883763e-002
1.106987e+003;5.821550e-002
1.108915e+003;5.620499e-002
1.110844e+003;5.328258e-002
1.112772e+003;5.093125e-002
1.114701e+003;4.916622e-002
1.116629e+003;4.712225e-002
1.118558e+003;4.565534e-002
1.120486e+003;4.468032e-002
1.122415e+003;4.362994e-002
1.124344e+003;4.302310e-002
1.126272e+003;4.289043e-002
1.128201e+003;4.273666e-002
1.130129e+003;4.319844e-002
1.132058e+003;4.441657e-002
1.133986e+003;4.591862e-002
1.135915e+003;4.758196e-002
1.137843e+003;5.007385e-002
1.139772e+003;5.290775e-002
1.141700e+003;5.580539e-002
1.143629e+003;5.877116e-002
1.145557e+003;6.166605e-002
1.147486e+003;6.485880e-002
1.149415e+003;6.838963e-002
1.151343e+003;7.162566e-002
1.153272e+003;7.395601e-002
1.155200e+003;7.521264e-002
1.157129e+003;7.591530e-002
1.159057e+003;7.673948e-002
1.160986e+003;7.730112e-002
1.162914e+003;7.767631e-002
1.164843e+003;7.842659e-002
1.166771e+003;7.912064e-002
1.168700e+003;7.823802e-002
1.170629e+003;7.457823e-002
1.172557e+003;6.906901e-002
1.174486e+003;6.355125e-002
1.176414e+003;5.906788e-002
1.178343e+003;5.636130e-002
1.180271e+003;5.572586e-002
1.182200e+003;5.571415e-002
1.184128e+003;5.541541e-002
1.186057e+003;5.581906e-002
1.187986e+003;5.682485e-002
1.189914e+003;5.744424e-002
1.191843e+003;5.692290e-002
1.193771e+003;5.644973e-002
1.195700e+003;5.668876e-002
1.197628e+003;5.741338e-002
1.199557e+003;5.796514e-002
1.201485e+003;5.786166e-002
1.203414e+003;5.758862e-002
1.205343e+003;5.754368e-002
1.207271e+003;5.791486e-002
1.209200e+003;5.959959e-002
1.211128e+003;6.183274e-002
1.213057e+003;6.382098e-002
1.214985e+003;6.423398e-002
1.216914e+003;6.263557e-002
1.218842e+003;6.081248e-002
1.220771e+003;5.976100e-002
1.222699e+003;5.949865e-002
1.224628e+003;5.962194e-002
1.226557e+003;5.996348e-002
1.228485e+003;6.048844e-002
1.230414e+003;6.054828e-002
1.232342e+003;6.066039e-002
1.234271e+003;6.134687e-002
1.236199e+003;6.197981e-002
1.238128e+003;6.198329e-002
1.240056e+003;6.204356e-002
1.241985e+003;6.274249e-002
1.243913e+003;6.315258e-002
1.245842e+003;6.371756e-002
1.247771e+003;6.497557e-002
1.249699e+003;6.665495e-002
1.251628e+003;6.906945e-002
1.253556e+003;7.278387e-002
1.255485e+003;7.620833e-002
1.257413e+003;7.656056e-002
1.259342e+003;7.415830e-002
1.261270e+003;7.109027e-002
1.263199e+003;6.892888e-002
1.265127e+003;6.783668e-002
1.267056e+003;6.673967e-002
1.268985e+003;6.535929e-002
1.270913e+003;6.384063e-002
1.272842e+003;6.257369e-002
1.274770e+003;6.204914e-002
1.276699e+003;6.177922e-002
1.278627e+003;6.150141e-002
1.280556e+003;6.154191e-002
1.282484e+003;6.170970e-002
1.284413e+003;6.247676e-002
1.286342e+003;6.398934e-002
1.288270e+003;6.522685e-002
1.290199e+003;6.628148e-002
1.292127e+003;6.731309e-002
1.294056e+003;6.815784e-002
1.295984e+003;6.874171e-002
1.297913e+003;6.911439e-002
1.299841e+003;6.958022e-002
1.301770e+003;7.034004e-002
1.303698e+003;7.092662e-002
1.305627e+003;6.980117e-002
1.307556e+003;6.755756e-002
1.309484e+003;6.599900e-002
1.311413e+003;6.583047e-002
1.313341e+003;6.632093e-002
1.315270e+003;6.706668e-002
1.317198e+003;6.805082e-002
1.319127e+003;6.912853e-002
1.321055e+003;7.005017e-002
1.322984e+003;7.093037e-002
1.324912e+003;7.266764e-002
1.326841e+003;7.455447e-002
1.328770e+003;7.575298e-002
1.330698e+003;7.606331e-002
1.332627e+003;7.591167e-002
1.334555e+003;7.571054e-002
1.336484e+003;7.547142e-002
1.338412e+003;7.558082e-002
1.340341e+003;7.626212e-002
1.342269e+003;7.791535e-002
1.344198e+003;8.007191e-002
1.346126e+003;8.249871e-002
1.348055e+003;8.519758e-002
1.349984e+003;8.876231e-002
1.351912e+003;9.345601e-002
1.353841e+003;9.944836e-002
1.355769e+003;1.060898e-001
1.357698e+003;1.114508e-001
1.359626e+003;1.134243e-001
1.361555e+003;1.124571e-001
1.363483e+003;1.124366e-001
1.365412e+003;1.156839e-001
1.367341e+003;1.232963e-001
1.369269e+003;1.385625e-001
1.371198e+003;1.620651e-001
1.373126e+003;1.899258e-001
1.375055e+003;2.120804e-001
1.376983e+003;2.126373e-001
1.378912e+003;1.897155e-001
1.380840e+003;1.593937e-001
1.382769e+003;1.336894e-001
1.384698e+003;1.157296e-001
1.386626e+003;1.053779e-001
1.388555e+003;1.019771e-001
1.390483e+003;1.019079e-001
1.392412e+003;1.020844e-001
1.394340e+003;1.028078e-001
1.396269e+003;1.051533e-001
1.398197e+003;1.072450e-001
1.400126e+003;1.093617e-001
1.402054e+003;1.114099e-001
1.403983e+003;1.127535e-001
1.405911e+003;1.144098e-001
1.407840e+003;1.162828e-001
1.409769e+003;1.180689e-001
1.411697e+003;1.204343e-001
1.413626e+003;1.233629e-001
1.415554e+003;1.258743e-001
1.417483e+003;1.268559e-001
1.419411e+003;1.289151e-001
1.421340e+003;1.336482e-001
1.423268e+003;1.371804e-001
1.425197e+003;1.402451e-001
1.427125e+003;1.432999e-001
1.429054e+003;1.462036e-001
1.430983e+003;1.503773e-001
1.432911e+003;1.554292e-001
1.434840e+003;1.576223e-001
1.436768e+003;1.571667e-001
1.438697e+003;1.586290e-001
1.440625e+003;1.608391e-001
1.442554e+003;1.638766e-001
1.444482e+003;1.680930e-001
1.446411e+003;1.738011e-001
1.448340e+003;1.805251e-001
1.450268e+003;1.864582e-001
1.452197e+003;1.891004e-001
1.454125e+003;1.875127e-001
1.456054e+003;1.821315e-001
1.457982e+003;1.796824e-001
1.459911e+003;1.785765e-001
1.461839e+003;1.731166e-001
1.463768e+003;1.635494e-001
1.465697e+003;1.536575e-001
1.467625e+003;1.447546e-001
1.469554e+003;1.345439e-001
1.471482e+003;1.233442e-001
1.473411e+003;1.154502e-001
1.475339e+003;1.115388e-001
1.477268e+003;1.088978e-001
1.479196e+003;1.063443e-001
1.481125e+003;1.030385e-001
1.483053e+003;9.997339e-002
1.484982e+003;9.658711e-002
1.486911e+003;9.301802e-002
1.488839e+003;8.992350e-002
1.490768e+003;8.809490e-002
1.492696e+003;8.733649e-002
1.494625e+003;8.459947e-002
1.496553e+003;8.147568e-002
1.498482e+003;8.059193e-002
1.500410e+003;8.013295e-002
1.502339e+003;7.824416e-002
1.504267e+003;7.268961e-002
1.506196e+003;6.693739e-002
1.508125e+003;6.718281e-002
1.510053e+003;6.873049e-002
1.511982e+003;6.806722e-002
1.513910e+003;6.651675e-002
1.515839e+003;6.381975e-002
1.517767e+003;6.177211e-002
1.519696e+003;5.888965e-002
1.521624e+003;5.650139e-002
1.523553e+003;5.714586e-002
1.525481e+003;5.685620e-002
1.527410e+003;5.650936e-002
1.529339e+003;5.629132e-002
1.531267e+003;5.473453e-002
1.533196e+003;5.244510e-002
1.535124e+003;5.219221e-002
1.537053e+003;4.963586e-002
1.538981e+003;4.421515e-002
1.540910e+003;4.370546e-002
1.542838e+003;4.624446e-002
1.544767e+003;4.789858e-002
1.546695e+003;4.921855e-002
1.548624e+003;4.929842e-002
1.550553e+003;4.907062e-002
1.552481e+003;4.816519e-002
1.554410e+003;4.610414e-002
1.556338e+003;4.282072e-002
1.558267e+003;3.753038e-002
1.560195e+003;3.847542e-002
1.562124e+003;4.319951e-002
1.564052e+003;4.420965e-002
1.565981e+003;4.396313e-002
1.567910e+003;4.272390e-002
1.569838e+003;4.132590e-002
1.571767e+003;4.198895e-002
1.573695e+003;4.074518e-002
1.575624e+003;3.764495e-002
1.577552e+003;3.880870e-002
1.579481e+003;4.076571e-002
1.581409e+003;4.072349e-002
1.583338e+003;4.056755e-002
1.585266e+003;4.027349e-002
1.587195e+003;3.996191e-002
1.589124e+003;3.936281e-002
1.591052e+003;3.884232e-002
1.592981e+003;3.847561e-002
1.594909e+003;3.821194e-002
1.596838e+003;3.840331e-002
1.598766e+003;3.870795e-002
1.600695e+003;3.858202e-002
1.602623e+003;3.833740e-002
1.604552e+003;3.832452e-002
1.606480e+003;3.799910e-002
1.608409e+003;3.730109e-002
1.610338e+003;3.734857e-002
1.612266e+003;3.791221e-002
1.614195e+003;3.710732e-002
1.616123e+003;3.515181e-002
1.618052e+003;3.661404e-002
1.619980e+003;3.829832e-002
1.621909e+003;3.676450e-002
1.623837e+003;3.534676e-002
1.625766e+003;3.514319e-002
1.627694e+003;3.466900e-002
1.629623e+003;3.494086e-002
1.631552e+003;3.495569e-002
1.633480e+003;3.238732e-002
1.635409e+003;2.962523e-002
1.637337e+003;3.151545e-002
1.639266e+003;3.359947e-002
1.641194e+003;3.388811e-002
1.643123e+003;3.294208e-002
1.645051e+003;3.024060e-002
1.646980e+003;2.959225e-002
1.648909e+003;3.131584e-002
1.650837e+003;2.804537e-002
1.652766e+003;2.295362e-002
1.654694e+003;2.709776e-002
1.656623e+003;3.186132e-002
1.658551e+003;3.241649e-002
1.660480e+003;3.152885e-002
1.662408e+003;3.063558e-002
1.664337e+003;3.142738e-002
1.666266e+003;3.183426e-002
1.668194e+003;3.023069e-002
1.670123e+003;2.964134e-002
1.672051e+003;3.037074e-002
1.673980e+003;2.941876e-002
1.675908e+003;2.950198e-002
1.677837e+003;3.135123e-002
1.679765e+003;3.136335e-002
1.681694e+003;2.947588e-002
1.683622e+003;2.531082e-002
1.685551e+003;2.642848e-002
1.687479e+003;3.007750e-002
1.689408e+003;3.070617e-002
1.691337e+003;3.094168e-002
1.693265e+003;2.919548e-002
1.695194e+003;2.542038e-002
1.697122e+003;2.579525e-002
1.699051e+003;2.486787e-002
1.700979e+003;2.481928e-002
1.702908e+003;2.815326e-002
1.704836e+003;2.863740e-002
1.706765e+003;2.905647e-002
1.708693e+003;2.950932e-002
1.710622e+003;2.967376e-002
1.712551e+003;2.893806e-002
1.714479e+003;2.702748e-002
1.716408e+003;2.435443e-002
1.718336e+003;2.497276e-002
1.720265e+003;2.786522e-002
1.722193e+003;2.863609e-002
1.724122e+003;2.848326e-002
1.726050e+003;2.867251e-002
1.727979e+003;2.814392e-002
1.729908e+003;2.724058e-002
1.731836e+003;2.478847e-002
1.733765e+003;2.195316e-002
1.735693e+003;2.417539e-002
1.737622e+003;2.579026e-002
1.739550e+003;2.495661e-002
1.741479e+003;2.549290e-002
1.743407e+003;2.545228e-002
1.745336e+003;2.508244e-002
1.747265e+003;2.445934e-002
1.749193e+003;2.332197e-002
1.751122e+003;2.294255e-002
1.753050e+003;2.479240e-002
1.754979e+003;2.531900e-002
1.756907e+003;2.500866e-002
1.758836e+003;2.542698e-002
1.760764e+003;2.489731e-002
1.762693e+003;2.484597e-002
1.764621e+003;2.562746e-002
1.766550e+003;2.478833e-002
1.768479e+003;2.396263e-002
1.770407e+003;2.317865e-002
1.772336e+003;2.218764e-002
1.774264e+003;2.382932e-002
1.776193e+003;2.526225e-002
1.778121e+003;2.522745e-002
1.780050e+003;2.505046e-002
1.781978e+003;2.555467e-002
1.783907e+003;2.615739e-002
1.785835e+003;2.716255e-002
1.787764e+003;2.894472e-002
1.789693e+003;3.092888e-002
1.791621e+003;3.318672e-002
1.793550e+003;3.667951e-002
1.795478e+003;3.936404e-002
1.797407e+003;3.942027e-002
1.799335e+003;3.793987e-002
1.801264e+003;3.544332e-002
1.803192e+003;3.255089e-002
1.805121e+003;2.977804e-002
1.807049e+003;2.736175e-002
1.808978e+003;2.536080e-002
1.810907e+003;2.436221e-002
1.812835e+003;2.422952e-002
1.814764e+003;2.410908e-002
1.816692e+003;2.385288e-002
1.818621e+003;2.386782e-002
1.820549e+003;2.351979e-002
1.822478e+003;2.301752e-002
1.824406e+003;2.260657e-002
1.826335e+003;2.291146e-002
1.828264e+003;2.263736e-002
1.830192e+003;2.241143e-002
1.832121e+003;2.323391e-002
1.834049e+003;2.354977e-002
1.835978e+003;2.334599e-002
1.837906e+003;2.326628e-002
1.839835e+003;2.317487e-002
1.841763e+003;2.219144e-002
1.843692e+003;2.079490e-002
1.845620e+003;2.150140e-002
1.847549e+003;2.250609e-002
1.849478e+003;2.255247e-002
1.851406e+003;2.248282e-002
1.853335e+003;2.238212e-002
1.855263e+003;2.227284e-002
1.857192e+003;2.216986e-002
1.859120e+003;2.194588e-002
1.861049e+003;2.189197e-002
1.862977e+003;2.208140e-002
1.864906e+003;2.194514e-002
1.866834e+003;2.112580e-002
1.868763e+003;2.062722e-002
1.870692e+003;2.113836e-002
1.872620e+003;2.148027e-002
1.874549e+003;2.132503e-002
1.876477e+003;2.123152e-002
1.878406e+003;2.124033e-002
1.880334e+003;2.131097e-002
1.882263e+003;2.125404e-002
1.884191e+003;2.133230e-002
1.886120e+003;2.141437e-002
1.888048e+003;2.118897e-002
1.889977e+003;2.108760e-002
1.891906e+003;2.146920e-002
1.893834e+003;2.157177e-002
1.895763e+003;2.157894e-002
1.897691e+003;2.162564e-002
1.899620e+003;2.171857e-002
1.901548e+003;2.170300e-002
1.903477e+003;2.163762e-002
1.905405e+003;2.140006e-002
1.907334e+003;2.113968e-002
1.909262e+003;2.096084e-002
1.911191e+003;2.103790e-002
1.913120e+003;2.108851e-002
1.915048e+003;2.092527e-002
1.916977e+003;2.039796e-002
1.918905e+003;2.052758e-002
1.920834e+003;2.084075e-002
1.922762e+003;2.072647e-002
1.924691e+003;2.091129e-002
1.926619e+003;2.101571e-002
1.928548e+003;2.088494e-002
1.930477e+003;2.054266e-002
1.932405e+003;2.029532e-002
1.934334e+003;2.017944e-002
1.936262e+003;2.019902e-002
1.938191e+003;2.014494e-002
1.940119e+003;1.966638e-002
1.942048e+003;1.948985e-002
1.943976e+003;1.975300e-002
1.945905e+003;1.988582e-002
1.947833e+003;1.990993e-002
1.949762e+003;2.004232e-002
1.951691e+003;2.013248e-002
1.953619e+003;2.010565e-002
1.955548e+003;2.009306e-002
1.957476e+003;2.015108e-002
1.959405e+003;2.021908e-002
1.961333e+003;2.009833e-002
1.963262e+003;1.980373e-002
1.965190e+003;1.963591e-002
1.967119e+003;1.957386e-002
1.969047e+003;1.952836e-002
1.970976e+003;1.960582e-002
1.972905e+003;1.976246e-002
1.974833e+003;1.954984e-002
1.976762e+003;1.958194e-002
1.978690e+003;1.972699e-002
1.980619e+003;1.957300e-002
1.982547e+003;1.958073e-002
1.984476e+003;1.957813e-002
1.986404e+003;1.950767e-002
1.988333e+003;1.961265e-002
1.990261e+003;1.941410e-002
1.992190e+003;1.928568e-002
1.994119e+003;1.961328e-002
1.996047e+003;1.979936e-002
1.997976e+003;1.970861e-002
1.999904e+003;1.966628e-002
2.001833e+003;1.954853e-002
2.003761e+003;1.931810e-002
2.005690e+003;1.912699e-002
2.007618e+003;1.921343e-002
2.009547e+003;1.930321e-002
2.011476e+003;1.931471e-002
2.013404e+003;1.933944e-002
2.015333e+003;1.927196e-002
2.017261e+003;1.940028e-002
2.019190e+003;1.977984e-002
2.021118e+003;1.964385e-002
2.023047e+003;1.935811e-002
2.024975e+003;1.921544e-002
2.026904e+003;1.932122e-002
2.028833e+003;1.937038e-002
2.030761e+003;1.936937e-002
2.032690e+003;1.968108e-002
2.034618e+003;1.964094e-002
2.036547e+003;1.930286e-002
2.038475e+003;1.930982e-002
2.040404e+003;1.935482e-002
2.042332e+003;1.938340e-002
2.044261e+003;1.943784e-002
2.046189e+003;1.954617e-002
2.048118e+003;1.955161e-002
2.050047e+003;1.940759e-002
2.051975e+003;1.933851e-002
2.053904e+003;1.954239e-002
2.055832e+003;1.951182e-002
2.057761e+003;1.921066e-002
2.059689e+003;1.928086e-002
2.061618e+003;1.933286e-002
2.063546e+003;1.915345e-002
2.065475e+003;1.924055e-002
2.067404e+003;1.933515e-002
2.069332e+003;1.943306e-002
2.071260e+003;1.960159e-002
2.073189e+003;1.948354e-002
2.075118e+003;1.925423e-002
2.077046e+003;1.922881e-002
2.078975e+003;1.919836e-002
2.080903e+003;1.924200e-002
2.082832e+003;1.932216e-002
2.084760e+003;1.965318e-002
2.086689e+003;2.011752e-002
2.088617e+003;2.023984e-002
2.090546e+003;2.010735e-002
2.092475e+003;1.992325e-002
2.094403e+003;1.983061e-002
2.096332e+003;1.991989e-002
2.098260e+003;1.997012e-002
2.100189e+003;2.004538e-002
2.102117e+003;2.038226e-002
2.104046e+003;2.080933e-002
2.105974e+003;2.062729e-002
2.107903e+003;2.015185e-002
2.109832e+003;2.003028e-002
2.111760e+003;2.035625e-002
2.113688e+003;2.049837e-002
2.115617e+003;2.058501e-002
2.117546e+003;2.054117e-002
2.119474e+003;2.057514e-002
2.121403e+003;2.090653e-002
2.123331e+003;2.120452e-002
2.125260e+003;2.152664e-002
2.127188e+003;2.183297e-002
2.129117e+003;2.210975e-002
2.131045e+003;2.232268e-002
2.132974e+003;2.244262e-002
2.134903e+003;2.233063e-002
2.136831e+003;2.210549e-002
2.138760e+003;2.193671e-002
2.140688e+003;2.190507e-002
2.142617e+003;2.189893e-002
2.144545e+003;2.194633e-002
2.146474e+003;2.195609e-002
2.148402e+003;2.181681e-002
2.150331e+003;2.153124e-002
2.152260e+003;2.139286e-002
2.154188e+003;2.146718e-002
2.156117e+003;2.171986e-002
2.158045e+003;2.187496e-002
2.159974e+003;2.187970e-002
2.161902e+003;2.197881e-002
2.163831e+003;2.231044e-002
2.165759e+003;2.247409e-002
2.167688e+003;2.246840e-002
2.169616e+003;2.263045e-002
2.171545e+003;2.270208e-002
2.173474e+003;2.243383e-002
2.175402e+003;2.241321e-002
2.177331e+003;2.258936e-002
2.179259e+003;2.256615e-002
2.181188e+003;2.274834e-002
2.183116e+003;2.266015e-002
2.185045e+003;2.214894e-002
2.186973e+003;2.190681e-002
2.188902e+003;2.215462e-002
2.190831e+003;2.250215e-002
2.192759e+003;2.254099e-002
2.194688e+003;2.233227e-002
2.196616e+003;2.219963e-002
2.198545e+003;2.190468e-002
2.200473e+003;2.152650e-002
2.202402e+003;2.157177e-002
2.204330e+003;2.165605e-002
2.206259e+003;2.162171e-002
2.208188e+003;2.173807e-002
2.210116e+003;2.168206e-002
2.212044e+003;2.157041e-002
2.213973e+003;2.137932e-002
2.215902e+003;2.134006e-002
2.217830e+003;2.157260e-002
2.219759e+003;2.150749e-002
2.221687e+003;2.122429e-002
2.223616e+003;2.115544e-002
2.225544e+003;2.136533e-002
2.227473e+003;2.139697e-002
2.229401e+003;2.134215e-002
2.231330e+003;2.123970e-002
2.233259e+003;2.119245e-002
2.235187e+003;2.135701e-002
2.237116e+003;2.140570e-002
2.239044e+003;2.144706e-002
2.240973e+003;2.116859e-002
2.242901e+003;2.103300e-002
2.244830e+003;2.116448e-002
2.246758e+003;2.125821e-002
2.248687e+003;2.159228e-002
2.250615e+003;2.186810e-002
2.252544e+003;2.195808e-002
2.254473e+003;2.192215e-002
2.256401e+003;2.213774e-002
2.258330e+003;2.210835e-002
2.260258e+003;2.184357e-002
2.262187e+003;2.206805e-002
2.264115e+003;2.206815e-002
2.266044e+003;2.167841e-002
2.267972e+003;2.164420e-002
2.269901e+003;2.162084e-002
2.271830e+003;2.128807e-002
2.273758e+003;2.125491e-002
2.275687e+003;2.117488e-002
2.277615e+003;2.081934e-002
2.279544e+003;2.080391e-002
2.281472e+003;2.064724e-002
2.283401e+003;2.045902e-002
2.285329e+003;2.049785e-002
2.287258e+003;2.070409e-002
2.289187e+003;2.067764e-002
2.291115e+003;2.069974e-002
2.293043e+003;2.067747e-002
2.294972e+003;2.063372e-002
2.296901e+003;2.059786e-002
2.298829e+003;2.032070e-002
2.300758e+003;2.025775e-002
2.302686e+003;2.036233e-002
2.304615e+003;2.026987e-002
2.306543e+003;2.020457e-002
2.308472e+003;1.998910e-002
2.310400e+003;1.938261e-002
2.312329e+003;1.877727e-002
2.314258e+003;1.844848e-002
2.316186e+003;1.837844e-002
2.318115e+003;1.800228e-002
2.320043e+003;1.721298e-002
2.321972e+003;1.663934e-002
2.323900e+003;1.650089e-002
2.325829e+003;1.623709e-002
2.327757e+003;1.543279e-002
2.329686e+003;1.467552e-002
2.331615e+003;1.464979e-002
2.333543e+003;1.492229e-002
2.335472e+003;1.462587e-002
2.337400e+003;1.445373e-002
2.339329e+003;1.497699e-002
2.341257e+003;1.591870e-002
2.343186e+003;1.696260e-002
2.345114e+003;1.804410e-002
2.347043e+003;1.945274e-002
2.348971e+003;2.015181e-002
2.350900e+003;1.923029e-002
2.352829e+003;1.747230e-002
2.354757e+003;1.584412e-002
2.356686e+003;1.447679e-002
2.358614e+003;1.343149e-002
2.360543e+003;1.294487e-002
2.362471e+003;1.284852e-002
2.364400e+003;1.339287e-002
2.366328e+003;1.444664e-002
2.368257e+003;1.565079e-002
2.370186e+003;1.711770e-002
2.372114e+003;1.856417e-002
2.374042e+003;1.982873e-002
2.375971e+003;2.083008e-002
2.377900e+003;2.175187e-002
2.379828e+003;2.246122e-002
2.381757e+003;2.284039e-002
2.383685e+003;2.282795e-002
2.385614e+003;2.279510e-002
2.387542e+003;2.313758e-002
2.389471e+003;2.365360e-002
2.391399e+003;2.366316e-002
2.393328e+003;2.339204e-002
2.395257e+003;2.343309e-002
2.397185e+003;2.363132e-002
2.399114e+003;2.365409e-002
2.401042e+003;2.365238e-002
2.402971e+003;2.373409e-002
2.404899e+003;2.369024e-002
2.406828e+003;2.365392e-002
2.408756e+003;2.390055e-002
2.410685e+003;2.406348e-002
2.412614e+003;2.396462e-002
2.414542e+003;2.374560e-002
2.416471e+003;2.383915e-002
2.418399e+003;2.415843e-002
2.420328e+003;2.434024e-002
2.422256e+003;2.445120e-002
2.424185e+003;2.442078e-002
2.426113e+003;2.429675e-002
2.428042e+003;2.450119e-002
2.429970e+003;2.463201e-002
2.431899e+003;2.443967e-002
2.433828e+003;2.409216e-002
2.435756e+003;2.385088e-002
2.437685e+003;2.374693e-002
2.439613e+003;2.370193e-002
2.441542e+003;2.368810e-002
2.443470e+003;2.334263e-002
2.445399e+003;2.333693e-002
2.447327e+003;2.331987e-002
2.449256e+003;2.330980e-002
2.451185e+003;2.330358e-002
2.453113e+003;2.329708e-002
2.455042e+003;2.334571e-002
2.456970e+003;2.333085e-002
2.458899e+003;2.320923e-002
2.460827e+003;2.304571e-002
2.462756e+003;2.281692e-002
2.464684e+003;2.276367e-002
2.466613e+003;2.310844e-002
2.468542e+003;2.331588e-002
2.470470e+003;2.355544e-002
2.472398e+003;2.390861e-002
2.474327e+003;2.416919e-002
2.476256e+003;2.452226e-002
2.478184e+003;2.502280e-002
2.480113e+003;2.525526e-002
2.482041e+003;2.533428e-002
2.483970e+003;2.579356e-002
2.485898e+003;2.631487e-002
2.487827e+003;2.652156e-002
2.489755e+003;2.696324e-002
2.491684e+003;2.750903e-002
2.493613e+003;2.789829e-002
2.495541e+003;2.860311e-002
2.497470e+003;2.932502e-002
2.499398e+003;3.019492e-002
2.501327e+003;3.124782e-002
2.503255e+003;3.231785e-002
2.505184e+003;3.331832e-002
2.507112e+003;3.400021e-002
2.509041e+003;3.455536e-002
2.510969e+003;3.521181e-002
2.512898e+003;3.552339e-002
2.514827e+003;3.561250e-002
2.516755e+003;3.566192e-002
2.518684e+003;3.567498e-002
2.520612e+003;3.588215e-002
2.522541e+003;3.605971e-002
2.524469e+003;3.569462e-002
2.526398e+003;3.490247e-002
2.528326e+003;3.421153e-002
2.530255e+003;3.381249e-002
2.532184e+003;3.323225e-002
2.534112e+003;3.240449e-002
2.536041e+003;3.193067e-002
2.537969e+003;3.142931e-002
2.539898e+003;3.109022e-002
2.541826e+003;3.106438e-002
2.543755e+003;3.094926e-002
2.545683e+003;3.117017e-002
2.547612e+003;3.170346e-002
2.549541e+003;3.194027e-002
2.551469e+003;3.188328e-002
2.553397e+003;3.208237e-002
2.555326e+003;3.251250e-002
2.557255e+003;3.266740e-002
2.559183e+003;3.287117e-002
2.561112e+003;3.302409e-002
2.563040e+003;3.329439e-002
2.564969e+003;3.359492e-002
2.566897e+003;3.379970e-002
2.568826e+003;3.425549e-002
2.570754e+003;3.484969e-002
2.572683e+003;3.552824e-002
2.574612e+003;3.618841e-002
2.576540e+003;3.670009e-002
2.578469e+003;3.703648e-002
2.580397e+003;3.720932e-002
2.582326e+003;3.733850e-002
2.584254e+003;3.708754e-002
2.586183e+003;3.635655e-002
2.588111e+003;3.582302e-002
2.590040e+003;3.522468e-002
2.591969e+003;3.481932e-002
2.593897e+003;3.480263e-002
2.595826e+003;3.451435e-002
2.597754e+003;3.425369e-002
2.599683e+003;3.432268e-002
2.601611e+003;3.423734e-002
2.603540e+003;3.421060e-002
2.605468e+003;3.468558e-002
2.607397e+003;3.545230e-002
2.609325e+003;3.598303e-002
2.611254e+003;3.629473e-002
2.613183e+003;3.627466e-002
2.615111e+003;3.610969e-002
2.617040e+003;3.602796e-002
2.618968e+003;3.591839e-002
2.620897e+003;3.568861e-002
2.622825e+003;3.535427e-002
2.624754e+003;3.504368e-002
2.626682e+003;3.461420e-002
2.628611e+003;3.437643e-002
2.630540e+003;3.421877e-002
2.632468e+003;3.407869e-002
2.634396e+003;3.418070e-002
2.636325e+003;3.404522e-002
2.638254e+003;3.379845e-002
2.640182e+003;3.401612e-002
2.642111e+003;3.435739e-002
2.644039e+003;3.478159e-002
2.645968e+003;3.543911e-002
2.647896e+003;3.561815e-002
2.649825e+003;3.556373e-002
2.651753e+003;3.579118e-002
2.653682e+003;3.621966e-002
2.655611e+003;3.655200e-002
2.657539e+003;3.691998e-002
2.659468e+003;3.731373e-002
2.661396e+003;3.721130e-002
2.663325e+003;3.725275e-002
2.665253e+003;3.766291e-002
2.667182e+003;3.767314e-002
2.669110e+003;3.737732e-002
2.671039e+003;3.739858e-002
2.672968e+003;3.774220e-002
2.674896e+003;3.809838e-002
2.676825e+003;3.833610e-002
2.678753e+003;3.842746e-002
2.680682e+003;3.847832e-002
2.682610e+003;3.817996e-002
2.684539e+003;3.807418e-002
2.686467e+003;3.862537e-002
2.688396e+003;3.884852e-002
2.690324e+003;3.868484e-002
2.692253e+003;3.861400e-002
2.694182e+003;3.857702e-002
2.696110e+003;3.827798e-002
2.698039e+003;3.829358e-002
2.699967e+003;3.898804e-002
2.701896e+003;3.987433e-002
2.703824e+003;4.048891e-002
2.705753e+003;4.107426e-002
2.707681e+003;4.183273e-002
2.709610e+003;4.279995e-002
2.711539e+003;4.400544e-002
2.713467e+003;4.546501e-002
2.715396e+003;4.685665e-002
2.717324e+003;4.831019e-002
2.719253e+003;4.984118e-002
2.721181e+003;5.099769e-002
2.723110e+003;5.159086e-002
2.725038e+003;5.111541e-002
2.726967e+003;5.010137e-002
2.728896e+003;4.867126e-002
2.730824e+003;4.738366e-002
2.732752e+003;4.638742e-002
2.734681e+003;4.526996e-002
2.736610e+003;4.411674e-002
2.738538e+003;4.331722e-002
2.740467e+003;4.263551e-002
2.742395e+003;4.182803e-002
2.744324e+003;4.108257e-002
2.746252e+003;4.034061e-002
2.748181e+003;4.000282e-002
2.750109e+003;4.003889e-002
2.752038e+003;3.993521e-002
2.753967e+003;4.009558e-002
2.755895e+003;4.023914e-002
2.757824e+003;4.027916e-002
2.759752e+003;4.066527e-002
2.761681e+003;4.115265e-002
2.763609e+003;4.159412e-002
2.765538e+003;4.191976e-002
2.767466e+003;4.222424e-002
2.769395e+003;4.250826e-002
2.771323e+003;4.289774e-002
2.773252e+003;4.356093e-002
2.775181e+003;4.440479e-002
2.777109e+003;4.521307e-002
2.779038e+003;4.589178e-002
2.780966e+003;4.678243e-002
2.782895e+003;4.782548e-002
2.784823e+003;4.914196e-002
2.786752e+003;5.073879e-002
2.788680e+003;5.233280e-002
2.790609e+003;5.431562e-002
2.792538e+003;5.620148e-002
2.794466e+003;5.708200e-002
2.796395e+003;5.801611e-002
2.798323e+003;5.960887e-002
2.800252e+003;6.114535e-002
2.802180e+003;6.247374e-002
2.804109e+003;6.430264e-002
2.806037e+003;6.670088e-002
2.807966e+003;6.852652e-002
2.809895e+003;6.992190e-002
2.811823e+003;7.149588e-002
2.813751e+003;7.359179e-002
2.815680e+003;7.549716e-002
2.817609e+003;7.730227e-002
2.819537e+003;7.968868e-002
2.821466e+003;8.292454e-002
2.823394e+003;8.659106e-002
2.825323e+003;9.077068e-002
2.827251e+003;9.626339e-002
2.829180e+003;1.033318e-001
2.831108e+003;1.122694e-001
2.833037e+003;1.222351e-001
2.834966e+003;1.304251e-001
2.836894e+003;1.347295e-001
2.838823e+003;1.344825e-001
2.840751e+003;1.303830e-001
2.842680e+003;1.243307e-001
2.844608e+003;1.177491e-001
2.846537e+003;1.118284e-001
2.848465e+003;1.070516e-001
2.850394e+003;1.036850e-001
2.852323e+003;1.017886e-001
2.854251e+003;1.012644e-001
2.856180e+003;1.026180e-001
2.858108e+003;1.065354e-001
2.860037e+003;1.127975e-001
2.861965e+003;1.214331e-001
2.863894e+003;1.308757e-001
2.865822e+003;1.381231e-001
2.867751e+003;1.415348e-001
2.869679e+003;1.420859e-001
2.871608e+003;1.418603e-001
2.873536e+003;1.420452e-001
2.875465e+003;1.420385e-001
2.877394e+003;1.408152e-001
2.879322e+003;1.391373e-001
2.881251e+003;1.372098e-001
2.883179e+003;1.360704e-001
2.885108e+003;1.360884e-001
2.887036e+003;1.367103e-001
2.888965e+003;1.379129e-001
2.890893e+003;1.396748e-001
2.892822e+003;1.426513e-001
2.894750e+003;1.469773e-001
2.896679e+003;1.515150e-001
2.898608e+003;1.566963e-001
2.900536e+003;1.621973e-001
2.902465e+003;1.675623e-001
2.904393e+003;1.733950e-001
2.906322e+003;1.789239e-001
2.908250e+003;1.838080e-001
2.910179e+003;1.881284e-001
2.912107e+003;1.918220e-001
2.914036e+003;1.946785e-001
2.915965e+003;1.957589e-001
2.917893e+003;1.942098e-001
2.919822e+003;1.910035e-001
2.921750e+003;1.861457e-001
2.923679e+003;1.792455e-001
2.925607e+003;1.719165e-001
2.927536e+003;1.638984e-001
2.929464e+003;1.550002e-001
2.931393e+003;1.456471e-001
2.933322e+003;1.368190e-001
2.935250e+003;1.299513e-001
2.937178e+003;1.257901e-001
2.939107e+003;1.249443e-001
2.941036e+003;1.277948e-001
2.942964e+003;1.345896e-001
2.944893e+003;1.445941e-001
2.946821e+003;1.553800e-001
2.948750e+003;1.635290e-001
2.950678e+003;1.667778e-001
2.952607e+003;1.659079e-001
2.954535e+003;1.620025e-001
2.956464e+003;1.567877e-001
2.958393e+003;1.512128e-001
2.960321e+003;1.449891e-001
2.962250e+003;1.381124e-001
2.964178e+003;1.305142e-001
2.966107e+003;1.223953e-001
2.968035e+003;1.144976e-001
2.969964e+003;1.070724e-001
2.971892e+003;9.966154e-002
2.973821e+003;9.337619e-002
2.975750e+003;8.808260e-002
2.977678e+003;8.347183e-002
2.979607e+003;7.963479e-002
2.981535e+003;7.603173e-002
2.983464e+003;7.296264e-002
2.985392e+003;7.054778e-002
2.987321e+003;6.821006e-002
2.989249e+003;6.582545e-002
2.991178e+003;6.375609e-002
2.993106e+003;6.194675e-002
2.995035e+003;5.978845e-002
2.996964e+003;5.734452e-002
2.998892e+003;5.536942e-002
3.000821e+003;5.353356e-002
3.002749e+003;5.192375e-002
3.004678e+003;5.072270e-002
3.006606e+003;4.932232e-002
3.008535e+003;4.793573e-002
3.010463e+003;4.643447e-002
3.012392e+003;4.489557e-002
3.014321e+003;4.363735e-002
3.016249e+003;4.234484e-002
3.018177e+003;4.140214e-002
3.020106e+003;4.079442e-002
3.022035e+003;3.972828e-002
3.023963e+003;3.884645e-002
3.025892e+003;3.826846e-002
3.027820e+003;3.761793e-002
3.029749e+003;3.692655e-002
3.031677e+003;3.618977e-002
3.033606e+003;3.536398e-002
3.035534e+003;3.465213e-002
3.037463e+003;3.460376e-002
3.039392e+003;3.462479e-002
3.041320e+003;3.437848e-002
3.043249e+003;3.399717e-002
3.045177e+003;3.332301e-002
3.047106e+003;3.293726e-002
3.049034e+003;3.264225e-002
3.050963e+003;3.235494e-002
3.052891e+003;3.184381e-002
3.054820e+003;3.141189e-002
3.056749e+003;3.126929e-002
3.058677e+003;3.106214e-002
3.060606e+003;3.101214e-002
3.062534e+003;3.111436e-002
3.064463e+003;3.088159e-002
3.066391e+003;3.050099e-002
3.068320e+003;3.028674e-002
3.070248e+003;3.019769e-002
3.072177e+003;3.009132e-002
3.074105e+003;3.019783e-002
3.076034e+003;3.033442e-002
3.077963e+003;3.010762e-002
3.079891e+003;2.973631e-002
3.081820e+003;2.943858e-002
3.083748e+003;2.927160e-002
3.085677e+003;2.915005e-002
3.087605e+003;2.912053e-002
3.089534e+003;2.903313e-002
3.091462e+003;2.902006e-002
3.093391e+003;2.917783e-002
3.095320e+003;2.925151e-002
3.097248e+003;2.896431e-002
3.099177e+003;2.881284e-002
3.101105e+003;2.887081e-002
3.103034e+003;2.879617e-002
3.104962e+003;2.873995e-002
3.106891e+003;2.845941e-002
3.108819e+003;2.855919e-002
3.110748e+003;2.906200e-002
3.112677e+003;2.924254e-002
3.114605e+003;2.929213e-002
3.116533e+003;2.924988e-002
3.118462e+003;2.910427e-002
3.120391e+003;2.921745e-002
3.122319e+003;2.941046e-002
3.124248e+003;2.954599e-002
3.126176e+003;2.933225e-002
3.128105e+003;2.904737e-002
3.130033e+003;2.916932e-002
3.131962e+003;2.972762e-002
3.133890e+003;3.000802e-002
3.135819e+003;3.000720e-002
3.137748e+003;3.007896e-002
3.139676e+003;3.005307e-002
3.141605e+003;3.000883e-002
3.143533e+003;3.007846e-002
3.145462e+003;3.009775e-002
3.147390e+003;3.022276e-002
3.149319e+003;3.025683e-002
3.151247e+003;3.034821e-002
3.153176e+003;3.022625e-002
3.155104e+003;2.976342e-002
3.157033e+003;2.929071e-002
3.158962e+003;2.900167e-002
3.160890e+003;2.916330e-002
3.162819e+003;2.964592e-002
3.164747e+003;2.963886e-002
3.166676e+003;2.942422e-002
3.168604e+003;2.942142e-002
3.170533e+003;2.946886e-002
3.172461e+003;2.932279e-002
3.174390e+003;2.932247e-002
3.176319e+003;2.918562e-002
3.178247e+003;2.896041e-002
3.180176e+003;2.919604e-002
3.182104e+003;2.953365e-002
3.184033e+003;2.959267e-002
3.185961e+003;2.940500e-002
3.187890e+003;2.969367e-002
3.189818e+003;2.979486e-002
3.191747e+003;3.004554e-002
3.193676e+003;3.005819e-002
3.195604e+003;2.952681e-002
3.197532e+003;2.923705e-002
3.199461e+003;2.927366e-002
3.201390e+003;2.921894e-002
3.203318e+003;2.890523e-002
3.205247e+003;2.877500e-002
3.207175e+003;2.896866e-002
3.209104e+003;2.878321e-002
3.211032e+003;2.821212e-002
3.212961e+003;2.792857e-002
3.214889e+003;2.777811e-002
3.216818e+003;2.741105e-002
3.218747e+003;2.696486e-002
3.220675e+003;2.649008e-002
3.222604e+003;2.638669e-002
3.224532e+003;2.636158e-002
3.226461e+003;2.640936e-002
3.228389e+003;2.650606e-002
3.230318e+003;2.622275e-002
3.232246e+003;2.590121e-002
3.234175e+003;2.550418e-002
3.236104e+003;2.522049e-002
3.238032e+003;2.495875e-002
3.239961e+003;2.468675e-002
3.241889e+003;2.451192e-002
3.243818e+003;2.428862e-002
3.245746e+003;2.404891e-002
3.247675e+003;2.401046e-002
3.249603e+003;2.363999e-002
3.251532e+003;2.334288e-002
3.253460e+003;2.356082e-002
3.255389e+003;2.378844e-002
3.257318e+003;2.386523e-002
3.259246e+003;2.409833e-002
3.261175e+003;2.431539e-002
3.263103e+003;2.424146e-002
3.265032e+003;2.416432e-002
3.266960e+003;2.380692e-002
3.268889e+003;2.350636e-002
3.270817e+003;2.340704e-002
3.272746e+003;2.328295e-002
3.274675e+003;2.314964e-002
3.276603e+003;2.335319e-002
3.278531e+003;2.347223e-002
3.280460e+003;2.337945e-002
3.282389e+003;2.354365e-002
3.284317e+003;2.333109e-002
3.286246e+003;2.298507e-002
3.288174e+003;2.328005e-002
3.290103e+003;2.367729e-002
3.292031e+003;2.372082e-002
3.293960e+003;2.376177e-002
3.295888e+003;2.345456e-002
3.297817e+003;2.312011e-002
3.299746e+003;2.306221e-002
3.301674e+003;2.338469e-002
3.303603e+003;2.382036e-002
3.305531e+003;2.357842e-002
3.307460e+003;2.358587e-002
3.309388e+003;2.365423e-002
3.311317e+003;2.334868e-002
3.313245e+003;2.325862e-002
3.315174e+003;2.318190e-002
3.317103e+003;2.331602e-002
3.319031e+003;2.293755e-002
3.320960e+003;2.218663e-002
3.322888e+003;2.238823e-002
3.324817e+003;2.311148e-002
3.326745e+003;2.330522e-002
3.328674e+003;2.320713e-002
3.330602e+003;2.320147e-002
3.332531e+003;2.320462e-002
3.334459e+003;2.312846e-002
3.336388e+003;2.312098e-002
3.338317e+003;2.340015e-002
3.340245e+003;2.370581e-002
3.342174e+003;2.355393e-002
3.344102e+003;2.367803e-002
3.346031e+003;2.406271e-002
3.347959e+003;2.379327e-002
3.349888e+003;2.317956e-002
3.351816e+003;2.327191e-002
3.353745e+003;2.386355e-002
3.355674e+003;2.381122e-002
3.357602e+003;2.354295e-002
3.359531e+003;2.326760e-002
3.361459e+003;2.341963e-002
3.363388e+003;2.359924e-002
3.365316e+003;2.326407e-002
3.367245e+003;2.314845e-002
3.369173e+003;2.291471e-002
3.371102e+003;2.273846e-002
3.373031e+003;2.293815e-002
3.374959e+003;2.326166e-002
3.376887e+003;2.346408e-002
3.378816e+003;2.349314e-002
3.380745e+003;2.326040e-002
3.382673e+003;2.297060e-002
3.384602e+003;2.259373e-002
3.386530e+003;2.259816e-002
3.388459e+003;2.313419e-002
3.390387e+003;2.332137e-002
3.392316e+003;2.254919e-002
3.394244e+003;2.242029e-002
3.396173e+003;2.287570e-002
3.398102e+003;2.326096e-002
3.400030e+003;2.346271e-002
3.401959e+003;2.314932e-002
3.403887e+003;2.273874e-002
3.405816e+003;2.237640e-002
3.407744e+003;2.222171e-002
3.409673e+003;2.279209e-002
3.411601e+003;2.316491e-002
3.413530e+003;2.311836e-002
3.415458e+003;2.317928e-002
3.417387e+003;2.292348e-002
3.419316e+003;2.254752e-002
3.421244e+003;2.256444e-002
3.423173e+003;2.240267e-002
3.425101e+003;2.204034e-002
3.427030e+003;2.228620e-002
3.428958e+003;2.261149e-002
3.430887e+003;2.286396e-002
3.432815e+003;2.278689e-002
3.434744e+003;2.258640e-002
3.436673e+003;2.241977e-002
3.438601e+003;2.229321e-002
3.440530e+003;2.214831e-002
3.442458e+003;2.190482e-002
3.444387e+003;2.176215e-002
3.446315e+003;2.149538e-002
3.448244e+003;2.132036e-002
3.450172e+003;2.123779e-002
3.452101e+003;2.094526e-002
3.454030e+003;2.094478e-002
3.455958e+003;2.113112e-002
3.457886e+003;2.111362e-002
3.459815e+003;2.114103e-002
3.461744e+003;2.114865e-002
3.463672e+003;2.106639e-002
3.465601e+003;2.058383e-002
3.467529e+003;2.056423e-002
3.469458e+003;2.085480e-002
3.471386e+003;2.093782e-002
3.473315e+003;2.055381e-002
3.475243e+003;1.987598e-002
3.477172e+003;1.974031e-002
3.479101e+003;1.975109e-002
3.481029e+003;1.984171e-002
3.482958e+003;2.030442e-002
3.484886e+003;2.066141e-002
3.486815e+003;2.049417e-002
3.488743e+003;2.013828e-002
3.490672e+003;1.986651e-002
3.492600e+003;1.969398e-002
3.494529e+003;1.973573e-002
3.496458e+003;1.986824e-002
3.498386e+003;1.967640e-002
3.500315e+003;1.953549e-002
3.502243e+003;1.940236e-002
3.504172e+003;1.931488e-002
3.506100e+003;1.965605e-002
3.508029e+003;1.958957e-002
3.509957e+003;1.927456e-002
3.511886e+003;1.941632e-002
3.513814e+003;1.967457e-002
3.515743e+003;1.992894e-002
3.517672e+003;2.000947e-002
3.519600e+003;1.985118e-002
3.521529e+003;1.913752e-002
3.523457e+003;1.863164e-002
3.525386e+003;1.907094e-002
3.527314e+003;1.915141e-002
3.529243e+003;1.882347e-002
3.531171e+003;1.864987e-002
3.533100e+003;1.893614e-002
3.535029e+003;1.890956e-002
3.536957e+003;1.865160e-002
3.538885e+003;1.893687e-002
3.540814e+003;1.882824e-002
3.542743e+003;1.803315e-002
3.544671e+003;1.778990e-002
3.546600e+003;1.817251e-002
3.548528e+003;1.838971e-002
3.550457e+003;1.830537e-002
3.552385e+003;1.825478e-002
3.554314e+003;1.826915e-002
3.556242e+003;1.850414e-002
3.558171e+003;1.829172e-002
3.560100e+003;1.798018e-002
3.562028e+003;1.774851e-002
3.563957e+003;1.736317e-002
3.565885e+003;1.667469e-002
3.567814e+003;1.669404e-002
3.569742e+003;1.724373e-002
3.571671e+003;1.748699e-002
3.573599e+003;1.772280e-002
3.575528e+003;1.808752e-002
3.577457e+003;1.813530e-002
3.579385e+003;1.815375e-002
3.581314e+003;1.810079e-002
3.583242e+003;1.797569e-002
3.585171e+003;1.683583e-002
3.587099e+003;1.558330e-002
3.589028e+003;1.594259e-002
3.590956e+003;1.695102e-002
3.592885e+003;1.730789e-002
3.594813e+003;1.738455e-002
3.596742e+003;1.735700e-002
3.598671e+003;1.725383e-002
3.600599e+003;1.720911e-002
3.602528e+003;1.731896e-002
3.604456e+003;1.736772e-002
3.606385e+003;1.667414e-002
3.608313e+003;1.587642e-002
3.610242e+003;1.649101e-002
3.612170e+003;1.710347e-002
3.614099e+003;1.781665e-002
3.616028e+003;1.796557e-002
3.617956e+003;1.733927e-002
3.619885e+003;1.789913e-002
3.621813e+003;1.867470e-002
3.623742e+003;1.808538e-002
3.625670e+003;1.698027e-002
3.627599e+003;1.479296e-002
3.629527e+003;1.454294e-002
3.631456e+003;1.627159e-002
3.633385e+003;1.703909e-002
3.635313e+003;1.792496e-002
3.637241e+003;1.858163e-002
3.639170e+003;1.840149e-002
3.641099e+003;1.810282e-002
3.643027e+003;1.858409e-002
3.644956e+003;1.815952e-002
3.646884e+003;1.551757e-002
3.648813e+003;1.351540e-002
3.650741e+003;1.537851e-002
3.652670e+003;1.778161e-002
3.654598e+003;1.681457e-002
3.656527e+003;1.630510e-002
3.658456e+003;1.779021e-002
3.660384e+003;1.820889e-002
3.662313e+003;1.828042e-002
3.664241e+003;1.873853e-002
3.666170e+003;1.837080e-002
3.668098e+003;1.654973e-002
3.670027e+003;1.547952e-002
3.671955e+003;1.671763e-002
3.673884e+003;1.504082e-002
3.675813e+003;1.408872e-002
3.677741e+003;1.729669e-002
3.679669e+003;1.893701e-002
3.681598e+003;1.909926e-002
3.683527e+003;1.900080e-002
3.685455e+003;1.802449e-002
3.687384e+003;1.606095e-002
3.689312e+003;1.698988e-002
3.691241e+003;1.942325e-002
3.693169e+003;2.107373e-002
3.695098e+003;2.154444e-002
3.697026e+003;2.150997e-002
3.698955e+003;2.076685e-002
3.700884e+003;1.951220e-002
3.702812e+003;1.884322e-002
3.704741e+003;1.898325e-002
3.706669e+003;1.860508e-002
3.708598e+003;1.694837e-002
3.710526e+003;1.513067e-002
3.712455e+003;1.568366e-002
3.714383e+003;1.809219e-002
3.716312e+003;1.861539e-002
3.718240e+003;1.793235e-002
3.720169e+003;1.749254e-002
3.722098e+003;1.728500e-002
3.724026e+003;1.718112e-002
3.725955e+003;1.716789e-002
3.727883e+003;1.771758e-002
3.729812e+003;1.695519e-002
3.731740e+003;1.557196e-002
3.733669e+003;1.523580e-002
3.735597e+003;1.507694e-002
3.737526e+003;1.639686e-002
3.739455e+003;1.761650e-002
3.741383e+003;1.626719e-002
3.743312e+003;1.192161e-002
3.745240e+003;1.297806e-002
3.747169e+003;1.555098e-002
3.749097e+003;1.376185e-002
3.751026e+003;1.338922e-002
3.752954e+003;1.538329e-002
3.754883e+003;1.756164e-002
3.756812e+003;1.759501e-002
3.758740e+003;1.758400e-002
3.760668e+003;1.831809e-002
3.762597e+003;1.913388e-002
3.764526e+003;1.884585e-002
3.766454e+003;1.858409e-002
3.768383e+003;1.771862e-002
3.770311e+003;1.786360e-002
3.772240e+003;1.867941e-002
3.774168e+003;1.881585e-002
3.776097e+003;1.901461e-002
3.778025e+003;1.876420e-002
3.779954e+003;1.858900e-002
3.781883e+003;1.890060e-002
3.783811e+003;1.870314e-002
3.785740e+003;1.878530e-002
3.787668e+003;1.916633e-002
3.789597e+003;1.938878e-002
3.791525e+003;1.909888e-002
3.793454e+003;1.856005e-002
3.795382e+003;1.815008e-002
3.797311e+003;1.817448e-002
3.799240e+003;1.655255e-002
3.801168e+003;1.514964e-002
3.803097e+003;1.745564e-002
3.805025e+003;1.734138e-002
3.806954e+003;1.612463e-002
3.808882e+003;1.785539e-002
3.810811e+003;1.901299e-002
3.812739e+003;1.842663e-002
3.814668e+003;1.609815e-002
3.816596e+003;1.644889e-002
3.818525e+003;1.759294e-002
3.820454e+003;1.606679e-002
3.822382e+003;1.708906e-002
3.824311e+003;1.895708e-002
3.826239e+003;1.912706e-002
3.828168e+003;1.891493e-002
3.830096e+003;1.846528e-002
3.832025e+003;1.821881e-002
3.833953e+003;1.750472e-002
3.835882e+003;1.557375e-002
3.837811e+003;1.490645e-002
3.839739e+003;1.691657e-002
3.841667e+003;1.795604e-002
3.843596e+003;1.851316e-002
3.845525e+003;1.949876e-002
3.847453e+003;1.935614e-002
3.849382e+003;1.739600e-002
3.851310e+003;1.325146e-002
3.853239e+003;1.068016e-002
3.855167e+003;1.465530e-002
3.857096e+003;1.830070e-002
3.859024e+003;1.863040e-002
3.860953e+003;1.824213e-002
3.862882e+003;1.811315e-002
3.864810e+003;1.802134e-002
3.866739e+003;1.838089e-002
3.868667e+003;1.710398e-002
3.870596e+003;1.719777e-002
3.872524e+003;1.874690e-002
3.874453e+003;1.934197e-002
3.876381e+003;1.992953e-002
3.878310e+003;1.932513e-002
3.880239e+003;1.848913e-002
3.882167e+003;1.869556e-002
3.884096e+003;1.812124e-002
3.886024e+003;1.827603e-002
3.887953e+003;2.006214e-002
3.889881e+003;1.934817e-002
3.891810e+003;1.871936e-002
3.893738e+003;1.964916e-002
3.895667e+003;2.013696e-002
3.897595e+003;1.923608e-002
3.899524e+003;1.823270e-002
3.901453e+003;1.788584e-002
3.903381e+003;1.775569e-002
3.905310e+003;1.900662e-002
3.907238e+003;2.063223e-002
3.909167e+003;2.107286e-002
3.911095e+003;2.126183e-002
3.913024e+003;2.124607e-002
3.914952e+003;2.076042e-002
3.916881e+003;2.052908e-002
3.918810e+003;2.074100e-002
3.920738e+003;2.098529e-002
3.922667e+003;2.105328e-002
3.924595e+003;2.109901e-002
3.926524e+003;2.178984e-002
3.928452e+003;2.184064e-002
3.930381e+003;2.162710e-002
3.932309e+003;2.143908e-002
3.934238e+003;2.140901e-002
3.936167e+003;2.117520e-002
3.938095e+003;2.159907e-002
3.940023e+003;2.211424e-002
3.941952e+003;2.194961e-002
3.943881e+003;2.158437e-002
3.945809e+003;2.098581e-002
3.947738e+003;2.059898e-002
3.949666e+003;2.098063e-002
3.951595e+003;2.082521e-002
3.953523e+003;2.071326e-002
3.955452e+003;2.121089e-002
3.957380e+003;2.140793e-002
3.959309e+003;2.140619e-002
3.961238e+003;2.147602e-002
3.963166e+003;2.156498e-002
3.965095e+003;2.190510e-002
3.967023e+003;2.198049e-002
3.968952e+003;2.170066e-002
3.970880e+003;2.154677e-002
3.972809e+003;2.129329e-002
3.974737e+003;2.105491e-002
3.976666e+003;2.103644e-002
3.978594e+003;2.166447e-002
3.980523e+003;2.259121e-002
3.982452e+003;2.269583e-002
3.984380e+003;2.244356e-002
3.986309e+003;2.271336e-002
3.988237e+003;2.333795e-002
3.990166e+003;2.382568e-002
3.992094e+003;2.367246e-002
3.994023e+003;2.331683e-002
3.995951e+003;2.317666e-002
3.997880e+003;2.287367e-002
3.999809e+003;2.296040e-002
4.001737e+003;0.000000e+000
