3.992094e+002;0.000000e+000
4.011380e+002;0.000000e+000
4.030665e+002;0.000000e+000
4.049951e+002;0.000000e+000
4.069236e+002;0.000000e+000
4.088522e+002;0.000000e+000
4.107807e+002;0.000000e+000
4.127093e+002;0.000000e+000
4.146378e+002;0.000000e+000
4.165664e+002;0.000000e+000
4.184949e+002;0.000000e+000
4.204235e+002;0.000000e+000
4.223520e+002;0.000000e+000
4.242806e+002;0.000000e+000
4.262091e+002;0.000000e+000
4.281377e+002;0.000000e+000
4.300662e+002;0.000000e+000
4.319948e+002;0.000000e+000
4.339233e+002;0.000000e+000
4.358519e+002;0.000000e+000
4.377804e+002;0.000000e+000
4.397090e+002;0.000000e+000
4.416375e+002;0.000000e+000
4.435660e+002;0.000000e+000
4.454946e+002;0.000000e+000
4.474232e+002;0.000000e+000
4.493517e+002;0.000000e+000
4.512802e+002;0.000000e+000
4.532088e+002;0.000000e+000
4.551373e+002;0.000000e+000
4.570659e+002;0.000000e+000
4.589944e+002;0.000000e+000
4.609230e+002;0.000000e+000
4.628515e+002;0.000000e+000
4.647801e+002;0.000000e+000
4.667086e+002;0.000000e+000
4.686372e+002;0.000000e+000
4.705657e+002;0.000000e+000
4.724943e+002;0.000000e+000
4.744228e+002;0.000000e+000
4.763513e+002;0.000000e+000
4.782799e+002;0.000000e+000
4.802085e+002;0.000000e+000
4.821370e+002;0.000000e+000
4.840656e+002;0.000000e+000
4.859941e+002;0.000000e+000
4.879226e+002;0.000000e+000
4.898512e+002;0.000000e+000
4.917798e+002;0.000000e+000
4.937083e+002;0.000000e+000
4.956368e+002;0.000000e+000
4.975654e+002;0.000000e+000
4.994939e+002;0.000000e+000
5.014225e+002;0.000000e+000
5.033510e+002;0.000000e+000
5.052796e+002;0.000000e+000
5.072081e+002;0.000000e+000
5.091367e+002;0.000000e+000
5.110652e+002;0.000000e+000
5.129938e+002;0.000000e+000
5.149223e+002;0.000000e+000
5.168509e+002;0.000000e+000
5.187794e+002;0.000000e+000
5.207079e+002;0.000000e+000
5.226365e+002;0.000000e+000
5.245651e+002;0.000000e+000
5.264936e+002;0.000000e+000
5.284222e+002;0.000000e+000
5.303507e+002;0.000000e+000
5.322792e+002;0.000000e+000
5.342078e+002;0.000000e+000
5.361364e+002;0.000000e+000
5.380649e+002;0.000000e+000
5.399935e+002;0.000000e+000
5.419220e+002;0.000000e+000
5.438505e+002;0.000000e+000
5.457791e+002;0.000000e+000
5.477076e+002;0.000000e+000
5.496362e+002;0.000000e+000
5.515648e+002;0.000000e+000
5.534933e+002;0.000000e+000
5.554218e+002;0.000000e+000
5.573504e+002;0.000000e+000
5.592789e+002;0.000000e+000
5.612075e+002;0.000000e+000
5.631360e+002;0.000000e+000
5.650646e+002;0.000000e+000
5.669931e+002;0.000000e+000
5.689217e+002;0.000000e+000
5.708502e+002;0.000000e+000
5.727787e+002;0.000000e+000
5.747073e+002;0.000000e+000
5.766359e+002;0.000000e+000
5.785644e+002;0.000000e+000
5.804930e+002;0.000000e+000
5.824215e+002;0.000000e+000
5.843500e+002;0.000000e+000
5.862786e+002;0.000000e+000
5.882072e+002;0.000000e+000
5.901357e+002;0.000000e+000
5.920643e+002;0.000000e+000
5.939928e+002;0.000000e+000
5.959213e+002;0.000000e+000
5.978499e+002;0.000000e+000
5.997784e+002;2.557407e-002
6.017070e+002;2.639116e-002
6.036355e+002;3.465346e-002
6.055641e+002;3.945003e-002
6.074926e+002;3.870226e-002
6.094211e+002;3.808786e-002
6.113497e+002;3.994378e-002
6.132783e+002;4.141879e-002
6.152068e+002;4.166191e-002
6.171354e+002;3.828120e-002
6.190639e+002;3.547100e-002
6.209924e+002;3.455324e-002
6.229210e+002;3.409403e-002
6.248495e+002;3.448759e-002
6.267781e+002;3.467603e-002
6.287067e+002;3.859473e-002
6.306352e+002;3.862906e-002
6.325637e+002;3.377334e-002
6.344923e+002;3.426792e-002
6.364208e+002;3.638213e-002
6.383494e+002;3.783296e-002
6.402780e+002;4.183310e-002
6.422065e+002;4.329856e-002
6.441350e+002;3.993601e-002
6.460636e+002;3.647801e-002
6.479921e+002;3.571814e-002
6.499207e+002;3.913033e-002
6.518492e+002;3.809563e-002
6.537778e+002;3.650068e-002
6.557063e+002;3.674207e-002
6.576349e+002;3.595791e-002
6.595634e+002;3.550731e-002
6.614919e+002;3.570073e-002
6.634205e+002;3.916855e-002
6.653491e+002;3.976143e-002
6.672776e+002;3.622146e-002
6.692062e+002;3.598192e-002
6.711347e+002;3.821835e-002
6.730632e+002;3.887182e-002
6.749918e+002;3.544831e-002
6.769203e+002;3.378832e-002
6.788489e+002;3.650879e-002
6.807775e+002;3.887761e-002
6.827060e+002;3.790455e-002
6.846345e+002;3.575862e-002
6.865631e+002;3.579165e-002
6.884916e+002;3.749430e-002
6.904202e+002;3.705387e-002
6.923488e+002;3.429658e-002
6.942773e+002;3.397398e-002
6.962058e+002;3.572955e-002
6.981344e+002;3.655449e-002
7.000629e+002;3.675458e-002
7.019915e+002;3.580474e-002
7.039200e+002;3.455485e-002
7.058486e+002;3.444497e-002
7.077771e+002;3.492926e-002
7.097057e+002;3.503406e-002
7.116342e+002;3.494028e-002
7.135627e+002;3.566969e-002
7.154913e+002;3.565473e-002
7.174199e+002;3.592407e-002
7.193484e+002;3.709743e-002
7.212770e+002;3.790726e-002
7.232055e+002;3.699372e-002
7.251340e+002;3.536387e-002
7.270626e+002;3.572678e-002
7.289911e+002;3.659421e-002
7.309197e+002;3.685271e-002
7.328483e+002;3.622824e-002
7.347768e+002;3.503636e-002
7.367053e+002;3.451374e-002
7.386339e+002;3.465475e-002
7.405624e+002;3.504228e-002
7.424910e+002;3.418715e-002
7.444196e+002;3.450194e-002
7.463481e+002;3.542282e-002
7.482766e+002;3.542541e-002
7.502052e+002;3.534669e-002
7.521337e+002;3.523528e-002
7.540623e+002;3.490696e-002
7.559908e+002;3.410313e-002
7.579194e+002;3.360520e-002
7.598479e+002;3.398129e-002
7.617765e+002;3.456992e-002
7.637050e+002;3.543652e-002
7.656335e+002;3.607678e-002
7.675621e+002;3.576275e-002
7.694907e+002;3.535241e-002
7.714192e+002;3.481178e-002
7.733478e+002;3.471978e-002
7.752763e+002;3.467316e-002
7.772048e+002;3.411109e-002
7.791334e+002;3.404128e-002
7.810620e+002;3.531287e-002
7.829905e+002;3.578150e-002
7.849191e+002;3.611908e-002
7.868476e+002;3.787280e-002
7.887761e+002;3.912917e-002
7.907047e+002;3.934743e-002
7.926332e+002;4.040486e-002
7.945618e+002;4.202224e-002
7.964903e+002;4.355507e-002
7.984189e+002;4.438581e-002
8.003474e+002;4.598109e-002
8.022759e+002;4.840037e-002
8.042045e+002;5.141191e-002
8.061331e+002;5.434206e-002
8.080616e+002;5.606532e-002
8.099902e+002;5.638536e-002
8.119187e+002;5.490283e-002
8.138472e+002;5.200505e-002
8.157758e+002;4.947676e-002
8.177043e+002;4.778734e-002
8.196329e+002;4.630598e-002
8.215615e+002;4.480097e-002
8.234900e+002;4.383259e-002
8.254185e+002;4.335732e-002
8.273471e+002;4.360778e-002
8.292756e+002;4.388713e-002
8.312042e+002;4.488378e-002
8.331328e+002;4.719871e-002
8.350613e+002;4.946384e-002
8.369898e+002;5.195243e-002
8.389184e+002;5.616026e-002
8.408469e+002;6.059197e-002
8.427755e+002;6.081168e-002
8.447040e+002;5.682878e-002
8.466326e+002;5.196016e-002
8.485611e+002;4.791586e-002
8.504897e+002;4.507653e-002
8.524182e+002;4.426597e-002
8.543467e+002;4.379674e-002
8.562753e+002;4.259128e-002
8.582039e+002;4.178753e-002
8.601324e+002;4.129182e-002
8.620610e+002;4.081950e-002
8.639895e+002;4.096698e-002
8.659180e+002;4.111426e-002
8.678466e+002;4.093232e-002
8.697751e+002;4.139751e-002
8.717037e+002;4.216859e-002
8.736323e+002;4.213756e-002
8.755608e+002;4.158401e-002
8.774893e+002;4.067888e-002
8.794179e+002;4.007526e-002
8.813464e+002;3.961268e-002
8.832750e+002;3.911800e-002
8.852036e+002;3.928881e-002
8.871321e+002;4.013820e-002
8.890606e+002;4.115505e-002
8.909892e+002;4.282324e-002
8.929177e+002;4.535050e-002
8.948463e+002;4.907859e-002
8.967748e+002;5.355980e-002
8.987034e+002;5.699517e-002
9.006319e+002;5.696918e-002
9.025605e+002;5.313596e-002
9.044890e+002;4.802957e-002
9.064175e+002;4.346376e-002
9.083461e+002;4.050480e-002
9.102747e+002;3.861222e-002
9.122032e+002;3.701977e-002
9.141318e+002;3.623587e-002
9.160603e+002;3.612049e-002
9.179888e+002;3.603962e-002
9.199174e+002;3.598375e-002
9.218459e+002;3.596698e-002
9.237745e+002;3.603235e-002
9.257031e+002;3.607544e-002
9.276316e+002;3.597691e-002
9.295601e+002;3.611177e-002
9.314887e+002;3.650194e-002
9.334172e+002;3.737201e-002
9.353458e+002;3.837968e-002
9.372744e+002;3.978673e-002
9.392029e+002;4.107776e-002
9.411314e+002;4.180351e-002
9.430600e+002;4.212456e-002
9.449885e+002;4.218546e-002
9.469171e+002;4.193465e-002
9.488456e+002;4.196289e-002
9.507742e+002;4.256475e-002
9.527027e+002;4.336127e-002
9.546313e+002;4.404039e-002
9.565598e+002;4.503709e-002
9.584883e+002;4.631413e-002
9.604169e+002;4.786358e-002
9.623455e+002;5.023243e-002
9.642740e+002;5.329757e-002
9.662026e+002;5.794916e-002
9.681311e+002;6.476190e-002
9.700596e+002;7.302791e-002
9.719882e+002;7.984093e-002
9.739167e+002;8.222695e-002
9.758453e+002;7.882826e-002
9.777739e+002;7.080644e-002
9.797024e+002;6.125899e-002
9.816309e+002;5.334919e-002
9.835595e+002;4.778279e-002
9.854880e+002;4.493496e-002
9.874166e+002;4.470702e-002
9.893452e+002;4.612164e-002
9.912737e+002;4.959504e-002
9.932022e+002;5.545682e-002
9.951307e+002;6.270378e-002
9.970593e+002;6.799742e-002
9.989879e+002;6.820354e-002
1.000916e+003;6.355233e-002
1.002845e+003;5.719564e-002
1.004773e+003;5.231303e-002
1.006702e+003;4.929908e-002
1.008631e+003;4.761535e-002
1.010559e+003;4.612256e-002
1.012488e+003;4.468630e-002
1.014416e+003;4.363159e-002
1.016345e+003;4.296519e-002
1.018273e+003;4.264151e-002
1.020202e+003;4.252835e-002
1.022130e+003;4.275278e-002
1.024059e+003;4.287572e-002
1.025988e+003;4.306510e-002
1.027916e+003;4.308727e-002
1.029845e+003;4.323011e-002
1.031773e+003;4.432508e-002
1.033702e+003;4.572060e-002
1.035630e+003;4.683517e-002
1.037559e+003;4.797303e-002
1.039487e+003;4.873765e-002
1.041416e+003;4.866392e-002
1.043344e+003;4.838059e-002
1.045273e+003;4.779223e-002
1.047202e+003;4.698924e-002
1.049130e+003;4.550748e-002
1.051059e+003;4.441018e-002
1.052987e+003;4.371469e-002
1.054916e+003;4.320679e-002
1.056844e+003;4.345571e-002
1.058773e+003;4.348456e-002
1.060701e+003;4.324577e-002
1.062630e+003;4.315793e-002
1.064558e+003;4.323098e-002
1.066487e+003;4.340737e-002
1.068416e+003;4.332213e-002
1.070344e+003;4.323885e-002
1.072273e+003;4.358891e-002
1.074201e+003;4.412232e-002
1.076130e+003;4.400298e-002
1.078058e+003;4.424634e-002
1.079987e+003;4.537603e-002
1.081915e+003;4.609330e-002
1.083844e+003;4.602279e-002
1.085773e+003;4.616055e-002
1.087701e+003;4.675457e-002
1.089630e+003;4.785544e-002
1.091558e+003;4.846571e-002
1.093487e+003;4.930012e-002
1.095415e+003;5.121938e-002
1.097344e+003;5.340858e-002
1.099272e+003;5.497953e-002
1.101201e+003;5.570729e-002
1.103129e+003;5.598503e-002
1.105058e+003;5.547802e-002
1.106987e+003;5.414849e-002
1.108915e+003;5.257171e-002
1.110844e+003;5.081942e-002
1.112772e+003;4.919480e-002
1.114701e+003;4.822543e-002
1.116629e+003;4.751154e-002
1.118558e+003;4.635022e-002
1.120486e+003;4.531523e-002
1.122415e+003;4.472740e-002
1.124344e+003;4.450980e-002
1.126272e+003;4.420705e-002
1.128201e+003;4.382115e-002
1.130129e+003;4.372605e-002
1.132058e+003;4.451942e-002
1.133986e+003;4.581979e-002
1.135915e+003;4.713647e-002
1.137843e+003;4.905222e-002
1.139772e+003;5.212126e-002
1.141700e+003;5.520045e-002
1.143629e+003;5.860549e-002
1.145557e+003;6.233782e-002
1.147486e+003;6.538975e-002
1.149415e+003;6.830470e-002
1.151343e+003;7.143076e-002
1.153272e+003;7.316607e-002
1.155200e+003;7.344443e-002
1.157129e+003;7.354834e-002
1.159057e+003;7.405691e-002
1.160986e+003;7.490217e-002
1.162914e+003;7.582258e-002
1.164843e+003;7.620478e-002
1.166771e+003;7.561458e-002
1.168700e+003;7.355788e-002
1.170629e+003;6.978036e-002
1.172557e+003;6.496892e-002
1.174486e+003;5.995717e-002
1.176414e+003;5.552802e-002
1.178343e+003;5.221030e-002
1.180271e+003;5.029563e-002
1.182200e+003;4.915736e-002
1.184128e+003;4.802454e-002
1.186057e+003;4.689633e-002
1.187986e+003;4.631126e-002
1.189914e+003;4.611066e-002
1.191843e+003;4.600356e-002
1.193771e+003;4.610863e-002
1.195700e+003;4.611877e-002
1.197628e+003;4.612684e-002
1.199557e+003;4.548923e-002
1.201485e+003;4.508521e-002
1.203414e+003;4.497035e-002
1.205343e+003;4.485472e-002
1.207271e+003;4.525661e-002
1.209200e+003;4.629695e-002
1.211128e+003;4.732771e-002
1.213057e+003;4.824668e-002
1.214985e+003;4.914021e-002
1.216914e+003;4.939634e-002
1.218842e+003;4.898689e-002
1.220771e+003;4.805218e-002
1.222699e+003;4.696488e-002
1.224628e+003;4.601200e-002
1.226557e+003;4.544449e-002
1.228485e+003;4.550832e-002
1.230414e+003;4.577314e-002
1.232342e+003;4.548091e-002
1.234271e+003;4.564651e-002
1.236199e+003;4.638742e-002
1.238128e+003;4.638657e-002
1.240056e+003;4.632836e-002
1.241985e+003;4.651412e-002
1.243913e+003;4.698153e-002
1.245842e+003;4.772857e-002
1.247771e+003;4.824575e-002
1.249699e+003;4.921502e-002
1.251628e+003;5.163176e-002
1.253556e+003;5.454871e-002
1.255485e+003;5.636624e-002
1.257413e+003;5.619477e-002
1.259342e+003;5.422912e-002
1.261270e+003;5.188227e-002
1.263199e+003;5.002957e-002
1.265127e+003;4.868323e-002
1.267056e+003;4.783092e-002
1.268985e+003;4.728227e-002
1.270913e+003;4.658173e-002
1.272842e+003;4.589914e-002
1.274770e+003;4.565677e-002
1.276699e+003;4.568795e-002
1.278627e+003;4.538647e-002
1.280556e+003;4.515270e-002
1.282484e+003;4.540192e-002
1.284413e+003;4.577259e-002
1.286342e+003;4.650973e-002
1.288270e+003;4.782063e-002
1.290199e+003;4.890712e-002
1.292127e+003;4.963586e-002
1.294056e+003;5.060419e-002
1.295984e+003;5.102146e-002
1.297913e+003;5.064585e-002
1.299841e+003;5.057601e-002
1.301770e+003;5.117252e-002
1.303698e+003;5.171006e-002
1.305627e+003;5.060538e-002
1.307556e+003;4.794490e-002
1.309484e+003;4.560046e-002
1.311413e+003;4.451336e-002
1.313341e+003;4.460246e-002
1.315270e+003;4.527570e-002
1.317198e+003;4.603697e-002
1.319127e+003;4.717034e-002
1.321055e+003;4.863275e-002
1.322984e+003;5.005091e-002
1.324912e+003;5.157411e-002
1.326841e+003;5.329408e-002
1.328770e+003;5.443054e-002
1.330698e+003;5.482726e-002
1.332627e+003;5.451817e-002
1.334555e+003;5.358821e-002
1.336484e+003;5.275739e-002
1.338412e+003;5.252556e-002
1.340341e+003;5.328547e-002
1.342269e+003;5.486342e-002
1.344198e+003;5.662081e-002
1.346126e+003;5.901132e-002
1.348055e+003;6.192134e-002
1.349984e+003;6.556077e-002
1.351912e+003;7.028819e-002
1.353841e+003;7.643230e-002
1.355769e+003;8.340631e-002
1.357698e+003;8.920287e-002
1.359626e+003;9.136848e-002
1.361555e+003;9.056144e-002
1.363483e+003;9.013214e-002
1.365412e+003;9.220394e-002
1.367341e+003;9.931903e-002
1.369269e+003;1.141712e-001
1.371198e+003;1.361324e-001
1.373126e+003;1.612214e-001
1.375055e+003;1.812342e-001
1.376983e+003;1.834556e-001
1.378912e+003;1.648414e-001
1.380840e+003;1.374921e-001
1.382769e+003;1.120704e-001
1.384698e+003;9.212704e-002
1.386626e+003;7.756253e-002
1.388555e+003;6.822870e-002
1.390483e+003;6.252891e-002
1.392412e+003;5.853792e-002
1.394340e+003;5.570043e-002
1.396269e+003;5.440710e-002
1.398197e+003;5.371170e-002
1.400126e+003;5.329233e-002
1.402054e+003;5.340075e-002
1.403983e+003;5.360167e-002
1.405911e+003;5.386385e-002
1.407840e+003;5.440098e-002
1.409769e+003;5.497476e-002
1.411697e+003;5.541331e-002
1.413626e+003;5.561531e-002
1.415554e+003;5.579104e-002
1.417483e+003;5.567535e-002
1.419411e+003;5.605752e-002
1.421340e+003;5.786220e-002
1.423268e+003;5.969492e-002
1.425197e+003;6.222072e-002
1.427125e+003;6.608225e-002
1.429054e+003;7.159557e-002
1.430983e+003;8.003674e-002
1.432911e+003;8.975810e-002
1.434840e+003;9.637167e-002
1.436768e+003;9.903520e-002
1.438697e+003;1.012195e-001
1.440625e+003;1.043782e-001
1.442554e+003;1.093104e-001
1.444482e+003;1.163753e-001
1.446411e+003;1.257289e-001
1.448340e+003;1.355841e-001
1.450268e+003;1.440068e-001
1.452197e+003;1.496075e-001
1.454125e+003;1.519953e-001
1.456054e+003;1.509085e-001
1.457982e+003;1.496205e-001
1.459911e+003;1.481134e-001
1.461839e+003;1.437246e-001
1.463768e+003;1.362171e-001
1.465697e+003;1.269175e-001
1.467625e+003;1.169774e-001
1.469554e+003;1.058947e-001
1.471482e+003;9.430427e-002
1.473411e+003;8.453268e-002
1.475339e+003;7.755172e-002
1.477268e+003;7.146642e-002
1.479196e+003;6.597886e-002
1.481125e+003;6.085612e-002
1.483053e+003;5.662323e-002
1.484982e+003;5.297894e-002
1.486911e+003;4.959757e-002
1.488839e+003;4.668162e-002
1.490768e+003;4.510307e-002
1.492696e+003;4.440339e-002
1.494625e+003;4.259622e-002
1.496553e+003;4.030734e-002
1.498482e+003;3.961222e-002
1.500410e+003;3.931130e-002
1.502339e+003;3.830602e-002
1.504267e+003;3.576470e-002
1.506196e+003;3.310046e-002
1.508125e+003;3.327425e-002
1.510053e+003;3.400702e-002
1.511982e+003;3.355612e-002
1.513910e+003;3.326548e-002
1.515839e+003;3.259521e-002
1.517767e+003;3.165927e-002
1.519696e+003;3.042092e-002
1.521624e+003;2.944961e-002
1.523553e+003;3.012615e-002
1.525481e+003;3.064419e-002
1.527410e+003;3.115757e-002
1.529339e+003;3.181447e-002
1.531267e+003;3.182142e-002
1.533196e+003;3.133282e-002
1.535124e+003;3.223922e-002
1.537053e+003;3.219897e-002
1.538981e+003;3.077033e-002
1.540910e+003;3.132891e-002
1.542838e+003;3.343264e-002
1.544767e+003;3.488797e-002
1.546695e+003;3.558654e-002
1.548624e+003;3.560488e-002
1.550553e+003;3.556762e-002
1.552481e+003;3.495817e-002
1.554410e+003;3.380357e-002
1.556338e+003;3.240474e-002
1.558267e+003;2.980799e-002
1.560195e+003;3.007008e-002
1.562124e+003;3.224704e-002
1.564052e+003;3.251757e-002
1.565981e+003;3.207467e-002
1.567910e+003;3.130658e-002
1.569838e+003;3.095777e-002
1.571767e+003;3.180937e-002
1.573695e+003;3.153337e-002
1.575624e+003;3.014313e-002
1.577552e+003;3.088835e-002
1.579481e+003;3.215030e-002
1.581409e+003;3.221414e-002
1.583338e+003;3.209018e-002
1.585266e+003;3.156230e-002
1.587195e+003;3.126025e-002
1.589124e+003;3.126452e-002
1.591052e+003;3.132157e-002
1.592981e+003;3.126317e-002
1.594909e+003;3.119570e-002
1.596838e+003;3.129746e-002
1.598766e+003;3.155197e-002
1.600695e+003;3.179992e-002
1.602623e+003;3.237075e-002
1.604552e+003;3.291145e-002
1.606480e+003;3.306521e-002
1.608409e+003;3.321490e-002
1.610338e+003;3.368991e-002
1.612266e+003;3.404124e-002
1.614195e+003;3.392493e-002
1.616123e+003;3.345168e-002
1.618052e+003;3.485246e-002
1.619980e+003;3.648489e-002
1.621909e+003;3.649167e-002
1.623837e+003;3.661339e-002
1.625766e+003;3.723921e-002
1.627694e+003;3.750437e-002
1.629623e+003;3.770049e-002
1.631552e+003;3.769883e-002
1.633480e+003;3.659919e-002
1.635409e+003;3.541765e-002
1.637337e+003;3.668293e-002
1.639266e+003;3.825015e-002
1.641194e+003;3.894495e-002
1.643123e+003;3.893799e-002
1.645051e+003;3.815221e-002
1.646980e+003;3.811539e-002
1.648909e+003;3.913229e-002
1.650837e+003;3.781695e-002
1.652766e+003;3.533911e-002
1.654694e+003;3.708664e-002
1.656623e+003;3.939364e-002
1.658551e+003;3.996420e-002
1.660480e+003;3.977257e-002
1.662408e+003;3.903353e-002
1.664337e+003;3.896778e-002
1.666266e+003;3.881707e-002
1.668194e+003;3.777104e-002
1.670123e+003;3.742899e-002
1.672051e+003;3.768608e-002
1.673980e+003;3.702858e-002
1.675908e+003;3.673676e-002
1.677837e+003;3.719658e-002
1.679765e+003;3.690974e-002
1.681694e+003;3.560538e-002
1.683622e+003;3.345003e-002
1.685551e+003;3.396363e-002
1.687479e+003;3.578736e-002
1.689408e+003;3.639654e-002
1.691337e+003;3.651877e-002
1.693265e+003;3.588934e-002
1.695194e+003;3.438802e-002
1.697122e+003;3.507245e-002
1.699051e+003;3.549653e-002
1.700979e+003;3.617803e-002
1.702908e+003;3.862957e-002
1.704836e+003;3.972138e-002
1.706765e+003;4.045799e-002
1.708693e+003;4.090669e-002
1.710622e+003;4.117221e-002
1.712551e+003;4.102572e-002
1.714479e+003;4.014202e-002
1.716408e+003;3.889200e-002
1.718336e+003;3.922370e-002
1.720265e+003;4.079883e-002
1.722193e+003;4.130975e-002
1.724122e+003;4.120952e-002
1.726050e+003;4.169463e-002
1.727979e+003;4.223874e-002
1.729908e+003;4.259980e-002
1.731836e+003;4.230309e-002
1.733765e+003;4.203914e-002
1.735693e+003;4.422858e-002
1.737622e+003;4.600146e-002
1.739550e+003;4.609894e-002
1.741479e+003;4.639236e-002
1.743407e+003;4.568928e-002
1.745336e+003;4.389571e-002
1.747265e+003;4.144526e-002
1.749193e+003;3.863906e-002
1.751122e+003;3.591619e-002
1.753050e+003;3.391114e-002
1.754979e+003;3.126435e-002
1.756907e+003;2.839259e-002
1.758836e+003;2.631779e-002
1.760764e+003;2.412120e-002
1.762693e+003;2.257017e-002
1.764621e+003;2.187158e-002
1.766550e+003;2.058817e-002
1.768479e+003;1.952818e-002
1.770407e+003;1.844443e-002
1.772336e+003;1.732486e-002
1.774264e+003;1.766796e-002
1.776193e+003;1.817520e-002
1.778121e+003;1.807705e-002
1.780050e+003;1.752742e-002
1.781978e+003;1.713500e-002
1.783907e+003;1.667903e-002
1.785835e+003;1.605975e-002
1.787764e+003;1.548532e-002
1.789693e+003;1.457429e-002
1.791621e+003;1.343610e-002
1.793550e+003;1.306929e-002
1.795478e+003;1.334326e-002
1.797407e+003;1.334302e-002
1.799335e+003;1.304146e-002
1.801264e+003;1.262298e-002
1.803192e+003;1.222887e-002
1.805121e+003;1.188292e-002
1.807049e+003;1.151599e-002
1.808978e+003;1.122789e-002
1.810907e+003;1.121365e-002
1.812835e+003;1.127632e-002
1.814764e+003;1.122715e-002
1.816692e+003;1.111713e-002
1.818621e+003;1.123990e-002
1.820549e+003;1.114436e-002
1.822478e+003;1.067161e-002
1.824406e+003;1.026623e-002
1.826335e+003;1.031597e-002
1.828264e+003;1.039962e-002
1.830192e+003;1.057378e-002
1.832121e+003;1.098509e-002
1.834049e+003;1.117978e-002
1.835978e+003;1.130015e-002
1.837906e+003;1.131498e-002
1.839835e+003;1.125795e-002
1.841763e+003;1.071755e-002
1.843692e+003;9.898080e-003
1.845620e+003;1.005719e-002
1.847549e+003;1.047045e-002
1.849478e+003;1.052303e-002
1.851406e+003;1.030522e-002
1.853335e+003;1.036497e-002
1.855263e+003;1.057847e-002
1.857192e+003;1.052415e-002
1.859120e+003;1.061487e-002
1.861049e+003;1.069378e-002
1.862977e+003;1.035706e-002
1.864906e+003;9.797010e-003
1.866834e+003;9.240655e-003
1.868763e+003;9.119467e-003
1.870692e+003;9.701314e-003
1.872620e+003;9.989547e-003
1.874549e+003;9.916895e-003
1.876477e+003;9.984224e-003
1.878406e+003;9.921505e-003
1.880334e+003;9.651341e-003
1.882263e+003;9.690133e-003
1.884191e+003;9.972256e-003
1.886120e+003;9.867777e-003
1.888048e+003;9.594259e-003
1.889977e+003;9.748685e-003
1.891906e+003;1.010799e-002
1.893834e+003;1.030735e-002
1.895763e+003;1.041231e-002
1.897691e+003;1.019947e-002
1.899620e+003;9.863202e-003
1.901548e+003;9.793078e-003
1.903477e+003;1.003339e-002
1.905405e+003;9.847102e-003
1.907334e+003;9.509378e-003
1.909262e+003;9.438601e-003
1.911191e+003;9.587857e-003
1.913120e+003;9.605980e-003
1.915048e+003;9.568583e-003
1.916977e+003;9.205050e-003
1.918905e+003;9.288314e-003
1.920834e+003;9.671499e-003
1.922762e+003;9.407653e-003
1.924691e+003;9.325719e-003
1.926619e+003;9.510394e-003
1.928548e+003;9.415169e-003
1.930477e+003;9.196758e-003
1.932405e+003;9.004876e-003
1.934334e+003;8.923594e-003
1.936262e+003;9.004300e-003
1.938191e+003;8.863159e-003
1.940119e+003;8.620149e-003
1.942048e+003;8.477104e-003
1.943976e+003;8.557694e-003
1.945905e+003;8.733523e-003
1.947833e+003;8.931305e-003
1.949762e+003;9.035458e-003
1.951691e+003;8.830695e-003
1.953619e+003;8.449130e-003
1.955548e+003;8.583682e-003
1.957476e+003;8.807770e-003
1.959405e+003;8.757594e-003
1.961333e+003;8.709588e-003
1.963262e+003;8.587501e-003
1.965190e+003;8.462205e-003
1.967119e+003;8.382950e-003
1.969047e+003;8.366296e-003
1.970976e+003;8.282567e-003
1.972905e+003;8.195410e-003
1.974833e+003;8.325662e-003
1.976762e+003;8.498965e-003
1.978690e+003;8.464536e-003
1.980619e+003;8.647763e-003
1.982547e+003;8.718479e-003
1.984476e+003;8.655368e-003
1.986404e+003;8.726221e-003
1.988333e+003;8.792521e-003
1.990261e+003;8.587230e-003
1.992190e+003;8.532485e-003
1.994119e+003;8.960428e-003
1.996047e+003;9.241873e-003
1.997976e+003;9.174557e-003
1.999904e+003;9.054742e-003
2.001833e+003;8.929750e-003
2.003761e+003;8.972673e-003
2.005690e+003;8.974736e-003
2.007618e+003;8.918216e-003
2.009547e+003;8.878343e-003
2.011476e+003;8.795225e-003
2.013404e+003;8.709555e-003
2.015333e+003;8.564048e-003
2.017261e+003;8.643403e-003
2.019190e+003;8.819401e-003
2.021118e+003;9.025140e-003
2.023047e+003;9.210871e-003
2.024975e+003;9.114629e-003
2.026904e+003;9.047434e-003
2.028833e+003;8.873473e-003
2.030761e+003;8.956064e-003
2.032690e+003;9.228504e-003
2.034618e+003;9.277651e-003
2.036547e+003;9.187181e-003
2.038475e+003;9.179871e-003
2.040404e+003;9.147621e-003
2.042332e+003;9.070981e-003
2.044261e+003;9.118114e-003
2.046189e+003;9.484656e-003
2.048118e+003;9.629151e-003
2.050047e+003;9.355884e-003
2.051975e+003;9.337873e-003
2.053904e+003;9.413375e-003
2.055832e+003;9.253991e-003
2.057761e+003;9.183831e-003
2.059689e+003;9.334589e-003
2.061618e+003;9.474734e-003
2.063546e+003;9.328056e-003
2.065475e+003;9.223258e-003
2.067404e+003;9.288517e-003
2.069332e+003;9.254668e-003
2.071260e+003;9.280257e-003
2.073189e+003;9.493123e-003
2.075118e+003;9.360827e-003
2.077046e+003;9.223461e-003
2.078975e+003;9.438465e-003
2.080903e+003;9.777150e-003
2.082832e+003;9.962322e-003
2.084760e+003;1.006828e-002
2.086689e+003;1.021928e-002
2.088617e+003;1.024608e-002
2.090546e+003;1.028113e-002
2.092475e+003;1.011196e-002
2.094403e+003;9.699451e-003
2.096332e+003;9.773626e-003
2.098260e+003;1.006353e-002
2.100189e+003;1.011467e-002
2.102117e+003;1.002288e-002
2.104046e+003;1.003932e-002
2.105974e+003;1.004905e-002
2.107903e+003;1.007842e-002
2.109832e+003;1.015198e-002
2.111760e+003;1.000697e-002
2.113688e+003;1.008663e-002
2.115617e+003;1.033938e-002
2.117546e+003;1.049441e-002
2.119474e+003;1.054595e-002
2.121403e+003;1.066821e-002
2.123331e+003;1.107162e-002
2.125260e+003;1.142773e-002
2.127188e+003;1.175283e-002
2.129117e+003;1.205554e-002
2.131045e+003;1.216719e-002
2.132974e+003;1.232547e-002
2.134903e+003;1.233511e-002
2.136831e+003;1.209189e-002
2.138760e+003;1.189515e-002
2.140688e+003;1.166296e-002
2.142617e+003;1.168366e-002
2.144545e+003;1.174779e-002
2.146474e+003;1.176661e-002
2.148402e+003;1.174173e-002
2.150331e+003;1.189273e-002
2.152260e+003;1.215244e-002
2.154188e+003;1.197110e-002
2.156117e+003;1.194582e-002
2.158045e+003;1.237391e-002
2.159974e+003;1.268309e-002
2.161902e+003;1.286842e-002
2.163831e+003;1.303558e-002
2.165759e+003;1.314083e-002
2.167688e+003;1.329915e-002
2.169616e+003;1.343033e-002
2.171545e+003;1.369981e-002
2.173474e+003;1.378504e-002
2.175402e+003;1.372741e-002
2.177331e+003;1.376373e-002
2.179259e+003;1.371185e-002
2.181188e+003;1.361939e-002
2.183116e+003;1.349455e-002
2.185045e+003;1.358602e-002
2.186973e+003;1.371585e-002
2.188902e+003;1.361238e-002
2.190831e+003;1.328473e-002
2.192759e+003;1.321938e-002
2.194688e+003;1.335741e-002
2.196616e+003;1.354172e-002
2.198545e+003;1.342356e-002
2.200473e+003;1.329092e-002
2.202402e+003;1.333813e-002
2.204330e+003;1.331411e-002
2.206259e+003;1.300909e-002
2.208188e+003;1.287975e-002
2.210116e+003;1.290412e-002
2.212044e+003;1.279282e-002
2.213973e+003;1.271400e-002
2.215902e+003;1.278187e-002
2.217830e+003;1.306638e-002
2.219759e+003;1.310589e-002
2.221687e+003;1.308612e-002
2.223616e+003;1.320272e-002
2.225544e+003;1.326588e-002
2.227473e+003;1.339633e-002
2.229401e+003;1.354247e-002
2.231330e+003;1.354319e-002
2.233259e+003;1.349906e-002
2.235187e+003;1.334883e-002
2.237116e+003;1.334234e-002
2.239044e+003;1.345992e-002
2.240973e+003;1.333991e-002
2.242901e+003;1.322973e-002
2.244830e+003;1.351177e-002
2.246758e+003;1.365744e-002
2.248687e+003;1.373962e-002
2.250615e+003;1.403704e-002
2.252544e+003;1.413593e-002
2.254473e+003;1.437632e-002
2.256401e+003;1.441201e-002
2.258330e+003;1.404676e-002
2.260258e+003;1.375439e-002
2.262187e+003;1.381938e-002
2.264115e+003;1.414962e-002
2.266044e+003;1.431728e-002
2.267972e+003;1.418385e-002
2.269901e+003;1.408797e-002
2.271830e+003;1.399020e-002
2.273758e+003;1.391338e-002
2.275687e+003;1.373637e-002
2.277615e+003;1.349424e-002
2.279544e+003;1.336786e-002
2.281472e+003;1.329488e-002
2.283401e+003;1.335173e-002
2.285329e+003;1.351810e-002
2.287258e+003;1.350764e-002
2.289187e+003;1.315442e-002
2.291115e+003;1.314595e-002
2.293043e+003;1.321809e-002
2.294972e+003;1.324360e-002
2.296901e+003;1.331494e-002
2.298829e+003;1.321515e-002
2.300758e+003;1.311962e-002
2.302686e+003;1.309753e-002
2.304615e+003;1.313331e-002
2.306543e+003;1.331449e-002
2.308472e+003;1.347110e-002
2.310400e+003;1.375928e-002
2.312329e+003;1.383973e-002
2.314258e+003;1.371137e-002
2.316186e+003;1.365621e-002
2.318115e+003;1.351259e-002
2.320043e+003;1.369034e-002
2.321972e+003;1.387031e-002
2.323900e+003;1.416201e-002
2.325829e+003;1.453438e-002
2.327757e+003;1.474243e-002
2.329686e+003;1.478737e-002
2.331615e+003;1.493028e-002
2.333543e+003;1.508058e-002
2.335472e+003;1.518913e-002
2.337400e+003;1.527582e-002
2.339329e+003;1.524232e-002
2.341257e+003;1.533004e-002
2.343186e+003;1.551382e-002
2.345114e+003;1.562231e-002
2.347043e+003;1.578941e-002
2.348971e+003;1.571503e-002
2.350900e+003;1.554919e-002
2.352829e+003;1.589361e-002
2.354757e+003;1.623688e-002
2.356686e+003;1.631834e-002
2.358614e+003;1.649400e-002
2.360543e+003;1.656883e-002
2.362471e+003;1.652305e-002
2.364400e+003;1.659472e-002
2.366328e+003;1.667325e-002
2.368257e+003;1.671195e-002
2.370186e+003;1.677318e-002
2.372114e+003;1.660983e-002
2.374042e+003;1.641612e-002
2.375971e+003;1.654233e-002
2.377900e+003;1.692708e-002
2.379828e+003;1.698720e-002
2.381757e+003;1.668895e-002
2.383685e+003;1.672466e-002
2.385614e+003;1.704064e-002
2.387542e+003;1.709154e-002
2.389471e+003;1.698644e-002
2.391399e+003;1.718216e-002
2.393328e+003;1.728479e-002
2.395257e+003;1.725211e-002
2.397185e+003;1.737203e-002
2.399114e+003;1.749744e-002
2.401042e+003;1.760743e-002
2.402971e+003;1.752849e-002
2.404899e+003;1.738096e-002
2.406828e+003;1.727231e-002
2.408756e+003;1.727969e-002
2.410685e+003;1.718709e-002
2.412614e+003;1.713418e-002
2.414542e+003;1.720718e-002
2.416471e+003;1.729100e-002
2.418399e+003;1.741997e-002
2.420328e+003;1.757572e-002
2.422256e+003;1.755530e-002
2.424185e+003;1.753498e-002
2.426113e+003;1.789647e-002
2.428042e+003;1.827005e-002
2.429970e+003;1.804573e-002
2.431899e+003;1.771903e-002
2.433828e+003;1.767614e-002
2.435756e+003;1.770916e-002
2.437685e+003;1.737638e-002
2.439613e+003;1.685019e-002
2.441542e+003;1.677218e-002
2.443470e+003;1.689724e-002
2.445399e+003;1.686183e-002
2.447327e+003;1.657334e-002
2.449256e+003;1.636585e-002
2.451185e+003;1.642067e-002
2.453113e+003;1.663417e-002
2.455042e+003;1.668199e-002
2.456970e+003;1.653055e-002
2.458899e+003;1.625009e-002
2.460827e+003;1.618760e-002
2.462756e+003;1.618371e-002
2.464684e+003;1.611830e-002
2.466613e+003;1.635515e-002
2.468542e+003;1.651355e-002
2.470470e+003;1.646158e-002
2.472398e+003;1.652729e-002
2.474327e+003;1.660942e-002
2.476256e+003;1.649132e-002
2.478184e+003;1.683458e-002
2.480113e+003;1.738348e-002
2.482041e+003;1.758414e-002
2.483970e+003;1.754664e-002
2.485898e+003;1.736889e-002
2.487827e+003;1.720170e-002
2.489755e+003;1.707534e-002
2.491684e+003;1.706201e-002
2.493613e+003;1.725083e-002
2.495541e+003;1.756064e-002
2.497470e+003;1.745598e-002
2.499398e+003;1.728720e-002
2.501327e+003;1.728489e-002
2.503255e+003;1.728879e-002
2.505184e+003;1.757914e-002
2.507112e+003;1.772069e-002
2.509041e+003;1.776394e-002
2.510969e+003;1.812151e-002
2.512898e+003;1.832034e-002
2.514827e+003;1.852309e-002
2.516755e+003;1.877409e-002
2.518684e+003;1.884509e-002
2.520612e+003;1.901859e-002
2.522541e+003;1.926330e-002
2.524469e+003;1.955345e-002
2.526398e+003;1.984719e-002
2.528326e+003;2.001592e-002
2.530255e+003;2.019777e-002
2.532184e+003;2.046395e-002
2.534112e+003;2.079257e-002
2.536041e+003;2.080380e-002
2.537969e+003;2.089408e-002
2.539898e+003;2.122070e-002
2.541826e+003;2.167175e-002
2.543755e+003;2.181869e-002
2.545683e+003;2.188040e-002
2.547612e+003;2.253296e-002
2.549541e+003;2.312493e-002
2.551469e+003;2.345205e-002
2.553397e+003;2.373797e-002
2.555326e+003;2.401998e-002
2.557255e+003;2.435138e-002
2.559183e+003;2.442961e-002
2.561112e+003;2.446901e-002
2.563040e+003;2.483997e-002
2.564969e+003;2.530924e-002
2.566897e+003;2.597388e-002
2.568826e+003;2.646997e-002
2.570754e+003;2.688254e-002
2.572683e+003;2.770426e-002
2.574612e+003;2.853294e-002
2.576540e+003;2.912276e-002
2.578469e+003;2.956607e-002
2.580397e+003;2.986631e-002
2.582326e+003;2.996978e-002
2.584254e+003;2.973688e-002
2.586183e+003;2.911337e-002
2.588111e+003;2.839326e-002
2.590040e+003;2.770941e-002
2.591969e+003;2.714062e-002
2.593897e+003;2.685149e-002
2.595826e+003;2.694896e-002
2.597754e+003;2.668294e-002
2.599683e+003;2.672592e-002
2.601611e+003;2.698549e-002
2.603540e+003;2.708972e-002
2.605468e+003;2.744691e-002
2.607397e+003;2.803067e-002
2.609325e+003;2.850290e-002
2.611254e+003;2.866554e-002
2.613183e+003;2.912510e-002
2.615111e+003;2.944560e-002
2.617040e+003;2.934502e-002
2.618968e+003;2.904000e-002
2.620897e+003;2.906041e-002
2.622825e+003;2.926274e-002
2.624754e+003;2.894274e-002
2.626682e+003;2.847838e-002
2.628611e+003;2.832132e-002
2.630540e+003;2.818232e-002
2.632468e+003;2.801943e-002
2.634396e+003;2.811462e-002
2.636325e+003;2.846002e-002
2.638254e+003;2.852788e-002
2.640182e+003;2.879797e-002
2.642111e+003;2.929755e-002
2.644039e+003;2.939646e-002
2.645968e+003;2.953135e-002
2.647896e+003;3.002577e-002
2.649825e+003;3.047878e-002
2.651753e+003;3.093204e-002
2.653682e+003;3.138122e-002
2.655611e+003;3.173704e-002
2.657539e+003;3.192604e-002
2.659468e+003;3.229437e-002
2.661396e+003;3.271470e-002
2.663325e+003;3.268369e-002
2.665253e+003;3.263028e-002
2.667182e+003;3.265411e-002
2.669110e+003;3.264482e-002
2.671039e+003;3.244708e-002
2.672968e+003;3.250946e-002
2.674896e+003;3.304401e-002
2.676825e+003;3.328083e-002
2.678753e+003;3.329847e-002
2.680682e+003;3.344001e-002
2.682610e+003;3.340988e-002
2.684539e+003;3.336151e-002
2.686467e+003;3.337367e-002
2.688396e+003;3.341246e-002
2.690324e+003;3.370405e-002
2.692253e+003;3.406446e-002
2.694182e+003;3.370054e-002
2.696110e+003;3.331732e-002
2.698039e+003;3.389545e-002
2.699967e+003;3.465676e-002
2.701896e+003;3.497555e-002
2.703824e+003;3.555521e-002
2.705753e+003;3.638050e-002
2.707681e+003;3.716236e-002
2.709610e+003;3.806305e-002
2.711539e+003;3.924786e-002
2.713467e+003;4.068281e-002
2.715396e+003;4.212394e-002
2.717324e+003;4.349423e-002
2.719253e+003;4.528574e-002
2.721181e+003;4.690028e-002
2.723110e+003;4.732538e-002
2.725038e+003;4.671258e-002
2.726967e+003;4.565309e-002
2.728896e+003;4.421461e-002
2.730824e+003;4.264739e-002
2.732752e+003;4.167011e-002
2.734681e+003;4.100594e-002
2.736610e+003;4.001579e-002
2.738538e+003;3.888461e-002
2.740467e+003;3.769103e-002
2.742395e+003;3.678768e-002
2.744324e+003;3.620951e-002
2.746252e+003;3.583087e-002
2.748181e+003;3.578089e-002
2.750109e+003;3.574084e-002
2.752038e+003;3.558215e-002
2.753967e+003;3.564692e-002
2.755895e+003;3.586699e-002
2.757824e+003;3.602220e-002
2.759752e+003;3.617230e-002
2.761681e+003;3.670276e-002
2.763609e+003;3.714020e-002
2.765538e+003;3.740595e-002
2.767466e+003;3.768080e-002
2.769395e+003;3.812729e-002
2.771323e+003;3.867553e-002
2.773252e+003;3.933941e-002
2.775181e+003;4.036359e-002
2.777109e+003;4.136219e-002
2.779038e+003;4.213778e-002
2.780966e+003;4.298608e-002
2.782895e+003;4.440644e-002
2.784823e+003;4.593766e-002
2.786752e+003;4.747960e-002
2.788680e+003;4.894695e-002
2.790609e+003;5.053829e-002
2.792538e+003;5.223089e-002
2.794466e+003;5.381190e-002
2.796395e+003;5.490644e-002
2.798323e+003;5.592820e-002
2.800252e+003;5.708358e-002
2.802180e+003;5.865502e-002
2.804109e+003;6.083840e-002
2.806037e+003;6.320666e-002
2.807966e+003;6.535609e-002
2.809895e+003;6.722907e-002
2.811823e+003;6.913432e-002
2.813751e+003;7.091547e-002
2.815680e+003;7.269318e-002
2.817609e+003;7.479655e-002
2.819537e+003;7.719859e-002
2.821466e+003;7.998670e-002
2.823394e+003;8.327989e-002
2.825323e+003;8.730926e-002
2.827251e+003;9.282325e-002
2.829180e+003;1.000666e-001
2.831108e+003;1.085664e-001
2.833037e+003;1.172876e-001
2.834966e+003;1.247973e-001
2.836894e+003;1.288873e-001
2.838823e+003;1.288536e-001
2.840751e+003;1.267265e-001
2.842680e+003;1.230620e-001
2.844608e+003;1.183896e-001
2.846537e+003;1.137919e-001
2.848465e+003;1.103551e-001
2.850394e+003;1.080907e-001
2.852323e+003;1.065549e-001
2.854251e+003;1.060943e-001
2.856180e+003;1.071631e-001
2.858108e+003;1.102924e-001
2.860037e+003;1.155922e-001
2.861965e+003;1.224500e-001
2.863894e+003;1.297219e-001
2.865822e+003;1.356113e-001
2.867751e+003;1.387834e-001
2.869679e+003;1.396649e-001
2.871608e+003;1.396517e-001
2.873536e+003;1.397877e-001
2.875465e+003;1.395638e-001
2.877394e+003;1.385776e-001
2.879322e+003;1.369785e-001
2.881251e+003;1.353106e-001
2.883179e+003;1.348074e-001
2.885108e+003;1.353157e-001
2.887036e+003;1.358749e-001
2.888965e+003;1.371703e-001
2.890893e+003;1.395786e-001
2.892822e+003;1.425470e-001
2.894750e+003;1.462388e-001
2.896679e+003;1.510537e-001
2.898608e+003;1.560949e-001
2.900536e+003;1.614085e-001
2.902465e+003;1.670459e-001
2.904393e+003;1.728330e-001
2.906322e+003;1.784401e-001
2.908250e+003;1.837263e-001
2.910179e+003;1.880991e-001
2.912107e+003;1.913371e-001
2.914036e+003;1.938892e-001
2.915965e+003;1.947137e-001
2.917893e+003;1.940654e-001
2.919822e+003;1.919883e-001
2.921750e+003;1.878504e-001
2.923679e+003;1.822952e-001
2.925607e+003;1.764062e-001
2.927536e+003;1.695999e-001
2.929464e+003;1.617302e-001
2.931393e+003;1.533106e-001
2.933322e+003;1.448046e-001
2.935250e+003;1.370986e-001
2.937178e+003;1.317047e-001
2.939107e+003;1.295345e-001
2.941036e+003;1.300716e-001
2.942964e+003;1.339988e-001
2.944893e+003;1.415605e-001
2.946821e+003;1.502544e-001
2.948750e+003;1.571230e-001
2.950678e+003;1.610208e-001
2.952607e+003;1.616711e-001
2.954535e+003;1.595001e-001
2.956464e+003;1.554136e-001
2.958393e+003;1.504730e-001
2.960321e+003;1.448067e-001
2.962250e+003;1.378341e-001
2.964178e+003;1.304984e-001
2.966107e+003;1.233161e-001
2.968035e+003;1.154968e-001
2.969964e+003;1.078016e-001
2.971892e+003;1.007148e-001
2.973821e+003;9.459845e-002
2.975750e+003;8.965439e-002
2.977678e+003;8.525427e-002
2.979607e+003;8.109947e-002
2.981535e+003;7.750787e-002
2.983464e+003;7.441113e-002
2.985392e+003;7.151392e-002
2.987321e+003;6.871989e-002
2.989249e+003;6.611677e-002
2.991178e+003;6.388158e-002
2.993106e+003;6.204761e-002
2.995035e+003;5.987143e-002
2.996964e+003;5.765937e-002
2.998892e+003;5.598816e-002
3.000821e+003;5.433042e-002
3.002749e+003;5.223234e-002
3.004678e+003;5.042389e-002
3.006606e+003;4.882528e-002
3.008535e+003;4.727425e-002
3.010463e+003;4.570949e-002
3.012392e+003;4.412844e-002
3.014321e+003;4.287978e-002
3.016249e+003;4.152936e-002
3.018177e+003;4.002073e-002
3.020106e+003;3.892552e-002
3.022035e+003;3.804243e-002
3.023963e+003;3.734225e-002
3.025892e+003;3.640655e-002
3.027820e+003;3.557974e-002
3.029749e+003;3.483196e-002
3.031677e+003;3.407335e-002
3.033606e+003;3.350579e-002
3.035534e+003;3.289987e-002
3.037463e+003;3.216961e-002
3.039392e+003;3.180602e-002
3.041320e+003;3.145189e-002
3.043249e+003;3.132417e-002
3.045177e+003;3.107125e-002
3.047106e+003;3.053831e-002
3.049034e+003;3.008329e-002
3.050963e+003;2.995892e-002
3.052891e+003;3.001533e-002
3.054820e+003;2.986247e-002
3.056749e+003;2.926189e-002
3.058677e+003;2.897745e-002
3.060606e+003;2.898488e-002
3.062534e+003;2.902650e-002
3.064463e+003;2.882046e-002
3.066391e+003;2.855318e-002
3.068320e+003;2.816842e-002
3.070248e+003;2.818578e-002
3.072177e+003;2.827269e-002
3.074105e+003;2.827549e-002
3.076034e+003;2.803106e-002
3.077963e+003;2.781396e-002
3.079891e+003;2.795193e-002
3.081820e+003;2.806622e-002
3.083748e+003;2.799879e-002
3.085677e+003;2.772269e-002
3.087605e+003;2.747119e-002
3.089534e+003;2.716294e-002
3.091462e+003;2.689858e-002
3.093391e+003;2.694494e-002
3.095320e+003;2.704941e-002
3.097248e+003;2.714280e-002
3.099177e+003;2.735716e-002
3.101105e+003;2.734403e-002
3.103034e+003;2.708888e-002
3.104962e+003;2.728454e-002
3.106891e+003;2.750949e-002
3.108819e+003;2.706373e-002
3.110748e+003;2.696729e-002
3.112677e+003;2.714594e-002
3.114605e+003;2.718418e-002
3.116533e+003;2.718280e-002
3.118462e+003;2.688293e-002
3.120391e+003;2.655270e-002
3.122319e+003;2.682375e-002
3.124248e+003;2.706225e-002
3.126176e+003;2.753756e-002
3.128105e+003;2.806548e-002
3.130033e+003;2.783646e-002
3.131962e+003;2.805629e-002
3.133890e+003;2.853513e-002
3.135819e+003;2.858354e-002
3.137748e+003;2.850923e-002
3.139676e+003;2.882949e-002
3.141605e+003;2.907848e-002
3.143533e+003;2.938348e-002
3.145462e+003;2.953433e-002
3.147390e+003;2.915689e-002
3.149319e+003;2.875404e-002
3.151247e+003;2.860201e-002
3.153176e+003;2.860251e-002
3.155104e+003;2.856645e-002
3.157033e+003;2.890041e-002
3.158962e+003;2.933583e-002
3.160890e+003;2.953550e-002
3.162819e+003;2.933899e-002
3.164747e+003;2.893579e-002
3.166676e+003;2.909105e-002
3.168604e+003;2.948688e-002
3.170533e+003;2.947177e-002
3.172461e+003;2.955589e-002
3.174390e+003;3.002861e-002
3.176319e+003;3.015421e-002
3.178247e+003;2.993272e-002
3.180176e+003;3.001380e-002
3.182104e+003;3.012253e-002
3.184033e+003;3.023815e-002
3.185961e+003;3.042376e-002
3.187890e+003;3.028248e-002
3.189818e+003;3.033634e-002
3.191747e+003;3.040546e-002
3.193676e+003;3.018447e-002
3.195604e+003;3.001863e-002
3.197532e+003;3.016877e-002
3.199461e+003;3.038470e-002
3.201390e+003;3.037301e-002
3.203318e+003;3.031605e-002
3.205247e+003;3.050049e-002
3.207175e+003;3.047266e-002
3.209104e+003;3.027648e-002
3.211032e+003;3.020571e-002
3.212961e+003;2.995629e-002
3.214889e+003;2.977378e-002
3.216818e+003;2.972698e-002
3.218747e+003;2.987401e-002
3.220675e+003;2.963361e-002
3.222604e+003;2.943787e-002
3.224532e+003;2.922085e-002
3.226461e+003;2.897288e-002
3.228389e+003;2.842616e-002
3.230318e+003;2.824557e-002
3.232246e+003;2.859483e-002
3.234175e+003;2.844303e-002
3.236104e+003;2.776991e-002
3.238032e+003;2.760263e-002
3.239961e+003;2.767131e-002
3.241889e+003;2.738049e-002
3.243818e+003;2.725131e-002
3.245746e+003;2.778323e-002
3.247675e+003;2.799437e-002
3.249603e+003;2.786130e-002
3.251532e+003;2.779026e-002
3.253460e+003;2.735780e-002
3.255389e+003;2.724778e-002
3.257318e+003;2.760531e-002
3.259246e+003;2.770765e-002
3.261175e+003;2.747942e-002
3.263103e+003;2.749971e-002
3.265032e+003;2.764189e-002
3.266960e+003;2.741493e-002
3.268889e+003;2.711339e-002
3.270817e+003;2.715204e-002
3.272746e+003;2.720347e-002
3.274675e+003;2.735875e-002
3.276603e+003;2.762960e-002
3.278531e+003;2.792614e-002
3.280460e+003;2.765089e-002
3.282389e+003;2.725741e-002
3.284317e+003;2.751203e-002
3.286246e+003;2.804420e-002
3.288174e+003;2.831117e-002
3.290103e+003;2.810511e-002
3.292031e+003;2.792727e-002
3.293960e+003;2.785717e-002
3.295888e+003;2.775886e-002
3.297817e+003;2.787642e-002
3.299746e+003;2.815930e-002
3.301674e+003;2.823015e-002
3.303603e+003;2.810606e-002
3.305531e+003;2.779210e-002
3.307460e+003;2.766615e-002
3.309388e+003;2.758550e-002
3.311317e+003;2.737544e-002
3.313245e+003;2.722132e-002
3.315174e+003;2.711727e-002
3.317103e+003;2.687581e-002
3.319031e+003;2.670908e-002
3.320960e+003;2.687507e-002
3.322888e+003;2.704896e-002
3.324817e+003;2.715807e-002
3.326745e+003;2.723392e-002
3.328674e+003;2.738388e-002
3.330602e+003;2.742164e-002
3.332531e+003;2.728419e-002
3.334459e+003;2.730180e-002
3.336388e+003;2.726062e-002
3.338317e+003;2.723349e-002
3.340245e+003;2.740374e-002
3.342174e+003;2.768155e-002
3.344102e+003;2.768155e-002
3.346031e+003;2.711571e-002
3.347959e+003;2.661350e-002
3.349888e+003;2.717067e-002
3.351816e+003;2.785035e-002
3.353745e+003;2.789236e-002
3.355674e+003;2.751458e-002
3.357602e+003;2.732978e-002
3.359531e+003;2.732025e-002
3.361459e+003;2.704409e-002
3.363388e+003;2.714023e-002
3.365316e+003;2.721797e-002
3.367245e+003;2.715416e-002
3.369173e+003;2.738959e-002
3.371102e+003;2.728684e-002
3.373031e+003;2.686591e-002
3.374959e+003;2.648363e-002
3.376887e+003;2.608825e-002
3.378816e+003;2.573453e-002
3.380745e+003;2.611777e-002
3.382673e+003;2.616077e-002
3.384602e+003;2.600786e-002
3.386530e+003;2.635525e-002
3.388459e+003;2.661455e-002
3.390387e+003;2.679471e-002
3.392316e+003;2.666726e-002
3.394244e+003;2.626910e-002
3.396173e+003;2.568887e-002
3.398102e+003;2.541950e-002
3.400030e+003;2.568581e-002
3.401959e+003;2.575106e-002
3.403887e+003;2.561414e-002
3.405816e+003;2.541673e-002
3.407744e+003;2.558092e-002
3.409673e+003;2.554199e-002
3.411601e+003;2.546141e-002
3.413530e+003;2.553830e-002
3.415458e+003;2.560862e-002
3.417387e+003;2.541725e-002
3.419316e+003;2.511993e-002
3.421244e+003;2.533530e-002
3.423173e+003;2.524051e-002
3.425101e+003;2.482064e-002
3.427030e+003;2.491963e-002
3.428958e+003;2.462096e-002
3.430887e+003;2.402625e-002
3.432815e+003;2.339046e-002
3.434744e+003;2.312378e-002
3.436673e+003;2.373755e-002
3.438601e+003;2.417581e-002
3.440530e+003;2.384958e-002
3.442458e+003;2.299974e-002
3.444387e+003;2.283648e-002
3.446315e+003;2.279415e-002
3.448244e+003;2.257516e-002
3.450172e+003;2.241781e-002
3.452101e+003;2.229084e-002
3.454030e+003;2.243208e-002
3.455958e+003;2.258699e-002
3.457886e+003;2.203877e-002
3.459815e+003;2.207157e-002
3.461744e+003;2.237529e-002
3.463672e+003;2.237469e-002
3.465601e+003;2.198450e-002
3.467529e+003;2.177974e-002
3.469458e+003;2.154830e-002
3.471386e+003;2.108604e-002
3.473315e+003;2.096314e-002
3.475243e+003;2.076324e-002
3.477172e+003;2.031514e-002
3.479101e+003;2.024404e-002
3.481029e+003;2.060954e-002
3.482958e+003;2.064623e-002
3.484886e+003;2.028820e-002
3.486815e+003;1.985981e-002
3.488743e+003;1.960842e-002
3.490672e+003;1.962513e-002
3.492600e+003;1.987767e-002
3.494529e+003;1.957723e-002
3.496458e+003;1.920678e-002
3.498386e+003;1.932739e-002
3.500315e+003;1.877714e-002
3.502243e+003;1.820613e-002
3.504172e+003;1.817344e-002
3.506100e+003;1.833019e-002
3.508029e+003;1.854034e-002
3.509957e+003;1.849442e-002
3.511886e+003;1.848996e-002
3.513814e+003;1.822858e-002
3.515743e+003;1.790842e-002
3.517672e+003;1.804003e-002
3.519600e+003;1.830596e-002
3.521529e+003;1.806300e-002
3.523457e+003;1.731348e-002
3.525386e+003;1.733179e-002
3.527314e+003;1.772545e-002
3.529243e+003;1.774261e-002
3.531171e+003;1.752445e-002
3.533100e+003;1.737745e-002
3.535029e+003;1.727193e-002
3.536957e+003;1.749658e-002
3.538885e+003;1.734193e-002
3.540814e+003;1.666426e-002
3.542743e+003;1.625532e-002
3.544671e+003;1.618516e-002
3.546600e+003;1.655245e-002
3.548528e+003;1.649841e-002
3.550457e+003;1.625869e-002
3.552385e+003;1.605146e-002
3.554314e+003;1.550723e-002
3.556242e+003;1.523113e-002
3.558171e+003;1.545717e-002
3.560100e+003;1.546331e-002
3.562028e+003;1.518594e-002
3.563957e+003;1.445716e-002
3.565885e+003;1.325088e-002
3.567814e+003;1.282050e-002
3.569742e+003;1.352845e-002
3.571671e+003;1.391013e-002
3.573599e+003;1.396765e-002
3.575528e+003;1.405104e-002
3.577457e+003;1.359867e-002
3.579385e+003;1.324251e-002
3.581314e+003;1.345866e-002
3.583242e+003;1.322632e-002
3.585171e+003;1.245318e-002
3.587099e+003;1.211100e-002
3.589028e+003;1.258263e-002
3.590956e+003;1.287111e-002
3.592885e+003;1.259058e-002
3.594813e+003;1.264113e-002
3.596742e+003;1.307458e-002
3.598671e+003;1.277320e-002
3.600599e+003;1.227597e-002
3.602528e+003;1.226449e-002
3.604456e+003;1.260344e-002
3.606385e+003;1.206879e-002
3.608313e+003;1.138726e-002
3.610242e+003;1.148482e-002
3.612170e+003;1.144008e-002
3.614099e+003;1.170901e-002
3.616028e+003;1.189382e-002
3.617956e+003;1.093755e-002
3.619885e+003;1.066987e-002
3.621813e+003;1.140811e-002
3.623742e+003;1.173329e-002
3.625670e+003;1.106580e-002
3.627599e+003;9.122005e-003
3.629527e+003;8.704991e-003
3.631456e+003;1.036066e-002
3.633385e+003;1.109215e-002
3.635313e+003;1.150734e-002
3.637241e+003;1.181023e-002
3.639170e+003;1.164050e-002
3.641099e+003;1.170864e-002
3.643027e+003;1.143522e-002
3.644956e+003;1.058305e-002
3.646884e+003;9.490278e-003
3.648813e+003;9.069459e-003
3.650741e+003;9.735673e-003
3.652670e+003;1.047201e-002
3.654598e+003;1.012088e-002
3.656527e+003;9.795315e-003
3.658456e+003;9.741975e-003
3.660384e+003;9.831070e-003
3.662313e+003;1.040800e-002
3.664241e+003;1.063921e-002
3.666170e+003;1.029907e-002
3.668098e+003;9.805550e-003
3.670027e+003;9.733131e-003
3.671955e+003;1.044028e-002
3.673884e+003;9.632505e-003
3.675813e+003;9.178416e-003
3.677741e+003;1.085461e-002
3.679669e+003;1.152422e-002
3.681598e+003;1.135392e-002
3.683527e+003;1.151721e-002
3.685455e+003;1.151789e-002
3.687384e+003;1.070163e-002
3.689312e+003;1.078976e-002
3.691241e+003;1.161324e-002
3.693169e+003;1.211993e-002
3.695098e+003;1.210695e-002
3.697026e+003;1.164775e-002
3.698955e+003;1.121242e-002
3.700884e+003;1.059276e-002
3.702812e+003;1.104827e-002
3.704741e+003;1.158122e-002
3.706669e+003;1.115259e-002
3.708598e+003;1.067171e-002
3.710526e+003;1.042297e-002
3.712455e+003;1.071647e-002
3.714383e+003;1.107964e-002
3.716312e+003;1.085832e-002
3.718240e+003;1.135416e-002
3.720169e+003;1.154130e-002
3.722098e+003;1.127659e-002
3.724026e+003;1.105027e-002
3.725955e+003;1.087999e-002
3.727883e+003;1.105034e-002
3.729812e+003;1.086701e-002
3.731740e+003;1.034946e-002
3.733669e+003;1.013516e-002
3.735597e+003;9.954185e-003
3.737526e+003;1.037966e-002
3.739455e+003;1.089824e-002
3.741383e+003;1.045558e-002
3.743312e+003;8.745153e-003
3.745240e+003;8.647492e-003
3.747169e+003;9.334420e-003
3.749097e+003;8.488254e-003
3.751026e+003;8.324244e-003
3.752954e+003;9.629286e-003
3.754883e+003;1.101547e-002
3.756812e+003;1.106084e-002
3.758740e+003;1.113250e-002
3.760668e+003;1.151571e-002
3.762597e+003;1.233095e-002
3.764526e+003;1.265710e-002
3.766454e+003;1.274085e-002
3.768383e+003;1.179351e-002
3.770311e+003;1.101629e-002
3.772240e+003;1.164802e-002
3.774168e+003;1.227154e-002
3.776097e+003;1.219619e-002
3.778025e+003;1.207135e-002
3.779954e+003;1.166187e-002
3.781883e+003;1.155709e-002
3.783811e+003;1.164707e-002
3.785740e+003;1.189093e-002
3.787668e+003;1.203742e-002
3.789597e+003;1.211141e-002
3.791525e+003;1.228760e-002
3.793454e+003;1.226800e-002
3.795382e+003;1.174871e-002
3.797311e+003;1.159313e-002
3.799240e+003;1.079010e-002
3.801168e+003;9.830493e-003
3.803097e+003;1.072734e-002
3.805025e+003;1.094988e-002
3.806954e+003;1.089868e-002
3.808882e+003;1.204409e-002
3.810811e+003;1.203544e-002
3.812739e+003;1.123891e-002
3.814668e+003;1.054516e-002
3.816596e+003;1.130308e-002
3.818525e+003;1.193646e-002
3.820454e+003;1.099831e-002
3.822382e+003;1.120773e-002
3.824311e+003;1.205929e-002
3.826239e+003;1.213019e-002
3.828168e+003;1.193091e-002
3.830096e+003;1.191017e-002
3.832025e+003;1.202345e-002
3.833953e+003;1.194644e-002
3.835882e+003;1.121735e-002
3.837811e+003;1.024493e-002
3.839739e+003;1.021616e-002
3.841667e+003;1.048074e-002
3.843596e+003;1.061412e-002
3.845525e+003;1.082985e-002
3.847453e+003;1.124027e-002
3.849382e+003;1.118624e-002
3.851310e+003;9.562554e-003
3.853239e+003;8.363358e-003
3.855167e+003;9.982427e-003
3.857096e+003;1.193193e-002
3.859024e+003;1.228214e-002
3.860953e+003;1.214654e-002
3.862882e+003;1.193098e-002
3.864810e+003;1.140909e-002
3.866739e+003;1.185095e-002
3.868667e+003;1.170033e-002
3.870596e+003;1.162052e-002
3.872524e+003;1.200332e-002
3.874453e+003;1.222979e-002
3.876381e+003;1.245887e-002
3.878310e+003;1.192805e-002
3.880239e+003;1.194037e-002
3.882167e+003;1.219472e-002
3.884096e+003;1.176617e-002
3.886024e+003;1.210419e-002
3.887953e+003;1.286265e-002
3.889881e+003;1.205884e-002
3.891810e+003;1.211543e-002
3.893738e+003;1.314769e-002
3.895667e+003;1.349356e-002
3.897595e+003;1.336991e-002
3.899524e+003;1.275713e-002
3.901453e+003;1.217997e-002
3.903381e+003;1.222989e-002
3.905310e+003;1.284992e-002
3.907238e+003;1.291241e-002
3.909167e+003;1.267211e-002
3.911095e+003;1.287702e-002
3.913024e+003;1.339783e-002
3.914952e+003;1.322605e-002
3.916881e+003;1.215288e-002
3.918810e+003;1.196824e-002
3.920738e+003;1.320856e-002
3.922667e+003;1.381277e-002
3.924595e+003;1.317946e-002
3.926524e+003;1.330264e-002
3.928452e+003;1.386538e-002
3.930381e+003;1.412805e-002
3.932309e+003;1.410423e-002
3.934238e+003;1.387660e-002
3.936167e+003;1.366685e-002
3.938095e+003;1.373107e-002
3.940023e+003;1.392348e-002
3.941952e+003;1.404622e-002
3.943881e+003;1.411881e-002
3.945809e+003;1.432166e-002
3.947738e+003;1.433146e-002
3.949666e+003;1.351468e-002
3.951595e+003;1.323899e-002
3.953523e+003;1.350685e-002
3.955452e+003;1.385057e-002
3.957380e+003;1.362602e-002
3.959309e+003;1.320729e-002
3.961238e+003;1.334367e-002
3.963166e+003;1.312112e-002
3.965095e+003;1.338505e-002
3.967023e+003;1.397028e-002
3.968952e+003;1.431406e-002
3.970880e+003;1.428074e-002
3.972809e+003;1.407996e-002
3.974737e+003;1.409057e-002
3.976666e+003;1.412083e-002
3.978594e+003;1.412946e-002
3.980523e+003;1.450231e-002
3.982452e+003;1.491968e-002
3.984380e+003;1.515070e-002
3.986309e+003;1.556293e-002
3.988237e+003;1.564756e-002
3.990166e+003;1.582786e-002
3.992094e+003;1.606181e-002
3.994023e+003;1.597215e-002
3.995951e+003;1.583175e-002
3.997880e+003;1.578580e-002
3.999809e+003;1.535878e-002
4.001737e+003;0.000000e+000
