3.992094e+002;0.000000e+000
4.011380e+002;0.000000e+000
4.030665e+002;0.000000e+000
4.049951e+002;0.000000e+000
4.069236e+002;0.000000e+000
4.088522e+002;0.000000e+000
4.107807e+002;0.000000e+000
4.127093e+002;0.000000e+000
4.146378e+002;0.000000e+000
4.165664e+002;0.000000e+000
4.184949e+002;0.000000e+000
4.204235e+002;0.000000e+000
4.223520e+002;0.000000e+000
4.242806e+002;0.000000e+000
4.262091e+002;0.000000e+000
4.281377e+002;0.000000e+000
4.300662e+002;0.000000e+000
4.319948e+002;0.000000e+000
4.339233e+002;0.000000e+000
4.358519e+002;0.000000e+000
4.377804e+002;0.000000e+000
4.397090e+002;0.000000e+000
4.416375e+002;0.000000e+000
4.435660e+002;0.000000e+000
4.454946e+002;0.000000e+000
4.474232e+002;0.000000e+000
4.493517e+002;0.000000e+000
4.512802e+002;0.000000e+000
4.532088e+002;0.000000e+000
4.551373e+002;0.000000e+000
4.570659e+002;0.000000e+000
4.589944e+002;0.000000e+000
4.609230e+002;0.000000e+000
4.628515e+002;0.000000e+000
4.647801e+002;0.000000e+000
4.667086e+002;0.000000e+000
4.686372e+002;0.000000e+000
4.705657e+002;0.000000e+000
4.724943e+002;0.000000e+000
4.744228e+002;0.000000e+000
4.763513e+002;0.000000e+000
4.782799e+002;0.000000e+000
4.802085e+002;0.000000e+000
4.821370e+002;0.000000e+000
4.840656e+002;0.000000e+000
4.859941e+002;0.000000e+000
4.879226e+002;0.000000e+000
4.898512e+002;0.000000e+000
4.917798e+002;0.000000e+000
4.937083e+002;0.000000e+000
4.956368e+002;0.000000e+000
4.975654e+002;0.000000e+000
4.994939e+002;0.000000e+000
5.014225e+002;0.000000e+000
5.033510e+002;0.000000e+000
5.052796e+002;0.000000e+000
5.072081e+002;0.000000e+000
5.091367e+002;0.000000e+000
5.110652e+002;0.000000e+000
5.129938e+002;0.000000e+000
5.149223e+002;0.000000e+000
5.168509e+002;0.000000e+000
5.187794e+002;0.000000e+000
5.207079e+002;0.000000e+000
5.226365e+002;0.000000e+000
5.245651e+002;0.000000e+000
5.264936e+002;0.000000e+000
5.284222e+002;0.000000e+000
5.303507e+002;0.000000e+000
5.322792e+002;0.000000e+000
5.342078e+002;0.000000e+000
5.361364e+002;0.000000e+000
5.380649e+002;0.000000e+000
5.399935e+002;0.000000e+000
5.419220e+002;0.000000e+000
5.438505e+002;0.000000e+000
5.457791e+002;0.000000e+000
5.477076e+002;0.000000e+000
5.496362e+002;0.000000e+000
5.515648e+002;0.000000e+000
5.534933e+002;0.000000e+000
5.554218e+002;0.000000e+000
5.573504e+002;0.000000e+000
5.592789e+002;0.000000e+000
5.612075e+002;0.000000e+000
5.631360e+002;0.000000e+000
5.650646e+002;0.000000e+000
5.669931e+002;0.000000e+000
5.689217e+002;0.000000e+000
5.708502e+002;0.000000e+000
5.727787e+002;0.000000e+000
5.747073e+002;0.000000e+000
5.766359e+002;0.000000e+000
5.785644e+002;0.000000e+000
5.804930e+002;0.000000e+000
5.824215e+002;0.000000e+000
5.843500e+002;0.000000e+000
5.862786e+002;0.000000e+000
5.882072e+002;0.000000e+000
5.901357e+002;0.000000e+000
5.920643e+002;0.000000e+000
5.939928e+002;0.000000e+000
5.959213e+002;0.000000e+000
5.978499e+002;0.000000e+000
5.997784e+002;2.164616e-002
6.017070e+002;2.617886e-002
6.036355e+002;3.032703e-002
6.055641e+002;3.159601e-002
6.074926e+002;3.672951e-002
6.094211e+002;3.810811e-002
6.113497e+002;3.463566e-002
6.132783e+002;3.408421e-002
6.152068e+002;3.825146e-002
6.171354e+002;4.009086e-002
6.190639e+002;4.074125e-002
6.209924e+002;3.909582e-002
6.229210e+002;3.735814e-002
6.248495e+002;3.716929e-002
6.267781e+002;3.723571e-002
6.287067e+002;3.752926e-002
6.306352e+002;3.390373e-002
6.325637e+002;3.123048e-002
6.344923e+002;3.475603e-002
6.364208e+002;3.386056e-002
6.383494e+002;3.327740e-002
6.402780e+002;3.790346e-002
6.422065e+002;3.844121e-002
6.441350e+002;3.523104e-002
6.460636e+002;3.539446e-002
6.479921e+002;3.600503e-002
6.499207e+002;3.457520e-002
6.518492e+002;3.298305e-002
6.537778e+002;3.272841e-002
6.557063e+002;3.191256e-002
6.576349e+002;3.054948e-002
6.595634e+002;3.150903e-002
6.614919e+002;3.441086e-002
6.634205e+002;3.589676e-002
6.653491e+002;3.399724e-002
6.672776e+002;3.154705e-002
6.692062e+002;3.123397e-002
6.711347e+002;3.088380e-002
6.730632e+002;3.093425e-002
6.749918e+002;3.040183e-002
6.769203e+002;2.997273e-002
6.788489e+002;3.145143e-002
6.807775e+002;3.268776e-002
6.827060e+002;3.261964e-002
6.846345e+002;3.301698e-002
6.865631e+002;3.312278e-002
6.884916e+002;3.281588e-002
6.904202e+002;3.173561e-002
6.923488e+002;3.142567e-002
6.942773e+002;3.157973e-002
6.962058e+002;3.208630e-002
6.981344e+002;3.245008e-002
7.000629e+002;3.211170e-002
7.019915e+002;3.166953e-002
7.039200e+002;3.134194e-002
7.058486e+002;3.111393e-002
7.077771e+002;3.215879e-002
7.097057e+002;3.282979e-002
7.116342e+002;3.233730e-002
7.135627e+002;3.205679e-002
7.154913e+002;3.205223e-002
7.174199e+002;3.267304e-002
7.193484e+002;3.373019e-002
7.212770e+002;3.412081e-002
7.232055e+002;3.331110e-002
7.251340e+002;3.174417e-002
7.270626e+002;3.181372e-002
7.289911e+002;3.228976e-002
7.309197e+002;3.230647e-002
7.328483e+002;3.159313e-002
7.347768e+002;3.087024e-002
7.367053e+002;3.115519e-002
7.386339e+002;3.118587e-002
7.405624e+002;3.067615e-002
7.424910e+002;3.016267e-002
7.444196e+002;3.027900e-002
7.463481e+002;3.105940e-002
7.482766e+002;3.038474e-002
7.502052e+002;2.904904e-002
7.521337e+002;2.969423e-002
7.540623e+002;3.060323e-002
7.559908e+002;2.975037e-002
7.579194e+002;2.902736e-002
7.598479e+002;2.896795e-002
7.617765e+002;2.912485e-002
7.637050e+002;3.004281e-002
7.656335e+002;3.109887e-002
7.675621e+002;3.064166e-002
7.694907e+002;2.990318e-002
7.714192e+002;2.904801e-002
7.733478e+002;2.855799e-002
7.752763e+002;2.884340e-002
7.772048e+002;2.898602e-002
7.791334e+002;2.937075e-002
7.810620e+002;2.986826e-002
7.829905e+002;3.009075e-002
7.849191e+002;3.007175e-002
7.868476e+002;3.097602e-002
7.887761e+002;3.193581e-002
7.907047e+002;3.303435e-002
7.926332e+002;3.489472e-002
7.945618e+002;3.636184e-002
7.964903e+002;3.810081e-002
7.984189e+002;3.872436e-002
8.003474e+002;3.943192e-002
8.022759e+002;4.131365e-002
8.042045e+002;4.390583e-002
8.061331e+002;4.638285e-002
8.080616e+002;4.805159e-002
8.099902e+002;4.788153e-002
8.119187e+002;4.669675e-002
8.138472e+002;4.400896e-002
8.157758e+002;4.075705e-002
8.177043e+002;3.853314e-002
8.196329e+002;3.730062e-002
8.215615e+002;3.615920e-002
8.234900e+002;3.537832e-002
8.254185e+002;3.538831e-002
8.273471e+002;3.573401e-002
8.292756e+002;3.570437e-002
8.312042e+002;3.641906e-002
8.331328e+002;3.849740e-002
8.350613e+002;4.071283e-002
8.369898e+002;4.285674e-002
8.389184e+002;4.829193e-002
8.408469e+002;5.320206e-002
8.427755e+002;5.206205e-002
8.447040e+002;4.739485e-002
8.466326e+002;4.275096e-002
8.485611e+002;3.875000e-002
8.504897e+002;3.569429e-002
8.524182e+002;3.463563e-002
8.543467e+002;3.430149e-002
8.562753e+002;3.373857e-002
8.582039e+002;3.323937e-002
8.601324e+002;3.260417e-002
8.620610e+002;3.279841e-002
8.639895e+002;3.304679e-002
8.659180e+002;3.258500e-002
8.678466e+002;3.181301e-002
8.697751e+002;3.185176e-002
8.717037e+002;3.264757e-002
8.736323e+002;3.287164e-002
8.755608e+002;3.239067e-002
8.774893e+002;3.197212e-002
8.794179e+002;3.145214e-002
8.813464e+002;3.082549e-002
8.832750e+002;3.047188e-002
8.852036e+002;3.032153e-002
8.871321e+002;3.083677e-002
8.890606e+002;3.184513e-002
8.909892e+002;3.307601e-002
8.929177e+002;3.569749e-002
8.948463e+002;3.963229e-002
8.967748e+002;4.397398e-002
8.987034e+002;4.662278e-002
9.006319e+002;4.655115e-002
9.025605e+002;4.295820e-002
9.044890e+002;3.786814e-002
9.064175e+002;3.373087e-002
9.083461e+002;3.111393e-002
9.102747e+002;2.923464e-002
9.122032e+002;2.775388e-002
9.141318e+002;2.701581e-002
9.160603e+002;2.688882e-002
9.179888e+002;2.698013e-002
9.199174e+002;2.707311e-002
9.218459e+002;2.673907e-002
9.237745e+002;2.674925e-002
9.257031e+002;2.714675e-002
9.276316e+002;2.734975e-002
9.295601e+002;2.755281e-002
9.314887e+002;2.827729e-002
9.334172e+002;2.943276e-002
9.353458e+002;3.050188e-002
9.372744e+002;3.154677e-002
9.392029e+002;3.306245e-002
9.411314e+002;3.405798e-002
9.430600e+002;3.395965e-002
9.449885e+002;3.386153e-002
9.469171e+002;3.412335e-002
9.488456e+002;3.436184e-002
9.507742e+002;3.478080e-002
9.527027e+002;3.544037e-002
9.546313e+002;3.624437e-002
9.565598e+002;3.695653e-002
9.584883e+002;3.810587e-002
9.604169e+002;4.002581e-002
9.623455e+002;4.212653e-002
9.642740e+002;4.493555e-002
9.662026e+002;4.974405e-002
9.681311e+002;5.645664e-002
9.700596e+002;6.429672e-002
9.719882e+002;7.092269e-002
9.739167e+002;7.298561e-002
9.758453e+002;6.911000e-002
9.777739e+002;6.161232e-002
9.797024e+002;5.337066e-002
9.816309e+002;4.685672e-002
9.835595e+002;4.278990e-002
9.854880e+002;4.066902e-002
9.874166e+002;4.028040e-002
9.893452e+002;4.140075e-002
9.912737e+002;4.471939e-002
9.932022e+002;5.013197e-002
9.951307e+002;5.652279e-002
9.970593e+002;6.108543e-002
9.989879e+002;6.123190e-002
1.000916e+003;5.714798e-002
1.002845e+003;5.153743e-002
1.004773e+003;4.701265e-002
1.006702e+003;4.399994e-002
1.008631e+003;4.220295e-002
1.010559e+003;4.105463e-002
1.012488e+003;3.998367e-002
1.014416e+003;3.913233e-002
1.016345e+003;3.859853e-002
1.018273e+003;3.823488e-002
1.020202e+003;3.824100e-002
1.022130e+003;3.856355e-002
1.024059e+003;3.899765e-002
1.025988e+003;3.929588e-002
1.027916e+003;3.912290e-002
1.029845e+003;3.922599e-002
1.031773e+003;4.061499e-002
1.033702e+003;4.255083e-002
1.035630e+003;4.396170e-002
1.037559e+003;4.466019e-002
1.039487e+003;4.501140e-002
1.041416e+003;4.539953e-002
1.043344e+003;4.586037e-002
1.045273e+003;4.574136e-002
1.047202e+003;4.481750e-002
1.049130e+003;4.359778e-002
1.051059e+003;4.266618e-002
1.052987e+003;4.216016e-002
1.054916e+003;4.159711e-002
1.056844e+003;4.155776e-002
1.058773e+003;4.176907e-002
1.060701e+003;4.132069e-002
1.062630e+003;4.071075e-002
1.064558e+003;4.097175e-002
1.066487e+003;4.137356e-002
1.068416e+003;4.102430e-002
1.070344e+003;4.111663e-002
1.072273e+003;4.161173e-002
1.074201e+003;4.143104e-002
1.076130e+003;4.106560e-002
1.078058e+003;4.132797e-002
1.079987e+003;4.229407e-002
1.081915e+003;4.300382e-002
1.083844e+003;4.288501e-002
1.085773e+003;4.325847e-002
1.087701e+003;4.399569e-002
1.089630e+003;4.486688e-002
1.091558e+003;4.484777e-002
1.093487e+003;4.519859e-002
1.095415e+003;4.689024e-002
1.097344e+003;4.884189e-002
1.099272e+003;4.974925e-002
1.101201e+003;5.038504e-002
1.103129e+003;5.060158e-002
1.105058e+003;4.965626e-002
1.106987e+003;4.857149e-002
1.108915e+003;4.738011e-002
1.110844e+003;4.547285e-002
1.112772e+003;4.358749e-002
1.114701e+003;4.260978e-002
1.116629e+003;4.240906e-002
1.118558e+003;4.204907e-002
1.120486e+003;4.169783e-002
1.122415e+003;4.112012e-002
1.124344e+003;4.055063e-002
1.126272e+003;4.017128e-002
1.128201e+003;4.033970e-002
1.130129e+003;4.088190e-002
1.132058e+003;4.152047e-002
1.133986e+003;4.238772e-002
1.135915e+003;4.350284e-002
1.137843e+003;4.538750e-002
1.139772e+003;4.836504e-002
1.141700e+003;5.150128e-002
1.143629e+003;5.472231e-002
1.145557e+003;5.794692e-002
1.147486e+003;6.097087e-002
1.149415e+003;6.406898e-002
1.151343e+003;6.695084e-002
1.153272e+003;6.837896e-002
1.155200e+003;6.880122e-002
1.157129e+003;6.895444e-002
1.159057e+003;6.932050e-002
1.160986e+003;6.946904e-002
1.162914e+003;7.003362e-002
1.164843e+003;7.115576e-002
1.166771e+003;7.111868e-002
1.168700e+003;6.943440e-002
1.170629e+003;6.594558e-002
1.172557e+003;6.153855e-002
1.174486e+003;5.690708e-002
1.176414e+003;5.273363e-002
1.178343e+003;4.956050e-002
1.180271e+003;4.741500e-002
1.182200e+003;4.600809e-002
1.184128e+003;4.510818e-002
1.186057e+003;4.429664e-002
1.187986e+003;4.376878e-002
1.189914e+003;4.353902e-002
1.191843e+003;4.314703e-002
1.193771e+003;4.297251e-002
1.195700e+003;4.311230e-002
1.197628e+003;4.324358e-002
1.199557e+003;4.277231e-002
1.201485e+003;4.226792e-002
1.203414e+003;4.225733e-002
1.205343e+003;4.214070e-002
1.207271e+003;4.245184e-002
1.209200e+003;4.341158e-002
1.211128e+003;4.439399e-002
1.213057e+003;4.522568e-002
1.214985e+003;4.595034e-002
1.216914e+003;4.607731e-002
1.218842e+003;4.575849e-002
1.220771e+003;4.521620e-002
1.222699e+003;4.431223e-002
1.224628e+003;4.347398e-002
1.226557e+003;4.305416e-002
1.228485e+003;4.297474e-002
1.230414e+003;4.312266e-002
1.232342e+003;4.276616e-002
1.234271e+003;4.285967e-002
1.236199e+003;4.354998e-002
1.238128e+003;4.359225e-002
1.240056e+003;4.353269e-002
1.241985e+003;4.357976e-002
1.243913e+003;4.391613e-002
1.245842e+003;4.452639e-002
1.247771e+003;4.487823e-002
1.249699e+003;4.546649e-002
1.251628e+003;4.746238e-002
1.253556e+003;5.039713e-002
1.255485e+003;5.213796e-002
1.257413e+003;5.194373e-002
1.259342e+003;5.014934e-002
1.261270e+003;4.767147e-002
1.263199e+003;4.580049e-002
1.265127e+003;4.528901e-002
1.267056e+003;4.459046e-002
1.268985e+003;4.360697e-002
1.270913e+003;4.290432e-002
1.272842e+003;4.238118e-002
1.274770e+003;4.225199e-002
1.276699e+003;4.247975e-002
1.278627e+003;4.231251e-002
1.280556e+003;4.201059e-002
1.282484e+003;4.221898e-002
1.284413e+003;4.265857e-002
1.286342e+003;4.313298e-002
1.288270e+003;4.417359e-002
1.290199e+003;4.517277e-002
1.292127e+003;4.577192e-002
1.294056e+003;4.639608e-002
1.295984e+003;4.675021e-002
1.297913e+003;4.665145e-002
1.299841e+003;4.673420e-002
1.301770e+003;4.718101e-002
1.303698e+003;4.752810e-002
1.305627e+003;4.641581e-002
1.307556e+003;4.398564e-002
1.309484e+003;4.201753e-002
1.311413e+003;4.112912e-002
1.313341e+003;4.118656e-002
1.315270e+003;4.190217e-002
1.317198e+003;4.251640e-002
1.319127e+003;4.366720e-002
1.321055e+003;4.535017e-002
1.322984e+003;4.674527e-002
1.324912e+003;4.797369e-002
1.326841e+003;4.945248e-002
1.328770e+003;5.043557e-002
1.330698e+003;5.055527e-002
1.332627e+003;5.008322e-002
1.334555e+003;4.920070e-002
1.336484e+003;4.824453e-002
1.338412e+003;4.779233e-002
1.340341e+003;4.841448e-002
1.342269e+003;4.992878e-002
1.344198e+003;5.166240e-002
1.346126e+003;5.393340e-002
1.348055e+003;5.667672e-002
1.349984e+003;6.036110e-002
1.351912e+003;6.500101e-002
1.353841e+003;7.071909e-002
1.355769e+003;7.723980e-002
1.357698e+003;8.284482e-002
1.359626e+003;8.463481e-002
1.361555e+003;8.315288e-002
1.363483e+003;8.233476e-002
1.365412e+003;8.454431e-002
1.367341e+003;9.152185e-002
1.369269e+003;1.058632e-001
1.371198e+003;1.274514e-001
1.373126e+003;1.526674e-001
1.375055e+003;1.730056e-001
1.376983e+003;1.744939e-001
1.378912e+003;1.540456e-001
1.380840e+003;1.256656e-001
1.382769e+003;1.004124e-001
1.384698e+003;8.185714e-002
1.386626e+003;6.900306e-002
1.388555e+003;6.094064e-002
1.390483e+003;5.622894e-002
1.392412e+003;5.250425e-002
1.394340e+003;4.959349e-002
1.396269e+003;4.869517e-002
1.398197e+003;4.838589e-002
1.400126e+003;4.849728e-002
1.402054e+003;4.896687e-002
1.403983e+003;4.887000e-002
1.405911e+003;4.926698e-002
1.407840e+003;5.015168e-002
1.409769e+003;5.070836e-002
1.411697e+003;5.132158e-002
1.413626e+003;5.188242e-002
1.415554e+003;5.177919e-002
1.417483e+003;5.088666e-002
1.419411e+003;5.093755e-002
1.421340e+003;5.322404e-002
1.423268e+003;5.512344e-002
1.425197e+003;5.751254e-002
1.427125e+003;6.103848e-002
1.429054e+003;6.563518e-002
1.430983e+003;7.312886e-002
1.432911e+003;8.247732e-002
1.434840e+003;8.823811e-002
1.436768e+003;8.982646e-002
1.438697e+003;9.220254e-002
1.440625e+003;9.557457e-002
1.442554e+003;1.000584e-001
1.444482e+003;1.067877e-001
1.446411e+003;1.158916e-001
1.448340e+003;1.257227e-001
1.450268e+003;1.341565e-001
1.452197e+003;1.393737e-001
1.454125e+003;1.408918e-001
1.456054e+003;1.385835e-001
1.457982e+003;1.379310e-001
1.459911e+003;1.378880e-001
1.461839e+003;1.335378e-001
1.463768e+003;1.254944e-001
1.465697e+003;1.161743e-001
1.467625e+003;1.064555e-001
1.469554e+003;9.536050e-002
1.471482e+003;8.318582e-002
1.473411e+003;7.387478e-002
1.475339e+003;6.797902e-002
1.477268e+003;6.285352e-002
1.479196e+003;5.842556e-002
1.481125e+003;5.386843e-002
1.483053e+003;5.008125e-002
1.484982e+003;4.697001e-002
1.486911e+003;4.372660e-002
1.488839e+003;4.077022e-002
1.490768e+003;3.959853e-002
1.492696e+003;3.961657e-002
1.494625e+003;3.783571e-002
1.496553e+003;3.573843e-002
1.498482e+003;3.584314e-002
1.500410e+003;3.604207e-002
1.502339e+003;3.532685e-002
1.504267e+003;3.206229e-002
1.506196e+003;2.837717e-002
1.508125e+003;2.967320e-002
1.510053e+003;3.208673e-002
1.511982e+003;3.236397e-002
1.513910e+003;3.239574e-002
1.515839e+003;3.165912e-002
1.517767e+003;3.079608e-002
1.519696e+003;2.919619e-002
1.521624e+003;2.801134e-002
1.523553e+003;2.937295e-002
1.525481e+003;3.028554e-002
1.527410e+003;3.146775e-002
1.529339e+003;3.274546e-002
1.531267e+003;3.294276e-002
1.533196e+003;3.239967e-002
1.535124e+003;3.380909e-002
1.537053e+003;3.336834e-002
1.538981e+003;3.044601e-002
1.540910e+003;3.114917e-002
1.542838e+003;3.439609e-002
1.544767e+003;3.653293e-002
1.546695e+003;3.772001e-002
1.548624e+003;3.749354e-002
1.550553e+003;3.712028e-002
1.552481e+003;3.606382e-002
1.554410e+003;3.399627e-002
1.556338e+003;3.140876e-002
1.558267e+003;2.722164e-002
1.560195e+003;2.805884e-002
1.562124e+003;3.208173e-002
1.564052e+003;3.286023e-002
1.565981e+003;3.239303e-002
1.567910e+003;3.149012e-002
1.569838e+003;3.118171e-002
1.571767e+003;3.272070e-002
1.573695e+003;3.228384e-002
1.575624e+003;2.970701e-002
1.577552e+003;3.080742e-002
1.579481e+003;3.311881e-002
1.581409e+003;3.343876e-002
1.583338e+003;3.304619e-002
1.585266e+003;3.220679e-002
1.587195e+003;3.172688e-002
1.589124e+003;3.148616e-002
1.591052e+003;3.168243e-002
1.592981e+003;3.167388e-002
1.594909e+003;3.144940e-002
1.596838e+003;3.149365e-002
1.598766e+003;3.205448e-002
1.600695e+003;3.250339e-002
1.602623e+003;3.292117e-002
1.604552e+003;3.357438e-002
1.606480e+003;3.382599e-002
1.608409e+003;3.396434e-002
1.610338e+003;3.471088e-002
1.612266e+003;3.527693e-002
1.614195e+003;3.467826e-002
1.616123e+003;3.330119e-002
1.618052e+003;3.513309e-002
1.619980e+003;3.748306e-002
1.621909e+003;3.738620e-002
1.623837e+003;3.779790e-002
1.625766e+003;3.916246e-002
1.627694e+003;3.973877e-002
1.629623e+003;4.003708e-002
1.631552e+003;4.011222e-002
1.633480e+003;3.851996e-002
1.635409e+003;3.692950e-002
1.637337e+003;3.937398e-002
1.639266e+003;4.169083e-002
1.641194e+003;4.232986e-002
1.643123e+003;4.226299e-002
1.645051e+003;4.088099e-002
1.646980e+003;4.098279e-002
1.648909e+003;4.291032e-002
1.650837e+003;4.040042e-002
1.652766e+003;3.631984e-002
1.654694e+003;4.001411e-002
1.656623e+003;4.423086e-002
1.658551e+003;4.463537e-002
1.660480e+003;4.395968e-002
1.662408e+003;4.324171e-002
1.664337e+003;4.349804e-002
1.666266e+003;4.333260e-002
1.668194e+003;4.158041e-002
1.670123e+003;4.081979e-002
1.672051e+003;4.132156e-002
1.673980e+003;4.019843e-002
1.675908e+003;3.974687e-002
1.677837e+003;4.089125e-002
1.679765e+003;4.055081e-002
1.681694e+003;3.829466e-002
1.683622e+003;3.433236e-002
1.685551e+003;3.524423e-002
1.687479e+003;3.867673e-002
1.689408e+003;3.915999e-002
1.691337e+003;3.881663e-002
1.693265e+003;3.747580e-002
1.695194e+003;3.501804e-002
1.697122e+003;3.570743e-002
1.699051e+003;3.529260e-002
1.700979e+003;3.577952e-002
1.702908e+003;3.919622e-002
1.704836e+003;4.014289e-002
1.706765e+003;4.109062e-002
1.708693e+003;4.204958e-002
1.710622e+003;4.233015e-002
1.712551e+003;4.154832e-002
1.714479e+003;3.990826e-002
1.716408e+003;3.770841e-002
1.718336e+003;3.837656e-002
1.720265e+003;4.142237e-002
1.722193e+003;4.230710e-002
1.724122e+003;4.210448e-002
1.726050e+003;4.248443e-002
1.727979e+003;4.250836e-002
1.729908e+003;4.275271e-002
1.731836e+003;4.165914e-002
1.733765e+003;3.990350e-002
1.735693e+003;4.271315e-002
1.737622e+003;4.532016e-002
1.739550e+003;4.531788e-002
1.741479e+003;4.546664e-002
1.743407e+003;4.476067e-002
1.745336e+003;4.285228e-002
1.747265e+003;4.000074e-002
1.749193e+003;3.641160e-002
1.751122e+003;3.303993e-002
1.753050e+003;3.135733e-002
1.754979e+003;2.892857e-002
1.756907e+003;2.604796e-002
1.758836e+003;2.383509e-002
1.760764e+003;2.121134e-002
1.762693e+003;1.971069e-002
1.764621e+003;1.952475e-002
1.766550e+003;1.819628e-002
1.768479e+003;1.674766e-002
1.770407e+003;1.525529e-002
1.772336e+003;1.385112e-002
1.774264e+003;1.468111e-002
1.776193e+003;1.565797e-002
1.778121e+003;1.555270e-002
1.780050e+003;1.487589e-002
1.781978e+003;1.428961e-002
1.783907e+003;1.362069e-002
1.785835e+003;1.304641e-002
1.787764e+003;1.264089e-002
1.789693e+003;1.162723e-002
1.791621e+003;1.005462e-002
1.793550e+003;9.957237e-003
1.795478e+003;1.058489e-002
1.797407e+003;1.004136e-002
1.799335e+003;9.350840e-003
1.801264e+003;9.121836e-003
1.803192e+003;9.274402e-003
1.805121e+003;9.186030e-003
1.807049e+003;8.893798e-003
1.808978e+003;8.355657e-003
1.810907e+003;8.159756e-003
1.812835e+003;8.245825e-003
1.814764e+003;8.222930e-003
1.816692e+003;8.414906e-003
1.818621e+003;8.571719e-003
1.820549e+003;8.248020e-003
1.822478e+003;7.839975e-003
1.824406e+003;7.299430e-003
1.826335e+003;7.225575e-003
1.828264e+003;6.911497e-003
1.830192e+003;7.001325e-003
1.832121e+003;7.899391e-003
1.834049e+003;8.251025e-003
1.835978e+003;8.386260e-003
1.837906e+003;8.358798e-003
1.839835e+003;8.120864e-003
1.841763e+003;7.360828e-003
1.843692e+003;6.197835e-003
1.845620e+003;6.535346e-003
1.847549e+003;7.228708e-003
1.849478e+003;7.303810e-003
1.851406e+003;7.259704e-003
1.853335e+003;7.636281e-003
1.855263e+003;7.848172e-003
1.857192e+003;7.915992e-003
1.859120e+003;7.931885e-003
1.861049e+003;7.592344e-003
1.862977e+003;7.267622e-003
1.864906e+003;6.930720e-003
1.866834e+003;6.380041e-003
1.868763e+003;6.070907e-003
1.870692e+003;6.723145e-003
1.872620e+003;7.101681e-003
1.874549e+003;6.972536e-003
1.876477e+003;7.277528e-003
1.878406e+003;7.202801e-003
1.880334e+003;6.864098e-003
1.882263e+003;7.044058e-003
1.884191e+003;7.351729e-003
1.886120e+003;7.173797e-003
1.888048e+003;6.853091e-003
1.889977e+003;6.883488e-003
1.891906e+003;7.302799e-003
1.893834e+003;7.392608e-003
1.895763e+003;7.445424e-003
1.897691e+003;7.506539e-003
1.899620e+003;7.368714e-003
1.901548e+003;7.308865e-003
1.903477e+003;7.361535e-003
1.905405e+003;7.147893e-003
1.907334e+003;7.019239e-003
1.909262e+003;7.138596e-003
1.911191e+003;7.111011e-003
1.913120e+003;6.948362e-003
1.915048e+003;6.958193e-003
1.916977e+003;6.561616e-003
1.918905e+003;6.342450e-003
1.920834e+003;6.663149e-003
1.922762e+003;6.630245e-003
1.924691e+003;6.595626e-003
1.926619e+003;6.767365e-003
1.928548e+003;6.753869e-003
1.930477e+003;6.531511e-003
1.932405e+003;6.056761e-003
1.934334e+003;6.020577e-003
1.936262e+003;6.390969e-003
1.938191e+003;6.327926e-003
1.940119e+003;5.896690e-003
1.942048e+003;5.604011e-003
1.943976e+003;5.751283e-003
1.945905e+003;5.799433e-003
1.947833e+003;5.930614e-003
1.949762e+003;6.188625e-003
1.951691e+003;6.276994e-003
1.953619e+003;6.047858e-003
1.955548e+003;6.026960e-003
1.957476e+003;6.037006e-003
1.959405e+003;6.073629e-003
1.961333e+003;6.112876e-003
1.963262e+003;6.101754e-003
1.965190e+003;5.932461e-003
1.967119e+003;5.762934e-003
1.969047e+003;5.884968e-003
1.970976e+003;5.884968e-003
1.972905e+003;5.923359e-003
1.974833e+003;6.024944e-003
1.976762e+003;6.029144e-003
1.978690e+003;5.953523e-003
1.980619e+003;6.056862e-003
1.982547e+003;6.046749e-003
1.984476e+003;6.011102e-003
1.986404e+003;6.076687e-003
1.988333e+003;6.037308e-003
1.990261e+003;5.797049e-003
1.992190e+003;5.645028e-003
1.994119e+003;6.064187e-003
1.996047e+003;6.419921e-003
1.997976e+003;6.355764e-003
1.999904e+003;6.268960e-003
2.001833e+003;6.047488e-003
2.003761e+003;5.991718e-003
2.005690e+003;5.998907e-003
2.007618e+003;5.977877e-003
2.009547e+003;6.090026e-003
2.011476e+003;6.188995e-003
2.013404e+003;6.137139e-003
2.015333e+003;6.111230e-003
2.017261e+003;6.257901e-003
2.019190e+003;6.376544e-003
2.021118e+003;6.389758e-003
2.023047e+003;6.433675e-003
2.024975e+003;6.167653e-003
2.026904e+003;6.000049e-003
2.028833e+003;5.809272e-003
2.030761e+003;5.883289e-003
2.032690e+003;6.256690e-003
2.034618e+003;6.317537e-003
2.036547e+003;6.190944e-003
2.038475e+003;6.290945e-003
2.040404e+003;6.506050e-003
2.042332e+003;6.469356e-003
2.044261e+003;6.428564e-003
2.046189e+003;6.798126e-003
2.048118e+003;7.088849e-003
2.050047e+003;6.835823e-003
2.051975e+003;6.674253e-003
2.053904e+003;6.665807e-003
2.055832e+003;6.602153e-003
2.057761e+003;6.688755e-003
2.059689e+003;6.718737e-003
2.061618e+003;6.699354e-003
2.063546e+003;6.511196e-003
2.065475e+003;6.629572e-003
2.067404e+003;6.924121e-003
2.069332e+003;6.847301e-003
2.071260e+003;6.677819e-003
2.073189e+003;6.783149e-003
2.075118e+003;6.742360e-003
2.077046e+003;6.599899e-003
2.078975e+003;6.754441e-003
2.080903e+003;7.148196e-003
2.082832e+003;7.386272e-003
2.084760e+003;7.415763e-003
2.086689e+003;7.498313e-003
2.088617e+003;7.471412e-003
2.090546e+003;7.424694e-003
2.092475e+003;7.658808e-003
2.094403e+003;7.625794e-003
2.096332e+003;7.336058e-003
2.098260e+003;7.378723e-003
2.100189e+003;7.495785e-003
2.102117e+003;7.462581e-003
2.104046e+003;7.613385e-003
2.105974e+003;7.642081e-003
2.107903e+003;7.486851e-003
2.109832e+003;7.382025e-003
2.111760e+003;7.460761e-003
2.113688e+003;7.666024e-003
2.115617e+003;7.936306e-003
2.117546e+003;7.931346e-003
2.119474e+003;7.929692e-003
2.121403e+003;8.278312e-003
2.123331e+003;8.737242e-003
2.125260e+003;8.731089e-003
2.127188e+003;8.990025e-003
2.129117e+003;9.575697e-003
2.131045e+003;9.770779e-003
2.132974e+003;9.792502e-003
2.134903e+003;9.815073e-003
2.136831e+003;9.703043e-003
2.138760e+003;9.550055e-003
2.140688e+003;9.407077e-003
2.142617e+003;9.306017e-003
2.144545e+003;9.205118e-003
2.146474e+003;9.147892e-003
2.148402e+003;9.191005e-003
2.150331e+003;9.476867e-003
2.152260e+003;9.788300e-003
2.154188e+003;9.667941e-003
2.156117e+003;9.658862e-003
2.158045e+003;9.925065e-003
2.159974e+003;1.010226e-002
2.161902e+003;1.033270e-002
2.163831e+003;1.071942e-002
2.165759e+003;1.079231e-002
2.167688e+003;1.094176e-002
2.169616e+003;1.119692e-002
2.171545e+003;1.134375e-002
2.173474e+003;1.141154e-002
2.175402e+003;1.132267e-002
2.177331e+003;1.121195e-002
2.179259e+003;1.106506e-002
2.181188e+003;1.091193e-002
2.183116e+003;1.073406e-002
2.185045e+003;1.099202e-002
2.186973e+003;1.104324e-002
2.188902e+003;1.089032e-002
2.190831e+003;1.099545e-002
2.192759e+003;1.118781e-002
2.194688e+003;1.127414e-002
2.196616e+003;1.119362e-002
2.198545e+003;1.108732e-002
2.200473e+003;1.090123e-002
2.202402e+003;1.059480e-002
2.204330e+003;1.052334e-002
2.206259e+003;1.061561e-002
2.208188e+003;1.069470e-002
2.210116e+003;1.066261e-002
2.212044e+003;1.053033e-002
2.213973e+003;1.055905e-002
2.215902e+003;1.051733e-002
2.217830e+003;1.044751e-002
2.219759e+003;1.037206e-002
2.221687e+003;1.043196e-002
2.223616e+003;1.065585e-002
2.225544e+003;1.097591e-002
2.227473e+003;1.095875e-002
2.229401e+003;1.104347e-002
2.231330e+003;1.121528e-002
2.233259e+003;1.114072e-002
2.235187e+003;1.081854e-002
2.237116e+003;1.081847e-002
2.239044e+003;1.107481e-002
2.240973e+003;1.097499e-002
2.242901e+003;1.058180e-002
2.244830e+003;1.061066e-002
2.246758e+003;1.096511e-002
2.248687e+003;1.131240e-002
2.250615e+003;1.162420e-002
2.252544e+003;1.166480e-002
2.254473e+003;1.166136e-002
2.256401e+003;1.191367e-002
2.258330e+003;1.193203e-002
2.260258e+003;1.165680e-002
2.262187e+003;1.155852e-002
2.264115e+003;1.155175e-002
2.266044e+003;1.150003e-002
2.267972e+003;1.137324e-002
2.269901e+003;1.119281e-002
2.271830e+003;1.108579e-002
2.273758e+003;1.089613e-002
2.275687e+003;1.089175e-002
2.277615e+003;1.080335e-002
2.279544e+003;1.060461e-002
2.281472e+003;1.049822e-002
2.283401e+003;1.054024e-002
2.285329e+003;1.075366e-002
2.287258e+003;1.073623e-002
2.289187e+003;1.059803e-002
2.291115e+003;1.073939e-002
2.293043e+003;1.082682e-002
2.294972e+003;1.071565e-002
2.296901e+003;1.068784e-002
2.298829e+003;1.071518e-002
2.300758e+003;1.082981e-002
2.302686e+003;1.075841e-002
2.304615e+003;1.054628e-002
2.306543e+003;1.056890e-002
2.308472e+003;1.065847e-002
2.310400e+003;1.083820e-002
2.312329e+003;1.092049e-002
2.314258e+003;1.097177e-002
2.316186e+003;1.102471e-002
2.318115e+003;1.082115e-002
2.320043e+003;1.070329e-002
2.321972e+003;1.085145e-002
2.323900e+003;1.139566e-002
2.325829e+003;1.176358e-002
2.327757e+003;1.187727e-002
2.329686e+003;1.205687e-002
2.331615e+003;1.211591e-002
2.333543e+003;1.198288e-002
2.335472e+003;1.197661e-002
2.337400e+003;1.220744e-002
2.339329e+003;1.226006e-002
2.341257e+003;1.219541e-002
2.343186e+003;1.237588e-002
2.345114e+003;1.274287e-002
2.347043e+003;1.302719e-002
2.348971e+003;1.298082e-002
2.350900e+003;1.290193e-002
2.352829e+003;1.309271e-002
2.354757e+003;1.330223e-002
2.356686e+003;1.345165e-002
2.358614e+003;1.347821e-002
2.360543e+003;1.346861e-002
2.362471e+003;1.366189e-002
2.364400e+003;1.376817e-002
2.366328e+003;1.349014e-002
2.368257e+003;1.327039e-002
2.370186e+003;1.335433e-002
2.372114e+003;1.356930e-002
2.374042e+003;1.362055e-002
2.375971e+003;1.351468e-002
2.377900e+003;1.372994e-002
2.379828e+003;1.388711e-002
2.381757e+003;1.375227e-002
2.383685e+003;1.395745e-002
2.385614e+003;1.428321e-002
2.387542e+003;1.441290e-002
2.389471e+003;1.432588e-002
2.391399e+003;1.432598e-002
2.393328e+003;1.429543e-002
2.395257e+003;1.434156e-002
2.397185e+003;1.456021e-002
2.399114e+003;1.467590e-002
2.401042e+003;1.474144e-002
2.402971e+003;1.460983e-002
2.404899e+003;1.435793e-002
2.406828e+003;1.433190e-002
2.408756e+003;1.442475e-002
2.410685e+003;1.443133e-002
2.412614e+003;1.452996e-002
2.414542e+003;1.464968e-002
2.416471e+003;1.446219e-002
2.418399e+003;1.438170e-002
2.420328e+003;1.467179e-002
2.422256e+003;1.486821e-002
2.424185e+003;1.509378e-002
2.426113e+003;1.527273e-002
2.428042e+003;1.526751e-002
2.429970e+003;1.506137e-002
2.431899e+003;1.484620e-002
2.433828e+003;1.487596e-002
2.435756e+003;1.483736e-002
2.437685e+003;1.454298e-002
2.439613e+003;1.421028e-002
2.441542e+003;1.410632e-002
2.443470e+003;1.414164e-002
2.445399e+003;1.415020e-002
2.447327e+003;1.399225e-002
2.449256e+003;1.377306e-002
2.451185e+003;1.388598e-002
2.453113e+003;1.400460e-002
2.455042e+003;1.395482e-002
2.456970e+003;1.371024e-002
2.458899e+003;1.358000e-002
2.460827e+003;1.371558e-002
2.462756e+003;1.365040e-002
2.464684e+003;1.352093e-002
2.466613e+003;1.358288e-002
2.468542e+003;1.364192e-002
2.470470e+003;1.347715e-002
2.472398e+003;1.352001e-002
2.474327e+003;1.378356e-002
2.476256e+003;1.389929e-002
2.478184e+003;1.413524e-002
2.480113e+003;1.439122e-002
2.482041e+003;1.461737e-002
2.483970e+003;1.472066e-002
2.485898e+003;1.456840e-002
2.487827e+003;1.452663e-002
2.489755e+003;1.456295e-002
2.491684e+003;1.459986e-002
2.493613e+003;1.455966e-002
2.495541e+003;1.455545e-002
2.497470e+003;1.447864e-002
2.499398e+003;1.448014e-002
2.501327e+003;1.441290e-002
2.503255e+003;1.425633e-002
2.505184e+003;1.443729e-002
2.507112e+003;1.460746e-002
2.509041e+003;1.489184e-002
2.510969e+003;1.522629e-002
2.512898e+003;1.538764e-002
2.514827e+003;1.545895e-002
2.516755e+003;1.558292e-002
2.518684e+003;1.589646e-002
2.520612e+003;1.630314e-002
2.522541e+003;1.629770e-002
2.524469e+003;1.639775e-002
2.526398e+003;1.658253e-002
2.528326e+003;1.686107e-002
2.530255e+003;1.735803e-002
2.532184e+003;1.766623e-002
2.534112e+003;1.779884e-002
2.536041e+003;1.798035e-002
2.537969e+003;1.817562e-002
2.539898e+003;1.828826e-002
2.541826e+003;1.877094e-002
2.543755e+003;1.910341e-002
2.545683e+003;1.904130e-002
2.547612e+003;1.946850e-002
2.549541e+003;2.021412e-002
2.551469e+003;2.039529e-002
2.553397e+003;2.056809e-002
2.555326e+003;2.102358e-002
2.557255e+003;2.126607e-002
2.559183e+003;2.132861e-002
2.561112e+003;2.163017e-002
2.563040e+003;2.204922e-002
2.564969e+003;2.243090e-002
2.566897e+003;2.270526e-002
2.568826e+003;2.291904e-002
2.570754e+003;2.353340e-002
2.572683e+003;2.454432e-002
2.574612e+003;2.529066e-002
2.576540e+003;2.563273e-002
2.578469e+003;2.626164e-002
2.580397e+003;2.681455e-002
2.582326e+003;2.682805e-002
2.584254e+003;2.637774e-002
2.586183e+003;2.541240e-002
2.588111e+003;2.453709e-002
2.590040e+003;2.419802e-002
2.591969e+003;2.386072e-002
2.593897e+003;2.351031e-002
2.595826e+003;2.335581e-002
2.597754e+003;2.327393e-002
2.599683e+003;2.352665e-002
2.601611e+003;2.378928e-002
2.603540e+003;2.387433e-002
2.605468e+003;2.428498e-002
2.607397e+003;2.479707e-002
2.609325e+003;2.501122e-002
2.611254e+003;2.516687e-002
2.613183e+003;2.566574e-002
2.615111e+003;2.587743e-002
2.617040e+003;2.587508e-002
2.618968e+003;2.591925e-002
2.620897e+003;2.594841e-002
2.622825e+003;2.590216e-002
2.624754e+003;2.550829e-002
2.626682e+003;2.494461e-002
2.628611e+003;2.479830e-002
2.630540e+003;2.478370e-002
2.632468e+003;2.475540e-002
2.634396e+003;2.494935e-002
2.636325e+003;2.518422e-002
2.638254e+003;2.507202e-002
2.640182e+003;2.532188e-002
2.642111e+003;2.579522e-002
2.644039e+003;2.605521e-002
2.645968e+003;2.647409e-002
2.647896e+003;2.704289e-002
2.649825e+003;2.738320e-002
2.651753e+003;2.784201e-002
2.653682e+003;2.816361e-002
2.655611e+003;2.827577e-002
2.657539e+003;2.833787e-002
2.659468e+003;2.878246e-002
2.661396e+003;2.906218e-002
2.663325e+003;2.921958e-002
2.665253e+003;2.919091e-002
2.667182e+003;2.899540e-002
2.669110e+003;2.903111e-002
2.671039e+003;2.921281e-002
2.672968e+003;2.930134e-002
2.674896e+003;2.948570e-002
2.676825e+003;2.968512e-002
2.678753e+003;3.004327e-002
2.680682e+003;3.022784e-002
2.682610e+003;2.984781e-002
2.684539e+003;2.969729e-002
2.686467e+003;2.984164e-002
2.688396e+003;3.002843e-002
2.690324e+003;3.013716e-002
2.692253e+003;3.021218e-002
2.694182e+003;3.001718e-002
2.696110e+003;2.991348e-002
2.698039e+003;3.028088e-002
2.699967e+003;3.078708e-002
2.701896e+003;3.098079e-002
2.703824e+003;3.158208e-002
2.705753e+003;3.257757e-002
2.707681e+003;3.332494e-002
2.709610e+003;3.417909e-002
2.711539e+003;3.536437e-002
2.713467e+003;3.667381e-002
2.715396e+003;3.790249e-002
2.717324e+003;3.955374e-002
2.719253e+003;4.141803e-002
2.721181e+003;4.246795e-002
2.723110e+003;4.283846e-002
2.725038e+003;4.255360e-002
2.726967e+003;4.165815e-002
2.728896e+003;4.034475e-002
2.730824e+003;3.875417e-002
2.732752e+003;3.759426e-002
2.734681e+003;3.678988e-002
2.736610e+003;3.583176e-002
2.738538e+003;3.500285e-002
2.740467e+003;3.419733e-002
2.742395e+003;3.301147e-002
2.744324e+003;3.196267e-002
2.746252e+003;3.171119e-002
2.748181e+003;3.173896e-002
2.750109e+003;3.173501e-002
2.752038e+003;3.192982e-002
2.753967e+003;3.206842e-002
2.755895e+003;3.214948e-002
2.757824e+003;3.217771e-002
2.759752e+003;3.255421e-002
2.761681e+003;3.332261e-002
2.763609e+003;3.378201e-002
2.765538e+003;3.396861e-002
2.767466e+003;3.402135e-002
2.769395e+003;3.429130e-002
2.771323e+003;3.491170e-002
2.773252e+003;3.563340e-002
2.775181e+003;3.628295e-002
2.777109e+003;3.671289e-002
2.779038e+003;3.749748e-002
2.780966e+003;3.866818e-002
2.782895e+003;3.983914e-002
2.784823e+003;4.114529e-002
2.786752e+003;4.262761e-002
2.788680e+003;4.443881e-002
2.790609e+003;4.624318e-002
2.792538e+003;4.775391e-002
2.794466e+003;4.905103e-002
2.796395e+003;4.978291e-002
2.798323e+003;5.085894e-002
2.800252e+003;5.241964e-002
2.802180e+003;5.396191e-002
2.804109e+003;5.595518e-002
2.806037e+003;5.806651e-002
2.807966e+003;5.984588e-002
2.809895e+003;6.175771e-002
2.811823e+003;6.348107e-002
2.813751e+003;6.485946e-002
2.815680e+003;6.632668e-002
2.817609e+003;6.809272e-002
2.819537e+003;7.023112e-002
2.821466e+003;7.293411e-002
2.823394e+003;7.636707e-002
2.825323e+003;8.015914e-002
2.827251e+003;8.535774e-002
2.829180e+003;9.285394e-002
2.831108e+003;1.014071e-001
2.833037e+003;1.098228e-001
2.834966e+003;1.169540e-001
2.836894e+003;1.208824e-001
2.838823e+003;1.207980e-001
2.840751e+003;1.180905e-001
2.842680e+003;1.141275e-001
2.844608e+003;1.099707e-001
2.846537e+003;1.060163e-001
2.848465e+003;1.030360e-001
2.850394e+003;1.015974e-001
2.852323e+003;1.007701e-001
2.854251e+003;1.003396e-001
2.856180e+003;1.010958e-001
2.858108e+003;1.036209e-001
2.860037e+003;1.084818e-001
2.861965e+003;1.151511e-001
2.863894e+003;1.225112e-001
2.865822e+003;1.286109e-001
2.867751e+003;1.314407e-001
2.869679e+003;1.316972e-001
2.871608e+003;1.311810e-001
2.873536e+003;1.305367e-001
2.875465e+003;1.299560e-001
2.877394e+003;1.290406e-001
2.879322e+003;1.274948e-001
2.881251e+003;1.259536e-001
2.883179e+003;1.247440e-001
2.885108e+003;1.244573e-001
2.887036e+003;1.252672e-001
2.888965e+003;1.268695e-001
2.890893e+003;1.288336e-001
2.892822e+003;1.316002e-001
2.894750e+003;1.357436e-001
2.896679e+003;1.405480e-001
2.898608e+003;1.454020e-001
2.900536e+003;1.508337e-001
2.902465e+003;1.567544e-001
2.904393e+003;1.627654e-001
2.906322e+003;1.685415e-001
2.908250e+003;1.737126e-001
2.910179e+003;1.783970e-001
2.912107e+003;1.830011e-001
2.914036e+003;1.872652e-001
2.915965e+003;1.890762e-001
2.917893e+003;1.880683e-001
2.919822e+003;1.857497e-001
2.921750e+003;1.820868e-001
2.923679e+003;1.759239e-001
2.925607e+003;1.690824e-001
2.927536e+003;1.617311e-001
2.929464e+003;1.530203e-001
2.931393e+003;1.439588e-001
2.933322e+003;1.357036e-001
2.935250e+003;1.286002e-001
2.937178e+003;1.235921e-001
2.939107e+003;1.212571e-001
2.941036e+003;1.219743e-001
2.942964e+003;1.267685e-001
2.944893e+003;1.346283e-001
2.946821e+003;1.431714e-001
2.948750e+003;1.494762e-001
2.950678e+003;1.524490e-001
2.952607e+003;1.523702e-001
2.954535e+003;1.494340e-001
2.956464e+003;1.446662e-001
2.958393e+003;1.393416e-001
2.960321e+003;1.330711e-001
2.962250e+003;1.260477e-001
2.964178e+003;1.189348e-001
2.966107e+003;1.116992e-001
2.968035e+003;1.041778e-001
2.969964e+003;9.701689e-002
2.971892e+003;9.064349e-002
2.973821e+003;8.498871e-002
2.975750e+003;8.010275e-002
2.977678e+003;7.568099e-002
2.979607e+003;7.177655e-002
2.981535e+003;6.861305e-002
2.983464e+003;6.575371e-002
2.985392e+003;6.287849e-002
2.987321e+003;6.044000e-002
2.989249e+003;5.808507e-002
2.991178e+003;5.619986e-002
2.993106e+003;5.475764e-002
2.995035e+003;5.318075e-002
2.996964e+003;5.118993e-002
2.998892e+003;4.920441e-002
3.000821e+003;4.769237e-002
3.002749e+003;4.585609e-002
3.004678e+003;4.406070e-002
3.006606e+003;4.281304e-002
3.008535e+003;4.171702e-002
3.010463e+003;4.061717e-002
3.012392e+003;3.933306e-002
3.014321e+003;3.806572e-002
3.016249e+003;3.682891e-002
3.018177e+003;3.561926e-002
3.020106e+003;3.461108e-002
3.022035e+003;3.357846e-002
3.023963e+003;3.301018e-002
3.025892e+003;3.229080e-002
3.027820e+003;3.156772e-002
3.029749e+003;3.090525e-002
3.031677e+003;3.043925e-002
3.033606e+003;3.004739e-002
3.035534e+003;2.929592e-002
3.037463e+003;2.863797e-002
3.039392e+003;2.846982e-002
3.041320e+003;2.822602e-002
3.043249e+003;2.809217e-002
3.045177e+003;2.797949e-002
3.047106e+003;2.788529e-002
3.049034e+003;2.760033e-002
3.050963e+003;2.737939e-002
3.052891e+003;2.704257e-002
3.054820e+003;2.661328e-002
3.056749e+003;2.657725e-002
3.058677e+003;2.677082e-002
3.060606e+003;2.654882e-002
3.062534e+003;2.607498e-002
3.064463e+003;2.580260e-002
3.066391e+003;2.587838e-002
3.068320e+003;2.588763e-002
3.070248e+003;2.581491e-002
3.072177e+003;2.582901e-002
3.074105e+003;2.595126e-002
3.076034e+003;2.549385e-002
3.077963e+003;2.501354e-002
3.079891e+003;2.490275e-002
3.081820e+003;2.477841e-002
3.083748e+003;2.508486e-002
3.085677e+003;2.514023e-002
3.087605e+003;2.453534e-002
3.089534e+003;2.454989e-002
3.091462e+003;2.475066e-002
3.093391e+003;2.455315e-002
3.095320e+003;2.422566e-002
3.097248e+003;2.418264e-002
3.099177e+003;2.436957e-002
3.101105e+003;2.459673e-002
3.103034e+003;2.467697e-002
3.104962e+003;2.509757e-002
3.106891e+003;2.544683e-002
3.108819e+003;2.533129e-002
3.110748e+003;2.511923e-002
3.112677e+003;2.490738e-002
3.114605e+003;2.504839e-002
3.116533e+003;2.540422e-002
3.118462e+003;2.525157e-002
3.120391e+003;2.497781e-002
3.122319e+003;2.521937e-002
3.124248e+003;2.520708e-002
3.126176e+003;2.528852e-002
3.128105e+003;2.545646e-002
3.130033e+003;2.527085e-002
3.131962e+003;2.551714e-002
3.133890e+003;2.600733e-002
3.135819e+003;2.610764e-002
3.137748e+003;2.600156e-002
3.139676e+003;2.620209e-002
3.141605e+003;2.648902e-002
3.143533e+003;2.703238e-002
3.145462e+003;2.742990e-002
3.147390e+003;2.705703e-002
3.149319e+003;2.664091e-002
3.151247e+003;2.702392e-002
3.153176e+003;2.707840e-002
3.155104e+003;2.683997e-002
3.157033e+003;2.696405e-002
3.158962e+003;2.728871e-002
3.160890e+003;2.741687e-002
3.162819e+003;2.749467e-002
3.164747e+003;2.757752e-002
3.166676e+003;2.780103e-002
3.168604e+003;2.789593e-002
3.170533e+003;2.775900e-002
3.172461e+003;2.739976e-002
3.174390e+003;2.752771e-002
3.176319e+003;2.780185e-002
3.178247e+003;2.773177e-002
3.180176e+003;2.811617e-002
3.182104e+003;2.849196e-002
3.184033e+003;2.858906e-002
3.185961e+003;2.853113e-002
3.187890e+003;2.826194e-002
3.189818e+003;2.860704e-002
3.191747e+003;2.913804e-002
3.193676e+003;2.900107e-002
3.195604e+003;2.870002e-002
3.197532e+003;2.858945e-002
3.199461e+003;2.870710e-002
3.201390e+003;2.918750e-002
3.203318e+003;2.948007e-002
3.205247e+003;2.939479e-002
3.207175e+003;2.913853e-002
3.209104e+003;2.888044e-002
3.211032e+003;2.869233e-002
3.212961e+003;2.854780e-002
3.214889e+003;2.844675e-002
3.216818e+003;2.837045e-002
3.218747e+003;2.864767e-002
3.220675e+003;2.851864e-002
3.222604e+003;2.815071e-002
3.224532e+003;2.809086e-002
3.226461e+003;2.838566e-002
3.228389e+003;2.803392e-002
3.230318e+003;2.776935e-002
3.232246e+003;2.794621e-002
3.234175e+003;2.732837e-002
3.236104e+003;2.678336e-002
3.238032e+003;2.708919e-002
3.239961e+003;2.732604e-002
3.241889e+003;2.754511e-002
3.243818e+003;2.771411e-002
3.245746e+003;2.742255e-002
3.247675e+003;2.697396e-002
3.249603e+003;2.685678e-002
3.251532e+003;2.696310e-002
3.253460e+003;2.735773e-002
3.255389e+003;2.746329e-002
3.257318e+003;2.754758e-002
3.259246e+003;2.767222e-002
3.261175e+003;2.775416e-002
3.263103e+003;2.789147e-002
3.265032e+003;2.806283e-002
3.266960e+003;2.771358e-002
3.268889e+003;2.734887e-002
3.270817e+003;2.748697e-002
3.272746e+003;2.773297e-002
3.274675e+003;2.775451e-002
3.276603e+003;2.782915e-002
3.278531e+003;2.788624e-002
3.280460e+003;2.772124e-002
3.282389e+003;2.773163e-002
3.284317e+003;2.807170e-002
3.286246e+003;2.855088e-002
3.288174e+003;2.857993e-002
3.290103e+003;2.816626e-002
3.292031e+003;2.778853e-002
3.293960e+003;2.748040e-002
3.295888e+003;2.768639e-002
3.297817e+003;2.816407e-002
3.299746e+003;2.810705e-002
3.301674e+003;2.767526e-002
3.303603e+003;2.742760e-002
3.305531e+003;2.769352e-002
3.307460e+003;2.780082e-002
3.309388e+003;2.790359e-002
3.311317e+003;2.788812e-002
3.313245e+003;2.771888e-002
3.315174e+003;2.715501e-002
3.317103e+003;2.718322e-002
3.319031e+003;2.741034e-002
3.320960e+003;2.745411e-002
3.322888e+003;2.739852e-002
3.324817e+003;2.772870e-002
3.326745e+003;2.817107e-002
3.328674e+003;2.840501e-002
3.330602e+003;2.809708e-002
3.332531e+003;2.753332e-002
3.334459e+003;2.752224e-002
3.336388e+003;2.773367e-002
3.338317e+003;2.765100e-002
3.340245e+003;2.740918e-002
3.342174e+003;2.743138e-002
3.344102e+003;2.750014e-002
3.346031e+003;2.732364e-002
3.347959e+003;2.734714e-002
3.349888e+003;2.729887e-002
3.351816e+003;2.733144e-002
3.353745e+003;2.751864e-002
3.355674e+003;2.735039e-002
3.357602e+003;2.719977e-002
3.359531e+003;2.727001e-002
3.361459e+003;2.684063e-002
3.363388e+003;2.667096e-002
3.365316e+003;2.685636e-002
3.367245e+003;2.687754e-002
3.369173e+003;2.674601e-002
3.371102e+003;2.661131e-002
3.373031e+003;2.663932e-002
3.374959e+003;2.624872e-002
3.376887e+003;2.575450e-002
3.378816e+003;2.577194e-002
3.380745e+003;2.597366e-002
3.382673e+003;2.554975e-002
3.384602e+003;2.520111e-002
3.386530e+003;2.555242e-002
3.388459e+003;2.597781e-002
3.390387e+003;2.587065e-002
3.392316e+003;2.567526e-002
3.394244e+003;2.564405e-002
3.396173e+003;2.530622e-002
3.398102e+003;2.496809e-002
3.400030e+003;2.526355e-002
3.401959e+003;2.555942e-002
3.403887e+003;2.520687e-002
3.405816e+003;2.495015e-002
3.407744e+003;2.512401e-002
3.409673e+003;2.513401e-002
3.411601e+003;2.494773e-002
3.413530e+003;2.503769e-002
3.415458e+003;2.503541e-002
3.417387e+003;2.467711e-002
3.419316e+003;2.425744e-002
3.421244e+003;2.432286e-002
3.423173e+003;2.407164e-002
3.425101e+003;2.366893e-002
3.427030e+003;2.367887e-002
3.428958e+003;2.378147e-002
3.430887e+003;2.375645e-002
3.432815e+003;2.317582e-002
3.434744e+003;2.260556e-002
3.436673e+003;2.260737e-002
3.438601e+003;2.268068e-002
3.440530e+003;2.266106e-002
3.442458e+003;2.239723e-002
3.444387e+003;2.242308e-002
3.446315e+003;2.177699e-002
3.448244e+003;2.102504e-002
3.450172e+003;2.107825e-002
3.452101e+003;2.111077e-002
3.454030e+003;2.092718e-002
3.455958e+003;2.080763e-002
3.457886e+003;2.081433e-002
3.459815e+003;2.124589e-002
3.461744e+003;2.112253e-002
3.463672e+003;2.067809e-002
3.465601e+003;2.034768e-002
3.467529e+003;2.011822e-002
3.469458e+003;1.992919e-002
3.471386e+003;1.983217e-002
3.473315e+003;1.967509e-002
3.475243e+003;1.938399e-002
3.477172e+003;1.905352e-002
3.479101e+003;1.864921e-002
3.481029e+003;1.866595e-002
3.482958e+003;1.865374e-002
3.484886e+003;1.838971e-002
3.486815e+003;1.837439e-002
3.488743e+003;1.824666e-002
3.490672e+003;1.802003e-002
3.492600e+003;1.808524e-002
3.494529e+003;1.787551e-002
3.496458e+003;1.773829e-002
3.498386e+003;1.779135e-002
3.500315e+003;1.745243e-002
3.502243e+003;1.677731e-002
3.504172e+003;1.642345e-002
3.506100e+003;1.679608e-002
3.508029e+003;1.713180e-002
3.509957e+003;1.692715e-002
3.511886e+003;1.683038e-002
3.513814e+003;1.659310e-002
3.515743e+003;1.610245e-002
3.517672e+003;1.598717e-002
3.519600e+003;1.610314e-002
3.521529e+003;1.599625e-002
3.523457e+003;1.577797e-002
3.525386e+003;1.584697e-002
3.527314e+003;1.584027e-002
3.529243e+003;1.567027e-002
3.531171e+003;1.529737e-002
3.533100e+003;1.537141e-002
3.535029e+003;1.534511e-002
3.536957e+003;1.512188e-002
3.538885e+003;1.480804e-002
3.540814e+003;1.415667e-002
3.542743e+003;1.386480e-002
3.544671e+003;1.377806e-002
3.546600e+003;1.401148e-002
3.548528e+003;1.423383e-002
3.550457e+003;1.393490e-002
3.552385e+003;1.347342e-002
3.554314e+003;1.325303e-002
3.556242e+003;1.310050e-002
3.558171e+003;1.315203e-002
3.560100e+003;1.328952e-002
3.562028e+003;1.285828e-002
3.563957e+003;1.195090e-002
3.565885e+003;1.100612e-002
3.567814e+003;1.094101e-002
3.569742e+003;1.150231e-002
3.571671e+003;1.177581e-002
3.573599e+003;1.143859e-002
3.575528e+003;1.127587e-002
3.577457e+003;1.108606e-002
3.579385e+003;1.074289e-002
3.581314e+003;1.061697e-002
3.583242e+003;1.026437e-002
3.585171e+003;9.643786e-003
3.587099e+003;8.970034e-003
3.589028e+003;9.142883e-003
3.590956e+003;9.631013e-003
3.592885e+003;9.613500e-003
3.594813e+003;9.747160e-003
3.596742e+003;1.009931e-002
3.598671e+003;9.869946e-003
3.600599e+003;9.322267e-003
3.602528e+003;9.227252e-003
3.604456e+003;9.244514e-003
3.606385e+003;8.440278e-003
3.608313e+003;7.215468e-003
3.610242e+003;6.849321e-003
3.612170e+003;7.006511e-003
3.614099e+003;7.830562e-003
3.616028e+003;8.018550e-003
3.617956e+003;6.572179e-003
3.619885e+003;6.562088e-003
3.621813e+003;8.057164e-003
3.623742e+003;8.284932e-003
3.625670e+003;6.906278e-003
3.627599e+003;4.179027e-003
3.629527e+003;4.298542e-003
3.631456e+003;7.057630e-003
3.633385e+003;7.998031e-003
3.635313e+003;7.704809e-003
3.637241e+003;7.176862e-003
3.639170e+003;7.393046e-003
3.641099e+003;8.157089e-003
3.643027e+003;7.965058e-003
3.644956e+003;6.818690e-003
3.646884e+003;5.103922e-003
3.648813e+003;4.030414e-003
3.650741e+003;5.394419e-003
3.652670e+003;6.794996e-003
3.654598e+003;5.924602e-003
3.656527e+003;5.312569e-003
3.658456e+003;6.127696e-003
3.660384e+003;6.581565e-003
3.662313e+003;6.806237e-003
3.664241e+003;6.886888e-003
3.666170e+003;6.394701e-003
3.668098e+003;4.693023e-003
3.670027e+003;3.653274e-003
3.671955e+003;4.930427e-003
3.673884e+003;4.042822e-003
3.675813e+003;3.437541e-003
3.677741e+003;5.998303e-003
3.679669e+003;7.266578e-003
3.681598e+003;7.439963e-003
3.683527e+003;7.588938e-003
3.685455e+003;6.891365e-003
3.687384e+003;4.809498e-003
3.689312e+003;4.494014e-003
3.691241e+003;5.746918e-003
3.693169e+003;7.196367e-003
3.695098e+003;7.726665e-003
3.697026e+003;7.650613e-003
3.698955e+003;7.247609e-003
3.700884e+003;6.017284e-003
3.702812e+003;6.607536e-003
3.704741e+003;7.534318e-003
3.706669e+003;7.170327e-003
3.708598e+003;6.250875e-003
3.710526e+003;5.361274e-003
3.712455e+003;5.672387e-003
3.714383e+003;6.501105e-003
3.716312e+003;6.577528e-003
3.718240e+003;7.303642e-003
3.720169e+003;7.532026e-003
3.722098e+003;7.108485e-003
3.724026e+003;6.863593e-003
3.725955e+003;6.705680e-003
3.727883e+003;6.940012e-003
3.729812e+003;6.372879e-003
3.731740e+003;5.208970e-003
3.733669e+003;4.767856e-003
3.735597e+003;4.224427e-003
3.737526e+003;5.383784e-003
3.739455e+003;6.911968e-003
3.741383e+003;6.292727e-003
3.743312e+003;2.924627e-003
3.745240e+003;3.033287e-003
3.747169e+003;4.409555e-003
3.749097e+003;2.597542e-003
3.751026e+003;2.325432e-003
3.752954e+003;4.591247e-003
3.754883e+003;6.743302e-003
3.756812e+003;6.826567e-003
3.758740e+003;7.046079e-003
3.760668e+003;7.754121e-003
3.762597e+003;8.409434e-003
3.764526e+003;8.310937e-003
3.766454e+003;8.206014e-003
3.768383e+003;7.084202e-003
3.770311e+003;6.455635e-003
3.772240e+003;7.413707e-003
3.774168e+003;7.882520e-003
3.776097e+003;7.765623e-003
3.778025e+003;7.880124e-003
3.779954e+003;7.611563e-003
3.781883e+003;7.533071e-003
3.783811e+003;7.585229e-003
3.785740e+003;8.189367e-003
3.787668e+003;8.246568e-003
3.789597e+003;8.088624e-003
3.791525e+003;8.276725e-003
3.793454e+003;8.093688e-003
3.795382e+003;7.364299e-003
3.797311e+003;7.253808e-003
3.799240e+003;5.771765e-003
3.801168e+003;4.473860e-003
3.803097e+003;6.009859e-003
3.805025e+003;6.350351e-003
3.806954e+003;6.049403e-003
3.808882e+003;7.389440e-003
3.810811e+003;7.823781e-003
3.812739e+003;7.202902e-003
3.814668e+003;5.771798e-003
3.816596e+003;6.356975e-003
3.818525e+003;6.712444e-003
3.820454e+003;5.365065e-003
3.822382e+003;6.474704e-003
3.824311e+003;7.768895e-003
3.826239e+003;7.713848e-003
3.828168e+003;7.599593e-003
3.830096e+003;7.402787e-003
3.832025e+003;7.423785e-003
3.833953e+003;7.408347e-003
3.835882e+003;6.210775e-003
3.837811e+003;4.848062e-003
3.839739e+003;5.611563e-003
3.841667e+003;6.219379e-003
3.843596e+003;6.806877e-003
3.845525e+003;7.507550e-003
3.847453e+003;7.697828e-003
3.849382e+003;6.936107e-003
3.851310e+003;3.792299e-003
3.853239e+003;1.572935e-003
3.855167e+003;5.062318e-003
3.857096e+003;8.224687e-003
3.859024e+003;8.137102e-003
3.860953e+003;7.527070e-003
3.862882e+003;6.981021e-003
3.864810e+003;6.833938e-003
3.866739e+003;7.519012e-003
3.868667e+003;6.444201e-003
3.870596e+003;6.262237e-003
3.872524e+003;7.461401e-003
3.874453e+003;8.056455e-003
3.876381e+003;8.517076e-003
3.878310e+003;7.819125e-003
3.880239e+003;7.346236e-003
3.882167e+003;7.724472e-003
3.884096e+003;7.215502e-003
3.886024e+003;7.168811e-003
3.887953e+003;8.041637e-003
3.889881e+003;7.171337e-003
3.891810e+003;7.107441e-003
3.893738e+003;8.527923e-003
3.895667e+003;9.264586e-003
3.897595e+003;8.696776e-003
3.899524e+003;8.029790e-003
3.901453e+003;7.296161e-003
3.903381e+003;7.211762e-003
3.905310e+003;8.357109e-003
3.907238e+003;8.876652e-003
3.909167e+003;8.782309e-003
3.911095e+003;8.946459e-003
3.913024e+003;9.004741e-003
3.914952e+003;8.634615e-003
3.916881e+003;7.712330e-003
3.918810e+003;7.629300e-003
3.920738e+003;8.559620e-003
3.922667e+003;8.994491e-003
3.924595e+003;8.938815e-003
3.926524e+003;9.755428e-003
3.928452e+003;9.912251e-003
3.930381e+003;9.387067e-003
3.932309e+003;9.484453e-003
3.934238e+003;1.002155e-002
3.936167e+003;1.010776e-002
3.938095e+003;1.017037e-002
3.940023e+003;1.029870e-002
3.941952e+003;9.873133e-003
3.943881e+003;9.695995e-003
3.945809e+003;9.543316e-003
3.947738e+003;9.310113e-003
3.949666e+003;9.269764e-003
3.951595e+003;9.273183e-003
3.953523e+003;9.561606e-003
3.955452e+003;9.961441e-003
3.957380e+003;1.020364e-002
3.959309e+003;9.858456e-003
3.961238e+003;9.796196e-003
3.963166e+003;9.463795e-003
3.965095e+003;9.051832e-003
3.967023e+003;9.029842e-003
3.968952e+003;9.205016e-003
3.970880e+003;9.355376e-003
3.972809e+003;9.690912e-003
3.974737e+003;1.015090e-002
3.976666e+003;1.040060e-002
3.978594e+003;1.035347e-002
3.980523e+003;1.050575e-002
3.982452e+003;1.051329e-002
3.984380e+003;1.068590e-002
3.986309e+003;1.083783e-002
3.988237e+003;1.083980e-002
3.990166e+003;1.129223e-002
3.992094e+003;1.149390e-002
3.994023e+003;1.145709e-002
3.995951e+003;1.141474e-002
3.997880e+003;1.132777e-002
3.999809e+003;1.117961e-002
4.001737e+003;0.000000e+000
