3.992094e+002;0.000000e+000
4.011380e+002;0.000000e+000
4.030665e+002;0.000000e+000
4.049951e+002;0.000000e+000
4.069236e+002;0.000000e+000
4.088522e+002;0.000000e+000
4.107807e+002;0.000000e+000
4.127093e+002;0.000000e+000
4.146378e+002;0.000000e+000
4.165664e+002;0.000000e+000
4.184949e+002;0.000000e+000
4.204235e+002;0.000000e+000
4.223520e+002;0.000000e+000
4.242806e+002;0.000000e+000
4.262091e+002;0.000000e+000
4.281377e+002;0.000000e+000
4.300662e+002;0.000000e+000
4.319948e+002;0.000000e+000
4.339233e+002;0.000000e+000
4.358519e+002;0.000000e+000
4.377804e+002;0.000000e+000
4.397090e+002;0.000000e+000
4.416375e+002;0.000000e+000
4.435660e+002;0.000000e+000
4.454946e+002;0.000000e+000
4.474232e+002;0.000000e+000
4.493517e+002;0.000000e+000
4.512802e+002;0.000000e+000
4.532088e+002;0.000000e+000
4.551373e+002;0.000000e+000
4.570659e+002;0.000000e+000
4.589944e+002;0.000000e+000
4.609230e+002;0.000000e+000
4.628515e+002;0.000000e+000
4.647801e+002;0.000000e+000
4.667086e+002;0.000000e+000
4.686372e+002;0.000000e+000
4.705657e+002;0.000000e+000
4.724943e+002;0.000000e+000
4.744228e+002;0.000000e+000
4.763513e+002;0.000000e+000
4.782799e+002;0.000000e+000
4.802085e+002;0.000000e+000
4.821370e+002;0.000000e+000
4.840656e+002;0.000000e+000
4.859941e+002;0.000000e+000
4.879226e+002;0.000000e+000
4.898512e+002;0.000000e+000
4.917798e+002;0.000000e+000
4.937083e+002;0.000000e+000
4.956368e+002;0.000000e+000
4.975654e+002;0.000000e+000
4.994939e+002;0.000000e+000
5.014225e+002;0.000000e+000
5.033510e+002;0.000000e+000
5.052796e+002;0.000000e+000
5.072081e+002;0.000000e+000
5.091367e+002;0.000000e+000
5.110652e+002;0.000000e+000
5.129938e+002;0.000000e+000
5.149223e+002;0.000000e+000
5.168509e+002;0.000000e+000
5.187794e+002;0.000000e+000
5.207079e+002;0.000000e+000
5.226365e+002;0.000000e+000
5.245651e+002;0.000000e+000
5.264936e+002;0.000000e+000
5.284222e+002;0.000000e+000
5.303507e+002;0.000000e+000
5.322792e+002;0.000000e+000
5.342078e+002;0.000000e+000
5.361364e+002;0.000000e+000
5.380649e+002;0.000000e+000
5.399935e+002;0.000000e+000
5.419220e+002;0.000000e+000
5.438505e+002;0.000000e+000
5.457791e+002;0.000000e+000
5.477076e+002;0.000000e+000
5.496362e+002;0.000000e+000
5.515648e+002;0.000000e+000
5.534933e+002;0.000000e+000
5.554218e+002;0.000000e+000
5.573504e+002;0.000000e+000
5.592789e+002;0.000000e+000
5.612075e+002;0.000000e+000
5.631360e+002;0.000000e+000
5.650646e+002;0.000000e+000
5.669931e+002;0.000000e+000
5.689217e+002;0.000000e+000
5.708502e+002;0.000000e+000
5.727787e+002;0.000000e+000
5.747073e+002;0.000000e+000
5.766359e+002;0.000000e+000
5.785644e+002;0.000000e+000
5.804930e+002;0.000000e+000
5.824215e+002;0.000000e+000
5.843500e+002;0.000000e+000
5.862786e+002;0.000000e+000
5.882072e+002;0.000000e+000
5.901357e+002;0.000000e+000
5.920643e+002;0.000000e+000
5.939928e+002;0.000000e+000
5.959213e+002;0.000000e+000
5.978499e+002;0.000000e+000
5.997784e+002;4.215610e-002
6.017070e+002;4.894339e-002
6.036355e+002;5.318086e-002
6.055641e+002;5.228212e-002
6.074926e+002;5.416118e-002
6.094211e+002;5.763054e-002
6.113497e+002;5.763947e-002
6.132783e+002;5.804212e-002
6.152068e+002;6.187522e-002
6.171354e+002;5.991711e-002
6.190639e+002;5.634334e-002
6.209924e+002;5.475719e-002
6.229210e+002;5.581209e-002
6.248495e+002;5.583730e-002
6.267781e+002;5.485053e-002
6.287067e+002;5.581307e-002
6.306352e+002;5.454447e-002
6.325637e+002;5.228541e-002
6.344923e+002;5.468176e-002
6.364208e+002;5.314038e-002
6.383494e+002;5.232129e-002
6.402780e+002;5.599329e-002
6.422065e+002;5.960388e-002
6.441350e+002;5.805212e-002
6.460636e+002;5.569746e-002
6.479921e+002;5.401669e-002
6.499207e+002;5.337171e-002
6.518492e+002;5.165244e-002
6.537778e+002;5.245220e-002
6.557063e+002;5.344957e-002
6.576349e+002;5.318576e-002
6.595634e+002;5.539196e-002
6.614919e+002;5.754614e-002
6.634205e+002;5.857474e-002
6.653491e+002;6.009652e-002
6.672776e+002;5.935626e-002
6.692062e+002;5.646932e-002
6.711347e+002;5.400840e-002
6.730632e+002;5.331454e-002
6.749918e+002;5.278624e-002
6.769203e+002;5.226732e-002
6.788489e+002;5.376311e-002
6.807775e+002;5.574311e-002
6.827060e+002;5.610699e-002
6.846345e+002;5.487918e-002
6.865631e+002;5.463163e-002
6.884916e+002;5.477636e-002
6.904202e+002;5.262339e-002
6.923488e+002;5.203740e-002
6.942773e+002;5.254886e-002
6.962058e+002;5.361141e-002
6.981344e+002;5.503565e-002
7.000629e+002;5.509146e-002
7.019915e+002;5.356028e-002
7.039200e+002;5.289323e-002
7.058486e+002;5.233015e-002
7.077771e+002;5.255327e-002
7.097057e+002;5.330454e-002
7.116342e+002;5.422097e-002
7.135627e+002;5.451374e-002
7.154913e+002;5.373510e-002
7.174199e+002;5.430076e-002
7.193484e+002;5.477053e-002
7.212770e+002;5.461626e-002
7.232055e+002;5.426925e-002
7.251340e+002;5.302843e-002
7.270626e+002;5.229479e-002
7.289911e+002;5.166061e-002
7.309197e+002;5.181540e-002
7.328483e+002;5.128631e-002
7.347768e+002;5.027755e-002
7.367053e+002;4.884256e-002
7.386339e+002;4.747394e-002
7.405624e+002;4.865999e-002
7.424910e+002;4.941709e-002
7.444196e+002;4.843337e-002
7.463481e+002;4.812699e-002
7.482766e+002;4.859317e-002
7.502052e+002;4.857731e-002
7.521337e+002;4.829215e-002
7.540623e+002;4.824579e-002
7.559908e+002;4.817478e-002
7.579194e+002;4.799227e-002
7.598479e+002;4.756995e-002
7.617765e+002;4.721123e-002
7.637050e+002;4.709422e-002
7.656335e+002;4.734331e-002
7.675621e+002;4.791360e-002
7.694907e+002;4.807224e-002
7.714192e+002;4.758987e-002
7.733478e+002;4.757420e-002
7.752763e+002;4.802554e-002
7.772048e+002;4.778298e-002
7.791334e+002;4.702329e-002
7.810620e+002;4.741655e-002
7.829905e+002;4.794324e-002
7.849191e+002;4.833622e-002
7.868476e+002;4.980803e-002
7.887761e+002;5.092213e-002
7.907047e+002;5.192775e-002
7.926332e+002;5.323311e-002
7.945618e+002;5.493494e-002
7.964903e+002;5.713985e-002
7.984189e+002;5.765990e-002
8.003474e+002;5.852605e-002
8.022759e+002;6.063685e-002
8.042045e+002;6.363645e-002
8.061331e+002;6.641728e-002
8.080616e+002;6.772335e-002
8.099902e+002;6.807140e-002
8.119187e+002;6.696344e-002
8.138472e+002;6.342071e-002
8.157758e+002;5.945712e-002
8.177043e+002;5.696514e-002
8.196329e+002;5.599514e-002
8.215615e+002;5.458970e-002
8.234900e+002;5.358570e-002
8.254185e+002;5.353097e-002
8.273471e+002;5.329577e-002
8.292756e+002;5.250234e-002
8.312042e+002;5.291044e-002
8.331328e+002;5.467162e-002
8.350613e+002;5.680933e-002
8.369898e+002;6.010775e-002
8.389184e+002;6.654155e-002
8.408469e+002;7.213202e-002
8.427755e+002;7.005779e-002
8.447040e+002;6.322490e-002
8.466326e+002;5.736044e-002
8.485611e+002;5.318146e-002
8.504897e+002;5.098692e-002
8.524182e+002;5.035616e-002
8.543467e+002;4.948482e-002
8.562753e+002;4.864709e-002
8.582039e+002;4.773693e-002
8.601324e+002;4.691493e-002
8.620610e+002;4.711723e-002
8.639895e+002;4.736137e-002
8.659180e+002;4.717799e-002
8.678466e+002;4.707631e-002
8.697751e+002;4.752740e-002
8.717037e+002;4.841326e-002
8.736323e+002;4.857820e-002
8.755608e+002;4.812292e-002
8.774893e+002;4.767428e-002
8.794179e+002;4.750873e-002
8.813464e+002;4.688178e-002
8.832750e+002;4.589502e-002
8.852036e+002;4.589527e-002
8.871321e+002;4.667841e-002
8.890606e+002;4.730665e-002
8.909892e+002;4.852144e-002
8.929177e+002;5.108083e-002
8.948463e+002;5.506307e-002
8.967748e+002;5.976328e-002
8.987034e+002;6.288715e-002
9.006319e+002;6.246589e-002
9.025605e+002;5.822789e-002
9.044890e+002;5.288409e-002
9.064175e+002;4.857453e-002
9.083461e+002;4.594706e-002
9.102747e+002;4.428894e-002
9.122032e+002;4.311995e-002
9.141318e+002;4.261771e-002
9.160603e+002;4.245666e-002
9.179888e+002;4.239284e-002
9.199174e+002;4.234666e-002
9.218459e+002;4.229918e-002
9.237745e+002;4.205691e-002
9.257031e+002;4.192016e-002
9.276316e+002;4.214946e-002
9.295601e+002;4.262498e-002
9.314887e+002;4.331192e-002
9.334172e+002;4.422880e-002
9.353458e+002;4.546601e-002
9.372744e+002;4.681236e-002
9.392029e+002;4.829064e-002
9.411314e+002;4.941620e-002
9.430600e+002;4.955846e-002
9.449885e+002;4.899075e-002
9.469171e+002;4.862449e-002
9.488456e+002;4.876704e-002
9.507742e+002;4.940236e-002
9.527027e+002;5.021432e-002
9.546313e+002;5.125916e-002
9.565598e+002;5.196924e-002
9.584883e+002;5.288462e-002
9.604169e+002;5.481579e-002
9.623455e+002;5.729782e-002
9.642740e+002;6.011924e-002
9.662026e+002;6.424163e-002
9.681311e+002;7.050417e-002
9.700596e+002;7.842076e-002
9.719882e+002;8.539033e-002
9.739167e+002;8.739403e-002
9.758453e+002;8.330008e-002
9.777739e+002;7.625892e-002
9.797024e+002;6.907989e-002
9.816309e+002;6.351152e-002
9.835595e+002;5.977937e-002
9.854880e+002;5.820258e-002
9.874166e+002;5.874237e-002
9.893452e+002;6.041681e-002
9.912737e+002;6.388838e-002
9.932022e+002;6.984585e-002
9.951307e+002;7.724661e-002
9.970593e+002;8.285961e-002
9.989879e+002;8.327885e-002
1.000916e+003;7.898121e-002
1.002845e+003;7.305382e-002
1.004773e+003;6.841705e-002
1.006702e+003;6.562698e-002
1.008631e+003;6.445097e-002
1.010559e+003;6.419676e-002
1.012488e+003;6.345063e-002
1.014416e+003;6.236896e-002
1.016345e+003;6.176917e-002
1.018273e+003;6.156356e-002
1.020202e+003;6.183121e-002
1.022130e+003;6.218157e-002
1.024059e+003;6.250753e-002
1.025988e+003;6.300791e-002
1.027916e+003;6.366719e-002
1.029845e+003;6.481875e-002
1.031773e+003;6.650644e-002
1.033702e+003;6.828508e-002
1.035630e+003;6.975441e-002
1.037559e+003;7.071199e-002
1.039487e+003;7.146333e-002
1.041416e+003;7.202218e-002
1.043344e+003;7.219798e-002
1.045273e+003;7.176460e-002
1.047202e+003;7.062871e-002
1.049130e+003;6.958181e-002
1.051059e+003;6.905597e-002
1.052987e+003;6.920029e-002
1.054916e+003;6.959487e-002
1.056844e+003;6.966419e-002
1.058773e+003;6.942211e-002
1.060701e+003;6.867320e-002
1.062630e+003;6.796820e-002
1.064558e+003;6.741536e-002
1.066487e+003;6.729243e-002
1.068416e+003;6.726063e-002
1.070344e+003;6.665692e-002
1.072273e+003;6.631818e-002
1.074201e+003;6.646509e-002
1.076130e+003;6.665336e-002
1.078058e+003;6.685270e-002
1.079987e+003;6.775855e-002
1.081915e+003;6.829675e-002
1.083844e+003;6.798541e-002
1.085773e+003;6.813364e-002
1.087701e+003;6.836128e-002
1.089630e+003;6.894279e-002
1.091558e+003;6.929562e-002
1.093487e+003;7.042225e-002
1.095415e+003;7.229174e-002
1.097344e+003;7.361240e-002
1.099272e+003;7.450384e-002
1.101201e+003;7.559644e-002
1.103129e+003;7.662298e-002
1.105058e+003;7.581086e-002
1.106987e+003;7.359065e-002
1.108915e+003;7.191327e-002
1.110844e+003;7.039416e-002
1.112772e+003;6.861724e-002
1.114701e+003;6.716904e-002
1.116629e+003;6.652969e-002
1.118558e+003;6.591623e-002
1.120486e+003;6.493609e-002
1.122415e+003;6.408349e-002
1.124344e+003;6.367021e-002
1.126272e+003;6.330425e-002
1.128201e+003;6.276622e-002
1.130129e+003;6.291664e-002
1.132058e+003;6.405508e-002
1.133986e+003;6.497284e-002
1.135915e+003;6.580040e-002
1.137843e+003;6.719882e-002
1.139772e+003;6.943930e-002
1.141700e+003;7.214614e-002
1.143629e+003;7.494772e-002
1.145557e+003;7.733731e-002
1.147486e+003;7.962575e-002
1.149415e+003;8.228185e-002
1.151343e+003;8.488443e-002
1.153272e+003;8.642878e-002
1.155200e+003;8.711781e-002
1.157129e+003;8.753397e-002
1.159057e+003;8.797206e-002
1.160986e+003;8.861966e-002
1.162914e+003;8.939508e-002
1.164843e+003;9.013809e-002
1.166771e+003;9.043615e-002
1.168700e+003;8.944227e-002
1.170629e+003;8.588562e-002
1.172557e+003;8.122533e-002
1.174486e+003;7.653010e-002
1.176414e+003;7.229996e-002
1.178343e+003;6.898224e-002
1.180271e+003;6.692313e-002
1.182200e+003;6.546352e-002
1.184128e+003;6.422119e-002
1.186057e+003;6.347421e-002
1.187986e+003;6.305905e-002
1.189914e+003;6.254517e-002
1.191843e+003;6.196173e-002
1.193771e+003;6.178250e-002
1.195700e+003;6.153638e-002
1.197628e+003;6.127517e-002
1.199557e+003;6.089790e-002
1.201485e+003;6.046201e-002
1.203414e+003;6.000799e-002
1.205343e+003;5.985462e-002
1.207271e+003;6.052912e-002
1.209200e+003;6.124648e-002
1.211128e+003;6.182384e-002
1.213057e+003;6.301867e-002
1.214985e+003;6.452104e-002
1.216914e+003;6.474444e-002
1.218842e+003;6.388269e-002
1.220771e+003;6.291958e-002
1.222699e+003;6.230493e-002
1.224628e+003;6.191485e-002
1.226557e+003;6.146953e-002
1.228485e+003;6.125872e-002
1.230414e+003;6.162950e-002
1.232342e+003;6.146411e-002
1.234271e+003;6.144636e-002
1.236199e+003;6.202850e-002
1.238128e+003;6.195795e-002
1.240056e+003;6.172697e-002
1.241985e+003;6.171359e-002
1.243913e+003;6.202984e-002
1.245842e+003;6.263527e-002
1.247771e+003;6.313101e-002
1.249699e+003;6.403285e-002
1.251628e+003;6.628101e-002
1.253556e+003;6.912573e-002
1.255485e+003;7.106471e-002
1.257413e+003;7.143994e-002
1.259342e+003;6.985511e-002
1.261270e+003;6.736877e-002
1.263199e+003;6.502926e-002
1.265127e+003;6.348383e-002
1.267056e+003;6.234310e-002
1.268985e+003;6.113245e-002
1.270913e+003;6.009542e-002
1.272842e+003;5.983279e-002
1.274770e+003;5.976199e-002
1.276699e+003;5.952024e-002
1.278627e+003;5.930490e-002
1.280556e+003;5.907612e-002
1.282484e+003;5.911226e-002
1.284413e+003;5.943266e-002
1.286342e+003;5.992015e-002
1.288270e+003;6.080836e-002
1.290199e+003;6.158341e-002
1.292127e+003;6.231873e-002
1.294056e+003;6.325165e-002
1.295984e+003;6.365360e-002
1.297913e+003;6.353281e-002
1.299841e+003;6.341662e-002
1.301770e+003;6.404532e-002
1.303698e+003;6.492320e-002
1.305627e+003;6.409651e-002
1.307556e+003;6.172505e-002
1.309484e+003;5.945374e-002
1.311413e+003;5.823433e-002
1.313341e+003;5.827120e-002
1.315270e+003;5.910398e-002
1.317198e+003;5.974134e-002
1.319127e+003;6.064942e-002
1.321055e+003;6.214100e-002
1.322984e+003;6.355543e-002
1.324912e+003;6.482360e-002
1.326841e+003;6.608896e-002
1.328770e+003;6.696163e-002
1.330698e+003;6.725108e-002
1.332627e+003;6.670873e-002
1.334555e+003;6.556559e-002
1.336484e+003;6.458709e-002
1.338412e+003;6.415919e-002
1.340341e+003;6.470410e-002
1.342269e+003;6.617866e-002
1.344198e+003;6.782726e-002
1.346126e+003;6.971391e-002
1.348055e+003;7.192790e-002
1.349984e+003;7.527986e-002
1.351912e+003;7.965341e-002
1.353841e+003;8.493923e-002
1.355769e+003;9.095921e-002
1.357698e+003;9.583437e-002
1.359626e+003;9.708628e-002
1.361555e+003;9.575472e-002
1.363483e+003;9.522284e-002
1.365412e+003;9.715930e-002
1.367341e+003;1.035085e-001
1.369269e+003;1.170040e-001
1.371198e+003;1.372222e-001
1.373126e+003;1.601456e-001
1.375055e+003;1.779016e-001
1.376983e+003;1.774756e-001
1.378912e+003;1.568524e-001
1.380840e+003;1.304173e-001
1.382769e+003;1.080150e-001
1.384698e+003;9.186368e-002
1.386626e+003;8.094981e-002
1.388555e+003;7.457256e-002
1.390483e+003;7.110690e-002
1.392412e+003;6.829559e-002
1.394340e+003;6.593470e-002
1.396269e+003;6.532525e-002
1.398197e+003;6.531396e-002
1.400126e+003;6.555017e-002
1.402054e+003;6.612426e-002
1.403983e+003;6.652509e-002
1.405911e+003;6.698274e-002
1.407840e+003;6.782308e-002
1.409769e+003;6.858682e-002
1.411697e+003;6.906082e-002
1.413626e+003;6.926154e-002
1.415554e+003;6.930355e-002
1.417483e+003;6.869509e-002
1.419411e+003;6.866917e-002
1.421340e+003;7.060657e-002
1.423268e+003;7.230461e-002
1.425197e+003;7.427976e-002
1.427125e+003;7.725655e-002
1.429054e+003;8.134323e-002
1.430983e+003;8.826234e-002
1.432911e+003;9.645975e-002
1.434840e+003;1.010648e-001
1.436768e+003;1.017950e-001
1.438697e+003;1.034609e-001
1.440625e+003;1.067265e-001
1.442554e+003;1.113686e-001
1.444482e+003;1.181276e-001
1.446411e+003;1.266104e-001
1.448340e+003;1.349276e-001
1.450268e+003;1.416311e-001
1.452197e+003;1.456188e-001
1.454125e+003;1.464523e-001
1.456054e+003;1.440924e-001
1.457982e+003;1.431467e-001
1.459911e+003;1.427688e-001
1.461839e+003;1.388735e-001
1.463768e+003;1.317893e-001
1.465697e+003;1.232455e-001
1.467625e+003;1.140968e-001
1.469554e+003;1.037778e-001
1.471482e+003;9.280491e-002
1.473411e+003;8.436622e-002
1.475339e+003;7.898490e-002
1.477268e+003;7.429694e-002
1.479196e+003;6.991462e-002
1.481125e+003;6.540693e-002
1.483053e+003;6.176669e-002
1.484982e+003;5.877837e-002
1.486911e+003;5.588738e-002
1.488839e+003;5.321768e-002
1.490768e+003;5.205633e-002
1.492696e+003;5.195643e-002
1.494625e+003;5.053007e-002
1.496553e+003;4.873557e-002
1.498482e+003;4.883188e-002
1.500410e+003;4.945738e-002
1.502339e+003;4.933193e-002
1.504267e+003;4.687208e-002
1.506196e+003;4.403580e-002
1.508125e+003;4.557695e-002
1.510053e+003;4.809926e-002
1.511982e+003;4.867167e-002
1.513910e+003;4.912764e-002
1.515839e+003;4.898200e-002
1.517767e+003;4.878691e-002
1.519696e+003;4.781161e-002
1.521624e+003;4.713747e-002
1.523553e+003;4.885139e-002
1.525481e+003;5.007203e-002
1.527410e+003;5.124052e-002
1.529339e+003;5.259213e-002
1.531267e+003;5.335946e-002
1.533196e+003;5.349979e-002
1.535124e+003;5.536783e-002
1.537053e+003;5.592175e-002
1.538981e+003;5.405789e-002
1.540910e+003;5.488357e-002
1.542838e+003;5.766955e-002
1.544767e+003;5.954228e-002
1.546695e+003;6.052272e-002
1.548624e+003;6.025382e-002
1.550553e+003;5.987931e-002
1.552481e+003;5.889227e-002
1.554410e+003;5.712625e-002
1.556338e+003;5.461728e-002
1.558267e+003;5.048075e-002
1.560195e+003;5.060996e-002
1.562124e+003;5.330476e-002
1.564052e+003;5.354503e-002
1.565981e+003;5.310788e-002
1.567910e+003;5.212268e-002
1.569838e+003;5.138543e-002
1.571767e+003;5.223661e-002
1.573695e+003;5.171752e-002
1.575624e+003;4.957001e-002
1.577552e+003;5.041451e-002
1.579481e+003;5.212466e-002
1.581409e+003;5.211864e-002
1.583338e+003;5.150498e-002
1.585266e+003;5.069403e-002
1.587195e+003;5.032912e-002
1.589124e+003;5.019386e-002
1.591052e+003;5.031937e-002
1.592981e+003;5.026431e-002
1.594909e+003;4.986998e-002
1.596838e+003;4.983081e-002
1.598766e+003;5.045426e-002
1.600695e+003;5.089187e-002
1.602623e+003;5.132639e-002
1.604552e+003;5.186311e-002
1.606480e+003;5.224355e-002
1.608409e+003;5.282092e-002
1.610338e+003;5.382526e-002
1.612266e+003;5.473520e-002
1.614195e+003;5.460935e-002
1.616123e+003;5.381112e-002
1.618052e+003;5.577366e-002
1.619980e+003;5.790846e-002
1.621909e+003;5.814363e-002
1.623837e+003;5.870581e-002
1.625766e+003;6.015574e-002
1.627694e+003;6.138961e-002
1.629623e+003;6.236241e-002
1.631552e+003;6.330209e-002
1.633480e+003;6.256209e-002
1.635409e+003;6.126300e-002
1.637337e+003;6.334978e-002
1.639266e+003;6.564813e-002
1.641194e+003;6.682055e-002
1.643123e+003;6.763975e-002
1.645051e+003;6.732652e-002
1.646980e+003;6.767545e-002
1.648909e+003;6.917489e-002
1.650837e+003;6.708369e-002
1.652766e+003;6.363481e-002
1.654694e+003;6.653494e-002
1.656623e+003;6.961463e-002
1.658551e+003;6.959009e-002
1.660480e+003;6.852540e-002
1.662408e+003;6.696202e-002
1.664337e+003;6.667345e-002
1.666266e+003;6.603032e-002
1.668194e+003;6.396596e-002
1.670123e+003;6.294429e-002
1.672051e+003;6.299520e-002
1.673980e+003;6.140835e-002
1.675908e+003;6.036654e-002
1.677837e+003;6.058477e-002
1.679765e+003;5.968911e-002
1.681694e+003;5.749522e-002
1.683622e+003;5.389664e-002
1.685551e+003;5.396131e-002
1.687479e+003;5.582969e-002
1.689408e+003;5.596630e-002
1.691337e+003;5.569407e-002
1.693265e+003;5.419932e-002
1.695194e+003;5.119112e-002
1.697122e+003;5.066770e-002
1.699051e+003;4.979525e-002
1.700979e+003;4.979023e-002
1.702908e+003;5.222737e-002
1.704836e+003;5.265066e-002
1.706765e+003;5.317210e-002
1.708693e+003;5.364324e-002
1.710622e+003;5.354957e-002
1.712551e+003;5.295240e-002
1.714479e+003;5.183866e-002
1.716408e+003;4.976868e-002
1.718336e+003;4.977463e-002
1.720265e+003;5.189134e-002
1.722193e+003;5.257590e-002
1.724122e+003;5.248245e-002
1.726050e+003;5.260933e-002
1.727979e+003;5.264733e-002
1.729908e+003;5.283930e-002
1.731836e+003;5.182454e-002
1.733765e+003;5.061323e-002
1.735693e+003;5.309413e-002
1.737622e+003;5.509714e-002
1.739550e+003;5.478741e-002
1.741479e+003;5.444766e-002
1.743407e+003;5.357783e-002
1.745336e+003;5.178348e-002
1.747265e+003;4.888339e-002
1.749193e+003;4.534929e-002
1.751122e+003;4.196406e-002
1.753050e+003;3.987429e-002
1.754979e+003;3.712590e-002
1.756907e+003;3.399727e-002
1.758836e+003;3.159280e-002
1.760764e+003;2.876855e-002
1.762693e+003;2.706535e-002
1.764621e+003;2.657094e-002
1.766550e+003;2.508462e-002
1.768479e+003;2.363195e-002
1.770407e+003;2.218370e-002
1.772336e+003;2.074812e-002
1.774264e+003;2.122286e-002
1.776193e+003;2.189921e-002
1.778121e+003;2.168534e-002
1.780050e+003;2.104715e-002
1.781978e+003;2.047447e-002
1.783907e+003;1.952790e-002
1.785835e+003;1.870335e-002
1.787764e+003;1.825505e-002
1.789693e+003;1.710695e-002
1.791621e+003;1.553312e-002
1.793550e+003;1.524177e-002
1.795478e+003;1.570843e-002
1.797407e+003;1.547705e-002
1.799335e+003;1.497795e-002
1.801264e+003;1.449532e-002
1.803192e+003;1.427342e-002
1.805121e+003;1.397203e-002
1.807049e+003;1.353051e-002
1.808978e+003;1.311801e-002
1.810907e+003;1.310514e-002
1.812835e+003;1.312840e-002
1.814764e+003;1.290535e-002
1.816692e+003;1.285538e-002
1.818621e+003;1.318424e-002
1.820549e+003;1.312864e-002
1.822478e+003;1.249829e-002
1.824406e+003;1.195665e-002
1.826335e+003;1.220931e-002
1.828264e+003;1.203680e-002
1.830192e+003;1.173022e-002
1.832121e+003;1.211284e-002
1.834049e+003;1.235372e-002
1.835978e+003;1.254696e-002
1.837906e+003;1.252605e-002
1.839835e+003;1.232679e-002
1.841763e+003;1.171780e-002
1.843692e+003;1.062118e-002
1.845620e+003;1.102991e-002
1.847549e+003;1.189212e-002
1.849478e+003;1.192692e-002
1.851406e+003;1.179535e-002
1.853335e+003;1.202938e-002
1.855263e+003;1.208542e-002
1.857192e+003;1.179296e-002
1.859120e+003;1.176324e-002
1.861049e+003;1.169424e-002
1.862977e+003;1.143777e-002
1.864906e+003;1.120967e-002
1.866834e+003;1.075916e-002
1.868763e+003;1.054907e-002
1.870692e+003;1.124551e-002
1.872620e+003;1.149819e-002
1.874549e+003;1.122096e-002
1.876477e+003;1.116353e-002
1.878406e+003;1.116768e-002
1.880334e+003;1.100323e-002
1.882263e+003;1.102196e-002
1.884191e+003;1.132440e-002
1.886120e+003;1.144301e-002
1.888048e+003;1.120811e-002
1.889977e+003;1.111400e-002
1.891906e+003;1.143022e-002
1.893834e+003;1.150180e-002
1.895763e+003;1.166851e-002
1.897691e+003;1.171133e-002
1.899620e+003;1.137583e-002
1.901548e+003;1.129652e-002
1.903477e+003;1.148472e-002
1.905405e+003;1.122545e-002
1.907334e+003;1.094883e-002
1.909262e+003;1.106125e-002
1.911191e+003;1.106886e-002
1.913120e+003;1.102985e-002
1.915048e+003;1.105948e-002
1.916977e+003;1.062665e-002
1.918905e+003;1.038078e-002
1.920834e+003;1.057687e-002
1.922762e+003;1.063605e-002
1.924691e+003;1.087805e-002
1.926619e+003;1.101516e-002
1.928548e+003;1.081296e-002
1.930477e+003;1.054510e-002
1.932405e+003;1.026267e-002
1.934334e+003;1.020293e-002
1.936262e+003;1.018529e-002
1.938191e+003;1.005214e-002
1.940119e+003;9.951033e-003
1.942048e+003;9.960627e-003
1.943976e+003;1.003129e-002
1.945905e+003;1.010372e-002
1.947833e+003;1.012994e-002
1.949762e+003;1.011905e-002
1.951691e+003;1.007238e-002
1.953619e+003;9.910047e-003
1.955548e+003;9.968052e-003
1.957476e+003;1.008473e-002
1.959405e+003;1.014466e-002
1.961333e+003;9.995990e-003
1.963262e+003;9.840628e-003
1.965190e+003;9.948151e-003
1.967119e+003;1.001996e-002
1.969047e+003;9.822936e-003
1.970976e+003;9.749193e-003
1.972905e+003;9.857100e-003
1.974833e+003;9.914115e-003
1.976762e+003;9.870184e-003
1.978690e+003;9.786774e-003
1.980619e+003;9.692336e-003
1.982547e+003;9.662013e-003
1.984476e+003;9.885742e-003
1.986404e+003;9.988530e-003
1.988333e+003;1.002217e-002
1.990261e+003;9.842051e-003
1.992190e+003;9.485333e-003
1.994119e+003;9.849779e-003
1.996047e+003;1.022491e-002
1.997976e+003;1.010192e-002
1.999904e+003;1.005458e-002
2.001833e+003;9.973781e-003
2.003761e+003;9.932353e-003
2.005690e+003;9.823918e-003
2.007618e+003;9.946591e-003
2.009547e+003;1.011457e-002
2.011476e+003;1.009433e-002
2.013404e+003;9.992090e-003
2.015333e+003;9.983071e-003
2.017261e+003;1.013635e-002
2.019190e+003;1.009090e-002
2.021118e+003;1.023241e-002
2.023047e+003;1.062285e-002
2.024975e+003;1.031282e-002
2.026904e+003;1.001142e-002
2.028833e+003;1.009066e-002
2.030761e+003;1.023516e-002
2.032690e+003;1.044537e-002
2.034618e+003;1.048729e-002
2.036547e+003;1.029521e-002
2.038475e+003;1.036711e-002
2.040404e+003;1.066611e-002
2.042332e+003;1.056767e-002
2.044261e+003;1.035618e-002
2.046189e+003;1.054730e-002
2.048118e+003;1.090863e-002
2.050047e+003;1.082852e-002
2.051975e+003;1.065785e-002
2.053904e+003;1.044024e-002
2.055832e+003;1.015602e-002
2.057761e+003;1.017752e-002
2.059689e+003;1.022084e-002
2.061618e+003;1.020876e-002
2.063546e+003;1.023692e-002
2.065475e+003;1.045636e-002
2.067404e+003;1.048450e-002
2.069332e+003;1.041509e-002
2.071260e+003;1.048304e-002
2.073189e+003;1.080352e-002
2.075118e+003;1.083297e-002
2.077046e+003;1.042640e-002
2.078975e+003;1.054000e-002
2.080903e+003;1.111339e-002
2.082832e+003;1.156968e-002
2.084760e+003;1.179092e-002
2.086689e+003;1.174483e-002
2.088617e+003;1.156424e-002
2.090546e+003;1.139923e-002
2.092475e+003;1.145270e-002
2.094403e+003;1.144798e-002
2.096332e+003;1.127152e-002
2.098260e+003;1.137545e-002
2.100189e+003;1.136314e-002
2.102117e+003;1.111547e-002
2.104046e+003;1.138579e-002
2.105974e+003;1.168818e-002
2.107903e+003;1.165554e-002
2.109832e+003;1.142484e-002
2.111760e+003;1.131264e-002
2.113688e+003;1.140222e-002
2.115617e+003;1.177724e-002
2.117546e+003;1.195093e-002
2.119474e+003;1.188861e-002
2.121403e+003;1.200737e-002
2.123331e+003;1.223664e-002
2.125260e+003;1.242876e-002
2.127188e+003;1.277603e-002
2.129117e+003;1.337094e-002
2.131045e+003;1.373189e-002
2.132974e+003;1.373520e-002
2.134903e+003;1.355221e-002
2.136831e+003;1.324555e-002
2.138760e+003;1.302271e-002
2.140688e+003;1.294313e-002
2.142617e+003;1.299045e-002
2.144545e+003;1.309927e-002
2.146474e+003;1.324497e-002
2.148402e+003;1.311064e-002
2.150331e+003;1.298847e-002
2.152260e+003;1.325556e-002
2.154188e+003;1.345927e-002
2.156117e+003;1.343142e-002
2.158045e+003;1.365266e-002
2.159974e+003;1.395047e-002
2.161902e+003;1.418498e-002
2.163831e+003;1.436458e-002
2.165759e+003;1.437666e-002
2.167688e+003;1.459177e-002
2.169616e+003;1.488508e-002
2.171545e+003;1.528055e-002
2.173474e+003;1.564138e-002
2.175402e+003;1.545236e-002
2.177331e+003;1.505776e-002
2.179259e+003;1.469749e-002
2.181188e+003;1.464841e-002
2.183116e+003;1.462107e-002
2.185045e+003;1.479207e-002
2.186973e+003;1.484404e-002
2.188902e+003;1.469482e-002
2.190831e+003;1.469921e-002
2.192759e+003;1.497294e-002
2.194688e+003;1.519932e-002
2.196616e+003;1.512027e-002
2.198545e+003;1.466390e-002
2.200473e+003;1.445356e-002
2.202402e+003;1.454788e-002
2.204330e+003;1.452382e-002
2.206259e+003;1.431481e-002
2.208188e+003;1.417074e-002
2.210116e+003;1.423928e-002
2.212044e+003;1.438889e-002
2.213973e+003;1.446370e-002
2.215902e+003;1.441201e-002
2.217830e+003;1.443962e-002
2.219759e+003;1.447131e-002
2.221687e+003;1.442924e-002
2.223616e+003;1.436077e-002
2.225544e+003;1.453544e-002
2.227473e+003;1.497483e-002
2.229401e+003;1.531741e-002
2.231330e+003;1.531570e-002
2.233259e+003;1.519122e-002
2.235187e+003;1.491701e-002
2.237116e+003;1.484689e-002
2.239044e+003;1.500439e-002
2.240973e+003;1.492291e-002
2.242901e+003;1.470154e-002
2.244830e+003;1.450800e-002
2.246758e+003;1.467487e-002
2.248687e+003;1.512747e-002
2.250615e+003;1.557320e-002
2.252544e+003;1.569534e-002
2.254473e+003;1.582195e-002
2.256401e+003;1.603252e-002
2.258330e+003;1.596482e-002
2.260258e+003;1.576526e-002
2.262187e+003;1.554136e-002
2.264115e+003;1.562887e-002
2.266044e+003;1.581274e-002
2.267972e+003;1.558264e-002
2.269901e+003;1.550479e-002
2.271830e+003;1.545507e-002
2.273758e+003;1.513180e-002
2.275687e+003;1.504247e-002
2.277615e+003;1.491852e-002
2.279544e+003;1.480609e-002
2.281472e+003;1.477955e-002
2.283401e+003;1.477637e-002
2.285329e+003;1.470562e-002
2.287258e+003;1.437896e-002
2.289187e+003;1.411693e-002
2.291115e+003;1.438701e-002
2.293043e+003;1.474195e-002
2.294972e+003;1.478716e-002
2.296901e+003;1.486599e-002
2.298829e+003;1.500765e-002
2.300758e+003;1.506953e-002
2.302686e+003;1.502659e-002
2.304615e+003;1.490353e-002
2.306543e+003;1.497322e-002
2.308472e+003;1.516909e-002
2.310400e+003;1.525550e-002
2.312329e+003;1.518546e-002
2.314258e+003;1.518992e-002
2.316186e+003;1.516734e-002
2.318115e+003;1.503938e-002
2.320043e+003;1.507975e-002
2.321972e+003;1.524685e-002
2.323900e+003;1.545662e-002
2.325829e+003;1.591619e-002
2.327757e+003;1.641155e-002
2.329686e+003;1.658535e-002
2.331615e+003;1.659448e-002
2.333543e+003;1.664405e-002
2.335472e+003;1.677948e-002
2.337400e+003;1.675523e-002
2.339329e+003;1.676591e-002
2.341257e+003;1.703530e-002
2.343186e+003;1.738755e-002
2.345114e+003;1.750931e-002
2.347043e+003;1.745391e-002
2.348971e+003;1.755795e-002
2.350900e+003;1.769570e-002
2.352829e+003;1.803861e-002
2.354757e+003;1.834885e-002
2.356686e+003;1.836662e-002
2.358614e+003;1.815343e-002
2.360543e+003;1.779552e-002
2.362471e+003;1.786719e-002
2.364400e+003;1.835625e-002
2.366328e+003;1.868512e-002
2.368257e+003;1.836109e-002
2.370186e+003;1.807032e-002
2.372114e+003;1.810721e-002
2.374042e+003;1.826159e-002
2.375971e+003;1.846151e-002
2.377900e+003;1.859851e-002
2.379828e+003;1.856974e-002
2.381757e+003;1.846120e-002
2.383685e+003;1.862147e-002
2.385614e+003;1.871403e-002
2.387542e+003;1.851095e-002
2.389471e+003;1.840333e-002
2.391399e+003;1.877509e-002
2.393328e+003;1.912402e-002
2.395257e+003;1.932971e-002
2.397185e+003;1.949897e-002
2.399114e+003;1.964818e-002
2.401042e+003;1.977980e-002
2.402971e+003;1.955823e-002
2.404899e+003;1.916647e-002
2.406828e+003;1.899146e-002
2.408756e+003;1.896020e-002
2.410685e+003;1.913385e-002
2.412614e+003;1.937079e-002
2.414542e+003;1.944848e-002
2.416471e+003;1.953626e-002
2.418399e+003;1.964999e-002
2.420328e+003;1.958891e-002
2.422256e+003;1.948760e-002
2.424185e+003;1.973441e-002
2.426113e+003;2.029126e-002
2.428042e+003;2.051077e-002
2.429970e+003;2.012960e-002
2.431899e+003;1.987247e-002
2.433828e+003;1.986560e-002
2.435756e+003;1.992388e-002
2.437685e+003;1.970144e-002
2.439613e+003;1.934322e-002
2.441542e+003;1.918236e-002
2.443470e+003;1.900994e-002
2.445399e+003;1.906568e-002
2.447327e+003;1.914233e-002
2.449256e+003;1.895276e-002
2.451185e+003;1.892521e-002
2.453113e+003;1.882571e-002
2.455042e+003;1.848312e-002
2.456970e+003;1.841971e-002
2.458899e+003;1.859055e-002
2.460827e+003;1.878516e-002
2.462756e+003;1.858485e-002
2.464684e+003;1.835936e-002
2.466613e+003;1.867522e-002
2.468542e+003;1.897830e-002
2.470470e+003;1.878264e-002
2.472398e+003;1.876655e-002
2.474327e+003;1.901025e-002
2.476256e+003;1.901049e-002
2.478184e+003;1.937481e-002
2.480113e+003;1.972588e-002
2.482041e+003;1.983200e-002
2.483970e+003;1.986245e-002
2.485898e+003;1.994691e-002
2.487827e+003;2.012436e-002
2.489755e+003;2.014168e-002
2.491684e+003;2.000398e-002
2.493613e+003;2.015289e-002
2.495541e+003;2.010021e-002
2.497470e+003;1.980709e-002
2.499398e+003;1.996794e-002
2.501327e+003;2.002810e-002
2.503255e+003;1.984167e-002
2.505184e+003;1.990737e-002
2.507112e+003;2.016080e-002
2.509041e+003;2.041946e-002
2.510969e+003;2.071034e-002
2.512898e+003;2.084708e-002
2.514827e+003;2.088216e-002
2.516755e+003;2.125111e-002
2.518684e+003;2.159280e-002
2.520612e+003;2.181451e-002
2.522541e+003;2.206930e-002
2.524469e+003;2.248679e-002
2.526398e+003;2.262947e-002
2.528326e+003;2.245811e-002
2.530255e+003;2.258479e-002
2.532184e+003;2.318452e-002
2.534112e+003;2.376422e-002
2.536041e+003;2.370238e-002
2.537969e+003;2.366830e-002
2.539898e+003;2.399299e-002
2.541826e+003;2.416712e-002
2.543755e+003;2.416432e-002
2.545683e+003;2.436491e-002
2.547612e+003;2.482471e-002
2.549541e+003;2.554849e-002
2.551469e+003;2.616380e-002
2.553397e+003;2.638327e-002
2.555326e+003;2.674551e-002
2.557255e+003;2.701768e-002
2.559183e+003;2.714710e-002
2.561112e+003;2.733835e-002
2.563040e+003;2.753060e-002
2.564969e+003;2.781735e-002
2.566897e+003;2.850760e-002
2.568826e+003;2.904369e-002
2.570754e+003;2.961707e-002
2.572683e+003;3.060255e-002
2.574612e+003;3.154423e-002
2.576540e+003;3.196837e-002
2.578469e+003;3.247579e-002
2.580397e+003;3.277061e-002
2.582326e+003;3.261393e-002
2.584254e+003;3.240606e-002
2.586183e+003;3.185829e-002
2.588111e+003;3.110806e-002
2.590040e+003;3.071189e-002
2.591969e+003;3.027037e-002
2.593897e+003;2.991032e-002
2.595826e+003;2.998572e-002
2.597754e+003;2.962935e-002
2.599683e+003;2.963222e-002
2.601611e+003;3.004878e-002
2.603540e+003;3.035191e-002
2.605468e+003;3.066787e-002
2.607397e+003;3.109029e-002
2.609325e+003;3.160620e-002
2.611254e+003;3.197657e-002
2.613183e+003;3.245551e-002
2.615111e+003;3.277819e-002
2.617040e+003;3.276468e-002
2.618968e+003;3.243351e-002
2.620897e+003;3.251582e-002
2.622825e+003;3.268037e-002
2.624754e+003;3.218652e-002
2.626682e+003;3.165784e-002
2.628611e+003;3.162755e-002
2.630540e+003;3.155161e-002
2.632468e+003;3.147184e-002
2.634396e+003;3.159829e-002
2.636325e+003;3.196573e-002
2.638254e+003;3.199227e-002
2.640182e+003;3.196648e-002
2.642111e+003;3.229422e-002
2.644039e+003;3.287807e-002
2.645968e+003;3.337285e-002
2.647896e+003;3.364540e-002
2.649825e+003;3.394063e-002
2.651753e+003;3.453968e-002
2.653682e+003;3.502439e-002
2.655611e+003;3.501570e-002
2.657539e+003;3.502037e-002
2.659468e+003;3.543206e-002
2.661396e+003;3.594315e-002
2.663325e+003;3.616165e-002
2.665253e+003;3.633587e-002
2.667182e+003;3.618415e-002
2.669110e+003;3.603386e-002
2.671039e+003;3.604304e-002
2.672968e+003;3.607184e-002
2.674896e+003;3.651625e-002
2.676825e+003;3.689671e-002
2.678753e+003;3.686887e-002
2.680682e+003;3.684907e-002
2.682610e+003;3.646435e-002
2.684539e+003;3.655178e-002
2.686467e+003;3.706737e-002
2.688396e+003;3.716586e-002
2.690324e+003;3.711342e-002
2.692253e+003;3.731643e-002
2.694182e+003;3.714749e-002
2.696110e+003;3.689188e-002
2.698039e+003;3.714554e-002
2.699967e+003;3.759191e-002
2.701896e+003;3.813749e-002
2.703824e+003;3.918708e-002
2.705753e+003;4.004899e-002
2.707681e+003;4.058133e-002
2.709610e+003;4.145576e-002
2.711539e+003;4.238294e-002
2.713467e+003;4.335732e-002
2.715396e+003;4.492714e-002
2.717324e+003;4.653721e-002
2.719253e+003;4.807509e-002
2.721181e+003;4.936204e-002
2.723110e+003;4.983468e-002
2.725038e+003;4.935729e-002
2.726967e+003;4.842215e-002
2.728896e+003;4.733200e-002
2.730824e+003;4.607426e-002
2.732752e+003;4.516031e-002
2.734681e+003;4.423562e-002
2.736610e+003;4.341839e-002
2.738538e+003;4.289624e-002
2.740467e+003;4.174237e-002
2.742395e+003;4.050105e-002
2.744324e+003;3.987763e-002
2.746252e+003;3.953120e-002
2.748181e+003;3.926599e-002
2.750109e+003;3.909748e-002
2.752038e+003;3.919912e-002
2.753967e+003;3.943366e-002
2.755895e+003;3.985748e-002
2.757824e+003;4.025033e-002
2.759752e+003;4.064588e-002
2.761681e+003;4.107000e-002
2.763609e+003;4.119819e-002
2.765538e+003;4.153990e-002
2.767466e+003;4.212259e-002
2.769395e+003;4.235382e-002
2.771323e+003;4.270167e-002
2.773252e+003;4.342069e-002
2.775181e+003;4.398121e-002
2.777109e+003;4.461554e-002
2.779038e+003;4.568975e-002
2.780966e+003;4.662267e-002
2.782895e+003;4.782259e-002
2.784823e+003;4.938316e-002
2.786752e+003;5.089549e-002
2.788680e+003;5.266387e-002
2.790609e+003;5.450164e-002
2.792538e+003;5.582833e-002
2.794466e+003;5.680159e-002
2.796395e+003;5.766353e-002
2.798323e+003;5.877624e-002
2.800252e+003;5.984736e-002
2.802180e+003;6.128795e-002
2.804109e+003;6.331138e-002
2.806037e+003;6.544550e-002
2.807966e+003;6.738951e-002
2.809895e+003;6.886586e-002
2.811823e+003;7.028827e-002
2.813751e+003;7.177359e-002
2.815680e+003;7.342120e-002
2.817609e+003;7.503081e-002
2.819537e+003;7.669622e-002
2.821466e+003;7.909635e-002
2.823394e+003;8.184001e-002
2.825323e+003;8.503683e-002
2.827251e+003;8.988421e-002
2.829180e+003;9.623770e-002
2.831108e+003;1.036502e-001
2.833037e+003;1.114017e-001
2.834966e+003;1.182855e-001
2.836894e+003;1.222910e-001
2.838823e+003;1.228389e-001
2.840751e+003;1.208801e-001
2.842680e+003;1.173000e-001
2.844608e+003;1.130968e-001
2.846537e+003;1.090757e-001
2.848465e+003;1.064681e-001
2.850394e+003;1.053997e-001
2.852323e+003;1.047030e-001
2.854251e+003;1.038722e-001
2.856180e+003;1.042266e-001
2.858108e+003;1.069033e-001
2.860037e+003;1.117584e-001
2.861965e+003;1.179296e-001
2.863894e+003;1.244656e-001
2.865822e+003;1.297565e-001
2.867751e+003;1.321366e-001
2.869679e+003;1.323002e-001
2.871608e+003;1.319155e-001
2.873536e+003;1.314644e-001
2.875465e+003;1.311042e-001
2.877394e+003;1.302761e-001
2.879322e+003;1.288970e-001
2.881251e+003;1.276516e-001
2.883179e+003;1.267807e-001
2.885108e+003;1.265618e-001
2.887036e+003;1.271015e-001
2.888965e+003;1.283800e-001
2.890893e+003;1.300288e-001
2.892822e+003;1.324356e-001
2.894750e+003;1.360048e-001
2.896679e+003;1.404814e-001
2.898608e+003;1.450929e-001
2.900536e+003;1.499041e-001
2.902465e+003;1.552856e-001
2.904393e+003;1.611880e-001
2.906322e+003;1.669244e-001
2.908250e+003;1.722668e-001
2.910179e+003;1.770636e-001
2.912107e+003;1.812276e-001
2.914036e+003;1.852832e-001
2.915965e+003;1.884334e-001
2.917893e+003;1.895864e-001
2.919822e+003;1.882701e-001
2.921750e+003;1.842659e-001
2.923679e+003;1.783308e-001
2.925607e+003;1.715783e-001
2.927536e+003;1.635656e-001
2.929464e+003;1.548085e-001
2.931393e+003;1.460688e-001
2.933322e+003;1.377118e-001
2.935250e+003;1.306236e-001
2.937178e+003;1.260913e-001
2.939107e+003;1.241293e-001
2.941036e+003;1.250774e-001
2.942964e+003;1.295356e-001
2.944893e+003;1.364535e-001
2.946821e+003;1.445541e-001
2.948750e+003;1.514830e-001
2.950678e+003;1.549942e-001
2.952607e+003;1.545465e-001
2.954535e+003;1.511577e-001
2.956464e+003;1.463182e-001
2.958393e+003;1.417204e-001
2.960321e+003;1.367854e-001
2.962250e+003;1.304978e-001
2.964178e+003;1.235911e-001
2.966107e+003;1.163832e-001
2.968035e+003;1.090537e-001
2.969964e+003;1.019485e-001
2.971892e+003;9.522564e-002
2.973821e+003;8.956935e-002
2.975750e+003;8.496260e-002
2.977678e+003;8.090167e-002
2.979607e+003;7.748679e-002
2.981535e+003;7.443555e-002
2.983464e+003;7.167197e-002
2.985392e+003;6.898232e-002
2.987321e+003;6.678078e-002
2.989249e+003;6.513942e-002
2.991178e+003;6.347828e-002
2.993106e+003;6.204417e-002
2.995035e+003;6.033677e-002
2.996964e+003;5.841308e-002
2.998892e+003;5.686628e-002
3.000821e+003;5.562424e-002
3.002749e+003;5.404232e-002
3.004678e+003;5.249920e-002
3.006606e+003;5.114378e-002
3.008535e+003;4.996626e-002
3.010463e+003;4.882465e-002
3.012392e+003;4.772513e-002
3.014321e+003;4.696554e-002
3.016249e+003;4.579597e-002
3.018177e+003;4.452867e-002
3.020106e+003;4.397516e-002
3.022035e+003;4.339865e-002
3.023963e+003;4.273809e-002
3.025892e+003;4.221949e-002
3.027820e+003;4.158537e-002
3.029749e+003;4.066534e-002
3.031677e+003;4.036101e-002
3.033606e+003;4.049218e-002
3.035534e+003;4.008925e-002
3.037463e+003;3.921761e-002
3.039392e+003;3.889490e-002
3.041320e+003;3.885902e-002
3.043249e+003;3.861469e-002
3.045177e+003;3.844994e-002
3.047106e+003;3.831996e-002
3.049034e+003;3.831337e-002
3.050963e+003;3.854516e-002
3.052891e+003;3.856004e-002
3.054820e+003;3.828120e-002
3.056749e+003;3.792646e-002
3.058677e+003;3.770808e-002
3.060606e+003;3.751547e-002
3.062534e+003;3.756965e-002
3.064463e+003;3.779468e-002
3.066391e+003;3.777675e-002
3.068320e+003;3.744915e-002
3.070248e+003;3.715712e-002
3.072177e+003;3.696251e-002
3.074105e+003;3.713168e-002
3.076034e+003;3.695747e-002
3.077963e+003;3.670997e-002
3.079891e+003;3.686097e-002
3.081820e+003;3.688257e-002
3.083748e+003;3.698708e-002
3.085677e+003;3.711851e-002
3.087605e+003;3.696536e-002
3.089534e+003;3.683100e-002
3.091462e+003;3.686169e-002
3.093391e+003;3.658996e-002
3.095320e+003;3.638025e-002
3.097248e+003;3.627808e-002
3.099177e+003;3.633198e-002
3.101105e+003;3.635896e-002
3.103034e+003;3.637334e-002
3.104962e+003;3.678999e-002
3.106891e+003;3.694946e-002
3.108819e+003;3.650558e-002
3.110748e+003;3.643863e-002
3.112677e+003;3.662243e-002
3.114605e+003;3.680712e-002
3.116533e+003;3.718448e-002
3.118462e+003;3.727502e-002
3.120391e+003;3.706834e-002
3.122319e+003;3.701523e-002
3.124248e+003;3.686775e-002
3.126176e+003;3.737002e-002
3.128105e+003;3.813022e-002
3.130033e+003;3.829922e-002
3.131962e+003;3.859571e-002
3.133890e+003;3.890918e-002
3.135819e+003;3.867451e-002
3.137748e+003;3.858850e-002
3.139676e+003;3.910379e-002
3.141605e+003;3.936919e-002
3.143533e+003;3.963741e-002
3.145462e+003;4.002520e-002
3.147390e+003;4.007654e-002
3.149319e+003;3.991483e-002
3.151247e+003;4.013584e-002
3.153176e+003;4.002683e-002
3.155104e+003;3.981811e-002
3.157033e+003;4.011484e-002
3.158962e+003;4.040540e-002
3.160890e+003;4.065683e-002
3.162819e+003;4.095431e-002
3.164747e+003;4.112336e-002
3.166676e+003;4.141828e-002
3.168604e+003;4.161760e-002
3.170533e+003;4.184105e-002
3.172461e+003;4.187882e-002
3.174390e+003;4.179176e-002
3.176319e+003;4.171695e-002
3.178247e+003;4.176130e-002
3.180176e+003;4.197242e-002
3.182104e+003;4.207258e-002
3.184033e+003;4.239105e-002
3.185961e+003;4.261457e-002
3.187890e+003;4.240186e-002
3.189818e+003;4.301285e-002
3.191747e+003;4.379334e-002
3.193676e+003;4.349068e-002
3.195604e+003;4.328135e-002
3.197532e+003;4.371938e-002
3.199461e+003;4.390238e-002
3.201390e+003;4.388203e-002
3.203318e+003;4.402091e-002
3.205247e+003;4.423383e-002
3.207175e+003;4.417481e-002
3.209104e+003;4.410031e-002
3.211032e+003;4.412305e-002
3.212961e+003;4.452867e-002
3.214889e+003;4.473856e-002
3.216818e+003;4.453766e-002
3.218747e+003;4.429062e-002
3.220675e+003;4.407519e-002
3.222604e+003;4.391261e-002
3.224532e+003;4.386301e-002
3.226461e+003;4.406437e-002
3.228389e+003;4.388930e-002
3.230318e+003;4.370326e-002
3.232246e+003;4.359328e-002
3.234175e+003;4.345201e-002
3.236104e+003;4.353111e-002
3.238032e+003;4.385718e-002
3.239961e+003;4.409514e-002
3.241889e+003;4.416820e-002
3.243818e+003;4.410262e-002
3.245746e+003;4.423111e-002
3.247675e+003;4.391389e-002
3.249603e+003;4.361639e-002
3.251532e+003;4.381477e-002
3.253460e+003;4.424109e-002
3.255389e+003;4.466511e-002
3.257318e+003;4.486783e-002
3.259246e+003;4.502610e-002
3.261175e+003;4.505790e-002
3.263103e+003;4.528750e-002
3.265032e+003;4.586007e-002
3.266960e+003;4.565394e-002
3.268889e+003;4.506223e-002
3.270817e+003;4.547488e-002
3.272746e+003;4.585786e-002
3.274675e+003;4.547947e-002
3.276603e+003;4.549154e-002
3.278531e+003;4.582395e-002
3.280460e+003;4.559078e-002
3.282389e+003;4.563705e-002
3.284317e+003;4.632294e-002
3.286246e+003;4.677276e-002
3.288174e+003;4.650841e-002
3.290103e+003;4.640047e-002
3.292031e+003;4.644140e-002
3.293960e+003;4.634712e-002
3.295888e+003;4.642853e-002
3.297817e+003;4.632611e-002
3.299746e+003;4.629485e-002
3.301674e+003;4.610554e-002
3.303603e+003;4.586755e-002
3.305531e+003;4.591494e-002
3.307460e+003;4.592975e-002
3.309388e+003;4.590666e-002
3.311317e+003;4.568313e-002
3.313245e+003;4.529478e-002
3.315174e+003;4.502430e-002
3.317103e+003;4.512105e-002
3.319031e+003;4.513149e-002
3.320960e+003;4.515130e-002
3.322888e+003;4.512105e-002
3.324817e+003;4.524510e-002
3.326745e+003;4.541609e-002
3.328674e+003;4.555822e-002
3.330602e+003;4.543614e-002
3.332531e+003;4.554924e-002
3.334459e+003;4.531810e-002
3.336388e+003;4.476857e-002
3.338317e+003;4.501012e-002
3.340245e+003;4.509686e-002
3.342174e+003;4.492662e-002
3.344102e+003;4.473588e-002
3.346031e+003;4.422022e-002
3.347959e+003;4.400819e-002
3.349888e+003;4.430350e-002
3.351816e+003;4.445077e-002
3.353745e+003;4.426729e-002
3.355674e+003;4.390645e-002
3.357602e+003;4.356855e-002
3.359531e+003;4.366999e-002
3.361459e+003;4.351463e-002
3.363388e+003;4.315793e-002
3.365316e+003;4.280639e-002
3.367245e+003;4.274463e-002
3.369173e+003;4.290367e-002
3.371102e+003;4.290315e-002
3.373031e+003;4.260832e-002
3.374959e+003;4.193928e-002
3.376887e+003;4.129988e-002
3.378816e+003;4.121141e-002
3.380745e+003;4.162890e-002
3.382673e+003;4.134619e-002
3.384602e+003;4.088211e-002
3.386530e+003;4.050411e-002
3.388459e+003;4.057373e-002
3.390387e+003;4.080746e-002
3.392316e+003;4.057151e-002
3.394244e+003;4.065035e-002
3.396173e+003;4.034795e-002
3.398102e+003;3.994585e-002
3.400030e+003;4.031796e-002
3.401959e+003;4.052098e-002
3.403887e+003;4.027884e-002
3.405816e+003;4.002948e-002
3.407744e+003;3.966383e-002
3.409673e+003;3.939310e-002
3.411601e+003;3.895527e-002
3.413530e+003;3.887656e-002
3.415458e+003;3.915375e-002
3.417387e+003;3.875577e-002
3.419316e+003;3.820120e-002
3.421244e+003;3.811076e-002
3.423173e+003;3.808424e-002
3.425101e+003;3.771889e-002
3.427030e+003;3.779197e-002
3.428958e+003;3.794414e-002
3.430887e+003;3.725914e-002
3.432815e+003;3.639027e-002
3.434744e+003;3.625410e-002
3.436673e+003;3.662528e-002
3.438601e+003;3.652165e-002
3.440530e+003;3.639852e-002
3.442458e+003;3.600445e-002
3.444387e+003;3.555356e-002
3.446315e+003;3.481764e-002
3.448244e+003;3.419468e-002
3.450172e+003;3.417009e-002
3.452101e+003;3.410066e-002
3.454030e+003;3.400311e-002
3.455958e+003;3.412994e-002
3.457886e+003;3.384845e-002
3.459815e+003;3.370838e-002
3.461744e+003;3.350984e-002
3.463672e+003;3.311681e-002
3.465601e+003;3.267118e-002
3.467529e+003;3.236857e-002
3.469458e+003;3.205337e-002
3.471386e+003;3.197440e-002
3.473315e+003;3.187573e-002
3.475243e+003;3.131694e-002
3.477172e+003;3.087394e-002
3.479101e+003;3.065916e-002
3.481029e+003;3.064177e-002
3.482958e+003;3.039561e-002
3.484886e+003;3.014626e-002
3.486815e+003;3.032227e-002
3.488743e+003;3.033165e-002
3.490672e+003;2.995519e-002
3.492600e+003;3.011387e-002
3.494529e+003;2.986556e-002
3.496458e+003;2.939472e-002
3.498386e+003;2.902353e-002
3.500315e+003;2.836872e-002
3.502243e+003;2.785300e-002
3.504172e+003;2.797197e-002
3.506100e+003;2.834382e-002
3.508029e+003;2.838824e-002
3.509957e+003;2.799112e-002
3.511886e+003;2.768225e-002
3.513814e+003;2.731644e-002
3.515743e+003;2.683739e-002
3.517672e+003;2.672716e-002
3.519600e+003;2.686668e-002
3.521529e+003;2.667381e-002
3.523457e+003;2.589037e-002
3.525386e+003;2.564071e-002
3.527314e+003;2.590388e-002
3.529243e+003;2.572947e-002
3.531171e+003;2.528595e-002
3.533100e+003;2.489713e-002
3.535029e+003;2.464891e-002
3.536957e+003;2.502080e-002
3.538885e+003;2.483780e-002
3.540814e+003;2.425558e-002
3.542743e+003;2.386789e-002
3.544671e+003;2.335948e-002
3.546600e+003;2.306333e-002
3.548528e+003;2.312049e-002
3.550457e+003;2.319423e-002
3.552385e+003;2.255261e-002
3.554314e+003;2.185932e-002
3.556242e+003;2.184712e-002
3.558171e+003;2.215343e-002
3.560100e+003;2.199938e-002
3.562028e+003;2.131730e-002
3.563957e+003;2.057702e-002
3.565885e+003;1.933421e-002
3.567814e+003;1.897920e-002
3.569742e+003;1.974755e-002
3.571671e+003;1.987611e-002
3.573599e+003;1.974370e-002
3.575528e+003;1.967914e-002
3.577457e+003;1.921842e-002
3.579385e+003;1.856306e-002
3.581314e+003;1.786011e-002
3.583242e+003;1.727831e-002
3.585171e+003;1.700425e-002
3.587099e+003;1.669559e-002
3.589028e+003;1.705157e-002
3.590956e+003;1.744987e-002
3.592885e+003;1.665076e-002
3.594813e+003;1.633451e-002
3.596742e+003;1.697944e-002
3.598671e+003;1.706514e-002
3.600599e+003;1.677369e-002
3.602528e+003;1.643856e-002
3.604456e+003;1.603330e-002
3.606385e+003;1.524760e-002
3.608313e+003;1.418529e-002
3.610242e+003;1.395807e-002
3.612170e+003;1.428581e-002
3.614099e+003;1.454233e-002
3.616028e+003;1.397346e-002
3.617956e+003;1.289207e-002
3.619885e+003;1.297283e-002
3.621813e+003;1.398520e-002
3.623742e+003;1.409423e-002
3.625670e+003;1.278661e-002
3.627599e+003;1.046570e-002
3.629527e+003;1.047025e-002
3.631456e+003;1.247060e-002
3.633385e+003;1.337370e-002
3.635313e+003;1.359515e-002
3.637241e+003;1.372505e-002
3.639170e+003;1.379430e-002
3.641099e+003;1.392885e-002
3.643027e+003;1.337384e-002
3.644956e+003;1.190846e-002
3.646884e+003;1.037865e-002
3.648813e+003;9.446660e-003
3.650741e+003;1.056971e-002
3.652670e+003;1.203064e-002
3.654598e+003;1.140355e-002
3.656527e+003;1.108110e-002
3.658456e+003;1.132712e-002
3.660384e+003;1.105472e-002
3.662313e+003;1.128315e-002
3.664241e+003;1.145070e-002
3.666170e+003;1.094030e-002
3.668098e+003;9.727540e-003
3.670027e+003;8.955084e-003
3.671955e+003;1.020062e-002
3.673884e+003;9.609468e-003
3.675813e+003;9.129044e-003
3.677741e+003;1.108831e-002
3.679669e+003;1.199494e-002
3.681598e+003;1.212964e-002
3.683527e+003;1.226558e-002
3.685455e+003;1.172375e-002
3.687384e+003;9.857270e-003
3.689312e+003;9.595343e-003
3.691241e+003;1.051600e-002
3.693169e+003;1.178993e-002
3.695098e+003;1.233579e-002
3.697026e+003;1.205878e-002
3.698955e+003;1.210637e-002
3.700884e+003;1.137668e-002
3.702812e+003;1.112729e-002
3.704741e+003;1.164125e-002
3.706669e+003;1.163271e-002
3.708598e+003;1.110438e-002
3.710526e+003;1.023641e-002
3.712455e+003;1.037983e-002
3.714383e+003;1.122300e-002
3.716312e+003;1.120148e-002
3.718240e+003;1.159149e-002
3.720169e+003;1.198738e-002
3.722098e+003;1.180045e-002
3.724026e+003;1.103851e-002
3.725955e+003;1.051628e-002
3.727883e+003;1.085770e-002
3.729812e+003;1.044079e-002
3.731740e+003;9.328631e-003
3.733669e+003;9.283135e-003
3.735597e+003;9.306526e-003
3.737526e+003;9.966221e-003
3.739455e+003;1.096449e-002
3.741383e+003;1.065188e-002
3.743312e+003;7.698097e-003
3.745240e+003;7.761542e-003
3.747169e+003;9.053219e-003
3.749097e+003;7.548613e-003
3.751026e+003;7.814065e-003
3.752954e+003;9.825749e-003
3.754883e+003;1.121038e-002
3.756812e+003;1.108705e-002
3.758740e+003;1.130713e-002
3.760668e+003;1.180444e-002
3.762597e+003;1.224240e-002
3.764526e+003;1.226009e-002
3.766454e+003;1.234728e-002
3.768383e+003;1.161702e-002
3.770311e+003;1.127985e-002
3.772240e+003;1.171647e-002
3.774168e+003;1.195076e-002
3.776097e+003;1.197692e-002
3.778025e+003;1.185578e-002
3.779954e+003;1.160231e-002
3.781883e+003;1.164125e-002
3.783811e+003;1.185309e-002
3.785740e+003;1.229192e-002
3.787668e+003;1.257735e-002
3.789597e+003;1.285377e-002
3.791525e+003;1.262459e-002
3.793454e+003;1.215867e-002
3.795382e+003;1.154674e-002
3.797311e+003;1.139835e-002
3.799240e+003;1.010637e-002
3.801168e+003;8.996555e-003
3.803097e+003;1.019316e-002
3.805025e+003;1.001237e-002
3.806954e+003;9.539217e-003
3.808882e+003;1.091003e-002
3.810811e+003;1.165091e-002
3.812739e+003;1.142148e-002
3.814668e+003;1.003386e-002
3.816596e+003;1.010481e-002
3.818525e+003;1.051047e-002
3.820454e+003;9.545787e-003
3.822382e+003;1.039151e-002
3.824311e+003;1.135681e-002
3.826239e+003;1.172716e-002
3.828168e+003;1.210862e-002
3.830096e+003;1.172307e-002
3.832025e+003;1.155940e-002
3.833953e+003;1.150966e-002
3.835882e+003;1.020625e-002
3.837811e+003;9.037995e-003
3.839739e+003;9.873506e-003
3.841667e+003;1.072048e-002
3.843596e+003;1.104198e-002
3.845525e+003;1.126367e-002
3.847453e+003;1.160231e-002
3.849382e+003;1.121263e-002
3.851310e+003;8.760299e-003
3.853239e+003;6.674219e-003
3.855167e+003;8.919096e-003
3.857096e+003;1.169553e-002
3.859024e+003;1.209230e-002
3.860953e+003;1.164952e-002
3.862882e+003;1.143001e-002
3.864810e+003;1.142355e-002
3.866739e+003;1.190932e-002
3.868667e+003;1.093789e-002
3.870596e+003;1.073688e-002
3.872524e+003;1.184530e-002
3.874453e+003;1.251749e-002
3.876381e+003;1.276337e-002
3.878310e+003;1.198315e-002
3.880239e+003;1.155995e-002
3.882167e+003;1.189447e-002
3.884096e+003;1.168495e-002
3.886024e+003;1.182905e-002
3.887953e+003;1.274727e-002
3.889881e+003;1.204041e-002
3.891810e+003;1.186774e-002
3.893738e+003;1.309821e-002
3.895667e+003;1.372416e-002
3.897595e+003;1.288985e-002
3.899524e+003;1.203091e-002
3.901453e+003;1.142260e-002
3.903381e+003;1.123078e-002
3.905310e+003;1.239624e-002
3.907238e+003;1.327213e-002
3.909167e+003;1.305191e-002
3.911095e+003;1.266406e-002
3.913024e+003;1.333547e-002
3.914952e+003;1.348775e-002
3.916881e+003;1.271390e-002
3.918810e+003;1.273232e-002
3.920738e+003;1.361997e-002
3.922667e+003;1.404386e-002
3.924595e+003;1.341577e-002
3.926524e+003;1.317631e-002
3.928452e+003;1.324357e-002
3.930381e+003;1.318383e-002
3.932309e+003;1.374888e-002
3.934238e+003;1.431519e-002
3.936167e+003;1.403420e-002
3.938095e+003;1.395584e-002
3.940023e+003;1.418453e-002
3.941952e+003;1.400197e-002
3.943881e+003;1.385974e-002
3.945809e+003;1.382950e-002
3.947738e+003;1.343433e-002
3.949666e+003;1.308083e-002
3.951595e+003;1.384294e-002
3.953523e+003;1.434461e-002
3.955452e+003;1.414999e-002
3.957380e+003;1.445000e-002
3.959309e+003;1.434499e-002
3.961238e+003;1.438112e-002
3.963166e+003;1.369506e-002
3.965095e+003;1.314616e-002
3.967023e+003;1.374950e-002
3.968952e+003;1.427718e-002
3.970880e+003;1.442349e-002
3.972809e+003;1.445188e-002
3.974737e+003;1.436978e-002
3.976666e+003;1.421220e-002
3.978594e+003;1.438677e-002
3.980523e+003;1.492376e-002
3.982452e+003;1.487692e-002
3.984380e+003;1.499493e-002
3.986309e+003;1.538256e-002
3.988237e+003;1.559312e-002
3.990166e+003;1.609031e-002
3.992094e+003;1.646052e-002
3.994023e+003;1.621649e-002
3.995951e+003;1.599429e-002
3.997880e+003;1.596325e-002
3.999809e+003;1.567923e-002
4.001737e+003;0.000000e+000
