3.992094e+002;0.000000e+000
4.011380e+002;0.000000e+000
4.030665e+002;0.000000e+000
4.049951e+002;0.000000e+000
4.069236e+002;0.000000e+000
4.088522e+002;0.000000e+000
4.107807e+002;0.000000e+000
4.127093e+002;0.000000e+000
4.146378e+002;0.000000e+000
4.165664e+002;0.000000e+000
4.184949e+002;0.000000e+000
4.204235e+002;0.000000e+000
4.223520e+002;0.000000e+000
4.242806e+002;0.000000e+000
4.262091e+002;0.000000e+000
4.281377e+002;0.000000e+000
4.300662e+002;0.000000e+000
4.319948e+002;0.000000e+000
4.339233e+002;0.000000e+000
4.358519e+002;0.000000e+000
4.377804e+002;0.000000e+000
4.397090e+002;0.000000e+000
4.416375e+002;0.000000e+000
4.435660e+002;0.000000e+000
4.454946e+002;0.000000e+000
4.474232e+002;0.000000e+000
4.493517e+002;0.000000e+000
4.512802e+002;0.000000e+000
4.532088e+002;0.000000e+000
4.551373e+002;0.000000e+000
4.570659e+002;0.000000e+000
4.589944e+002;0.000000e+000
4.609230e+002;0.000000e+000
4.628515e+002;0.000000e+000
4.647801e+002;0.000000e+000
4.667086e+002;0.000000e+000
4.686372e+002;0.000000e+000
4.705657e+002;0.000000e+000
4.724943e+002;0.000000e+000
4.744228e+002;0.000000e+000
4.763513e+002;0.000000e+000
4.782799e+002;0.000000e+000
4.802085e+002;0.000000e+000
4.821370e+002;0.000000e+000
4.840656e+002;0.000000e+000
4.859941e+002;0.000000e+000
4.879226e+002;0.000000e+000
4.898512e+002;0.000000e+000
4.917798e+002;0.000000e+000
4.937083e+002;0.000000e+000
4.956368e+002;0.000000e+000
4.975654e+002;0.000000e+000
4.994939e+002;0.000000e+000
5.014225e+002;0.000000e+000
5.033510e+002;0.000000e+000
5.052796e+002;0.000000e+000
5.072081e+002;0.000000e+000
5.091367e+002;0.000000e+000
5.110652e+002;0.000000e+000
5.129938e+002;0.000000e+000
5.149223e+002;0.000000e+000
5.168509e+002;0.000000e+000
5.187794e+002;0.000000e+000
5.207079e+002;0.000000e+000
5.226365e+002;0.000000e+000
5.245651e+002;0.000000e+000
5.264936e+002;0.000000e+000
5.284222e+002;0.000000e+000
5.303507e+002;0.000000e+000
5.322792e+002;0.000000e+000
5.342078e+002;0.000000e+000
5.361364e+002;0.000000e+000
5.380649e+002;0.000000e+000
5.399935e+002;0.000000e+000
5.419220e+002;0.000000e+000
5.438505e+002;0.000000e+000
5.457791e+002;0.000000e+000
5.477076e+002;0.000000e+000
5.496362e+002;0.000000e+000
5.515648e+002;0.000000e+000
5.534933e+002;0.000000e+000
5.554218e+002;0.000000e+000
5.573504e+002;0.000000e+000
5.592789e+002;0.000000e+000
5.612075e+002;0.000000e+000
5.631360e+002;0.000000e+000
5.650646e+002;0.000000e+000
5.669931e+002;0.000000e+000
5.689217e+002;0.000000e+000
5.708502e+002;0.000000e+000
5.727787e+002;0.000000e+000
5.747073e+002;0.000000e+000
5.766359e+002;0.000000e+000
5.785644e+002;0.000000e+000
5.804930e+002;0.000000e+000
5.824215e+002;0.000000e+000
5.843500e+002;0.000000e+000
5.862786e+002;0.000000e+000
5.882072e+002;0.000000e+000
5.901357e+002;0.000000e+000
5.920643e+002;0.000000e+000
5.939928e+002;0.000000e+000
5.959213e+002;0.000000e+000
5.978499e+002;0.000000e+000
5.997784e+002;4.157370e-002
6.017070e+002;3.602425e-002
6.036355e+002;3.735052e-002
6.055641e+002;4.153552e-002
6.074926e+002;4.674276e-002
6.094211e+002;4.665211e-002
6.113497e+002;4.474499e-002
6.132783e+002;4.534888e-002
6.152068e+002;4.358210e-002
6.171354e+002;4.268625e-002
6.190639e+002;4.581316e-002
6.209924e+002;4.588846e-002
6.229210e+002;4.435388e-002
6.248495e+002;4.369197e-002
6.267781e+002;4.378381e-002
6.287067e+002;4.338540e-002
6.306352e+002;4.455242e-002
6.325637e+002;4.657251e-002
6.344923e+002;4.363603e-002
6.364208e+002;4.067120e-002
6.383494e+002;4.265759e-002
6.402780e+002;4.402682e-002
6.422065e+002;4.316188e-002
6.441350e+002;4.307538e-002
6.460636e+002;4.323424e-002
6.479921e+002;4.474033e-002
6.499207e+002;4.654875e-002
6.518492e+002;4.487992e-002
6.537778e+002;4.194125e-002
6.557063e+002;4.325174e-002
6.576349e+002;4.541002e-002
6.595634e+002;4.551160e-002
6.614919e+002;4.615797e-002
6.634205e+002;4.545589e-002
6.653491e+002;4.346808e-002
6.672776e+002;4.246971e-002
6.692062e+002;4.403412e-002
6.711347e+002;4.568931e-002
6.730632e+002;4.511436e-002
6.749918e+002;4.493570e-002
6.769203e+002;4.597807e-002
6.788489e+002;4.572602e-002
6.807775e+002;4.519108e-002
6.827060e+002;4.435726e-002
6.846345e+002;4.379103e-002
6.865631e+002;4.476549e-002
6.884916e+002;4.417403e-002
6.904202e+002;4.307417e-002
6.923488e+002;4.347017e-002
6.942773e+002;4.321213e-002
6.962058e+002;4.418009e-002
6.981344e+002;4.625346e-002
7.000629e+002;4.666277e-002
7.019915e+002;4.604357e-002
7.039200e+002;4.585731e-002
7.058486e+002;4.547672e-002
7.077771e+002;4.549011e-002
7.097057e+002;4.586048e-002
7.116342e+002;4.692623e-002
7.135627e+002;4.895544e-002
7.154913e+002;4.943711e-002
7.174199e+002;4.889892e-002
7.193484e+002;4.920667e-002
7.212770e+002;4.960634e-002
7.232055e+002;5.008779e-002
7.251340e+002;4.981565e-002
7.270626e+002;4.938814e-002
7.289911e+002;5.006645e-002
7.309197e+002;5.080244e-002
7.328483e+002;4.988820e-002
7.347768e+002;4.882061e-002
7.367053e+002;4.835307e-002
7.386339e+002;4.809948e-002
7.405624e+002;4.875270e-002
7.424910e+002;4.964983e-002
7.444196e+002;4.876211e-002
7.463481e+002;4.841759e-002
7.482766e+002;4.816556e-002
7.502052e+002;4.869732e-002
7.521337e+002;5.012744e-002
7.540623e+002;5.019401e-002
7.559908e+002;4.986935e-002
7.579194e+002;4.974071e-002
7.598479e+002;4.896304e-002
7.617765e+002;4.865984e-002
7.637050e+002;4.905125e-002
7.656335e+002;4.963367e-002
7.675621e+002;5.018248e-002
7.694907e+002;5.051246e-002
7.714192e+002;5.111206e-002
7.733478e+002;5.118299e-002
7.752763e+002;5.085488e-002
7.772048e+002;5.090167e-002
7.791334e+002;5.104095e-002
7.810620e+002;5.113427e-002
7.829905e+002;5.235833e-002
7.849191e+002;5.387957e-002
7.868476e+002;5.451152e-002
7.887761e+002;5.538767e-002
7.907047e+002;5.729680e-002
7.926332e+002;5.981565e-002
7.945618e+002;6.236922e-002
7.964903e+002;6.462138e-002
7.984189e+002;6.555349e-002
8.003474e+002;6.625963e-002
8.022759e+002;6.851915e-002
8.042045e+002;7.129712e-002
8.061331e+002;7.356381e-002
8.080616e+002;7.592643e-002
8.099902e+002;7.658567e-002
8.119187e+002;7.530973e-002
8.138472e+002;7.284483e-002
8.157758e+002;7.027853e-002
8.177043e+002;6.811930e-002
8.196329e+002;6.602176e-002
8.215615e+002;6.470463e-002
8.234900e+002;6.359679e-002
8.254185e+002;6.217835e-002
8.273471e+002;6.160446e-002
8.292756e+002;6.084396e-002
8.312042e+002;5.963342e-002
8.331328e+002;5.966714e-002
8.350613e+002;6.065780e-002
8.369898e+002;6.312381e-002
8.389184e+002;6.839099e-002
8.408469e+002;7.366928e-002
8.427755e+002;7.382690e-002
8.447040e+002;6.888194e-002
8.466326e+002;6.346780e-002
8.485611e+002;6.017092e-002
8.504897e+002;5.792462e-002
8.524182e+002;5.661942e-002
8.543467e+002;5.581341e-002
8.562753e+002;5.519563e-002
8.582039e+002;5.488312e-002
8.601324e+002;5.422894e-002
8.620610e+002;5.381374e-002
8.639895e+002;5.401339e-002
8.659180e+002;5.431559e-002
8.678466e+002;5.406484e-002
8.697751e+002;5.423851e-002
8.717037e+002;5.500443e-002
8.736323e+002;5.576651e-002
8.755608e+002;5.575901e-002
8.774893e+002;5.499097e-002
8.794179e+002;5.388062e-002
8.813464e+002;5.310653e-002
8.832750e+002;5.295131e-002
8.852036e+002;5.248645e-002
8.871321e+002;5.205701e-002
8.890606e+002;5.267015e-002
8.909892e+002;5.361876e-002
8.929177e+002;5.571350e-002
8.948463e+002;5.930065e-002
8.967748e+002;6.350677e-002
8.987034e+002;6.653444e-002
9.006319e+002;6.656638e-002
9.025605e+002;6.333146e-002
9.044890e+002;5.805864e-002
9.064175e+002;5.324191e-002
9.083461e+002;5.060009e-002
9.102747e+002;4.955189e-002
9.122032e+002;4.822413e-002
9.141318e+002;4.698253e-002
9.160603e+002;4.697799e-002
9.179888e+002;4.682624e-002
9.199174e+002;4.655919e-002
9.218459e+002;4.667779e-002
9.237745e+002;4.656516e-002
9.257031e+002;4.644955e-002
9.276316e+002;4.732350e-002
9.295601e+002;4.802173e-002
9.314887e+002;4.779622e-002
9.334172e+002;4.808790e-002
9.353458e+002;4.923254e-002
9.372744e+002;5.031684e-002
9.392029e+002;5.137282e-002
9.411314e+002;5.258184e-002
9.430600e+002;5.353348e-002
9.449885e+002;5.372059e-002
9.469171e+002;5.349754e-002
9.488456e+002;5.313289e-002
9.507742e+002;5.357962e-002
9.527027e+002;5.493351e-002
9.546313e+002;5.579318e-002
9.565598e+002;5.648317e-002
9.584883e+002;5.751909e-002
9.604169e+002;5.877056e-002
9.623455e+002;6.084602e-002
9.642740e+002;6.394074e-002
9.662026e+002;6.788022e-002
9.681311e+002;7.351165e-002
9.700596e+002;8.078604e-002
9.719882e+002;8.719958e-002
9.739167e+002;8.966322e-002
9.758453e+002;8.673324e-002
9.777739e+002;7.943912e-002
9.797024e+002;7.109050e-002
9.816309e+002;6.410404e-002
9.835595e+002;5.957724e-002
9.854880e+002;5.747003e-002
9.874166e+002;5.751784e-002
9.893452e+002;5.925458e-002
9.912737e+002;6.269731e-002
9.932022e+002;6.795208e-002
9.951307e+002;7.455388e-002
9.970593e+002;8.024853e-002
9.989879e+002;8.141301e-002
1.000916e+003;7.788438e-002
1.002845e+003;7.237960e-002
1.004773e+003;6.797518e-002
1.006702e+003;6.558274e-002
1.008631e+003;6.447323e-002
1.010559e+003;6.439186e-002
1.012488e+003;6.392573e-002
1.014416e+003;6.310610e-002
1.016345e+003;6.232547e-002
1.018273e+003;6.198856e-002
1.020202e+003;6.215052e-002
1.022130e+003;6.230672e-002
1.024059e+003;6.205828e-002
1.025988e+003;6.190709e-002
1.027916e+003;6.233939e-002
1.029845e+003;6.307039e-002
1.031773e+003;6.405769e-002
1.033702e+003;6.497607e-002
1.035630e+003;6.636328e-002
1.037559e+003;6.714046e-002
1.039487e+003;6.735434e-002
1.041416e+003;6.779705e-002
1.043344e+003;6.844328e-002
1.045273e+003;6.808089e-002
1.047202e+003;6.676231e-002
1.049130e+003;6.561742e-002
1.051059e+003;6.513561e-002
1.052987e+003;6.507494e-002
1.054916e+003;6.532770e-002
1.056844e+003;6.541760e-002
1.058773e+003;6.473144e-002
1.060701e+003;6.399679e-002
1.062630e+003;6.395030e-002
1.064558e+003;6.411476e-002
1.066487e+003;6.458420e-002
1.068416e+003;6.467345e-002
1.070344e+003;6.448014e-002
1.072273e+003;6.528311e-002
1.074201e+003;6.607997e-002
1.076130e+003;6.587216e-002
1.078058e+003;6.527287e-002
1.079987e+003;6.536060e-002
1.081915e+003;6.586552e-002
1.083844e+003;6.605254e-002
1.085773e+003;6.647902e-002
1.087701e+003;6.726833e-002
1.089630e+003;6.803528e-002
1.091558e+003;6.827480e-002
1.093487e+003;6.865372e-002
1.095415e+003;6.934335e-002
1.097344e+003;7.028788e-002
1.099272e+003;7.202621e-002
1.101201e+003;7.300407e-002
1.103129e+003;7.225840e-002
1.105058e+003;7.096775e-002
1.106987e+003;6.969275e-002
1.108915e+003;6.824638e-002
1.110844e+003;6.641304e-002
1.112772e+003;6.468814e-002
1.114701e+003;6.322781e-002
1.116629e+003;6.173777e-002
1.118558e+003;6.058134e-002
1.120486e+003;6.014965e-002
1.122415e+003;5.994043e-002
1.124344e+003;5.965965e-002
1.126272e+003;5.900962e-002
1.128201e+003;5.870361e-002
1.130129e+003;5.918281e-002
1.132058e+003;5.990429e-002
1.133986e+003;6.025195e-002
1.135915e+003;6.086905e-002
1.137843e+003;6.233457e-002
1.139772e+003;6.441357e-002
1.141700e+003;6.684374e-002
1.143629e+003;6.964921e-002
1.145557e+003;7.270681e-002
1.147486e+003;7.576264e-002
1.149415e+003;7.875119e-002
1.151343e+003;8.111265e-002
1.153272e+003;8.245124e-002
1.155200e+003;8.330121e-002
1.157129e+003;8.340245e-002
1.159057e+003;8.374429e-002
1.160986e+003;8.449436e-002
1.162914e+003;8.505247e-002
1.164843e+003;8.557469e-002
1.166771e+003;8.560862e-002
1.168700e+003;8.437865e-002
1.170629e+003;8.137816e-002
1.172557e+003;7.725639e-002
1.174486e+003;7.257329e-002
1.176414e+003;6.830148e-002
1.178343e+003;6.490258e-002
1.180271e+003;6.235599e-002
1.182200e+003;6.094278e-002
1.184128e+003;6.011156e-002
1.186057e+003;5.935166e-002
1.187986e+003;5.882807e-002
1.189914e+003;5.853178e-002
1.191843e+003;5.882651e-002
1.193771e+003;5.884488e-002
1.195700e+003;5.858786e-002
1.197628e+003;5.843496e-002
1.199557e+003;5.832254e-002
1.201485e+003;5.803080e-002
1.203414e+003;5.808682e-002
1.205343e+003;5.850228e-002
1.207271e+003;5.900700e-002
1.209200e+003;5.973393e-002
1.211128e+003;6.051144e-002
1.213057e+003;6.128142e-002
1.214985e+003;6.190208e-002
1.216914e+003;6.236517e-002
1.218842e+003;6.241180e-002
1.220771e+003;6.199120e-002
1.222699e+003;6.096051e-002
1.224628e+003;6.026524e-002
1.226557e+003;6.014394e-002
1.228485e+003;5.977058e-002
1.230414e+003;5.945173e-002
1.232342e+003;5.989707e-002
1.234271e+003;6.000201e-002
1.236199e+003;5.956215e-002
1.238128e+003;5.963783e-002
1.240056e+003;6.023585e-002
1.241985e+003;6.026935e-002
1.243913e+003;6.034100e-002
1.245842e+003;6.113707e-002
1.247771e+003;6.233763e-002
1.249699e+003;6.398620e-002
1.251628e+003;6.665757e-002
1.253556e+003;6.988107e-002
1.255485e+003;7.271108e-002
1.257413e+003;7.421781e-002
1.259342e+003;7.398391e-002
1.261270e+003;7.196794e-002
1.263199e+003;6.858426e-002
1.265127e+003;6.540035e-002
1.267056e+003;6.311668e-002
1.268985e+003;6.159071e-002
1.270913e+003;6.057616e-002
1.272842e+003;6.005623e-002
1.274770e+003;5.969911e-002
1.276699e+003;5.924569e-002
1.278627e+003;5.875527e-002
1.280556e+003;5.876054e-002
1.282484e+003;5.940427e-002
1.284413e+003;5.992597e-002
1.286342e+003;6.048829e-002
1.288270e+003;6.127982e-002
1.290199e+003;6.194568e-002
1.292127e+003;6.276859e-002
1.294056e+003;6.363960e-002
1.295984e+003;6.384297e-002
1.297913e+003;6.379484e-002
1.299841e+003;6.369784e-002
1.301770e+003;6.396734e-002
1.303698e+003;6.435528e-002
1.305627e+003;6.356012e-002
1.307556e+003;6.112257e-002
1.309484e+003;5.860045e-002
1.311413e+003;5.739367e-002
1.313341e+003;5.728361e-002
1.315270e+003;5.770364e-002
1.317198e+003;5.838796e-002
1.319127e+003;5.928462e-002
1.321055e+003;6.047355e-002
1.322984e+003;6.190461e-002
1.324912e+003;6.342271e-002
1.326841e+003;6.480814e-002
1.328770e+003;6.585179e-002
1.330698e+003;6.593941e-002
1.332627e+003;6.527379e-002
1.334555e+003;6.430136e-002
1.336484e+003;6.374864e-002
1.338412e+003;6.393425e-002
1.340341e+003;6.459258e-002
1.342269e+003;6.559071e-002
1.344198e+003;6.700887e-002
1.346126e+003;6.878049e-002
1.348055e+003;7.140046e-002
1.349984e+003;7.480852e-002
1.351912e+003;7.894222e-002
1.353841e+003;8.461005e-002
1.355769e+003;9.166604e-002
1.357698e+003;9.744006e-002
1.359626e+003;9.964792e-002
1.361555e+003;9.919339e-002
1.363483e+003;9.893873e-002
1.365412e+003;1.011617e-001
1.367341e+003;1.084305e-001
1.369269e+003;1.230615e-001
1.371198e+003;1.447256e-001
1.373126e+003;1.695323e-001
1.375055e+003;1.887010e-001
1.376983e+003;1.900133e-001
1.378912e+003;1.714514e-001
1.380840e+003;1.451779e-001
1.382769e+003;1.206953e-001
1.384698e+003;1.010193e-001
1.386626e+003;8.682971e-002
1.388555e+003;7.748224e-002
1.390483e+003;7.172067e-002
1.392412e+003;6.815861e-002
1.394340e+003;6.593864e-002
1.396269e+003;6.478310e-002
1.398197e+003;6.436123e-002
1.400126e+003;6.437165e-002
1.402054e+003;6.452308e-002
1.403983e+003;6.461262e-002
1.405911e+003;6.492255e-002
1.407840e+003;6.524684e-002
1.409769e+003;6.552501e-002
1.411697e+003;6.637790e-002
1.413626e+003;6.725401e-002
1.415554e+003;6.740371e-002
1.417483e+003;6.731959e-002
1.419411e+003;6.783110e-002
1.421340e+003;6.898469e-002
1.423268e+003;7.069284e-002
1.425197e+003;7.310353e-002
1.427125e+003;7.666266e-002
1.429054e+003;8.239003e-002
1.430983e+003;9.038731e-002
1.432911e+003;9.948019e-002
1.434840e+003;1.062732e-001
1.436768e+003;1.091585e-001
1.438697e+003;1.108344e-001
1.440625e+003;1.134095e-001
1.442554e+003;1.185507e-001
1.444482e+003;1.265146e-001
1.446411e+003;1.357828e-001
1.448340e+003;1.449941e-001
1.450268e+003;1.526657e-001
1.452197e+003;1.577727e-001
1.454125e+003;1.603717e-001
1.456054e+003;1.606375e-001
1.457982e+003;1.592792e-001
1.459911e+003;1.568824e-001
1.461839e+003;1.523613e-001
1.463768e+003;1.452906e-001
1.465697e+003;1.364272e-001
1.467625e+003;1.267660e-001
1.469554e+003;1.166384e-001
1.471482e+003;1.068011e-001
1.473411e+003;9.769388e-002
1.475339e+003;8.935495e-002
1.477268e+003;8.206914e-002
1.479196e+003;7.618480e-002
1.481125e+003;7.120433e-002
1.483053e+003;6.687246e-002
1.484982e+003;6.287240e-002
1.486911e+003;5.932420e-002
1.488839e+003;5.677580e-002
1.490768e+003;5.500229e-002
1.492696e+003;5.348281e-002
1.494625e+003;5.175504e-002
1.496553e+003;5.018058e-002
1.498482e+003;4.925028e-002
1.500410e+003;4.855367e-002
1.502339e+003;4.783162e-002
1.504267e+003;4.682277e-002
1.506196e+003;4.589513e-002
1.508125e+003;4.562405e-002
1.510053e+003;4.552028e-002
1.511982e+003;4.523329e-002
1.513910e+003;4.489164e-002
1.515839e+003;4.462578e-002
1.517767e+003;4.450635e-002
1.519696e+003;4.434577e-002
1.521624e+003;4.406925e-002
1.523553e+003;4.421057e-002
1.525481e+003;4.460221e-002
1.527410e+003;4.522160e-002
1.529339e+003;4.562545e-002
1.531267e+003;4.594404e-002
1.533196e+003;4.660209e-002
1.535124e+003;4.768693e-002
1.537053e+003;4.822243e-002
1.538981e+003;4.836607e-002
1.540910e+003;4.928331e-002
1.542838e+003;5.048246e-002
1.544767e+003;5.130622e-002
1.546695e+003;5.145279e-002
1.548624e+003;5.129473e-002
1.550553e+003;5.131696e-002
1.552481e+003;5.128429e-002
1.554410e+003;5.086360e-002
1.556338e+003;5.002080e-002
1.558267e+003;4.915702e-002
1.560195e+003;4.935335e-002
1.562124e+003;4.972722e-002
1.564052e+003;4.966529e-002
1.565981e+003;4.962208e-002
1.567910e+003;4.945315e-002
1.569838e+003;4.930383e-002
1.571767e+003;4.946377e-002
1.573695e+003;4.960151e-002
1.575624e+003;4.964526e-002
1.577552e+003;5.007657e-002
1.579481e+003;5.040297e-002
1.581409e+003;5.021856e-002
1.583338e+003;4.989548e-002
1.585266e+003;4.943804e-002
1.587195e+003;4.887104e-002
1.589124e+003;4.835326e-002
1.591052e+003;4.796400e-002
1.592981e+003;4.800156e-002
1.594909e+003;4.849539e-002
1.596838e+003;4.862604e-002
1.598766e+003;4.871485e-002
1.600695e+003;4.893946e-002
1.602623e+003;4.916845e-002
1.604552e+003;4.949399e-002
1.606480e+003;4.981015e-002
1.608409e+003;5.008296e-002
1.610338e+003;5.036256e-002
1.612266e+003;5.053859e-002
1.614195e+003;5.081391e-002
1.616123e+003;5.108895e-002
1.618052e+003;5.157564e-002
1.619980e+003;5.209873e-002
1.621909e+003;5.220137e-002
1.623837e+003;5.235198e-002
1.625766e+003;5.286501e-002
1.627694e+003;5.327266e-002
1.629623e+003;5.371935e-002
1.631552e+003;5.418535e-002
1.633480e+003;5.394541e-002
1.635409e+003;5.347480e-002
1.637337e+003;5.379642e-002
1.639266e+003;5.450502e-002
1.641194e+003;5.509816e-002
1.643123e+003;5.554967e-002
1.645051e+003;5.561584e-002
1.646980e+003;5.566646e-002
1.648909e+003;5.614232e-002
1.650837e+003;5.603253e-002
1.652766e+003;5.559889e-002
1.654694e+003;5.621374e-002
1.656623e+003;5.663361e-002
1.658551e+003;5.652279e-002
1.660480e+003;5.623354e-002
1.662408e+003;5.589722e-002
1.664337e+003;5.578572e-002
1.666266e+003;5.534793e-002
1.668194e+003;5.464166e-002
1.670123e+003;5.420547e-002
1.672051e+003;5.404622e-002
1.673980e+003;5.337369e-002
1.675908e+003;5.288944e-002
1.677837e+003;5.271407e-002
1.679765e+003;5.202350e-002
1.681694e+003;5.125107e-002
1.683622e+003;5.047993e-002
1.685551e+003;5.029251e-002
1.687479e+003;5.036063e-002
1.689408e+003;5.000469e-002
1.691337e+003;4.981104e-002
1.693265e+003;4.964920e-002
1.695194e+003;4.917016e-002
1.697122e+003;4.912437e-002
1.699051e+003;4.894944e-002
1.700979e+003;4.904379e-002
1.702908e+003;4.979796e-002
1.704836e+003;5.006980e-002
1.706765e+003;5.022015e-002
1.708693e+003;5.051109e-002
1.710622e+003;5.060884e-002
1.712551e+003;5.037455e-002
1.714479e+003;4.990095e-002
1.716408e+003;4.931723e-002
1.718336e+003;4.930086e-002
1.720265e+003;4.953168e-002
1.722193e+003;4.951323e-002
1.724122e+003;4.952582e-002
1.726050e+003;4.951371e-002
1.727979e+003;4.930807e-002
1.729908e+003;4.918801e-002
1.731836e+003;4.922742e-002
1.733765e+003;4.974033e-002
1.735693e+003;5.064238e-002
1.737622e+003;5.100201e-002
1.739550e+003;5.088301e-002
1.741479e+003;5.039066e-002
1.743407e+003;4.893330e-002
1.745336e+003;4.689101e-002
1.747265e+003;4.466753e-002
1.749193e+003;4.259596e-002
1.751122e+003;4.058927e-002
1.753050e+003;3.877877e-002
1.754979e+003;3.718243e-002
1.756907e+003;3.555848e-002
1.758836e+003;3.392028e-002
1.760764e+003;3.239485e-002
1.762693e+003;3.118043e-002
1.764621e+003;3.018021e-002
1.766550e+003;2.921302e-002
1.768479e+003;2.877266e-002
1.770407e+003;2.828362e-002
1.772336e+003;2.759097e-002
1.774264e+003;2.729365e-002
1.776193e+003;2.714619e-002
1.778121e+003;2.678379e-002
1.780050e+003;2.627745e-002
1.781978e+003;2.593314e-002
1.783907e+003;2.537383e-002
1.785835e+003;2.496370e-002
1.787764e+003;2.486327e-002
1.789693e+003;2.441945e-002
1.791621e+003;2.361463e-002
1.793550e+003;2.330302e-002
1.795478e+003;2.340043e-002
1.797407e+003;2.304935e-002
1.799335e+003;2.253289e-002
1.801264e+003;2.192831e-002
1.803192e+003;2.150687e-002
1.805121e+003;2.132882e-002
1.807049e+003;2.132412e-002
1.808978e+003;2.119384e-002
1.810907e+003;2.087587e-002
1.812835e+003;2.076863e-002
1.814764e+003;2.067900e-002
1.816692e+003;2.032275e-002
1.818621e+003;2.026553e-002
1.820549e+003;2.034254e-002
1.822478e+003;2.048507e-002
1.824406e+003;2.054134e-002
1.826335e+003;2.024088e-002
1.828264e+003;2.001831e-002
1.830192e+003;2.000586e-002
1.832121e+003;2.003129e-002
1.834049e+003;2.007900e-002
1.835978e+003;2.024779e-002
1.837906e+003;2.025775e-002
1.839835e+003;1.990036e-002
1.841763e+003;1.967169e-002
1.843692e+003;1.953442e-002
1.845620e+003;1.956482e-002
1.847549e+003;1.953986e-002
1.849478e+003;1.931983e-002
1.851406e+003;1.920979e-002
1.853335e+003;1.917693e-002
1.855263e+003;1.925561e-002
1.857192e+003;1.917139e-002
1.859120e+003;1.889285e-002
1.861049e+003;1.881745e-002
1.862977e+003;1.884748e-002
1.864906e+003;1.875852e-002
1.866834e+003;1.873157e-002
1.868763e+003;1.854961e-002
1.870692e+003;1.820018e-002
1.872620e+003;1.823000e-002
1.874549e+003;1.844014e-002
1.876477e+003;1.842625e-002
1.878406e+003;1.849850e-002
1.880334e+003;1.866256e-002
1.882263e+003;1.870981e-002
1.884191e+003;1.860024e-002
1.886120e+003;1.856998e-002
1.888048e+003;1.855265e-002
1.889977e+003;1.873143e-002
1.891906e+003;1.874641e-002
1.893834e+003;1.874285e-002
1.895763e+003;1.870943e-002
1.897691e+003;1.843793e-002
1.899620e+003;1.823380e-002
1.901548e+003;1.823802e-002
1.903477e+003;1.842652e-002
1.905405e+003;1.846898e-002
1.907334e+003;1.838539e-002
1.909262e+003;1.834045e-002
1.911191e+003;1.833613e-002
1.913120e+003;1.838967e-002
1.915048e+003;1.802442e-002
1.916977e+003;1.772797e-002
1.918905e+003;1.800176e-002
1.920834e+003;1.777226e-002
1.922762e+003;1.751117e-002
1.924691e+003;1.760108e-002
1.926619e+003;1.761478e-002
1.928548e+003;1.767700e-002
1.930477e+003;1.750193e-002
1.932405e+003;1.714796e-002
1.934334e+003;1.704050e-002
1.936262e+003;1.710567e-002
1.938191e+003;1.699822e-002
1.940119e+003;1.669759e-002
1.942048e+003;1.663290e-002
1.943976e+003;1.684788e-002
1.945905e+003;1.678685e-002
1.947833e+003;1.658484e-002
1.949762e+003;1.651723e-002
1.951691e+003;1.675310e-002
1.953619e+003;1.679188e-002
1.955548e+003;1.672810e-002
1.957476e+003;1.671605e-002
1.959405e+003;1.654474e-002
1.961333e+003;1.660329e-002
1.963262e+003;1.660749e-002
1.965190e+003;1.644551e-002
1.967119e+003;1.618041e-002
1.969047e+003;1.594606e-002
1.970976e+003;1.603932e-002
1.972905e+003;1.640566e-002
1.974833e+003;1.660959e-002
1.976762e+003;1.655493e-002
1.978690e+003;1.642579e-002
1.980619e+003;1.625154e-002
1.982547e+003;1.624191e-002
1.984476e+003;1.634070e-002
1.986404e+003;1.638027e-002
1.988333e+003;1.634745e-002
1.990261e+003;1.624259e-002
1.992190e+003;1.607274e-002
1.994119e+003;1.599693e-002
1.996047e+003;1.618371e-002
1.997976e+003;1.624012e-002
1.999904e+003;1.630988e-002
2.001833e+003;1.631304e-002
2.003761e+003;1.621859e-002
2.005690e+003;1.619678e-002
2.007618e+003;1.624222e-002
2.009547e+003;1.625632e-002
2.011476e+003;1.643247e-002
2.013404e+003;1.639128e-002
2.015333e+003;1.620462e-002
2.017261e+003;1.617167e-002
2.019190e+003;1.617738e-002
2.021118e+003;1.620390e-002
2.023047e+003;1.605617e-002
2.024975e+003;1.598999e-002
2.026904e+003;1.606614e-002
2.028833e+003;1.572578e-002
2.030761e+003;1.544707e-002
2.032690e+003;1.564608e-002
2.034618e+003;1.577189e-002
2.036547e+003;1.583814e-002
2.038475e+003;1.587079e-002
2.040404e+003;1.593722e-002
2.042332e+003;1.614457e-002
2.044261e+003;1.611352e-002
2.046189e+003;1.610413e-002
2.048118e+003;1.609258e-002
2.050047e+003;1.598583e-002
2.051975e+003;1.595733e-002
2.053904e+003;1.589474e-002
2.055832e+003;1.579419e-002
2.057761e+003;1.576368e-002
2.059689e+003;1.575014e-002
2.061618e+003;1.570641e-002
2.063546e+003;1.559185e-002
2.065475e+003;1.556317e-002
2.067404e+003;1.565275e-002
2.069332e+003;1.570988e-002
2.071260e+003;1.562956e-002
2.073189e+003;1.560593e-002
2.075118e+003;1.580422e-002
2.077046e+003;1.590000e-002
2.078975e+003;1.596630e-002
2.080903e+003;1.604871e-002
2.082832e+003;1.604610e-002
2.084760e+003;1.591299e-002
2.086689e+003;1.602774e-002
2.088617e+003;1.597772e-002
2.090546e+003;1.586305e-002
2.092475e+003;1.597748e-002
2.094403e+003;1.598356e-002
2.096332e+003;1.590409e-002
2.098260e+003;1.594269e-002
2.100189e+003;1.610448e-002
2.102117e+003;1.613869e-002
2.104046e+003;1.612975e-002
2.105974e+003;1.633843e-002
2.107903e+003;1.620878e-002
2.109832e+003;1.611528e-002
2.111760e+003;1.637146e-002
2.113688e+003;1.631201e-002
2.115617e+003;1.611497e-002
2.117546e+003;1.630028e-002
2.119474e+003;1.637700e-002
2.121403e+003;1.651376e-002
2.123331e+003;1.676832e-002
2.125260e+003;1.686906e-002
2.127188e+003;1.712628e-002
2.129117e+003;1.760636e-002
2.131045e+003;1.778047e-002
2.132974e+003;1.774368e-002
2.134903e+003;1.765381e-002
2.136831e+003;1.750803e-002
2.138760e+003;1.732603e-002
2.140688e+003;1.715089e-002
2.142617e+003;1.728062e-002
2.144545e+003;1.740231e-002
2.146474e+003;1.733410e-002
2.148402e+003;1.724659e-002
2.150331e+003;1.727638e-002
2.152260e+003;1.735462e-002
2.154188e+003;1.736838e-002
2.156117e+003;1.728055e-002
2.158045e+003;1.709844e-002
2.159974e+003;1.727193e-002
2.161902e+003;1.752601e-002
2.163831e+003;1.779111e-002
2.165759e+003;1.777550e-002
2.167688e+003;1.762272e-002
2.169616e+003;1.758907e-002
2.171545e+003;1.788342e-002
2.173474e+003;1.830216e-002
2.175402e+003;1.833046e-002
2.177331e+003;1.817544e-002
2.179259e+003;1.817983e-002
2.181188e+003;1.823494e-002
2.183116e+003;1.831961e-002
2.185045e+003;1.835912e-002
2.186973e+003;1.822606e-002
2.188902e+003;1.800483e-002
2.190831e+003;1.779559e-002
2.192759e+003;1.792492e-002
2.194688e+003;1.795576e-002
2.196616e+003;1.784762e-002
2.198545e+003;1.798577e-002
2.200473e+003;1.806072e-002
2.202402e+003;1.783322e-002
2.204330e+003;1.772808e-002
2.206259e+003;1.759787e-002
2.208188e+003;1.747502e-002
2.210116e+003;1.754695e-002
2.212044e+003;1.771928e-002
2.213973e+003;1.759777e-002
2.215902e+003;1.734469e-002
2.217830e+003;1.746095e-002
2.219759e+003;1.761419e-002
2.221687e+003;1.752814e-002
2.223616e+003;1.748720e-002
2.225544e+003;1.774934e-002
2.227473e+003;1.782849e-002
2.229401e+003;1.777236e-002
2.231330e+003;1.778023e-002
2.233259e+003;1.777398e-002
2.235187e+003;1.783816e-002
2.237116e+003;1.796401e-002
2.239044e+003;1.802659e-002
2.240973e+003;1.813716e-002
2.242901e+003;1.806697e-002
2.244830e+003;1.780391e-002
2.246758e+003;1.801267e-002
2.248687e+003;1.838933e-002
2.250615e+003;1.835908e-002
2.252544e+003;1.838252e-002
2.254473e+003;1.873988e-002
2.256401e+003;1.897622e-002
2.258330e+003;1.903400e-002
2.260258e+003;1.880748e-002
2.262187e+003;1.839009e-002
2.264115e+003;1.846846e-002
2.266044e+003;1.862822e-002
2.267972e+003;1.846638e-002
2.269901e+003;1.809637e-002
2.271830e+003;1.778620e-002
2.273758e+003;1.802853e-002
2.275687e+003;1.826691e-002
2.277615e+003;1.832815e-002
2.279544e+003;1.824282e-002
2.281472e+003;1.800204e-002
2.283401e+003;1.787855e-002
2.285329e+003;1.774924e-002
2.287258e+003;1.754843e-002
2.289187e+003;1.751493e-002
2.291115e+003;1.735886e-002
2.293043e+003;1.740776e-002
2.294972e+003;1.780274e-002
2.296901e+003;1.773208e-002
2.298829e+003;1.772438e-002
2.300758e+003;1.773729e-002
2.302686e+003;1.743532e-002
2.304615e+003;1.744491e-002
2.306543e+003;1.769398e-002
2.308472e+003;1.795997e-002
2.310400e+003;1.800017e-002
2.312329e+003;1.776107e-002
2.314258e+003;1.782863e-002
2.316186e+003;1.812898e-002
2.318115e+003;1.820046e-002
2.320043e+003;1.827734e-002
2.321972e+003;1.833910e-002
2.323900e+003;1.847575e-002
2.325829e+003;1.878326e-002
2.327757e+003;1.887918e-002
2.329686e+003;1.887807e-002
2.331615e+003;1.908911e-002
2.333543e+003;1.923930e-002
2.335472e+003;1.919428e-002
2.337400e+003;1.928294e-002
2.339329e+003;1.949047e-002
2.341257e+003;1.941324e-002
2.343186e+003;1.930061e-002
2.345114e+003;1.930383e-002
2.347043e+003;1.958052e-002
2.348971e+003;1.996239e-002
2.350900e+003;1.984341e-002
2.352829e+003;1.966025e-002
2.354757e+003;1.994095e-002
2.356686e+003;2.022852e-002
2.358614e+003;2.034195e-002
2.360543e+003;2.052786e-002
2.362471e+003;2.060426e-002
2.364400e+003;2.034980e-002
2.366328e+003;2.016018e-002
2.368257e+003;2.027247e-002
2.370186e+003;2.044516e-002
2.372114e+003;2.039032e-002
2.374042e+003;2.019010e-002
2.375971e+003;2.018264e-002
2.377900e+003;2.025317e-002
2.379828e+003;2.045329e-002
2.381757e+003;2.055218e-002
2.383685e+003;2.041637e-002
2.385614e+003;2.016091e-002
2.387542e+003;2.000197e-002
2.389471e+003;2.022033e-002
2.391399e+003;2.064328e-002
2.393328e+003;2.089631e-002
2.395257e+003;2.101001e-002
2.397185e+003;2.105474e-002
2.399114e+003;2.113348e-002
2.401042e+003;2.132851e-002
2.402971e+003;2.141635e-002
2.404899e+003;2.131838e-002
2.406828e+003;2.134692e-002
2.408756e+003;2.123111e-002
2.410685e+003;2.089335e-002
2.412614e+003;2.096317e-002
2.414542e+003;2.126990e-002
2.416471e+003;2.138169e-002
2.418399e+003;2.154931e-002
2.420328e+003;2.164918e-002
2.422256e+003;2.191504e-002
2.424185e+003;2.222541e-002
2.426113e+003;2.207373e-002
2.428042e+003;2.179771e-002
2.429970e+003;2.169537e-002
2.431899e+003;2.184060e-002
2.433828e+003;2.162488e-002
2.435756e+003;2.112044e-002
2.437685e+003;2.103425e-002
2.439613e+003;2.127714e-002
2.441542e+003;2.127192e-002
2.443470e+003;2.128654e-002
2.445399e+003;2.145799e-002
2.447327e+003;2.139042e-002
2.449256e+003;2.123987e-002
2.451185e+003;2.105547e-002
2.453113e+003;2.096849e-002
2.455042e+003;2.092183e-002
2.456970e+003;2.081048e-002
2.458899e+003;2.085372e-002
2.460827e+003;2.072112e-002
2.462756e+003;2.038282e-002
2.464684e+003;2.026584e-002
2.466613e+003;2.062903e-002
2.468542e+003;2.099238e-002
2.470470e+003;2.098431e-002
2.472398e+003;2.092197e-002
2.474327e+003;2.070895e-002
2.476256e+003;2.083616e-002
2.478184e+003;2.151178e-002
2.480113e+003;2.178848e-002
2.482041e+003;2.152351e-002
2.483970e+003;2.152142e-002
2.485898e+003;2.156199e-002
2.487827e+003;2.154242e-002
2.489755e+003;2.182761e-002
2.491684e+003;2.181395e-002
2.493613e+003;2.165002e-002
2.495541e+003;2.147989e-002
2.497470e+003;2.156742e-002
2.499398e+003;2.192793e-002
2.501327e+003;2.187994e-002
2.503255e+003;2.171400e-002
2.505184e+003;2.152501e-002
2.507112e+003;2.155965e-002
2.509041e+003;2.195100e-002
2.510969e+003;2.218942e-002
2.512898e+003;2.227511e-002
2.514827e+003;2.267199e-002
2.516755e+003;2.282576e-002
2.518684e+003;2.287678e-002
2.520612e+003;2.322038e-002
2.522541e+003;2.357730e-002
2.524469e+003;2.372331e-002
2.526398e+003;2.380142e-002
2.528326e+003;2.420853e-002
2.530255e+003;2.432528e-002
2.532184e+003;2.422230e-002
2.534112e+003;2.456823e-002
2.536041e+003;2.485162e-002
2.537969e+003;2.486731e-002
2.539898e+003;2.503277e-002
2.541826e+003;2.535413e-002
2.543755e+003;2.549423e-002
2.545683e+003;2.565994e-002
2.547612e+003;2.592519e-002
2.549541e+003;2.619533e-002
2.551469e+003;2.647081e-002
2.553397e+003;2.667977e-002
2.555326e+003;2.702156e-002
2.557255e+003;2.758780e-002
2.559183e+003;2.805336e-002
2.561112e+003;2.816810e-002
2.563040e+003;2.825240e-002
2.564969e+003;2.860856e-002
2.566897e+003;2.924134e-002
2.568826e+003;3.005840e-002
2.570754e+003;3.051596e-002
2.572683e+003;3.080401e-002
2.574612e+003;3.113917e-002
2.576540e+003;3.157848e-002
2.578469e+003;3.216539e-002
2.580397e+003;3.272760e-002
2.582326e+003;3.298795e-002
2.584254e+003;3.260314e-002
2.586183e+003;3.179155e-002
2.588111e+003;3.104556e-002
2.590040e+003;3.061617e-002
2.591969e+003;3.057891e-002
2.593897e+003;3.023406e-002
2.595826e+003;3.008326e-002
2.597754e+003;3.014686e-002
2.599683e+003;3.006163e-002
2.601611e+003;3.015617e-002
2.603540e+003;3.061247e-002
2.605468e+003;3.112297e-002
2.607397e+003;3.133086e-002
2.609325e+003;3.151135e-002
2.611254e+003;3.174210e-002
2.613183e+003;3.196766e-002
2.615111e+003;3.226089e-002
2.617040e+003;3.235855e-002
2.618968e+003;3.227506e-002
2.620897e+003;3.202915e-002
2.622825e+003;3.194804e-002
2.624754e+003;3.195849e-002
2.626682e+003;3.163425e-002
2.628611e+003;3.143266e-002
2.630540e+003;3.152372e-002
2.632468e+003;3.145991e-002
2.634396e+003;3.138582e-002
2.636325e+003;3.154691e-002
2.638254e+003;3.168824e-002
2.640182e+003;3.175183e-002
2.642111e+003;3.203082e-002
2.644039e+003;3.247747e-002
2.645968e+003;3.272824e-002
2.647896e+003;3.290459e-002
2.649825e+003;3.326423e-002
2.651753e+003;3.363359e-002
2.653682e+003;3.383864e-002
2.655611e+003;3.405686e-002
2.657539e+003;3.455209e-002
2.659468e+003;3.489098e-002
2.661396e+003;3.488840e-002
2.663325e+003;3.479053e-002
2.665253e+003;3.519877e-002
2.667182e+003;3.552831e-002
2.669110e+003;3.546514e-002
2.671039e+003;3.533508e-002
2.672968e+003;3.557855e-002
2.674896e+003;3.604437e-002
2.676825e+003;3.632347e-002
2.678753e+003;3.631573e-002
2.680682e+003;3.628334e-002
2.682610e+003;3.615754e-002
2.684539e+003;3.601842e-002
2.686467e+003;3.625338e-002
2.688396e+003;3.655683e-002
2.690324e+003;3.652425e-002
2.692253e+003;3.645758e-002
2.694182e+003;3.644468e-002
2.696110e+003;3.666775e-002
2.698039e+003;3.701198e-002
2.699967e+003;3.724011e-002
2.701896e+003;3.767870e-002
2.703824e+003;3.843405e-002
2.705753e+003;3.895285e-002
2.707681e+003;3.954601e-002
2.709610e+003;4.045548e-002
2.711539e+003;4.133592e-002
2.713467e+003;4.240844e-002
2.715396e+003;4.390978e-002
2.717324e+003;4.574762e-002
2.719253e+003;4.715727e-002
2.721181e+003;4.818219e-002
2.723110e+003;4.885761e-002
2.725038e+003;4.854096e-002
2.726967e+003;4.742490e-002
2.728896e+003;4.637378e-002
2.730824e+003;4.526440e-002
2.732752e+003;4.391173e-002
2.734681e+003;4.273834e-002
2.736610e+003;4.212679e-002
2.738538e+003;4.172541e-002
2.740467e+003;4.091218e-002
2.742395e+003;3.987571e-002
2.744324e+003;3.922683e-002
2.746252e+003;3.865398e-002
2.748181e+003;3.811900e-002
2.750109e+003;3.805603e-002
2.752038e+003;3.834384e-002
2.753967e+003;3.849744e-002
2.755895e+003;3.869455e-002
2.757824e+003;3.884239e-002
2.759752e+003;3.924652e-002
2.761681e+003;3.973318e-002
2.763609e+003;4.035497e-002
2.765538e+003;4.062608e-002
2.767466e+003;4.097252e-002
2.769395e+003;4.156830e-002
2.771323e+003;4.181030e-002
2.773252e+003;4.221745e-002
2.775181e+003;4.241804e-002
2.777109e+003;4.253552e-002
2.779038e+003;4.354591e-002
2.780966e+003;4.500721e-002
2.782895e+003;4.635984e-002
2.784823e+003;4.760740e-002
2.786752e+003;4.894780e-002
2.788680e+003;5.047565e-002
2.790609e+003;5.209496e-002
2.792538e+003;5.358862e-002
2.794466e+003;5.498612e-002
2.796395e+003;5.606088e-002
2.798323e+003;5.745392e-002
2.800252e+003;5.931637e-002
2.802180e+003;6.104153e-002
2.804109e+003;6.292146e-002
2.806037e+003;6.502707e-002
2.807966e+003;6.707916e-002
2.809895e+003;6.867564e-002
2.811823e+003;7.018629e-002
2.813751e+003;7.219454e-002
2.815680e+003;7.440469e-002
2.817609e+003;7.622366e-002
2.819537e+003;7.841123e-002
2.821466e+003;8.156642e-002
2.823394e+003;8.531209e-002
2.825323e+003;9.004754e-002
2.827251e+003;9.583247e-002
2.829180e+003;1.028251e-001
2.831108e+003;1.109759e-001
2.833037e+003;1.192064e-001
2.834966e+003;1.261167e-001
2.836894e+003;1.304536e-001
2.838823e+003;1.313287e-001
2.840751e+003;1.295609e-001
2.842680e+003;1.266107e-001
2.844608e+003;1.227955e-001
2.846537e+003;1.185745e-001
2.848465e+003;1.156121e-001
2.850394e+003;1.136298e-001
2.852323e+003;1.122136e-001
2.854251e+003;1.114847e-001
2.856180e+003;1.118677e-001
2.858108e+003;1.141019e-001
2.860037e+003;1.183662e-001
2.861965e+003;1.243979e-001
2.863894e+003;1.315259e-001
2.865822e+003;1.371305e-001
2.867751e+003;1.396112e-001
2.869679e+003;1.405391e-001
2.871608e+003;1.407968e-001
2.873536e+003;1.408374e-001
2.875465e+003;1.406337e-001
2.877394e+003;1.396359e-001
2.879322e+003;1.381982e-001
2.881251e+003;1.371944e-001
2.883179e+003;1.368935e-001
2.885108e+003;1.367289e-001
2.887036e+003;1.373771e-001
2.888965e+003;1.393194e-001
2.890893e+003;1.414084e-001
2.892822e+003;1.437952e-001
2.894750e+003;1.472978e-001
2.896679e+003;1.518536e-001
2.898608e+003;1.566736e-001
2.900536e+003;1.616918e-001
2.902465e+003;1.664419e-001
2.904393e+003;1.714617e-001
2.906322e+003;1.766112e-001
2.908250e+003;1.810800e-001
2.910179e+003;1.850650e-001
2.912107e+003;1.884393e-001
2.914036e+003;1.913301e-001
2.915965e+003;1.939995e-001
2.917893e+003;1.948459e-001
2.919822e+003;1.928717e-001
2.921750e+003;1.888457e-001
2.923679e+003;1.838955e-001
2.925607e+003;1.777898e-001
2.927536e+003;1.702991e-001
2.929464e+003;1.619944e-001
2.931393e+003;1.541114e-001
2.933322e+003;1.463753e-001
2.935250e+003;1.389860e-001
2.937178e+003;1.331581e-001
2.939107e+003;1.302152e-001
2.941036e+003;1.306570e-001
2.942964e+003;1.340582e-001
2.944893e+003;1.399452e-001
2.946821e+003;1.470082e-001
2.948750e+003;1.534380e-001
2.950678e+003;1.573983e-001
2.952607e+003;1.583959e-001
2.954535e+003;1.568132e-001
2.956464e+003;1.531396e-001
2.958393e+003;1.479141e-001
2.960321e+003;1.428179e-001
2.962250e+003;1.378846e-001
2.964178e+003;1.319225e-001
2.966107e+003;1.250142e-001
2.968035e+003;1.176842e-001
2.969964e+003;1.113586e-001
2.971892e+003;1.055504e-001
2.973821e+003;9.989427e-002
2.975750e+003;9.476957e-002
2.977678e+003;9.004962e-002
2.979607e+003;8.580487e-002
2.981535e+003;8.218751e-002
2.983464e+003;7.882567e-002
2.985392e+003;7.551797e-002
2.987321e+003;7.261923e-002
2.989249e+003;7.028550e-002
2.991178e+003;6.821164e-002
2.993106e+003;6.591091e-002
2.995035e+003;6.355241e-002
2.996964e+003;6.126799e-002
2.998892e+003;5.897815e-002
3.000821e+003;5.657820e-002
3.002749e+003;5.444533e-002
3.004678e+003;5.279567e-002
3.006606e+003;5.127087e-002
3.008535e+003;4.966495e-002
3.010463e+003;4.811244e-002
3.012392e+003;4.655539e-002
3.014321e+003;4.492361e-002
3.016249e+003;4.364002e-002
3.018177e+003;4.262093e-002
3.020106e+003;4.171673e-002
3.022035e+003;4.073656e-002
3.023963e+003;3.976350e-002
3.025892e+003;3.884442e-002
3.027820e+003;3.806547e-002
3.029749e+003;3.746078e-002
3.031677e+003;3.685906e-002
3.033606e+003;3.635514e-002
3.035534e+003;3.606972e-002
3.037463e+003;3.521372e-002
3.039392e+003;3.459960e-002
3.041320e+003;3.406138e-002
3.043249e+003;3.340512e-002
3.045177e+003;3.345361e-002
3.047106e+003;3.373367e-002
3.049034e+003;3.357774e-002
3.050963e+003;3.304901e-002
3.052891e+003;3.289372e-002
3.054820e+003;3.280370e-002
3.056749e+003;3.237261e-002
3.058677e+003;3.227716e-002
3.060606e+003;3.224979e-002
3.062534e+003;3.209304e-002
3.064463e+003;3.179611e-002
3.066391e+003;3.142464e-002
3.068320e+003;3.123978e-002
3.070248e+003;3.141912e-002
3.072177e+003;3.142831e-002
3.074105e+003;3.134041e-002
3.076034e+003;3.148677e-002
3.077963e+003;3.118477e-002
3.079891e+003;3.095656e-002
3.081820e+003;3.102445e-002
3.083748e+003;3.113390e-002
3.085677e+003;3.100570e-002
3.087605e+003;3.074145e-002
3.089534e+003;3.056889e-002
3.091462e+003;3.065240e-002
3.093391e+003;3.070819e-002
3.095320e+003;3.050615e-002
3.097248e+003;3.048091e-002
3.099177e+003;3.045933e-002
3.101105e+003;3.040770e-002
3.103034e+003;3.062097e-002
3.104962e+003;3.079391e-002
3.106891e+003;3.058677e-002
3.108819e+003;3.038456e-002
3.110748e+003;3.052708e-002
3.112677e+003;3.094538e-002
3.114605e+003;3.105018e-002
3.116533e+003;3.094535e-002
3.118462e+003;3.069856e-002
3.120391e+003;3.029218e-002
3.122319e+003;3.051457e-002
3.124248e+003;3.103502e-002
3.126176e+003;3.119132e-002
3.128105e+003;3.117288e-002
3.130033e+003;3.123561e-002
3.131962e+003;3.085185e-002
3.133890e+003;3.088590e-002
3.135819e+003;3.151751e-002
3.137748e+003;3.171544e-002
3.139676e+003;3.163902e-002
3.141605e+003;3.189751e-002
3.143533e+003;3.204374e-002
3.145462e+003;3.191752e-002
3.147390e+003;3.197312e-002
3.149319e+003;3.219869e-002
3.151247e+003;3.204952e-002
3.153176e+003;3.193702e-002
3.155104e+003;3.213057e-002
3.157033e+003;3.214980e-002
3.158962e+003;3.197030e-002
3.160890e+003;3.209250e-002
3.162819e+003;3.212397e-002
3.164747e+003;3.242223e-002
3.166676e+003;3.263814e-002
3.168604e+003;3.255321e-002
3.170533e+003;3.248507e-002
3.172461e+003;3.238492e-002
3.174390e+003;3.264939e-002
3.176319e+003;3.296757e-002
3.178247e+003;3.279352e-002
3.180176e+003;3.260853e-002
3.182104e+003;3.293454e-002
3.184033e+003;3.317792e-002
3.185961e+003;3.292854e-002
3.187890e+003;3.292593e-002
3.189818e+003;3.346442e-002
3.191747e+003;3.358329e-002
3.193676e+003;3.330770e-002
3.195604e+003;3.337335e-002
3.197532e+003;3.363312e-002
3.199461e+003;3.369958e-002
3.201390e+003;3.344832e-002
3.203318e+003;3.332959e-002
3.205247e+003;3.342584e-002
3.207175e+003;3.360942e-002
3.209104e+003;3.370720e-002
3.211032e+003;3.339650e-002
3.212961e+003;3.305130e-002
3.214889e+003;3.303904e-002
3.216818e+003;3.301115e-002
3.218747e+003;3.305269e-002
3.220675e+003;3.316984e-002
3.222604e+003;3.325311e-002
3.224532e+003;3.307007e-002
3.226461e+003;3.283315e-002
3.228389e+003;3.272613e-002
3.230318e+003;3.253285e-002
3.232246e+003;3.245333e-002
3.234175e+003;3.237364e-002
3.236104e+003;3.188917e-002
3.238032e+003;3.180242e-002
3.239961e+003;3.202013e-002
3.241889e+003;3.217085e-002
3.243818e+003;3.227224e-002
3.245746e+003;3.224964e-002
3.247675e+003;3.161130e-002
3.249603e+003;3.112016e-002
3.251532e+003;3.132638e-002
3.253460e+003;3.143989e-002
3.255389e+003;3.133571e-002
3.257318e+003;3.142211e-002
3.259246e+003;3.169337e-002
3.261175e+003;3.215815e-002
3.263103e+003;3.218859e-002
3.265032e+003;3.224237e-002
3.266960e+003;3.202565e-002
3.268889e+003;3.138140e-002
3.270817e+003;3.137453e-002
3.272746e+003;3.184014e-002
3.274675e+003;3.197493e-002
3.276603e+003;3.158821e-002
3.278531e+003;3.184238e-002
3.280460e+003;3.229197e-002
3.282389e+003;3.231792e-002
3.284317e+003;3.227166e-002
3.286246e+003;3.230090e-002
3.288174e+003;3.240060e-002
3.290103e+003;3.196149e-002
3.292031e+003;3.125064e-002
3.293960e+003;3.149126e-002
3.295888e+003;3.189683e-002
3.297817e+003;3.202569e-002
3.299746e+003;3.212979e-002
3.301674e+003;3.162477e-002
3.303603e+003;3.125327e-002
3.305531e+003;3.163061e-002
3.307460e+003;3.166372e-002
3.309388e+003;3.167477e-002
3.311317e+003;3.188186e-002
3.313245e+003;3.218734e-002
3.315174e+003;3.205062e-002
3.317103e+003;3.132103e-002
3.319031e+003;3.120951e-002
3.320960e+003;3.121927e-002
3.322888e+003;3.099442e-002
3.324817e+003;3.123123e-002
3.326745e+003;3.142991e-002
3.328674e+003;3.143661e-002
3.330602e+003;3.107207e-002
3.332531e+003;3.110065e-002
3.334459e+003;3.147309e-002
3.336388e+003;3.191185e-002
3.338317e+003;3.182713e-002
3.340245e+003;3.142649e-002
3.342174e+003;3.114426e-002
3.344102e+003;3.100961e-002
3.346031e+003;3.126765e-002
3.347959e+003;3.143611e-002
3.349888e+003;3.172175e-002
3.351816e+003;3.161326e-002
3.353745e+003;3.117662e-002
3.355674e+003;3.122347e-002
3.357602e+003;3.109642e-002
3.359531e+003;3.077655e-002
3.361459e+003;3.062296e-002
3.363388e+003;3.066616e-002
3.365316e+003;3.091678e-002
3.367245e+003;3.067121e-002
3.369173e+003;2.996410e-002
3.371102e+003;2.986691e-002
3.373031e+003;2.997347e-002
3.374959e+003;3.001160e-002
3.376887e+003;3.010399e-002
3.378816e+003;3.005013e-002
3.380745e+003;2.953018e-002
3.382673e+003;2.895729e-002
3.384602e+003;2.885438e-002
3.386530e+003;2.907734e-002
3.388459e+003;2.906420e-002
3.390387e+003;2.916341e-002
3.392316e+003;2.942074e-002
3.394244e+003;2.928497e-002
3.396173e+003;2.925998e-002
3.398102e+003;2.913740e-002
3.400030e+003;2.889510e-002
3.401959e+003;2.882814e-002
3.403887e+003;2.901152e-002
3.405816e+003;2.911500e-002
3.407744e+003;2.904797e-002
3.409673e+003;2.882120e-002
3.411601e+003;2.846698e-002
3.413530e+003;2.849688e-002
3.415458e+003;2.846108e-002
3.417387e+003;2.823542e-002
3.419316e+003;2.801642e-002
3.421244e+003;2.766686e-002
3.423173e+003;2.771559e-002
3.425101e+003;2.789854e-002
3.427030e+003;2.777316e-002
3.428958e+003;2.740466e-002
3.430887e+003;2.729527e-002
3.432815e+003;2.716964e-002
3.434744e+003;2.705597e-002
3.436673e+003;2.681744e-002
3.438601e+003;2.655875e-002
3.440530e+003;2.616091e-002
3.442458e+003;2.610771e-002
3.444387e+003;2.611713e-002
3.446315e+003;2.579465e-002
3.448244e+003;2.569962e-002
3.450172e+003;2.592794e-002
3.452101e+003;2.590838e-002
3.454030e+003;2.564222e-002
3.455958e+003;2.531113e-002
3.457886e+003;2.497198e-002
3.459815e+003;2.483278e-002
3.461744e+003;2.476767e-002
3.463672e+003;2.502733e-002
3.465601e+003;2.497984e-002
3.467529e+003;2.415339e-002
3.469458e+003;2.347890e-002
3.471386e+003;2.350863e-002
3.473315e+003;2.370595e-002
3.475243e+003;2.354974e-002
3.477172e+003;2.336980e-002
3.479101e+003;2.344586e-002
3.481029e+003;2.347219e-002
3.482958e+003;2.318298e-002
3.484886e+003;2.293707e-002
3.486815e+003;2.299642e-002
3.488743e+003;2.276231e-002
3.490672e+003;2.270480e-002
3.492600e+003;2.258228e-002
3.494529e+003;2.199784e-002
3.496458e+003;2.179005e-002
3.498386e+003;2.171446e-002
3.500315e+003;2.128734e-002
3.502243e+003;2.148128e-002
3.504172e+003;2.205295e-002
3.506100e+003;2.228428e-002
3.508029e+003;2.184604e-002
3.509957e+003;2.114183e-002
3.511886e+003;2.097054e-002
3.513814e+003;2.106816e-002
3.515743e+003;2.138701e-002
3.517672e+003;2.177200e-002
3.519600e+003;2.160116e-002
3.521529e+003;2.131518e-002
3.523457e+003;2.104020e-002
3.525386e+003;2.056872e-002
3.527314e+003;2.012207e-002
3.529243e+003;1.986644e-002
3.531171e+003;2.009809e-002
3.533100e+003;2.017295e-002
3.535029e+003;1.969277e-002
3.536957e+003;1.917624e-002
3.538885e+003;1.895618e-002
3.540814e+003;1.895158e-002
3.542743e+003;1.899218e-002
3.544671e+003;1.909033e-002
3.546600e+003;1.895497e-002
3.548528e+003;1.852962e-002
3.550457e+003;1.824714e-002
3.552385e+003;1.797064e-002
3.554314e+003;1.787355e-002
3.556242e+003;1.841995e-002
3.558171e+003;1.851590e-002
3.560100e+003;1.790704e-002
3.562028e+003;1.753391e-002
3.563957e+003;1.745653e-002
3.565885e+003;1.691781e-002
3.567814e+003;1.702269e-002
3.569742e+003;1.772618e-002
3.571671e+003;1.738686e-002
3.573599e+003;1.708331e-002
3.575528e+003;1.689683e-002
3.577457e+003;1.634580e-002
3.579385e+003;1.605221e-002
3.581314e+003;1.612511e-002
3.583242e+003;1.626574e-002
3.585171e+003;1.619750e-002
3.587099e+003;1.591997e-002
3.589028e+003;1.531813e-002
3.590956e+003;1.522149e-002
3.592885e+003;1.522458e-002
3.594813e+003;1.523529e-002
3.596742e+003;1.534886e-002
3.598671e+003;1.529071e-002
3.600599e+003;1.510987e-002
3.602528e+003;1.482570e-002
3.604456e+003;1.460846e-002
3.606385e+003;1.436088e-002
3.608313e+003;1.446137e-002
3.610242e+003;1.474884e-002
3.612170e+003;1.492795e-002
3.614099e+003;1.482570e-002
3.616028e+003;1.406370e-002
3.617956e+003;1.372330e-002
3.619885e+003;1.361949e-002
3.621813e+003;1.354972e-002
3.623742e+003;1.367817e-002
3.625670e+003;1.367707e-002
3.627599e+003;1.328572e-002
3.629527e+003;1.318899e-002
3.631456e+003;1.344144e-002
3.633385e+003;1.365943e-002
3.635313e+003;1.390941e-002
3.637241e+003;1.397360e-002
3.639170e+003;1.361611e-002
3.641099e+003;1.314414e-002
3.643027e+003;1.329256e-002
3.644956e+003;1.355290e-002
3.646884e+003;1.295911e-002
3.648813e+003;1.251650e-002
3.650741e+003;1.296061e-002
3.652670e+003;1.328880e-002
3.654598e+003;1.279811e-002
3.656527e+003;1.256855e-002
3.658456e+003;1.290657e-002
3.660384e+003;1.302657e-002
3.662313e+003;1.274764e-002
3.664241e+003;1.248107e-002
3.666170e+003;1.245468e-002
3.668098e+003;1.202580e-002
3.670027e+003;1.175466e-002
3.671955e+003;1.228044e-002
3.673884e+003;1.245096e-002
3.675813e+003;1.250477e-002
3.677741e+003;1.308359e-002
3.679669e+003;1.300598e-002
3.681598e+003;1.276689e-002
3.683527e+003;1.290043e-002
3.685455e+003;1.300875e-002
3.687384e+003;1.295890e-002
3.689312e+003;1.286671e-002
3.691241e+003;1.324647e-002
3.693169e+003;1.365180e-002
3.695098e+003;1.368942e-002
3.697026e+003;1.391797e-002
3.698955e+003;1.397223e-002
3.700884e+003;1.360541e-002
3.702812e+003;1.365659e-002
3.704741e+003;1.348788e-002
3.706669e+003;1.288951e-002
3.708598e+003;1.270581e-002
3.710526e+003;1.299793e-002
3.712455e+003;1.329987e-002
3.714383e+003;1.329167e-002
3.716312e+003;1.309913e-002
3.718240e+003;1.288664e-002
3.720169e+003;1.233351e-002
3.722098e+003;1.211915e-002
3.724026e+003;1.276999e-002
3.725955e+003;1.330947e-002
3.727883e+003;1.315671e-002
3.729812e+003;1.316351e-002
3.731740e+003;1.292323e-002
3.733669e+003;1.248199e-002
3.735597e+003;1.263151e-002
3.737526e+003;1.317020e-002
3.739455e+003;1.334237e-002
3.741383e+003;1.355423e-002
3.743312e+003;1.342855e-002
3.745240e+003;1.319100e-002
3.747169e+003;1.239804e-002
3.749097e+003;1.208344e-002
3.751026e+003;1.252431e-002
3.752954e+003;1.291531e-002
3.754883e+003;1.341389e-002
3.756812e+003;1.337886e-002
3.758740e+003;1.346809e-002
3.760668e+003;1.404139e-002
3.762597e+003;1.428951e-002
3.764526e+003;1.400457e-002
3.766454e+003;1.371140e-002
3.768383e+003;1.306003e-002
3.770311e+003;1.272117e-002
3.772240e+003;1.335207e-002
3.774168e+003;1.384571e-002
3.776097e+003;1.405073e-002
3.778025e+003;1.422904e-002
3.779954e+003;1.371691e-002
3.781883e+003;1.363153e-002
3.783811e+003;1.375706e-002
3.785740e+003;1.371633e-002
3.787668e+003;1.356872e-002
3.789597e+003;1.346659e-002
3.791525e+003;1.361023e-002
3.793454e+003;1.421559e-002
3.795382e+003;1.442722e-002
3.797311e+003;1.425766e-002
3.799240e+003;1.382656e-002
3.801168e+003;1.313178e-002
3.803097e+003;1.318168e-002
3.805025e+003;1.329905e-002
3.806954e+003;1.334657e-002
3.808882e+003;1.396002e-002
3.810811e+003;1.401908e-002
3.812739e+003;1.323527e-002
3.814668e+003;1.240435e-002
3.816596e+003;1.276471e-002
3.818525e+003;1.343426e-002
3.820454e+003;1.359932e-002
3.822382e+003;1.445568e-002
3.824311e+003;1.545147e-002
3.826239e+003;1.512185e-002
3.828168e+003;1.422733e-002
3.830096e+003;1.371701e-002
3.832025e+003;1.398226e-002
3.833953e+003;1.415496e-002
3.835882e+003;1.387773e-002
3.837811e+003;1.377296e-002
3.839739e+003;1.403694e-002
3.841667e+003;1.415499e-002
3.843596e+003;1.429043e-002
3.845525e+003;1.428650e-002
3.847453e+003;1.437533e-002
3.849382e+003;1.468159e-002
3.851310e+003;1.444061e-002
3.853239e+003;1.394353e-002
3.855167e+003;1.419128e-002
3.857096e+003;1.477760e-002
3.859024e+003;1.479759e-002
3.860953e+003;1.453599e-002
3.862882e+003;1.439660e-002
3.864810e+003;1.443171e-002
3.866739e+003;1.485059e-002
3.868667e+003;1.485484e-002
3.870596e+003;1.521106e-002
3.872524e+003;1.524671e-002
3.874453e+003;1.451550e-002
3.876381e+003;1.440811e-002
3.878310e+003;1.457553e-002
3.880239e+003;1.464567e-002
3.882167e+003;1.465013e-002
3.884096e+003;1.455637e-002
3.886024e+003;1.495566e-002
3.887953e+003;1.514813e-002
3.889881e+003;1.508277e-002
3.891810e+003;1.492863e-002
3.893738e+003;1.482375e-002
3.895667e+003;1.517887e-002
3.897595e+003;1.547464e-002
3.899524e+003;1.503866e-002
3.901453e+003;1.422106e-002
3.903381e+003;1.439358e-002
3.905310e+003;1.468642e-002
3.907238e+003;1.419388e-002
3.909167e+003;1.434255e-002
3.911095e+003;1.473811e-002
3.913024e+003;1.492579e-002
3.914952e+003;1.527626e-002
3.916881e+003;1.483547e-002
3.918810e+003;1.425424e-002
3.920738e+003;1.459304e-002
3.922667e+003;1.511327e-002
3.924595e+003;1.530506e-002
3.926524e+003;1.513533e-002
3.928452e+003;1.551437e-002
3.930381e+003;1.590663e-002
3.932309e+003;1.579762e-002
3.934238e+003;1.570015e-002
3.936167e+003;1.556293e-002
3.938095e+003;1.518848e-002
3.940023e+003;1.574519e-002
3.941952e+003;1.632381e-002
3.943881e+003;1.607102e-002
3.945809e+003;1.546692e-002
3.947738e+003;1.481524e-002
3.949666e+003;1.473838e-002
3.951595e+003;1.508706e-002
3.953523e+003;1.534631e-002
3.955452e+003;1.545037e-002
3.957380e+003;1.525461e-002
3.959309e+003;1.573272e-002
3.961238e+003;1.632667e-002
3.963166e+003;1.620194e-002
3.965095e+003;1.627149e-002
3.967023e+003;1.610864e-002
3.968952e+003;1.529950e-002
3.970880e+003;1.489438e-002
3.972809e+003;1.536928e-002
3.974737e+003;1.607439e-002
3.976666e+003;1.666502e-002
3.978594e+003;1.635467e-002
3.980523e+003;1.603086e-002
3.982452e+003;1.630430e-002
3.984380e+003;1.612291e-002
3.986309e+003;1.645281e-002
3.988237e+003;1.692797e-002
3.990166e+003;1.639741e-002
3.992094e+003;1.617614e-002
3.994023e+003;1.679456e-002
3.995951e+003;1.715824e-002
3.997880e+003;1.748868e-002
3.999809e+003;1.765194e-002
4.001737e+003;0.000000e+000
