3.992094e+002;0.000000e+000
4.011380e+002;0.000000e+000
4.030665e+002;0.000000e+000
4.049951e+002;0.000000e+000
4.069236e+002;0.000000e+000
4.088522e+002;0.000000e+000
4.107807e+002;0.000000e+000
4.127093e+002;0.000000e+000
4.146378e+002;0.000000e+000
4.165664e+002;0.000000e+000
4.184949e+002;0.000000e+000
4.204235e+002;0.000000e+000
4.223520e+002;0.000000e+000
4.242806e+002;0.000000e+000
4.262091e+002;0.000000e+000
4.281377e+002;0.000000e+000
4.300662e+002;0.000000e+000
4.319948e+002;0.000000e+000
4.339233e+002;0.000000e+000
4.358519e+002;0.000000e+000
4.377804e+002;0.000000e+000
4.397090e+002;0.000000e+000
4.416375e+002;0.000000e+000
4.435660e+002;0.000000e+000
4.454946e+002;0.000000e+000
4.474232e+002;0.000000e+000
4.493517e+002;0.000000e+000
4.512802e+002;0.000000e+000
4.532088e+002;0.000000e+000
4.551373e+002;0.000000e+000
4.570659e+002;0.000000e+000
4.589944e+002;0.000000e+000
4.609230e+002;0.000000e+000
4.628515e+002;0.000000e+000
4.647801e+002;0.000000e+000
4.667086e+002;0.000000e+000
4.686372e+002;0.000000e+000
4.705657e+002;0.000000e+000
4.724943e+002;0.000000e+000
4.744228e+002;0.000000e+000
4.763513e+002;0.000000e+000
4.782799e+002;0.000000e+000
4.802085e+002;0.000000e+000
4.821370e+002;0.000000e+000
4.840656e+002;0.000000e+000
4.859941e+002;0.000000e+000
4.879226e+002;0.000000e+000
4.898512e+002;0.000000e+000
4.917798e+002;0.000000e+000
4.937083e+002;0.000000e+000
4.956368e+002;0.000000e+000
4.975654e+002;0.000000e+000
4.994939e+002;0.000000e+000
5.014225e+002;0.000000e+000
5.033510e+002;0.000000e+000
5.052796e+002;0.000000e+000
5.072081e+002;0.000000e+000
5.091367e+002;0.000000e+000
5.110652e+002;0.000000e+000
5.129938e+002;0.000000e+000
5.149223e+002;0.000000e+000
5.168509e+002;0.000000e+000
5.187794e+002;0.000000e+000
5.207079e+002;0.000000e+000
5.226365e+002;0.000000e+000
5.245651e+002;0.000000e+000
5.264936e+002;0.000000e+000
5.284222e+002;0.000000e+000
5.303507e+002;0.000000e+000
5.322792e+002;0.000000e+000
5.342078e+002;0.000000e+000
5.361364e+002;0.000000e+000
5.380649e+002;0.000000e+000
5.399935e+002;0.000000e+000
5.419220e+002;0.000000e+000
5.438505e+002;0.000000e+000
5.457791e+002;0.000000e+000
5.477076e+002;0.000000e+000
5.496362e+002;0.000000e+000
5.515648e+002;0.000000e+000
5.534933e+002;0.000000e+000
5.554218e+002;0.000000e+000
5.573504e+002;0.000000e+000
5.592789e+002;0.000000e+000
5.612075e+002;0.000000e+000
5.631360e+002;0.000000e+000
5.650646e+002;0.000000e+000
5.669931e+002;0.000000e+000
5.689217e+002;0.000000e+000
5.708502e+002;0.000000e+000
5.727787e+002;0.000000e+000
5.747073e+002;0.000000e+000
5.766359e+002;0.000000e+000
5.785644e+002;0.000000e+000
5.804930e+002;0.000000e+000
5.824215e+002;0.000000e+000
5.843500e+002;0.000000e+000
5.862786e+002;0.000000e+000
5.882072e+002;0.000000e+000
5.901357e+002;0.000000e+000
5.920643e+002;0.000000e+000
5.939928e+002;0.000000e+000
5.959213e+002;0.000000e+000
5.978499e+002;0.000000e+000
5.997784e+002;3.894817e-002
6.017070e+002;4.076309e-002
6.036355e+002;4.078034e-002
6.055641e+002;3.377034e-002
6.074926e+002;3.060853e-002
6.094211e+002;3.278476e-002
6.113497e+002;3.712746e-002
6.132783e+002;3.976404e-002
6.152068e+002;3.794030e-002
6.171354e+002;3.523266e-002
6.190639e+002;4.019428e-002
6.209924e+002;4.527205e-002
6.229210e+002;4.470911e-002
6.248495e+002;4.503790e-002
6.267781e+002;4.451399e-002
6.287067e+002;3.865203e-002
6.306352e+002;3.620936e-002
6.325637e+002;3.507023e-002
6.344923e+002;3.297340e-002
6.364208e+002;3.535751e-002
6.383494e+002;3.869107e-002
6.402780e+002;3.402963e-002
6.422065e+002;3.246751e-002
6.441350e+002;3.597166e-002
6.460636e+002;3.902509e-002
6.479921e+002;3.708339e-002
6.499207e+002;3.700484e-002
6.518492e+002;3.780957e-002
6.537778e+002;3.519931e-002
6.557063e+002;3.795679e-002
6.576349e+002;4.216520e-002
6.595634e+002;4.049814e-002
6.614919e+002;3.940848e-002
6.634205e+002;3.807639e-002
6.653491e+002;3.683781e-002
6.672776e+002;3.527531e-002
6.692062e+002;3.609993e-002
6.711347e+002;3.769052e-002
6.730632e+002;3.719925e-002
6.749918e+002;3.727827e-002
6.769203e+002;3.807805e-002
6.788489e+002;3.732478e-002
6.807775e+002;3.709627e-002
6.827060e+002;3.635287e-002
6.846345e+002;3.654847e-002
6.865631e+002;3.690086e-002
6.884916e+002;3.716297e-002
6.904202e+002;3.680773e-002
6.923488e+002;3.752496e-002
6.942773e+002;3.855653e-002
6.962058e+002;3.876971e-002
6.981344e+002;3.985138e-002
7.000629e+002;4.060655e-002
7.019915e+002;4.127656e-002
7.039200e+002;4.264461e-002
7.058486e+002;4.436284e-002
7.077771e+002;4.864372e-002
7.097057e+002;5.873543e-002
7.116342e+002;7.271327e-002
7.135627e+002;7.709056e-002
7.154913e+002;6.752129e-002
7.174199e+002;5.626484e-002
7.193484e+002;4.974178e-002
7.212770e+002;4.565125e-002
7.232055e+002;4.361789e-002
7.251340e+002;4.174551e-002
7.270626e+002;4.123101e-002
7.289911e+002;4.150344e-002
7.309197e+002;4.135902e-002
7.328483e+002;3.980210e-002
7.347768e+002;3.884681e-002
7.367053e+002;3.924503e-002
7.386339e+002;3.868386e-002
7.405624e+002;3.881747e-002
7.424910e+002;4.002839e-002
7.444196e+002;3.961225e-002
7.463481e+002;3.899913e-002
7.482766e+002;3.930317e-002
7.502052e+002;4.063351e-002
7.521337e+002;4.207290e-002
7.540623e+002;4.247413e-002
7.559908e+002;4.173052e-002
7.579194e+002;4.150708e-002
7.598479e+002;4.208279e-002
7.617765e+002;4.264370e-002
7.637050e+002;4.329819e-002
7.656335e+002;4.381606e-002
7.675621e+002;4.298874e-002
7.694907e+002;4.198388e-002
7.714192e+002;4.147067e-002
7.733478e+002;4.176156e-002
7.752763e+002;4.173566e-002
7.772048e+002;4.153407e-002
7.791334e+002;4.186787e-002
7.810620e+002;4.199209e-002
7.829905e+002;4.316434e-002
7.849191e+002;4.570617e-002
7.868476e+002;4.692313e-002
7.887761e+002;4.777351e-002
7.907047e+002;4.886533e-002
7.926332e+002;5.009873e-002
7.945618e+002;5.233811e-002
7.964903e+002;5.467752e-002
7.984189e+002;5.707739e-002
8.003474e+002;5.970314e-002
8.022759e+002;6.222615e-002
8.042045e+002;6.517214e-002
8.061331e+002;6.797715e-002
8.080616e+002;7.002755e-002
8.099902e+002;6.997028e-002
8.119187e+002;6.765044e-002
8.138472e+002;6.411518e-002
8.157758e+002;6.111159e-002
8.177043e+002;5.945951e-002
8.196329e+002;5.812696e-002
8.215615e+002;5.744314e-002
8.234900e+002;5.656408e-002
8.254185e+002;5.537371e-002
8.273471e+002;5.582863e-002
8.292756e+002;5.576451e-002
8.312042e+002;5.524609e-002
8.331328e+002;5.653453e-002
8.350613e+002;5.896525e-002
8.369898e+002;6.309890e-002
8.389184e+002;7.076225e-002
8.408469e+002;7.735117e-002
8.427755e+002;7.690470e-002
8.447040e+002;7.329381e-002
8.466326e+002;7.224235e-002
8.485611e+002;6.924246e-002
8.504897e+002;6.336953e-002
8.524182e+002;6.026448e-002
8.543467e+002;5.989368e-002
8.562753e+002;5.960925e-002
8.582039e+002;5.952575e-002
8.601324e+002;6.104130e-002
8.620610e+002;6.402240e-002
8.639895e+002;6.782366e-002
8.659180e+002;7.367062e-002
8.678466e+002;8.298591e-002
8.697751e+002;9.475148e-002
8.717037e+002;1.090734e-001
8.736323e+002;1.236179e-001
8.755608e+002;1.304388e-001
8.774893e+002;1.230040e-001
8.794179e+002;1.055621e-001
8.813464e+002;8.916043e-002
8.832750e+002;7.713626e-002
8.852036e+002;6.641416e-002
8.871321e+002;5.815121e-002
8.890606e+002;5.435377e-002
8.909892e+002;5.428450e-002
8.929177e+002;5.609782e-002
8.948463e+002;5.978907e-002
8.967748e+002;6.441430e-002
8.987034e+002;6.712216e-002
9.006319e+002;6.624219e-002
9.025605e+002;6.189433e-002
9.044890e+002;5.663844e-002
9.064175e+002;5.304868e-002
9.083461e+002;5.059265e-002
9.102747e+002;4.888146e-002
9.122032e+002;4.798390e-002
9.141318e+002;4.737981e-002
9.160603e+002;4.664691e-002
9.179888e+002;4.590146e-002
9.199174e+002;4.560212e-002
9.218459e+002;4.540663e-002
9.237745e+002;4.538423e-002
9.257031e+002;4.574446e-002
9.276316e+002;4.578588e-002
9.295601e+002;4.538133e-002
9.314887e+002;4.551516e-002
9.334172e+002;4.648403e-002
9.353458e+002;4.766763e-002
9.372744e+002;4.898826e-002
9.392029e+002;5.008177e-002
9.411314e+002;5.088643e-002
9.430600e+002;5.078575e-002
9.449885e+002;4.993302e-002
9.469171e+002;4.987690e-002
9.488456e+002;5.008382e-002
9.507742e+002;5.027562e-002
9.527027e+002;5.083749e-002
9.546313e+002;5.133333e-002
9.565598e+002;5.192678e-002
9.584883e+002;5.305134e-002
9.604169e+002;5.477132e-002
9.623455e+002;5.733862e-002
9.642740e+002;6.109717e-002
9.662026e+002;6.617913e-002
9.681311e+002;7.368997e-002
9.700596e+002;8.299108e-002
9.719882e+002;9.061442e-002
9.739167e+002;9.284212e-002
9.758453e+002;8.858053e-002
9.777739e+002;7.962157e-002
9.797024e+002;6.952274e-002
9.816309e+002;6.100542e-002
9.835595e+002;5.556168e-002
9.854880e+002;5.324992e-002
9.874166e+002;5.289521e-002
9.893452e+002;5.457107e-002
9.912737e+002;5.914130e-002
9.932022e+002;6.590628e-002
9.951307e+002;7.295935e-002
9.970593e+002;7.839714e-002
9.989879e+002;7.884324e-002
1.000916e+003;7.365684e-002
1.002845e+003;6.729193e-002
1.004773e+003;6.281760e-002
1.006702e+003;5.982066e-002
1.008631e+003;5.782786e-002
1.010559e+003;5.689960e-002
1.012488e+003;5.607487e-002
1.014416e+003;5.503583e-002
1.016345e+003;5.416328e-002
1.018273e+003;5.358844e-002
1.020202e+003;5.350343e-002
1.022130e+003;5.338996e-002
1.024059e+003;5.291164e-002
1.025988e+003;5.316270e-002
1.027916e+003;5.398048e-002
1.029845e+003;5.500067e-002
1.031773e+003;5.615559e-002
1.033702e+003;5.786761e-002
1.035630e+003;5.934045e-002
1.037559e+003;5.959575e-002
1.039487e+003;5.925864e-002
1.041416e+003;5.844519e-002
1.043344e+003;5.731779e-002
1.045273e+003;5.593336e-002
1.047202e+003;5.427229e-002
1.049130e+003;5.224045e-002
1.051059e+003;5.087090e-002
1.052987e+003;4.978451e-002
1.054916e+003;4.884983e-002
1.056844e+003;4.788722e-002
1.058773e+003;4.747631e-002
1.060701e+003;4.742024e-002
1.062630e+003;4.726391e-002
1.064558e+003;4.688097e-002
1.066487e+003;4.670166e-002
1.068416e+003;4.688861e-002
1.070344e+003;4.719043e-002
1.072273e+003;4.734013e-002
1.074201e+003;4.749475e-002
1.076130e+003;4.794960e-002
1.078058e+003;4.857231e-002
1.079987e+003;4.937117e-002
1.081915e+003;4.993340e-002
1.083844e+003;5.031505e-002
1.085773e+003;5.102187e-002
1.087701e+003;5.241777e-002
1.089630e+003;5.381622e-002
1.091558e+003;5.503320e-002
1.093487e+003;5.666355e-002
1.095415e+003;5.832664e-002
1.097344e+003;6.009139e-002
1.099272e+003;6.264992e-002
1.101201e+003;6.443933e-002
1.103129e+003;6.463819e-002
1.105058e+003;6.390093e-002
1.106987e+003;6.268410e-002
1.108915e+003;6.058519e-002
1.110844e+003;5.802304e-002
1.112772e+003;5.570548e-002
1.114701e+003;5.377890e-002
1.116629e+003;5.181861e-002
1.118558e+003;4.987567e-002
1.120486e+003;4.830641e-002
1.122415e+003;4.702155e-002
1.124344e+003;4.620720e-002
1.126272e+003;4.593840e-002
1.128201e+003;4.573710e-002
1.130129e+003;4.621211e-002
1.132058e+003;4.705434e-002
1.133986e+003;4.840141e-002
1.135915e+003;5.007266e-002
1.137843e+003;5.223014e-002
1.139772e+003;5.501428e-002
1.141700e+003;5.769872e-002
1.143629e+003;6.059970e-002
1.145557e+003;6.360289e-002
1.147486e+003;6.671402e-002
1.149415e+003;7.036209e-002
1.151343e+003;7.374027e-002
1.153272e+003;7.578809e-002
1.155200e+003;7.656804e-002
1.157129e+003;7.693069e-002
1.159057e+003;7.764822e-002
1.160986e+003;7.875191e-002
1.162914e+003;7.949188e-002
1.164843e+003;8.009662e-002
1.166771e+003;8.096806e-002
1.168700e+003;8.031650e-002
1.170629e+003;7.638121e-002
1.172557e+003;7.059986e-002
1.174486e+003;6.517726e-002
1.176414e+003;6.057365e-002
1.178343e+003;5.737859e-002
1.180271e+003;5.595345e-002
1.182200e+003;5.564431e-002
1.184128e+003;5.585317e-002
1.186057e+003;5.623573e-002
1.187986e+003;5.674744e-002
1.189914e+003;5.714262e-002
1.191843e+003;5.668337e-002
1.193771e+003;5.633821e-002
1.195700e+003;5.671916e-002
1.197628e+003;5.745426e-002
1.199557e+003;5.772014e-002
1.201485e+003;5.750725e-002
1.203414e+003;5.709761e-002
1.205343e+003;5.692589e-002
1.207271e+003;5.721156e-002
1.209200e+003;5.862404e-002
1.211128e+003;6.115553e-002
1.213057e+003;6.351057e-002
1.214985e+003;6.377278e-002
1.216914e+003;6.204184e-002
1.218842e+003;6.039053e-002
1.220771e+003;5.932625e-002
1.222699e+003;5.882883e-002
1.224628e+003;5.885789e-002
1.226557e+003;5.939386e-002
1.228485e+003;5.994157e-002
1.230414e+003;6.000647e-002
1.232342e+003;6.023993e-002
1.234271e+003;6.078851e-002
1.236199e+003;6.114901e-002
1.238128e+003;6.120447e-002
1.240056e+003;6.155997e-002
1.241985e+003;6.234773e-002
1.243913e+003;6.276293e-002
1.245842e+003;6.324134e-002
1.247771e+003;6.438940e-002
1.249699e+003;6.632320e-002
1.251628e+003;6.946566e-002
1.253556e+003;7.370368e-002
1.255485e+003;7.730694e-002
1.257413e+003;7.787622e-002
1.259342e+003;7.556422e-002
1.261270e+003;7.256284e-002
1.263199e+003;7.043231e-002
1.265127e+003;6.888287e-002
1.267056e+003;6.737868e-002
1.268985e+003;6.563754e-002
1.270913e+003;6.377331e-002
1.272842e+003;6.253369e-002
1.274770e+003;6.201990e-002
1.276699e+003;6.147140e-002
1.278627e+003;6.115515e-002
1.280556e+003;6.130684e-002
1.282484e+003;6.165692e-002
1.284413e+003;6.230806e-002
1.286342e+003;6.324928e-002
1.288270e+003;6.418965e-002
1.290199e+003;6.531873e-002
1.292127e+003;6.648597e-002
1.294056e+003;6.769690e-002
1.295984e+003;6.846274e-002
1.297913e+003;6.863866e-002
1.299841e+003;6.888271e-002
1.301770e+003;6.957450e-002
1.303698e+003;7.035936e-002
1.305627e+003;6.939241e-002
1.307556e+003;6.713268e-002
1.309484e+003;6.544511e-002
1.311413e+003;6.504265e-002
1.313341e+003;6.571192e-002
1.315270e+003;6.676298e-002
1.317198e+003;6.754846e-002
1.319127e+003;6.840096e-002
1.321055e+003;6.951384e-002
1.322984e+003;7.073028e-002
1.324912e+003;7.261319e-002
1.326841e+003;7.449637e-002
1.328770e+003;7.570577e-002
1.330698e+003;7.612885e-002
1.332627e+003;7.605052e-002
1.334555e+003;7.598338e-002
1.336484e+003;7.565998e-002
1.338412e+003;7.555866e-002
1.340341e+003;7.622476e-002
1.342269e+003;7.791911e-002
1.344198e+003;8.024303e-002
1.346126e+003;8.308924e-002
1.348055e+003;8.637570e-002
1.349984e+003;9.013177e-002
1.351912e+003;9.486772e-002
1.353841e+003;1.010830e-001
1.355769e+003;1.083200e-001
1.357698e+003;1.137582e-001
1.359626e+003;1.151028e-001
1.361555e+003;1.138364e-001
1.363483e+003;1.136907e-001
1.365412e+003;1.168933e-001
1.367341e+003;1.245546e-001
1.369269e+003;1.396695e-001
1.371198e+003;1.628744e-001
1.373126e+003;1.901107e-001
1.375055e+003;2.114850e-001
1.376983e+003;2.110387e-001
1.378912e+003;1.874941e-001
1.380840e+003;1.576789e-001
1.382769e+003;1.328495e-001
1.384698e+003;1.155062e-001
1.386626e+003;1.051421e-001
1.388555e+003;1.012466e-001
1.390483e+003;1.011176e-001
1.392412e+003;1.014318e-001
1.394340e+003;1.019038e-001
1.396269e+003;1.041616e-001
1.398197e+003;1.065591e-001
1.400126e+003;1.087421e-001
1.402054e+003;1.106379e-001
1.403983e+003;1.119916e-001
1.405911e+003;1.138415e-001
1.407840e+003;1.161712e-001
1.409769e+003;1.182590e-001
1.411697e+003;1.207813e-001
1.413626e+003;1.237528e-001
1.415554e+003;1.266311e-001
1.417483e+003;1.283156e-001
1.419411e+003;1.305145e-001
1.421340e+003;1.347983e-001
1.423268e+003;1.383454e-001
1.425197e+003;1.414775e-001
1.427125e+003;1.445079e-001
1.429054e+003;1.473984e-001
1.430983e+003;1.516205e-001
1.432911e+003;1.567354e-001
1.434840e+003;1.590313e-001
1.436768e+003;1.585626e-001
1.438697e+003;1.599467e-001
1.440625e+003;1.619335e-001
1.442554e+003;1.649415e-001
1.444482e+003;1.699064e-001
1.446411e+003;1.760148e-001
1.448340e+003;1.824512e-001
1.450268e+003;1.879333e-001
1.452197e+003;1.902727e-001
1.454125e+003;1.887847e-001
1.456054e+003;1.839197e-001
1.457982e+003;1.811354e-001
1.459911e+003;1.796153e-001
1.461839e+003;1.743199e-001
1.463768e+003;1.651596e-001
1.465697e+003;1.554629e-001
1.467625e+003;1.463641e-001
1.469554e+003;1.364459e-001
1.471482e+003;1.259556e-001
1.473411e+003;1.183837e-001
1.475339e+003;1.141786e-001
1.477268e+003;1.109144e-001
1.479196e+003;1.080483e-001
1.481125e+003;1.046474e-001
1.483053e+003;1.014473e-001
1.484982e+003;9.832914e-002
1.486911e+003;9.514210e-002
1.488839e+003;9.231826e-002
1.490768e+003;9.057499e-002
1.492696e+003;8.987427e-002
1.494625e+003;8.736093e-002
1.496553e+003;8.441290e-002
1.498482e+003;8.356231e-002
1.500410e+003;8.308555e-002
1.502339e+003;8.133748e-002
1.504267e+003;7.666717e-002
1.506196e+003;7.155686e-002
1.508125e+003;7.129212e-002
1.510053e+003;7.207045e-002
1.511982e+003;7.105983e-002
1.513910e+003;6.974884e-002
1.515839e+003;6.727069e-002
1.517767e+003;6.523005e-002
1.519696e+003;6.261555e-002
1.521624e+003;6.035718e-002
1.523553e+003;6.085898e-002
1.525481e+003;6.051921e-002
1.527410e+003;5.990582e-002
1.529339e+003;5.941073e-002
1.531267e+003;5.793602e-002
1.533196e+003;5.594787e-002
1.535124e+003;5.597210e-002
1.537053e+003;5.410083e-002
1.538981e+003;4.950777e-002
1.540910e+003;4.901635e-002
1.542838e+003;5.120443e-002
1.544767e+003;5.265029e-002
1.546695e+003;5.404408e-002
1.548624e+003;5.433981e-002
1.550553e+003;5.395696e-002
1.552481e+003;5.311428e-002
1.554410e+003;5.180737e-002
1.556338e+003;4.917268e-002
1.558267e+003;4.426223e-002
1.560195e+003;4.491527e-002
1.562124e+003;4.905900e-002
1.564052e+003;5.008378e-002
1.565981e+003;5.002403e-002
1.567910e+003;4.871544e-002
1.569838e+003;4.732132e-002
1.571767e+003;4.807946e-002
1.573695e+003;4.700737e-002
1.575624e+003;4.408083e-002
1.577552e+003;4.492467e-002
1.579481e+003;4.672675e-002
1.581409e+003;4.695041e-002
1.583338e+003;4.681173e-002
1.585266e+003;4.640523e-002
1.587195e+003;4.606656e-002
1.589124e+003;4.560661e-002
1.591052e+003;4.502415e-002
1.592981e+003;4.447254e-002
1.594909e+003;4.406030e-002
1.596838e+003;4.410607e-002
1.598766e+003;4.418086e-002
1.600695e+003;4.406202e-002
1.602623e+003;4.414729e-002
1.604552e+003;4.435928e-002
1.606480e+003;4.404097e-002
1.608409e+003;4.338258e-002
1.610338e+003;4.340638e-002
1.612266e+003;4.392870e-002
1.614195e+003;4.350705e-002
1.616123e+003;4.213719e-002
1.618052e+003;4.351412e-002
1.619980e+003;4.483308e-002
1.621909e+003;4.339719e-002
1.623837e+003;4.224604e-002
1.625766e+003;4.209926e-002
1.627694e+003;4.158114e-002
1.629623e+003;4.159627e-002
1.631552e+003;4.139579e-002
1.633480e+003;3.929621e-002
1.635409e+003;3.699690e-002
1.637337e+003;3.868625e-002
1.639266e+003;4.059956e-002
1.641194e+003;4.087294e-002
1.643123e+003;4.012483e-002
1.645051e+003;3.771300e-002
1.646980e+003;3.677888e-002
1.648909e+003;3.821567e-002
1.650837e+003;3.553295e-002
1.652766e+003;3.118975e-002
1.654694e+003;3.475000e-002
1.656623e+003;3.890700e-002
1.658551e+003;3.945946e-002
1.660480e+003;3.878029e-002
1.662408e+003;3.795958e-002
1.664337e+003;3.864920e-002
1.666266e+003;3.884848e-002
1.668194e+003;3.707303e-002
1.670123e+003;3.631115e-002
1.672051e+003;3.682915e-002
1.673980e+003;3.591774e-002
1.675908e+003;3.600902e-002
1.677837e+003;3.758667e-002
1.679765e+003;3.743766e-002
1.681694e+003;3.577909e-002
1.683622e+003;3.240285e-002
1.685551e+003;3.320968e-002
1.687479e+003;3.600312e-002
1.689408e+003;3.628320e-002
1.691337e+003;3.652374e-002
1.693265e+003;3.526396e-002
1.695194e+003;3.185833e-002
1.697122e+003;3.180145e-002
1.699051e+003;3.102958e-002
1.700979e+003;3.095314e-002
1.702908e+003;3.368439e-002
1.704836e+003;3.394578e-002
1.706765e+003;3.433197e-002
1.708693e+003;3.472710e-002
1.710622e+003;3.489375e-002
1.712551e+003;3.428607e-002
1.714479e+003;3.268544e-002
1.716408e+003;3.043613e-002
1.718336e+003;3.098606e-002
1.720265e+003;3.357602e-002
1.722193e+003;3.436438e-002
1.724122e+003;3.447736e-002
1.726050e+003;3.496919e-002
1.727979e+003;3.487041e-002
1.729908e+003;3.431282e-002
1.731836e+003;3.225043e-002
1.733765e+003;2.992683e-002
1.735693e+003;3.208409e-002
1.737622e+003;3.362571e-002
1.739550e+003;3.304769e-002
1.741479e+003;3.381776e-002
1.743407e+003;3.410260e-002
1.745336e+003;3.353464e-002
1.747265e+003;3.229044e-002
1.749193e+003;3.071783e-002
1.751122e+003;2.973656e-002
1.753050e+003;3.036132e-002
1.754979e+003;2.986588e-002
1.756907e+003;2.907773e-002
1.758836e+003;2.906494e-002
1.760764e+003;2.799501e-002
1.762693e+003;2.762985e-002
1.764621e+003;2.814944e-002
1.766550e+003;2.721998e-002
1.768479e+003;2.619543e-002
1.770407e+003;2.531282e-002
1.772336e+003;2.447174e-002
1.774264e+003;2.564679e-002
1.776193e+003;2.667603e-002
1.778121e+003;2.663632e-002
1.780050e+003;2.642362e-002
1.781978e+003;2.701327e-002
1.783907e+003;2.764383e-002
1.785835e+003;2.850360e-002
1.787764e+003;3.009462e-002
1.789693e+003;3.196766e-002
1.791621e+003;3.427341e-002
1.793550e+003;3.751207e-002
1.795478e+003;3.972435e-002
1.797407e+003;3.992961e-002
1.799335e+003;3.896122e-002
1.801264e+003;3.659857e-002
1.803192e+003;3.362417e-002
1.805121e+003;3.078971e-002
1.807049e+003;2.838085e-002
1.808978e+003;2.653044e-002
1.810907e+003;2.569681e-002
1.812835e+003;2.563674e-002
1.814764e+003;2.569407e-002
1.816692e+003;2.536178e-002
1.818621e+003;2.510772e-002
1.820549e+003;2.501027e-002
1.822478e+003;2.471236e-002
1.824406e+003;2.413651e-002
1.826335e+003;2.412859e-002
1.828264e+003;2.373846e-002
1.830192e+003;2.357790e-002
1.832121e+003;2.443904e-002
1.834049e+003;2.467483e-002
1.835978e+003;2.425050e-002
1.837906e+003;2.410873e-002
1.839835e+003;2.414011e-002
1.841763e+003;2.346180e-002
1.843692e+003;2.226356e-002
1.845620e+003;2.273350e-002
1.847549e+003;2.350937e-002
1.849478e+003;2.370903e-002
1.851406e+003;2.379372e-002
1.853335e+003;2.355141e-002
1.855263e+003;2.324233e-002
1.857192e+003;2.321227e-002
1.859120e+003;2.314024e-002
1.861049e+003;2.315530e-002
1.862977e+003;2.322409e-002
1.864906e+003;2.304551e-002
1.866834e+003;2.235338e-002
1.868763e+003;2.199377e-002
1.870692e+003;2.265882e-002
1.872620e+003;2.315565e-002
1.874549e+003;2.270965e-002
1.876477e+003;2.219549e-002
1.878406e+003;2.234351e-002
1.880334e+003;2.268138e-002
1.882263e+003;2.272313e-002
1.884191e+003;2.280798e-002
1.886120e+003;2.280100e-002
1.888048e+003;2.258605e-002
1.889977e+003;2.265003e-002
1.891906e+003;2.292142e-002
1.893834e+003;2.278825e-002
1.895763e+003;2.289519e-002
1.897691e+003;2.304593e-002
1.899620e+003;2.304261e-002
1.901548e+003;2.299285e-002
1.903477e+003;2.317253e-002
1.905405e+003;2.303174e-002
1.907334e+003;2.267013e-002
1.909262e+003;2.241485e-002
1.911191e+003;2.257104e-002
1.913120e+003;2.273151e-002
1.915048e+003;2.237640e-002
1.916977e+003;2.171498e-002
1.918905e+003;2.177733e-002
1.920834e+003;2.203556e-002
1.922762e+003;2.195752e-002
1.924691e+003;2.205274e-002
1.926619e+003;2.209273e-002
1.928548e+003;2.204783e-002
1.930477e+003;2.207990e-002
1.932405e+003;2.196020e-002
1.934334e+003;2.180900e-002
1.936262e+003;2.175427e-002
1.938191e+003;2.159444e-002
1.940119e+003;2.128908e-002
1.942048e+003;2.111536e-002
1.943976e+003;2.112548e-002
1.945905e+003;2.124210e-002
1.947833e+003;2.131765e-002
1.949762e+003;2.129217e-002
1.951691e+003;2.118487e-002
1.953619e+003;2.114643e-002
1.955548e+003;2.113808e-002
1.957476e+003;2.118901e-002
1.959405e+003;2.117116e-002
1.961333e+003;2.111647e-002
1.963262e+003;2.084597e-002
1.965190e+003;2.070951e-002
1.967119e+003;2.081569e-002
1.969047e+003;2.090194e-002
1.970976e+003;2.094978e-002
1.972905e+003;2.108190e-002
1.974833e+003;2.090566e-002
1.976762e+003;2.087976e-002
1.978690e+003;2.099829e-002
1.980619e+003;2.087218e-002
1.982547e+003;2.097739e-002
1.984476e+003;2.106440e-002
1.986404e+003;2.090688e-002
1.988333e+003;2.096745e-002
1.990261e+003;2.069950e-002
1.992190e+003;2.044908e-002
1.994119e+003;2.075292e-002
1.996047e+003;2.121190e-002
1.997976e+003;2.099551e-002
1.999904e+003;2.072893e-002
2.001833e+003;2.082786e-002
2.003761e+003;2.078267e-002
2.005690e+003;2.057393e-002
2.007618e+003;2.076081e-002
2.009547e+003;2.080936e-002
2.011476e+003;2.063855e-002
2.013404e+003;2.046412e-002
2.015333e+003;2.048566e-002
2.017261e+003;2.051223e-002
2.019190e+003;2.064223e-002
2.021118e+003;2.064835e-002
2.023047e+003;2.041831e-002
2.024975e+003;2.012995e-002
2.026904e+003;2.014525e-002
2.028833e+003;2.022714e-002
2.030761e+003;2.035629e-002
2.032690e+003;2.053217e-002
2.034618e+003;2.059640e-002
2.036547e+003;2.045276e-002
2.038475e+003;2.032886e-002
2.040404e+003;1.998629e-002
2.042332e+003;1.979912e-002
2.044261e+003;1.995749e-002
2.046189e+003;2.020679e-002
2.048118e+003;2.032073e-002
2.050047e+003;2.031830e-002
2.051975e+003;2.016299e-002
2.053904e+003;2.020895e-002
2.055832e+003;2.036667e-002
2.057761e+003;2.026682e-002
2.059689e+003;2.018479e-002
2.061618e+003;2.013349e-002
2.063546e+003;2.003216e-002
2.065475e+003;1.991101e-002
2.067404e+003;1.982197e-002
2.069332e+003;1.991656e-002
2.071260e+003;1.993030e-002
2.073189e+003;1.983005e-002
2.075118e+003;1.969766e-002
2.077046e+003;1.976652e-002
2.078975e+003;1.992260e-002
2.080903e+003;1.997349e-002
2.082832e+003;2.004722e-002
2.084760e+003;2.038212e-002
2.086689e+003;2.061795e-002
2.088617e+003;2.069140e-002
2.090546e+003;2.055530e-002
2.092475e+003;2.032410e-002
2.094403e+003;2.049646e-002
2.096332e+003;2.079508e-002
2.098260e+003;2.064303e-002
2.100189e+003;2.052348e-002
2.102117e+003;2.054652e-002
2.104046e+003;2.051602e-002
2.105974e+003;2.053116e-002
2.107903e+003;2.048114e-002
2.109832e+003;2.038414e-002
2.111760e+003;2.043620e-002
2.113688e+003;2.053568e-002
2.115617e+003;2.073773e-002
2.117546e+003;2.099019e-002
2.119474e+003;2.119697e-002
2.121403e+003;2.145736e-002
2.123331e+003;2.173894e-002
2.125260e+003;2.198523e-002
2.127188e+003;2.211522e-002
2.129117e+003;2.228588e-002
2.131045e+003;2.246848e-002
2.132974e+003;2.264165e-002
2.134903e+003;2.265980e-002
2.136831e+003;2.255303e-002
2.138760e+003;2.256825e-002
2.140688e+003;2.246938e-002
2.142617e+003;2.219699e-002
2.144545e+003;2.193385e-002
2.146474e+003;2.197111e-002
2.148402e+003;2.209803e-002
2.150331e+003;2.206777e-002
2.152260e+003;2.201827e-002
2.154188e+003;2.192946e-002
2.156117e+003;2.207924e-002
2.158045e+003;2.221599e-002
2.159974e+003;2.239646e-002
2.161902e+003;2.264734e-002
2.163831e+003;2.271744e-002
2.165759e+003;2.288778e-002
2.167688e+003;2.289679e-002
2.169616e+003;2.279223e-002
2.171545e+003;2.288530e-002
2.173474e+003;2.282974e-002
2.175402e+003;2.275096e-002
2.177331e+003;2.292033e-002
2.179259e+003;2.307049e-002
2.181188e+003;2.286368e-002
2.183116e+003;2.276032e-002
2.185045e+003;2.272634e-002
2.186973e+003;2.256881e-002
2.188902e+003;2.256221e-002
2.190831e+003;2.274632e-002
2.192759e+003;2.290036e-002
2.194688e+003;2.272914e-002
2.196616e+003;2.241028e-002
2.198545e+003;2.214196e-002
2.200473e+003;2.185952e-002
2.202402e+003;2.183252e-002
2.204330e+003;2.173870e-002
2.206259e+003;2.174002e-002
2.208188e+003;2.183970e-002
2.210116e+003;2.183674e-002
2.212044e+003;2.184534e-002
2.213973e+003;2.191413e-002
2.215902e+003;2.185249e-002
2.217830e+003;2.206753e-002
2.219759e+003;2.207760e-002
2.221687e+003;2.169687e-002
2.223616e+003;2.147411e-002
2.225544e+003;2.150293e-002
2.227473e+003;2.153496e-002
2.229401e+003;2.149489e-002
2.231330e+003;2.149207e-002
2.233259e+003;2.174037e-002
2.235187e+003;2.197752e-002
2.237116e+003;2.183959e-002
2.239044e+003;2.168610e-002
2.240973e+003;2.141409e-002
2.242901e+003;2.130540e-002
2.244830e+003;2.161798e-002
2.246758e+003;2.181594e-002
2.248687e+003;2.213631e-002
2.250615e+003;2.247182e-002
2.252544e+003;2.253876e-002
2.254473e+003;2.254710e-002
2.256401e+003;2.269541e-002
2.258330e+003;2.244018e-002
2.260258e+003;2.209514e-002
2.262187e+003;2.214949e-002
2.264115e+003;2.219925e-002
2.266044e+003;2.232331e-002
2.267972e+003;2.250131e-002
2.269901e+003;2.249335e-002
2.271830e+003;2.198509e-002
2.273758e+003;2.158302e-002
2.275687e+003;2.130926e-002
2.277615e+003;2.119687e-002
2.279544e+003;2.119430e-002
2.281472e+003;2.096001e-002
2.283401e+003;2.081694e-002
2.285329e+003;2.101895e-002
2.287258e+003;2.119148e-002
2.289187e+003;2.108799e-002
2.291115e+003;2.105689e-002
2.293043e+003;2.101738e-002
2.294972e+003;2.092231e-002
2.296901e+003;2.081253e-002
2.298829e+003;2.069992e-002
2.300758e+003;2.077196e-002
2.302686e+003;2.075587e-002
2.304615e+003;2.063709e-002
2.306543e+003;2.061989e-002
2.308472e+003;2.063636e-002
2.310400e+003;2.025588e-002
2.312329e+003;1.965917e-002
2.314258e+003;1.903369e-002
2.316186e+003;1.866498e-002
2.318115e+003;1.836841e-002
2.320043e+003;1.788608e-002
2.321972e+003;1.743628e-002
2.323900e+003;1.719770e-002
2.325829e+003;1.695195e-002
2.327757e+003;1.632017e-002
2.329686e+003;1.563468e-002
2.331615e+003;1.538164e-002
2.333543e+003;1.558292e-002
2.335472e+003;1.551626e-002
2.337400e+003;1.556331e-002
2.339329e+003;1.608429e-002
2.341257e+003;1.659627e-002
2.343186e+003;1.739066e-002
2.345114e+003;1.846704e-002
2.347043e+003;2.002147e-002
2.348971e+003;2.082692e-002
2.350900e+003;1.986529e-002
2.352829e+003;1.807871e-002
2.354757e+003;1.649060e-002
2.356686e+003;1.530966e-002
2.358614e+003;1.431598e-002
2.360543e+003;1.403448e-002
2.362471e+003;1.406702e-002
2.364400e+003;1.427759e-002
2.366328e+003;1.515283e-002
2.368257e+003;1.657468e-002
2.370186e+003;1.808600e-002
2.372114e+003;1.948493e-002
2.374042e+003;2.071851e-002
2.375971e+003;2.176887e-002
2.377900e+003;2.244915e-002
2.379828e+003;2.289019e-002
2.381757e+003;2.341148e-002
2.383685e+003;2.360802e-002
2.385614e+003;2.370931e-002
2.387542e+003;2.388505e-002
2.389471e+003;2.392954e-002
2.391399e+003;2.380583e-002
2.393328e+003;2.385028e-002
2.395257e+003;2.409623e-002
2.397185e+003;2.426949e-002
2.399114e+003;2.438044e-002
2.401042e+003;2.440676e-002
2.402971e+003;2.445674e-002
2.404899e+003;2.452745e-002
2.406828e+003;2.429868e-002
2.408756e+003;2.409342e-002
2.410685e+003;2.420660e-002
2.412614e+003;2.447637e-002
2.414542e+003;2.437809e-002
2.416471e+003;2.422153e-002
2.418399e+003;2.453387e-002
2.420328e+003;2.463920e-002
2.422256e+003;2.482415e-002
2.424185e+003;2.509101e-002
2.426113e+003;2.500518e-002
2.428042e+003;2.493714e-002
2.429970e+003;2.490626e-002
2.431899e+003;2.477679e-002
2.433828e+003;2.482682e-002
2.435756e+003;2.502007e-002
2.437685e+003;2.503863e-002
2.439613e+003;2.470285e-002
2.441542e+003;2.428505e-002
2.443470e+003;2.404250e-002
2.445399e+003;2.409111e-002
2.447327e+003;2.368912e-002
2.449256e+003;2.365570e-002
2.451185e+003;2.385141e-002
2.453113e+003;2.405693e-002
2.455042e+003;2.411948e-002
2.456970e+003;2.382092e-002
2.458899e+003;2.367435e-002
2.460827e+003;2.373573e-002
2.462756e+003;2.375704e-002
2.464684e+003;2.385616e-002
2.466613e+003;2.410316e-002
2.468542e+003;2.414414e-002
2.470470e+003;2.418467e-002
2.472398e+003;2.434799e-002
2.474327e+003;2.453965e-002
2.476256e+003;2.488661e-002
2.478184e+003;2.548583e-002
2.480113e+003;2.603227e-002
2.482041e+003;2.615342e-002
2.483970e+003;2.643538e-002
2.485898e+003;2.658278e-002
2.487827e+003;2.678604e-002
2.489755e+003;2.739284e-002
2.491684e+003;2.798324e-002
2.493613e+003;2.843971e-002
2.495541e+003;2.890162e-002
2.497470e+003;2.948478e-002
2.499398e+003;3.036836e-002
2.501327e+003;3.160681e-002
2.503255e+003;3.284036e-002
2.505184e+003;3.362059e-002
2.507112e+003;3.423157e-002
2.509041e+003;3.492352e-002
2.510969e+003;3.578215e-002
2.512898e+003;3.620612e-002
2.514827e+003;3.603012e-002
2.516755e+003;3.610058e-002
2.518684e+003;3.644817e-002
2.520612e+003;3.651776e-002
2.522541e+003;3.638537e-002
2.524469e+003;3.606176e-002
2.526398e+003;3.552407e-002
2.528326e+003;3.496140e-002
2.530255e+003;3.444982e-002
2.532184e+003;3.391236e-002
2.534112e+003;3.335990e-002
2.536041e+003;3.271352e-002
2.537969e+003;3.199976e-002
2.539898e+003;3.156141e-002
2.541826e+003;3.136075e-002
2.543755e+003;3.154808e-002
2.545683e+003;3.186282e-002
2.547612e+003;3.227513e-002
2.549541e+003;3.254071e-002
2.551469e+003;3.264096e-002
2.553397e+003;3.307064e-002
2.555326e+003;3.360405e-002
2.557255e+003;3.358590e-002
2.559183e+003;3.364078e-002
2.561112e+003;3.398742e-002
2.563040e+003;3.408962e-002
2.564969e+003;3.434728e-002
2.566897e+003;3.485806e-002
2.568826e+003;3.519934e-002
2.570754e+003;3.559653e-002
2.572683e+003;3.644374e-002
2.574612e+003;3.738216e-002
2.576540e+003;3.781941e-002
2.578469e+003;3.800894e-002
2.580397e+003;3.842000e-002
2.582326e+003;3.872686e-002
2.584254e+003;3.824396e-002
2.586183e+003;3.751893e-002
2.588111e+003;3.689199e-002
2.590040e+003;3.635741e-002
2.591969e+003;3.606778e-002
2.593897e+003;3.596838e-002
2.595826e+003;3.570739e-002
2.597754e+003;3.542664e-002
2.599683e+003;3.542099e-002
2.601611e+003;3.547787e-002
2.603540e+003;3.545601e-002
2.605468e+003;3.561376e-002
2.607397e+003;3.626768e-002
2.609325e+003;3.672472e-002
2.611254e+003;3.706538e-002
2.613183e+003;3.697020e-002
2.615111e+003;3.684200e-002
2.617040e+003;3.718077e-002
2.618968e+003;3.712713e-002
2.620897e+003;3.672047e-002
2.622825e+003;3.639474e-002
2.624754e+003;3.614821e-002
2.626682e+003;3.570872e-002
2.628611e+003;3.522637e-002
2.630540e+003;3.510540e-002
2.632468e+003;3.531571e-002
2.634396e+003;3.547517e-002
2.636325e+003;3.533421e-002
2.638254e+003;3.502213e-002
2.640182e+003;3.501940e-002
2.642111e+003;3.551587e-002
2.644039e+003;3.621549e-002
2.645968e+003;3.647686e-002
2.647896e+003;3.659035e-002
2.649825e+003;3.715626e-002
2.651753e+003;3.759469e-002
2.653682e+003;3.788712e-002
2.655611e+003;3.807549e-002
2.657539e+003;3.818687e-002
2.659468e+003;3.843868e-002
2.661396e+003;3.845537e-002
2.663325e+003;3.838460e-002
2.665253e+003;3.854671e-002
2.667182e+003;3.869795e-002
2.669110e+003;3.883294e-002
2.671039e+003;3.912482e-002
2.672968e+003;3.937409e-002
2.674896e+003;3.961842e-002
2.676825e+003;3.982044e-002
2.678753e+003;3.974730e-002
2.680682e+003;3.982443e-002
2.682610e+003;3.990361e-002
2.684539e+003;3.992227e-002
2.686467e+003;4.004605e-002
2.688396e+003;4.000096e-002
2.690324e+003;4.007624e-002
2.692253e+003;4.009863e-002
2.694182e+003;3.971745e-002
2.696110e+003;3.961791e-002
2.698039e+003;3.998567e-002
2.699967e+003;4.057868e-002
2.701896e+003;4.117024e-002
2.703824e+003;4.181693e-002
2.705753e+003;4.236336e-002
2.707681e+003;4.319416e-002
2.709610e+003;4.419113e-002
2.711539e+003;4.527044e-002
2.713467e+003;4.687418e-002
2.715396e+003;4.841093e-002
2.717324e+003;4.995823e-002
2.719253e+003;5.162366e-002
2.721181e+003;5.286523e-002
2.723110e+003;5.339082e-002
2.725038e+003;5.304145e-002
2.726967e+003;5.207583e-002
2.728896e+003;5.064585e-002
2.730824e+003;4.896661e-002
2.732752e+003;4.765569e-002
2.734681e+003;4.643594e-002
2.736610e+003;4.539346e-002
2.738538e+003;4.461609e-002
2.740467e+003;4.384538e-002
2.742395e+003;4.286731e-002
2.744324e+003;4.188451e-002
2.746252e+003;4.151963e-002
2.748181e+003;4.142747e-002
2.750109e+003;4.125145e-002
2.752038e+003;4.113473e-002
2.753967e+003;4.132717e-002
2.755895e+003;4.137189e-002
2.757824e+003;4.148149e-002
2.759752e+003;4.202271e-002
2.761681e+003;4.270701e-002
2.763609e+003;4.297927e-002
2.765538e+003;4.293973e-002
2.767466e+003;4.323691e-002
2.769395e+003;4.367684e-002
2.771323e+003;4.417722e-002
2.773252e+003;4.498836e-002
2.775181e+003;4.568994e-002
2.777109e+003;4.624325e-002
2.779038e+003;4.702761e-002
2.780966e+003;4.825516e-002
2.782895e+003;4.945088e-002
2.784823e+003;5.071630e-002
2.786752e+003;5.227469e-002
2.788680e+003;5.411430e-002
2.790609e+003;5.618666e-002
2.792538e+003;5.773460e-002
2.794466e+003;5.873744e-002
2.796395e+003;6.003675e-002
2.798323e+003;6.162900e-002
2.800252e+003;6.302128e-002
2.802180e+003;6.454419e-002
2.804109e+003;6.678578e-002
2.806037e+003;6.918378e-002
2.807966e+003;7.103650e-002
2.809895e+003;7.270575e-002
2.811823e+003;7.456119e-002
2.813751e+003;7.638742e-002
2.815680e+003;7.806884e-002
2.817609e+003;7.987032e-002
2.819537e+003;8.229619e-002
2.821466e+003;8.532999e-002
2.823394e+003;8.884264e-002
2.825323e+003;9.341226e-002
2.827251e+003;9.931773e-002
2.829180e+003;1.065233e-001
2.831108e+003;1.154857e-001
2.833037e+003;1.253626e-001
2.834966e+003;1.335544e-001
2.836894e+003;1.375126e-001
2.838823e+003;1.372784e-001
2.840751e+003;1.337929e-001
2.842680e+003;1.281894e-001
2.844608e+003;1.220692e-001
2.846537e+003;1.164459e-001
2.848465e+003;1.122614e-001
2.850394e+003;1.094137e-001
2.852323e+003;1.075329e-001
2.854251e+003;1.065969e-001
2.856180e+003;1.075765e-001
2.858108e+003;1.112334e-001
2.860037e+003;1.176155e-001
2.861965e+003;1.262520e-001
2.863894e+003;1.349106e-001
2.865822e+003;1.412838e-001
2.867751e+003;1.438534e-001
2.869679e+003;1.439621e-001
2.871608e+003;1.436914e-001
2.873536e+003;1.434786e-001
2.875465e+003;1.434933e-001
2.877394e+003;1.432394e-001
2.879322e+003;1.418174e-001
2.881251e+003;1.398408e-001
2.883179e+003;1.387423e-001
2.885108e+003;1.386642e-001
2.887036e+003;1.391161e-001
2.888965e+003;1.402668e-001
2.890893e+003;1.419823e-001
2.892822e+003;1.444919e-001
2.894750e+003;1.488221e-001
2.896679e+003;1.537348e-001
2.898608e+003;1.587193e-001
2.900536e+003;1.641074e-001
2.902465e+003;1.694873e-001
2.904393e+003;1.752990e-001
2.906322e+003;1.809901e-001
2.908250e+003;1.859514e-001
2.910179e+003;1.903056e-001
2.912107e+003;1.945393e-001
2.914036e+003;1.981417e-001
2.915965e+003;1.997365e-001
2.917893e+003;1.991769e-001
2.919822e+003;1.966155e-001
2.921750e+003;1.916235e-001
2.923679e+003;1.847166e-001
2.925607e+003;1.773809e-001
2.927536e+003;1.689288e-001
2.929464e+003;1.594527e-001
2.931393e+003;1.505352e-001
2.933322e+003;1.422166e-001
2.935250e+003;1.349871e-001
2.937178e+003;1.305797e-001
2.939107e+003;1.297593e-001
2.941036e+003;1.326672e-001
2.942964e+003;1.396873e-001
2.944893e+003;1.495025e-001
2.946821e+003;1.599117e-001
2.948750e+003;1.675919e-001
2.950678e+003;1.708973e-001
2.952607e+003;1.700586e-001
2.954535e+003;1.658309e-001
2.956464e+003;1.606601e-001
2.958393e+003;1.552143e-001
2.960321e+003;1.491315e-001
2.962250e+003;1.426592e-001
2.964178e+003;1.349475e-001
2.966107e+003;1.265833e-001
2.968035e+003;1.188288e-001
2.969964e+003;1.111900e-001
2.971892e+003;1.037467e-001
2.973821e+003;9.752181e-002
2.975750e+003;9.239454e-002
2.977678e+003;8.804940e-002
2.979607e+003;8.439004e-002
2.981535e+003;8.099944e-002
2.983464e+003;7.792866e-002
2.985392e+003;7.530539e-002
2.987321e+003;7.290589e-002
2.989249e+003;7.032789e-002
2.991178e+003;6.790753e-002
2.993106e+003;6.608193e-002
2.995035e+003;6.407105e-002
2.996964e+003;6.164107e-002
2.998892e+003;5.921713e-002
3.000821e+003;5.693514e-002
3.002749e+003;5.523119e-002
3.004678e+003;5.395509e-002
3.006606e+003;5.238072e-002
3.008535e+003;5.074627e-002
3.010463e+003;4.920615e-002
3.012392e+003;4.749915e-002
3.014321e+003;4.618240e-002
3.016249e+003;4.496039e-002
3.018177e+003;4.386386e-002
3.020106e+003;4.297909e-002
3.022035e+003;4.180814e-002
3.023963e+003;4.091095e-002
3.025892e+003;4.040871e-002
3.027820e+003;3.988221e-002
3.029749e+003;3.910771e-002
3.031677e+003;3.820268e-002
3.033606e+003;3.755293e-002
3.035534e+003;3.720083e-002
3.037463e+003;3.708830e-002
3.039392e+003;3.653513e-002
3.041320e+003;3.590219e-002
3.043249e+003;3.556395e-002
3.045177e+003;3.525792e-002
3.047106e+003;3.482514e-002
3.049034e+003;3.458528e-002
3.050963e+003;3.444462e-002
3.052891e+003;3.402078e-002
3.054820e+003;3.355279e-002
3.056749e+003;3.312893e-002
3.058677e+003;3.282779e-002
3.060606e+003;3.284108e-002
3.062534e+003;3.290906e-002
3.064463e+003;3.280717e-002
3.066391e+003;3.246569e-002
3.068320e+003;3.194983e-002
3.070248e+003;3.183996e-002
3.072177e+003;3.207567e-002
3.074105e+003;3.232292e-002
3.076034e+003;3.217920e-002
3.077963e+003;3.181992e-002
3.079891e+003;3.150522e-002
3.081820e+003;3.141399e-002
3.083748e+003;3.142104e-002
3.085677e+003;3.133062e-002
3.087605e+003;3.127834e-002
3.089534e+003;3.130832e-002
3.091462e+003;3.108129e-002
3.093391e+003;3.091308e-002
3.095320e+003;3.100944e-002
3.097248e+003;3.073825e-002
3.099177e+003;3.045852e-002
3.101105e+003;3.047049e-002
3.103034e+003;3.051798e-002
3.104962e+003;3.067840e-002
3.106891e+003;3.059683e-002
3.108819e+003;3.059612e-002
3.110748e+003;3.090219e-002
3.112677e+003;3.099410e-002
3.114605e+003;3.102673e-002
3.116533e+003;3.065948e-002
3.118462e+003;3.040205e-002
3.120391e+003;3.089735e-002
3.122319e+003;3.106837e-002
3.124248e+003;3.128717e-002
3.126176e+003;3.134942e-002
3.128105e+003;3.093101e-002
3.130033e+003;3.092756e-002
3.131962e+003;3.138963e-002
3.133890e+003;3.172046e-002
3.135819e+003;3.172442e-002
3.137748e+003;3.178648e-002
3.139676e+003;3.182677e-002
3.141605e+003;3.173814e-002
3.143533e+003;3.180688e-002
3.145462e+003;3.186107e-002
3.147390e+003;3.201716e-002
3.149319e+003;3.219048e-002
3.151247e+003;3.232710e-002
3.153176e+003;3.203125e-002
3.155104e+003;3.155336e-002
3.157033e+003;3.146169e-002
3.158962e+003;3.124045e-002
3.160890e+003;3.123636e-002
3.162819e+003;3.143893e-002
3.164747e+003;3.138842e-002
3.166676e+003;3.156704e-002
3.168604e+003;3.177725e-002
3.170533e+003;3.147740e-002
3.172461e+003;3.122119e-002
3.174390e+003;3.120773e-002
3.176319e+003;3.109987e-002
3.178247e+003;3.101118e-002
3.180176e+003;3.122062e-002
3.182104e+003;3.156939e-002
3.184033e+003;3.187694e-002
3.185961e+003;3.200650e-002
3.187890e+003;3.214103e-002
3.189818e+003;3.201513e-002
3.191747e+003;3.206372e-002
3.193676e+003;3.193032e-002
3.195604e+003;3.150668e-002
3.197532e+003;3.157324e-002
3.199461e+003;3.161016e-002
3.201390e+003;3.122194e-002
3.203318e+003;3.117227e-002
3.205247e+003;3.149820e-002
3.207175e+003;3.154010e-002
3.209104e+003;3.088181e-002
3.211032e+003;3.022177e-002
3.212961e+003;3.017620e-002
3.214889e+003;3.022536e-002
3.216818e+003;3.025527e-002
3.218747e+003;2.975980e-002
3.220675e+003;2.909959e-002
3.222604e+003;2.912326e-002
3.224532e+003;2.913095e-002
3.226461e+003;2.885817e-002
3.228389e+003;2.864632e-002
3.230318e+003;2.847877e-002
3.232246e+003;2.808061e-002
3.234175e+003;2.755902e-002
3.236104e+003;2.726655e-002
3.238032e+003;2.670901e-002
3.239961e+003;2.663640e-002
3.241889e+003;2.706553e-002
3.243818e+003;2.690884e-002
3.245746e+003;2.608505e-002
3.247675e+003;2.605648e-002
3.249603e+003;2.637778e-002
3.251532e+003;2.629096e-002
3.253460e+003;2.625066e-002
3.255389e+003;2.614842e-002
3.257318e+003;2.602756e-002
3.259246e+003;2.625087e-002
3.261175e+003;2.674086e-002
3.263103e+003;2.705957e-002
3.265032e+003;2.700558e-002
3.266960e+003;2.641679e-002
3.268889e+003;2.615014e-002
3.270817e+003;2.618389e-002
3.272746e+003;2.588724e-002
3.274675e+003;2.604722e-002
3.276603e+003;2.636795e-002
3.278531e+003;2.634021e-002
3.280460e+003;2.614620e-002
3.282389e+003;2.623517e-002
3.284317e+003;2.622405e-002
3.286246e+003;2.603589e-002
3.288174e+003;2.616348e-002
3.290103e+003;2.646578e-002
3.292031e+003;2.666652e-002
3.293960e+003;2.684599e-002
3.295888e+003;2.624362e-002
3.297817e+003;2.562661e-002
3.299746e+003;2.584856e-002
3.301674e+003;2.616031e-002
3.303603e+003;2.628547e-002
3.305531e+003;2.616126e-002
3.307460e+003;2.614272e-002
3.309388e+003;2.609268e-002
3.311317e+003;2.595066e-002
3.313245e+003;2.593989e-002
3.315174e+003;2.597303e-002
3.317103e+003;2.582416e-002
3.319031e+003;2.492380e-002
3.320960e+003;2.420580e-002
3.322888e+003;2.487239e-002
3.324817e+003;2.568191e-002
3.326745e+003;2.579968e-002
3.328674e+003;2.592435e-002
3.330602e+003;2.601011e-002
3.332531e+003;2.599438e-002
3.334459e+003;2.565456e-002
3.336388e+003;2.555566e-002
3.338317e+003;2.569273e-002
3.340245e+003;2.611763e-002
3.342174e+003;2.641831e-002
3.344102e+003;2.628030e-002
3.346031e+003;2.641207e-002
3.347959e+003;2.637053e-002
3.349888e+003;2.598759e-002
3.351816e+003;2.604926e-002
3.353745e+003;2.627410e-002
3.355674e+003;2.595527e-002
3.357602e+003;2.576494e-002
3.359531e+003;2.583685e-002
3.361459e+003;2.600265e-002
3.363388e+003;2.604265e-002
3.365316e+003;2.560584e-002
3.367245e+003;2.523872e-002
3.369173e+003;2.528968e-002
3.371102e+003;2.530200e-002
3.373031e+003;2.514707e-002
3.374959e+003;2.556093e-002
3.376887e+003;2.605686e-002
3.378816e+003;2.585461e-002
3.380745e+003;2.543914e-002
3.382673e+003;2.525175e-002
3.384602e+003;2.520020e-002
3.386530e+003;2.542955e-002
3.388459e+003;2.578586e-002
3.390387e+003;2.570103e-002
3.392316e+003;2.513823e-002
3.394244e+003;2.480054e-002
3.396173e+003;2.494387e-002
3.398102e+003;2.542797e-002
3.400030e+003;2.564542e-002
3.401959e+003;2.545390e-002
3.403887e+003;2.497230e-002
3.405816e+003;2.452696e-002
3.407744e+003;2.434588e-002
3.409673e+003;2.460802e-002
3.411601e+003;2.510245e-002
3.413530e+003;2.531746e-002
3.415458e+003;2.512348e-002
3.417387e+003;2.498311e-002
3.419316e+003;2.453082e-002
3.421244e+003;2.441913e-002
3.423173e+003;2.452668e-002
3.425101e+003;2.439537e-002
3.427030e+003;2.448521e-002
3.428958e+003;2.443077e-002
3.430887e+003;2.400213e-002
3.432815e+003;2.388407e-002
3.434744e+003;2.436302e-002
3.436673e+003;2.431676e-002
3.438601e+003;2.414491e-002
3.440530e+003;2.404488e-002
3.442458e+003;2.372901e-002
3.444387e+003;2.332868e-002
3.446315e+003;2.310117e-002
3.448244e+003;2.324321e-002
3.450172e+003;2.349031e-002
3.452101e+003;2.345921e-002
3.454030e+003;2.341949e-002
3.455958e+003;2.330865e-002
3.457886e+003;2.295830e-002
3.459815e+003;2.254378e-002
3.461744e+003;2.251928e-002
3.463672e+003;2.271618e-002
3.465601e+003;2.245965e-002
3.467529e+003;2.256957e-002
3.469458e+003;2.247542e-002
3.471386e+003;2.229725e-002
3.473315e+003;2.235484e-002
3.475243e+003;2.225006e-002
3.477172e+003;2.200481e-002
3.479101e+003;2.172487e-002
3.481029e+003;2.161850e-002
3.482958e+003;2.170829e-002
3.484886e+003;2.182304e-002
3.486815e+003;2.203190e-002
3.488743e+003;2.194309e-002
3.490672e+003;2.166127e-002
3.492600e+003;2.148925e-002
3.494529e+003;2.149569e-002
3.496458e+003;2.128584e-002
3.498386e+003;2.111014e-002
3.500315e+003;2.127189e-002
3.502243e+003;2.125083e-002
3.504172e+003;2.129426e-002
3.506100e+003;2.148232e-002
3.508029e+003;2.130808e-002
3.509957e+003;2.101151e-002
3.511886e+003;2.092200e-002
3.513814e+003;2.084649e-002
3.515743e+003;2.088386e-002
3.517672e+003;2.092138e-002
3.519600e+003;2.084576e-002
3.521529e+003;2.064025e-002
3.523457e+003;2.054530e-002
3.525386e+003;2.076602e-002
3.527314e+003;2.099266e-002
3.529243e+003;2.063702e-002
3.531171e+003;2.002175e-002
3.533100e+003;2.012328e-002
3.535029e+003;2.054652e-002
3.536957e+003;2.077075e-002
3.538885e+003;2.057664e-002
3.540814e+003;2.023814e-002
3.542743e+003;1.982554e-002
3.544671e+003;1.953674e-002
3.546600e+003;1.986515e-002
3.548528e+003;2.039775e-002
3.550457e+003;1.987840e-002
3.552385e+003;1.904805e-002
3.554314e+003;1.897702e-002
3.556242e+003;1.943569e-002
3.558171e+003;1.935514e-002
3.560100e+003;1.925551e-002
3.562028e+003;1.920505e-002
3.563957e+003;1.888492e-002
3.565885e+003;1.801834e-002
3.567814e+003;1.784506e-002
3.569742e+003;1.871220e-002
3.571671e+003;1.884174e-002
3.573599e+003;1.873382e-002
3.575528e+003;1.948386e-002
3.577457e+003;1.993775e-002
3.579385e+003;1.952635e-002
3.581314e+003;1.928010e-002
3.583242e+003;1.922184e-002
3.585171e+003;1.823128e-002
3.587099e+003;1.729986e-002
3.589028e+003;1.770195e-002
3.590956e+003;1.835169e-002
3.592885e+003;1.856348e-002
3.594813e+003;1.901932e-002
3.596742e+003;1.929960e-002
3.598671e+003;1.894109e-002
3.600599e+003;1.869598e-002
3.602528e+003;1.885613e-002
3.604456e+003;1.901188e-002
3.606385e+003;1.847897e-002
3.608313e+003;1.750545e-002
3.610242e+003;1.787669e-002
3.612170e+003;1.854290e-002
3.614099e+003;1.906263e-002
3.616028e+003;1.902676e-002
3.617956e+003;1.879582e-002
3.619885e+003;1.915009e-002
3.621813e+003;1.952718e-002
3.623742e+003;1.913364e-002
3.625670e+003;1.829231e-002
3.627599e+003;1.623558e-002
3.629527e+003;1.650815e-002
3.631456e+003;1.863105e-002
3.633385e+003;1.884014e-002
3.635313e+003;1.901458e-002
3.637241e+003;1.927106e-002
3.639170e+003;1.941833e-002
3.641099e+003;1.979568e-002
3.643027e+003;2.030452e-002
3.644956e+003;1.958478e-002
3.646884e+003;1.703082e-002
3.648813e+003;1.520214e-002
3.650741e+003;1.671546e-002
3.652670e+003;1.839085e-002
3.654598e+003;1.757727e-002
3.656527e+003;1.774533e-002
3.658456e+003;1.944432e-002
3.660384e+003;1.986873e-002
3.662313e+003;1.987344e-002
3.664241e+003;2.012773e-002
3.666170e+003;1.971132e-002
3.668098e+003;1.762220e-002
3.670027e+003;1.653476e-002
3.671955e+003;1.773812e-002
3.673884e+003;1.676353e-002
3.675813e+003;1.636620e-002
3.677741e+003;1.861552e-002
3.679669e+003;1.994473e-002
3.681598e+003;2.087983e-002
3.683527e+003;2.111658e-002
3.685455e+003;2.050653e-002
3.687384e+003;1.885409e-002
3.689312e+003;1.957535e-002
3.691241e+003;2.156940e-002
3.693169e+003;2.280760e-002
3.695098e+003;2.339588e-002
3.697026e+003;2.339994e-002
3.698955e+003;2.274090e-002
3.700884e+003;2.145346e-002
3.702812e+003;2.056906e-002
3.704741e+003;2.036365e-002
3.706669e+003;1.981986e-002
3.708598e+003;1.862752e-002
3.710526e+003;1.711208e-002
3.712455e+003;1.748592e-002
3.714383e+003;1.926313e-002
3.716312e+003;1.993557e-002
3.718240e+003;1.962385e-002
3.720169e+003;1.905179e-002
3.722098e+003;1.894968e-002
3.724026e+003;1.883090e-002
3.725955e+003;1.882520e-002
3.727883e+003;1.933615e-002
3.729812e+003;1.895708e-002
3.731740e+003;1.779718e-002
3.733669e+003;1.745867e-002
3.735597e+003;1.713542e-002
3.737526e+003;1.863444e-002
3.739455e+003;1.992811e-002
3.741383e+003;1.852682e-002
3.743312e+003;1.476046e-002
3.745240e+003;1.524987e-002
3.747169e+003;1.703247e-002
3.749097e+003;1.586405e-002
3.751026e+003;1.598607e-002
3.752954e+003;1.827527e-002
3.754883e+003;1.991753e-002
3.756812e+003;1.955605e-002
3.758740e+003;1.948157e-002
3.760668e+003;2.010503e-002
3.762597e+003;2.079428e-002
3.764526e+003;2.008796e-002
3.766454e+003;1.957747e-002
3.768383e+003;1.900738e-002
3.770311e+003;1.949959e-002
3.772240e+003;2.090656e-002
3.774168e+003;2.132534e-002
3.776097e+003;2.144163e-002
3.778025e+003;2.129089e-002
3.779954e+003;2.071455e-002
3.781883e+003;2.060193e-002
3.783811e+003;2.055103e-002
3.785740e+003;2.045863e-002
3.787668e+003;2.086366e-002
3.789597e+003;2.127056e-002
3.791525e+003;2.110788e-002
3.793454e+003;2.082692e-002
3.795382e+003;1.984597e-002
3.797311e+003;1.966774e-002
3.799240e+003;1.866661e-002
3.801168e+003;1.751255e-002
3.803097e+003;1.936120e-002
3.805025e+003;1.911034e-002
3.806954e+003;1.838200e-002
3.808882e+003;2.043547e-002
3.810811e+003;2.157940e-002
3.812739e+003;2.081604e-002
3.814668e+003;1.806897e-002
3.816596e+003;1.804241e-002
3.818525e+003;1.930563e-002
3.820454e+003;1.810697e-002
3.822382e+003;1.920404e-002
3.824311e+003;2.080092e-002
3.826239e+003;2.027897e-002
3.828168e+003;2.015206e-002
3.830096e+003;2.005218e-002
3.832025e+003;1.983439e-002
3.833953e+003;1.957182e-002
3.835882e+003;1.800027e-002
3.837811e+003;1.689190e-002
3.839739e+003;1.830319e-002
3.841667e+003;1.959310e-002
3.843596e+003;2.042981e-002
3.845525e+003;2.119402e-002
3.847453e+003;2.124200e-002
3.849382e+003;1.964111e-002
3.851310e+003;1.609846e-002
3.853239e+003;1.403561e-002
3.855167e+003;1.749806e-002
3.857096e+003;2.042064e-002
3.859024e+003;2.081983e-002
3.860953e+003;2.047416e-002
3.862882e+003;2.000811e-002
3.864810e+003;2.010930e-002
3.866739e+003;2.043075e-002
3.868667e+003;1.901939e-002
3.870596e+003;1.916079e-002
3.872524e+003;2.053971e-002
3.874453e+003;2.090260e-002
3.876381e+003;2.152560e-002
3.878310e+003;2.135047e-002
3.880239e+003;2.144361e-002
3.882167e+003;2.205675e-002
3.884096e+003;2.084708e-002
3.886024e+003;2.025498e-002
3.887953e+003;2.157933e-002
3.889881e+003;2.129889e-002
3.891810e+003;2.078597e-002
3.893738e+003;2.188684e-002
3.895667e+003;2.246631e-002
3.897595e+003;2.144514e-002
3.899524e+003;2.053682e-002
3.901453e+003;2.029247e-002
3.903381e+003;2.006047e-002
3.905310e+003;2.077141e-002
3.907238e+003;2.174243e-002
3.909167e+003;2.225195e-002
3.911095e+003;2.292760e-002
3.913024e+003;2.353298e-002
3.914952e+003;2.333683e-002
3.916881e+003;2.244084e-002
3.918810e+003;2.225948e-002
3.920738e+003;2.306797e-002
3.922667e+003;2.325495e-002
3.924595e+003;2.337455e-002
3.926524e+003;2.393626e-002
3.928452e+003;2.337847e-002
3.930381e+003;2.265785e-002
3.932309e+003;2.239981e-002
3.934238e+003;2.272516e-002
3.936167e+003;2.294493e-002
3.938095e+003;2.294905e-002
3.940023e+003;2.305770e-002
3.941952e+003;2.313105e-002
3.943881e+003;2.305054e-002
3.945809e+003;2.258552e-002
3.947738e+003;2.243519e-002
3.949666e+003;2.296085e-002
3.951595e+003;2.297584e-002
3.953523e+003;2.282251e-002
3.955452e+003;2.300858e-002
3.957380e+003;2.326603e-002
3.959309e+003;2.327414e-002
3.961238e+003;2.326086e-002
3.963166e+003;2.363800e-002
3.965095e+003;2.332067e-002
3.967023e+003;2.287577e-002
3.968952e+003;2.348782e-002
3.970880e+003;2.378420e-002
3.972809e+003;2.319413e-002
3.974737e+003;2.262598e-002
3.976666e+003;2.288342e-002
3.978594e+003;2.368534e-002
3.980523e+003;2.423540e-002
3.982452e+003;2.427671e-002
3.984380e+003;2.402941e-002
3.986309e+003;2.400272e-002
3.988237e+003;2.477392e-002
3.990166e+003;2.566549e-002
3.992094e+003;2.564451e-002
3.994023e+003;2.493742e-002
3.995951e+003;2.424395e-002
3.997880e+003;2.417798e-002
3.999809e+003;2.491692e-002
4.001737e+003;0.000000e+000
