3.992094e+002;0.000000e+000
4.011380e+002;0.000000e+000
4.030665e+002;0.000000e+000
4.049951e+002;0.000000e+000
4.069236e+002;0.000000e+000
4.088522e+002;0.000000e+000
4.107807e+002;0.000000e+000
4.127093e+002;0.000000e+000
4.146378e+002;0.000000e+000
4.165664e+002;0.000000e+000
4.184949e+002;0.000000e+000
4.204235e+002;0.000000e+000
4.223520e+002;0.000000e+000
4.242806e+002;0.000000e+000
4.262091e+002;0.000000e+000
4.281377e+002;0.000000e+000
4.300662e+002;0.000000e+000
4.319948e+002;0.000000e+000
4.339233e+002;0.000000e+000
4.358519e+002;0.000000e+000
4.377804e+002;0.000000e+000
4.397090e+002;0.000000e+000
4.416375e+002;0.000000e+000
4.435660e+002;0.000000e+000
4.454946e+002;0.000000e+000
4.474232e+002;0.000000e+000
4.493517e+002;0.000000e+000
4.512802e+002;0.000000e+000
4.532088e+002;0.000000e+000
4.551373e+002;0.000000e+000
4.570659e+002;0.000000e+000
4.589944e+002;0.000000e+000
4.609230e+002;0.000000e+000
4.628515e+002;0.000000e+000
4.647801e+002;0.000000e+000
4.667086e+002;0.000000e+000
4.686372e+002;0.000000e+000
4.705657e+002;0.000000e+000
4.724943e+002;0.000000e+000
4.744228e+002;0.000000e+000
4.763513e+002;0.000000e+000
4.782799e+002;0.000000e+000
4.802085e+002;0.000000e+000
4.821370e+002;0.000000e+000
4.840656e+002;0.000000e+000
4.859941e+002;0.000000e+000
4.879226e+002;0.000000e+000
4.898512e+002;0.000000e+000
4.917798e+002;0.000000e+000
4.937083e+002;0.000000e+000
4.956368e+002;0.000000e+000
4.975654e+002;0.000000e+000
4.994939e+002;0.000000e+000
5.014225e+002;0.000000e+000
5.033510e+002;0.000000e+000
5.052796e+002;0.000000e+000
5.072081e+002;0.000000e+000
5.091367e+002;0.000000e+000
5.110652e+002;0.000000e+000
5.129938e+002;0.000000e+000
5.149223e+002;0.000000e+000
5.168509e+002;0.000000e+000
5.187794e+002;0.000000e+000
5.207079e+002;0.000000e+000
5.226365e+002;0.000000e+000
5.245651e+002;0.000000e+000
5.264936e+002;0.000000e+000
5.284222e+002;0.000000e+000
5.303507e+002;0.000000e+000
5.322792e+002;0.000000e+000
5.342078e+002;0.000000e+000
5.361364e+002;0.000000e+000
5.380649e+002;0.000000e+000
5.399935e+002;0.000000e+000
5.419220e+002;0.000000e+000
5.438505e+002;0.000000e+000
5.457791e+002;0.000000e+000
5.477076e+002;0.000000e+000
5.496362e+002;0.000000e+000
5.515648e+002;0.000000e+000
5.534933e+002;0.000000e+000
5.554218e+002;0.000000e+000
5.573504e+002;0.000000e+000
5.592789e+002;0.000000e+000
5.612075e+002;0.000000e+000
5.631360e+002;0.000000e+000
5.650646e+002;0.000000e+000
5.669931e+002;0.000000e+000
5.689217e+002;0.000000e+000
5.708502e+002;0.000000e+000
5.727787e+002;0.000000e+000
5.747073e+002;0.000000e+000
5.766359e+002;0.000000e+000
5.785644e+002;0.000000e+000
5.804930e+002;0.000000e+000
5.824215e+002;0.000000e+000
5.843500e+002;0.000000e+000
5.862786e+002;0.000000e+000
5.882072e+002;0.000000e+000
5.901357e+002;0.000000e+000
5.920643e+002;0.000000e+000
5.939928e+002;0.000000e+000
5.959213e+002;0.000000e+000
5.978499e+002;0.000000e+000
5.997784e+002;3.101008e-002
6.017070e+002;3.215794e-002
6.036355e+002;3.753400e-002
6.055641e+002;4.109528e-002
6.074926e+002;4.385165e-002
6.094211e+002;4.263178e-002
6.113497e+002;4.262853e-002
6.132783e+002;4.024783e-002
6.152068e+002;3.479825e-002
6.171354e+002;3.708119e-002
6.190639e+002;3.928300e-002
6.209924e+002;3.610756e-002
6.229210e+002;3.545798e-002
6.248495e+002;3.821701e-002
6.267781e+002;4.280112e-002
6.287067e+002;4.309909e-002
6.306352e+002;4.031377e-002
6.325637e+002;4.063172e-002
6.344923e+002;4.218349e-002
6.364208e+002;4.159532e-002
6.383494e+002;3.877685e-002
6.402780e+002;3.820518e-002
6.422065e+002;3.640288e-002
6.441350e+002;3.673705e-002
6.460636e+002;3.829727e-002
6.479921e+002;3.916655e-002
6.499207e+002;4.320840e-002
6.518492e+002;4.409694e-002
6.537778e+002;4.209028e-002
6.557063e+002;4.072655e-002
6.576349e+002;4.161778e-002
6.595634e+002;4.417579e-002
6.614919e+002;4.592860e-002
6.634205e+002;4.550037e-002
6.653491e+002;4.288669e-002
6.672776e+002;4.121618e-002
6.692062e+002;4.102768e-002
6.711347e+002;4.281034e-002
6.730632e+002;4.394197e-002
6.749918e+002;4.309393e-002
6.769203e+002;4.251472e-002
6.788489e+002;4.251147e-002
6.807775e+002;4.215950e-002
6.827060e+002;4.083599e-002
6.846345e+002;4.020555e-002
6.865631e+002;4.164484e-002
6.884916e+002;4.178086e-002
6.904202e+002;4.059705e-002
6.923488e+002;4.010136e-002
6.942773e+002;4.001626e-002
6.962058e+002;4.140152e-002
6.981344e+002;4.235002e-002
7.000629e+002;4.212883e-002
7.019915e+002;4.226292e-002
7.039200e+002;4.211072e-002
7.058486e+002;4.144825e-002
7.077771e+002;4.248111e-002
7.097057e+002;4.392844e-002
7.116342e+002;4.486886e-002
7.135627e+002;4.500997e-002
7.154913e+002;4.473408e-002
7.174199e+002;4.474481e-002
7.193484e+002;4.461789e-002
7.212770e+002;4.433598e-002
7.232055e+002;4.571070e-002
7.251340e+002;4.673605e-002
7.270626e+002;4.571773e-002
7.289911e+002;4.555373e-002
7.309197e+002;4.669325e-002
7.328483e+002;4.602854e-002
7.347768e+002;4.462600e-002
7.367053e+002;4.396342e-002
7.386339e+002;4.499722e-002
7.405624e+002;4.564584e-002
7.424910e+002;4.588791e-002
7.444196e+002;4.588556e-002
7.463481e+002;4.557474e-002
7.482766e+002;4.570422e-002
7.502052e+002;4.599461e-002
7.521337e+002;4.622095e-002
7.540623e+002;4.621292e-002
7.559908e+002;4.665001e-002
7.579194e+002;4.691120e-002
7.598479e+002;4.673966e-002
7.617765e+002;4.676328e-002
7.637050e+002;4.700276e-002
7.656335e+002;4.773312e-002
7.675621e+002;4.830259e-002
7.694907e+002;4.809456e-002
7.714192e+002;4.788275e-002
7.733478e+002;4.764400e-002
7.752763e+002;4.748977e-002
7.772048e+002;4.800159e-002
7.791334e+002;4.816582e-002
7.810620e+002;4.813358e-002
7.829905e+002;4.940421e-002
7.849191e+002;5.084635e-002
7.868476e+002;5.160605e-002
7.887761e+002;5.207090e-002
7.907047e+002;5.269028e-002
7.926332e+002;5.422191e-002
7.945618e+002;5.664833e-002
7.964903e+002;5.871597e-002
7.984189e+002;6.018858e-002
8.003474e+002;6.168851e-002
8.022759e+002;6.349994e-002
8.042045e+002;6.608761e-002
8.061331e+002;6.874823e-002
8.080616e+002;7.156748e-002
8.099902e+002;7.224302e-002
8.119187e+002;7.093888e-002
8.138472e+002;6.885542e-002
8.157758e+002;6.640068e-002
8.177043e+002;6.410834e-002
8.196329e+002;6.213481e-002
8.215615e+002;6.117636e-002
8.234900e+002;6.057985e-002
8.254185e+002;5.980173e-002
8.273471e+002;5.897629e-002
8.292756e+002;5.868775e-002
8.312042e+002;5.824335e-002
8.331328e+002;5.851351e-002
8.350613e+002;6.015494e-002
8.369898e+002;6.288853e-002
8.389184e+002;6.745069e-002
8.408469e+002;7.231514e-002
8.427755e+002;7.221907e-002
8.447040e+002;6.755423e-002
8.466326e+002;6.278728e-002
8.485611e+002;5.975902e-002
8.504897e+002;5.774951e-002
8.524182e+002;5.634240e-002
8.543467e+002;5.575935e-002
8.562753e+002;5.519360e-002
8.582039e+002;5.492734e-002
8.601324e+002;5.456952e-002
8.620610e+002;5.396337e-002
8.639895e+002;5.369764e-002
8.659180e+002;5.367219e-002
8.678466e+002;5.328723e-002
8.697751e+002;5.327363e-002
8.717037e+002;5.374748e-002
8.736323e+002;5.438427e-002
8.755608e+002;5.425360e-002
8.774893e+002;5.404138e-002
8.794179e+002;5.341772e-002
8.813464e+002;5.262179e-002
8.832750e+002;5.242554e-002
8.852036e+002;5.270423e-002
8.871321e+002;5.303647e-002
8.890606e+002;5.351073e-002
8.909892e+002;5.446149e-002
8.929177e+002;5.642087e-002
8.948463e+002;5.980542e-002
8.967748e+002;6.365234e-002
8.987034e+002;6.598577e-002
9.006319e+002;6.621463e-002
9.025605e+002;6.367236e-002
9.044890e+002;5.905486e-002
9.064175e+002;5.443313e-002
9.083461e+002;5.156560e-002
9.102747e+002;4.962461e-002
9.122032e+002;4.817241e-002
9.141318e+002;4.756577e-002
9.160603e+002;4.750947e-002
9.179888e+002;4.719871e-002
9.199174e+002;4.665063e-002
9.218459e+002;4.647581e-002
9.237745e+002;4.649258e-002
9.257031e+002;4.661611e-002
9.276316e+002;4.699497e-002
9.295601e+002;4.708096e-002
9.314887e+002;4.722826e-002
9.334172e+002;4.772665e-002
9.353458e+002;4.863749e-002
9.372744e+002;4.979767e-002
9.392029e+002;5.097444e-002
9.411314e+002;5.201682e-002
9.430600e+002;5.258428e-002
9.449885e+002;5.288226e-002
9.469171e+002;5.302678e-002
9.488456e+002;5.269065e-002
9.507742e+002;5.300615e-002
9.527027e+002;5.467455e-002
9.546313e+002;5.588101e-002
9.565598e+002;5.640713e-002
9.584883e+002;5.730569e-002
9.604169e+002;5.872284e-002
9.623455e+002;6.080524e-002
9.642740e+002;6.367797e-002
9.662026e+002;6.752899e-002
9.681311e+002;7.310549e-002
9.700596e+002;8.031993e-002
9.719882e+002;8.658584e-002
9.739167e+002;8.926806e-002
9.758453e+002;8.645041e-002
9.777739e+002;7.905322e-002
9.797024e+002;7.021745e-002
9.816309e+002;6.265777e-002
9.835595e+002;5.781749e-002
9.854880e+002;5.520583e-002
9.874166e+002;5.498815e-002
9.893452e+002;5.667159e-002
9.912737e+002;5.952431e-002
9.932022e+002;6.408711e-002
9.951307e+002;7.041450e-002
9.970593e+002;7.560878e-002
9.989879e+002;7.657732e-002
1.000916e+003;7.282889e-002
1.002845e+003;6.721448e-002
1.004773e+003;6.243804e-002
1.006702e+003;5.962867e-002
1.008631e+003;5.818667e-002
1.010559e+003;5.748463e-002
1.012488e+003;5.662644e-002
1.014416e+003;5.566292e-002
1.016345e+003;5.485470e-002
1.018273e+003;5.465121e-002
1.020202e+003;5.490602e-002
1.022130e+003;5.497089e-002
1.024059e+003;5.469153e-002
1.025988e+003;5.454465e-002
1.027916e+003;5.458673e-002
1.029845e+003;5.486737e-002
1.031773e+003;5.532309e-002
1.033702e+003;5.619149e-002
1.035630e+003;5.751958e-002
1.037559e+003;5.887000e-002
1.039487e+003;5.957606e-002
1.041416e+003;5.972617e-002
1.043344e+003;5.980492e-002
1.045273e+003;5.925952e-002
1.047202e+003;5.841790e-002
1.049130e+003;5.761877e-002
1.051059e+003;5.703511e-002
1.052987e+003;5.649418e-002
1.054916e+003;5.609978e-002
1.056844e+003;5.564804e-002
1.058773e+003;5.516347e-002
1.060701e+003;5.496795e-002
1.062630e+003;5.472881e-002
1.064558e+003;5.468168e-002
1.066487e+003;5.492373e-002
1.068416e+003;5.499258e-002
1.070344e+003;5.495272e-002
1.072273e+003;5.561369e-002
1.074201e+003;5.621268e-002
1.076130e+003;5.618414e-002
1.078058e+003;5.604580e-002
1.079987e+003;5.608354e-002
1.081915e+003;5.663961e-002
1.083844e+003;5.668835e-002
1.085773e+003;5.669382e-002
1.087701e+003;5.738936e-002
1.089630e+003;5.821618e-002
1.091558e+003;5.875830e-002
1.093487e+003;5.914040e-002
1.095415e+003;5.996222e-002
1.097344e+003;6.138739e-002
1.099272e+003;6.303362e-002
1.101201e+003;6.377945e-002
1.103129e+003;6.356959e-002
1.105058e+003;6.277989e-002
1.106987e+003;6.149106e-002
1.108915e+003;6.022733e-002
1.110844e+003;5.860697e-002
1.112772e+003;5.687062e-002
1.114701e+003;5.573983e-002
1.116629e+003;5.484861e-002
1.118558e+003;5.437293e-002
1.120486e+003;5.419016e-002
1.122415e+003;5.385778e-002
1.124344e+003;5.363372e-002
1.126272e+003;5.335305e-002
1.128201e+003;5.311439e-002
1.130129e+003;5.376431e-002
1.132058e+003;5.452076e-002
1.133986e+003;5.524579e-002
1.135915e+003;5.611592e-002
1.137843e+003;5.751114e-002
1.139772e+003;5.982922e-002
1.141700e+003;6.274888e-002
1.143629e+003;6.578212e-002
1.145557e+003;6.888023e-002
1.147486e+003;7.205606e-002
1.149415e+003;7.581381e-002
1.151343e+003;7.893014e-002
1.153272e+003;8.036828e-002
1.155200e+003;8.128757e-002
1.157129e+003;8.152145e-002
1.159057e+003;8.124202e-002
1.160986e+003;8.165375e-002
1.162914e+003;8.264866e-002
1.164843e+003;8.324205e-002
1.166771e+003;8.307508e-002
1.168700e+003;8.179205e-002
1.170629e+003;7.880002e-002
1.172557e+003;7.465983e-002
1.174486e+003;6.996440e-002
1.176414e+003;6.558632e-002
1.178343e+003;6.212364e-002
1.180271e+003;5.982135e-002
1.182200e+003;5.828912e-002
1.184128e+003;5.699101e-002
1.186057e+003;5.615559e-002
1.187986e+003;5.606989e-002
1.189914e+003;5.649339e-002
1.191843e+003;5.680246e-002
1.193771e+003;5.664414e-002
1.195700e+003;5.681058e-002
1.197628e+003;5.726270e-002
1.199557e+003;5.719194e-002
1.201485e+003;5.660575e-002
1.203414e+003;5.677236e-002
1.205343e+003;5.751894e-002
1.207271e+003;5.804807e-002
1.209200e+003;5.848644e-002
1.211128e+003;5.903854e-002
1.213057e+003;5.996363e-002
1.214985e+003;6.074117e-002
1.216914e+003;6.120714e-002
1.218842e+003;6.132015e-002
1.220771e+003;6.095440e-002
1.222699e+003;6.011399e-002
1.224628e+003;5.929184e-002
1.226557e+003;5.887572e-002
1.228485e+003;5.871779e-002
1.230414e+003;5.866826e-002
1.232342e+003;5.871483e-002
1.234271e+003;5.884575e-002
1.236199e+003;5.859723e-002
1.238128e+003;5.855498e-002
1.240056e+003;5.913276e-002
1.241985e+003;5.942821e-002
1.243913e+003;5.974633e-002
1.245842e+003;6.067487e-002
1.247771e+003;6.151962e-002
1.249699e+003;6.235645e-002
1.251628e+003;6.452385e-002
1.253556e+003;6.749861e-002
1.255485e+003;6.978869e-002
1.257413e+003;7.087092e-002
1.259342e+003;7.040574e-002
1.261270e+003;6.861740e-002
1.263199e+003;6.589853e-002
1.265127e+003;6.335362e-002
1.267056e+003;6.146576e-002
1.268985e+003;6.006456e-002
1.270913e+003;5.896305e-002
1.272842e+003;5.825346e-002
1.274770e+003;5.816576e-002
1.276699e+003;5.833505e-002
1.278627e+003;5.805936e-002
1.280556e+003;5.799820e-002
1.282484e+003;5.844299e-002
1.284413e+003;5.887508e-002
1.286342e+003;5.947627e-002
1.288270e+003;6.015524e-002
1.290199e+003;6.097148e-002
1.292127e+003;6.179373e-002
1.294056e+003;6.247859e-002
1.295984e+003;6.285777e-002
1.297913e+003;6.302580e-002
1.299841e+003;6.282423e-002
1.301770e+003;6.270194e-002
1.303698e+003;6.302135e-002
1.305627e+003;6.225770e-002
1.307556e+003;5.996782e-002
1.309484e+003;5.753233e-002
1.311413e+003;5.628781e-002
1.313341e+003;5.607460e-002
1.315270e+003;5.641374e-002
1.317198e+003;5.691478e-002
1.319127e+003;5.756180e-002
1.321055e+003;5.874154e-002
1.322984e+003;6.005132e-002
1.324912e+003;6.162545e-002
1.326841e+003;6.308722e-002
1.328770e+003;6.409360e-002
1.330698e+003;6.427924e-002
1.332627e+003;6.362349e-002
1.334555e+003;6.274386e-002
1.336484e+003;6.222928e-002
1.338412e+003;6.226924e-002
1.340341e+003;6.289170e-002
1.342269e+003;6.395490e-002
1.344198e+003;6.545771e-002
1.346126e+003;6.718884e-002
1.348055e+003;6.952118e-002
1.349984e+003;7.271386e-002
1.351912e+003;7.681382e-002
1.353841e+003;8.263123e-002
1.355769e+003;8.968379e-002
1.357698e+003;9.554509e-002
1.359626e+003;9.826595e-002
1.361555e+003;9.813185e-002
1.363483e+003;9.776542e-002
1.365412e+003;1.000417e-001
1.367341e+003;1.074208e-001
1.369269e+003;1.220594e-001
1.371198e+003;1.442218e-001
1.373126e+003;1.698957e-001
1.375055e+003;1.897826e-001
1.376983e+003;1.921127e-001
1.378912e+003;1.745996e-001
1.380840e+003;1.484674e-001
1.382769e+003;1.231536e-001
1.384698e+003;1.020316e-001
1.386626e+003;8.635828e-002
1.388555e+003;7.596005e-002
1.390483e+003;6.941803e-002
1.392412e+003;6.508280e-002
1.394340e+003;6.259768e-002
1.396269e+003;6.140106e-002
1.398197e+003;6.025344e-002
1.400126e+003;5.971937e-002
1.402054e+003;5.973078e-002
1.403983e+003;5.983276e-002
1.405911e+003;6.003626e-002
1.407840e+003;6.017176e-002
1.409769e+003;6.018013e-002
1.411697e+003;6.073774e-002
1.413626e+003;6.138640e-002
1.415554e+003;6.150412e-002
1.417483e+003;6.154485e-002
1.419411e+003;6.195122e-002
1.421340e+003;6.321321e-002
1.423268e+003;6.508353e-002
1.425197e+003;6.772525e-002
1.427125e+003;7.178293e-002
1.429054e+003;7.774245e-002
1.430983e+003;8.614764e-002
1.432911e+003;9.569111e-002
1.434840e+003;1.026880e-001
1.436768e+003;1.062847e-001
1.438697e+003;1.086555e-001
1.440625e+003;1.117882e-001
1.442554e+003;1.172348e-001
1.444482e+003;1.255357e-001
1.446411e+003;1.354328e-001
1.448340e+003;1.451946e-001
1.450268e+003;1.532768e-001
1.452197e+003;1.588655e-001
1.454125e+003;1.617733e-001
1.456054e+003;1.617027e-001
1.457982e+003;1.599513e-001
1.459911e+003;1.578310e-001
1.461839e+003;1.533408e-001
1.463768e+003;1.458423e-001
1.465697e+003;1.367170e-001
1.467625e+003;1.265935e-001
1.469554e+003;1.158653e-001
1.471482e+003;1.056431e-001
1.473411e+003;9.615716e-002
1.475339e+003;8.768854e-002
1.477268e+003;8.025953e-002
1.479196e+003;7.432293e-002
1.481125e+003;6.951722e-002
1.483053e+003;6.523802e-002
1.484982e+003;6.114588e-002
1.486911e+003;5.757799e-002
1.488839e+003;5.529411e-002
1.490768e+003;5.373998e-002
1.492696e+003;5.226347e-002
1.494625e+003;5.082102e-002
1.496553e+003;4.944364e-002
1.498482e+003;4.850009e-002
1.500410e+003;4.769954e-002
1.502339e+003;4.688141e-002
1.504267e+003;4.606317e-002
1.506196e+003;4.515935e-002
1.508125e+003;4.492975e-002
1.510053e+003;4.506113e-002
1.511982e+003;4.468325e-002
1.513910e+003;4.421912e-002
1.515839e+003;4.381925e-002
1.517767e+003;4.336786e-002
1.519696e+003;4.295333e-002
1.521624e+003;4.273875e-002
1.523553e+003;4.290853e-002
1.525481e+003;4.312057e-002
1.527410e+003;4.348031e-002
1.529339e+003;4.378095e-002
1.531267e+003;4.383614e-002
1.533196e+003;4.381199e-002
1.535124e+003;4.413185e-002
1.537053e+003;4.404508e-002
1.538981e+003;4.352719e-002
1.540910e+003;4.384725e-002
1.542838e+003;4.467800e-002
1.544767e+003;4.543886e-002
1.546695e+003;4.609666e-002
1.548624e+003;4.636445e-002
1.550553e+003;4.612300e-002
1.552481e+003;4.588161e-002
1.554410e+003;4.569528e-002
1.556338e+003;4.520116e-002
1.558267e+003;4.437330e-002
1.560195e+003;4.409968e-002
1.562124e+003;4.412903e-002
1.564052e+003;4.399547e-002
1.565981e+003;4.399730e-002
1.567910e+003;4.379942e-002
1.569838e+003;4.299793e-002
1.571767e+003;4.270321e-002
1.573695e+003;4.242528e-002
1.575624e+003;4.198629e-002
1.577552e+003;4.234203e-002
1.579481e+003;4.278105e-002
1.581409e+003;4.279191e-002
1.583338e+003;4.286322e-002
1.585266e+003;4.292554e-002
1.587195e+003;4.284756e-002
1.589124e+003;4.251732e-002
1.591052e+003;4.242959e-002
1.592981e+003;4.278727e-002
1.594909e+003;4.303971e-002
1.596838e+003;4.298908e-002
1.598766e+003;4.323538e-002
1.600695e+003;4.364101e-002
1.602623e+003;4.394942e-002
1.604552e+003;4.427749e-002
1.606480e+003;4.455477e-002
1.608409e+003;4.477504e-002
1.610338e+003;4.514178e-002
1.612266e+003;4.553492e-002
1.614195e+003;4.580403e-002
1.616123e+003;4.607271e-002
1.618052e+003;4.651663e-002
1.619980e+003;4.694206e-002
1.621909e+003;4.738794e-002
1.623837e+003;4.796267e-002
1.625766e+003;4.829537e-002
1.627694e+003;4.854029e-002
1.629623e+003;4.904676e-002
1.631552e+003;4.950101e-002
1.633480e+003;4.927154e-002
1.635409e+003;4.890441e-002
1.637337e+003;4.947053e-002
1.639266e+003;5.013584e-002
1.641194e+003;5.052932e-002
1.643123e+003;5.085238e-002
1.645051e+003;5.084512e-002
1.646980e+003;5.099050e-002
1.648909e+003;5.139866e-002
1.650837e+003;5.117796e-002
1.652766e+003;5.072933e-002
1.654694e+003;5.131062e-002
1.656623e+003;5.203729e-002
1.658551e+003;5.214611e-002
1.660480e+003;5.181984e-002
1.662408e+003;5.154706e-002
1.664337e+003;5.165919e-002
1.666266e+003;5.125171e-002
1.668194e+003;5.052866e-002
1.670123e+003;5.006277e-002
1.672051e+003;4.995083e-002
1.673980e+003;4.959323e-002
1.675908e+003;4.927061e-002
1.677837e+003;4.909180e-002
1.679765e+003;4.857257e-002
1.681694e+003;4.826664e-002
1.683622e+003;4.771456e-002
1.685551e+003;4.749882e-002
1.687479e+003;4.780868e-002
1.689408e+003;4.771023e-002
1.691337e+003;4.756085e-002
1.693265e+003;4.749490e-002
1.695194e+003;4.705201e-002
1.697122e+003;4.717961e-002
1.699051e+003;4.731205e-002
1.700979e+003;4.734198e-002
1.702908e+003;4.812110e-002
1.704836e+003;4.851736e-002
1.706765e+003;4.877883e-002
1.708693e+003;4.914196e-002
1.710622e+003;4.904824e-002
1.712551e+003;4.875440e-002
1.714479e+003;4.836037e-002
1.716408e+003;4.783114e-002
1.718336e+003;4.775154e-002
1.720265e+003;4.800715e-002
1.722193e+003;4.807080e-002
1.724122e+003;4.798183e-002
1.726050e+003;4.782008e-002
1.727979e+003;4.781575e-002
1.729908e+003;4.813054e-002
1.731836e+003;4.838574e-002
1.733765e+003;4.876563e-002
1.735693e+003;4.958751e-002
1.737622e+003;5.000622e-002
1.739550e+003;4.978834e-002
1.741479e+003;4.948074e-002
1.743407e+003;4.856116e-002
1.745336e+003;4.688946e-002
1.747265e+003;4.505631e-002
1.749193e+003;4.311669e-002
1.751122e+003;4.115112e-002
1.753050e+003;3.950529e-002
1.754979e+003;3.802948e-002
1.756907e+003;3.623998e-002
1.758836e+003;3.457412e-002
1.760764e+003;3.314370e-002
1.762693e+003;3.213314e-002
1.764621e+003;3.106175e-002
1.766550e+003;2.981807e-002
1.768479e+003;2.945876e-002
1.770407e+003;2.928741e-002
1.772336e+003;2.870083e-002
1.774264e+003;2.840441e-002
1.776193e+003;2.811599e-002
1.778121e+003;2.760263e-002
1.780050e+003;2.719818e-002
1.781978e+003;2.689048e-002
1.783907e+003;2.644750e-002
1.785835e+003;2.600666e-002
1.787764e+003;2.568767e-002
1.789693e+003;2.515143e-002
1.791621e+003;2.444412e-002
1.793550e+003;2.421301e-002
1.795478e+003;2.406292e-002
1.797407e+003;2.356201e-002
1.799335e+003;2.326110e-002
1.801264e+003;2.296201e-002
1.803192e+003;2.270927e-002
1.805121e+003;2.254650e-002
1.807049e+003;2.235606e-002
1.808978e+003;2.218018e-002
1.810907e+003;2.207153e-002
1.812835e+003;2.201855e-002
1.814764e+003;2.183513e-002
1.816692e+003;2.164786e-002
1.818621e+003;2.164713e-002
1.820549e+003;2.139881e-002
1.822478e+003;2.126134e-002
1.824406e+003;2.149197e-002
1.826335e+003;2.162564e-002
1.828264e+003;2.148782e-002
1.830192e+003;2.149057e-002
1.832121e+003;2.138910e-002
1.834049e+003;2.116048e-002
1.835978e+003;2.132026e-002
1.837906e+003;2.141378e-002
1.839835e+003;2.098344e-002
1.841763e+003;2.053113e-002
1.843692e+003;2.033268e-002
1.845620e+003;2.045381e-002
1.847549e+003;2.050226e-002
1.849478e+003;2.035740e-002
1.851406e+003;2.021565e-002
1.853335e+003;2.010507e-002
1.855263e+003;2.012138e-002
1.857192e+003;2.012742e-002
1.859120e+003;1.990872e-002
1.861049e+003;1.985981e-002
1.862977e+003;1.998858e-002
1.864906e+003;1.973781e-002
1.866834e+003;1.955667e-002
1.868763e+003;1.966843e-002
1.870692e+003;1.953217e-002
1.872620e+003;1.939435e-002
1.874549e+003;1.960094e-002
1.876477e+003;1.973653e-002
1.878406e+003;1.974773e-002
1.880334e+003;1.975386e-002
1.882263e+003;1.975272e-002
1.884191e+003;1.952371e-002
1.886120e+003;1.954704e-002
1.888048e+003;1.959206e-002
1.889977e+003;1.971745e-002
1.891906e+003;1.986280e-002
1.893834e+003;1.967471e-002
1.895763e+003;1.950718e-002
1.897691e+003;1.971673e-002
1.899620e+003;1.988510e-002
1.901548e+003;1.978084e-002
1.903477e+003;1.969364e-002
1.905405e+003;1.944952e-002
1.907334e+003;1.923608e-002
1.909262e+003;1.932475e-002
1.911191e+003;1.929721e-002
1.913120e+003;1.930587e-002
1.915048e+003;1.915535e-002
1.916977e+003;1.909954e-002
1.918905e+003;1.926694e-002
1.920834e+003;1.893670e-002
1.922762e+003;1.872870e-002
1.924691e+003;1.886724e-002
1.926619e+003;1.880606e-002
1.928548e+003;1.860010e-002
1.930477e+003;1.854408e-002
1.932405e+003;1.845494e-002
1.934334e+003;1.833406e-002
1.936262e+003;1.821307e-002
1.938191e+003;1.798062e-002
1.940119e+003;1.781347e-002
1.942048e+003;1.771420e-002
1.943976e+003;1.777902e-002
1.945905e+003;1.785363e-002
1.947833e+003;1.794557e-002
1.949762e+003;1.785376e-002
1.951691e+003;1.780284e-002
1.953619e+003;1.777012e-002
1.955548e+003;1.766161e-002
1.957476e+003;1.764967e-002
1.959405e+003;1.776884e-002
1.961333e+003;1.779418e-002
1.963262e+003;1.778575e-002
1.965190e+003;1.777354e-002
1.967119e+003;1.759880e-002
1.969047e+003;1.743066e-002
1.970976e+003;1.721849e-002
1.972905e+003;1.734200e-002
1.974833e+003;1.758321e-002
1.976762e+003;1.766299e-002
1.978690e+003;1.767172e-002
1.980619e+003;1.744211e-002
1.982547e+003;1.725021e-002
1.984476e+003;1.728455e-002
1.986404e+003;1.752563e-002
1.988333e+003;1.767106e-002
1.990261e+003;1.761502e-002
1.992190e+003;1.744122e-002
1.994119e+003;1.731700e-002
1.996047e+003;1.727821e-002
1.997976e+003;1.730544e-002
1.999904e+003;1.754384e-002
2.001833e+003;1.748054e-002
2.003761e+003;1.738879e-002
2.005690e+003;1.743835e-002
2.007618e+003;1.742476e-002
2.009547e+003;1.725704e-002
2.011476e+003;1.735024e-002
2.013404e+003;1.741735e-002
2.015333e+003;1.740110e-002
2.017261e+003;1.757762e-002
2.019190e+003;1.776604e-002
2.021118e+003;1.767617e-002
2.023047e+003;1.724263e-002
2.024975e+003;1.709968e-002
2.026904e+003;1.731120e-002
2.028833e+003;1.717978e-002
2.030761e+003;1.682229e-002
2.032690e+003;1.678048e-002
2.034618e+003;1.685419e-002
2.036547e+003;1.698165e-002
2.038475e+003;1.705095e-002
2.040404e+003;1.712835e-002
2.042332e+003;1.739076e-002
2.044261e+003;1.765160e-002
2.046189e+003;1.766692e-002
2.048118e+003;1.752442e-002
2.050047e+003;1.735714e-002
2.051975e+003;1.726469e-002
2.053904e+003;1.736724e-002
2.055832e+003;1.741359e-002
2.057761e+003;1.695099e-002
2.059689e+003;1.662174e-002
2.061618e+003;1.673165e-002
2.063546e+003;1.686331e-002
2.065475e+003;1.683031e-002
2.067404e+003;1.681595e-002
2.069332e+003;1.698013e-002
2.071260e+003;1.711877e-002
2.073189e+003;1.721894e-002
2.075118e+003;1.710802e-002
2.077046e+003;1.689435e-002
2.078975e+003;1.688774e-002
2.080903e+003;1.699223e-002
2.082832e+003;1.722735e-002
2.084760e+003;1.725897e-002
2.086689e+003;1.725011e-002
2.088617e+003;1.730241e-002
2.090546e+003;1.725159e-002
2.092475e+003;1.711484e-002
2.094403e+003;1.718657e-002
2.096332e+003;1.739521e-002
2.098260e+003;1.752697e-002
2.100189e+003;1.776608e-002
2.102117e+003;1.789502e-002
2.104046e+003;1.752394e-002
2.105974e+003;1.741580e-002
2.107903e+003;1.749141e-002
2.109832e+003;1.749668e-002
2.111760e+003;1.760326e-002
2.113688e+003;1.767303e-002
2.115617e+003;1.743487e-002
2.117546e+003;1.732303e-002
2.119474e+003;1.747364e-002
2.121403e+003;1.776180e-002
2.123331e+003;1.811115e-002
2.125260e+003;1.809906e-002
2.127188e+003;1.824662e-002
2.129117e+003;1.875271e-002
2.131045e+003;1.899350e-002
2.132974e+003;1.892265e-002
2.134903e+003;1.866059e-002
2.136831e+003;1.845515e-002
2.138760e+003;1.833036e-002
2.140688e+003;1.805934e-002
2.142617e+003;1.820412e-002
2.144545e+003;1.844723e-002
2.146474e+003;1.845169e-002
2.148402e+003;1.841536e-002
2.150331e+003;1.843589e-002
2.152260e+003;1.856196e-002
2.154188e+003;1.865869e-002
2.156117e+003;1.854688e-002
2.158045e+003;1.827109e-002
2.159974e+003;1.824344e-002
2.161902e+003;1.840678e-002
2.163831e+003;1.845750e-002
2.165759e+003;1.846514e-002
2.167688e+003;1.871428e-002
2.169616e+003;1.906426e-002
2.171545e+003;1.928229e-002
2.173474e+003;1.941275e-002
2.175402e+003;1.938801e-002
2.177331e+003;1.947426e-002
2.179259e+003;1.944026e-002
2.181188e+003;1.927518e-002
2.183116e+003;1.941053e-002
2.185045e+003;1.948649e-002
2.186973e+003;1.920273e-002
2.188902e+003;1.898529e-002
2.190831e+003;1.923895e-002
2.192759e+003;1.946795e-002
2.194688e+003;1.934977e-002
2.196616e+003;1.930761e-002
2.198545e+003;1.933764e-002
2.200473e+003;1.926871e-002
2.202402e+003;1.899782e-002
2.204330e+003;1.888309e-002
2.206259e+003;1.871583e-002
2.208188e+003;1.840872e-002
2.210116e+003;1.875527e-002
2.212044e+003;1.911425e-002
2.213973e+003;1.900703e-002
2.215902e+003;1.905020e-002
2.217830e+003;1.920737e-002
2.219759e+003;1.922098e-002
2.221687e+003;1.919255e-002
2.223616e+003;1.906845e-002
2.225544e+003;1.911158e-002
2.227473e+003;1.928817e-002
2.229401e+003;1.935351e-002
2.231330e+003;1.947495e-002
2.233259e+003;1.944321e-002
2.235187e+003;1.913032e-002
2.237116e+003;1.904819e-002
2.239044e+003;1.925090e-002
2.240973e+003;1.925953e-002
2.242901e+003;1.920072e-002
2.244830e+003;1.908790e-002
2.246758e+003;1.906952e-002
2.248687e+003;1.938978e-002
2.250615e+003;1.974436e-002
2.252544e+003;1.984372e-002
2.254473e+003;1.996304e-002
2.256401e+003;1.993987e-002
2.258330e+003;1.998240e-002
2.260258e+003;1.984864e-002
2.262187e+003;1.966569e-002
2.264115e+003;1.980751e-002
2.266044e+003;1.978209e-002
2.267972e+003;1.973781e-002
2.269901e+003;1.967100e-002
2.271830e+003;1.936844e-002
2.273758e+003;1.933996e-002
2.275687e+003;1.927349e-002
2.277615e+003;1.927314e-002
2.279544e+003;1.949023e-002
2.281472e+003;1.934769e-002
2.283401e+003;1.899914e-002
2.285329e+003;1.919566e-002
2.287258e+003;1.933868e-002
2.289187e+003;1.917170e-002
2.291115e+003;1.888170e-002
2.293043e+003;1.887267e-002
2.294972e+003;1.907977e-002
2.296901e+003;1.893881e-002
2.298829e+003;1.878765e-002
2.300758e+003;1.881869e-002
2.302686e+003;1.897910e-002
2.304615e+003;1.904632e-002
2.306543e+003;1.890890e-002
2.308472e+003;1.904750e-002
2.310400e+003;1.906540e-002
2.312329e+003;1.879437e-002
2.314258e+003;1.884644e-002
2.316186e+003;1.928876e-002
2.318115e+003;1.941757e-002
2.320043e+003;1.926618e-002
2.321972e+003;1.932354e-002
2.323900e+003;1.962215e-002
2.325829e+003;1.983314e-002
2.327757e+003;1.992808e-002
2.329686e+003;1.994598e-002
2.331615e+003;2.009465e-002
2.333543e+003;2.032261e-002
2.335472e+003;2.051723e-002
2.337400e+003;2.041230e-002
2.339329e+003;2.053238e-002
2.341257e+003;2.069589e-002
2.343186e+003;2.070002e-002
2.345114e+003;2.057215e-002
2.347043e+003;2.058369e-002
2.348971e+003;2.103286e-002
2.350900e+003;2.101582e-002
2.352829e+003;2.091192e-002
2.354757e+003;2.122359e-002
2.356686e+003;2.138531e-002
2.358614e+003;2.146178e-002
2.360543e+003;2.160454e-002
2.362471e+003;2.148573e-002
2.364400e+003;2.123949e-002
2.366328e+003;2.121350e-002
2.368257e+003;2.147021e-002
2.370186e+003;2.184280e-002
2.372114e+003;2.172351e-002
2.374042e+003;2.132872e-002
2.375971e+003;2.126618e-002
2.377900e+003;2.144431e-002
2.379828e+003;2.148285e-002
2.381757e+003;2.155561e-002
2.383685e+003;2.182479e-002
2.385614e+003;2.165371e-002
2.387542e+003;2.130634e-002
2.389471e+003;2.140149e-002
2.391399e+003;2.175856e-002
2.393328e+003;2.196097e-002
2.395257e+003;2.207603e-002
2.397185e+003;2.194738e-002
2.399114e+003;2.191678e-002
2.401042e+003;2.216082e-002
2.402971e+003;2.227615e-002
2.404899e+003;2.211069e-002
2.406828e+003;2.219768e-002
2.408756e+003;2.226251e-002
2.410685e+003;2.213732e-002
2.412614e+003;2.237005e-002
2.414542e+003;2.246411e-002
2.416471e+003;2.228853e-002
2.418399e+003;2.224570e-002
2.420328e+003;2.243662e-002
2.422256e+003;2.288345e-002
2.424185e+003;2.315624e-002
2.426113e+003;2.304428e-002
2.428042e+003;2.283718e-002
2.429970e+003;2.281252e-002
2.431899e+003;2.304802e-002
2.433828e+003;2.297525e-002
2.435756e+003;2.264912e-002
2.437685e+003;2.238736e-002
2.439613e+003;2.219685e-002
2.441542e+003;2.213251e-002
2.443470e+003;2.219611e-002
2.445399e+003;2.206362e-002
2.447327e+003;2.184262e-002
2.449256e+003;2.156978e-002
2.451185e+003;2.158880e-002
2.453113e+003;2.180190e-002
2.455042e+003;2.179618e-002
2.456970e+003;2.162202e-002
2.458899e+003;2.160635e-002
2.460827e+003;2.160579e-002
2.462756e+003;2.151902e-002
2.464684e+003;2.143386e-002
2.466613e+003;2.148546e-002
2.468542e+003;2.176873e-002
2.470470e+003;2.176329e-002
2.472398e+003;2.185775e-002
2.474327e+003;2.195616e-002
2.476256e+003;2.206118e-002
2.478184e+003;2.245326e-002
2.480113e+003;2.263090e-002
2.482041e+003;2.226911e-002
2.483970e+003;2.239514e-002
2.485898e+003;2.255966e-002
2.487827e+003;2.244639e-002
2.489755e+003;2.262179e-002
2.491684e+003;2.271193e-002
2.493613e+003;2.277771e-002
2.495541e+003;2.270533e-002
2.497470e+003;2.253754e-002
2.499398e+003;2.261146e-002
2.501327e+003;2.249852e-002
2.503255e+003;2.228557e-002
2.505184e+003;2.225146e-002
2.507112e+003;2.244730e-002
2.509041e+003;2.267621e-002
2.510969e+003;2.269209e-002
2.512898e+003;2.286759e-002
2.514827e+003;2.336920e-002
2.516755e+003;2.366669e-002
2.518684e+003;2.392790e-002
2.520612e+003;2.421259e-002
2.522541e+003;2.440767e-002
2.524469e+003;2.470106e-002
2.526398e+003;2.488457e-002
2.528326e+003;2.506345e-002
2.530255e+003;2.526169e-002
2.532184e+003;2.541149e-002
2.534112e+003;2.539832e-002
2.536041e+003;2.534436e-002
2.537969e+003;2.558570e-002
2.539898e+003;2.596466e-002
2.541826e+003;2.638732e-002
2.543755e+003;2.651307e-002
2.545683e+003;2.669551e-002
2.547612e+003;2.706557e-002
2.549541e+003;2.738539e-002
2.551469e+003;2.750776e-002
2.553397e+003;2.757968e-002
2.555326e+003;2.779146e-002
2.557255e+003;2.810189e-002
2.559183e+003;2.838594e-002
2.561112e+003;2.876112e-002
2.563040e+003;2.918066e-002
2.564969e+003;2.952893e-002
2.566897e+003;2.992732e-002
2.568826e+003;3.061941e-002
2.570754e+003;3.118701e-002
2.572683e+003;3.152842e-002
2.574612e+003;3.205526e-002
2.576540e+003;3.281042e-002
2.578469e+003;3.342137e-002
2.580397e+003;3.362564e-002
2.582326e+003;3.366699e-002
2.584254e+003;3.353514e-002
2.586183e+003;3.292385e-002
2.588111e+003;3.223177e-002
2.590040e+003;3.193118e-002
2.591969e+003;3.183529e-002
2.593897e+003;3.142147e-002
2.595826e+003;3.130978e-002
2.597754e+003;3.149101e-002
2.599683e+003;3.133845e-002
2.601611e+003;3.120805e-002
2.603540e+003;3.157349e-002
2.605468e+003;3.198656e-002
2.607397e+003;3.205098e-002
2.609325e+003;3.229433e-002
2.611254e+003;3.265532e-002
2.613183e+003;3.298405e-002
2.615111e+003;3.319838e-002
2.617040e+003;3.304604e-002
2.618968e+003;3.288164e-002
2.620897e+003;3.282421e-002
2.622825e+003;3.284769e-002
2.624754e+003;3.270966e-002
2.626682e+003;3.243905e-002
2.628611e+003;3.255599e-002
2.630540e+003;3.261950e-002
2.632468e+003;3.248268e-002
2.634396e+003;3.247643e-002
2.636325e+003;3.268701e-002
2.638254e+003;3.275014e-002
2.640182e+003;3.244166e-002
2.642111e+003;3.244672e-002
2.644039e+003;3.312120e-002
2.645968e+003;3.362549e-002
2.647896e+003;3.399985e-002
2.649825e+003;3.441822e-002
2.651753e+003;3.464632e-002
2.653682e+003;3.491842e-002
2.655611e+003;3.520578e-002
2.657539e+003;3.533076e-002
2.659468e+003;3.541430e-002
2.661396e+003;3.559815e-002
2.663325e+003;3.577830e-002
2.665253e+003;3.600010e-002
2.667182e+003;3.626948e-002
2.669110e+003;3.642926e-002
2.671039e+003;3.646799e-002
2.672968e+003;3.656198e-002
2.674896e+003;3.672324e-002
2.676825e+003;3.699513e-002
2.678753e+003;3.690357e-002
2.680682e+003;3.671095e-002
2.682610e+003;3.652601e-002
2.684539e+003;3.662009e-002
2.686467e+003;3.697702e-002
2.688396e+003;3.710450e-002
2.690324e+003;3.709855e-002
2.692253e+003;3.704355e-002
2.694182e+003;3.722340e-002
2.696110e+003;3.750065e-002
2.698039e+003;3.786474e-002
2.699967e+003;3.817099e-002
2.701896e+003;3.855465e-002
2.703824e+003;3.926850e-002
2.705753e+003;3.983304e-002
2.707681e+003;4.031476e-002
2.709610e+003;4.101749e-002
2.711539e+003;4.179081e-002
2.713467e+003;4.295637e-002
2.715396e+003;4.434247e-002
2.717324e+003;4.613395e-002
2.719253e+003;4.762437e-002
2.721181e+003;4.842022e-002
2.723110e+003;4.916292e-002
2.725038e+003;4.914292e-002
2.726967e+003;4.804249e-002
2.728896e+003;4.682051e-002
2.730824e+003;4.571659e-002
2.732752e+003;4.452856e-002
2.734681e+003;4.349321e-002
2.736610e+003;4.282895e-002
2.738538e+003;4.232497e-002
2.740467e+003;4.139671e-002
2.742395e+003;4.045337e-002
2.744324e+003;3.985396e-002
2.746252e+003;3.932744e-002
2.748181e+003;3.863909e-002
2.750109e+003;3.837168e-002
2.752038e+003;3.873356e-002
2.753967e+003;3.912243e-002
2.755895e+003;3.918338e-002
2.757824e+003;3.926400e-002
2.759752e+003;3.979723e-002
2.761681e+003;4.028229e-002
2.763609e+003;4.076745e-002
2.765538e+003;4.116689e-002
2.767466e+003;4.151044e-002
2.769395e+003;4.178615e-002
2.771323e+003;4.204553e-002
2.773252e+003;4.249934e-002
2.775181e+003;4.298202e-002
2.777109e+003;4.340715e-002
2.779038e+003;4.413970e-002
2.780966e+003;4.529408e-002
2.782895e+003;4.667129e-002
2.784823e+003;4.792237e-002
2.786752e+003;4.929704e-002
2.788680e+003;5.085820e-002
2.790609e+003;5.253779e-002
2.792538e+003;5.408870e-002
2.794466e+003;5.544354e-002
2.796395e+003;5.667268e-002
2.798323e+003;5.809072e-002
2.800252e+003;5.965497e-002
2.802180e+003;6.125865e-002
2.804109e+003;6.351478e-002
2.806037e+003;6.600012e-002
2.807966e+003;6.791694e-002
2.809895e+003;6.952608e-002
2.811823e+003;7.133234e-002
2.813751e+003;7.325298e-002
2.815680e+003;7.515197e-002
2.817609e+003;7.710017e-002
2.819537e+003;7.989860e-002
2.821466e+003;8.326469e-002
2.823394e+003;8.678669e-002
2.825323e+003;9.136692e-002
2.827251e+003;9.744596e-002
2.829180e+003;1.051428e-001
2.831108e+003;1.140577e-001
2.833037e+003;1.231152e-001
2.834966e+003;1.304149e-001
2.836894e+003;1.345834e-001
2.838823e+003;1.353457e-001
2.840751e+003;1.331481e-001
2.842680e+003;1.294230e-001
2.844608e+003;1.254101e-001
2.846537e+003;1.209030e-001
2.848465e+003;1.170492e-001
2.850394e+003;1.147015e-001
2.852323e+003;1.130517e-001
2.854251e+003;1.122896e-001
2.856180e+003;1.127966e-001
2.858108e+003;1.152922e-001
2.860037e+003;1.199920e-001
2.861965e+003;1.266136e-001
2.863894e+003;1.341477e-001
2.865822e+003;1.400610e-001
2.867751e+003;1.435054e-001
2.869679e+003;1.451332e-001
2.871608e+003;1.452427e-001
2.873536e+003;1.451251e-001
2.875465e+003;1.453908e-001
2.877394e+003;1.448739e-001
2.879322e+003;1.437642e-001
2.881251e+003;1.427217e-001
2.883179e+003;1.420797e-001
2.885108e+003;1.421122e-001
2.887036e+003;1.428372e-001
2.888965e+003;1.443135e-001
2.890893e+003;1.463910e-001
2.892822e+003;1.494422e-001
2.894750e+003;1.533400e-001
2.896679e+003;1.573664e-001
2.898608e+003;1.619378e-001
2.900536e+003;1.670259e-001
2.902465e+003;1.717062e-001
2.904393e+003;1.766566e-001
2.906322e+003;1.815149e-001
2.908250e+003;1.859684e-001
2.910179e+003;1.899358e-001
2.912107e+003;1.921187e-001
2.914036e+003;1.940869e-001
2.915965e+003;1.958977e-001
2.917893e+003;1.954595e-001
2.919822e+003;1.933424e-001
2.921750e+003;1.901969e-001
2.923679e+003;1.857521e-001
2.925607e+003;1.798527e-001
2.927536e+003;1.727215e-001
2.929464e+003;1.651103e-001
2.931393e+003;1.573337e-001
2.933322e+003;1.491832e-001
2.935250e+003;1.418529e-001
2.937178e+003;1.365836e-001
2.939107e+003;1.338209e-001
2.941036e+003;1.338761e-001
2.942964e+003;1.369539e-001
2.944893e+003;1.431934e-001
2.946821e+003;1.507358e-001
2.948750e+003;1.572161e-001
2.950678e+003;1.611577e-001
2.952607e+003;1.623706e-001
2.954535e+003;1.611639e-001
2.956464e+003;1.578518e-001
2.958393e+003;1.531772e-001
2.960321e+003;1.482300e-001
2.962250e+003;1.428375e-001
2.964178e+003;1.361548e-001
2.966107e+003;1.289025e-001
2.968035e+003;1.220709e-001
2.969964e+003;1.157430e-001
2.971892e+003;1.093396e-001
2.973821e+003;1.033522e-001
2.975750e+003;9.819931e-002
2.977678e+003;9.346539e-002
2.979607e+003;8.899919e-002
2.981535e+003;8.513094e-002
2.983464e+003;8.149930e-002
2.985392e+003;7.793378e-002
2.987321e+003;7.489890e-002
2.989249e+003;7.211570e-002
2.991178e+003;6.938285e-002
2.993106e+003;6.702708e-002
2.995035e+003;6.487446e-002
2.996964e+003;6.253125e-002
2.998892e+003;6.004109e-002
3.000821e+003;5.790823e-002
3.002749e+003;5.599683e-002
3.004678e+003;5.403853e-002
3.006606e+003;5.230144e-002
3.008535e+003;5.076609e-002
3.010463e+003;4.909180e-002
3.012392e+003;4.703344e-002
3.014321e+003;4.520009e-002
3.016249e+003;4.416629e-002
3.018177e+003;4.333571e-002
3.020106e+003;4.248169e-002
3.022035e+003;4.134423e-002
3.023963e+003;3.999893e-002
3.025892e+003;3.899794e-002
3.027820e+003;3.858738e-002
3.029749e+003;3.818220e-002
3.031677e+003;3.727939e-002
3.033606e+003;3.621181e-002
3.035534e+003;3.560898e-002
3.037463e+003;3.545734e-002
3.039392e+003;3.517082e-002
3.041320e+003;3.430848e-002
3.043249e+003;3.350636e-002
3.045177e+003;3.348514e-002
3.047106e+003;3.375311e-002
3.049034e+003;3.349609e-002
3.050963e+003;3.296814e-002
3.052891e+003;3.270626e-002
3.054820e+003;3.262771e-002
3.056749e+003;3.269530e-002
3.058677e+003;3.249107e-002
3.060606e+003;3.209197e-002
3.062534e+003;3.171587e-002
3.064463e+003;3.148467e-002
3.066391e+003;3.134995e-002
3.068320e+003;3.115387e-002
3.070248e+003;3.134162e-002
3.072177e+003;3.143551e-002
3.074105e+003;3.102111e-002
3.076034e+003;3.071079e-002
3.077963e+003;3.055826e-002
3.079891e+003;3.065482e-002
3.081820e+003;3.083065e-002
3.083748e+003;3.112219e-002
3.085677e+003;3.104702e-002
3.087605e+003;3.048016e-002
3.089534e+003;3.033371e-002
3.091462e+003;3.060366e-002
3.093391e+003;3.075389e-002
3.095320e+003;3.043104e-002
3.097248e+003;3.003930e-002
3.099177e+003;2.992984e-002
3.101105e+003;3.004214e-002
3.103034e+003;3.006451e-002
3.104962e+003;2.986588e-002
3.106891e+003;2.985012e-002
3.108819e+003;2.984253e-002
3.110748e+003;2.995672e-002
3.112677e+003;3.044238e-002
3.114605e+003;3.056139e-002
3.116533e+003;3.045478e-002
3.118462e+003;3.001991e-002
3.120391e+003;2.951964e-002
3.122319e+003;2.961782e-002
3.124248e+003;3.030767e-002
3.126176e+003;3.044622e-002
3.128105e+003;3.009103e-002
3.130033e+003;3.008187e-002
3.131962e+003;3.010602e-002
3.133890e+003;3.050252e-002
3.135819e+003;3.121898e-002
3.137748e+003;3.122934e-002
3.139676e+003;3.107261e-002
3.141605e+003;3.105485e-002
3.143533e+003;3.095755e-002
3.145462e+003;3.093880e-002
3.147390e+003;3.090240e-002
3.149319e+003;3.128069e-002
3.151247e+003;3.174021e-002
3.153176e+003;3.146807e-002
3.155104e+003;3.114803e-002
3.157033e+003;3.124733e-002
3.158962e+003;3.118829e-002
3.160890e+003;3.105997e-002
3.162819e+003;3.123518e-002
3.164747e+003;3.161483e-002
3.166676e+003;3.152568e-002
3.168604e+003;3.160706e-002
3.170533e+003;3.137307e-002
3.172461e+003;3.121699e-002
3.174390e+003;3.147473e-002
3.176319e+003;3.175027e-002
3.178247e+003;3.156861e-002
3.180176e+003;3.081770e-002
3.182104e+003;3.102193e-002
3.184033e+003;3.152614e-002
3.185961e+003;3.139330e-002
3.187890e+003;3.159174e-002
3.189818e+003;3.251675e-002
3.191747e+003;3.269298e-002
3.193676e+003;3.214149e-002
3.195604e+003;3.204862e-002
3.197532e+003;3.231924e-002
3.199461e+003;3.214827e-002
3.201390e+003;3.190689e-002
3.203318e+003;3.187387e-002
3.205247e+003;3.163136e-002
3.207175e+003;3.171144e-002
3.209104e+003;3.211537e-002
3.211032e+003;3.181497e-002
3.212961e+003;3.150861e-002
3.214889e+003;3.153985e-002
3.216818e+003;3.155183e-002
3.218747e+003;3.153515e-002
3.220675e+003;3.151951e-002
3.222604e+003;3.124444e-002
3.224532e+003;3.113198e-002
3.226461e+003;3.127025e-002
3.228389e+003;3.117526e-002
3.230318e+003;3.104122e-002
3.232246e+003;3.052641e-002
3.234175e+003;3.029477e-002
3.236104e+003;3.026028e-002
3.238032e+003;3.048802e-002
3.239961e+003;3.056263e-002
3.241889e+003;3.018717e-002
3.243818e+003;3.022983e-002
3.245746e+003;3.067374e-002
3.247675e+003;3.034618e-002
3.249603e+003;2.990752e-002
3.251532e+003;3.011010e-002
3.253460e+003;2.992920e-002
3.255389e+003;2.971041e-002
3.257318e+003;2.996967e-002
3.259246e+003;3.023243e-002
3.261175e+003;3.048272e-002
3.263103e+003;3.028177e-002
3.265032e+003;3.038918e-002
3.266960e+003;3.044487e-002
3.268889e+003;3.013454e-002
3.270817e+003;3.007481e-002
3.272746e+003;3.012150e-002
3.274675e+003;3.034412e-002
3.276603e+003;3.013553e-002
3.278531e+003;2.997738e-002
3.280460e+003;3.020784e-002
3.282389e+003;3.031979e-002
3.284317e+003;3.000699e-002
3.286246e+003;2.983656e-002
3.288174e+003;3.002666e-002
3.290103e+003;3.005616e-002
3.292031e+003;2.987426e-002
3.293960e+003;2.969108e-002
3.295888e+003;3.008677e-002
3.297817e+003;3.083215e-002
3.299746e+003;3.079682e-002
3.301674e+003;3.002279e-002
3.303603e+003;2.957547e-002
3.305531e+003;2.954663e-002
3.307460e+003;2.972681e-002
3.309388e+003;3.019627e-002
3.311317e+003;3.020070e-002
3.313245e+003;3.030049e-002
3.315174e+003;3.049925e-002
3.317103e+003;3.029531e-002
3.319031e+003;2.975257e-002
3.320960e+003;2.926200e-002
3.322888e+003;2.912581e-002
3.324817e+003;2.939681e-002
3.326745e+003;2.956749e-002
3.328674e+003;2.919321e-002
3.330602e+003;2.894397e-002
3.332531e+003;2.927075e-002
3.334459e+003;2.962587e-002
3.336388e+003;2.986471e-002
3.338317e+003;2.971094e-002
3.340245e+003;2.956114e-002
3.342174e+003;2.931995e-002
3.344102e+003;2.875195e-002
3.346031e+003;2.861298e-002
3.347959e+003;2.883087e-002
3.349888e+003;2.884078e-002
3.351816e+003;2.901166e-002
3.353745e+003;2.925934e-002
3.355674e+003;2.902573e-002
3.357602e+003;2.835053e-002
3.359531e+003;2.815004e-002
3.361459e+003;2.875074e-002
3.363388e+003;2.894670e-002
3.365316e+003;2.897674e-002
3.367245e+003;2.853025e-002
3.369173e+003;2.772520e-002
3.371102e+003;2.779955e-002
3.373031e+003;2.774370e-002
3.374959e+003;2.755531e-002
3.376887e+003;2.758660e-002
3.378816e+003;2.768448e-002
3.380745e+003;2.755916e-002
3.382673e+003;2.704236e-002
3.384602e+003;2.689830e-002
3.386530e+003;2.720700e-002
3.388459e+003;2.709565e-002
3.390387e+003;2.717723e-002
3.392316e+003;2.751362e-002
3.394244e+003;2.701976e-002
3.396173e+003;2.660543e-002
3.398102e+003;2.667624e-002
3.400030e+003;2.645415e-002
3.401959e+003;2.646856e-002
3.403887e+003;2.705996e-002
3.405816e+003;2.748581e-002
3.407744e+003;2.722891e-002
3.409673e+003;2.665641e-002
3.411601e+003;2.637852e-002
3.413530e+003;2.621866e-002
3.415458e+003;2.592734e-002
3.417387e+003;2.581213e-002
3.419316e+003;2.590015e-002
3.421244e+003;2.589372e-002
3.423173e+003;2.634321e-002
3.425101e+003;2.637324e-002
3.427030e+003;2.595769e-002
3.428958e+003;2.593596e-002
3.430887e+003;2.586185e-002
3.432815e+003;2.522478e-002
3.434744e+003;2.502193e-002
3.436673e+003;2.494170e-002
3.438601e+003;2.460224e-002
3.440530e+003;2.400423e-002
3.442458e+003;2.366190e-002
3.444387e+003;2.395542e-002
3.446315e+003;2.419774e-002
3.448244e+003;2.420352e-002
3.450172e+003;2.421277e-002
3.452101e+003;2.396385e-002
3.454030e+003;2.348293e-002
3.455958e+003;2.326865e-002
3.457886e+003;2.347551e-002
3.459815e+003;2.310166e-002
3.461744e+003;2.276974e-002
3.463672e+003;2.309942e-002
3.465601e+003;2.341361e-002
3.467529e+003;2.333350e-002
3.469458e+003;2.300470e-002
3.471386e+003;2.269384e-002
3.473315e+003;2.230555e-002
3.475243e+003;2.203936e-002
3.477172e+003;2.192782e-002
3.479101e+003;2.155983e-002
3.481029e+003;2.169603e-002
3.482958e+003;2.201238e-002
3.484886e+003;2.211714e-002
3.486815e+003;2.194107e-002
3.488743e+003;2.112615e-002
3.490672e+003;2.078409e-002
3.492600e+003;2.089349e-002
3.494529e+003;2.091519e-002
3.496458e+003;2.072028e-002
3.498386e+003;2.064143e-002
3.500315e+003;2.054867e-002
3.502243e+003;2.043707e-002
3.504172e+003;2.070079e-002
3.506100e+003;2.063667e-002
3.508029e+003;2.034000e-002
3.509957e+003;1.980130e-002
3.511886e+003;1.962503e-002
3.513814e+003;1.980626e-002
3.515743e+003;1.980161e-002
3.517672e+003;1.970525e-002
3.519600e+003;1.973327e-002
3.521529e+003;1.994643e-002
3.523457e+003;2.014137e-002
3.525386e+003;1.995087e-002
3.527314e+003;1.930584e-002
3.529243e+003;1.895871e-002
3.531171e+003;1.886437e-002
3.533100e+003;1.874430e-002
3.535029e+003;1.838863e-002
3.536957e+003;1.826307e-002
3.538885e+003;1.869404e-002
3.540814e+003;1.864171e-002
3.542743e+003;1.831156e-002
3.544671e+003;1.832210e-002
3.546600e+003;1.820122e-002
3.548528e+003;1.786412e-002
3.550457e+003;1.762706e-002
3.552385e+003;1.750800e-002
3.554314e+003;1.746816e-002
3.556242e+003;1.765615e-002
3.558171e+003;1.773902e-002
3.560100e+003;1.713973e-002
3.562028e+003;1.652773e-002
3.563957e+003;1.652285e-002
3.565885e+003;1.613976e-002
3.567814e+003;1.588089e-002
3.569742e+003;1.631112e-002
3.571671e+003;1.628879e-002
3.573599e+003;1.605136e-002
3.575528e+003;1.592406e-002
3.577457e+003;1.564529e-002
3.579385e+003;1.559806e-002
3.581314e+003;1.545009e-002
3.583242e+003;1.524675e-002
3.585171e+003;1.542376e-002
3.587099e+003;1.556272e-002
3.589028e+003;1.508452e-002
3.590956e+003;1.464550e-002
3.592885e+003;1.473670e-002
3.594813e+003;1.492057e-002
3.596742e+003;1.509478e-002
3.598671e+003;1.498038e-002
3.600599e+003;1.479824e-002
3.602528e+003;1.461558e-002
3.604456e+003;1.430112e-002
3.606385e+003;1.407842e-002
3.608313e+003;1.389751e-002
3.610242e+003;1.411713e-002
3.612170e+003;1.433841e-002
3.614099e+003;1.396655e-002
3.616028e+003;1.360418e-002
3.617956e+003;1.381753e-002
3.619885e+003;1.409187e-002
3.621813e+003;1.411258e-002
3.623742e+003;1.381230e-002
3.625670e+003;1.332959e-002
3.627599e+003;1.298325e-002
3.629527e+003;1.331575e-002
3.631456e+003;1.366828e-002
3.633385e+003;1.369222e-002
3.635313e+003;1.394072e-002
3.637241e+003;1.418690e-002
3.639170e+003;1.374482e-002
3.641099e+003;1.328426e-002
3.643027e+003;1.358400e-002
3.644956e+003;1.342742e-002
3.646884e+003;1.274089e-002
3.648813e+003;1.271741e-002
3.650741e+003;1.269425e-002
3.652670e+003;1.295290e-002
3.654598e+003;1.297505e-002
3.656527e+003;1.298359e-002
3.658456e+003;1.331367e-002
3.660384e+003;1.310934e-002
3.662313e+003;1.271813e-002
3.664241e+003;1.267429e-002
3.666170e+003;1.274945e-002
3.668098e+003;1.256623e-002
3.670027e+003;1.248206e-002
3.671955e+003;1.275887e-002
3.673884e+003;1.288876e-002
3.675813e+003;1.308619e-002
3.677741e+003;1.369212e-002
3.679669e+003;1.388184e-002
3.681598e+003;1.381572e-002
3.683527e+003;1.371646e-002
3.685455e+003;1.351359e-002
3.687384e+003;1.346652e-002
3.689312e+003;1.417673e-002
3.691241e+003;1.500494e-002
3.693169e+003;1.477647e-002
3.695098e+003;1.403407e-002
3.697026e+003;1.385211e-002
3.698955e+003;1.381626e-002
3.700884e+003;1.375778e-002
3.702812e+003;1.416225e-002
3.704741e+003;1.399656e-002
3.706669e+003;1.344793e-002
3.708598e+003;1.348125e-002
3.710526e+003;1.376205e-002
3.712455e+003;1.352134e-002
3.714383e+003;1.367314e-002
3.716312e+003;1.407428e-002
3.718240e+003;1.375466e-002
3.720169e+003;1.293590e-002
3.722098e+003;1.278272e-002
3.724026e+003;1.328938e-002
3.725955e+003;1.365909e-002
3.727883e+003;1.370419e-002
3.729812e+003;1.369820e-002
3.731740e+003;1.331938e-002
3.733669e+003;1.337791e-002
3.735597e+003;1.375364e-002
3.737526e+003;1.384948e-002
3.739455e+003;1.392132e-002
3.741383e+003;1.421394e-002
3.743312e+003;1.407562e-002
3.745240e+003;1.382796e-002
3.747169e+003;1.355908e-002
3.749097e+003;1.351885e-002
3.751026e+003;1.363238e-002
3.752954e+003;1.375436e-002
3.754883e+003;1.403136e-002
3.756812e+003;1.415287e-002
3.758740e+003;1.438608e-002
3.760668e+003;1.457683e-002
3.762597e+003;1.478874e-002
3.764526e+003;1.482172e-002
3.766454e+003;1.489966e-002
3.768383e+003;1.456446e-002
3.770311e+003;1.419515e-002
3.772240e+003;1.414811e-002
3.774168e+003;1.441311e-002
3.776097e+003;1.473016e-002
3.778025e+003;1.475861e-002
3.779954e+003;1.438468e-002
3.781883e+003;1.452341e-002
3.783811e+003;1.485186e-002
3.785740e+003;1.470459e-002
3.787668e+003;1.432420e-002
3.789597e+003;1.429447e-002
3.791525e+003;1.435512e-002
3.793454e+003;1.449854e-002
3.795382e+003;1.483088e-002
3.797311e+003;1.494924e-002
3.799240e+003;1.460195e-002
3.801168e+003;1.402031e-002
3.803097e+003;1.420710e-002
3.805025e+003;1.410190e-002
3.806954e+003;1.383018e-002
3.808882e+003;1.410515e-002
3.810811e+003;1.449015e-002
3.812739e+003;1.441670e-002
3.814668e+003;1.393446e-002
3.816596e+003;1.402739e-002
3.818525e+003;1.458337e-002
3.820454e+003;1.467326e-002
3.822382e+003;1.497798e-002
3.824311e+003;1.540907e-002
3.826239e+003;1.508411e-002
3.828168e+003;1.460832e-002
3.830096e+003;1.473832e-002
3.832025e+003;1.511193e-002
3.833953e+003;1.499232e-002
3.835882e+003;1.458762e-002
3.837811e+003;1.422483e-002
3.839739e+003;1.456100e-002
3.841667e+003;1.456826e-002
3.843596e+003;1.443390e-002
3.845525e+003;1.468838e-002
3.847453e+003;1.505646e-002
3.849382e+003;1.540265e-002
3.851310e+003;1.476927e-002
3.853239e+003;1.386077e-002
3.855167e+003;1.441688e-002
3.857096e+003;1.538576e-002
3.859024e+003;1.535661e-002
3.860953e+003;1.522403e-002
3.862882e+003;1.541154e-002
3.864810e+003;1.539056e-002
3.866739e+003;1.557893e-002
3.868667e+003;1.568720e-002
3.870596e+003;1.569555e-002
3.872524e+003;1.560346e-002
3.874453e+003;1.517328e-002
3.876381e+003;1.498309e-002
3.878310e+003;1.491581e-002
3.880239e+003;1.523927e-002
3.882167e+003;1.595279e-002
3.884096e+003;1.607594e-002
3.886024e+003;1.602622e-002
3.887953e+003;1.588123e-002
3.889881e+003;1.579859e-002
3.891810e+003;1.587849e-002
3.893738e+003;1.577776e-002
3.895667e+003;1.583199e-002
3.897595e+003;1.578769e-002
3.899524e+003;1.521693e-002
3.901453e+003;1.479913e-002
3.903381e+003;1.530962e-002
3.905310e+003;1.556935e-002
3.907238e+003;1.498121e-002
3.909167e+003;1.502504e-002
3.911095e+003;1.546139e-002
3.913024e+003;1.584711e-002
3.914952e+003;1.637246e-002
3.916881e+003;1.607553e-002
3.918810e+003;1.544251e-002
3.920738e+003;1.573557e-002
3.922667e+003;1.636630e-002
3.924595e+003;1.611022e-002
3.926524e+003;1.573918e-002
3.928452e+003;1.623668e-002
3.930381e+003;1.619368e-002
3.932309e+003;1.571348e-002
3.934238e+003;1.599930e-002
3.936167e+003;1.636733e-002
3.938095e+003;1.629753e-002
3.940023e+003;1.635072e-002
3.941952e+003;1.648688e-002
3.943881e+003;1.610314e-002
3.945809e+003;1.559126e-002
3.947738e+003;1.551551e-002
3.949666e+003;1.601845e-002
3.951595e+003;1.626519e-002
3.953523e+003;1.613697e-002
3.955452e+003;1.642287e-002
3.957380e+003;1.672738e-002
3.959309e+003;1.686645e-002
3.961238e+003;1.698424e-002
3.963166e+003;1.675162e-002
3.965095e+003;1.669652e-002
3.967023e+003;1.668699e-002
3.968952e+003;1.616486e-002
3.970880e+003;1.555599e-002
3.972809e+003;1.572602e-002
3.974737e+003;1.645477e-002
3.976666e+003;1.703123e-002
3.978594e+003;1.651324e-002
3.980523e+003;1.589034e-002
3.982452e+003;1.645597e-002
3.984380e+003;1.687771e-002
3.986309e+003;1.666715e-002
3.988237e+003;1.694068e-002
3.990166e+003;1.755895e-002
3.992094e+003;1.769425e-002
3.994023e+003;1.798871e-002
3.995951e+003;1.799682e-002
3.997880e+003;1.778879e-002
3.999809e+003;1.760205e-002
4.001737e+003;0.000000e+000
