3.992094e+002;0.000000e+000
4.011380e+002;0.000000e+000
4.030665e+002;0.000000e+000
4.049951e+002;0.000000e+000
4.069236e+002;0.000000e+000
4.088522e+002;0.000000e+000
4.107807e+002;0.000000e+000
4.127093e+002;0.000000e+000
4.146378e+002;0.000000e+000
4.165664e+002;0.000000e+000
4.184949e+002;0.000000e+000
4.204235e+002;0.000000e+000
4.223520e+002;0.000000e+000
4.242806e+002;0.000000e+000
4.262091e+002;0.000000e+000
4.281377e+002;0.000000e+000
4.300662e+002;0.000000e+000
4.319948e+002;0.000000e+000
4.339233e+002;0.000000e+000
4.358519e+002;0.000000e+000
4.377804e+002;0.000000e+000
4.397090e+002;0.000000e+000
4.416375e+002;0.000000e+000
4.435660e+002;0.000000e+000
4.454946e+002;0.000000e+000
4.474232e+002;0.000000e+000
4.493517e+002;0.000000e+000
4.512802e+002;0.000000e+000
4.532088e+002;0.000000e+000
4.551373e+002;0.000000e+000
4.570659e+002;0.000000e+000
4.589944e+002;0.000000e+000
4.609230e+002;0.000000e+000
4.628515e+002;0.000000e+000
4.647801e+002;0.000000e+000
4.667086e+002;0.000000e+000
4.686372e+002;0.000000e+000
4.705657e+002;0.000000e+000
4.724943e+002;0.000000e+000
4.744228e+002;0.000000e+000
4.763513e+002;0.000000e+000
4.782799e+002;0.000000e+000
4.802085e+002;0.000000e+000
4.821370e+002;0.000000e+000
4.840656e+002;0.000000e+000
4.859941e+002;0.000000e+000
4.879226e+002;0.000000e+000
4.898512e+002;0.000000e+000
4.917798e+002;0.000000e+000
4.937083e+002;0.000000e+000
4.956368e+002;0.000000e+000
4.975654e+002;0.000000e+000
4.994939e+002;0.000000e+000
5.014225e+002;0.000000e+000
5.033510e+002;0.000000e+000
5.052796e+002;0.000000e+000
5.072081e+002;0.000000e+000
5.091367e+002;0.000000e+000
5.110652e+002;0.000000e+000
5.129938e+002;0.000000e+000
5.149223e+002;0.000000e+000
5.168509e+002;0.000000e+000
5.187794e+002;0.000000e+000
5.207079e+002;0.000000e+000
5.226365e+002;0.000000e+000
5.245651e+002;0.000000e+000
5.264936e+002;0.000000e+000
5.284222e+002;0.000000e+000
5.303507e+002;0.000000e+000
5.322792e+002;0.000000e+000
5.342078e+002;0.000000e+000
5.361364e+002;0.000000e+000
5.380649e+002;0.000000e+000
5.399935e+002;0.000000e+000
5.419220e+002;0.000000e+000
5.438505e+002;0.000000e+000
5.457791e+002;0.000000e+000
5.477076e+002;0.000000e+000
5.496362e+002;0.000000e+000
5.515648e+002;0.000000e+000
5.534933e+002;0.000000e+000
5.554218e+002;0.000000e+000
5.573504e+002;0.000000e+000
5.592789e+002;0.000000e+000
5.612075e+002;0.000000e+000
5.631360e+002;0.000000e+000
5.650646e+002;0.000000e+000
5.669931e+002;0.000000e+000
5.689217e+002;0.000000e+000
5.708502e+002;0.000000e+000
5.727787e+002;0.000000e+000
5.747073e+002;0.000000e+000
5.766359e+002;0.000000e+000
5.785644e+002;0.000000e+000
5.804930e+002;0.000000e+000
5.824215e+002;0.000000e+000
5.843500e+002;0.000000e+000
5.862786e+002;0.000000e+000
5.882072e+002;0.000000e+000
5.901357e+002;0.000000e+000
5.920643e+002;0.000000e+000
5.939928e+002;0.000000e+000
5.959213e+002;0.000000e+000
5.978499e+002;0.000000e+000
5.997784e+002;3.184788e-002
6.017070e+002;3.414822e-002
6.036355e+002;2.930740e-002
6.055641e+002;3.176752e-002
6.074926e+002;3.734052e-002
6.094211e+002;3.566012e-002
6.113497e+002;3.315200e-002
6.132783e+002;3.417952e-002
6.152068e+002;3.050622e-002
6.171354e+002;2.697530e-002
6.190639e+002;2.927547e-002
6.209924e+002;2.978393e-002
6.229210e+002;3.007789e-002
6.248495e+002;2.869039e-002
6.267781e+002;2.855735e-002
6.287067e+002;3.138824e-002
6.306352e+002;3.162142e-002
6.325637e+002;2.943783e-002
6.344923e+002;3.223930e-002
6.364208e+002;3.859506e-002
6.383494e+002;3.964695e-002
6.402780e+002;3.309496e-002
6.422065e+002;2.877815e-002
6.441350e+002;3.030707e-002
6.460636e+002;3.184082e-002
6.479921e+002;3.317774e-002
6.499207e+002;3.447242e-002
6.518492e+002;3.380089e-002
6.537778e+002;3.204156e-002
6.557063e+002;2.971943e-002
6.576349e+002;3.057838e-002
6.595634e+002;3.210570e-002
6.614919e+002;3.132296e-002
6.634205e+002;3.071321e-002
6.653491e+002;3.058378e-002
6.672776e+002;2.999907e-002
6.692062e+002;2.921592e-002
6.711347e+002;2.936547e-002
6.730632e+002;3.055431e-002
6.749918e+002;3.079874e-002
6.769203e+002;3.066467e-002
6.788489e+002;3.164786e-002
6.807775e+002;3.240556e-002
6.827060e+002;3.192943e-002
6.846345e+002;3.145435e-002
6.865631e+002;3.119224e-002
6.884916e+002;3.143793e-002
6.904202e+002;3.111304e-002
6.923488e+002;3.025740e-002
6.942773e+002;3.079768e-002
6.962058e+002;3.242095e-002
6.981344e+002;3.233577e-002
7.000629e+002;3.131356e-002
7.019915e+002;3.195963e-002
7.039200e+002;3.477528e-002
7.058486e+002;3.776486e-002
7.077771e+002;4.223238e-002
7.097057e+002;4.924374e-002
7.116342e+002;5.683625e-002
7.135627e+002;6.079678e-002
7.154913e+002;5.955653e-002
7.174199e+002;5.436651e-002
7.193484e+002;4.802043e-002
7.212770e+002;4.255503e-002
7.232055e+002;3.880855e-002
7.251340e+002;3.669212e-002
7.270626e+002;3.575059e-002
7.289911e+002;3.544076e-002
7.309197e+002;3.544012e-002
7.328483e+002;3.456303e-002
7.347768e+002;3.268397e-002
7.367053e+002;3.192668e-002
7.386339e+002;3.243916e-002
7.405624e+002;3.247143e-002
7.424910e+002;3.189384e-002
7.444196e+002;3.102559e-002
7.463481e+002;3.131655e-002
7.482766e+002;3.208341e-002
7.502052e+002;3.198624e-002
7.521337e+002;3.134945e-002
7.540623e+002;3.131890e-002
7.559908e+002;3.121368e-002
7.579194e+002;3.160795e-002
7.598479e+002;3.294526e-002
7.617765e+002;3.332330e-002
7.637050e+002;3.298691e-002
7.656335e+002;3.292375e-002
7.675621e+002;3.357849e-002
7.694907e+002;3.432293e-002
7.714192e+002;3.351238e-002
7.733478e+002;3.300954e-002
7.752763e+002;3.335403e-002
7.772048e+002;3.353539e-002
7.791334e+002;3.361526e-002
7.810620e+002;3.405708e-002
7.829905e+002;3.481839e-002
7.849191e+002;3.575491e-002
7.868476e+002;3.667738e-002
7.887761e+002;3.763068e-002
7.907047e+002;3.862486e-002
7.926332e+002;3.930760e-002
7.945618e+002;4.007407e-002
7.964903e+002;4.101093e-002
7.984189e+002;4.213022e-002
8.003474e+002;4.340503e-002
8.022759e+002;4.556602e-002
8.042045e+002;4.967472e-002
8.061331e+002;5.413021e-002
8.080616e+002;5.785860e-002
8.099902e+002;5.931645e-002
8.119187e+002;5.756622e-002
8.138472e+002;5.426043e-002
8.157758e+002;5.066860e-002
8.177043e+002;4.789584e-002
8.196329e+002;4.622936e-002
8.215615e+002;4.467418e-002
8.234900e+002;4.391430e-002
8.254185e+002;4.448840e-002
8.273471e+002;4.539736e-002
8.292756e+002;4.651121e-002
8.312042e+002;4.812828e-002
8.331328e+002;5.015083e-002
8.350613e+002;5.268968e-002
8.369898e+002;5.715463e-002
8.389184e+002;6.325755e-002
8.408469e+002;6.676023e-002
8.427755e+002;6.472071e-002
8.447040e+002;6.094323e-002
8.466326e+002;5.928401e-002
8.485611e+002;5.566480e-002
8.504897e+002;5.084423e-002
8.524182e+002;4.906357e-002
8.543467e+002;4.878398e-002
8.562753e+002;4.955003e-002
8.582039e+002;5.134228e-002
8.601324e+002;5.433440e-002
8.620610e+002;5.885505e-002
8.639895e+002;6.458052e-002
8.659180e+002;7.139225e-002
8.678466e+002;8.147883e-002
8.697751e+002;9.581813e-002
8.717037e+002;1.100534e-001
8.736323e+002;1.196683e-001
8.755608e+002;1.217389e-001
8.774893e+002;1.148264e-001
8.794179e+002;1.020441e-001
8.813464e+002;8.975920e-002
8.832750e+002;7.907282e-002
8.852036e+002;6.672453e-002
8.871321e+002;5.499777e-002
8.890606e+002;4.853222e-002
8.909892e+002;4.745240e-002
8.929177e+002;4.979020e-002
8.948463e+002;5.403894e-002
8.967748e+002;5.833815e-002
8.987034e+002;6.069529e-002
9.006319e+002;5.971078e-002
9.025605e+002;5.523789e-002
9.044890e+002;4.979183e-002
9.064175e+002;4.522355e-002
9.083461e+002;4.143086e-002
9.102747e+002;3.910230e-002
9.122032e+002;3.800959e-002
9.141318e+002;3.735565e-002
9.160603e+002;3.717799e-002
9.179888e+002;3.727946e-002
9.199174e+002;3.679792e-002
9.218459e+002;3.672522e-002
9.237745e+002;3.691367e-002
9.257031e+002;3.674055e-002
9.276316e+002;3.659764e-002
9.295601e+002;3.713901e-002
9.314887e+002;3.794888e-002
9.334172e+002;3.882471e-002
9.353458e+002;4.026397e-002
9.372744e+002;4.226679e-002
9.392029e+002;4.439025e-002
9.411314e+002;4.533785e-002
9.430600e+002;4.501188e-002
9.449885e+002;4.426219e-002
9.469171e+002;4.371260e-002
9.488456e+002;4.366849e-002
9.507742e+002;4.443305e-002
9.527027e+002;4.501629e-002
9.546313e+002;4.580370e-002
9.565598e+002;4.705316e-002
9.584883e+002;4.835722e-002
9.604169e+002;5.004236e-002
9.623455e+002;5.226811e-002
9.642740e+002;5.562216e-002
9.662026e+002;6.031838e-002
9.681311e+002;6.641118e-002
9.700596e+002;7.263963e-002
9.719882e+002;7.651287e-002
9.739167e+002;7.601231e-002
9.758453e+002;7.135753e-002
9.777739e+002;6.440224e-002
9.797024e+002;5.709598e-002
9.816309e+002;5.098833e-002
9.835595e+002;4.702255e-002
9.854880e+002;4.493581e-002
9.874166e+002;4.493492e-002
9.893452e+002;4.715383e-002
9.912737e+002;5.102858e-002
9.932022e+002;5.582283e-002
9.951307e+002;6.080894e-002
9.970593e+002;6.399157e-002
9.989879e+002;6.323743e-002
1.000916e+003;5.922602e-002
1.002845e+003;5.417247e-002
1.004773e+003;4.935127e-002
1.006702e+003;4.546366e-002
1.008631e+003;4.260707e-002
1.010559e+003;4.037355e-002
1.012488e+003;3.867796e-002
1.014416e+003;3.763537e-002
1.016345e+003;3.693553e-002
1.018273e+003;3.616374e-002
1.020202e+003;3.525831e-002
1.022130e+003;3.431296e-002
1.024059e+003;3.389946e-002
1.025988e+003;3.397011e-002
1.027916e+003;3.393905e-002
1.029845e+003;3.430296e-002
1.031773e+003;3.479419e-002
1.033702e+003;3.482833e-002
1.035630e+003;3.508036e-002
1.037559e+003;3.531995e-002
1.039487e+003;3.566451e-002
1.041416e+003;3.670806e-002
1.043344e+003;3.780050e-002
1.045273e+003;3.787038e-002
1.047202e+003;3.776439e-002
1.049130e+003;3.711425e-002
1.051059e+003;3.560829e-002
1.052987e+003;3.433444e-002
1.054916e+003;3.311763e-002
1.056844e+003;3.245094e-002
1.058773e+003;3.206753e-002
1.060701e+003;3.186117e-002
1.062630e+003;3.147017e-002
1.064558e+003;3.114746e-002
1.066487e+003;3.117590e-002
1.068416e+003;3.135334e-002
1.070344e+003;3.128959e-002
1.072273e+003;3.111379e-002
1.074201e+003;3.083812e-002
1.076130e+003;3.088422e-002
1.078058e+003;3.137072e-002
1.079987e+003;3.203486e-002
1.081915e+003;3.236187e-002
1.083844e+003;3.290273e-002
1.085773e+003;3.373932e-002
1.087701e+003;3.443529e-002
1.089630e+003;3.488183e-002
1.091558e+003;3.533105e-002
1.093487e+003;3.602101e-002
1.095415e+003;3.731929e-002
1.097344e+003;3.937333e-002
1.099272e+003;4.119837e-002
1.101201e+003;4.221898e-002
1.103129e+003;4.209327e-002
1.105058e+003;4.082482e-002
1.106987e+003;3.865637e-002
1.108915e+003;3.572652e-002
1.110844e+003;3.370062e-002
1.112772e+003;3.258164e-002
1.114701e+003;3.195760e-002
1.116629e+003;3.144808e-002
1.118558e+003;3.120535e-002
1.120486e+003;3.140922e-002
1.122415e+003;3.111393e-002
1.124344e+003;3.077246e-002
1.126272e+003;3.025381e-002
1.128201e+003;3.045087e-002
1.130129e+003;3.118580e-002
1.132058e+003;3.180969e-002
1.133986e+003;3.305995e-002
1.135915e+003;3.532005e-002
1.137843e+003;3.753472e-002
1.139772e+003;3.973732e-002
1.141700e+003;4.246579e-002
1.143629e+003;4.628545e-002
1.145557e+003;5.008129e-002
1.147486e+003;5.393532e-002
1.149415e+003;5.803198e-002
1.151343e+003;6.105248e-002
1.153272e+003;6.260985e-002
1.155200e+003;6.334373e-002
1.157129e+003;6.352713e-002
1.159057e+003;6.363265e-002
1.160986e+003;6.421347e-002
1.162914e+003;6.441680e-002
1.164843e+003;6.421189e-002
1.166771e+003;6.302032e-002
1.168700e+003;6.011681e-002
1.170629e+003;5.616547e-002
1.172557e+003;5.167012e-002
1.174486e+003;4.655856e-002
1.176414e+003;4.226273e-002
1.178343e+003;3.898054e-002
1.180271e+003;3.663873e-002
1.182200e+003;3.505845e-002
1.184128e+003;3.400713e-002
1.186057e+003;3.302205e-002
1.187986e+003;3.227584e-002
1.189914e+003;3.249468e-002
1.191843e+003;3.315185e-002
1.193771e+003;3.350654e-002
1.195700e+003;3.357498e-002
1.197628e+003;3.351277e-002
1.199557e+003;3.345104e-002
1.201485e+003;3.356893e-002
1.203414e+003;3.387801e-002
1.205343e+003;3.437841e-002
1.207271e+003;3.518892e-002
1.209200e+003;3.622878e-002
1.211128e+003;3.745930e-002
1.213057e+003;3.906010e-002
1.214985e+003;4.078136e-002
1.216914e+003;4.225269e-002
1.218842e+003;4.258361e-002
1.220771e+003;4.159426e-002
1.222699e+003;4.025419e-002
1.224628e+003;3.910230e-002
1.226557e+003;3.780787e-002
1.228485e+003;3.677203e-002
1.230414e+003;3.639812e-002
1.232342e+003;3.668041e-002
1.234271e+003;3.721362e-002
1.236199e+003;3.743831e-002
1.238128e+003;3.756655e-002
1.240056e+003;3.799003e-002
1.241985e+003;3.825876e-002
1.243913e+003;3.834981e-002
1.245842e+003;3.886595e-002
1.247771e+003;4.014467e-002
1.249699e+003;4.211240e-002
1.251628e+003;4.471884e-002
1.253556e+003;4.796200e-002
1.255485e+003;5.020617e-002
1.257413e+003;4.943120e-002
1.259342e+003;4.684417e-002
1.261270e+003;4.453506e-002
1.263199e+003;4.269169e-002
1.265127e+003;4.160834e-002
1.267056e+003;4.118431e-002
1.268985e+003;4.076214e-002
1.270913e+003;4.057191e-002
1.272842e+003;4.081212e-002
1.274770e+003;4.117633e-002
1.276699e+003;4.157038e-002
1.278627e+003;4.198005e-002
1.280556e+003;4.264538e-002
1.282484e+003;4.382500e-002
1.284413e+003;4.541167e-002
1.286342e+003;4.722870e-002
1.288270e+003;4.904521e-002
1.290199e+003;5.109421e-002
1.292127e+003;5.338827e-002
1.294056e+003;5.505279e-002
1.295984e+003;5.577634e-002
1.297913e+003;5.571957e-002
1.299841e+003;5.606141e-002
1.301770e+003;5.756395e-002
1.303698e+003;5.910607e-002
1.305627e+003;5.873569e-002
1.307556e+003;5.617776e-002
1.309484e+003;5.331641e-002
1.311413e+003;5.184358e-002
1.313341e+003;5.175268e-002
1.315270e+003;5.246820e-002
1.317198e+003;5.372127e-002
1.319127e+003;5.515948e-002
1.321055e+003;5.705218e-002
1.322984e+003;5.983078e-002
1.324912e+003;6.308377e-002
1.326841e+003;6.580923e-002
1.328770e+003;6.723986e-002
1.330698e+003;6.756840e-002
1.332627e+003;6.677290e-002
1.334555e+003;6.567496e-002
1.336484e+003;6.508026e-002
1.338412e+003;6.517642e-002
1.340341e+003;6.639922e-002
1.342269e+003;6.856734e-002
1.344198e+003;7.093841e-002
1.346126e+003;7.361939e-002
1.348055e+003;7.721201e-002
1.349984e+003;8.137876e-002
1.351912e+003;8.632303e-002
1.353841e+003;9.265313e-002
1.355769e+003;9.965254e-002
1.357698e+003;1.049710e-001
1.359626e+003;1.066005e-001
1.361555e+003;1.053812e-001
1.363483e+003;1.055788e-001
1.365412e+003;1.092530e-001
1.367341e+003;1.172229e-001
1.369269e+003;1.323622e-001
1.371198e+003;1.554206e-001
1.373126e+003;1.829551e-001
1.375055e+003;2.055332e-001
1.376983e+003;2.088991e-001
1.378912e+003;1.902096e-001
1.380840e+003;1.624690e-001
1.382769e+003;1.365472e-001
1.384698e+003;1.171419e-001
1.386626e+003;1.048412e-001
1.388555e+003;9.980516e-002
1.390483e+003;9.910871e-002
1.392412e+003;9.904573e-002
1.394340e+003;9.950656e-002
1.396269e+003;1.017815e-001
1.398197e+003;1.045090e-001
1.400126e+003;1.076119e-001
1.402054e+003;1.103881e-001
1.403983e+003;1.120708e-001
1.405911e+003;1.142192e-001
1.407840e+003;1.170564e-001
1.409769e+003;1.193879e-001
1.411697e+003;1.214936e-001
1.413626e+003;1.239111e-001
1.415554e+003;1.259184e-001
1.417483e+003;1.258383e-001
1.419411e+003;1.262091e-001
1.421340e+003;1.293116e-001
1.423268e+003;1.314946e-001
1.425197e+003;1.333308e-001
1.427125e+003;1.354340e-001
1.429054e+003;1.382382e-001
1.430983e+003;1.431078e-001
1.432911e+003;1.488123e-001
1.434840e+003;1.509384e-001
1.436768e+003;1.501357e-001
1.438697e+003;1.516184e-001
1.440625e+003;1.540328e-001
1.442554e+003;1.574232e-001
1.444482e+003;1.629585e-001
1.446411e+003;1.695879e-001
1.448340e+003;1.762847e-001
1.450268e+003;1.821015e-001
1.452197e+003;1.849321e-001
1.454125e+003;1.840018e-001
1.456054e+003;1.786296e-001
1.457982e+003;1.760248e-001
1.459911e+003;1.757237e-001
1.461839e+003;1.712482e-001
1.463768e+003;1.629573e-001
1.465697e+003;1.537229e-001
1.467625e+003;1.451779e-001
1.469554e+003;1.353459e-001
1.471482e+003;1.238329e-001
1.473411e+003;1.153047e-001
1.475339e+003;1.105194e-001
1.477268e+003;1.065572e-001
1.479196e+003;1.032816e-001
1.481125e+003;9.997351e-002
1.483053e+003;9.740673e-002
1.484982e+003;9.450790e-002
1.486911e+003;9.098545e-002
1.488839e+003;8.796796e-002
1.490768e+003;8.663882e-002
1.492696e+003;8.620518e-002
1.494625e+003;8.322973e-002
1.496553e+003;8.006717e-002
1.498482e+003;7.962328e-002
1.500410e+003;7.966193e-002
1.502339e+003;7.842373e-002
1.504267e+003;7.339471e-002
1.506196e+003;6.802873e-002
1.508125e+003;6.891840e-002
1.510053e+003;7.085703e-002
1.511982e+003;7.006266e-002
1.513910e+003;6.868085e-002
1.515839e+003;6.645381e-002
1.517767e+003;6.444663e-002
1.519696e+003;6.137217e-002
1.521624e+003;5.927114e-002
1.523553e+003;6.026897e-002
1.525481e+003;6.015722e-002
1.527410e+003;5.995176e-002
1.529339e+003;5.966349e-002
1.531267e+003;5.818788e-002
1.533196e+003;5.591188e-002
1.535124e+003;5.547588e-002
1.537053e+003;5.274291e-002
1.538981e+003;4.679416e-002
1.540910e+003;4.571088e-002
1.542838e+003;4.770757e-002
1.544767e+003;4.862956e-002
1.546695e+003;4.921792e-002
1.548624e+003;4.848613e-002
1.550553e+003;4.751294e-002
1.552481e+003;4.556344e-002
1.554410e+003;4.273915e-002
1.556338e+003;3.952834e-002
1.558267e+003;3.420909e-002
1.560195e+003;3.514721e-002
1.562124e+003;4.027749e-002
1.564052e+003;4.168875e-002
1.565981e+003;4.105376e-002
1.567910e+003;3.943330e-002
1.569838e+003;3.836317e-002
1.571767e+003;3.920166e-002
1.573695e+003;3.787667e-002
1.575624e+003;3.510037e-002
1.577552e+003;3.678361e-002
1.579481e+003;3.912743e-002
1.581409e+003;3.899464e-002
1.583338e+003;3.867477e-002
1.585266e+003;3.824320e-002
1.587195e+003;3.774950e-002
1.589124e+003;3.708083e-002
1.591052e+003;3.656426e-002
1.592981e+003;3.574862e-002
1.594909e+003;3.534191e-002
1.596838e+003;3.539949e-002
1.598766e+003;3.511782e-002
1.600695e+003;3.463706e-002
1.602623e+003;3.421325e-002
1.604552e+003;3.409403e-002
1.606480e+003;3.392648e-002
1.608409e+003;3.354764e-002
1.610338e+003;3.350092e-002
1.612266e+003;3.348242e-002
1.614195e+003;3.171469e-002
1.616123e+003;2.881734e-002
1.618052e+003;3.001636e-002
1.619980e+003;3.209800e-002
1.621909e+003;3.108104e-002
1.623837e+003;3.045642e-002
1.625766e+003;3.124319e-002
1.627694e+003;3.140961e-002
1.629623e+003;3.202119e-002
1.631552e+003;3.222245e-002
1.633480e+003;2.957554e-002
1.635409e+003;2.703587e-002
1.637337e+003;2.915600e-002
1.639266e+003;3.146593e-002
1.641194e+003;3.181704e-002
1.643123e+003;3.075951e-002
1.645051e+003;2.802480e-002
1.646980e+003;2.742139e-002
1.648909e+003;2.944138e-002
1.650837e+003;2.605345e-002
1.652766e+003;2.070881e-002
1.654694e+003;2.483264e-002
1.656623e+003;2.983057e-002
1.658551e+003;3.056753e-002
1.660480e+003;2.941897e-002
1.662408e+003;2.814827e-002
1.664337e+003;2.896994e-002
1.666266e+003;2.906303e-002
1.668194e+003;2.690010e-002
1.670123e+003;2.630068e-002
1.672051e+003;2.711339e-002
1.673980e+003;2.581139e-002
1.675908e+003;2.580060e-002
1.677837e+003;2.776154e-002
1.679765e+003;2.775204e-002
1.681694e+003;2.561677e-002
1.683622e+003;2.127745e-002
1.685551e+003;2.237692e-002
1.687479e+003;2.628625e-002
1.689408e+003;2.688776e-002
1.691337e+003;2.694346e-002
1.693265e+003;2.545966e-002
1.695194e+003;2.196543e-002
1.697122e+003;2.200590e-002
1.699051e+003;2.047329e-002
1.700979e+003;2.050254e-002
1.702908e+003;2.421315e-002
1.704836e+003;2.410978e-002
1.706765e+003;2.427121e-002
1.708693e+003;2.501038e-002
1.710622e+003;2.515336e-002
1.712551e+003;2.414884e-002
1.714479e+003;2.205466e-002
1.716408e+003;1.904466e-002
1.718336e+003;1.922583e-002
1.720265e+003;2.219022e-002
1.722193e+003;2.327264e-002
1.724122e+003;2.321038e-002
1.726050e+003;2.335392e-002
1.727979e+003;2.314628e-002
1.729908e+003;2.259488e-002
1.731836e+003;2.014446e-002
1.733765e+003;1.750814e-002
1.735693e+003;2.030775e-002
1.737622e+003;2.245260e-002
1.739550e+003;2.163710e-002
1.741479e+003;2.172215e-002
1.743407e+003;2.163828e-002
1.745336e+003;2.137037e-002
1.747265e+003;2.057480e-002
1.749193e+003;1.921901e-002
1.751122e+003;1.840371e-002
1.753050e+003;1.968982e-002
1.754979e+003;1.989918e-002
1.756907e+003;1.921945e-002
1.758836e+003;1.924349e-002
1.760764e+003;1.849107e-002
1.762693e+003;1.848464e-002
1.764621e+003;1.918735e-002
1.766550e+003;1.832034e-002
1.768479e+003;1.757552e-002
1.770407e+003;1.639211e-002
1.772336e+003;1.511235e-002
1.774264e+003;1.659627e-002
1.776193e+003;1.807025e-002
1.778121e+003;1.826684e-002
1.780050e+003;1.788463e-002
1.781978e+003;1.805288e-002
1.783907e+003;1.829203e-002
1.785835e+003;1.908247e-002
1.787764e+003;2.039529e-002
1.789693e+003;2.059046e-002
1.791621e+003;2.075431e-002
1.793550e+003;2.314747e-002
1.795478e+003;2.582191e-002
1.797407e+003;2.630730e-002
1.799335e+003;2.546819e-002
1.801264e+003;2.472923e-002
1.803192e+003;2.409248e-002
1.805121e+003;2.266685e-002
1.807049e+003;2.119847e-002
1.808978e+003;1.956308e-002
1.810907e+003;1.803626e-002
1.812835e+003;1.739897e-002
1.814764e+003;1.707852e-002
1.816692e+003;1.659065e-002
1.818621e+003;1.656102e-002
1.820549e+003;1.646885e-002
1.822478e+003;1.628869e-002
1.824406e+003;1.567631e-002
1.826335e+003;1.563705e-002
1.828264e+003;1.536259e-002
1.830192e+003;1.512596e-002
1.832121e+003;1.585178e-002
1.834049e+003;1.631335e-002
1.835978e+003;1.612078e-002
1.837906e+003;1.603551e-002
1.839835e+003;1.609165e-002
1.841763e+003;1.493834e-002
1.843692e+003;1.337603e-002
1.845620e+003;1.414688e-002
1.847549e+003;1.507125e-002
1.849478e+003;1.509773e-002
1.851406e+003;1.515286e-002
1.853335e+003;1.504350e-002
1.855263e+003;1.494167e-002
1.857192e+003;1.495655e-002
1.859120e+003;1.470579e-002
1.861049e+003;1.459273e-002
1.862977e+003;1.451067e-002
1.864906e+003;1.407637e-002
1.866834e+003;1.344099e-002
1.868763e+003;1.284975e-002
1.870692e+003;1.324794e-002
1.872620e+003;1.385656e-002
1.874549e+003;1.402603e-002
1.876477e+003;1.407640e-002
1.878406e+003;1.422106e-002
1.880334e+003;1.442876e-002
1.882263e+003;1.425475e-002
1.884191e+003;1.408664e-002
1.886120e+003;1.425777e-002
1.888048e+003;1.414000e-002
1.889977e+003;1.396128e-002
1.891906e+003;1.434242e-002
1.893834e+003;1.467641e-002
1.895763e+003;1.484576e-002
1.897691e+003;1.470795e-002
1.899620e+003;1.462223e-002
1.901548e+003;1.451944e-002
1.903477e+003;1.412264e-002
1.905405e+003;1.373421e-002
1.907334e+003;1.363129e-002
1.909262e+003;1.352446e-002
1.911191e+003;1.371373e-002
1.913120e+003;1.400792e-002
1.915048e+003;1.387288e-002
1.916977e+003;1.313629e-002
1.918905e+003;1.310664e-002
1.920834e+003;1.356448e-002
1.922762e+003;1.344871e-002
1.924691e+003;1.342069e-002
1.926619e+003;1.342698e-002
1.928548e+003;1.326506e-002
1.930477e+003;1.306556e-002
1.932405e+003;1.286695e-002
1.934334e+003;1.282876e-002
1.936262e+003;1.287493e-002
1.938191e+003;1.243419e-002
1.940119e+003;1.205084e-002
1.942048e+003;1.213942e-002
1.943976e+003;1.250027e-002
1.945905e+003;1.265856e-002
1.947833e+003;1.261070e-002
1.949762e+003;1.245512e-002
1.951691e+003;1.248083e-002
1.953619e+003;1.255538e-002
1.955548e+003;1.236804e-002
1.957476e+003;1.236954e-002
1.959405e+003;1.248721e-002
1.961333e+003;1.267180e-002
1.963262e+003;1.284510e-002
1.965190e+003;1.271039e-002
1.967119e+003;1.237162e-002
1.969047e+003;1.231033e-002
1.970976e+003;1.238976e-002
1.972905e+003;1.250590e-002
1.974833e+003;1.246416e-002
1.976762e+003;1.257342e-002
1.978690e+003;1.276798e-002
1.980619e+003;1.269780e-002
1.982547e+003;1.245662e-002
1.984476e+003;1.244244e-002
1.986404e+003;1.262711e-002
1.988333e+003;1.280340e-002
1.990261e+003;1.266330e-002
1.992190e+003;1.251278e-002
1.994119e+003;1.270745e-002
1.996047e+003;1.264700e-002
1.997976e+003;1.250879e-002
1.999904e+003;1.267937e-002
2.001833e+003;1.294440e-002
2.003761e+003;1.290791e-002
2.005690e+003;1.257083e-002
2.007618e+003;1.240790e-002
2.009547e+003;1.258110e-002
2.011476e+003;1.289019e-002
2.013404e+003;1.302565e-002
2.015333e+003;1.303941e-002
2.017261e+003;1.290678e-002
2.019190e+003;1.290903e-002
2.021118e+003;1.311747e-002
2.023047e+003;1.315432e-002
2.024975e+003;1.303821e-002
2.026904e+003;1.303651e-002
2.028833e+003;1.302678e-002
2.030761e+003;1.311299e-002
2.032690e+003;1.335706e-002
2.034618e+003;1.354869e-002
2.036547e+003;1.340883e-002
2.038475e+003;1.326817e-002
2.040404e+003;1.324029e-002
2.042332e+003;1.345743e-002
2.044261e+003;1.349362e-002
2.046189e+003;1.353656e-002
2.048118e+003;1.375029e-002
2.050047e+003;1.376178e-002
2.051975e+003;1.356257e-002
2.053904e+003;1.344776e-002
2.055832e+003;1.327267e-002
2.057761e+003;1.313946e-002
2.059689e+003;1.334295e-002
2.061618e+003;1.342999e-002
2.063546e+003;1.325805e-002
2.065475e+003;1.307663e-002
2.067404e+003;1.299915e-002
2.069332e+003;1.324179e-002
2.071260e+003;1.357854e-002
2.073189e+003;1.373897e-002
2.075118e+003;1.373144e-002
2.077046e+003;1.376773e-002
2.078975e+003;1.389597e-002
2.080903e+003;1.391222e-002
2.082832e+003;1.398038e-002
2.084760e+003;1.399683e-002
2.086689e+003;1.391520e-002
2.088617e+003;1.396402e-002
2.090546e+003;1.404885e-002
2.092475e+003;1.411857e-002
2.094403e+003;1.419867e-002
2.096332e+003;1.417889e-002
2.098260e+003;1.430882e-002
2.100189e+003;1.454424e-002
2.102117e+003;1.441691e-002
2.104046e+003;1.417392e-002
2.105974e+003;1.379324e-002
2.107903e+003;1.377464e-002
2.109832e+003;1.402045e-002
2.111760e+003;1.406627e-002
2.113688e+003;1.391903e-002
2.115617e+003;1.407941e-002
2.117546e+003;1.431684e-002
2.119474e+003;1.443774e-002
2.121403e+003;1.480917e-002
2.123331e+003;1.510408e-002
2.125260e+003;1.551657e-002
2.127188e+003;1.600487e-002
2.129117e+003;1.603832e-002
2.131045e+003;1.630145e-002
2.132974e+003;1.667965e-002
2.134903e+003;1.673451e-002
2.136831e+003;1.654277e-002
2.138760e+003;1.632581e-002
2.140688e+003;1.614915e-002
2.142617e+003;1.638406e-002
2.144545e+003;1.644180e-002
2.146474e+003;1.618780e-002
2.148402e+003;1.598325e-002
2.150331e+003;1.597218e-002
2.152260e+003;1.614987e-002
2.154188e+003;1.637563e-002
2.156117e+003;1.655706e-002
2.158045e+003;1.689597e-002
2.159974e+003;1.684578e-002
2.161902e+003;1.675802e-002
2.163831e+003;1.697166e-002
2.165759e+003;1.698906e-002
2.167688e+003;1.692587e-002
2.169616e+003;1.688667e-002
2.171545e+003;1.691571e-002
2.173474e+003;1.705636e-002
2.175402e+003;1.727648e-002
2.177331e+003;1.738065e-002
2.179259e+003;1.722118e-002
2.181188e+003;1.714841e-002
2.183116e+003;1.719133e-002
2.185045e+003;1.721515e-002
2.186973e+003;1.722039e-002
2.188902e+003;1.716727e-002
2.190831e+003;1.707345e-002
2.192759e+003;1.709650e-002
2.194688e+003;1.707114e-002
2.196616e+003;1.698840e-002
2.198545e+003;1.688873e-002
2.200473e+003;1.683486e-002
2.202402e+003;1.671033e-002
2.204330e+003;1.679646e-002
2.206259e+003;1.688095e-002
2.208188e+003;1.679415e-002
2.210116e+003;1.659028e-002
2.212044e+003;1.649693e-002
2.213973e+003;1.656432e-002
2.215902e+003;1.646805e-002
2.217830e+003;1.627627e-002
2.219759e+003;1.646351e-002
2.221687e+003;1.661754e-002
2.223616e+003;1.661792e-002
2.225544e+003;1.675858e-002
2.227473e+003;1.708069e-002
2.229401e+003;1.723466e-002
2.231330e+003;1.721984e-002
2.233259e+003;1.708696e-002
2.235187e+003;1.692790e-002
2.237116e+003;1.675999e-002
2.239044e+003;1.636513e-002
2.240973e+003;1.615355e-002
2.242901e+003;1.648877e-002
2.244830e+003;1.675000e-002
2.246758e+003;1.666481e-002
2.248687e+003;1.664274e-002
2.250615e+003;1.701215e-002
2.252544e+003;1.757044e-002
2.254473e+003;1.798207e-002
2.256401e+003;1.810711e-002
2.258330e+003;1.789098e-002
2.260258e+003;1.757055e-002
2.262187e+003;1.747036e-002
2.264115e+003;1.734472e-002
2.266044e+003;1.701966e-002
2.267972e+003;1.684006e-002
2.269901e+003;1.686552e-002
2.271830e+003;1.689552e-002
2.273758e+003;1.681275e-002
2.275687e+003;1.674759e-002
2.277615e+003;1.660646e-002
2.279544e+003;1.626371e-002
2.281472e+003;1.601752e-002
2.283401e+003;1.608880e-002
2.285329e+003;1.616889e-002
2.287258e+003;1.640522e-002
2.289187e+003;1.651954e-002
2.291115e+003;1.651713e-002
2.293043e+003;1.648024e-002
2.294972e+003;1.637236e-002
2.296901e+003;1.605421e-002
2.298829e+003;1.593881e-002
2.300758e+003;1.609169e-002
2.302686e+003;1.623929e-002
2.304615e+003;1.642112e-002
2.306543e+003;1.650870e-002
2.308472e+003;1.655437e-002
2.310400e+003;1.622852e-002
2.312329e+003;1.579000e-002
2.314258e+003;1.594554e-002
2.316186e+003;1.613144e-002
2.318115e+003;1.618003e-002
2.320043e+003;1.643268e-002
2.321972e+003;1.669976e-002
2.323900e+003;1.674287e-002
2.325829e+003;1.680466e-002
2.327757e+003;1.674108e-002
2.329686e+003;1.668485e-002
2.331615e+003;1.681664e-002
2.333543e+003;1.704571e-002
2.335472e+003;1.707176e-002
2.337400e+003;1.713755e-002
2.339329e+003;1.741052e-002
2.341257e+003;1.779062e-002
2.343186e+003;1.794354e-002
2.345114e+003;1.811184e-002
2.347043e+003;1.824735e-002
2.348971e+003;1.814044e-002
2.350900e+003;1.824776e-002
2.352829e+003;1.838812e-002
2.354757e+003;1.828802e-002
2.356686e+003;1.829770e-002
2.358614e+003;1.835773e-002
2.360543e+003;1.864385e-002
2.362471e+003;1.879945e-002
2.364400e+003;1.874731e-002
2.366328e+003;1.871829e-002
2.368257e+003;1.899789e-002
2.370186e+003;1.902053e-002
2.372114e+003;1.894234e-002
2.374042e+003;1.901119e-002
2.375971e+003;1.908783e-002
2.377900e+003;1.905515e-002
2.379828e+003;1.903895e-002
2.381757e+003;1.889665e-002
2.383685e+003;1.882080e-002
2.385614e+003;1.904522e-002
2.387542e+003;1.931720e-002
2.389471e+003;1.945253e-002
2.391399e+003;1.949034e-002
2.393328e+003;1.946598e-002
2.395257e+003;1.940766e-002
2.397185e+003;1.943839e-002
2.399114e+003;1.961386e-002
2.401042e+003;1.971257e-002
2.402971e+003;1.968535e-002
2.404899e+003;1.961733e-002
2.406828e+003;1.958208e-002
2.408756e+003;1.970168e-002
2.410685e+003;1.998129e-002
2.412614e+003;2.005069e-002
2.414542e+003;2.003230e-002
2.416471e+003;2.006255e-002
2.418399e+003;2.006377e-002
2.420328e+003;2.014720e-002
2.422256e+003;2.048083e-002
2.424185e+003;2.048607e-002
2.426113e+003;2.043373e-002
2.428042e+003;2.074322e-002
2.429970e+003;2.087559e-002
2.431899e+003;2.082994e-002
2.433828e+003;2.057427e-002
2.435756e+003;2.021613e-002
2.437685e+003;1.996079e-002
2.439613e+003;1.987067e-002
2.441542e+003;2.003931e-002
2.443470e+003;2.007557e-002
2.445399e+003;1.978525e-002
2.447327e+003;1.944058e-002
2.449256e+003;1.905948e-002
2.451185e+003;1.888001e-002
2.453113e+003;1.884256e-002
2.455042e+003;1.893646e-002
2.456970e+003;1.912492e-002
2.458899e+003;1.927924e-002
2.460827e+003;1.910546e-002
2.462756e+003;1.899502e-002
2.464684e+003;1.891977e-002
2.466613e+003;1.900655e-002
2.468542e+003;1.910269e-002
2.470470e+003;1.926257e-002
2.472398e+003;1.950222e-002
2.474327e+003;1.968011e-002
2.476256e+003;1.990199e-002
2.478184e+003;2.015341e-002
2.480113e+003;2.044960e-002
2.482041e+003;2.064897e-002
2.483970e+003;2.087774e-002
2.485898e+003;2.134309e-002
2.487827e+003;2.188824e-002
2.489755e+003;2.218370e-002
2.491684e+003;2.213966e-002
2.493613e+003;2.225777e-002
2.495541e+003;2.274918e-002
2.497470e+003;2.325261e-002
2.499398e+003;2.382449e-002
2.501327e+003;2.430464e-002
2.503255e+003;2.450505e-002
2.505184e+003;2.497356e-002
2.507112e+003;2.578861e-002
2.509041e+003;2.646412e-002
2.510969e+003;2.692693e-002
2.512898e+003;2.736697e-002
2.514827e+003;2.764902e-002
2.516755e+003;2.782191e-002
2.518684e+003;2.815584e-002
2.520612e+003;2.839899e-002
2.522541e+003;2.859741e-002
2.524469e+003;2.910193e-002
2.526398e+003;2.896707e-002
2.528326e+003;2.837020e-002
2.530255e+003;2.802657e-002
2.532184e+003;2.800215e-002
2.534112e+003;2.795083e-002
2.536041e+003;2.737632e-002
2.537969e+003;2.672997e-002
2.539898e+003;2.653516e-002
2.541826e+003;2.671842e-002
2.543755e+003;2.683683e-002
2.545683e+003;2.679203e-002
2.547612e+003;2.678294e-002
2.549541e+003;2.695139e-002
2.551469e+003;2.731104e-002
2.553397e+003;2.761647e-002
2.555326e+003;2.785388e-002
2.557255e+003;2.805491e-002
2.559183e+003;2.818585e-002
2.561112e+003;2.823447e-002
2.563040e+003;2.839425e-002
2.564969e+003;2.869627e-002
2.566897e+003;2.933669e-002
2.568826e+003;3.025765e-002
2.570754e+003;3.082869e-002
2.572683e+003;3.142136e-002
2.574612e+003;3.230796e-002
2.576540e+003;3.329010e-002
2.578469e+003;3.398230e-002
2.580397e+003;3.420924e-002
2.582326e+003;3.418981e-002
2.584254e+003;3.363011e-002
2.586183e+003;3.268297e-002
2.588111e+003;3.161276e-002
2.590040e+003;3.085897e-002
2.591969e+003;3.036125e-002
2.593897e+003;2.986190e-002
2.595826e+003;2.988238e-002
2.597754e+003;2.992665e-002
2.599683e+003;2.967877e-002
2.601611e+003;2.987273e-002
2.603540e+003;3.033204e-002
2.605468e+003;3.079508e-002
2.607397e+003;3.124736e-002
2.609325e+003;3.154452e-002
2.611254e+003;3.195307e-002
2.613183e+003;3.234416e-002
2.615111e+003;3.251853e-002
2.617040e+003;3.240427e-002
2.618968e+003;3.224304e-002
2.620897e+003;3.187997e-002
2.622825e+003;3.167128e-002
2.624754e+003;3.152931e-002
2.626682e+003;3.127211e-002
2.628611e+003;3.097894e-002
2.630540e+003;3.070542e-002
2.632468e+003;3.055762e-002
2.634396e+003;3.059295e-002
2.636325e+003;3.036011e-002
2.638254e+003;3.017556e-002
2.640182e+003;3.048109e-002
2.642111e+003;3.103111e-002
2.644039e+003;3.157869e-002
2.645968e+003;3.210981e-002
2.647896e+003;3.258042e-002
2.649825e+003;3.299857e-002
2.651753e+003;3.327553e-002
2.653682e+003;3.328820e-002
2.655611e+003;3.338172e-002
2.657539e+003;3.401222e-002
2.659468e+003;3.441011e-002
2.661396e+003;3.416174e-002
2.663325e+003;3.399803e-002
2.665253e+003;3.407138e-002
2.667182e+003;3.403461e-002
2.669110e+003;3.405654e-002
2.671039e+003;3.417056e-002
2.672968e+003;3.432347e-002
2.674896e+003;3.477269e-002
2.676825e+003;3.533630e-002
2.678753e+003;3.550372e-002
2.680682e+003;3.515885e-002
2.682610e+003;3.475546e-002
2.684539e+003;3.491278e-002
2.686467e+003;3.526996e-002
2.688396e+003;3.525346e-002
2.690324e+003;3.513539e-002
2.692253e+003;3.514656e-002
2.694182e+003;3.495296e-002
2.696110e+003;3.461438e-002
2.698039e+003;3.478109e-002
2.699967e+003;3.561581e-002
2.701896e+003;3.625827e-002
2.703824e+003;3.678047e-002
2.705753e+003;3.741011e-002
2.707681e+003;3.824686e-002
2.709610e+003;3.927662e-002
2.711539e+003;4.052022e-002
2.713467e+003;4.173774e-002
2.715396e+003;4.291318e-002
2.717324e+003;4.464800e-002
2.719253e+003;4.653337e-002
2.721181e+003;4.788326e-002
2.723110e+003;4.827090e-002
2.725038e+003;4.789706e-002
2.726967e+003;4.698300e-002
2.728896e+003;4.575407e-002
2.730824e+003;4.462384e-002
2.732752e+003;4.305105e-002
2.734681e+003;4.156819e-002
2.736610e+003;4.066079e-002
2.738538e+003;3.997277e-002
2.740467e+003;3.916888e-002
2.742395e+003;3.844690e-002
2.744324e+003;3.767765e-002
2.746252e+003;3.685581e-002
2.748181e+003;3.655626e-002
2.750109e+003;3.650475e-002
2.752038e+003;3.645405e-002
2.753967e+003;3.628886e-002
2.755895e+003;3.684318e-002
2.757824e+003;3.761959e-002
2.759752e+003;3.789037e-002
2.761681e+003;3.823050e-002
2.763609e+003;3.875714e-002
2.765538e+003;3.936067e-002
2.767466e+003;3.987833e-002
2.769395e+003;4.021326e-002
2.771323e+003;4.045944e-002
2.773252e+003;4.078194e-002
2.775181e+003;4.134372e-002
2.777109e+003;4.201636e-002
2.779038e+003;4.323296e-002
2.780966e+003;4.457339e-002
2.782895e+003;4.603907e-002
2.784823e+003;4.746840e-002
2.786752e+003;4.884412e-002
2.788680e+003;5.034243e-002
2.790609e+003;5.198291e-002
2.792538e+003;5.359597e-002
2.794466e+003;5.490613e-002
2.796395e+003;5.594580e-002
2.798323e+003;5.715634e-002
2.800252e+003;5.866754e-002
2.802180e+003;6.045074e-002
2.804109e+003;6.239191e-002
2.806037e+003;6.414375e-002
2.807966e+003;6.590289e-002
2.809895e+003;6.749160e-002
2.811823e+003;6.895696e-002
2.813751e+003;7.063405e-002
2.815680e+003;7.265354e-002
2.817609e+003;7.461725e-002
2.819537e+003;7.650765e-002
2.821466e+003;7.905886e-002
2.823394e+003;8.237749e-002
2.825323e+003;8.627154e-002
2.827251e+003;9.142598e-002
2.829180e+003;9.848233e-002
2.831108e+003;1.070435e-001
2.833037e+003;1.158474e-001
2.834966e+003;1.228584e-001
2.836894e+003;1.267012e-001
2.838823e+003;1.264564e-001
2.840751e+003;1.230070e-001
2.842680e+003;1.181290e-001
2.844608e+003;1.130549e-001
2.846537e+003;1.085947e-001
2.848465e+003;1.050962e-001
2.850394e+003;1.028603e-001
2.852323e+003;1.016168e-001
2.854251e+003;1.013521e-001
2.856180e+003;1.023982e-001
2.858108e+003;1.053453e-001
2.860037e+003;1.105509e-001
2.861965e+003;1.181247e-001
2.863894e+003;1.262741e-001
2.865822e+003;1.323812e-001
2.867751e+003;1.358891e-001
2.869679e+003;1.374923e-001
2.871608e+003;1.384683e-001
2.873536e+003;1.394189e-001
2.875465e+003;1.394349e-001
2.877394e+003;1.377558e-001
2.879322e+003;1.356910e-001
2.881251e+003;1.345321e-001
2.883179e+003;1.339324e-001
2.885108e+003;1.340558e-001
2.887036e+003;1.347750e-001
2.888965e+003;1.362227e-001
2.890893e+003;1.385089e-001
2.892822e+003;1.416971e-001
2.894750e+003;1.455351e-001
2.896679e+003;1.500418e-001
2.898608e+003;1.553150e-001
2.900536e+003;1.610963e-001
2.902465e+003;1.670052e-001
2.904393e+003;1.726364e-001
2.906322e+003;1.780208e-001
2.908250e+003;1.828727e-001
2.910179e+003;1.871734e-001
2.912107e+003;1.909010e-001
2.914036e+003;1.930018e-001
2.915965e+003;1.930264e-001
2.917893e+003;1.912049e-001
2.919822e+003;1.876775e-001
2.921750e+003;1.829448e-001
2.923679e+003;1.772633e-001
2.925607e+003;1.704416e-001
2.927536e+003;1.631167e-001
2.929464e+003;1.555090e-001
2.931393e+003;1.469418e-001
2.933322e+003;1.389254e-001
2.935250e+003;1.320932e-001
2.937178e+003;1.268861e-001
2.939107e+003;1.239938e-001
2.941036e+003;1.247755e-001
2.942964e+003;1.293355e-001
2.944893e+003;1.364495e-001
2.946821e+003;1.442509e-001
2.948750e+003;1.509437e-001
2.950678e+003;1.548322e-001
2.952607e+003;1.554582e-001
2.954535e+003;1.537492e-001
2.956464e+003;1.503532e-001
2.958393e+003;1.462740e-001
2.960321e+003;1.410442e-001
2.962250e+003;1.339884e-001
2.964178e+003;1.261367e-001
2.966107e+003;1.182317e-001
2.968035e+003;1.108206e-001
2.969964e+003;1.038837e-001
2.971892e+003;9.739238e-002
2.973821e+003;9.173437e-002
2.975750e+003;8.656303e-002
2.977678e+003;8.201635e-002
2.979607e+003;7.798536e-002
2.981535e+003;7.436072e-002
2.983464e+003;7.114468e-002
2.985392e+003;6.819210e-002
2.987321e+003;6.562810e-002
2.989249e+003;6.353595e-002
2.991178e+003;6.129638e-002
2.993106e+003;5.914776e-002
2.995035e+003;5.741856e-002
2.996964e+003;5.566585e-002
2.998892e+003;5.364189e-002
3.000821e+003;5.173917e-002
3.002749e+003;4.987972e-002
3.004678e+003;4.800944e-002
3.006606e+003;4.599575e-002
3.008535e+003;4.421343e-002
3.010463e+003;4.292835e-002
3.012392e+003;4.172814e-002
3.014321e+003;4.040293e-002
3.016249e+003;3.937268e-002
3.018177e+003;3.834066e-002
3.020106e+003;3.708516e-002
3.022035e+003;3.599405e-002
3.023963e+003;3.500162e-002
3.025892e+003;3.408421e-002
3.027820e+003;3.306828e-002
3.029749e+003;3.239528e-002
3.031677e+003;3.179903e-002
3.033606e+003;3.110475e-002
3.035534e+003;3.046456e-002
3.037463e+003;2.972666e-002
3.039392e+003;2.917053e-002
3.041320e+003;2.883742e-002
3.043249e+003;2.838223e-002
3.045177e+003;2.785318e-002
3.047106e+003;2.754028e-002
3.049034e+003;2.712090e-002
3.050963e+003;2.654301e-002
3.052891e+003;2.592368e-002
3.054820e+003;2.592966e-002
3.056749e+003;2.603751e-002
3.058677e+003;2.578629e-002
3.060606e+003;2.562897e-002
3.062534e+003;2.532501e-002
3.064463e+003;2.484482e-002
3.066391e+003;2.423880e-002
3.068320e+003;2.376215e-002
3.070248e+003;2.378942e-002
3.072177e+003;2.389786e-002
3.074105e+003;2.386534e-002
3.076034e+003;2.362484e-002
3.077963e+003;2.335434e-002
3.079891e+003;2.324142e-002
3.081820e+003;2.315970e-002
3.083748e+003;2.302182e-002
3.085677e+003;2.305906e-002
3.087605e+003;2.308499e-002
3.089534e+003;2.267003e-002
3.091462e+003;2.249957e-002
3.093391e+003;2.254567e-002
3.095320e+003;2.256989e-002
3.097248e+003;2.294985e-002
3.099177e+003;2.303730e-002
3.101105e+003;2.250682e-002
3.103034e+003;2.223022e-002
3.104962e+003;2.217809e-002
3.106891e+003;2.209590e-002
3.108819e+003;2.232404e-002
3.110748e+003;2.266242e-002
3.112677e+003;2.272118e-002
3.114605e+003;2.250700e-002
3.116533e+003;2.249667e-002
3.118462e+003;2.251450e-002
3.120391e+003;2.264647e-002
3.122319e+003;2.276873e-002
3.124248e+003;2.272442e-002
3.126176e+003;2.299782e-002
3.128105e+003;2.334375e-002
3.130033e+003;2.359511e-002
3.131962e+003;2.370759e-002
3.133890e+003;2.362897e-002
3.135819e+003;2.340053e-002
3.137748e+003;2.314730e-002
3.139676e+003;2.316128e-002
3.141605e+003;2.351084e-002
3.143533e+003;2.376520e-002
3.145462e+003;2.390710e-002
3.147390e+003;2.367071e-002
3.149319e+003;2.360711e-002
3.151247e+003;2.355120e-002
3.153176e+003;2.333773e-002
3.155104e+003;2.341113e-002
3.157033e+003;2.330648e-002
3.158962e+003;2.362275e-002
3.160890e+003;2.403039e-002
3.162819e+003;2.371235e-002
3.164747e+003;2.331711e-002
3.166676e+003;2.297836e-002
3.168604e+003;2.307066e-002
3.170533e+003;2.353252e-002
3.172461e+003;2.353480e-002
3.174390e+003;2.303562e-002
3.176319e+003;2.311074e-002
3.178247e+003;2.341543e-002
3.180176e+003;2.340382e-002
3.182104e+003;2.332179e-002
3.184033e+003;2.323607e-002
3.185961e+003;2.365269e-002
3.187890e+003;2.359238e-002
3.189818e+003;2.333106e-002
3.191747e+003;2.321720e-002
3.193676e+003;2.352745e-002
3.195604e+003;2.375617e-002
3.197532e+003;2.381640e-002
3.199461e+003;2.377255e-002
3.201390e+003;2.386366e-002
3.203318e+003;2.384573e-002
3.205247e+003;2.384479e-002
3.207175e+003;2.378259e-002
3.209104e+003;2.343638e-002
3.211032e+003;2.311354e-002
3.212961e+003;2.285352e-002
3.214889e+003;2.261079e-002
3.216818e+003;2.254008e-002
3.218747e+003;2.225910e-002
3.220675e+003;2.164532e-002
3.222604e+003;2.124516e-002
3.224532e+003;2.115377e-002
3.226461e+003;2.108305e-002
3.228389e+003;2.085977e-002
3.230318e+003;2.033900e-002
3.232246e+003;2.017840e-002
3.234175e+003;1.963938e-002
3.236104e+003;1.928097e-002
3.238032e+003;1.929198e-002
3.239961e+003;1.921869e-002
3.241889e+003;1.888790e-002
3.243818e+003;1.848692e-002
3.245746e+003;1.828546e-002
3.247675e+003;1.858723e-002
3.249603e+003;1.853758e-002
3.251532e+003;1.805405e-002
3.253460e+003;1.802549e-002
3.255389e+003;1.769412e-002
3.257318e+003;1.755378e-002
3.259246e+003;1.789292e-002
3.261175e+003;1.767910e-002
3.263103e+003;1.743115e-002
3.265032e+003;1.724890e-002
3.266960e+003;1.677104e-002
3.268889e+003;1.670513e-002
3.270817e+003;1.721480e-002
3.272746e+003;1.755412e-002
3.274675e+003;1.744705e-002
3.276603e+003;1.730134e-002
3.278531e+003;1.764028e-002
3.280460e+003;1.786661e-002
3.282389e+003;1.787669e-002
3.284317e+003;1.749910e-002
3.286246e+003;1.717375e-002
3.288174e+003;1.730441e-002
3.290103e+003;1.754401e-002
3.292031e+003;1.771496e-002
3.293960e+003;1.759008e-002
3.295888e+003;1.710092e-002
3.297817e+003;1.687275e-002
3.299746e+003;1.690358e-002
3.301674e+003;1.739321e-002
3.303603e+003;1.767023e-002
3.305531e+003;1.739531e-002
3.307460e+003;1.709137e-002
3.309388e+003;1.701177e-002
3.311317e+003;1.693269e-002
3.313245e+003;1.658966e-002
3.315174e+003;1.662980e-002
3.317103e+003;1.700287e-002
3.319031e+003;1.702879e-002
3.320960e+003;1.699016e-002
3.322888e+003;1.716003e-002
3.324817e+003;1.677579e-002
3.326745e+003;1.657579e-002
3.328674e+003;1.722228e-002
3.330602e+003;1.763731e-002
3.332531e+003;1.754743e-002
3.334459e+003;1.760853e-002
3.336388e+003;1.780163e-002
3.338317e+003;1.791646e-002
3.340245e+003;1.792665e-002
3.342174e+003;1.782687e-002
3.344102e+003;1.764749e-002
3.346031e+003;1.778375e-002
3.347959e+003;1.824579e-002
3.349888e+003;1.866720e-002
3.351816e+003;1.813778e-002
3.353745e+003;1.775638e-002
3.355674e+003;1.756989e-002
3.357602e+003;1.734103e-002
3.359531e+003;1.742970e-002
3.361459e+003;1.742680e-002
3.363388e+003;1.758476e-002
3.365316e+003;1.785045e-002
3.367245e+003;1.758476e-002
3.369173e+003;1.743259e-002
3.371102e+003;1.740417e-002
3.373031e+003;1.740280e-002
3.374959e+003;1.744460e-002
3.376887e+003;1.731289e-002
3.378816e+003;1.699957e-002
3.380745e+003;1.684633e-002
3.382673e+003;1.673047e-002
3.384602e+003;1.671319e-002
3.386530e+003;1.686703e-002
3.388459e+003;1.706477e-002
3.390387e+003;1.726552e-002
3.392316e+003;1.746726e-002
3.394244e+003;1.781448e-002
3.396173e+003;1.815772e-002
3.398102e+003;1.781789e-002
3.400030e+003;1.690672e-002
3.401959e+003;1.638746e-002
3.403887e+003;1.603358e-002
3.405816e+003;1.621656e-002
3.407744e+003;1.695736e-002
3.409673e+003;1.711991e-002
3.411601e+003;1.684023e-002
3.413530e+003;1.682212e-002
3.415458e+003;1.724942e-002
3.417387e+003;1.743225e-002
3.419316e+003;1.682360e-002
3.421244e+003;1.634765e-002
3.423173e+003;1.655293e-002
3.425101e+003;1.637628e-002
3.427030e+003;1.610950e-002
3.428958e+003;1.610100e-002
3.430887e+003;1.577965e-002
3.432815e+003;1.574715e-002
3.434744e+003;1.599188e-002
3.436673e+003;1.617308e-002
3.438601e+003;1.639104e-002
3.440530e+003;1.578862e-002
3.442458e+003;1.547021e-002
3.444387e+003;1.545943e-002
3.446315e+003;1.494420e-002
3.448244e+003;1.487209e-002
3.450172e+003;1.482577e-002
3.452101e+003;1.472241e-002
3.454030e+003;1.436786e-002
3.455958e+003;1.405022e-002
3.457886e+003;1.455247e-002
3.459815e+003;1.478223e-002
3.461744e+003;1.426749e-002
3.463672e+003;1.404776e-002
3.465601e+003;1.388724e-002
3.467529e+003;1.389443e-002
3.469458e+003;1.405532e-002
3.471386e+003;1.441006e-002
3.473315e+003;1.412603e-002
3.475243e+003;1.390202e-002
3.477172e+003;1.416721e-002
3.479101e+003;1.383049e-002
3.481029e+003;1.313110e-002
3.482958e+003;1.279405e-002
3.484886e+003;1.301718e-002
3.486815e+003;1.345517e-002
3.488743e+003;1.325696e-002
3.490672e+003;1.287572e-002
3.492600e+003;1.297560e-002
3.494529e+003;1.311358e-002
3.496458e+003;1.327397e-002
3.498386e+003;1.345982e-002
3.500315e+003;1.328719e-002
3.502243e+003;1.326202e-002
3.504172e+003;1.341905e-002
3.506100e+003;1.349383e-002
3.508029e+003;1.291245e-002
3.509957e+003;1.247493e-002
3.511886e+003;1.275993e-002
3.513814e+003;1.299045e-002
3.515743e+003;1.283162e-002
3.517672e+003;1.287473e-002
3.519600e+003;1.312901e-002
3.521529e+003;1.274812e-002
3.523457e+003;1.221929e-002
3.525386e+003;1.251640e-002
3.527314e+003;1.269619e-002
3.529243e+003;1.270807e-002
3.531171e+003;1.300264e-002
3.533100e+003;1.286446e-002
3.535029e+003;1.249611e-002
3.536957e+003;1.231596e-002
3.538885e+003;1.216072e-002
3.540814e+003;1.241363e-002
3.542743e+003;1.218184e-002
3.544671e+003;1.230038e-002
3.546600e+003;1.279955e-002
3.548528e+003;1.284227e-002
3.550457e+003;1.218048e-002
3.552385e+003;1.170102e-002
3.554314e+003;1.194371e-002
3.556242e+003;1.239235e-002
3.558171e+003;1.229230e-002
3.560100e+003;1.187696e-002
3.562028e+003;1.185068e-002
3.563957e+003;1.133165e-002
3.565885e+003;9.974256e-003
3.567814e+003;9.910759e-003
3.569742e+003;1.105853e-002
3.571671e+003;1.162889e-002
3.573599e+003;1.147785e-002
3.575528e+003;1.152048e-002
3.577457e+003;1.151024e-002
3.579385e+003;1.120073e-002
3.581314e+003;1.119352e-002
3.583242e+003;1.149302e-002
3.585171e+003;1.097836e-002
3.587099e+003;9.647885e-003
3.589028e+003;9.630946e-003
3.590956e+003;1.069171e-002
3.592885e+003;1.093300e-002
3.594813e+003;1.095172e-002
3.596742e+003;1.102934e-002
3.598671e+003;1.123578e-002
3.600599e+003;1.138722e-002
3.602528e+003;1.156352e-002
3.604456e+003;1.134216e-002
3.606385e+003;1.035296e-002
3.608313e+003;9.627728e-003
3.610242e+003;1.004190e-002
3.612170e+003;9.896725e-003
3.614099e+003;9.821275e-003
3.616028e+003;1.009019e-002
3.617956e+003;9.497221e-003
3.619885e+003;9.784605e-003
3.621813e+003;1.108198e-002
3.623742e+003;1.134012e-002
3.625670e+003;1.035011e-002
3.627599e+003;7.426885e-003
3.629527e+003;7.354795e-003
3.631456e+003;1.035754e-002
3.633385e+003;1.099124e-002
3.635313e+003;1.069643e-002
3.637241e+003;1.082034e-002
3.639170e+003;1.105007e-002
3.641099e+003;1.125806e-002
3.643027e+003;1.114711e-002
3.644956e+003;1.017705e-002
3.646884e+003;8.345253e-003
3.648813e+003;6.773086e-003
3.650741e+003;7.427863e-003
3.652670e+003;9.555237e-003
3.654598e+003;9.494578e-003
3.656527e+003;9.209957e-003
3.658456e+003;1.086263e-002
3.660384e+003;1.155345e-002
3.662313e+003;1.135852e-002
3.664241e+003;1.151354e-002
3.666170e+003;1.114052e-002
3.668098e+003;9.044761e-003
3.670027e+003;7.548950e-003
3.671955e+003;8.739405e-003
3.673884e+003;7.596188e-003
3.675813e+003;7.340372e-003
3.677741e+003;1.032656e-002
3.679669e+003;1.139280e-002
3.681598e+003;1.178261e-002
3.683527e+003;1.184788e-002
3.685455e+003;1.054333e-002
3.687384e+003;7.776620e-003
3.689312e+003;7.694488e-003
3.691241e+003;9.562283e-003
3.693169e+003;1.151493e-002
3.695098e+003;1.260719e-002
3.697026e+003;1.233951e-002
3.698955e+003;1.187407e-002
3.700884e+003;1.115096e-002
3.702812e+003;1.129417e-002
3.704741e+003;1.225399e-002
3.706669e+003;1.217867e-002
3.708598e+003;1.099460e-002
3.710526e+003;9.772914e-003
3.712455e+003;1.020151e-002
3.714383e+003;1.169785e-002
3.716312e+003;1.215438e-002
3.718240e+003;1.186096e-002
3.720169e+003;1.128835e-002
3.722098e+003;1.127659e-002
3.724026e+003;1.180461e-002
3.725955e+003;1.164863e-002
3.727883e+003;1.154324e-002
3.729812e+003;1.056679e-002
3.731740e+003;8.983463e-003
3.733669e+003;8.387983e-003
3.735597e+003;7.749129e-003
3.737526e+003;9.772270e-003
3.739455e+003;1.188023e-002
3.741383e+003;1.077658e-002
3.743312e+003;6.460847e-003
3.745240e+003;6.870359e-003
3.747169e+003;8.851763e-003
3.749097e+003;6.541939e-003
3.751026e+003;6.161234e-003
3.752954e+003;8.890180e-003
3.754883e+003;1.178847e-002
3.756812e+003;1.189338e-002
3.758740e+003;1.106750e-002
3.760668e+003;1.136760e-002
3.762597e+003;1.222540e-002
3.764526e+003;1.163767e-002
3.766454e+003;1.181751e-002
3.768383e+003;1.177911e-002
3.770311e+003;1.212600e-002
3.772240e+003;1.302503e-002
3.774168e+003;1.306618e-002
3.776097e+003;1.250477e-002
3.778025e+003;1.222434e-002
3.779954e+003;1.236167e-002
3.781883e+003;1.299393e-002
3.783811e+003;1.291094e-002
3.785740e+003;1.273516e-002
3.787668e+003;1.281627e-002
3.789597e+003;1.327319e-002
3.791525e+003;1.317191e-002
3.793454e+003;1.291036e-002
3.795382e+003;1.202801e-002
3.797311e+003;1.164441e-002
3.799240e+003;1.019896e-002
3.801168e+003;8.739473e-003
3.803097e+003;1.110418e-002
3.805025e+003;1.129036e-002
3.806954e+003;1.047418e-002
3.808882e+003;1.235270e-002
3.810811e+003;1.307670e-002
3.812739e+003;1.254140e-002
3.814668e+003;9.780064e-003
3.816596e+003;9.480457e-003
3.818525e+003;1.100442e-002
3.820454e+003;9.898487e-003
3.822382e+003;1.121076e-002
3.824311e+003;1.317324e-002
3.826239e+003;1.286852e-002
3.828168e+003;1.275024e-002
3.830096e+003;1.257011e-002
3.832025e+003;1.215680e-002
3.833953e+003;1.127533e-002
3.835882e+003;9.194965e-003
3.837811e+003;8.267303e-003
3.839739e+003;1.002766e-002
3.841667e+003;1.124901e-002
3.843596e+003;1.174108e-002
3.845525e+003;1.280712e-002
3.847453e+003;1.336315e-002
3.849382e+003;1.193946e-002
3.851310e+003;7.627244e-003
3.853239e+003;4.117609e-003
3.855167e+003;7.727069e-003
3.857096e+003;1.206784e-002
3.859024e+003;1.270557e-002
3.860953e+003;1.234125e-002
3.862882e+003;1.201343e-002
3.864810e+003;1.166102e-002
3.866739e+003;1.162270e-002
3.868667e+003;1.038632e-002
3.870596e+003;1.062750e-002
3.872524e+003;1.195502e-002
3.874453e+003;1.283470e-002
3.876381e+003;1.374813e-002
3.878310e+003;1.310873e-002
3.880239e+003;1.265597e-002
3.882167e+003;1.296935e-002
3.884096e+003;1.145709e-002
3.886024e+003;1.151946e-002
3.887953e+003;1.366336e-002
3.889881e+003;1.307273e-002
3.891810e+003;1.275396e-002
3.893738e+003;1.391468e-002
3.895667e+003;1.379543e-002
3.897595e+003;1.251623e-002
3.899524e+003;1.162335e-002
3.901453e+003;1.188415e-002
3.903381e+003;1.219292e-002
3.905310e+003;1.291217e-002
3.907238e+003;1.402332e-002
3.909167e+003;1.445517e-002
3.911095e+003;1.434248e-002
3.913024e+003;1.426920e-002
3.914952e+003;1.437112e-002
3.916881e+003;1.408924e-002
3.918810e+003;1.389494e-002
3.920738e+003;1.401063e-002
3.922667e+003;1.412531e-002
3.924595e+003;1.416338e-002
3.926524e+003;1.439701e-002
3.928452e+003;1.449189e-002
3.930381e+003;1.458742e-002
3.932309e+003;1.434392e-002
3.934238e+003;1.499688e-002
3.936167e+003;1.562492e-002
3.938095e+003;1.510229e-002
3.940023e+003;1.458211e-002
3.941952e+003;1.432951e-002
3.943881e+003;1.428619e-002
3.945809e+003;1.447819e-002
3.947738e+003;1.461260e-002
3.949666e+003;1.451875e-002
3.951595e+003;1.509941e-002
3.953523e+003;1.533156e-002
3.955452e+003;1.468944e-002
3.957380e+003;1.441020e-002
3.959309e+003;1.435831e-002
3.961238e+003;1.425277e-002
3.963166e+003;1.465578e-002
3.965095e+003;1.512260e-002
3.967023e+003;1.537673e-002
3.968952e+003;1.526253e-002
3.970880e+003;1.489102e-002
3.972809e+003;1.487919e-002
3.974737e+003;1.509550e-002
3.976666e+003;1.536883e-002
3.978594e+003;1.589144e-002
3.980523e+003;1.594269e-002
3.982452e+003;1.545408e-002
3.984380e+003;1.539060e-002
3.986309e+003;1.554864e-002
3.988237e+003;1.554710e-002
3.990166e+003;1.617480e-002
3.992094e+003;1.685642e-002
3.994023e+003;1.664543e-002
3.995951e+003;1.631521e-002
3.997880e+003;1.601835e-002
3.999809e+003;1.635612e-002
4.001737e+003;0.000000e+000
