3.992094e+002;0.000000e+000
4.011380e+002;0.000000e+000
4.030665e+002;0.000000e+000
4.049951e+002;0.000000e+000
4.069236e+002;0.000000e+000
4.088522e+002;0.000000e+000
4.107807e+002;0.000000e+000
4.127093e+002;0.000000e+000
4.146378e+002;0.000000e+000
4.165664e+002;0.000000e+000
4.184949e+002;0.000000e+000
4.204235e+002;0.000000e+000
4.223520e+002;0.000000e+000
4.242806e+002;0.000000e+000
4.262091e+002;0.000000e+000
4.281377e+002;0.000000e+000
4.300662e+002;0.000000e+000
4.319948e+002;0.000000e+000
4.339233e+002;0.000000e+000
4.358519e+002;0.000000e+000
4.377804e+002;0.000000e+000
4.397090e+002;0.000000e+000
4.416375e+002;0.000000e+000
4.435660e+002;0.000000e+000
4.454946e+002;0.000000e+000
4.474232e+002;0.000000e+000
4.493517e+002;0.000000e+000
4.512802e+002;0.000000e+000
4.532088e+002;0.000000e+000
4.551373e+002;0.000000e+000
4.570659e+002;0.000000e+000
4.589944e+002;0.000000e+000
4.609230e+002;0.000000e+000
4.628515e+002;0.000000e+000
4.647801e+002;0.000000e+000
4.667086e+002;0.000000e+000
4.686372e+002;0.000000e+000
4.705657e+002;0.000000e+000
4.724943e+002;0.000000e+000
4.744228e+002;0.000000e+000
4.763513e+002;0.000000e+000
4.782799e+002;0.000000e+000
4.802085e+002;0.000000e+000
4.821370e+002;0.000000e+000
4.840656e+002;0.000000e+000
4.859941e+002;0.000000e+000
4.879226e+002;0.000000e+000
4.898512e+002;0.000000e+000
4.917798e+002;0.000000e+000
4.937083e+002;0.000000e+000
4.956368e+002;0.000000e+000
4.975654e+002;0.000000e+000
4.994939e+002;0.000000e+000
5.014225e+002;0.000000e+000
5.033510e+002;0.000000e+000
5.052796e+002;0.000000e+000
5.072081e+002;0.000000e+000
5.091367e+002;0.000000e+000
5.110652e+002;0.000000e+000
5.129938e+002;0.000000e+000
5.149223e+002;0.000000e+000
5.168509e+002;0.000000e+000
5.187794e+002;0.000000e+000
5.207079e+002;0.000000e+000
5.226365e+002;0.000000e+000
5.245651e+002;0.000000e+000
5.264936e+002;0.000000e+000
5.284222e+002;0.000000e+000
5.303507e+002;0.000000e+000
5.322792e+002;0.000000e+000
5.342078e+002;0.000000e+000
5.361364e+002;0.000000e+000
5.380649e+002;0.000000e+000
5.399935e+002;0.000000e+000
5.419220e+002;0.000000e+000
5.438505e+002;0.000000e+000
5.457791e+002;0.000000e+000
5.477076e+002;0.000000e+000
5.496362e+002;0.000000e+000
5.515648e+002;0.000000e+000
5.534933e+002;0.000000e+000
5.554218e+002;0.000000e+000
5.573504e+002;0.000000e+000
5.592789e+002;0.000000e+000
5.612075e+002;0.000000e+000
5.631360e+002;0.000000e+000
5.650646e+002;0.000000e+000
5.669931e+002;0.000000e+000
5.689217e+002;0.000000e+000
5.708502e+002;0.000000e+000
5.727787e+002;0.000000e+000
5.747073e+002;0.000000e+000
5.766359e+002;0.000000e+000
5.785644e+002;0.000000e+000
5.804930e+002;0.000000e+000
5.824215e+002;0.000000e+000
5.843500e+002;0.000000e+000
5.862786e+002;0.000000e+000
5.882072e+002;0.000000e+000
5.901357e+002;0.000000e+000
5.920643e+002;0.000000e+000
5.939928e+002;0.000000e+000
5.959213e+002;0.000000e+000
5.978499e+002;0.000000e+000
5.997784e+002;4.231536e-002
6.017070e+002;4.103737e-002
6.036355e+002;3.965011e-002
6.055641e+002;3.657287e-002
6.074926e+002;4.012062e-002
6.094211e+002;4.197891e-002
6.113497e+002;3.868365e-002
6.132783e+002;3.969945e-002
6.152068e+002;4.475113e-002
6.171354e+002;4.471410e-002
6.190639e+002;4.147391e-002
6.209924e+002;4.045824e-002
6.229210e+002;4.194975e-002
6.248495e+002;4.299332e-002
6.267781e+002;4.384707e-002
6.287067e+002;4.242064e-002
6.306352e+002;4.042206e-002
6.325637e+002;3.831196e-002
6.344923e+002;3.950268e-002
6.364208e+002;3.969004e-002
6.383494e+002;4.087043e-002
6.402780e+002;4.322835e-002
6.422065e+002;4.569748e-002
6.441350e+002;4.322974e-002
6.460636e+002;3.905296e-002
6.479921e+002;3.617727e-002
6.499207e+002;3.639171e-002
6.518492e+002;3.659580e-002
6.537778e+002;3.983115e-002
6.557063e+002;4.144016e-002
6.576349e+002;3.913073e-002
6.595634e+002;3.696609e-002
6.614919e+002;3.706455e-002
6.634205e+002;3.963207e-002
6.653491e+002;3.989347e-002
6.672776e+002;3.807795e-002
6.692062e+002;3.728957e-002
6.711347e+002;3.750889e-002
6.730632e+002;3.737016e-002
6.749918e+002;3.594822e-002
6.769203e+002;3.600441e-002
6.788489e+002;3.733709e-002
6.807775e+002;3.835057e-002
6.827060e+002;3.810113e-002
6.846345e+002;3.736709e-002
6.865631e+002;3.665373e-002
6.884916e+002;3.734817e-002
6.904202e+002;3.768557e-002
6.923488e+002;3.656537e-002
6.942773e+002;3.588269e-002
6.962058e+002;3.705488e-002
6.981344e+002;3.770960e-002
7.000629e+002;3.651668e-002
7.019915e+002;3.566433e-002
7.039200e+002;3.557722e-002
7.058486e+002;3.536987e-002
7.077771e+002;3.501412e-002
7.097057e+002;3.466440e-002
7.116342e+002;3.566973e-002
7.135627e+002;3.637978e-002
7.154913e+002;3.573541e-002
7.174199e+002;3.574847e-002
7.193484e+002;3.709960e-002
7.212770e+002;3.710645e-002
7.232055e+002;3.608401e-002
7.251340e+002;3.512307e-002
7.270626e+002;3.466584e-002
7.289911e+002;3.533224e-002
7.309197e+002;3.509160e-002
7.328483e+002;3.328401e-002
7.347768e+002;3.248011e-002
7.367053e+002;3.286717e-002
7.386339e+002;3.251032e-002
7.405624e+002;3.208637e-002
7.424910e+002;3.208412e-002
7.444196e+002;3.204916e-002
7.463481e+002;3.178449e-002
7.482766e+002;3.076897e-002
7.502052e+002;3.078060e-002
7.521337e+002;3.190439e-002
7.540623e+002;3.219194e-002
7.559908e+002;3.087195e-002
7.579194e+002;3.000312e-002
7.598479e+002;3.001153e-002
7.617765e+002;2.976169e-002
7.637050e+002;2.919647e-002
7.656335e+002;2.983589e-002
7.675621e+002;3.058375e-002
7.694907e+002;3.077342e-002
7.714192e+002;2.980352e-002
7.733478e+002;2.937891e-002
7.752763e+002;2.942443e-002
7.772048e+002;2.896292e-002
7.791334e+002;2.847417e-002
7.810620e+002;2.932694e-002
7.829905e+002;2.994163e-002
7.849191e+002;2.988256e-002
7.868476e+002;3.097762e-002
7.887761e+002;3.207481e-002
7.907047e+002;3.252782e-002
7.926332e+002;3.342996e-002
7.945618e+002;3.423752e-002
7.964903e+002;3.530694e-002
7.984189e+002;3.641246e-002
8.003474e+002;3.791716e-002
8.022759e+002;3.989514e-002
8.042045e+002;4.160888e-002
8.061331e+002;4.351331e-002
8.080616e+002;4.542219e-002
8.099902e+002;4.610856e-002
8.119187e+002;4.548801e-002
8.138472e+002;4.337174e-002
8.157758e+002;4.040391e-002
8.177043e+002;3.823727e-002
8.196329e+002;3.692640e-002
8.215615e+002;3.575552e-002
8.234900e+002;3.520330e-002
8.254185e+002;3.503179e-002
8.273471e+002;3.505363e-002
8.292756e+002;3.493202e-002
8.312042e+002;3.589399e-002
8.331328e+002;3.820818e-002
8.350613e+002;3.987179e-002
8.369898e+002;4.147205e-002
8.389184e+002;4.622615e-002
8.408469e+002;5.061833e-002
8.427755e+002;5.022532e-002
8.447040e+002;4.664617e-002
8.466326e+002;4.198563e-002
8.485611e+002;3.785444e-002
8.504897e+002;3.581068e-002
8.524182e+002;3.542825e-002
8.543467e+002;3.476131e-002
8.562753e+002;3.368640e-002
8.582039e+002;3.292185e-002
8.601324e+002;3.229679e-002
8.620610e+002;3.172549e-002
8.639895e+002;3.190774e-002
8.659180e+002;3.216454e-002
8.678466e+002;3.176905e-002
8.697751e+002;3.215341e-002
8.717037e+002;3.268708e-002
8.736323e+002;3.233624e-002
8.755608e+002;3.199979e-002
8.774893e+002;3.151848e-002
8.794179e+002;3.072036e-002
8.813464e+002;3.069123e-002
8.832750e+002;3.081009e-002
8.852036e+002;3.077260e-002
8.871321e+002;3.106385e-002
8.890606e+002;3.171016e-002
8.909892e+002;3.341869e-002
8.929177e+002;3.598785e-002
8.948463e+002;3.968805e-002
8.967748e+002;4.395888e-002
8.987034e+002;4.631748e-002
9.006319e+002;4.583246e-002
9.025605e+002;4.273081e-002
9.044890e+002;3.825804e-002
9.064175e+002;3.428807e-002
9.083461e+002;3.197886e-002
9.102747e+002;3.050159e-002
9.122032e+002;2.916617e-002
9.141318e+002;2.843377e-002
9.160603e+002;2.807860e-002
9.179888e+002;2.801611e-002
9.199174e+002;2.808181e-002
9.218459e+002;2.805552e-002
9.237745e+002;2.801720e-002
9.257031e+002;2.802045e-002
9.276316e+002;2.801423e-002
9.295601e+002;2.797882e-002
9.314887e+002;2.829313e-002
9.334172e+002;2.918431e-002
9.353458e+002;3.030756e-002
9.372744e+002;3.186973e-002
9.392029e+002;3.347415e-002
9.411314e+002;3.430590e-002
9.430600e+002;3.403744e-002
9.449885e+002;3.408951e-002
9.469171e+002;3.444774e-002
9.488456e+002;3.438156e-002
9.507742e+002;3.500586e-002
9.527027e+002;3.604931e-002
9.546313e+002;3.678343e-002
9.565598e+002;3.735287e-002
9.584883e+002;3.853096e-002
9.604169e+002;4.060058e-002
9.623455e+002;4.313846e-002
9.642740e+002;4.602589e-002
9.662026e+002;5.019278e-002
9.681311e+002;5.662274e-002
9.700596e+002;6.424285e-002
9.719882e+002;7.066731e-002
9.739167e+002;7.304300e-002
9.758453e+002;6.995268e-002
9.777739e+002;6.280776e-002
9.797024e+002;5.479125e-002
9.816309e+002;4.821595e-002
9.835595e+002;4.361031e-002
9.854880e+002;4.113881e-002
9.874166e+002;4.090221e-002
9.893452e+002;4.233165e-002
9.912737e+002;4.567223e-002
9.932022e+002;5.111896e-002
9.951307e+002;5.738414e-002
9.970593e+002;6.184901e-002
9.989879e+002;6.185673e-002
1.000916e+003;5.780189e-002
1.002845e+003;5.261730e-002
1.004773e+003;4.852529e-002
1.006702e+003;4.587524e-002
1.008631e+003;4.474936e-002
1.010559e+003;4.415107e-002
1.012488e+003;4.329332e-002
1.014416e+003;4.235828e-002
1.016345e+003;4.161899e-002
1.018273e+003;4.139543e-002
1.020202e+003;4.149626e-002
1.022130e+003;4.150446e-002
1.024059e+003;4.155309e-002
1.025988e+003;4.183872e-002
1.027916e+003;4.180876e-002
1.029845e+003;4.237600e-002
1.031773e+003;4.342828e-002
1.033702e+003;4.464209e-002
1.035630e+003;4.603657e-002
1.037559e+003;4.731737e-002
1.039487e+003;4.802395e-002
1.041416e+003;4.802465e-002
1.043344e+003;4.769314e-002
1.045273e+003;4.714515e-002
1.047202e+003;4.616265e-002
1.049130e+003;4.476130e-002
1.051059e+003;4.363028e-002
1.052987e+003;4.336925e-002
1.054916e+003;4.324101e-002
1.056844e+003;4.304710e-002
1.058773e+003;4.317846e-002
1.060701e+003;4.266066e-002
1.062630e+003;4.209090e-002
1.064558e+003;4.228052e-002
1.066487e+003;4.227025e-002
1.068416e+003;4.187805e-002
1.070344e+003;4.191479e-002
1.072273e+003;4.248955e-002
1.074201e+003;4.237096e-002
1.076130e+003;4.179154e-002
1.078058e+003;4.221321e-002
1.079987e+003;4.326425e-002
1.081915e+003;4.412176e-002
1.083844e+003;4.446127e-002
1.085773e+003;4.448656e-002
1.087701e+003;4.421890e-002
1.089630e+003;4.475076e-002
1.091558e+003;4.548190e-002
1.093487e+003;4.646743e-002
1.095415e+003;4.823339e-002
1.097344e+003;4.949236e-002
1.099272e+003;4.997060e-002
1.101201e+003;5.047301e-002
1.103129e+003;5.039211e-002
1.105058e+003;4.967981e-002
1.106987e+003;4.882165e-002
1.108915e+003;4.745853e-002
1.110844e+003;4.540696e-002
1.112772e+003;4.379565e-002
1.114701e+003;4.282324e-002
1.116629e+003;4.232873e-002
1.118558e+003;4.232051e-002
1.120486e+003;4.223998e-002
1.122415e+003;4.142696e-002
1.124344e+003;4.059225e-002
1.126272e+003;4.010375e-002
1.128201e+003;3.949542e-002
1.130129e+003;3.941106e-002
1.132058e+003;4.029549e-002
1.133986e+003;4.184244e-002
1.135915e+003;4.346167e-002
1.137843e+003;4.522694e-002
1.139772e+003;4.827908e-002
1.141700e+003;5.178770e-002
1.143629e+003;5.512163e-002
1.145557e+003;5.812284e-002
1.147486e+003;6.094034e-002
1.149415e+003;6.396458e-002
1.151343e+003;6.709030e-002
1.153272e+003;6.893887e-002
1.155200e+003;6.979028e-002
1.157129e+003;6.989699e-002
1.159057e+003;6.991766e-002
1.160986e+003;6.980480e-002
1.162914e+003;7.028994e-002
1.164843e+003;7.097613e-002
1.166771e+003;7.046851e-002
1.168700e+003;6.855179e-002
1.170629e+003;6.504770e-002
1.172557e+003;6.071717e-002
1.174486e+003;5.608806e-002
1.176414e+003;5.183541e-002
1.178343e+003;4.896742e-002
1.180271e+003;4.718393e-002
1.182200e+003;4.530063e-002
1.184128e+003;4.370077e-002
1.186057e+003;4.290849e-002
1.187986e+003;4.245717e-002
1.189914e+003;4.222438e-002
1.191843e+003;4.195950e-002
1.193771e+003;4.219927e-002
1.195700e+003;4.241874e-002
1.197628e+003;4.219536e-002
1.199557e+003;4.157100e-002
1.201485e+003;4.100048e-002
1.203414e+003;4.100347e-002
1.205343e+003;4.105307e-002
1.207271e+003;4.112460e-002
1.209200e+003;4.184408e-002
1.211128e+003;4.288055e-002
1.213057e+003;4.384941e-002
1.214985e+003;4.430339e-002
1.216914e+003;4.411956e-002
1.218842e+003;4.379894e-002
1.220771e+003;4.328871e-002
1.222699e+003;4.264852e-002
1.224628e+003;4.218995e-002
1.226557e+003;4.190782e-002
1.228485e+003;4.159740e-002
1.230414e+003;4.145073e-002
1.232342e+003;4.129907e-002
1.234271e+003;4.169451e-002
1.236199e+003;4.247658e-002
1.238128e+003;4.268376e-002
1.240056e+003;4.290055e-002
1.241985e+003;4.312068e-002
1.243913e+003;4.315669e-002
1.245842e+003;4.371506e-002
1.247771e+003;4.430559e-002
1.249699e+003;4.498740e-002
1.251628e+003;4.676003e-002
1.253556e+003;4.898463e-002
1.255485e+003;5.016890e-002
1.257413e+003;4.994674e-002
1.259342e+003;4.855508e-002
1.261270e+003;4.653784e-002
1.263199e+003;4.478984e-002
1.265127e+003;4.389926e-002
1.267056e+003;4.322732e-002
1.268985e+003;4.256775e-002
1.270913e+003;4.208612e-002
1.272842e+003;4.153731e-002
1.274770e+003;4.124784e-002
1.276699e+003;4.119611e-002
1.278627e+003;4.089034e-002
1.280556e+003;4.072695e-002
1.282484e+003;4.107594e-002
1.284413e+003;4.157946e-002
1.286342e+003;4.180997e-002
1.288270e+003;4.223980e-002
1.290199e+003;4.322125e-002
1.292127e+003;4.414990e-002
1.294056e+003;4.492574e-002
1.295984e+003;4.529515e-002
1.297913e+003;4.506006e-002
1.299841e+003;4.496616e-002
1.301770e+003;4.540196e-002
1.303698e+003;4.549423e-002
1.305627e+003;4.432090e-002
1.307556e+003;4.250676e-002
1.309484e+003;4.078616e-002
1.311413e+003;3.983562e-002
1.313341e+003;3.981622e-002
1.315270e+003;4.037304e-002
1.317198e+003;4.104644e-002
1.319127e+003;4.189677e-002
1.321055e+003;4.341345e-002
1.322984e+003;4.506929e-002
1.324912e+003;4.636235e-002
1.326841e+003;4.774030e-002
1.328770e+003;4.865743e-002
1.330698e+003;4.887883e-002
1.332627e+003;4.883188e-002
1.334555e+003;4.823683e-002
1.336484e+003;4.720159e-002
1.338412e+003;4.677239e-002
1.340341e+003;4.743942e-002
1.342269e+003;4.896130e-002
1.344198e+003;5.073477e-002
1.346126e+003;5.284390e-002
1.348055e+003;5.559569e-002
1.349984e+003;5.921565e-002
1.351912e+003;6.363484e-002
1.353841e+003;6.902944e-002
1.355769e+003;7.529152e-002
1.357698e+003;8.050669e-002
1.359626e+003;8.239908e-002
1.361555e+003;8.174097e-002
1.363483e+003;8.150854e-002
1.365412e+003;8.367479e-002
1.367341e+003;9.057752e-002
1.369269e+003;1.048181e-001
1.371198e+003;1.256624e-001
1.373126e+003;1.493072e-001
1.375055e+003;1.684032e-001
1.376983e+003;1.708479e-001
1.378912e+003;1.534479e-001
1.380840e+003;1.276831e-001
1.382769e+003;1.035688e-001
1.384698e+003;8.445576e-002
1.386626e+003;7.030109e-002
1.388555e+003;6.139068e-002
1.390483e+003;5.624847e-002
1.392412e+003;5.237310e-002
1.394340e+003;4.932666e-002
1.396269e+003;4.817982e-002
1.398197e+003;4.776241e-002
1.400126e+003;4.802006e-002
1.402054e+003;4.858928e-002
1.403983e+003;4.862760e-002
1.405911e+003;4.881809e-002
1.407840e+003;4.952266e-002
1.409769e+003;5.011167e-002
1.411697e+003;5.041455e-002
1.413626e+003;5.079905e-002
1.415554e+003;5.116223e-002
1.417483e+003;5.059998e-002
1.419411e+003;5.053822e-002
1.421340e+003;5.253323e-002
1.423268e+003;5.431405e-002
1.425197e+003;5.665362e-002
1.427125e+003;6.038197e-002
1.429054e+003;6.542990e-002
1.430983e+003;7.335100e-002
1.432911e+003;8.272390e-002
1.434840e+003;8.831367e-002
1.436768e+003;9.014368e-002
1.438697e+003;9.299610e-002
1.440625e+003;9.688661e-002
1.442554e+003;1.018310e-001
1.444482e+003;1.086101e-001
1.446411e+003;1.172191e-001
1.448340e+003;1.266353e-001
1.450268e+003;1.349292e-001
1.452197e+003;1.402020e-001
1.454125e+003;1.419108e-001
1.456054e+003;1.397819e-001
1.457982e+003;1.389028e-001
1.459911e+003;1.384431e-001
1.461839e+003;1.344090e-001
1.463768e+003;1.269185e-001
1.465697e+003;1.181971e-001
1.467625e+003;1.092491e-001
1.469554e+003;9.827188e-002
1.471482e+003;8.636478e-002
1.473411e+003;7.666773e-002
1.475339e+003;6.974997e-002
1.477268e+003;6.366726e-002
1.479196e+003;5.850517e-002
1.481125e+003;5.350998e-002
1.483053e+003;4.953659e-002
1.484982e+003;4.638219e-002
1.486911e+003;4.323691e-002
1.488839e+003;4.020828e-002
1.490768e+003;3.872954e-002
1.492696e+003;3.845168e-002
1.494625e+003;3.669555e-002
1.496553e+003;3.466354e-002
1.498482e+003;3.467732e-002
1.500410e+003;3.473342e-002
1.502339e+003;3.403207e-002
1.504267e+003;3.115049e-002
1.506196e+003;2.766428e-002
1.508125e+003;2.871587e-002
1.510053e+003;3.092133e-002
1.511982e+003;3.138575e-002
1.513910e+003;3.144470e-002
1.515839e+003;3.062040e-002
1.517767e+003;2.980842e-002
1.519696e+003;2.841901e-002
1.521624e+003;2.747582e-002
1.523553e+003;2.895623e-002
1.525481e+003;2.996648e-002
1.527410e+003;3.084243e-002
1.529339e+003;3.177322e-002
1.531267e+003;3.177229e-002
1.533196e+003;3.125153e-002
1.535124e+003;3.251021e-002
1.537053e+003;3.218377e-002
1.538981e+003;2.964020e-002
1.540910e+003;3.026553e-002
1.542838e+003;3.311502e-002
1.544767e+003;3.509142e-002
1.546695e+003;3.623479e-002
1.548624e+003;3.608625e-002
1.550553e+003;3.582946e-002
1.552481e+003;3.498906e-002
1.554410e+003;3.354466e-002
1.556338e+003;3.142838e-002
1.558267e+003;2.738144e-002
1.560195e+003;2.800268e-002
1.562124e+003;3.157659e-002
1.564052e+003;3.226378e-002
1.565981e+003;3.205387e-002
1.567910e+003;3.108912e-002
1.569838e+003;3.027271e-002
1.571767e+003;3.142169e-002
1.573695e+003;3.112414e-002
1.575624e+003;2.872055e-002
1.577552e+003;2.960647e-002
1.579481e+003;3.160421e-002
1.581409e+003;3.193834e-002
1.583338e+003;3.176203e-002
1.585266e+003;3.113796e-002
1.587195e+003;3.086345e-002
1.589124e+003;3.094795e-002
1.591052e+003;3.110809e-002
1.592981e+003;3.127898e-002
1.594909e+003;3.120549e-002
1.596838e+003;3.101926e-002
1.598766e+003;3.148556e-002
1.600695e+003;3.192765e-002
1.602623e+003;3.237154e-002
1.604552e+003;3.303457e-002
1.606480e+003;3.324738e-002
1.608409e+003;3.331589e-002
1.610338e+003;3.407991e-002
1.612266e+003;3.461858e-002
1.614195e+003;3.425699e-002
1.616123e+003;3.340384e-002
1.618052e+003;3.533246e-002
1.619980e+003;3.750452e-002
1.621909e+003;3.744763e-002
1.623837e+003;3.781557e-002
1.625766e+003;3.911822e-002
1.627694e+003;3.978626e-002
1.629623e+003;4.053197e-002
1.631552e+003;4.111127e-002
1.633480e+003;3.992885e-002
1.635409e+003;3.834323e-002
1.637337e+003;4.010851e-002
1.639266e+003;4.232910e-002
1.641194e+003;4.306956e-002
1.643123e+003;4.299288e-002
1.645051e+003;4.192428e-002
1.646980e+003;4.209170e-002
1.648909e+003;4.395653e-002
1.650837e+003;4.187130e-002
1.652766e+003;3.791069e-002
1.654694e+003;4.110245e-002
1.656623e+003;4.514586e-002
1.658551e+003;4.570938e-002
1.660480e+003;4.494448e-002
1.662408e+003;4.403518e-002
1.664337e+003;4.423453e-002
1.666266e+003;4.399481e-002
1.668194e+003;4.238429e-002
1.670123e+003;4.194077e-002
1.672051e+003;4.222256e-002
1.673980e+003;4.089628e-002
1.675908e+003;4.044355e-002
1.677837e+003;4.120861e-002
1.679765e+003;4.067240e-002
1.681694e+003;3.885413e-002
1.683622e+003;3.547014e-002
1.685551e+003;3.630028e-002
1.687479e+003;3.898405e-002
1.689408e+003;3.930205e-002
1.691337e+003;3.930712e-002
1.693265e+003;3.824972e-002
1.695194e+003;3.561347e-002
1.697122e+003;3.588729e-002
1.699051e+003;3.575261e-002
1.700979e+003;3.648241e-002
1.702908e+003;3.978267e-002
1.704836e+003;4.081266e-002
1.706765e+003;4.188195e-002
1.708693e+003;4.288929e-002
1.710622e+003;4.315625e-002
1.712551e+003;4.249251e-002
1.714479e+003;4.113174e-002
1.716408e+003;3.908802e-002
1.718336e+003;3.944313e-002
1.720265e+003;4.202403e-002
1.722193e+003;4.295816e-002
1.724122e+003;4.289361e-002
1.726050e+003;4.342963e-002
1.727979e+003;4.411703e-002
1.729908e+003;4.476207e-002
1.731836e+003;4.440020e-002
1.733765e+003;4.368329e-002
1.735693e+003;4.695509e-002
1.737622e+003;4.982234e-002
1.739550e+003;5.012762e-002
1.741479e+003;5.046784e-002
1.743407e+003;4.976954e-002
1.745336e+003;4.800929e-002
1.747265e+003;4.498656e-002
1.749193e+003;4.096188e-002
1.751122e+003;3.694715e-002
1.753050e+003;3.441158e-002
1.754979e+003;3.123632e-002
1.756907e+003;2.744013e-002
1.758836e+003;2.445531e-002
1.760764e+003;2.128702e-002
1.762693e+003;1.919390e-002
1.764621e+003;1.845034e-002
1.766550e+003;1.690272e-002
1.768479e+003;1.541051e-002
1.770407e+003;1.413387e-002
1.772336e+003;1.273877e-002
1.774264e+003;1.335949e-002
1.776193e+003;1.413972e-002
1.778121e+003;1.382365e-002
1.780050e+003;1.303497e-002
1.781978e+003;1.258267e-002
1.783907e+003;1.202614e-002
1.785835e+003;1.136865e-002
1.787764e+003;1.085971e-002
1.789693e+003;9.932184e-003
1.791621e+003;8.380822e-003
1.793550e+003;8.003160e-003
1.795478e+003;8.571076e-003
1.797407e+003;8.356400e-003
1.799335e+003;7.671016e-003
1.801264e+003;7.299430e-003
1.803192e+003;7.344449e-003
1.805121e+003;7.062041e-003
1.807049e+003;6.569454e-003
1.808978e+003;6.156664e-003
1.810907e+003;6.145339e-003
1.812835e+003;6.130619e-003
1.814764e+003;6.021450e-003
1.816692e+003;6.072789e-003
1.818621e+003;6.168494e-003
1.820549e+003;6.084784e-003
1.822478e+003;5.744030e-003
1.824406e+003;5.292075e-003
1.826335e+003;5.325617e-003
1.828264e+003;5.061178e-003
1.830192e+003;5.112102e-003
1.832121e+003;5.563971e-003
1.834049e+003;5.689709e-003
1.835978e+003;5.956009e-003
1.837906e+003;6.013622e-003
1.839835e+003;5.820253e-003
1.841763e+003;5.026015e-003
1.843692e+003;3.911173e-003
1.845620e+003;4.321164e-003
1.847549e+003;5.015154e-003
1.849478e+003;5.152738e-003
1.851406e+003;5.200888e-003
1.853335e+003;5.342824e-003
1.855263e+003;5.392741e-003
1.857192e+003;5.292444e-003
1.859120e+003;5.142612e-003
1.861049e+003;5.048373e-003
1.862977e+003;4.952847e-003
1.864906e+003;4.628519e-003
1.866834e+003;3.896128e-003
1.868763e+003;3.568311e-003
1.870692e+003;4.297103e-003
1.872620e+003;4.710775e-003
1.874549e+003;4.698316e-003
1.876477e+003;4.836536e-003
1.878406e+003;4.772814e-003
1.880334e+003;4.617970e-003
1.882263e+003;4.589505e-003
1.884191e+003;4.644895e-003
1.886120e+003;4.759514e-003
1.888048e+003;4.610971e-003
1.889977e+003;4.734826e-003
1.891906e+003;5.280571e-003
1.893834e+003;5.325415e-003
1.895763e+003;5.049446e-003
1.897691e+003;5.023970e-003
1.899620e+003;5.064028e-003
1.901548e+003;5.020685e-003
1.903477e+003;5.025009e-003
1.905405e+003;4.763534e-003
1.907334e+003;4.619343e-003
1.909262e+003;4.747455e-003
1.911191e+003;4.829098e-003
1.913120e+003;4.691717e-003
1.915048e+003;4.434526e-003
1.916977e+003;3.855576e-003
1.918905e+003;4.089880e-003
1.920834e+003;4.558298e-003
1.922762e+003;4.485812e-003
1.924691e+003;4.484037e-003
1.926619e+003;4.491369e-003
1.928548e+003;4.395196e-003
1.930477e+003;4.255778e-003
1.932405e+003;3.930364e-003
1.934334e+003;3.878242e-003
1.936262e+003;4.138147e-003
1.938191e+003;4.160627e-003
1.940119e+003;3.771309e-003
1.942048e+003;3.422880e-003
1.943976e+003;3.579035e-003
1.945905e+003;3.910872e-003
1.947833e+003;4.060347e-003
1.949762e+003;4.195219e-003
1.951691e+003;4.191874e-003
1.953619e+003;3.824956e-003
1.955548e+003;3.749551e-003
1.957476e+003;3.858652e-003
1.959405e+003;3.953469e-003
1.961333e+003;3.928993e-003
1.963262e+003;3.749818e-003
1.965190e+003;3.615452e-003
1.967119e+003;3.760279e-003
1.969047e+003;3.885329e-003
1.970976e+003;3.924212e-003
1.972905e+003;3.804766e-003
1.974833e+003;3.664134e-003
1.976762e+003;3.803931e-003
1.978690e+003;3.709180e-003
1.980619e+003;3.602188e-003
1.982547e+003;3.782037e-003
1.984476e+003;3.898569e-003
1.986404e+003;3.973130e-003
1.988333e+003;3.905021e-003
1.990261e+003;3.604593e-003
1.992190e+003;3.496124e-003
1.994119e+003;3.758541e-003
1.996047e+003;4.132461e-003
1.997976e+003;4.057069e-003
1.999904e+003;3.924447e-003
2.001833e+003;3.842505e-003
2.003761e+003;3.774283e-003
2.005690e+003;3.862128e-003
2.007618e+003;3.862095e-003
2.009547e+003;3.669514e-003
2.011476e+003;3.667810e-003
2.013404e+003;3.733910e-003
2.015333e+003;3.816031e-003
2.017261e+003;4.068106e-003
2.019190e+003;4.172302e-003
2.021118e+003;4.103728e-003
2.023047e+003;4.113528e-003
2.024975e+003;3.952198e-003
2.026904e+003;3.956746e-003
2.028833e+003;3.978648e-003
2.030761e+003;4.105032e-003
2.032690e+003;4.387264e-003
2.034618e+003;4.381540e-003
2.036547e+003;4.293757e-003
2.038475e+003;4.316345e-003
2.040404e+003;4.469106e-003
2.042332e+003;4.373407e-003
2.044261e+003;4.237375e-003
2.046189e+003;4.494784e-003
2.048118e+003;4.888840e-003
2.050047e+003;4.811642e-003
2.051975e+003;4.588032e-003
2.053904e+003;4.434225e-003
2.055832e+003;4.287634e-003
2.057761e+003;4.406075e-003
2.059689e+003;4.684382e-003
2.061618e+003;4.814322e-003
2.063546e+003;4.543900e-003
2.065475e+003;4.420300e-003
2.067404e+003;4.431848e-003
2.069332e+003;4.429505e-003
2.071260e+003;4.475233e-003
2.073189e+003;4.722700e-003
2.075118e+003;4.714460e-003
2.077046e+003;4.453775e-003
2.078975e+003;4.713120e-003
2.080903e+003;5.292444e-003
2.082832e+003;5.372747e-003
2.084760e+003;5.137281e-003
2.086689e+003;5.171280e-003
2.088617e+003;5.177516e-003
2.090546e+003;5.231942e-003
2.092475e+003;5.421694e-003
2.094403e+003;5.330178e-003
2.096332e+003;5.218964e-003
2.098260e+003;5.323805e-003
2.100189e+003;5.256323e-003
2.102117e+003;5.054239e-003
2.104046e+003;5.308107e-003
2.105974e+003;5.706193e-003
2.107903e+003;5.742553e-003
2.109832e+003;5.438369e-003
2.111760e+003;5.292880e-003
2.113688e+003;5.439711e-003
2.115617e+003;5.746817e-003
2.117546e+003;5.943378e-003
2.119474e+003;5.918287e-003
2.121403e+003;6.114725e-003
2.123331e+003;6.461049e-003
2.125260e+003;6.536927e-003
2.127188e+003;6.717559e-003
2.129117e+003;6.888705e-003
2.131045e+003;7.103567e-003
2.132974e+003;7.369994e-003
2.134903e+003;7.360524e-003
2.136831e+003;7.020688e-003
2.138760e+003;6.654502e-003
2.140688e+003;6.528316e-003
2.142617e+003;6.622204e-003
2.144545e+003;6.684145e-003
2.146474e+003;6.857837e-003
2.148402e+003;6.875509e-003
2.150331e+003;6.791394e-003
2.152260e+003;6.802636e-003
2.154188e+003;6.850162e-003
2.156117e+003;6.850432e-003
2.158045e+003;7.124854e-003
2.159974e+003;7.538870e-003
2.161902e+003;7.889166e-003
2.163831e+003;8.087240e-003
2.165759e+003;7.981358e-003
2.167688e+003;7.942144e-003
2.169616e+003;8.368289e-003
2.171545e+003;8.789105e-003
2.173474e+003;8.981805e-003
2.175402e+003;8.919164e-003
2.177331e+003;8.661080e-003
2.179259e+003;8.417238e-003
2.181188e+003;8.323704e-003
2.183116e+003;8.308201e-003
2.185045e+003;8.513461e-003
2.186973e+003;8.587839e-003
2.188902e+003;8.288207e-003
2.190831e+003;8.159790e-003
2.192759e+003;8.646241e-003
2.194688e+003;9.053321e-003
2.196616e+003;8.927484e-003
2.198545e+003;8.581384e-003
2.200473e+003;8.359980e-003
2.202402e+003;8.264500e-003
2.204330e+003;8.264331e-003
2.206259e+003;8.223065e-003
2.208188e+003;8.262946e-003
2.210116e+003;8.115901e-003
2.212044e+003;7.887345e-003
2.213973e+003;7.964079e-003
2.215902e+003;8.213408e-003
2.217830e+003;8.378153e-003
2.219759e+003;8.239037e-003
2.221687e+003;8.106820e-003
2.223616e+003;8.263419e-003
2.225544e+003;8.608522e-003
2.227473e+003;8.748128e-003
2.229401e+003;8.729871e-003
2.231330e+003;8.669497e-003
2.233259e+003;8.693903e-003
2.235187e+003;8.615045e-003
2.237116e+003;8.506027e-003
2.239044e+003;8.511197e-003
2.240973e+003;8.513799e-003
2.242901e+003;8.234445e-003
2.244830e+003;8.286080e-003
2.246758e+003;8.656956e-003
2.248687e+003;8.879019e-003
2.250615e+003;9.058327e-003
2.252544e+003;9.153881e-003
2.254473e+003;9.293255e-003
2.256401e+003;9.476664e-003
2.258330e+003;9.267123e-003
2.260258e+003;9.050276e-003
2.262187e+003;8.977713e-003
2.264115e+003;8.876110e-003
2.266044e+003;8.999193e-003
2.267972e+003;8.982651e-003
2.269901e+003;8.919062e-003
2.271830e+003;9.013435e-003
2.273758e+003;9.034105e-003
2.275687e+003;8.842531e-003
2.277615e+003;8.636778e-003
2.279544e+003;8.467441e-003
2.281472e+003;8.078903e-003
2.283401e+003;8.052101e-003
2.285329e+003;8.322724e-003
2.287258e+003;8.152835e-003
2.289187e+003;8.053147e-003
2.291115e+003;8.308911e-003
2.293043e+003;8.370317e-003
2.294972e+003;8.331439e-003
2.296901e+003;8.222593e-003
2.298829e+003;8.213678e-003
2.300758e+003;8.271187e-003
2.302686e+003;8.329412e-003
2.304615e+003;8.483591e-003
2.306543e+003;8.528565e-003
2.308472e+003;8.511906e-003
2.310400e+003;8.778252e-003
2.312329e+003;8.988300e-003
2.314258e+003;8.889875e-003
2.316186e+003;8.815242e-003
2.318115e+003;8.834314e-003
2.320043e+003;8.888116e-003
2.321972e+003;8.869246e-003
2.323900e+003;8.886493e-003
2.325829e+003;8.986711e-003
2.327757e+003;9.277786e-003
2.329686e+003;9.636096e-003
2.331615e+003;9.911844e-003
2.333543e+003;9.833849e-003
2.335472e+003;9.767526e-003
2.337400e+003;9.913200e-003
2.339329e+003;9.988089e-003
2.341257e+003;1.018007e-002
2.343186e+003;1.059497e-002
2.345114e+003;1.058686e-002
2.347043e+003;1.044347e-002
2.348971e+003;1.036181e-002
2.350900e+003;1.019899e-002
2.352829e+003;1.063256e-002
2.354757e+003;1.102006e-002
2.356686e+003;1.083189e-002
2.358614e+003;1.077913e-002
2.360543e+003;1.108504e-002
2.362471e+003;1.134331e-002
2.364400e+003;1.144046e-002
2.366328e+003;1.159728e-002
2.368257e+003;1.150384e-002
2.370186e+003;1.118366e-002
2.372114e+003;1.096820e-002
2.374042e+003;1.095889e-002
2.375971e+003;1.107162e-002
2.377900e+003;1.126622e-002
2.379828e+003;1.130573e-002
2.381757e+003;1.138403e-002
2.383685e+003;1.167586e-002
2.385614e+003;1.159925e-002
2.387542e+003;1.121239e-002
2.389471e+003;1.136256e-002
2.391399e+003;1.178030e-002
2.393328e+003;1.194937e-002
2.395257e+003;1.207608e-002
2.397185e+003;1.207734e-002
2.399114e+003;1.210259e-002
2.401042e+003;1.225678e-002
2.402971e+003;1.223473e-002
2.404899e+003;1.205990e-002
2.406828e+003;1.201984e-002
2.408756e+003;1.186205e-002
2.410685e+003;1.200015e-002
2.412614e+003;1.222420e-002
2.414542e+003;1.180958e-002
2.416471e+003;1.175055e-002
2.418399e+003;1.197133e-002
2.420328e+003;1.208974e-002
2.422256e+003;1.232154e-002
2.424185e+003;1.262500e-002
2.426113e+003;1.303777e-002
2.428042e+003;1.319851e-002
2.429970e+003;1.287029e-002
2.431899e+003;1.267883e-002
2.433828e+003;1.259437e-002
2.435756e+003;1.238451e-002
2.437685e+003;1.215472e-002
2.439613e+003;1.189082e-002
2.441542e+003;1.190646e-002
2.443470e+003;1.186624e-002
2.445399e+003;1.173969e-002
2.447327e+003;1.165136e-002
2.449256e+003;1.162219e-002
2.451185e+003;1.175034e-002
2.453113e+003;1.184649e-002
2.455042e+003;1.172896e-002
2.456970e+003;1.145628e-002
2.458899e+003;1.139331e-002
2.460827e+003;1.170616e-002
2.462756e+003;1.167637e-002
2.464684e+003;1.150700e-002
2.466613e+003;1.150741e-002
2.468542e+003;1.161194e-002
2.470470e+003;1.164904e-002
2.472398e+003;1.164377e-002
2.474327e+003;1.175545e-002
2.476256e+003;1.151347e-002
2.478184e+003;1.151432e-002
2.480113e+003;1.208422e-002
2.482041e+003;1.248758e-002
2.483970e+003;1.257639e-002
2.485898e+003;1.247657e-002
2.487827e+003;1.245550e-002
2.489755e+003;1.243828e-002
2.491684e+003;1.226510e-002
2.493613e+003;1.232778e-002
2.495541e+003;1.252407e-002
2.497470e+003;1.226847e-002
2.499398e+003;1.231875e-002
2.501327e+003;1.255078e-002
2.503255e+003;1.232608e-002
2.505184e+003;1.240953e-002
2.507112e+003;1.271216e-002
2.509041e+003;1.291507e-002
2.510969e+003;1.322635e-002
2.512898e+003;1.343241e-002
2.514827e+003;1.355850e-002
2.516755e+003;1.361043e-002
2.518684e+003;1.360373e-002
2.520612e+003;1.379646e-002
2.522541e+003;1.391612e-002
2.524469e+003;1.428948e-002
2.526398e+003;1.471405e-002
2.528326e+003;1.487528e-002
2.530255e+003;1.514034e-002
2.532184e+003;1.547258e-002
2.534112e+003;1.547818e-002
2.536041e+003;1.523947e-002
2.537969e+003;1.553274e-002
2.539898e+003;1.588759e-002
2.541826e+003;1.620775e-002
2.543755e+003;1.650085e-002
2.545683e+003;1.669057e-002
2.547612e+003;1.697063e-002
2.549541e+003;1.745801e-002
2.551469e+003;1.794537e-002
2.553397e+003;1.830008e-002
2.555326e+003;1.871649e-002
2.557255e+003;1.904366e-002
2.559183e+003;1.905294e-002
2.561112e+003;1.910016e-002
2.563040e+003;1.938777e-002
2.564969e+003;1.974187e-002
2.566897e+003;2.029709e-002
2.568826e+003;2.090496e-002
2.570754e+003;2.145531e-002
2.572683e+003;2.217568e-002
2.574612e+003;2.276381e-002
2.576540e+003;2.310760e-002
2.578469e+003;2.340784e-002
2.580397e+003;2.359986e-002
2.582326e+003;2.358132e-002
2.584254e+003;2.338357e-002
2.586183e+003;2.307716e-002
2.588111e+003;2.250180e-002
2.590040e+003;2.202465e-002
2.591969e+003;2.160596e-002
2.593897e+003;2.124659e-002
2.595826e+003;2.121277e-002
2.597754e+003;2.099134e-002
2.599683e+003;2.101314e-002
2.601611e+003;2.125592e-002
2.603540e+003;2.140142e-002
2.605468e+003;2.151780e-002
2.607397e+003;2.183803e-002
2.609325e+003;2.232306e-002
2.611254e+003;2.266043e-002
2.613183e+003;2.309194e-002
2.615111e+003;2.345383e-002
2.617040e+003;2.342089e-002
2.618968e+003;2.304470e-002
2.620897e+003;2.296952e-002
2.622825e+003;2.286731e-002
2.624754e+003;2.261655e-002
2.626682e+003;2.258601e-002
2.628611e+003;2.258413e-002
2.630540e+003;2.238781e-002
2.632468e+003;2.238306e-002
2.634396e+003;2.258765e-002
2.636325e+003;2.267537e-002
2.638254e+003;2.266053e-002
2.640182e+003;2.316495e-002
2.642111e+003;2.369696e-002
2.644039e+003;2.372282e-002
2.645968e+003;2.376380e-002
2.647896e+003;2.396235e-002
2.649825e+003;2.444858e-002
2.651753e+003;2.524989e-002
2.653682e+003;2.543577e-002
2.655611e+003;2.553619e-002
2.657539e+003;2.575999e-002
2.659468e+003;2.626745e-002
2.661396e+003;2.663876e-002
2.663325e+003;2.655442e-002
2.665253e+003;2.642239e-002
2.667182e+003;2.628005e-002
2.669110e+003;2.618139e-002
2.671039e+003;2.616014e-002
2.672968e+003;2.621331e-002
2.674896e+003;2.658722e-002
2.676825e+003;2.697526e-002
2.678753e+003;2.718693e-002
2.680682e+003;2.753378e-002
2.682610e+003;2.731640e-002
2.684539e+003;2.702262e-002
2.686467e+003;2.721769e-002
2.688396e+003;2.725007e-002
2.690324e+003;2.718467e-002
2.692253e+003;2.748747e-002
2.694182e+003;2.739856e-002
2.696110e+003;2.713049e-002
2.698039e+003;2.761431e-002
2.699967e+003;2.813505e-002
2.701896e+003;2.845825e-002
2.703824e+003;2.944748e-002
2.705753e+003;3.056284e-002
2.707681e+003;3.094535e-002
2.709610e+003;3.151238e-002
2.711539e+003;3.277783e-002
2.713467e+003;3.412679e-002
2.715396e+003;3.515375e-002
2.717324e+003;3.641899e-002
2.719253e+003;3.829622e-002
2.721181e+003;3.961817e-002
2.723110e+003;4.010005e-002
2.725038e+003;3.981317e-002
2.726967e+003;3.894487e-002
2.728896e+003;3.759841e-002
2.730824e+003;3.613903e-002
2.732752e+003;3.513614e-002
2.734681e+003;3.426205e-002
2.736610e+003;3.343171e-002
2.738538e+003;3.266343e-002
2.740467e+003;3.167873e-002
2.742395e+003;3.053867e-002
2.744324e+003;2.963446e-002
2.746252e+003;2.929312e-002
2.748181e+003;2.929890e-002
2.750109e+003;2.940259e-002
2.752038e+003;2.946507e-002
2.753967e+003;2.945486e-002
2.755895e+003;2.971645e-002
2.757824e+003;3.014040e-002
2.759752e+003;3.038421e-002
2.761681e+003;3.083403e-002
2.763609e+003;3.114920e-002
2.765538e+003;3.134229e-002
2.767466e+003;3.151163e-002
2.769395e+003;3.161735e-002
2.771323e+003;3.202505e-002
2.773252e+003;3.284601e-002
2.775181e+003;3.376665e-002
2.777109e+003;3.450369e-002
2.779038e+003;3.523183e-002
2.780966e+003;3.619813e-002
2.782895e+003;3.737302e-002
2.784823e+003;3.862990e-002
2.786752e+003;3.997470e-002
2.788680e+003;4.152758e-002
2.790609e+003;4.331100e-002
2.792538e+003;4.511447e-002
2.794466e+003;4.625445e-002
2.796395e+003;4.689777e-002
2.798323e+003;4.788034e-002
2.800252e+003;4.916589e-002
2.802180e+003;5.096490e-002
2.804109e+003;5.318760e-002
2.806037e+003;5.563836e-002
2.807966e+003;5.769172e-002
2.809895e+003;5.935348e-002
2.811823e+003;6.122645e-002
2.813751e+003;6.315603e-002
2.815680e+003;6.488631e-002
2.817609e+003;6.676715e-002
2.819537e+003;6.907737e-002
2.821466e+003;7.177491e-002
2.823394e+003;7.518885e-002
2.825323e+003;7.960123e-002
2.827251e+003;8.536197e-002
2.829180e+003;9.243803e-002
2.831108e+003;1.005948e-001
2.833037e+003;1.088218e-001
2.834966e+003;1.153614e-001
2.836894e+003;1.188890e-001
2.838823e+003;1.191810e-001
2.840751e+003;1.170356e-001
2.842680e+003;1.137840e-001
2.844608e+003;1.103373e-001
2.846537e+003;1.071358e-001
2.848465e+003;1.050599e-001
2.850394e+003;1.041042e-001
2.852323e+003;1.036036e-001
2.854251e+003;1.031373e-001
2.856180e+003;1.036249e-001
2.858108e+003;1.059208e-001
2.860037e+003;1.099624e-001
2.861965e+003;1.154765e-001
2.863894e+003;1.214981e-001
2.865822e+003;1.268538e-001
2.867751e+003;1.297520e-001
2.869679e+003;1.301840e-001
2.871608e+003;1.298693e-001
2.873536e+003;1.295728e-001
2.875465e+003;1.291934e-001
2.877394e+003;1.282537e-001
2.879322e+003;1.269740e-001
2.881251e+003;1.259861e-001
2.883179e+003;1.255323e-001
2.885108e+003;1.255342e-001
2.887036e+003;1.260186e-001
2.888965e+003;1.274882e-001
2.890893e+003;1.298754e-001
2.892822e+003;1.326243e-001
2.894750e+003;1.360657e-001
2.896679e+003;1.404826e-001
2.898608e+003;1.451478e-001
2.900536e+003;1.501633e-001
2.902465e+003;1.553916e-001
2.904393e+003;1.606926e-001
2.906322e+003;1.660472e-001
2.908250e+003;1.708787e-001
2.910179e+003;1.752200e-001
2.912107e+003;1.795315e-001
2.914036e+003;1.831037e-001
2.915965e+003;1.850246e-001
2.917893e+003;1.848994e-001
2.919822e+003;1.830840e-001
2.921750e+003;1.798457e-001
2.923679e+003;1.748605e-001
2.925607e+003;1.688118e-001
2.927536e+003;1.620412e-001
2.929464e+003;1.544023e-001
2.931393e+003;1.466292e-001
2.933322e+003;1.389394e-001
2.935250e+003;1.319759e-001
2.937178e+003;1.266150e-001
2.939107e+003;1.235298e-001
2.941036e+003;1.234999e-001
2.942964e+003;1.264892e-001
2.944893e+003;1.325427e-001
2.946821e+003;1.396491e-001
2.948750e+003;1.450701e-001
2.950678e+003;1.482692e-001
2.952607e+003;1.486019e-001
2.954535e+003;1.461311e-001
2.956464e+003;1.424799e-001
2.958393e+003;1.379318e-001
2.960321e+003;1.322878e-001
2.962250e+003;1.255757e-001
2.964178e+003;1.189806e-001
2.966107e+003;1.125518e-001
2.968035e+003;1.057494e-001
2.969964e+003;9.898971e-002
2.971892e+003;9.283207e-002
2.973821e+003;8.745408e-002
2.975750e+003;8.267248e-002
2.977678e+003;7.842378e-002
2.979607e+003;7.476372e-002
2.981535e+003;7.139698e-002
2.983464e+003;6.849732e-002
2.985392e+003;6.590454e-002
2.987321e+003;6.314258e-002
2.989249e+003;6.023113e-002
2.991178e+003;5.800743e-002
2.993106e+003;5.621133e-002
2.995035e+003;5.423896e-002
2.996964e+003;5.242255e-002
2.998892e+003;5.062824e-002
3.000821e+003;4.874836e-002
3.002749e+003;4.649325e-002
3.004678e+003;4.486482e-002
3.006606e+003;4.337295e-002
3.008535e+003;4.165396e-002
3.010463e+003;4.038410e-002
3.012392e+003;3.917892e-002
3.014321e+003;3.784981e-002
3.016249e+003;3.635071e-002
3.018177e+003;3.503621e-002
3.020106e+003;3.404418e-002
3.022035e+003;3.348439e-002
3.023963e+003;3.285202e-002
3.025892e+003;3.179432e-002
3.027820e+003;3.113468e-002
3.029749e+003;3.032696e-002
3.031677e+003;2.981559e-002
3.033606e+003;2.939912e-002
3.035534e+003;2.889638e-002
3.037463e+003;2.837607e-002
3.039392e+003;2.794504e-002
3.041320e+003;2.763599e-002
3.043249e+003;2.738035e-002
3.045177e+003;2.698700e-002
3.047106e+003;2.667585e-002
3.049034e+003;2.642341e-002
3.050963e+003;2.637436e-002
3.052891e+003;2.628713e-002
3.054820e+003;2.611636e-002
3.056749e+003;2.558606e-002
3.058677e+003;2.530414e-002
3.060606e+003;2.550853e-002
3.062534e+003;2.556219e-002
3.064463e+003;2.542428e-002
3.066391e+003;2.530042e-002
3.068320e+003;2.515273e-002
3.070248e+003;2.496749e-002
3.072177e+003;2.478181e-002
3.074105e+003;2.478062e-002
3.076034e+003;2.457159e-002
3.077963e+003;2.440651e-002
3.079891e+003;2.447837e-002
3.081820e+003;2.448345e-002
3.083748e+003;2.464881e-002
3.085677e+003;2.450904e-002
3.087605e+003;2.419000e-002
3.089534e+003;2.389898e-002
3.091462e+003;2.364675e-002
3.093391e+003;2.337046e-002
3.095320e+003;2.318190e-002
3.097248e+003;2.322346e-002
3.099177e+003;2.364947e-002
3.101105e+003;2.405893e-002
3.103034e+003;2.411917e-002
3.104962e+003;2.451557e-002
3.106891e+003;2.457815e-002
3.108819e+003;2.417805e-002
3.110748e+003;2.373647e-002
3.112677e+003;2.358902e-002
3.114605e+003;2.382410e-002
3.116533e+003;2.413160e-002
3.118462e+003;2.442292e-002
3.120391e+003;2.413612e-002
3.122319e+003;2.381304e-002
3.124248e+003;2.377699e-002
3.126176e+003;2.429013e-002
3.128105e+003;2.477286e-002
3.130033e+003;2.471993e-002
3.131962e+003;2.474645e-002
3.133890e+003;2.491692e-002
3.135819e+003;2.490211e-002
3.137748e+003;2.485313e-002
3.139676e+003;2.519170e-002
3.141605e+003;2.548035e-002
3.143533e+003;2.566714e-002
3.145462e+003;2.609789e-002
3.147390e+003;2.606499e-002
3.149319e+003;2.577627e-002
3.151247e+003;2.579951e-002
3.153176e+003;2.572012e-002
3.155104e+003;2.546236e-002
3.157033e+003;2.542161e-002
3.158962e+003;2.580074e-002
3.160890e+003;2.636348e-002
3.162819e+003;2.638500e-002
3.164747e+003;2.623989e-002
3.166676e+003;2.655900e-002
3.168604e+003;2.682213e-002
3.170533e+003;2.678491e-002
3.172461e+003;2.688353e-002
3.174390e+003;2.715017e-002
3.176319e+003;2.721303e-002
3.178247e+003;2.726447e-002
3.180176e+003;2.751207e-002
3.182104e+003;2.739714e-002
3.184033e+003;2.714598e-002
3.185961e+003;2.739220e-002
3.187890e+003;2.746703e-002
3.189818e+003;2.775130e-002
3.191747e+003;2.771082e-002
3.193676e+003;2.742697e-002
3.195604e+003;2.732085e-002
3.197532e+003;2.761573e-002
3.199461e+003;2.803781e-002
3.201390e+003;2.834760e-002
3.203318e+003;2.847565e-002
3.205247e+003;2.836875e-002
3.207175e+003;2.797564e-002
3.209104e+003;2.764641e-002
3.211032e+003;2.804329e-002
3.212961e+003;2.827195e-002
3.214889e+003;2.786688e-002
3.216818e+003;2.754419e-002
3.218747e+003;2.737466e-002
3.220675e+003;2.741412e-002
3.222604e+003;2.754384e-002
3.224532e+003;2.742185e-002
3.226461e+003;2.756238e-002
3.228389e+003;2.739358e-002
3.230318e+003;2.700290e-002
3.232246e+003;2.686605e-002
3.234175e+003;2.663851e-002
3.236104e+003;2.632191e-002
3.238032e+003;2.661409e-002
3.239961e+003;2.669062e-002
3.241889e+003;2.650258e-002
3.243818e+003;2.633901e-002
3.245746e+003;2.628153e-002
3.247675e+003;2.646134e-002
3.249603e+003;2.636310e-002
3.251532e+003;2.628963e-002
3.253460e+003;2.676729e-002
3.255389e+003;2.712157e-002
3.257318e+003;2.721942e-002
3.259246e+003;2.696758e-002
3.261175e+003;2.664390e-002
3.263103e+003;2.661801e-002
3.265032e+003;2.677378e-002
3.266960e+003;2.646250e-002
3.268889e+003;2.609972e-002
3.270817e+003;2.661043e-002
3.272746e+003;2.682580e-002
3.274675e+003;2.682030e-002
3.276603e+003;2.713822e-002
3.278531e+003;2.745072e-002
3.280460e+003;2.688607e-002
3.282389e+003;2.691110e-002
3.284317e+003;2.766626e-002
3.286246e+003;2.790893e-002
3.288174e+003;2.787480e-002
3.290103e+003;2.767360e-002
3.292031e+003;2.733257e-002
3.293960e+003;2.719938e-002
3.295888e+003;2.727449e-002
3.297817e+003;2.728909e-002
3.299746e+003;2.730268e-002
3.301674e+003;2.728334e-002
3.303603e+003;2.745432e-002
3.305531e+003;2.768190e-002
3.307460e+003;2.748055e-002
3.309388e+003;2.730924e-002
3.311317e+003;2.721226e-002
3.313245e+003;2.710009e-002
3.315174e+003;2.664619e-002
3.317103e+003;2.657732e-002
3.319031e+003;2.672554e-002
3.320960e+003;2.673685e-002
3.322888e+003;2.649948e-002
3.324817e+003;2.650332e-002
3.326745e+003;2.699963e-002
3.328674e+003;2.741193e-002
3.330602e+003;2.731919e-002
3.332531e+003;2.712950e-002
3.334459e+003;2.674992e-002
3.336388e+003;2.670214e-002
3.338317e+003;2.694854e-002
3.340245e+003;2.671637e-002
3.342174e+003;2.651283e-002
3.344102e+003;2.637070e-002
3.346031e+003;2.643591e-002
3.347959e+003;2.620202e-002
3.349888e+003;2.588781e-002
3.351816e+003;2.623788e-002
3.353745e+003;2.652290e-002
3.355674e+003;2.656742e-002
3.357602e+003;2.666356e-002
3.359531e+003;2.660754e-002
3.361459e+003;2.625805e-002
3.363388e+003;2.604195e-002
3.365316e+003;2.598612e-002
3.367245e+003;2.566735e-002
3.369173e+003;2.533231e-002
3.371102e+003;2.546907e-002
3.373031e+003;2.552631e-002
3.374959e+003;2.525589e-002
3.376887e+003;2.512148e-002
3.378816e+003;2.511340e-002
3.380745e+003;2.507781e-002
3.382673e+003;2.462780e-002
3.384602e+003;2.467932e-002
3.386530e+003;2.488836e-002
3.388459e+003;2.469415e-002
3.390387e+003;2.463923e-002
3.392316e+003;2.447185e-002
3.394244e+003;2.419760e-002
3.396173e+003;2.403848e-002
3.398102e+003;2.422251e-002
3.400030e+003;2.408691e-002
3.401959e+003;2.379278e-002
3.403887e+003;2.387111e-002
3.405816e+003;2.389023e-002
3.407744e+003;2.383464e-002
3.409673e+003;2.380884e-002
3.411601e+003;2.375732e-002
3.413530e+003;2.361120e-002
3.415458e+003;2.370270e-002
3.417387e+003;2.352224e-002
3.419316e+003;2.322982e-002
3.421244e+003;2.339428e-002
3.423173e+003;2.306493e-002
3.425101e+003;2.242388e-002
3.427030e+003;2.257369e-002
3.428958e+003;2.276416e-002
3.430887e+003;2.224567e-002
3.432815e+003;2.120731e-002
3.434744e+003;2.090385e-002
3.436673e+003;2.121479e-002
3.438601e+003;2.147247e-002
3.440530e+003;2.140055e-002
3.442458e+003;2.055301e-002
3.444387e+003;2.034955e-002
3.446315e+003;2.016080e-002
3.448244e+003;1.980973e-002
3.450172e+003;1.985537e-002
3.452101e+003;1.966614e-002
3.454030e+003;1.917720e-002
3.455958e+003;1.939997e-002
3.457886e+003;1.965751e-002
3.459815e+003;1.972186e-002
3.461744e+003;1.942595e-002
3.463672e+003;1.908628e-002
3.465601e+003;1.887381e-002
3.467529e+003;1.858343e-002
3.469458e+003;1.825533e-002
3.471386e+003;1.822779e-002
3.473315e+003;1.826953e-002
3.475243e+003;1.801913e-002
3.477172e+003;1.770005e-002
3.479101e+003;1.766537e-002
3.481029e+003;1.772832e-002
3.482958e+003;1.730420e-002
3.484886e+003;1.653551e-002
3.486815e+003;1.633169e-002
3.488743e+003;1.638560e-002
3.490672e+003;1.655585e-002
3.492600e+003;1.719436e-002
3.494529e+003;1.700505e-002
3.496458e+003;1.666708e-002
3.498386e+003;1.642115e-002
3.500315e+003;1.552529e-002
3.502243e+003;1.514288e-002
3.504172e+003;1.556039e-002
3.506100e+003;1.565464e-002
3.508029e+003;1.552735e-002
3.509957e+003;1.553161e-002
3.511886e+003;1.549782e-002
3.513814e+003;1.522581e-002
3.515743e+003;1.494496e-002
3.517672e+003;1.456288e-002
3.519600e+003;1.442140e-002
3.521529e+003;1.450892e-002
3.523457e+003;1.420227e-002
3.525386e+003;1.397247e-002
3.527314e+003;1.417464e-002
3.529243e+003;1.453304e-002
3.531171e+003;1.435362e-002
3.533100e+003;1.406538e-002
3.535029e+003;1.398633e-002
3.536957e+003;1.424671e-002
3.538885e+003;1.401353e-002
3.540814e+003;1.355717e-002
3.542743e+003;1.309346e-002
3.544671e+003;1.245577e-002
3.546600e+003;1.263485e-002
3.548528e+003;1.265044e-002
3.550457e+003;1.238158e-002
3.552385e+003;1.211700e-002
3.554314e+003;1.174343e-002
3.556242e+003;1.139062e-002
3.558171e+003;1.140889e-002
3.560100e+003;1.137447e-002
3.562028e+003;1.083569e-002
3.563957e+003;1.053104e-002
3.565885e+003;9.762443e-003
3.567814e+003;9.303106e-003
3.569742e+003;9.586264e-003
3.571671e+003;9.720730e-003
3.573599e+003;9.658117e-003
3.575528e+003;9.949100e-003
3.577457e+003;9.714901e-003
3.579385e+003;9.208569e-003
3.581314e+003;9.206166e-003
3.583242e+003;8.756039e-003
3.585171e+003;7.982641e-003
3.587099e+003;7.773483e-003
3.589028e+003;8.502344e-003
3.590956e+003;8.564656e-003
3.592885e+003;7.859948e-003
3.594813e+003;8.114955e-003
3.596742e+003;8.831405e-003
3.598671e+003;8.688933e-003
3.600599e+003;8.212902e-003
3.602528e+003;7.908906e-003
3.604456e+003;7.521473e-003
3.606385e+003;6.728125e-003
3.608313e+003;6.064792e-003
3.610242e+003;6.062272e-003
3.612170e+003;6.292962e-003
3.614099e+003;6.851307e-003
3.616028e+003;6.796039e-003
3.617956e+003;5.732581e-003
3.619885e+003;5.752592e-003
3.621813e+003;6.491251e-003
3.623742e+003;6.452272e-003
3.625670e+003;5.226576e-003
3.627599e+003;2.954016e-003
3.629527e+003;2.642244e-003
3.631456e+003;4.467499e-003
3.633385e+003;5.516517e-003
3.635313e+003;6.025179e-003
3.637241e+003;6.204389e-003
3.639170e+003;6.694912e-003
3.641099e+003;6.844743e-003
3.643027e+003;6.354722e-003
3.644956e+003;5.125378e-003
3.646884e+003;3.281136e-003
3.648813e+003;2.479460e-003
3.650741e+003;3.671786e-003
3.652670e+003;5.013076e-003
3.654598e+003;4.431279e-003
3.656527e+003;4.063591e-003
3.658456e+003;4.413003e-003
3.660384e+003;4.436769e-003
3.662313e+003;5.162428e-003
3.664241e+003;4.972688e-003
3.666170e+003;4.009981e-003
3.668098e+003;2.835537e-003
3.670027e+003;1.858217e-003
3.671955e+003;2.842808e-003
3.673884e+003;2.451203e-003
3.675813e+003;2.218714e-003
3.677741e+003;4.737104e-003
3.679669e+003;5.791542e-003
3.681598e+003;5.941094e-003
3.683527e+003;6.052696e-003
3.685455e+003;5.461587e-003
3.687384e+003;3.561830e-003
3.689312e+003;3.252025e-003
3.691241e+003;4.403464e-003
3.693169e+003;5.683364e-003
3.695098e+003;6.105584e-003
3.697026e+003;6.026658e-003
3.698955e+003;5.812361e-003
3.700884e+003;4.948189e-003
3.702812e+003;5.239219e-003
3.704741e+003;5.971125e-003
3.706669e+003;5.704414e-003
3.708598e+003;4.660000e-003
3.710526e+003;3.625976e-003
3.712455e+003;3.984198e-003
3.714383e+003;4.961628e-003
3.716312e+003;5.046395e-003
3.718240e+003;5.356041e-003
3.720169e+003;5.325415e-003
3.722098e+003;5.069794e-003
3.724026e+003;4.906265e-003
3.725955e+003;4.672391e-003
3.727883e+003;4.766549e-003
3.729812e+003;4.289173e-003
3.731740e+003;3.188001e-003
3.733669e+003;2.668780e-003
3.735597e+003;2.154775e-003
3.737526e+003;3.036190e-003
3.739455e+003;4.260094e-003
3.741383e+003;3.809747e-003
3.743312e+003;9.817106e-004
3.745240e+003;1.285879e-003
3.747169e+003;2.761271e-003
3.749097e+003;1.281957e-003
3.751026e+003;8.897646e-004
3.752954e+003;2.740964e-003
3.754883e+003;4.867428e-003
3.756812e+003;5.177215e-003
3.758740e+003;5.139896e-003
3.760668e+003;5.465311e-003
3.762597e+003;6.041743e-003
3.764526e+003;6.003006e-003
3.766454e+003;6.133073e-003
3.768383e+003;5.403946e-003
3.770311e+003;4.778576e-003
3.772240e+003;5.245054e-003
3.774168e+003;5.558198e-003
3.776097e+003;5.362214e-003
3.778025e+003;5.439140e-003
3.779954e+003;5.658926e-003
3.781883e+003;5.819615e-003
3.783811e+003;5.471687e-003
3.785740e+003;5.435248e-003
3.787668e+003;5.684203e-003
3.789597e+003;6.237799e-003
3.791525e+003;6.106189e-003
3.793454e+003;5.682894e-003
3.795382e+003;5.302070e-003
3.797311e+003;5.094233e-003
3.799240e+003;3.704969e-003
3.801168e+003;2.416783e-003
3.803097e+003;3.895660e-003
3.805025e+003;4.105968e-003
3.806954e+003;3.757572e-003
3.808882e+003;4.972018e-003
3.810811e+003;5.475915e-003
3.812739e+003;5.164876e-003
3.814668e+003;3.560427e-003
3.816596e+003;3.624740e-003
3.818525e+003;3.997575e-003
3.820454e+003;2.720591e-003
3.822382e+003;3.819641e-003
3.824311e+003;5.388414e-003
3.826239e+003;5.490679e-003
3.828168e+003;5.517961e-003
3.830096e+003;5.300729e-003
3.832025e+003;5.402068e-003
3.833953e+003;5.450850e-003
3.835882e+003;3.929127e-003
3.837811e+003;2.557778e-003
3.839739e+003;3.389785e-003
3.841667e+003;4.201107e-003
3.843596e+003;4.611808e-003
3.845525e+003;5.204443e-003
3.847453e+003;5.635093e-003
3.849382e+003;5.302506e-003
3.851310e+003;2.516984e-003
3.853239e+003;1.051139e-004
3.855167e+003;2.792416e-003
3.857096e+003;5.633851e-003
3.859024e+003;5.713210e-003
3.860953e+003;5.321659e-003
3.862882e+003;5.345508e-003
3.864810e+003;5.162025e-003
3.866739e+003;5.634824e-003
3.868667e+003;4.736568e-003
3.870596e+003;4.262504e-003
3.872524e+003;5.447394e-003
3.874453e+003;6.206036e-003
3.876381e+003;6.457081e-003
3.878310e+003;5.716567e-003
3.880239e+003;5.015791e-003
3.882167e+003;5.402068e-003
3.884096e+003;5.308778e-003
3.886024e+003;5.724423e-003
3.887953e+003;6.757739e-003
3.889881e+003;5.648822e-003
3.891810e+003;5.377846e-003
3.893738e+003;6.542813e-003
3.895667e+003;6.881299e-003
3.897595e+003;6.618234e-003
3.899524e+003;6.115397e-003
3.901453e+003;5.021255e-003
3.903381e+003;4.996485e-003
3.905310e+003;6.277061e-003
3.907238e+003;6.646629e-003
3.909167e+003;6.514862e-003
3.911095e+003;6.477125e-003
3.913024e+003;6.417164e-003
3.914952e+003;6.117883e-003
3.916881e+003;5.779823e-003
3.918810e+003;6.232018e-003
3.920738e+003;6.909106e-003
3.922667e+003;7.230123e-003
3.924595e+003;6.918331e-003
3.926524e+003;7.074670e-003
3.928452e+003;7.260210e-003
3.930381e+003;7.166386e-003
3.932309e+003;7.352503e-003
3.934238e+003;7.384553e-003
3.936167e+003;7.696209e-003
3.938095e+003;8.029385e-003
3.940023e+003;7.886569e-003
3.941952e+003;7.553299e-003
3.943881e+003;7.329588e-003
3.945809e+003;7.223992e-003
3.947738e+003;7.097168e-003
3.949666e+003;7.297745e-003
3.951595e+003;7.472255e-003
3.953523e+003;7.301687e-003
3.955452e+003;7.114850e-003
3.957380e+003;7.380374e-003
3.959309e+003;7.467940e-003
3.961238e+003;7.476132e-003
3.963166e+003;7.501988e-003
3.965095e+003;7.518877e-003
3.967023e+003;7.093059e-003
3.968952e+003;6.831885e-003
3.970880e+003;6.956678e-003
3.972809e+003;7.568607e-003
3.974737e+003;7.808026e-003
3.976666e+003;7.482773e-003
3.978594e+003;7.187642e-003
3.980523e+003;7.525957e-003
3.982452e+003;8.083730e-003
3.984380e+003;8.676765e-003
3.986309e+003;8.934451e-003
3.988237e+003;8.539176e-003
3.990166e+003;8.728418e-003
3.992094e+003;9.461323e-003
3.994023e+003;9.208874e-003
3.995951e+003;8.891938e-003
3.997880e+003;9.183255e-003
3.999809e+003;9.169820e-003
4.001737e+003;0.000000e+000
