3.992094e+002;0.000000e+000
4.011380e+002;0.000000e+000
4.030665e+002;0.000000e+000
4.049951e+002;0.000000e+000
4.069236e+002;0.000000e+000
4.088522e+002;0.000000e+000
4.107807e+002;0.000000e+000
4.127093e+002;0.000000e+000
4.146378e+002;0.000000e+000
4.165664e+002;0.000000e+000
4.184949e+002;0.000000e+000
4.204235e+002;0.000000e+000
4.223520e+002;0.000000e+000
4.242806e+002;0.000000e+000
4.262091e+002;0.000000e+000
4.281377e+002;0.000000e+000
4.300662e+002;0.000000e+000
4.319948e+002;0.000000e+000
4.339233e+002;0.000000e+000
4.358519e+002;0.000000e+000
4.377804e+002;0.000000e+000
4.397090e+002;0.000000e+000
4.416375e+002;0.000000e+000
4.435660e+002;0.000000e+000
4.454946e+002;0.000000e+000
4.474232e+002;0.000000e+000
4.493517e+002;0.000000e+000
4.512802e+002;0.000000e+000
4.532088e+002;0.000000e+000
4.551373e+002;0.000000e+000
4.570659e+002;0.000000e+000
4.589944e+002;0.000000e+000
4.609230e+002;0.000000e+000
4.628515e+002;0.000000e+000
4.647801e+002;0.000000e+000
4.667086e+002;0.000000e+000
4.686372e+002;0.000000e+000
4.705657e+002;0.000000e+000
4.724943e+002;0.000000e+000
4.744228e+002;0.000000e+000
4.763513e+002;0.000000e+000
4.782799e+002;0.000000e+000
4.802085e+002;0.000000e+000
4.821370e+002;0.000000e+000
4.840656e+002;0.000000e+000
4.859941e+002;0.000000e+000
4.879226e+002;0.000000e+000
4.898512e+002;0.000000e+000
4.917798e+002;0.000000e+000
4.937083e+002;0.000000e+000
4.956368e+002;0.000000e+000
4.975654e+002;0.000000e+000
4.994939e+002;0.000000e+000
5.014225e+002;0.000000e+000
5.033510e+002;0.000000e+000
5.052796e+002;0.000000e+000
5.072081e+002;0.000000e+000
5.091367e+002;0.000000e+000
5.110652e+002;0.000000e+000
5.129938e+002;0.000000e+000
5.149223e+002;0.000000e+000
5.168509e+002;0.000000e+000
5.187794e+002;0.000000e+000
5.207079e+002;0.000000e+000
5.226365e+002;0.000000e+000
5.245651e+002;0.000000e+000
5.264936e+002;0.000000e+000
5.284222e+002;0.000000e+000
5.303507e+002;0.000000e+000
5.322792e+002;0.000000e+000
5.342078e+002;0.000000e+000
5.361364e+002;0.000000e+000
5.380649e+002;0.000000e+000
5.399935e+002;0.000000e+000
5.419220e+002;0.000000e+000
5.438505e+002;0.000000e+000
5.457791e+002;0.000000e+000
5.477076e+002;0.000000e+000
5.496362e+002;0.000000e+000
5.515648e+002;0.000000e+000
5.534933e+002;0.000000e+000
5.554218e+002;0.000000e+000
5.573504e+002;0.000000e+000
5.592789e+002;0.000000e+000
5.612075e+002;0.000000e+000
5.631360e+002;0.000000e+000
5.650646e+002;0.000000e+000
5.669931e+002;0.000000e+000
5.689217e+002;0.000000e+000
5.708502e+002;0.000000e+000
5.727787e+002;0.000000e+000
5.747073e+002;0.000000e+000
5.766359e+002;0.000000e+000
5.785644e+002;0.000000e+000
5.804930e+002;0.000000e+000
5.824215e+002;0.000000e+000
5.843500e+002;0.000000e+000
5.862786e+002;0.000000e+000
5.882072e+002;0.000000e+000
5.901357e+002;0.000000e+000
5.920643e+002;0.000000e+000
5.939928e+002;0.000000e+000
5.959213e+002;0.000000e+000
5.978499e+002;0.000000e+000
5.997784e+002;4.843993e-002
6.017070e+002;4.816478e-002
6.036355e+002;5.185736e-002
6.055641e+002;5.098043e-002
6.074926e+002;4.663887e-002
6.094211e+002;4.552116e-002
6.113497e+002;4.210017e-002
6.132783e+002;4.189064e-002
6.152068e+002;4.433800e-002
6.171354e+002;4.726450e-002
6.190639e+002;4.811573e-002
6.209924e+002;4.442284e-002
6.229210e+002;4.546579e-002
6.248495e+002;4.784435e-002
6.267781e+002;4.993388e-002
6.287067e+002;4.852003e-002
6.306352e+002;4.778057e-002
6.325637e+002;4.911102e-002
6.344923e+002;4.724484e-002
6.364208e+002;4.578182e-002
6.383494e+002;4.448675e-002
6.402780e+002;4.322355e-002
6.422065e+002;4.478279e-002
6.441350e+002;4.725674e-002
6.460636e+002;4.678863e-002
6.479921e+002;4.635829e-002
6.499207e+002;5.051101e-002
6.518492e+002;5.174477e-002
6.537778e+002;5.019524e-002
6.557063e+002;5.079290e-002
6.576349e+002;4.994432e-002
6.595634e+002;4.965362e-002
6.614919e+002;5.085909e-002
6.634205e+002;5.034273e-002
6.653491e+002;5.046352e-002
6.672776e+002;5.193454e-002
6.692062e+002;5.023812e-002
6.711347e+002;4.973621e-002
6.730632e+002;5.162684e-002
6.749918e+002;5.286987e-002
6.769203e+002;5.367995e-002
6.788489e+002;5.386880e-002
6.807775e+002;5.391329e-002
6.827060e+002;5.367297e-002
6.846345e+002;5.136667e-002
6.865631e+002;4.956552e-002
6.884916e+002;4.908345e-002
6.904202e+002;4.969854e-002
6.923488e+002;4.961132e-002
6.942773e+002;5.019628e-002
6.962058e+002;5.218029e-002
6.981344e+002;5.348383e-002
7.000629e+002;5.356673e-002
7.019915e+002;5.297070e-002
7.039200e+002;5.255028e-002
7.058486e+002;5.193294e-002
7.077771e+002;5.240558e-002
7.097057e+002;5.321018e-002
7.116342e+002;5.421425e-002
7.135627e+002;5.496931e-002
7.154913e+002;5.501940e-002
7.174199e+002;5.462633e-002
7.193484e+002;5.440860e-002
7.212770e+002;5.436572e-002
7.232055e+002;5.478283e-002
7.251340e+002;5.463622e-002
7.270626e+002;5.445022e-002
7.289911e+002;5.477057e-002
7.309197e+002;5.545302e-002
7.328483e+002;5.521858e-002
7.347768e+002;5.433117e-002
7.367053e+002;5.363874e-002
7.386339e+002;5.383809e-002
7.405624e+002;5.414189e-002
7.424910e+002;5.443666e-002
7.444196e+002;5.372280e-002
7.463481e+002;5.385016e-002
7.482766e+002;5.443309e-002
7.502052e+002;5.482564e-002
7.521337e+002;5.530927e-002
7.540623e+002;5.475618e-002
7.559908e+002;5.419586e-002
7.579194e+002;5.423742e-002
7.598479e+002;5.398623e-002
7.617765e+002;5.389645e-002
7.637050e+002;5.401230e-002
7.656335e+002;5.484109e-002
7.675621e+002;5.485951e-002
7.694907e+002;5.464858e-002
7.714192e+002;5.493983e-002
7.733478e+002;5.546228e-002
7.752763e+002;5.610454e-002
7.772048e+002;5.575287e-002
7.791334e+002;5.517012e-002
7.810620e+002;5.558074e-002
7.829905e+002;5.692309e-002
7.849191e+002;5.768177e-002
7.868476e+002;5.729778e-002
7.887761e+002;5.790380e-002
7.907047e+002;5.876115e-002
7.926332e+002;5.968455e-002
7.945618e+002;6.161751e-002
7.964903e+002;6.397994e-002
7.984189e+002;6.543498e-002
8.003474e+002;6.614429e-002
8.022759e+002;6.769024e-002
8.042045e+002;7.054657e-002
8.061331e+002;7.344548e-002
8.080616e+002;7.598800e-002
8.099902e+002;7.655788e-002
8.119187e+002;7.472480e-002
8.138472e+002;7.142291e-002
8.157758e+002;6.818567e-002
8.177043e+002;6.543567e-002
8.196329e+002;6.365755e-002
8.215615e+002;6.283346e-002
8.234900e+002;6.233682e-002
8.254185e+002;6.199873e-002
8.273471e+002;6.144079e-002
8.292756e+002;6.110766e-002
8.312042e+002;6.129051e-002
8.331328e+002;6.219380e-002
8.350613e+002;6.389298e-002
8.369898e+002;6.760413e-002
8.389184e+002;7.406756e-002
8.408469e+002;8.007554e-002
8.427755e+002;7.951539e-002
8.447040e+002;7.308118e-002
8.466326e+002;6.662513e-002
8.485611e+002;6.279857e-002
8.504897e+002;6.105217e-002
8.524182e+002;6.051156e-002
8.543467e+002;5.984622e-002
8.562753e+002;5.835896e-002
8.582039e+002;5.721870e-002
8.601324e+002;5.677659e-002
8.620610e+002;5.678746e-002
8.639895e+002;5.734694e-002
8.659180e+002;5.720551e-002
8.678466e+002;5.649177e-002
8.697751e+002;5.626288e-002
8.717037e+002;5.639336e-002
8.736323e+002;5.687916e-002
8.755608e+002;5.683671e-002
8.774893e+002;5.624395e-002
8.794179e+002;5.573132e-002
8.813464e+002;5.536396e-002
8.832750e+002;5.589217e-002
8.852036e+002;5.632659e-002
8.871321e+002;5.592804e-002
8.890606e+002;5.639178e-002
8.909892e+002;5.830269e-002
8.929177e+002;6.090835e-002
8.948463e+002;6.466287e-002
8.967748e+002;6.942996e-002
8.987034e+002;7.237017e-002
9.006319e+002;7.210416e-002
9.025605e+002;6.840704e-002
9.044890e+002;6.299833e-002
9.064175e+002;5.810484e-002
9.083461e+002;5.557215e-002
9.102747e+002;5.451896e-002
9.122032e+002;5.339348e-002
9.141318e+002;5.281445e-002
9.160603e+002;5.242921e-002
9.179888e+002;5.192431e-002
9.199174e+002;5.151583e-002
9.218459e+002;5.138968e-002
9.237745e+002;5.145633e-002
9.257031e+002;5.164318e-002
9.276316e+002;5.233878e-002
9.295601e+002;5.272974e-002
9.314887e+002;5.277004e-002
9.334172e+002;5.299971e-002
9.353458e+002;5.398626e-002
9.372744e+002;5.542441e-002
9.392029e+002;5.680087e-002
9.411314e+002;5.756267e-002
9.430600e+002;5.776851e-002
9.449885e+002;5.773494e-002
9.469171e+002;5.758309e-002
9.488456e+002;5.743471e-002
9.507742e+002;5.732289e-002
9.527027e+002;5.797036e-002
9.546313e+002;5.885228e-002
9.565598e+002;5.958233e-002
9.584883e+002;6.041444e-002
9.604169e+002;6.161385e-002
9.623455e+002;6.362276e-002
9.642740e+002;6.682503e-002
9.662026e+002;7.155517e-002
9.681311e+002;7.818442e-002
9.700596e+002;8.637457e-002
9.719882e+002;9.354798e-002
9.739167e+002;9.546059e-002
9.758453e+002;9.127849e-002
9.777739e+002;8.316793e-002
9.797024e+002;7.423365e-002
9.816309e+002;6.651223e-002
9.835595e+002;6.142426e-002
9.854880e+002;5.931561e-002
9.874166e+002;5.973975e-002
9.893452e+002;6.172731e-002
9.912737e+002;6.510712e-002
9.932022e+002;7.062306e-002
9.951307e+002;7.787554e-002
9.970593e+002;8.375788e-002
9.989879e+002;8.410793e-002
1.000916e+003;7.918283e-002
1.002845e+003;7.250860e-002
1.004773e+003;6.723742e-002
1.006702e+003;6.409356e-002
1.008631e+003;6.223598e-002
1.010559e+003;6.147656e-002
1.012488e+003;6.079300e-002
1.014416e+003;5.995857e-002
1.016345e+003;5.943672e-002
1.018273e+003;5.924486e-002
1.020202e+003;5.981538e-002
1.022130e+003;5.992441e-002
1.024059e+003;5.909537e-002
1.025988e+003;5.910812e-002
1.027916e+003;5.983538e-002
1.029845e+003;6.066135e-002
1.031773e+003;6.136133e-002
1.033702e+003;6.191855e-002
1.035630e+003;6.315941e-002
1.037559e+003;6.459178e-002
1.039487e+003;6.549265e-002
1.041416e+003;6.604243e-002
1.043344e+003;6.622516e-002
1.045273e+003;6.555045e-002
1.047202e+003;6.430813e-002
1.049130e+003;6.317963e-002
1.051059e+003;6.233606e-002
1.052987e+003;6.169935e-002
1.054916e+003;6.198990e-002
1.056844e+003;6.185841e-002
1.058773e+003;6.097491e-002
1.060701e+003;6.078161e-002
1.062630e+003;6.096500e-002
1.064558e+003;6.123976e-002
1.066487e+003;6.169782e-002
1.068416e+003;6.174266e-002
1.070344e+003;6.154928e-002
1.072273e+003;6.173250e-002
1.074201e+003;6.198630e-002
1.076130e+003;6.187633e-002
1.078058e+003;6.195837e-002
1.079987e+003;6.218630e-002
1.081915e+003;6.255210e-002
1.083844e+003;6.268158e-002
1.085773e+003;6.291495e-002
1.087701e+003;6.395621e-002
1.089630e+003;6.482114e-002
1.091558e+003;6.436965e-002
1.093487e+003;6.415162e-002
1.095415e+003;6.503265e-002
1.097344e+003;6.673542e-002
1.099272e+003;6.883915e-002
1.101201e+003;6.962288e-002
1.103129e+003;6.934110e-002
1.105058e+003;6.878701e-002
1.106987e+003;6.749087e-002
1.108915e+003;6.578463e-002
1.110844e+003;6.412839e-002
1.112772e+003;6.246180e-002
1.114701e+003;6.142762e-002
1.116629e+003;6.072688e-002
1.118558e+003;5.993244e-002
1.120486e+003;5.951602e-002
1.122415e+003;5.945830e-002
1.124344e+003;5.902749e-002
1.126272e+003;5.814977e-002
1.128201e+003;5.793905e-002
1.130129e+003;5.885103e-002
1.132058e+003;5.950584e-002
1.133986e+003;6.021477e-002
1.135915e+003;6.152069e-002
1.137843e+003;6.316324e-002
1.139772e+003;6.541375e-002
1.141700e+003;6.789587e-002
1.143629e+003;7.042358e-002
1.145557e+003;7.402559e-002
1.147486e+003;7.778268e-002
1.149415e+003;8.083776e-002
1.151343e+003;8.350436e-002
1.153272e+003;8.511058e-002
1.155200e+003;8.583555e-002
1.157129e+003;8.594159e-002
1.159057e+003;8.625048e-002
1.160986e+003;8.687815e-002
1.162914e+003;8.820827e-002
1.164843e+003;8.970176e-002
1.166771e+003;9.009055e-002
1.168700e+003;8.913460e-002
1.170629e+003;8.579987e-002
1.172557e+003;8.095066e-002
1.174486e+003;7.599767e-002
1.176414e+003;7.140654e-002
1.178343e+003;6.770255e-002
1.180271e+003;6.536456e-002
1.182200e+003;6.389740e-002
1.184128e+003;6.296191e-002
1.186057e+003;6.224144e-002
1.187986e+003;6.174255e-002
1.189914e+003;6.165543e-002
1.191843e+003;6.158815e-002
1.193771e+003;6.168377e-002
1.195700e+003;6.191427e-002
1.197628e+003;6.179889e-002
1.199557e+003;6.171241e-002
1.201485e+003;6.157681e-002
1.203414e+003;6.163454e-002
1.205343e+003;6.215545e-002
1.207271e+003;6.259726e-002
1.209200e+003;6.311990e-002
1.211128e+003;6.398915e-002
1.213057e+003;6.502834e-002
1.214985e+003;6.599059e-002
1.216914e+003;6.648999e-002
1.218842e+003;6.652413e-002
1.220771e+003;6.625959e-002
1.222699e+003;6.530707e-002
1.224628e+003;6.460958e-002
1.226557e+003;6.454280e-002
1.228485e+003;6.418927e-002
1.230414e+003;6.382758e-002
1.232342e+003;6.404655e-002
1.234271e+003;6.439052e-002
1.236199e+003;6.448133e-002
1.238128e+003;6.463965e-002
1.240056e+003;6.487715e-002
1.241985e+003;6.473194e-002
1.243913e+003;6.471744e-002
1.245842e+003;6.535313e-002
1.247771e+003;6.636767e-002
1.249699e+003;6.783242e-002
1.251628e+003;7.041559e-002
1.253556e+003;7.347323e-002
1.255485e+003;7.513224e-002
1.257413e+003;7.512081e-002
1.259342e+003;7.383538e-002
1.261270e+003;7.158284e-002
1.263199e+003;6.909128e-002
1.265127e+003;6.717538e-002
1.267056e+003;6.604000e-002
1.268985e+003;6.537288e-002
1.270913e+003;6.485064e-002
1.272842e+003;6.458959e-002
1.274770e+003;6.440274e-002
1.276699e+003;6.436046e-002
1.278627e+003;6.430198e-002
1.280556e+003;6.440988e-002
1.282484e+003;6.489862e-002
1.284413e+003;6.524772e-002
1.286342e+003;6.590636e-002
1.288270e+003;6.660813e-002
1.290199e+003;6.735074e-002
1.292127e+003;6.841861e-002
1.294056e+003;6.949797e-002
1.295984e+003;7.009299e-002
1.297913e+003;7.008816e-002
1.299841e+003;6.982001e-002
1.301770e+003;7.022322e-002
1.303698e+003;7.073414e-002
1.305627e+003;6.959464e-002
1.307556e+003;6.665476e-002
1.309484e+003;6.385130e-002
1.311413e+003;6.259006e-002
1.313341e+003;6.235591e-002
1.315270e+003;6.276254e-002
1.317198e+003;6.367651e-002
1.319127e+003;6.461819e-002
1.321055e+003;6.562933e-002
1.322984e+003;6.683984e-002
1.324912e+003;6.829625e-002
1.326841e+003;6.963447e-002
1.328770e+003;7.055585e-002
1.330698e+003;7.076222e-002
1.332627e+003;7.022256e-002
1.334555e+003;6.952449e-002
1.336484e+003;6.891630e-002
1.338412e+003;6.867437e-002
1.340341e+003;6.905480e-002
1.342269e+003;7.000625e-002
1.344198e+003;7.190005e-002
1.346126e+003;7.433403e-002
1.348055e+003;7.718459e-002
1.349984e+003;8.061515e-002
1.351912e+003;8.478659e-002
1.353841e+003;9.074426e-002
1.355769e+003;9.808986e-002
1.357698e+003;1.040722e-001
1.359626e+003;1.061675e-001
1.361555e+003;1.048466e-001
1.363483e+003;1.036692e-001
1.365412e+003;1.056174e-001
1.367341e+003;1.127555e-001
1.369269e+003;1.273153e-001
1.371198e+003;1.497401e-001
1.373126e+003;1.759017e-001
1.375055e+003;1.956505e-001
1.376983e+003;1.948754e-001
1.378912e+003;1.733132e-001
1.380840e+003;1.460055e-001
1.382769e+003;1.219024e-001
1.384698e+003;1.030943e-001
1.386626e+003;8.989864e-002
1.388555e+003;8.139127e-002
1.390483e+003;7.605384e-002
1.392412e+003;7.251529e-002
1.394340e+003;7.034297e-002
1.396269e+003;6.925462e-002
1.398197e+003;6.852016e-002
1.400126e+003;6.816113e-002
1.402054e+003;6.820350e-002
1.403983e+003;6.824654e-002
1.405911e+003;6.838005e-002
1.407840e+003;6.849145e-002
1.409769e+003;6.847714e-002
1.411697e+003;6.911602e-002
1.413626e+003;6.967240e-002
1.415554e+003;6.977320e-002
1.417483e+003;6.985355e-002
1.419411e+003;7.031164e-002
1.421340e+003;7.116369e-002
1.423268e+003;7.251447e-002
1.425197e+003;7.469127e-002
1.427125e+003;7.790285e-002
1.429054e+003;8.318634e-002
1.430983e+003;9.108274e-002
1.432911e+003;1.004741e-001
1.434840e+003;1.073961e-001
1.436768e+003;1.101759e-001
1.438697e+003;1.116143e-001
1.440625e+003;1.143627e-001
1.442554e+003;1.197109e-001
1.444482e+003;1.279405e-001
1.446411e+003;1.378997e-001
1.448340e+003;1.477490e-001
1.450268e+003;1.551893e-001
1.452197e+003;1.598483e-001
1.454125e+003;1.620698e-001
1.456054e+003;1.620129e-001
1.457982e+003;1.604463e-001
1.459911e+003;1.578226e-001
1.461839e+003;1.530364e-001
1.463768e+003;1.457160e-001
1.465697e+003;1.362708e-001
1.467625e+003;1.256689e-001
1.469554e+003;1.150336e-001
1.471482e+003;1.052102e-001
1.473411e+003;9.648875e-002
1.475339e+003;8.880413e-002
1.477268e+003;8.235710e-002
1.479196e+003;7.722358e-002
1.481125e+003;7.287230e-002
1.483053e+003;6.910293e-002
1.484982e+003;6.581852e-002
1.486911e+003;6.306358e-002
1.488839e+003;6.126063e-002
1.490768e+003;5.996085e-002
1.492696e+003;5.892217e-002
1.494625e+003;5.800857e-002
1.496553e+003;5.701266e-002
1.498482e+003;5.620205e-002
1.500410e+003;5.536663e-002
1.502339e+003;5.483173e-002
1.504267e+003;5.455063e-002
1.506196e+003;5.399951e-002
1.508125e+003;5.339460e-002
1.510053e+003;5.321745e-002
1.511982e+003;5.327116e-002
1.513910e+003;5.329648e-002
1.515839e+003;5.329000e-002
1.517767e+003;5.297684e-002
1.519696e+003;5.268429e-002
1.521624e+003;5.282848e-002
1.523553e+003;5.305613e-002
1.525481e+003;5.302832e-002
1.527410e+003;5.307421e-002
1.529339e+003;5.321854e-002
1.531267e+003;5.356748e-002
1.533196e+003;5.392657e-002
1.535124e+003;5.440962e-002
1.537053e+003;5.457535e-002
1.538981e+003;5.437984e-002
1.540910e+003;5.480406e-002
1.542838e+003;5.573305e-002
1.544767e+003;5.634666e-002
1.546695e+003;5.643321e-002
1.548624e+003;5.659696e-002
1.550553e+003;5.654113e-002
1.552481e+003;5.619311e-002
1.554410e+003;5.585558e-002
1.556338e+003;5.533332e-002
1.558267e+003;5.452219e-002
1.560195e+003;5.405148e-002
1.562124e+003;5.360339e-002
1.564052e+003;5.321299e-002
1.565981e+003;5.301308e-002
1.567910e+003;5.256629e-002
1.569838e+003;5.205156e-002
1.571767e+003;5.163698e-002
1.573695e+003;5.147360e-002
1.575624e+003;5.147871e-002
1.577552e+003;5.147121e-002
1.579481e+003;5.142004e-002
1.581409e+003;5.131755e-002
1.583338e+003;5.129511e-002
1.585266e+003;5.119433e-002
1.587195e+003;5.111377e-002
1.589124e+003;5.104293e-002
1.591052e+003;5.102180e-002
1.592981e+003;5.126039e-002
1.594909e+003;5.154430e-002
1.596838e+003;5.181118e-002
1.598766e+003;5.217159e-002
1.600695e+003;5.253240e-002
1.602623e+003;5.278403e-002
1.604552e+003;5.331364e-002
1.606480e+003;5.383223e-002
1.608409e+003;5.398540e-002
1.610338e+003;5.440624e-002
1.612266e+003;5.507536e-002
1.614195e+003;5.567527e-002
1.616123e+003;5.613500e-002
1.618052e+003;5.658752e-002
1.619980e+003;5.699766e-002
1.621909e+003;5.772575e-002
1.623837e+003;5.847313e-002
1.625766e+003;5.884844e-002
1.627694e+003;5.920988e-002
1.629623e+003;5.995812e-002
1.631552e+003;6.068787e-002
1.633480e+003;6.094918e-002
1.635409e+003;6.102632e-002
1.637337e+003;6.151931e-002
1.639266e+003;6.219571e-002
1.641194e+003;6.282963e-002
1.643123e+003;6.335960e-002
1.645051e+003;6.387586e-002
1.646980e+003;6.427098e-002
1.648909e+003;6.448068e-002
1.650837e+003;6.451574e-002
1.652766e+003;6.438582e-002
1.654694e+003;6.455760e-002
1.656623e+003;6.484491e-002
1.658551e+003;6.477910e-002
1.660480e+003;6.439409e-002
1.662408e+003;6.381422e-002
1.664337e+003;6.343920e-002
1.666266e+003;6.278035e-002
1.668194e+003;6.212445e-002
1.670123e+003;6.195860e-002
1.672051e+003;6.180989e-002
1.673980e+003;6.117273e-002
1.675908e+003;6.022539e-002
1.677837e+003;5.938570e-002
1.679765e+003;5.890039e-002
1.681694e+003;5.866363e-002
1.683622e+003;5.813583e-002
1.685551e+003;5.733310e-002
1.687479e+003;5.669152e-002
1.689408e+003;5.627314e-002
1.691337e+003;5.621046e-002
1.693265e+003;5.605164e-002
1.695194e+003;5.552286e-002
1.697122e+003;5.533727e-002
1.699051e+003;5.545954e-002
1.700979e+003;5.536125e-002
1.702908e+003;5.549854e-002
1.704836e+003;5.574081e-002
1.706765e+003;5.601232e-002
1.708693e+003;5.612701e-002
1.710622e+003;5.601281e-002
1.712551e+003;5.591787e-002
1.714479e+003;5.554297e-002
1.716408e+003;5.486666e-002
1.718336e+003;5.438663e-002
1.720265e+003;5.401346e-002
1.722193e+003;5.391671e-002
1.724122e+003;5.393996e-002
1.726050e+003;5.391382e-002
1.727979e+003;5.376964e-002
1.729908e+003;5.382893e-002
1.731836e+003;5.421763e-002
1.733765e+003;5.480989e-002
1.735693e+003;5.526287e-002
1.737622e+003;5.554026e-002
1.739550e+003;5.573162e-002
1.741479e+003;5.553374e-002
1.743407e+003;5.462085e-002
1.745336e+003;5.291819e-002
1.747265e+003;5.096627e-002
1.749193e+003;4.885491e-002
1.751122e+003;4.678763e-002
1.753050e+003;4.503375e-002
1.754979e+003;4.329091e-002
1.756907e+003;4.143192e-002
1.758836e+003;3.975166e-002
1.760764e+003;3.824458e-002
1.762693e+003;3.691879e-002
1.764621e+003;3.561178e-002
1.766550e+003;3.462658e-002
1.768479e+003;3.434018e-002
1.770407e+003;3.408002e-002
1.772336e+003;3.354355e-002
1.774264e+003;3.294008e-002
1.776193e+003;3.256625e-002
1.778121e+003;3.226364e-002
1.780050e+003;3.182185e-002
1.781978e+003;3.131160e-002
1.783907e+003;3.092375e-002
1.785835e+003;3.045837e-002
1.787764e+003;3.008407e-002
1.789693e+003;2.985189e-002
1.791621e+003;2.902725e-002
1.793550e+003;2.841548e-002
1.795478e+003;2.829720e-002
1.797407e+003;2.782279e-002
1.799335e+003;2.725836e-002
1.801264e+003;2.679281e-002
1.803192e+003;2.642285e-002
1.805121e+003;2.628998e-002
1.807049e+003;2.623063e-002
1.808978e+003;2.604008e-002
1.810907e+003;2.570553e-002
1.812835e+003;2.550129e-002
1.814764e+003;2.548197e-002
1.816692e+003;2.532002e-002
1.818621e+003;2.528887e-002
1.820549e+003;2.533066e-002
1.822478e+003;2.536716e-002
1.824406e+003;2.549402e-002
1.826335e+003;2.520827e-002
1.828264e+003;2.505948e-002
1.830192e+003;2.532079e-002
1.832121e+003;2.533288e-002
1.834049e+003;2.517923e-002
1.835978e+003;2.514806e-002
1.837906e+003;2.505071e-002
1.839835e+003;2.466469e-002
1.841763e+003;2.435415e-002
1.843692e+003;2.432076e-002
1.845620e+003;2.431725e-002
1.847549e+003;2.431767e-002
1.849478e+003;2.439772e-002
1.851406e+003;2.433330e-002
1.853335e+003;2.405623e-002
1.855263e+003;2.413861e-002
1.857192e+003;2.432394e-002
1.859120e+003;2.420264e-002
1.861049e+003;2.417255e-002
1.862977e+003;2.409038e-002
1.864906e+003;2.378644e-002
1.866834e+003;2.356194e-002
1.868763e+003;2.353690e-002
1.870692e+003;2.351269e-002
1.872620e+003;2.345470e-002
1.874549e+003;2.345358e-002
1.876477e+003;2.347369e-002
1.878406e+003;2.347152e-002
1.880334e+003;2.345309e-002
1.882263e+003;2.348926e-002
1.884191e+003;2.357436e-002
1.886120e+003;2.372933e-002
1.888048e+003;2.375589e-002
1.889977e+003;2.388732e-002
1.891906e+003;2.398206e-002
1.893834e+003;2.391501e-002
1.895763e+003;2.378623e-002
1.897691e+003;2.362495e-002
1.899620e+003;2.372383e-002
1.901548e+003;2.381640e-002
1.903477e+003;2.377475e-002
1.905405e+003;2.360448e-002
1.907334e+003;2.340396e-002
1.909262e+003;2.327225e-002
1.911191e+003;2.314831e-002
1.913120e+003;2.308048e-002
1.915048e+003;2.296494e-002
1.916977e+003;2.298419e-002
1.918905e+003;2.314237e-002
1.920834e+003;2.291733e-002
1.922762e+003;2.259250e-002
1.924691e+003;2.267624e-002
1.926619e+003;2.282488e-002
1.928548e+003;2.285506e-002
1.930477e+003;2.264905e-002
1.932405e+003;2.234657e-002
1.934334e+003;2.228334e-002
1.936262e+003;2.237452e-002
1.938191e+003;2.198843e-002
1.940119e+003;2.165517e-002
1.942048e+003;2.173717e-002
1.943976e+003;2.191378e-002
1.945905e+003;2.185806e-002
1.947833e+003;2.166817e-002
1.949762e+003;2.161304e-002
1.951691e+003;2.185949e-002
1.953619e+003;2.176751e-002
1.955548e+003;2.160795e-002
1.957476e+003;2.155857e-002
1.959405e+003;2.163062e-002
1.961333e+003;2.180667e-002
1.963262e+003;2.173177e-002
1.965190e+003;2.166472e-002
1.967119e+003;2.141437e-002
1.969047e+003;2.112489e-002
1.970976e+003;2.107679e-002
1.972905e+003;2.112702e-002
1.974833e+003;2.132586e-002
1.976762e+003;2.145573e-002
1.978690e+003;2.145141e-002
1.980619e+003;2.140017e-002
1.982547e+003;2.140671e-002
1.984476e+003;2.140804e-002
1.986404e+003;2.144674e-002
1.988333e+003;2.139979e-002
1.990261e+003;2.133404e-002
1.992190e+003;2.132252e-002
1.994119e+003;2.119924e-002
1.996047e+003;2.125699e-002
1.997976e+003;2.137782e-002
1.999904e+003;2.144584e-002
2.001833e+003;2.129402e-002
2.003761e+003;2.126782e-002
2.005690e+003;2.127310e-002
2.007618e+003;2.131980e-002
2.009547e+003;2.130933e-002
2.011476e+003;2.142791e-002
2.013404e+003;2.138332e-002
2.015333e+003;2.113870e-002
2.017261e+003;2.102253e-002
2.019190e+003;2.108715e-002
2.021118e+003;2.146102e-002
2.023047e+003;2.144121e-002
2.024975e+003;2.113522e-002
2.026904e+003;2.108319e-002
2.028833e+003;2.092384e-002
2.030761e+003;2.084138e-002
2.032690e+003;2.103749e-002
2.034618e+003;2.093987e-002
2.036547e+003;2.090830e-002
2.038475e+003;2.117815e-002
2.040404e+003;2.152626e-002
2.042332e+003;2.169408e-002
2.044261e+003;2.156366e-002
2.046189e+003;2.139905e-002
2.048118e+003;2.111769e-002
2.050047e+003;2.098177e-002
2.051975e+003;2.099895e-002
2.053904e+003;2.104642e-002
2.055832e+003;2.115996e-002
2.057761e+003;2.104903e-002
2.059689e+003;2.085379e-002
2.061618e+003;2.091849e-002
2.063546e+003;2.098497e-002
2.065475e+003;2.080943e-002
2.067404e+003;2.087211e-002
2.069332e+003;2.096581e-002
2.071260e+003;2.076046e-002
2.073189e+003;2.068348e-002
2.075118e+003;2.079612e-002
2.077046e+003;2.083172e-002
2.078975e+003;2.092148e-002
2.080903e+003;2.111199e-002
2.082832e+003;2.122718e-002
2.084760e+003;2.125000e-002
2.086689e+003;2.139429e-002
2.088617e+003;2.133348e-002
2.090546e+003;2.113091e-002
2.092475e+003;2.105289e-002
2.094403e+003;2.105717e-002
2.096332e+003;2.090340e-002
2.098260e+003;2.103773e-002
2.100189e+003;2.130930e-002
2.102117e+003;2.147362e-002
2.104046e+003;2.154196e-002
2.105974e+003;2.151216e-002
2.107903e+003;2.134772e-002
2.109832e+003;2.135022e-002
2.111760e+003;2.164643e-002
2.113688e+003;2.175270e-002
2.115617e+003;2.170122e-002
2.117546e+003;2.151025e-002
2.119474e+003;2.141562e-002
2.121403e+003;2.165448e-002
2.123331e+003;2.216647e-002
2.125260e+003;2.250211e-002
2.127188e+003;2.251311e-002
2.129117e+003;2.263851e-002
2.131045e+003;2.294489e-002
2.132974e+003;2.314691e-002
2.134903e+003;2.312664e-002
2.136831e+003;2.302790e-002
2.138760e+003;2.295925e-002
2.140688e+003;2.272264e-002
2.142617e+003;2.255041e-002
2.144545e+003;2.252082e-002
2.146474e+003;2.269220e-002
2.148402e+003;2.283375e-002
2.150331e+003;2.296197e-002
2.152260e+003;2.312241e-002
2.154188e+003;2.313370e-002
2.156117e+003;2.287947e-002
2.158045e+003;2.240703e-002
2.159974e+003;2.240197e-002
2.161902e+003;2.290112e-002
2.163831e+003;2.331235e-002
2.165759e+003;2.339284e-002
2.167688e+003;2.331207e-002
2.169616e+003;2.343166e-002
2.171545e+003;2.374420e-002
2.173474e+003;2.392583e-002
2.175402e+003;2.382379e-002
2.177331e+003;2.370088e-002
2.179259e+003;2.386324e-002
2.181188e+003;2.374427e-002
2.183116e+003;2.372142e-002
2.185045e+003;2.380146e-002
2.186973e+003;2.374147e-002
2.188902e+003;2.367071e-002
2.190831e+003;2.377577e-002
2.192759e+003;2.406337e-002
2.194688e+003;2.399467e-002
2.196616e+003;2.367379e-002
2.198545e+003;2.365084e-002
2.200473e+003;2.360088e-002
2.202402e+003;2.330543e-002
2.204330e+003;2.336812e-002
2.206259e+003;2.344390e-002
2.208188e+003;2.334756e-002
2.210116e+003;2.330152e-002
2.212044e+003;2.333508e-002
2.213973e+003;2.314076e-002
2.215902e+003;2.307073e-002
2.217830e+003;2.337315e-002
2.219759e+003;2.338036e-002
2.221687e+003;2.325530e-002
2.223616e+003;2.338379e-002
2.225544e+003;2.373982e-002
2.227473e+003;2.388309e-002
2.229401e+003;2.382207e-002
2.231330e+003;2.342606e-002
2.233259e+003;2.308405e-002
2.235187e+003;2.310291e-002
2.237116e+003;2.319186e-002
2.239044e+003;2.342823e-002
2.240973e+003;2.343816e-002
2.242901e+003;2.325345e-002
2.244830e+003;2.311179e-002
2.246758e+003;2.343393e-002
2.248687e+003;2.375127e-002
2.250615e+003;2.394435e-002
2.252544e+003;2.410393e-002
2.254473e+003;2.415752e-002
2.256401e+003;2.417875e-002
2.258330e+003;2.430800e-002
2.260258e+003;2.424031e-002
2.262187e+003;2.412099e-002
2.264115e+003;2.412982e-002
2.266044e+003;2.387643e-002
2.267972e+003;2.381969e-002
2.269901e+003;2.383436e-002
2.271830e+003;2.360354e-002
2.273758e+003;2.350643e-002
2.275687e+003;2.347083e-002
2.277615e+003;2.336550e-002
2.279544e+003;2.325565e-002
2.281472e+003;2.320339e-002
2.283401e+003;2.330361e-002
2.285329e+003;2.337871e-002
2.287258e+003;2.320175e-002
2.289187e+003;2.282795e-002
2.291115e+003;2.264559e-002
2.293043e+003;2.292998e-002
2.294972e+003;2.327739e-002
2.296901e+003;2.316509e-002
2.298829e+003;2.320315e-002
2.300758e+003;2.337340e-002
2.302686e+003;2.338924e-002
2.304615e+003;2.329662e-002
2.306543e+003;2.324418e-002
2.308472e+003;2.315345e-002
2.310400e+003;2.311965e-002
2.312329e+003;2.305099e-002
2.314258e+003;2.326327e-002
2.316186e+003;2.375802e-002
2.318115e+003;2.370689e-002
2.320043e+003;2.346152e-002
2.321972e+003;2.348947e-002
2.323900e+003;2.370060e-002
2.325829e+003;2.404558e-002
2.327757e+003;2.414849e-002
2.329686e+003;2.405196e-002
2.331615e+003;2.408047e-002
2.333543e+003;2.437448e-002
2.335472e+003;2.474487e-002
2.337400e+003;2.483398e-002
2.339329e+003;2.474343e-002
2.341257e+003;2.478469e-002
2.343186e+003;2.479847e-002
2.345114e+003;2.467795e-002
2.347043e+003;2.469268e-002
2.348971e+003;2.520255e-002
2.350900e+003;2.553169e-002
2.352829e+003;2.535427e-002
2.354757e+003;2.553879e-002
2.356686e+003;2.567505e-002
2.358614e+003;2.554747e-002
2.360543e+003;2.568342e-002
2.362471e+003;2.574684e-002
2.364400e+003;2.567210e-002
2.366328e+003;2.568858e-002
2.368257e+003;2.565178e-002
2.370186e+003;2.588475e-002
2.372114e+003;2.598605e-002
2.374042e+003;2.592720e-002
2.375971e+003;2.590972e-002
2.377900e+003;2.585039e-002
2.379828e+003;2.612382e-002
2.381757e+003;2.631293e-002
2.383685e+003;2.607192e-002
2.385614e+003;2.588545e-002
2.387542e+003;2.584160e-002
2.389471e+003;2.596540e-002
2.391399e+003;2.634208e-002
2.393328e+003;2.656161e-002
2.395257e+003;2.666493e-002
2.397185e+003;2.671109e-002
2.399114e+003;2.661381e-002
2.401042e+003;2.674439e-002
2.402971e+003;2.693324e-002
2.404899e+003;2.674915e-002
2.406828e+003;2.666870e-002
2.408756e+003;2.681113e-002
2.410685e+003;2.672779e-002
2.412614e+003;2.687317e-002
2.414542e+003;2.682830e-002
2.416471e+003;2.665471e-002
2.418399e+003;2.681977e-002
2.420328e+003;2.729816e-002
2.422256e+003;2.783678e-002
2.424185e+003;2.807450e-002
2.426113e+003;2.794433e-002
2.428042e+003;2.769935e-002
2.429970e+003;2.762582e-002
2.431899e+003;2.746198e-002
2.433828e+003;2.721836e-002
2.435756e+003;2.688797e-002
2.437685e+003;2.667596e-002
2.439613e+003;2.677617e-002
2.441542e+003;2.669876e-002
2.443470e+003;2.676391e-002
2.445399e+003;2.691988e-002
2.447327e+003;2.683151e-002
2.449256e+003;2.676539e-002
2.451185e+003;2.652163e-002
2.453113e+003;2.645686e-002
2.455042e+003;2.643739e-002
2.456970e+003;2.637496e-002
2.458899e+003;2.643408e-002
2.460827e+003;2.621409e-002
2.462756e+003;2.611464e-002
2.464684e+003;2.602137e-002
2.466613e+003;2.604265e-002
2.468542e+003;2.638380e-002
2.470470e+003;2.633000e-002
2.472398e+003;2.620339e-002
2.474327e+003;2.610753e-002
2.476256e+003;2.630575e-002
2.478184e+003;2.694015e-002
2.480113e+003;2.732565e-002
2.482041e+003;2.709960e-002
2.483970e+003;2.711893e-002
2.485898e+003;2.722231e-002
2.487827e+003;2.725110e-002
2.489755e+003;2.736718e-002
2.491684e+003;2.725692e-002
2.493613e+003;2.711833e-002
2.495541e+003;2.693493e-002
2.497470e+003;2.693891e-002
2.499398e+003;2.715183e-002
2.501327e+003;2.710834e-002
2.503255e+003;2.696031e-002
2.505184e+003;2.689710e-002
2.507112e+003;2.685939e-002
2.509041e+003;2.693116e-002
2.510969e+003;2.713338e-002
2.512898e+003;2.743219e-002
2.514827e+003;2.780870e-002
2.516755e+003;2.819480e-002
2.518684e+003;2.856365e-002
2.520612e+003;2.894589e-002
2.522541e+003;2.917882e-002
2.524469e+003;2.913488e-002
2.526398e+003;2.891582e-002
2.528326e+003;2.914271e-002
2.530255e+003;2.981644e-002
2.532184e+003;3.023296e-002
2.534112e+003;3.022710e-002
2.536041e+003;3.001146e-002
2.537969e+003;3.008315e-002
2.539898e+003;3.034100e-002
2.541826e+003;3.078672e-002
2.543755e+003;3.115440e-002
2.545683e+003;3.126840e-002
2.547612e+003;3.176245e-002
2.549541e+003;3.219687e-002
2.551469e+003;3.235704e-002
2.553397e+003;3.266904e-002
2.555326e+003;3.298341e-002
2.557255e+003;3.315039e-002
2.559183e+003;3.348768e-002
2.561112e+003;3.408310e-002
2.563040e+003;3.458252e-002
2.564969e+003;3.471555e-002
2.566897e+003;3.499451e-002
2.568826e+003;3.581881e-002
2.570754e+003;3.624588e-002
2.572683e+003;3.639798e-002
2.574612e+003;3.706820e-002
2.576540e+003;3.794052e-002
2.578469e+003;3.855059e-002
2.580397e+003;3.916967e-002
2.582326e+003;3.954601e-002
2.584254e+003;3.906235e-002
2.586183e+003;3.819389e-002
2.588111e+003;3.751521e-002
2.590040e+003;3.699585e-002
2.591969e+003;3.652540e-002
2.593897e+003;3.599610e-002
2.595826e+003;3.596072e-002
2.597754e+003;3.630143e-002
2.599683e+003;3.634239e-002
2.601611e+003;3.634368e-002
2.603540e+003;3.663379e-002
2.605468e+003;3.692947e-002
2.607397e+003;3.723592e-002
2.609325e+003;3.759921e-002
2.611254e+003;3.794681e-002
2.613183e+003;3.827813e-002
2.615111e+003;3.854480e-002
2.617040e+003;3.841486e-002
2.618968e+003;3.804880e-002
2.620897e+003;3.776750e-002
2.622825e+003;3.779667e-002
2.624754e+003;3.780426e-002
2.626682e+003;3.772760e-002
2.628611e+003;3.782649e-002
2.630540e+003;3.779775e-002
2.632468e+003;3.742271e-002
2.634396e+003;3.726722e-002
2.636325e+003;3.752110e-002
2.638254e+003;3.762876e-002
2.640182e+003;3.768980e-002
2.642111e+003;3.821607e-002
2.644039e+003;3.883681e-002
2.645968e+003;3.903553e-002
2.647896e+003;3.919197e-002
2.649825e+003;3.939317e-002
2.651753e+003;3.938414e-002
2.653682e+003;3.995446e-002
2.655611e+003;4.061466e-002
2.657539e+003;4.094000e-002
2.659468e+003;4.117010e-002
2.661396e+003;4.116525e-002
2.663325e+003;4.115779e-002
2.665253e+003;4.145743e-002
2.667182e+003;4.145966e-002
2.669110e+003;4.150395e-002
2.671039e+003;4.171687e-002
2.672968e+003;4.181150e-002
2.674896e+003;4.194410e-002
2.676825e+003;4.234615e-002
2.678753e+003;4.261322e-002
2.680682e+003;4.246547e-002
2.682610e+003;4.229451e-002
2.684539e+003;4.230192e-002
2.686467e+003;4.240730e-002
2.688396e+003;4.248319e-002
2.690324e+003;4.257137e-002
2.692253e+003;4.258880e-002
2.694182e+003;4.259761e-002
2.696110e+003;4.274028e-002
2.698039e+003;4.293165e-002
2.699967e+003;4.312445e-002
2.701896e+003;4.369597e-002
2.703824e+003;4.471961e-002
2.705753e+003;4.559240e-002
2.707681e+003;4.602957e-002
2.709610e+003;4.674121e-002
2.711539e+003;4.756225e-002
2.713467e+003;4.877290e-002
2.715396e+003;5.055196e-002
2.717324e+003;5.257073e-002
2.719253e+003;5.410927e-002
2.721181e+003;5.501368e-002
2.723110e+003;5.540465e-002
2.725038e+003;5.501530e-002
2.726967e+003;5.404003e-002
2.728896e+003;5.282122e-002
2.730824e+003;5.147778e-002
2.732752e+003;5.013063e-002
2.734681e+003;4.890927e-002
2.736610e+003;4.811681e-002
2.738538e+003;4.767898e-002
2.740467e+003;4.706996e-002
2.742395e+003;4.620691e-002
2.744324e+003;4.533101e-002
2.746252e+003;4.488029e-002
2.748181e+003;4.446887e-002
2.750109e+003;4.417088e-002
2.752038e+003;4.442395e-002
2.753967e+003;4.463984e-002
2.755895e+003;4.478007e-002
2.757824e+003;4.494308e-002
2.759752e+003;4.549743e-002
2.761681e+003;4.617555e-002
2.763609e+003;4.649598e-002
2.765538e+003;4.655934e-002
2.767466e+003;4.698389e-002
2.769395e+003;4.720314e-002
2.771323e+003;4.741148e-002
2.773252e+003;4.805748e-002
2.775181e+003;4.857112e-002
2.777109e+003;4.895782e-002
2.779038e+003;4.995570e-002
2.780966e+003;5.136200e-002
2.782895e+003;5.267516e-002
2.784823e+003;5.374733e-002
2.786752e+003;5.509214e-002
2.788680e+003;5.696740e-002
2.790609e+003;5.890058e-002
2.792538e+003;6.019273e-002
2.794466e+003;6.133988e-002
2.796395e+003;6.281424e-002
2.798323e+003;6.428907e-002
2.800252e+003;6.586070e-002
2.802180e+003;6.731065e-002
2.804109e+003;6.883822e-002
2.806037e+003;7.104687e-002
2.807966e+003;7.318756e-002
2.809895e+003;7.483418e-002
2.811823e+003;7.632129e-002
2.813751e+003;7.806856e-002
2.815680e+003;8.010279e-002
2.817609e+003;8.200090e-002
2.819537e+003;8.403169e-002
2.821466e+003;8.684739e-002
2.823394e+003;9.052597e-002
2.825323e+003;9.482819e-002
2.827251e+003;1.001906e-001
2.829180e+003;1.074667e-001
2.831108e+003;1.157851e-001
2.833037e+003;1.244660e-001
2.834966e+003;1.318267e-001
2.836894e+003;1.356971e-001
2.838823e+003;1.359697e-001
2.840751e+003;1.335590e-001
2.842680e+003;1.291079e-001
2.844608e+003;1.238524e-001
2.846537e+003;1.187977e-001
2.848465e+003;1.146970e-001
2.850394e+003;1.120681e-001
2.852323e+003;1.105109e-001
2.854251e+003;1.103637e-001
2.856180e+003;1.116266e-001
2.858108e+003;1.148301e-001
2.860037e+003;1.203278e-001
2.861965e+003;1.276664e-001
2.863894e+003;1.352955e-001
2.865822e+003;1.408610e-001
2.867751e+003;1.435613e-001
2.869679e+003;1.439598e-001
2.871608e+003;1.435439e-001
2.873536e+003;1.436793e-001
2.875465e+003;1.440562e-001
2.877394e+003;1.434729e-001
2.879322e+003;1.420208e-001
2.881251e+003;1.405248e-001
2.883179e+003;1.395836e-001
2.885108e+003;1.396416e-001
2.887036e+003;1.405912e-001
2.888965e+003;1.418477e-001
2.890893e+003;1.433060e-001
2.892822e+003;1.457560e-001
2.894750e+003;1.495058e-001
2.896679e+003;1.539073e-001
2.898608e+003;1.591144e-001
2.900536e+003;1.644531e-001
2.902465e+003;1.694272e-001
2.904393e+003;1.747513e-001
2.906322e+003;1.801609e-001
2.908250e+003;1.852637e-001
2.910179e+003;1.894988e-001
2.912107e+003;1.920232e-001
2.914036e+003;1.943111e-001
2.915965e+003;1.967168e-001
2.917893e+003;1.969081e-001
2.919822e+003;1.944995e-001
2.921750e+003;1.904369e-001
2.923679e+003;1.852550e-001
2.925607e+003;1.784956e-001
2.927536e+003;1.706893e-001
2.929464e+003;1.619856e-001
2.931393e+003;1.532989e-001
2.933322e+003;1.454609e-001
2.935250e+003;1.385970e-001
2.937178e+003;1.339766e-001
2.939107e+003;1.319588e-001
2.941036e+003;1.331532e-001
2.942964e+003;1.381675e-001
2.944893e+003;1.460700e-001
2.946821e+003;1.551398e-001
2.948750e+003;1.627074e-001
2.950678e+003;1.661891e-001
2.952607e+003;1.657291e-001
2.954535e+003;1.625718e-001
2.956464e+003;1.584455e-001
2.958393e+003;1.537843e-001
2.960321e+003;1.483141e-001
2.962250e+003;1.422661e-001
2.964178e+003;1.355683e-001
2.966107e+003;1.280789e-001
2.968035e+003;1.207626e-001
2.969964e+003;1.139885e-001
2.971892e+003;1.075445e-001
2.973821e+003;1.014505e-001
2.975750e+003;9.623957e-002
2.977678e+003;9.196338e-002
2.979607e+003;8.773436e-002
2.981535e+003;8.398304e-002
2.983464e+003;8.059887e-002
2.985392e+003;7.781291e-002
2.987321e+003;7.573266e-002
2.989249e+003;7.354022e-002
2.991178e+003;7.139865e-002
2.993106e+003;6.911843e-002
2.995035e+003;6.685606e-002
2.996964e+003;6.503014e-002
2.998892e+003;6.316496e-002
3.000821e+003;6.108440e-002
3.002749e+003;5.941157e-002
3.004678e+003;5.802270e-002
3.006606e+003;5.639182e-002
3.008535e+003;5.473133e-002
3.010463e+003;5.323082e-002
3.012392e+003;5.189325e-002
3.014321e+003;5.055877e-002
3.016249e+003;4.943473e-002
3.018177e+003;4.823542e-002
3.020106e+003;4.728419e-002
3.022035e+003;4.677926e-002
3.023963e+003;4.609187e-002
3.025892e+003;4.540218e-002
3.027820e+003;4.483480e-002
3.029749e+003;4.412756e-002
3.031677e+003;4.335842e-002
3.033606e+003;4.294485e-002
3.035534e+003;4.309404e-002
3.037463e+003;4.297931e-002
3.039392e+003;4.248078e-002
3.041320e+003;4.187443e-002
3.043249e+003;4.124803e-002
3.045177e+003;4.116889e-002
3.047106e+003;4.124351e-002
3.049034e+003;4.093443e-002
3.050963e+003;4.022525e-002
3.052891e+003;3.988487e-002
3.054820e+003;4.003631e-002
3.056749e+003;3.996845e-002
3.058677e+003;4.001037e-002
3.060606e+003;3.987030e-002
3.062534e+003;3.935765e-002
3.064463e+003;3.932650e-002
3.066391e+003;3.948526e-002
3.068320e+003;3.932084e-002
3.070248e+003;3.933009e-002
3.072177e+003;3.932483e-002
3.074105e+003;3.903524e-002
3.076034e+003;3.903817e-002
3.077963e+003;3.877116e-002
3.079891e+003;3.846322e-002
3.081820e+003;3.841120e-002
3.083748e+003;3.865460e-002
3.085677e+003;3.861190e-002
3.087605e+003;3.842825e-002
3.089534e+003;3.850754e-002
3.091462e+003;3.840502e-002
3.093391e+003;3.814914e-002
3.095320e+003;3.815438e-002
3.097248e+003;3.834685e-002
3.099177e+003;3.846771e-002
3.101105e+003;3.836560e-002
3.103034e+003;3.833603e-002
3.104962e+003;3.847561e-002
3.106891e+003;3.870118e-002
3.108819e+003;3.866111e-002
3.110748e+003;3.852694e-002
3.112677e+003;3.868263e-002
3.114605e+003;3.870958e-002
3.116533e+003;3.859245e-002
3.118462e+003;3.846927e-002
3.120391e+003;3.823543e-002
3.122319e+003;3.828131e-002
3.124248e+003;3.863699e-002
3.126176e+003;3.860002e-002
3.128105e+003;3.851858e-002
3.130033e+003;3.932352e-002
3.131962e+003;3.945903e-002
3.133890e+003;3.926603e-002
3.135819e+003;3.957062e-002
3.137748e+003;3.960165e-002
3.139676e+003;3.975783e-002
3.141605e+003;3.976117e-002
3.143533e+003;3.968518e-002
3.145462e+003;4.016303e-002
3.147390e+003;4.045832e-002
3.149319e+003;4.044326e-002
3.151247e+003;4.026433e-002
3.153176e+003;4.017102e-002
3.155104e+003;4.050418e-002
3.157033e+003;4.072684e-002
3.158962e+003;4.069889e-002
3.160890e+003;4.045395e-002
3.162819e+003;4.025833e-002
3.164747e+003;4.049011e-002
3.166676e+003;4.037486e-002
3.168604e+003;4.032079e-002
3.170533e+003;4.053961e-002
3.172461e+003;4.059672e-002
3.174390e+003;4.074547e-002
3.176319e+003;4.117778e-002
3.178247e+003;4.150497e-002
3.180176e+003;4.135585e-002
3.182104e+003;4.127382e-002
3.184033e+003;4.122988e-002
3.185961e+003;4.114759e-002
3.187890e+003;4.135880e-002
3.189818e+003;4.185681e-002
3.191747e+003;4.187174e-002
3.193676e+003;4.180307e-002
3.195604e+003;4.197902e-002
3.197532e+003;4.222037e-002
3.199461e+003;4.216271e-002
3.201390e+003;4.186802e-002
3.203318e+003;4.201972e-002
3.205247e+003;4.203629e-002
3.207175e+003;4.184860e-002
3.209104e+003;4.185211e-002
3.211032e+003;4.170838e-002
3.212961e+003;4.154110e-002
3.214889e+003;4.137684e-002
3.216818e+003;4.145229e-002
3.218747e+003;4.162223e-002
3.220675e+003;4.174095e-002
3.222604e+003;4.148197e-002
3.224532e+003;4.101578e-002
3.226461e+003;4.098624e-002
3.228389e+003;4.092995e-002
3.230318e+003;4.072655e-002
3.232246e+003;4.068768e-002
3.234175e+003;4.067681e-002
3.236104e+003;4.033992e-002
3.238032e+003;4.013057e-002
3.239961e+003;4.023052e-002
3.241889e+003;4.009049e-002
3.243818e+003;4.008580e-002
3.245746e+003;4.037650e-002
3.247675e+003;4.043955e-002
3.249603e+003;4.018934e-002
3.251532e+003;4.027843e-002
3.253460e+003;4.039409e-002
3.255389e+003;4.023929e-002
3.257318e+003;4.024884e-002
3.259246e+003;4.052586e-002
3.261175e+003;4.083971e-002
3.263103e+003;4.088812e-002
3.265032e+003;4.093367e-002
3.266960e+003;4.075064e-002
3.268889e+003;4.026099e-002
3.270817e+003;4.011197e-002
3.272746e+003;4.036101e-002
3.274675e+003;4.068780e-002
3.276603e+003;4.064810e-002
3.278531e+003;4.088328e-002
3.280460e+003;4.135658e-002
3.282389e+003;4.114708e-002
3.284317e+003;4.090174e-002
3.286246e+003;4.079024e-002
3.288174e+003;4.085383e-002
3.290103e+003;4.081455e-002
3.292031e+003;4.056729e-002
3.293960e+003;4.076640e-002
3.295888e+003;4.130349e-002
3.297817e+003;4.172618e-002
3.299746e+003;4.149753e-002
3.301674e+003;4.077947e-002
3.303603e+003;4.064206e-002
3.305531e+003;4.060011e-002
3.307460e+003;4.015518e-002
3.309388e+003;4.013795e-002
3.311317e+003;4.041478e-002
3.313245e+003;4.068325e-002
3.315174e+003;4.058301e-002
3.317103e+003;4.031705e-002
3.319031e+003;4.011713e-002
3.320960e+003;3.992733e-002
3.322888e+003;3.960985e-002
3.324817e+003;3.963806e-002
3.326745e+003;3.974182e-002
3.328674e+003;3.967120e-002
3.330602e+003;3.940681e-002
3.332531e+003;3.946266e-002
3.334459e+003;3.955164e-002
3.336388e+003;3.971288e-002
3.338317e+003;3.997949e-002
3.340245e+003;4.010295e-002
3.342174e+003;3.975286e-002
3.344102e+003;3.934725e-002
3.346031e+003;3.927622e-002
3.347959e+003;3.921751e-002
3.349888e+003;3.952025e-002
3.351816e+003;3.932697e-002
3.353745e+003;3.899355e-002
3.355674e+003;3.904346e-002
3.357602e+003;3.890070e-002
3.359531e+003;3.871650e-002
3.361459e+003;3.891465e-002
3.363388e+003;3.896205e-002
3.365316e+003;3.912011e-002
3.367245e+003;3.917798e-002
3.369173e+003;3.866365e-002
3.371102e+003;3.851880e-002
3.373031e+003;3.819642e-002
3.374959e+003;3.769522e-002
3.376887e+003;3.773027e-002
3.378816e+003;3.758017e-002
3.380745e+003;3.735796e-002
3.382673e+003;3.720246e-002
3.384602e+003;3.663624e-002
3.386530e+003;3.676810e-002
3.388459e+003;3.696565e-002
3.390387e+003;3.696847e-002
3.392316e+003;3.680117e-002
3.394244e+003;3.636217e-002
3.396173e+003;3.636404e-002
3.398102e+003;3.644446e-002
3.400030e+003;3.597097e-002
3.401959e+003;3.578474e-002
3.403887e+003;3.623108e-002
3.405816e+003;3.648082e-002
3.407744e+003;3.627672e-002
3.409673e+003;3.627139e-002
3.411601e+003;3.644972e-002
3.413530e+003;3.614904e-002
3.415458e+003;3.565843e-002
3.417387e+003;3.560110e-002
3.419316e+003;3.549807e-002
3.421244e+003;3.546003e-002
3.423173e+003;3.574833e-002
3.425101e+003;3.573574e-002
3.427030e+003;3.523664e-002
3.428958e+003;3.461015e-002
3.430887e+003;3.428220e-002
3.432815e+003;3.415120e-002
3.434744e+003;3.409618e-002
3.436673e+003;3.395076e-002
3.438601e+003;3.381958e-002
3.440530e+003;3.339278e-002
3.442458e+003;3.290545e-002
3.444387e+003;3.282961e-002
3.446315e+003;3.273335e-002
3.448244e+003;3.279434e-002
3.450172e+003;3.281449e-002
3.452101e+003;3.243844e-002
3.454030e+003;3.220875e-002
3.455958e+003;3.188574e-002
3.457886e+003;3.176877e-002
3.459815e+003;3.132253e-002
3.461744e+003;3.094670e-002
3.463672e+003;3.131669e-002
3.465601e+003;3.184741e-002
3.467529e+003;3.151937e-002
3.469458e+003;3.078999e-002
3.471386e+003;3.064241e-002
3.473315e+003;3.079725e-002
3.475243e+003;3.041679e-002
3.477172e+003;2.989882e-002
3.479101e+003;2.991944e-002
3.481029e+003;3.022241e-002
3.482958e+003;3.019726e-002
3.484886e+003;2.984465e-002
3.486815e+003;2.959299e-002
3.488743e+003;2.938688e-002
3.490672e+003;2.934448e-002
3.492600e+003;2.885778e-002
3.494529e+003;2.820530e-002
3.496458e+003;2.829299e-002
3.498386e+003;2.852055e-002
3.500315e+003;2.829172e-002
3.502243e+003;2.788098e-002
3.504172e+003;2.792932e-002
3.506100e+003;2.814802e-002
3.508029e+003;2.788971e-002
3.509957e+003;2.722354e-002
3.511886e+003;2.711342e-002
3.513814e+003;2.745997e-002
3.515743e+003;2.764461e-002
3.517672e+003;2.748581e-002
3.519600e+003;2.685745e-002
3.521529e+003;2.647680e-002
3.523457e+003;2.643686e-002
3.525386e+003;2.620339e-002
3.527314e+003;2.605479e-002
3.529243e+003;2.581417e-002
3.531171e+003;2.558845e-002
3.533100e+003;2.561136e-002
3.535029e+003;2.562243e-002
3.536957e+003;2.596079e-002
3.538885e+003;2.590810e-002
3.540814e+003;2.527359e-002
3.542743e+003;2.485675e-002
3.544671e+003;2.473989e-002
3.546600e+003;2.456079e-002
3.548528e+003;2.470734e-002
3.550457e+003;2.447686e-002
3.552385e+003;2.400339e-002
3.554314e+003;2.383201e-002
3.556242e+003;2.397037e-002
3.558171e+003;2.383033e-002
3.560100e+003;2.334990e-002
3.562028e+003;2.317753e-002
3.563957e+003;2.317148e-002
3.565885e+003;2.261355e-002
3.567814e+003;2.243798e-002
3.569742e+003;2.262514e-002
3.571671e+003;2.281207e-002
3.573599e+003;2.237863e-002
3.575528e+003;2.201935e-002
3.577457e+003;2.184991e-002
3.579385e+003;2.132562e-002
3.581314e+003;2.122905e-002
3.583242e+003;2.166507e-002
3.585171e+003;2.157999e-002
3.587099e+003;2.118459e-002
3.589028e+003;2.075851e-002
3.590956e+003;2.076049e-002
3.592885e+003;2.072442e-002
3.594813e+003;2.074617e-002
3.596742e+003;2.096133e-002
3.598671e+003;2.090427e-002
3.600599e+003;2.060589e-002
3.602528e+003;2.020589e-002
3.604456e+003;2.002199e-002
3.606385e+003;1.980553e-002
3.608313e+003;1.965168e-002
3.610242e+003;2.001967e-002
3.612170e+003;2.050243e-002
3.614099e+003;2.050393e-002
3.616028e+003;1.990466e-002
3.617956e+003;1.957113e-002
3.619885e+003;1.958790e-002
3.621813e+003;1.933764e-002
3.623742e+003;1.895476e-002
3.625670e+003;1.895729e-002
3.627599e+003;1.920207e-002
3.629527e+003;1.948403e-002
3.631456e+003;1.948244e-002
3.633385e+003;1.933185e-002
3.635313e+003;1.939182e-002
3.637241e+003;1.908011e-002
3.639170e+003;1.849055e-002
3.641099e+003;1.827192e-002
3.643027e+003;1.852509e-002
3.644956e+003;1.872753e-002
3.646884e+003;1.817993e-002
3.648813e+003;1.786609e-002
3.650741e+003;1.786132e-002
3.652670e+003;1.818726e-002
3.654598e+003;1.811032e-002
3.656527e+003;1.776187e-002
3.658456e+003;1.790531e-002
3.660384e+003;1.808842e-002
3.662313e+003;1.801347e-002
3.664241e+003;1.775735e-002
3.666170e+003;1.756713e-002
3.668098e+003;1.733762e-002
3.670027e+003;1.757682e-002
3.671955e+003;1.804417e-002
3.673884e+003;1.831536e-002
3.675813e+003;1.877686e-002
3.677741e+003;1.893746e-002
3.679669e+003;1.892476e-002
3.681598e+003;1.863707e-002
3.683527e+003;1.826041e-002
3.685455e+003;1.827005e-002
3.687384e+003;1.835407e-002
3.689312e+003;1.863358e-002
3.691241e+003;1.893189e-002
3.693169e+003;1.868252e-002
3.695098e+003;1.871922e-002
3.697026e+003;1.913406e-002
3.698955e+003;1.905550e-002
3.700884e+003;1.885769e-002
3.702812e+003;1.912294e-002
3.704741e+003;1.929202e-002
3.706669e+003;1.933577e-002
3.708598e+003;1.934000e-002
3.710526e+003;1.917468e-002
3.712455e+003;1.894770e-002
3.714383e+003;1.841871e-002
3.716312e+003;1.822765e-002
3.718240e+003;1.846790e-002
3.720169e+003;1.805706e-002
3.722098e+003;1.814166e-002
3.724026e+003;1.885205e-002
3.725955e+003;1.883423e-002
3.727883e+003;1.835915e-002
3.729812e+003;1.848149e-002
3.731740e+003;1.849525e-002
3.733669e+003;1.827541e-002
3.735597e+003;1.855753e-002
3.737526e+003;1.901693e-002
3.739455e+003;1.919750e-002
3.741383e+003;1.941795e-002
3.743312e+003;1.945371e-002
3.745240e+003;1.908641e-002
3.747169e+003;1.886364e-002
3.749097e+003;1.899409e-002
3.751026e+003;1.879793e-002
3.752954e+003;1.833762e-002
3.754883e+003;1.854356e-002
3.756812e+003;1.893517e-002
3.758740e+003;1.906232e-002
3.760668e+003;1.915788e-002
3.762597e+003;1.966424e-002
3.764526e+003;1.997363e-002
3.766454e+003;1.983456e-002
3.768383e+003;1.902237e-002
3.770311e+003;1.899457e-002
3.772240e+003;1.944484e-002
3.774168e+003;1.914694e-002
3.776097e+003;1.899800e-002
3.778025e+003;1.899152e-002
3.779954e+003;1.856617e-002
3.781883e+003;1.841760e-002
3.783811e+003;1.863915e-002
3.785740e+003;1.890482e-002
3.787668e+003;1.921121e-002
3.789597e+003;1.942526e-002
3.791525e+003;1.916280e-002
3.793454e+003;1.916796e-002
3.795382e+003;1.962239e-002
3.797311e+003;1.994056e-002
3.799240e+003;1.966115e-002
3.801168e+003;1.871767e-002
3.803097e+003;1.848256e-002
3.805025e+003;1.891503e-002
3.806954e+003;1.936061e-002
3.808882e+003;1.930397e-002
3.810811e+003;1.923459e-002
3.812739e+003;1.910958e-002
3.814668e+003;1.847095e-002
3.816596e+003;1.870127e-002
3.818525e+003;1.931942e-002
3.820454e+003;1.947069e-002
3.822382e+003;1.975431e-002
3.824311e+003;2.015716e-002
3.826239e+003;2.005940e-002
3.828168e+003;1.968903e-002
3.830096e+003;1.929701e-002
3.832025e+003;1.933220e-002
3.833953e+003;1.935881e-002
3.835882e+003;1.941556e-002
3.837811e+003;1.958925e-002
3.839739e+003;1.979971e-002
3.841667e+003;1.968011e-002
3.843596e+003;1.936324e-002
3.845525e+003;1.910366e-002
3.847453e+003;1.938715e-002
3.849382e+003;2.008615e-002
3.851310e+003;2.017781e-002
3.853239e+003;1.947758e-002
3.855167e+003;1.968920e-002
3.857096e+003;2.014928e-002
3.859024e+003;1.993349e-002
3.860953e+003;1.979836e-002
3.862882e+003;2.005766e-002
3.864810e+003;2.010208e-002
3.866739e+003;2.036539e-002
3.868667e+003;2.023925e-002
3.870596e+003;2.006908e-002
3.872524e+003;2.029317e-002
3.874453e+003;1.996606e-002
3.876381e+003;2.008671e-002
3.878310e+003;2.051341e-002
3.880239e+003;2.072101e-002
3.882167e+003;2.060627e-002
3.884096e+003;2.052467e-002
3.886024e+003;2.035764e-002
3.887953e+003;2.011634e-002
3.889881e+003;2.036188e-002
3.891810e+003;2.044825e-002
3.893738e+003;2.028529e-002
3.895667e+003;2.105373e-002
3.897595e+003;2.126197e-002
3.899524e+003;2.081214e-002
3.901453e+003;2.069623e-002
3.903381e+003;2.083158e-002
3.905310e+003;2.094509e-002
3.907238e+003;2.065992e-002
3.909167e+003;2.017694e-002
3.911095e+003;2.016948e-002
3.913024e+003;2.058369e-002
3.914952e+003;2.101140e-002
3.916881e+003;2.105046e-002
3.918810e+003;2.064432e-002
3.920738e+003;2.094794e-002
3.922667e+003;2.130561e-002
3.924595e+003;2.096682e-002
3.926524e+003;2.089429e-002
3.928452e+003;2.116052e-002
3.930381e+003;2.133794e-002
3.932309e+003;2.119969e-002
3.934238e+003;2.088344e-002
3.936167e+003;2.081757e-002
3.938095e+003;2.055058e-002
3.940023e+003;2.059289e-002
3.941952e+003;2.095622e-002
3.943881e+003;2.099624e-002
3.945809e+003;2.040873e-002
3.947738e+003;1.981732e-002
3.949666e+003;2.001065e-002
3.951595e+003;2.046249e-002
3.953523e+003;2.064564e-002
3.955452e+003;2.122116e-002
3.957380e+003;2.167367e-002
3.959309e+003;2.160983e-002
3.961238e+003;2.170739e-002
3.963166e+003;2.170206e-002
3.965095e+003;2.139317e-002
3.967023e+003;2.116904e-002
3.968952e+003;2.098939e-002
3.970880e+003;2.076877e-002
3.972809e+003;2.101683e-002
3.974737e+003;2.122453e-002
3.976666e+003;2.146707e-002
3.978594e+003;2.140978e-002
3.980523e+003;2.151881e-002
3.982452e+003;2.203552e-002
3.984380e+003;2.224570e-002
3.986309e+003;2.221913e-002
3.988237e+003;2.230377e-002
3.990166e+003;2.223280e-002
3.992094e+003;2.208269e-002
3.994023e+003;2.258985e-002
3.995951e+003;2.285691e-002
3.997880e+003;2.311930e-002
3.999809e+003;2.325502e-002
4.001737e+003;0.000000e+000
