3.992094e+002;0.000000e+000
4.011380e+002;0.000000e+000
4.030665e+002;0.000000e+000
4.049951e+002;0.000000e+000
4.069236e+002;0.000000e+000
4.088522e+002;0.000000e+000
4.107807e+002;0.000000e+000
4.127093e+002;0.000000e+000
4.146378e+002;0.000000e+000
4.165664e+002;0.000000e+000
4.184949e+002;0.000000e+000
4.204235e+002;0.000000e+000
4.223520e+002;0.000000e+000
4.242806e+002;0.000000e+000
4.262091e+002;0.000000e+000
4.281377e+002;0.000000e+000
4.300662e+002;0.000000e+000
4.319948e+002;0.000000e+000
4.339233e+002;0.000000e+000
4.358519e+002;0.000000e+000
4.377804e+002;0.000000e+000
4.397090e+002;0.000000e+000
4.416375e+002;0.000000e+000
4.435660e+002;0.000000e+000
4.454946e+002;0.000000e+000
4.474232e+002;0.000000e+000
4.493517e+002;0.000000e+000
4.512802e+002;0.000000e+000
4.532088e+002;0.000000e+000
4.551373e+002;0.000000e+000
4.570659e+002;0.000000e+000
4.589944e+002;0.000000e+000
4.609230e+002;0.000000e+000
4.628515e+002;0.000000e+000
4.647801e+002;0.000000e+000
4.667086e+002;0.000000e+000
4.686372e+002;0.000000e+000
4.705657e+002;0.000000e+000
4.724943e+002;0.000000e+000
4.744228e+002;0.000000e+000
4.763513e+002;0.000000e+000
4.782799e+002;0.000000e+000
4.802085e+002;0.000000e+000
4.821370e+002;0.000000e+000
4.840656e+002;0.000000e+000
4.859941e+002;0.000000e+000
4.879226e+002;0.000000e+000
4.898512e+002;0.000000e+000
4.917798e+002;0.000000e+000
4.937083e+002;0.000000e+000
4.956368e+002;0.000000e+000
4.975654e+002;0.000000e+000
4.994939e+002;0.000000e+000
5.014225e+002;0.000000e+000
5.033510e+002;0.000000e+000
5.052796e+002;0.000000e+000
5.072081e+002;0.000000e+000
5.091367e+002;0.000000e+000
5.110652e+002;0.000000e+000
5.129938e+002;0.000000e+000
5.149223e+002;0.000000e+000
5.168509e+002;0.000000e+000
5.187794e+002;0.000000e+000
5.207079e+002;0.000000e+000
5.226365e+002;0.000000e+000
5.245651e+002;0.000000e+000
5.264936e+002;0.000000e+000
5.284222e+002;0.000000e+000
5.303507e+002;0.000000e+000
5.322792e+002;0.000000e+000
5.342078e+002;0.000000e+000
5.361364e+002;0.000000e+000
5.380649e+002;0.000000e+000
5.399935e+002;0.000000e+000
5.419220e+002;0.000000e+000
5.438505e+002;0.000000e+000
5.457791e+002;0.000000e+000
5.477076e+002;0.000000e+000
5.496362e+002;0.000000e+000
5.515648e+002;0.000000e+000
5.534933e+002;0.000000e+000
5.554218e+002;0.000000e+000
5.573504e+002;0.000000e+000
5.592789e+002;0.000000e+000
5.612075e+002;0.000000e+000
5.631360e+002;0.000000e+000
5.650646e+002;0.000000e+000
5.669931e+002;0.000000e+000
5.689217e+002;0.000000e+000
5.708502e+002;0.000000e+000
5.727787e+002;0.000000e+000
5.747073e+002;0.000000e+000
5.766359e+002;0.000000e+000
5.785644e+002;0.000000e+000
5.804930e+002;0.000000e+000
5.824215e+002;0.000000e+000
5.843500e+002;0.000000e+000
5.862786e+002;0.000000e+000
5.882072e+002;0.000000e+000
5.901357e+002;0.000000e+000
5.920643e+002;0.000000e+000
5.939928e+002;0.000000e+000
5.959213e+002;0.000000e+000
5.978499e+002;0.000000e+000
5.997784e+002;1.718367e-002
6.017070e+002;2.552941e-002
6.036355e+002;2.777828e-002
6.055641e+002;2.708126e-002
6.074926e+002;2.871347e-002
6.094211e+002;2.998931e-002
6.113497e+002;3.399279e-002
6.132783e+002;3.237879e-002
6.152068e+002;2.788161e-002
6.171354e+002;2.919158e-002
6.190639e+002;2.995757e-002
6.209924e+002;2.890941e-002
6.229210e+002;3.106883e-002
6.248495e+002;2.943883e-002
6.267781e+002;2.788465e-002
6.287067e+002;2.737982e-002
6.306352e+002;2.796087e-002
6.325637e+002;2.912694e-002
6.344923e+002;3.306342e-002
6.364208e+002;3.661007e-002
6.383494e+002;3.527851e-002
6.402780e+002;3.058837e-002
6.422065e+002;2.786904e-002
6.441350e+002;3.002250e-002
6.460636e+002;3.021335e-002
6.479921e+002;3.022433e-002
6.499207e+002;3.088686e-002
6.518492e+002;2.941613e-002
6.537778e+002;2.746717e-002
6.557063e+002;2.743399e-002
6.576349e+002;2.873775e-002
6.595634e+002;2.801194e-002
6.614919e+002;2.702935e-002
6.634205e+002;2.658190e-002
6.653491e+002;2.612544e-002
6.672776e+002;2.597591e-002
6.692062e+002;2.613336e-002
6.711347e+002;2.624133e-002
6.730632e+002;2.603730e-002
6.749918e+002;2.679503e-002
6.769203e+002;2.739799e-002
6.788489e+002;2.656006e-002
6.807775e+002;2.558837e-002
6.827060e+002;2.555228e-002
6.846345e+002;2.660768e-002
6.865631e+002;2.657144e-002
6.884916e+002;2.507953e-002
6.904202e+002;2.424661e-002
6.923488e+002;2.455525e-002
6.942773e+002;2.524932e-002
6.962058e+002;2.559804e-002
6.981344e+002;2.543454e-002
7.000629e+002;2.568110e-002
7.019915e+002;2.640623e-002
7.039200e+002;2.823500e-002
7.058486e+002;2.966241e-002
7.077771e+002;3.205562e-002
7.097057e+002;3.624372e-002
7.116342e+002;4.126573e-002
7.135627e+002;4.449952e-002
7.154913e+002;4.491049e-002
7.174199e+002;4.291098e-002
7.193484e+002;3.919727e-002
7.212770e+002;3.542944e-002
7.232055e+002;3.322381e-002
7.251340e+002;3.152478e-002
7.270626e+002;2.968125e-002
7.289911e+002;2.882750e-002
7.309197e+002;2.905711e-002
7.328483e+002;2.782936e-002
7.347768e+002;2.639391e-002
7.367053e+002;2.575025e-002
7.386339e+002;2.563983e-002
7.405624e+002;2.647961e-002
7.424910e+002;2.723505e-002
7.444196e+002;2.692587e-002
7.463481e+002;2.672444e-002
7.482766e+002;2.621659e-002
7.502052e+002;2.566683e-002
7.521337e+002;2.502049e-002
7.540623e+002;2.538293e-002
7.559908e+002;2.562197e-002
7.579194e+002;2.524992e-002
7.598479e+002;2.524943e-002
7.617765e+002;2.528715e-002
7.637050e+002;2.569199e-002
7.656335e+002;2.629783e-002
7.675621e+002;2.673177e-002
7.694907e+002;2.692093e-002
7.714192e+002;2.615211e-002
7.733478e+002;2.575278e-002
7.752763e+002;2.573137e-002
7.772048e+002;2.566391e-002
7.791334e+002;2.643426e-002
7.810620e+002;2.698563e-002
7.829905e+002;2.669199e-002
7.849191e+002;2.718883e-002
7.868476e+002;2.857278e-002
7.887761e+002;2.966763e-002
7.907047e+002;3.016334e-002
7.926332e+002;3.068952e-002
7.945618e+002;3.096559e-002
7.964903e+002;3.167245e-002
7.984189e+002;3.295727e-002
8.003474e+002;3.410149e-002
8.022759e+002;3.574570e-002
8.042045e+002;3.963193e-002
8.061331e+002;4.469431e-002
8.080616e+002;4.826916e-002
8.099902e+002;4.999916e-002
8.119187e+002;4.943488e-002
8.138472e+002;4.684277e-002
8.157758e+002;4.339221e-002
8.177043e+002;4.034021e-002
8.196329e+002;3.879949e-002
8.215615e+002;3.769218e-002
8.234900e+002;3.658383e-002
8.254185e+002;3.668841e-002
8.273471e+002;3.754137e-002
8.292756e+002;3.830501e-002
8.312042e+002;3.896648e-002
8.331328e+002;4.090349e-002
8.350613e+002;4.458492e-002
8.369898e+002;4.916018e-002
8.389184e+002;5.520790e-002
8.408469e+002;5.943866e-002
8.427755e+002;5.766951e-002
8.447040e+002;5.234099e-002
8.466326e+002;4.872241e-002
8.485611e+002;4.509462e-002
8.504897e+002;4.169594e-002
8.524182e+002;4.028324e-002
8.543467e+002;3.923154e-002
8.562753e+002;3.855396e-002
8.582039e+002;3.950087e-002
8.601324e+002;4.080553e-002
8.620610e+002;4.245279e-002
8.639895e+002;4.512450e-002
8.659180e+002;4.896368e-002
8.678466e+002;5.574756e-002
8.697751e+002;6.630016e-002
8.717037e+002;7.880188e-002
8.736323e+002;8.928254e-002
8.755608e+002;9.251920e-002
8.774893e+002;8.636373e-002
8.794179e+002;7.523254e-002
8.813464e+002;6.537262e-002
8.832750e+002;5.651056e-002
8.852036e+002;4.653418e-002
8.871321e+002;3.820663e-002
8.890606e+002;3.435266e-002
8.909892e+002;3.456354e-002
8.929177e+002;3.730387e-002
8.948463e+002;4.127561e-002
8.967748e+002;4.539258e-002
8.987034e+002;4.803753e-002
9.006319e+002;4.785115e-002
9.025605e+002;4.449802e-002
9.044890e+002;3.973202e-002
9.064175e+002;3.562757e-002
9.083461e+002;3.251189e-002
9.102747e+002;3.030135e-002
9.122032e+002;2.843041e-002
9.141318e+002;2.726069e-002
9.160603e+002;2.678569e-002
9.179888e+002;2.673022e-002
9.199174e+002;2.627164e-002
9.218459e+002;2.583706e-002
9.237745e+002;2.618020e-002
9.257031e+002;2.645123e-002
9.276316e+002;2.637831e-002
9.295601e+002;2.651328e-002
9.314887e+002;2.704874e-002
9.334172e+002;2.806877e-002
9.353458e+002;2.944191e-002
9.372744e+002;3.113450e-002
9.392029e+002;3.304236e-002
9.411314e+002;3.407073e-002
9.430600e+002;3.367813e-002
9.449885e+002;3.270841e-002
9.469171e+002;3.236665e-002
9.488456e+002;3.299209e-002
9.507742e+002;3.398075e-002
9.527027e+002;3.444067e-002
9.546313e+002;3.517247e-002
9.565598e+002;3.615758e-002
9.584883e+002;3.711288e-002
9.604169e+002;3.853781e-002
9.623455e+002;4.058912e-002
9.642740e+002;4.345028e-002
9.662026e+002;4.729479e-002
9.681311e+002;5.293874e-002
9.700596e+002;5.957971e-002
9.719882e+002;6.422188e-002
9.739167e+002;6.432972e-002
9.758453e+002;5.971257e-002
9.777739e+002;5.278740e-002
9.797024e+002;4.545148e-002
9.816309e+002;3.909948e-002
9.835595e+002;3.478902e-002
9.854880e+002;3.290216e-002
9.874166e+002;3.286674e-002
9.893452e+002;3.457498e-002
9.912737e+002;3.852387e-002
9.932022e+002;4.398263e-002
9.951307e+002;4.975304e-002
9.970593e+002;5.385875e-002
9.989879e+002;5.388448e-002
1.000916e+003;4.987277e-002
1.002845e+003;4.378403e-002
1.004773e+003;3.852307e-002
1.006702e+003;3.484097e-002
1.008631e+003;3.213407e-002
1.010559e+003;3.025182e-002
1.012488e+003;2.917446e-002
1.014416e+003;2.860552e-002
1.016345e+003;2.794433e-002
1.018273e+003;2.705075e-002
1.020202e+003;2.648219e-002
1.022130e+003;2.618502e-002
1.024059e+003;2.605887e-002
1.025988e+003;2.591689e-002
1.027916e+003;2.575788e-002
1.029845e+003;2.598643e-002
1.031773e+003;2.634225e-002
1.033702e+003;2.644862e-002
1.035630e+003;2.691275e-002
1.037559e+003;2.717765e-002
1.039487e+003;2.749258e-002
1.041416e+003;2.830095e-002
1.043344e+003;2.871032e-002
1.045273e+003;2.850523e-002
1.047202e+003;2.864954e-002
1.049130e+003;2.866837e-002
1.051059e+003;2.790882e-002
1.052987e+003;2.681410e-002
1.054916e+003;2.542888e-002
1.056844e+003;2.434091e-002
1.058773e+003;2.398819e-002
1.060701e+003;2.381871e-002
1.062630e+003;2.340623e-002
1.064558e+003;2.343669e-002
1.066487e+003;2.339050e-002
1.068416e+003;2.309362e-002
1.070344e+003;2.348076e-002
1.072273e+003;2.375529e-002
1.074201e+003;2.334218e-002
1.076130e+003;2.315163e-002
1.078058e+003;2.351713e-002
1.079987e+003;2.358615e-002
1.081915e+003;2.348300e-002
1.083844e+003;2.384146e-002
1.085773e+003;2.444994e-002
1.087701e+003;2.513903e-002
1.089630e+003;2.543461e-002
1.091558e+003;2.556746e-002
1.093487e+003;2.638556e-002
1.095415e+003;2.776324e-002
1.097344e+003;2.957376e-002
1.099272e+003;3.127635e-002
1.101201e+003;3.255089e-002
1.103129e+003;3.259775e-002
1.105058e+003;3.116476e-002
1.106987e+003;2.910817e-002
1.108915e+003;2.646997e-002
1.110844e+003;2.420793e-002
1.112772e+003;2.288701e-002
1.114701e+003;2.246872e-002
1.116629e+003;2.231623e-002
1.118558e+003;2.198317e-002
1.120486e+003;2.223552e-002
1.122415e+003;2.207872e-002
1.124344e+003;2.138600e-002
1.126272e+003;2.101220e-002
1.128201e+003;2.163114e-002
1.130129e+003;2.208677e-002
1.132058e+003;2.229345e-002
1.133986e+003;2.336826e-002
1.135915e+003;2.513893e-002
1.137843e+003;2.698968e-002
1.139772e+003;2.925640e-002
1.141700e+003;3.198995e-002
1.143629e+003;3.543206e-002
1.145557e+003;3.902240e-002
1.147486e+003;4.268193e-002
1.149415e+003;4.662481e-002
1.151343e+003;5.010322e-002
1.153272e+003;5.201207e-002
1.155200e+003;5.310750e-002
1.157129e+003;5.335493e-002
1.159057e+003;5.334226e-002
1.160986e+003;5.363698e-002
1.162914e+003;5.381029e-002
1.164843e+003;5.330027e-002
1.166771e+003;5.202866e-002
1.168700e+003;4.930914e-002
1.170629e+003;4.543323e-002
1.172557e+003;4.076422e-002
1.174486e+003;3.579226e-002
1.176414e+003;3.151163e-002
1.178343e+003;2.789755e-002
1.180271e+003;2.518204e-002
1.182200e+003;2.341068e-002
1.184128e+003;2.172679e-002
1.186057e+003;2.042866e-002
1.187986e+003;2.011419e-002
1.189914e+003;2.030282e-002
1.191843e+003;2.051014e-002
1.193771e+003;2.065224e-002
1.195700e+003;2.088483e-002
1.197628e+003;2.092377e-002
1.199557e+003;2.096331e-002
1.201485e+003;2.089568e-002
1.203414e+003;2.095006e-002
1.205343e+003;2.133682e-002
1.207271e+003;2.185921e-002
1.209200e+003;2.275679e-002
1.211128e+003;2.406369e-002
1.213057e+003;2.585165e-002
1.214985e+003;2.757290e-002
1.216914e+003;2.874186e-002
1.218842e+003;2.896069e-002
1.220771e+003;2.822962e-002
1.222699e+003;2.672321e-002
1.224628e+003;2.527566e-002
1.226557e+003;2.404233e-002
1.228485e+003;2.318155e-002
1.230414e+003;2.294412e-002
1.232342e+003;2.298220e-002
1.234271e+003;2.310173e-002
1.236199e+003;2.337592e-002
1.238128e+003;2.356751e-002
1.240056e+003;2.403476e-002
1.241985e+003;2.444170e-002
1.243913e+003;2.457419e-002
1.245842e+003;2.471176e-002
1.247771e+003;2.527197e-002
1.249699e+003;2.667688e-002
1.251628e+003;2.913867e-002
1.253556e+003;3.226810e-002
1.255485e+003;3.431242e-002
1.257413e+003;3.367516e-002
1.259342e+003;3.130390e-002
1.261270e+003;2.903876e-002
1.263199e+003;2.715423e-002
1.265127e+003;2.615866e-002
1.267056e+003;2.587181e-002
1.268985e+003;2.544483e-002
1.270913e+003;2.500280e-002
1.272842e+003;2.504586e-002
1.274770e+003;2.512566e-002
1.276699e+003;2.538722e-002
1.278627e+003;2.569625e-002
1.280556e+003;2.607178e-002
1.282484e+003;2.717758e-002
1.284413e+003;2.849543e-002
1.286342e+003;2.988767e-002
1.288270e+003;3.180481e-002
1.290199e+003;3.394708e-002
1.292127e+003;3.598098e-002
1.294056e+003;3.739794e-002
1.295984e+003;3.811021e-002
1.297913e+003;3.794374e-002
1.299841e+003;3.789778e-002
1.301770e+003;3.913595e-002
1.303698e+003;4.078009e-002
1.305627e+003;4.075868e-002
1.307556e+003;3.830172e-002
1.309484e+003;3.522345e-002
1.311413e+003;3.335964e-002
1.313341e+003;3.277051e-002
1.315270e+003;3.316930e-002
1.317198e+003;3.430618e-002
1.319127e+003;3.570797e-002
1.321055e+003;3.757869e-002
1.322984e+003;4.009536e-002
1.324912e+003;4.306331e-002
1.326841e+003;4.590017e-002
1.328770e+003;4.749246e-002
1.330698e+003;4.752788e-002
1.332627e+003;4.653702e-002
1.334555e+003;4.528647e-002
1.336484e+003;4.445551e-002
1.338412e+003;4.428802e-002
1.340341e+003;4.498204e-002
1.342269e+003;4.669682e-002
1.344198e+003;4.899821e-002
1.346126e+003;5.169155e-002
1.348055e+003;5.486605e-002
1.349984e+003;5.871362e-002
1.351912e+003;6.389835e-002
1.353841e+003;7.128768e-002
1.355769e+003;7.999594e-002
1.357698e+003;8.677957e-002
1.359626e+003;8.910038e-002
1.361555e+003;8.792625e-002
1.363483e+003;8.758260e-002
1.365412e+003;9.074809e-002
1.367341e+003;9.903803e-002
1.369269e+003;1.151741e-001
1.371198e+003;1.391044e-001
1.373126e+003;1.664693e-001
1.375055e+003;1.886371e-001
1.376983e+003;1.929443e-001
1.378912e+003;1.759276e-001
1.380840e+003;1.484709e-001
1.382769e+003;1.211489e-001
1.384698e+003;9.927192e-002
1.386626e+003;8.413302e-002
1.388555e+003;7.645348e-002
1.390483e+003;7.347295e-002
1.392412e+003;7.163391e-002
1.394340e+003;7.106452e-002
1.396269e+003;7.285487e-002
1.398197e+003;7.494532e-002
1.400126e+003;7.756811e-002
1.402054e+003;8.035333e-002
1.403983e+003;8.193959e-002
1.405911e+003;8.389601e-002
1.407840e+003;8.664186e-002
1.409769e+003;8.898585e-002
1.411697e+003;9.118025e-002
1.413626e+003;9.380423e-002
1.415554e+003;9.590523e-002
1.417483e+003;9.610490e-002
1.419411e+003;9.686036e-002
1.421340e+003;1.004055e-001
1.423268e+003;1.031803e-001
1.425197e+003;1.056660e-001
1.427125e+003;1.086201e-001
1.429054e+003;1.123226e-001
1.430983e+003;1.183363e-001
1.432911e+003;1.250597e-001
1.434840e+003;1.275096e-001
1.436768e+003;1.267496e-001
1.438697e+003;1.286237e-001
1.440625e+003;1.313629e-001
1.442554e+003;1.352214e-001
1.444482e+003;1.416494e-001
1.446411e+003;1.493888e-001
1.448340e+003;1.569536e-001
1.450268e+003;1.631204e-001
1.452197e+003;1.662151e-001
1.454125e+003;1.654399e-001
1.456054e+003;1.601061e-001
1.457982e+003;1.579191e-001
1.459911e+003;1.584671e-001
1.461839e+003;1.548692e-001
1.463768e+003;1.470527e-001
1.465697e+003;1.383823e-001
1.467625e+003;1.298335e-001
1.469554e+003;1.193700e-001
1.471482e+003;1.072485e-001
1.473411e+003;9.820811e-002
1.475339e+003;9.295338e-002
1.477268e+003;8.818058e-002
1.479196e+003;8.381454e-002
1.481125e+003;7.956470e-002
1.483053e+003;7.618105e-002
1.484982e+003;7.263399e-002
1.486911e+003;6.866548e-002
1.488839e+003;6.516525e-002
1.490768e+003;6.347490e-002
1.492696e+003;6.295344e-002
1.494625e+003;5.961563e-002
1.496553e+003;5.613398e-002
1.498482e+003;5.578346e-002
1.500410e+003;5.587031e-002
1.502339e+003;5.461540e-002
1.504267e+003;4.924011e-002
1.506196e+003;4.325785e-002
1.508125e+003;4.429238e-002
1.510053e+003;4.677003e-002
1.511982e+003;4.631192e-002
1.513910e+003;4.540145e-002
1.515839e+003;4.321619e-002
1.517767e+003;4.108348e-002
1.519696e+003;3.793456e-002
1.521624e+003;3.579190e-002
1.523553e+003;3.698708e-002
1.525481e+003;3.714128e-002
1.527410e+003;3.732835e-002
1.529339e+003;3.753483e-002
1.531267e+003;3.626537e-002
1.533196e+003;3.415457e-002
1.535124e+003;3.432472e-002
1.537053e+003;3.182627e-002
1.538981e+003;2.602594e-002
1.540910e+003;2.567941e-002
1.542838e+003;2.849543e-002
1.544767e+003;2.979018e-002
1.546695e+003;3.061464e-002
1.548624e+003;3.007928e-002
1.550553e+003;2.920437e-002
1.552481e+003;2.722926e-002
1.554410e+003;2.463878e-002
1.556338e+003;2.160635e-002
1.558267e+003;1.622013e-002
1.560195e+003;1.755743e-002
1.562124e+003;2.329533e-002
1.564052e+003;2.478918e-002
1.565981e+003;2.429549e-002
1.567910e+003;2.289896e-002
1.569838e+003;2.209876e-002
1.571767e+003;2.344446e-002
1.573695e+003;2.217303e-002
1.575624e+003;1.904065e-002
1.577552e+003;2.090994e-002
1.579481e+003;2.354305e-002
1.581409e+003;2.337239e-002
1.583338e+003;2.296931e-002
1.585266e+003;2.253879e-002
1.587195e+003;2.194856e-002
1.589124e+003;2.137720e-002
1.591052e+003;2.113954e-002
1.592981e+003;2.060089e-002
1.594909e+003;2.016361e-002
1.596838e+003;2.030962e-002
1.598766e+003;2.027744e-002
1.600695e+003;1.965449e-002
1.602623e+003;1.922856e-002
1.604552e+003;1.934537e-002
1.606480e+003;1.930043e-002
1.608409e+003;1.892081e-002
1.610338e+003;1.866695e-002
1.612266e+003;1.873756e-002
1.614195e+003;1.702141e-002
1.616123e+003;1.396977e-002
1.618052e+003;1.550936e-002
1.619980e+003;1.780982e-002
1.621909e+003;1.676288e-002
1.623837e+003;1.607484e-002
1.625766e+003;1.694106e-002
1.627694e+003;1.728889e-002
1.629623e+003;1.787669e-002
1.631552e+003;1.816439e-002
1.633480e+003;1.556036e-002
1.635409e+003;1.273819e-002
1.637337e+003;1.499163e-002
1.639266e+003;1.755681e-002
1.641194e+003;1.799627e-002
1.643123e+003;1.713993e-002
1.645051e+003;1.431625e-002
1.646980e+003;1.371017e-002
1.648909e+003;1.596153e-002
1.650837e+003;1.248438e-002
1.652766e+003;6.771942e-003
1.654694e+003;1.120913e-002
1.656623e+003;1.666123e-002
1.658551e+003;1.762944e-002
1.660480e+003;1.644644e-002
1.662408e+003;1.508469e-002
1.664337e+003;1.602083e-002
1.666266e+003;1.608202e-002
1.668194e+003;1.376698e-002
1.670123e+003;1.315510e-002
1.672051e+003;1.409050e-002
1.673980e+003;1.273898e-002
1.675908e+003;1.258233e-002
1.677837e+003;1.434677e-002
1.679765e+003;1.402856e-002
1.681694e+003;1.187451e-002
1.683622e+003;7.461873e-003
1.685551e+003;8.565703e-003
1.687479e+003;1.251657e-002
1.689408e+003;1.328340e-002
1.691337e+003;1.355474e-002
1.693265e+003;1.176627e-002
1.695194e+003;7.654289e-003
1.697122e+003;7.866898e-003
1.699051e+003;6.529123e-003
1.700979e+003;6.576149e-003
1.702908e+003;1.061286e-002
1.704836e+003;1.084031e-002
1.706765e+003;1.129669e-002
1.708693e+003;1.210920e-002
1.710622e+003;1.215765e-002
1.712551e+003;1.130991e-002
1.714479e+003;9.186402e-003
1.716408e+003;5.860351e-003
1.718336e+003;6.417567e-003
1.720265e+003;1.009914e-002
1.722193e+003;1.135073e-002
1.724122e+003;1.143665e-002
1.726050e+003;1.199276e-002
1.727979e+003;1.176253e-002
1.729908e+003;1.110432e-002
1.731836e+003;8.746471e-003
1.733765e+003;6.438585e-003
1.735693e+003;9.820293e-003
1.737622e+003;1.229877e-002
1.739550e+003;1.166136e-002
1.741479e+003;1.194303e-002
1.743407e+003;1.177029e-002
1.745336e+003;1.127781e-002
1.747265e+003;1.017176e-002
1.749193e+003;8.178495e-003
1.751122e+003;6.768576e-003
1.753050e+003;7.633920e-003
1.754979e+003;7.561492e-003
1.756907e+003;6.789342e-003
1.758836e+003;6.677079e-003
1.760764e+003;5.457662e-003
1.762693e+003;5.004328e-003
1.764621e+003;5.600419e-003
1.766550e+003;4.732782e-003
1.768479e+003;4.013292e-003
1.770407e+003;2.711255e-003
1.772336e+003;1.159515e-003
1.774264e+003;2.710488e-003
1.776193e+003;4.276658e-003
1.778121e+003;4.324879e-003
1.780050e+003;3.753494e-003
1.781978e+003;3.806270e-003
1.783907e+003;4.029812e-003
1.785835e+003;4.669813e-003
1.787764e+003;5.431155e-003
1.789693e+003;4.979726e-003
1.791621e+003;4.260998e-003
1.793550e+003;5.951004e-003
1.795478e+003;8.319651e-003
1.797407e+003;8.722097e-003
1.799335e+003;8.062228e-003
1.801264e+003;7.667239e-003
1.803192e+003;7.681740e-003
1.805121e+003;6.929541e-003
1.807049e+003;5.884700e-003
1.808978e+003;4.503053e-003
1.810907e+003;3.514395e-003
1.812835e+003;3.320432e-003
1.814764e+003;3.231962e-003
1.816692e+003;3.120248e-003
1.818621e+003;3.210832e-003
1.820549e+003;3.056110e-003
1.822478e+003;2.658012e-003
1.824406e+003;1.973567e-003
1.826335e+003;2.028324e-003
1.828264e+003;1.730123e-003
1.830192e+003;1.469892e-003
1.832121e+003;2.288057e-003
1.834049e+003;2.893605e-003
1.835978e+003;2.814660e-003
1.837906e+003;2.640210e-003
1.839835e+003;2.584876e-003
1.841763e+003;1.457026e-003
1.843692e+003;-1.617965e-004
1.845620e+003;6.190203e-004
1.847549e+003;1.779493e-003
1.849478e+003;2.042938e-003
1.851406e+003;2.076263e-003
1.853335e+003;1.862543e-003
1.855263e+003;1.600503e-003
1.857192e+003;1.438442e-003
1.859120e+003;1.482692e-003
1.861049e+003;1.520629e-003
1.862977e+003;1.492201e-003
1.864906e+003;1.152771e-003
1.866834e+003;2.526543e-004
1.868763e+003;-3.831917e-004
1.870692e+003;3.282836e-004
1.872620e+003;1.070786e-003
1.874549e+003;1.185197e-003
1.876477e+003;1.153967e-003
1.878406e+003;1.019338e-003
1.880334e+003;1.063313e-003
1.882263e+003;1.058629e-003
1.884191e+003;1.048167e-003
1.886120e+003;1.174532e-003
1.888048e+003;9.482704e-004
1.889977e+003;7.485794e-004
1.891906e+003;1.276175e-003
1.893834e+003;1.682089e-003
1.895763e+003;1.721806e-003
1.897691e+003;1.571937e-003
1.899620e+003;1.575961e-003
1.901548e+003;1.681789e-003
1.903477e+003;1.511984e-003
1.905405e+003;1.105897e-003
1.907334e+003;9.427582e-004
1.909262e+003;8.394333e-004
1.911191e+003;9.544137e-004
1.913120e+003;1.132938e-003
1.915048e+003;9.560740e-004
1.916977e+003;1.781983e-004
1.918905e+003;3.026192e-004
1.920834e+003;8.684162e-004
1.922762e+003;6.208453e-004
1.924691e+003;6.025627e-004
1.926619e+003;8.427199e-004
1.928548e+003;8.044770e-004
1.930477e+003;7.262091e-004
1.932405e+003;5.191561e-004
1.934334e+003;3.066312e-004
1.936262e+003;2.924069e-004
1.938191e+003;4.185031e-005
1.940119e+003;-2.572759e-004
1.942048e+003;-2.451227e-004
1.943976e+003;9.769014e-005
1.945905e+003;2.291492e-004
1.947833e+003;3.631643e-005
1.949762e+003;-4.409917e-005
1.951691e+003;1.375612e-004
1.953619e+003;6.836090e-005
1.955548e+003;-3.965963e-005
1.957476e+003;8.280986e-005
1.959405e+003;1.269551e-004
1.961333e+003;2.923738e-004
1.963262e+003;4.355665e-004
1.965190e+003;2.513944e-004
1.967119e+003;-4.161436e-005
1.969047e+003;9.542709e-006
1.970976e+003;2.071371e-004
1.972905e+003;2.970488e-004
1.974833e+003;2.508308e-004
1.976762e+003;1.484990e-004
1.978690e+003;1.413728e-004
1.980619e+003;1.813142e-004
1.982547e+003;8.973625e-005
1.984476e+003;-6.328556e-006
1.986404e+003;-8.623934e-005
1.988333e+003;1.086810e-005
1.990261e+003;-2.100647e-005
1.992190e+003;-3.713069e-004
1.994119e+003;-1.419893e-004
1.996047e+003;3.257198e-005
1.997976e+003;1.518799e-004
1.999904e+003;3.879077e-004
2.001833e+003;4.617031e-004
2.003761e+003;4.956034e-004
2.005690e+003;2.712537e-004
2.007618e+003;9.805469e-005
2.009547e+003;1.119945e-005
2.011476e+003;1.651715e-004
2.013404e+003;5.104647e-004
2.015333e+003;5.685213e-004
2.017261e+003;3.687064e-004
2.019190e+003;2.867704e-004
2.021118e+003;3.294441e-004
2.023047e+003;4.211058e-004
2.024975e+003;5.287766e-004
2.026904e+003;6.963396e-004
2.028833e+003;6.838614e-004
2.030761e+003;5.116257e-004
2.032690e+003;4.693985e-004
2.034618e+003;6.166645e-004
2.036547e+003;6.153372e-004
2.038475e+003;5.597294e-004
2.040404e+003;5.666634e-004
2.042332e+003;6.668040e-004
2.044261e+003;6.703880e-004
2.046189e+003;6.731756e-004
2.048118e+003;8.274157e-004
2.050047e+003;8.505880e-004
2.051975e+003;6.763614e-004
2.053904e+003;5.778111e-004
2.055832e+003;3.644617e-004
2.057761e+003;2.684687e-004
2.059689e+003;2.825928e-004
2.061618e+003;2.922080e-004
2.063546e+003;3.779256e-004
2.065475e+003;4.986884e-004
2.067404e+003;6.292735e-004
2.069332e+003;6.837619e-004
2.071260e+003;7.277027e-004
2.073189e+003;8.815970e-004
2.075118e+003;1.024885e-003
2.077046e+003;1.075769e-003
2.078975e+003;1.071849e-003
2.080903e+003;8.226021e-004
2.082832e+003;6.788503e-004
2.084760e+003;7.285656e-004
2.086689e+003;9.219053e-004
2.088617e+003;1.037837e-003
2.090546e+003;1.249956e-003
2.092475e+003;1.423516e-003
2.094403e+003;1.419693e-003
2.096332e+003;1.243144e-003
2.098260e+003;1.001836e-003
2.100189e+003;1.118819e-003
2.102117e+003;1.265608e-003
2.104046e+003;1.282822e-003
2.105974e+003;1.020135e-003
2.107903e+003;1.094636e-003
2.109832e+003;1.292891e-003
2.111760e+003;1.299338e-003
2.113688e+003;1.112109e-003
2.115617e+003;1.129649e-003
2.117546e+003;1.343640e-003
2.119474e+003;1.439871e-003
2.121403e+003;1.755539e-003
2.123331e+003;1.935857e-003
2.125260e+003;1.917319e-003
2.127188e+003;2.223609e-003
2.129117e+003;2.423180e-003
2.131045e+003;2.656779e-003
2.132974e+003;2.915720e-003
2.134903e+003;3.022577e-003
2.136831e+003;2.705154e-003
2.138760e+003;2.355214e-003
2.140688e+003;2.361910e-003
2.142617e+003;2.667480e-003
2.144545e+003;2.662479e-003
2.146474e+003;2.404888e-003
2.148402e+003;2.324332e-003
2.150331e+003;2.461132e-003
2.152260e+003;2.778577e-003
2.154188e+003;2.924794e-003
2.156117e+003;2.913786e-003
2.158045e+003;3.142208e-003
2.159974e+003;3.191506e-003
2.161902e+003;3.207995e-003
2.163831e+003;3.324506e-003
2.165759e+003;3.276362e-003
2.167688e+003;3.247285e-003
2.169616e+003;3.404111e-003
2.171545e+003;3.521777e-003
2.173474e+003;3.625074e-003
2.175402e+003;3.666173e-003
2.177331e+003;3.631055e-003
2.179259e+003;3.477753e-003
2.181188e+003;3.573222e-003
2.183116e+003;3.572353e-003
2.185045e+003;3.427756e-003
2.186973e+003;3.555917e-003
2.188902e+003;3.608803e-003
2.190831e+003;3.423614e-003
2.192759e+003;3.389785e-003
2.194688e+003;3.363438e-003
2.196616e+003;3.409154e-003
2.198545e+003;3.310082e-003
2.200473e+003;3.259569e-003
2.202402e+003;3.414831e-003
2.204330e+003;3.533936e-003
2.206259e+003;3.358630e-003
2.208188e+003;3.152755e-003
2.210116e+003;3.170611e-003
2.212044e+003;3.262274e-003
2.213973e+003;3.409989e-003
2.215902e+003;3.522980e-003
2.217830e+003;3.355191e-003
2.219759e+003;3.353955e-003
2.221687e+003;3.292387e-003
2.223616e+003;3.247752e-003
2.225544e+003;3.570984e-003
2.227473e+003;3.765827e-003
2.229401e+003;3.749384e-003
2.231330e+003;3.719773e-003
2.233259e+003;3.522245e-003
2.235187e+003;3.459483e-003
2.237116e+003;3.546797e-003
2.239044e+003;3.023978e-003
2.240973e+003;2.552879e-003
2.242901e+003;2.918289e-003
2.244830e+003;3.344072e-003
2.246758e+003;3.412560e-003
2.248687e+003;3.566741e-003
2.250615e+003;3.773882e-003
2.252544e+003;3.868714e-003
2.254473e+003;4.155007e-003
2.256401e+003;4.498735e-003
2.258330e+003;4.346063e-003
2.260258e+003;3.908432e-003
2.262187e+003;3.806538e-003
2.264115e+003;3.962229e-003
2.266044e+003;3.964971e-003
2.267972e+003;3.755433e-003
2.269901e+003;3.684250e-003
2.271830e+003;3.748982e-003
2.273758e+003;3.611543e-003
2.275687e+003;3.497059e-003
2.277615e+003;3.423247e-003
2.279544e+003;3.150786e-003
2.281472e+003;3.022043e-003
2.283401e+003;2.985076e-003
2.285329e+003;3.136201e-003
2.287258e+003;3.316325e-003
2.289187e+003;2.940572e-003
2.291115e+003;3.013568e-003
2.293043e+003;3.364574e-003
2.294972e+003;3.209063e-003
2.296901e+003;3.137503e-003
2.298829e+003;3.244814e-003
2.300758e+003;3.329213e-003
2.302686e+003;3.232029e-003
2.304615e+003;3.188101e-003
2.306543e+003;3.417403e-003
2.308472e+003;3.690499e-003
2.310400e+003;3.451067e-003
2.312329e+003;3.067823e-003
2.314258e+003;3.076766e-003
2.316186e+003;3.197514e-003
2.318115e+003;3.396397e-003
2.320043e+003;3.605963e-003
2.321972e+003;3.784009e-003
2.323900e+003;3.745440e-003
2.325829e+003;3.545294e-003
2.327757e+003;3.506746e-003
2.329686e+003;3.514629e-003
2.331615e+003;3.481561e-003
2.333543e+003;3.575861e-003
2.335472e+003;3.595639e-003
2.337400e+003;3.777626e-003
2.339329e+003;4.237977e-003
2.341257e+003;4.479853e-003
2.343186e+003;4.227103e-003
2.345114e+003;4.162802e-003
2.347043e+003;4.551467e-003
2.348971e+003;4.827724e-003
2.350900e+003;4.661674e-003
2.352829e+003;4.569113e-003
2.354757e+003;4.495587e-003
2.356686e+003;4.516110e-003
2.358614e+003;4.691516e-003
2.360543e+003;5.075761e-003
2.362471e+003;5.234356e-003
2.364400e+003;5.093897e-003
2.366328e+003;5.000842e-003
2.368257e+003;5.066542e-003
2.370186e+003;5.222988e-003
2.372114e+003;5.249582e-003
2.374042e+003;5.282617e-003
2.375971e+003;5.319009e-003
2.377900e+003;5.309751e-003
2.379828e+003;5.538397e-003
2.381757e+003;5.480277e-003
2.383685e+003;5.300125e-003
2.385614e+003;5.645800e-003
2.387542e+003;5.961518e-003
2.389471e+003;5.971327e-003
2.391399e+003;5.902702e-003
2.393328e+003;5.827708e-003
2.395257e+003;5.958495e-003
2.397185e+003;5.912845e-003
2.399114e+003;5.913047e-003
2.401042e+003;6.115867e-003
2.402971e+003;6.269430e-003
2.404899e+003;6.187181e-003
2.406828e+003;5.925475e-003
2.408756e+003;5.800810e-003
2.410685e+003;6.102123e-003
2.412614e+003;6.286239e-003
2.414542e+003;6.372475e-003
2.416471e+003;6.615576e-003
2.418399e+003;6.619781e-003
2.420328e+003;6.454525e-003
2.422256e+003;6.532386e-003
2.424185e+003;6.638588e-003
2.426113e+003;6.722842e-003
2.428042e+003;6.978227e-003
2.429970e+003;7.061233e-003
2.431899e+003;6.983345e-003
2.433828e+003;6.833770e-003
2.435756e+003;6.563298e-003
2.437685e+003;6.191549e-003
2.439613e+003;5.810414e-003
2.441542e+003;5.801716e-003
2.443470e+003;6.091942e-003
2.445399e+003;6.031059e-003
2.447327e+003;5.957218e-003
2.449256e+003;6.078266e-003
2.451185e+003;5.983454e-003
2.453113e+003;5.860115e-003
2.455042e+003;5.910797e-003
2.456970e+003;5.940926e-003
2.458899e+003;5.957655e-003
2.460827e+003;5.847421e-003
2.462756e+003;5.826096e-003
2.464684e+003;5.681552e-003
2.466613e+003;5.459238e-003
2.468542e+003;5.600822e-003
2.470470e+003;5.879561e-003
2.472398e+003;6.131123e-003
2.474327e+003;6.200154e-003
2.476256e+003;6.152160e-003
2.478184e+003;6.387001e-003
2.480113e+003;6.650969e-003
2.482041e+003;6.612212e-003
2.483970e+003;6.721631e-003
2.485898e+003;7.110102e-003
2.487827e+003;7.328375e-003
2.489755e+003;7.649196e-003
2.491684e+003;7.904283e-003
2.493613e+003;8.042785e-003
2.495541e+003;8.260144e-003
2.497470e+003;8.581722e-003
2.499398e+003;8.948590e-003
2.501327e+003;9.052983e-003
2.503255e+003;9.088879e-003
2.505184e+003;9.634673e-003
2.507112e+003;1.041750e-002
2.509041e+003;1.086695e-002
2.510969e+003;1.093184e-002
2.512898e+003;1.119495e-002
2.514827e+003;1.164697e-002
2.516755e+003;1.197907e-002
2.518684e+003;1.237551e-002
2.520612e+003;1.254965e-002
2.522541e+003;1.260695e-002
2.524469e+003;1.281466e-002
2.526398e+003;1.269186e-002
2.528326e+003;1.259573e-002
2.530255e+003;1.272820e-002
2.532184e+003;1.254075e-002
2.534112e+003;1.223075e-002
2.536041e+003;1.193704e-002
2.537969e+003;1.151765e-002
2.539898e+003;1.161184e-002
2.541826e+003;1.199344e-002
2.543755e+003;1.196807e-002
2.545683e+003;1.186583e-002
2.547612e+003;1.200192e-002
2.549541e+003;1.218794e-002
2.551469e+003;1.226779e-002
2.553397e+003;1.237575e-002
2.555326e+003;1.257404e-002
2.557255e+003;1.291610e-002
2.559183e+003;1.333362e-002
2.561112e+003;1.347636e-002
2.563040e+003;1.349291e-002
2.564969e+003;1.382714e-002
2.566897e+003;1.430755e-002
2.568826e+003;1.476769e-002
2.570754e+003;1.514209e-002
2.572683e+003;1.598789e-002
2.574612e+003;1.710695e-002
2.576540e+003;1.788484e-002
2.578469e+003;1.844170e-002
2.580397e+003;1.883308e-002
2.582326e+003;1.879530e-002
2.584254e+003;1.838362e-002
2.586183e+003;1.771582e-002
2.588111e+003;1.684519e-002
2.590040e+003;1.614041e-002
2.591969e+003;1.557832e-002
2.593897e+003;1.527074e-002
2.595826e+003;1.522852e-002
2.597754e+003;1.505200e-002
2.599683e+003;1.488063e-002
2.601611e+003;1.493364e-002
2.603540e+003;1.519510e-002
2.605468e+003;1.559147e-002
2.607397e+003;1.598999e-002
2.609325e+003;1.649858e-002
2.611254e+003;1.727659e-002
2.613183e+003;1.773160e-002
2.615111e+003;1.763987e-002
2.617040e+003;1.736496e-002
2.618968e+003;1.722001e-002
2.620897e+003;1.696938e-002
2.622825e+003;1.698255e-002
2.624754e+003;1.699364e-002
2.626682e+003;1.671185e-002
2.628611e+003;1.645016e-002
2.630540e+003;1.603417e-002
2.632468e+003;1.584525e-002
2.634396e+003;1.579859e-002
2.636325e+003;1.574798e-002
2.638254e+003;1.565704e-002
2.640182e+003;1.593392e-002
2.642111e+003;1.655228e-002
2.644039e+003;1.694006e-002
2.645968e+003;1.721198e-002
2.647896e+003;1.772062e-002
2.649825e+003;1.808697e-002
2.651753e+003;1.831453e-002
2.653682e+003;1.862732e-002
2.655611e+003;1.887859e-002
2.657539e+003;1.914157e-002
2.659468e+003;1.926545e-002
2.661396e+003;1.922482e-002
2.663325e+003;1.923933e-002
2.665253e+003;1.935593e-002
2.667182e+003;1.949696e-002
2.669110e+003;1.956537e-002
2.671039e+003;1.952416e-002
2.672968e+003;1.960326e-002
2.674896e+003;1.994462e-002
2.676825e+003;2.033549e-002
2.678753e+003;2.036563e-002
2.680682e+003;2.025550e-002
2.682610e+003;2.028824e-002
2.684539e+003;2.048562e-002
2.686467e+003;2.046416e-002
2.688396e+003;2.030511e-002
2.690324e+003;2.020006e-002
2.692253e+003;2.027747e-002
2.694182e+003;2.035004e-002
2.696110e+003;2.018496e-002
2.698039e+003;2.009677e-002
2.699967e+003;2.039112e-002
2.701896e+003;2.096390e-002
2.703824e+003;2.142457e-002
2.705753e+003;2.204061e-002
2.707681e+003;2.303013e-002
2.709610e+003;2.412870e-002
2.711539e+003;2.523152e-002
2.713467e+003;2.633254e-002
2.715396e+003;2.775974e-002
2.717324e+003;2.972847e-002
2.719253e+003;3.168240e-002
2.721181e+003;3.298909e-002
2.723110e+003;3.323758e-002
2.725038e+003;3.276561e-002
2.726967e+003;3.198025e-002
2.728896e+003;3.084196e-002
2.730824e+003;2.941826e-002
2.732752e+003;2.800116e-002
2.734681e+003;2.677353e-002
2.736610e+003;2.597039e-002
2.738538e+003;2.524725e-002
2.740467e+003;2.455606e-002
2.742395e+003;2.385970e-002
2.744324e+003;2.292177e-002
2.746252e+003;2.230287e-002
2.748181e+003;2.221787e-002
2.750109e+003;2.214360e-002
2.752038e+003;2.217491e-002
2.753967e+003;2.211285e-002
2.755895e+003;2.222914e-002
2.757824e+003;2.279775e-002
2.759752e+003;2.322230e-002
2.761681e+003;2.381745e-002
2.763609e+003;2.440399e-002
2.765538e+003;2.443515e-002
2.767466e+003;2.487222e-002
2.769395e+003;2.540457e-002
2.771323e+003;2.584441e-002
2.773252e+003;2.629733e-002
2.775181e+003;2.681304e-002
2.777109e+003;2.770231e-002
2.779038e+003;2.861535e-002
2.780966e+003;2.959200e-002
2.782895e+003;3.084342e-002
2.784823e+003;3.232645e-002
2.786752e+003;3.408855e-002
2.788680e+003;3.573753e-002
2.790609e+003;3.749784e-002
2.792538e+003;3.936843e-002
2.794466e+003;4.065446e-002
2.796395e+003;4.190450e-002
2.798323e+003;4.368362e-002
2.800252e+003;4.556606e-002
2.802180e+003;4.750204e-002
2.804109e+003;4.971552e-002
2.806037e+003;5.172599e-002
2.807966e+003;5.361179e-002
2.809895e+003;5.558646e-002
2.811823e+003;5.767106e-002
2.813751e+003;5.991346e-002
2.815680e+003;6.213156e-002
2.817609e+003;6.453765e-002
2.819537e+003;6.735372e-002
2.821466e+003;7.049462e-002
2.823394e+003;7.419462e-002
2.825323e+003;7.932706e-002
2.827251e+003;8.580855e-002
2.829180e+003;9.419610e-002
2.831108e+003;1.040281e-001
2.833037e+003;1.133923e-001
2.834966e+003;1.208393e-001
2.836894e+003;1.251224e-001
2.838823e+003;1.251695e-001
2.840751e+003;1.220205e-001
2.842680e+003;1.173500e-001
2.844608e+003;1.128077e-001
2.846537e+003;1.091794e-001
2.848465e+003;1.064590e-001
2.850394e+003;1.047806e-001
2.852323e+003;1.036472e-001
2.854251e+003;1.030696e-001
2.856180e+003;1.037349e-001
2.858108e+003;1.062679e-001
2.860037e+003;1.104219e-001
2.861965e+003;1.166591e-001
2.863894e+003;1.242064e-001
2.865822e+003;1.305813e-001
2.867751e+003;1.342812e-001
2.869679e+003;1.359762e-001
2.871608e+003;1.372196e-001
2.873536e+003;1.383026e-001
2.875465e+003;1.384324e-001
2.877394e+003;1.368967e-001
2.879322e+003;1.345334e-001
2.881251e+003;1.329064e-001
2.883179e+003;1.323854e-001
2.885108e+003;1.326225e-001
2.887036e+003;1.333141e-001
2.888965e+003;1.350570e-001
2.890893e+003;1.376083e-001
2.892822e+003;1.406959e-001
2.894750e+003;1.443879e-001
2.896679e+003;1.484520e-001
2.898608e+003;1.531724e-001
2.900536e+003;1.586040e-001
2.902465e+003;1.643935e-001
2.904393e+003;1.702413e-001
2.906322e+003;1.752054e-001
2.908250e+003;1.798373e-001
2.910179e+003;1.846528e-001
2.912107e+003;1.887917e-001
2.914036e+003;1.915584e-001
2.915965e+003;1.926219e-001
2.917893e+003;1.923516e-001
2.919822e+003;1.904702e-001
2.921750e+003;1.862745e-001
2.923679e+003;1.809230e-001
2.925607e+003;1.744501e-001
2.927536e+003;1.671662e-001
2.929464e+003;1.592334e-001
2.931393e+003;1.505480e-001
2.933322e+003;1.422116e-001
2.935250e+003;1.348812e-001
2.937178e+003;1.293011e-001
2.939107e+003;1.257140e-001
2.941036e+003;1.247946e-001
2.942964e+003;1.278033e-001
2.944893e+003;1.335643e-001
2.946821e+003;1.401269e-001
2.948750e+003;1.460381e-001
2.950678e+003;1.501101e-001
2.952607e+003;1.514941e-001
2.954535e+003;1.503406e-001
2.956464e+003;1.476358e-001
2.958393e+003;1.440206e-001
2.960321e+003;1.388774e-001
2.962250e+003;1.321098e-001
2.964178e+003;1.246117e-001
2.966107e+003;1.172619e-001
2.968035e+003;1.101948e-001
2.969964e+003;1.032784e-001
2.971892e+003;9.670960e-002
2.973821e+003;9.065259e-002
2.975750e+003;8.516730e-002
2.977678e+003;8.036350e-002
2.979607e+003;7.589908e-002
2.981535e+003;7.172727e-002
2.983464e+003;6.816974e-002
2.985392e+003;6.473775e-002
2.987321e+003;6.137518e-002
2.989249e+003;5.874301e-002
2.991178e+003;5.584868e-002
2.993106e+003;5.265668e-002
2.995035e+003;5.031442e-002
2.996964e+003;4.869424e-002
2.998892e+003;4.648373e-002
3.000821e+003;4.376699e-002
3.002749e+003;4.148175e-002
3.004678e+003;3.939854e-002
3.006606e+003;3.708671e-002
3.008535e+003;3.507094e-002
3.010463e+003;3.354749e-002
3.012392e+003;3.182131e-002
3.014321e+003;3.010052e-002
3.016249e+003;2.866278e-002
3.018177e+003;2.739270e-002
3.020106e+003;2.610876e-002
3.022035e+003;2.480279e-002
3.023963e+003;2.337053e-002
3.025892e+003;2.234773e-002
3.027820e+003;2.149190e-002
3.029749e+003;2.061159e-002
3.031677e+003;1.984781e-002
3.033606e+003;1.912803e-002
3.035534e+003;1.837491e-002
3.037463e+003;1.758048e-002
3.039392e+003;1.699505e-002
3.041320e+003;1.662271e-002
3.043249e+003;1.607580e-002
3.045177e+003;1.560428e-002
3.047106e+003;1.559415e-002
3.049034e+003;1.523734e-002
3.050963e+003;1.480170e-002
3.052891e+003;1.451440e-002
3.054820e+003;1.417382e-002
3.056749e+003;1.391393e-002
3.058677e+003;1.362479e-002
3.060606e+003;1.361228e-002
3.062534e+003;1.360821e-002
3.064463e+003;1.327404e-002
3.066391e+003;1.250337e-002
3.068320e+003;1.196193e-002
3.070248e+003;1.186062e-002
3.072177e+003;1.186321e-002
3.074105e+003;1.188619e-002
3.076034e+003;1.153715e-002
3.077963e+003;1.125397e-002
3.079891e+003;1.116231e-002
3.081820e+003;1.096664e-002
3.083748e+003;1.077740e-002
3.085677e+003;1.105561e-002
3.087605e+003;1.115707e-002
3.089534e+003;1.088291e-002
3.091462e+003;1.065395e-002
3.093391e+003;1.086942e-002
3.095320e+003;1.103001e-002
3.097248e+003;1.102281e-002
3.099177e+003;1.086181e-002
3.101105e+003;1.061195e-002
3.103034e+003;1.057192e-002
3.104962e+003;1.052921e-002
3.106891e+003;1.044835e-002
3.108819e+003;1.053260e-002
3.110748e+003;1.085261e-002
3.112677e+003;1.089107e-002
3.114605e+003;1.052792e-002
3.116533e+003;1.035510e-002
3.118462e+003;1.057945e-002
3.120391e+003;1.079870e-002
3.122319e+003;1.064784e-002
3.124248e+003;1.033334e-002
3.126176e+003;1.052486e-002
3.128105e+003;1.092878e-002
3.130033e+003;1.115871e-002
3.131962e+003;1.135141e-002
3.133890e+003;1.131750e-002
3.135819e+003;1.093160e-002
3.137748e+003;1.094587e-002
3.139676e+003;1.113719e-002
3.141605e+003;1.119236e-002
3.143533e+003;1.125071e-002
3.145462e+003;1.122800e-002
3.147390e+003;1.112838e-002
3.149319e+003;1.128750e-002
3.151247e+003;1.132311e-002
3.153176e+003;1.108701e-002
3.155104e+003;1.133178e-002
3.157033e+003;1.140940e-002
3.158962e+003;1.156199e-002
3.160890e+003;1.140059e-002
3.162819e+003;1.103046e-002
3.164747e+003;1.077013e-002
3.166676e+003;1.069681e-002
3.168604e+003;1.090160e-002
3.170533e+003;1.143913e-002
3.172461e+003;1.165445e-002
3.174390e+003;1.127863e-002
3.176319e+003;1.103589e-002
3.178247e+003;1.110540e-002
3.180176e+003;1.116897e-002
3.182104e+003;1.144716e-002
3.184033e+003;1.144053e-002
3.185961e+003;1.133049e-002
3.187890e+003;1.115041e-002
3.189818e+003;1.126628e-002
3.191747e+003;1.148591e-002
3.193676e+003;1.153068e-002
3.195604e+003;1.146356e-002
3.197532e+003;1.155709e-002
3.199461e+003;1.167828e-002
3.201390e+003;1.163400e-002
3.203318e+003;1.130539e-002
3.205247e+003;1.099491e-002
3.207175e+003;1.088981e-002
3.209104e+003;1.100578e-002
3.211032e+003;1.113658e-002
3.212961e+003;1.103012e-002
3.214889e+003;1.099185e-002
3.216818e+003;1.095338e-002
3.218747e+003;1.068624e-002
3.220675e+003;1.023729e-002
3.222604e+003;1.003285e-002
3.224532e+003;9.901606e-003
3.226461e+003;9.605167e-003
3.228389e+003;9.588331e-003
3.230318e+003;9.541892e-003
3.232246e+003;9.115914e-003
3.234175e+003;8.613322e-003
3.236104e+003;8.459806e-003
3.238032e+003;8.400989e-003
3.239961e+003;8.432169e-003
3.241889e+003;8.363831e-003
3.243818e+003;7.813357e-003
3.245746e+003;7.705011e-003
3.247675e+003;8.224382e-003
3.249603e+003;8.265986e-003
3.251532e+003;8.183256e-003
3.253460e+003;8.220566e-003
3.255389e+003;7.726901e-003
3.257318e+003;7.526564e-003
3.259246e+003;7.713376e-003
3.261175e+003;7.665957e-003
3.263103e+003;7.780938e-003
3.265032e+003;7.664305e-003
3.266960e+003;7.178344e-003
3.268889e+003;6.985500e-003
3.270817e+003;7.324028e-003
3.272746e+003;7.655536e-003
3.274675e+003;7.653277e-003
3.276603e+003;7.376667e-003
3.278531e+003;7.218568e-003
3.280460e+003;7.325578e-003
3.282389e+003;7.402517e-003
3.284317e+003;7.191988e-003
3.286246e+003;7.307180e-003
3.288174e+003;7.692836e-003
3.290103e+003;7.605696e-003
3.292031e+003;7.488942e-003
3.293960e+003;7.177569e-003
3.295888e+003;6.852317e-003
3.297817e+003;6.948530e-003
3.299746e+003;7.173730e-003
3.301674e+003;7.469963e-003
3.303603e+003;7.342967e-003
3.305531e+003;6.949574e-003
3.307460e+003;6.837775e-003
3.309388e+003;6.784495e-003
3.311317e+003;6.939743e-003
3.313245e+003;6.860260e-003
3.315174e+003;6.764605e-003
3.317103e+003;6.870393e-003
3.319031e+003;6.856423e-003
3.320960e+003;6.890187e-003
3.322888e+003;7.317524e-003
3.324817e+003;7.130411e-003
3.326745e+003;6.840906e-003
3.328674e+003;7.137350e-003
3.330602e+003;7.147084e-003
3.332531e+003;7.129300e-003
3.334459e+003;7.427728e-003
3.336388e+003;7.525553e-003
3.338317e+003;7.006275e-003
3.340245e+003;6.876385e-003
3.342174e+003;7.096528e-003
3.344102e+003;7.556031e-003
3.346031e+003;7.696816e-003
3.347959e+003;7.616892e-003
3.349888e+003;7.786234e-003
3.351816e+003;7.503606e-003
3.353745e+003;7.227529e-003
3.355674e+003;7.170765e-003
3.357602e+003;7.181545e-003
3.359531e+003;7.061671e-003
3.361459e+003;7.078712e-003
3.363388e+003;7.485874e-003
3.365316e+003;7.419807e-003
3.367245e+003;7.117814e-003
3.369173e+003;7.279684e-003
3.371102e+003;7.181780e-003
3.373031e+003;6.884801e-003
3.374959e+003;7.199197e-003
3.376887e+003;7.297138e-003
3.378816e+003;7.247912e-003
3.380745e+003;7.189764e-003
3.382673e+003;6.653190e-003
3.384602e+003;5.940120e-003
3.386530e+003;5.958595e-003
3.388459e+003;6.437441e-003
3.390387e+003;6.737514e-003
3.392316e+003;7.061940e-003
3.394244e+003;7.484020e-003
3.396173e+003;7.537656e-003
3.398102e+003;7.327398e-003
3.400030e+003;6.963210e-003
3.401959e+003;6.398871e-003
3.403887e+003;6.098696e-003
3.405816e+003;6.183046e-003
3.407744e+003;6.415146e-003
3.409673e+003;6.279179e-003
3.411601e+003;6.166343e-003
3.413530e+003;6.400316e-003
3.415458e+003;6.680713e-003
3.417387e+003;6.814247e-003
3.419316e+003;6.376073e-003
3.421244e+003;6.025314e-003
3.423173e+003;6.108340e-003
3.425101e+003;5.922754e-003
3.427030e+003;5.694141e-003
3.428958e+003;5.896321e-003
3.430887e+003;5.990945e-003
3.432815e+003;5.840402e-003
3.434744e+003;5.728486e-003
3.436673e+003;5.673192e-003
3.438601e+003;5.741915e-003
3.440530e+003;5.496249e-003
3.442458e+003;5.383616e-003
3.444387e+003;5.537928e-003
3.446315e+003;5.260884e-003
3.448244e+003;4.834827e-003
3.450172e+003;4.460135e-003
3.452101e+003;3.997441e-003
3.454030e+003;3.810282e-003
3.455958e+003;4.018609e-003
3.457886e+003;4.276189e-003
3.459815e+003;4.213888e-003
3.461744e+003;4.129751e-003
3.463672e+003;4.125369e-003
3.465601e+003;3.692036e-003
3.467529e+003;3.823452e-003
3.469458e+003;4.089947e-003
3.471386e+003;4.112324e-003
3.473315e+003;3.779163e-003
3.475243e+003;3.299098e-003
3.477172e+003;3.870954e-003
3.479101e+003;3.940897e-003
3.481029e+003;3.133731e-003
3.482958e+003;2.689584e-003
3.484886e+003;2.715623e-003
3.486815e+003;3.078935e-003
3.488743e+003;3.242444e-003
3.490672e+003;3.023611e-003
3.492600e+003;2.713189e-003
3.494529e+003;2.781712e-003
3.496458e+003;2.754835e-003
3.498386e+003;3.018740e-003
3.500315e+003;2.825132e-003
3.502243e+003;2.032452e-003
3.504172e+003;2.053525e-003
3.506100e+003;2.678782e-003
3.508029e+003;2.542213e-003
3.509957e+003;2.448803e-003
3.511886e+003;2.764005e-003
3.513814e+003;2.481659e-003
3.515743e+003;2.201829e-003
3.517672e+003;2.332794e-003
3.519600e+003;2.341355e-003
3.521529e+003;2.104696e-003
3.523457e+003;2.087017e-003
3.525386e+003;2.017872e-003
3.527314e+003;1.721474e-003
3.529243e+003;1.761361e-003
3.531171e+003;2.015841e-003
3.533100e+003;2.094342e-003
3.535029e+003;1.651023e-003
3.536957e+003;1.404235e-003
3.538885e+003;1.457425e-003
3.540814e+003;1.866236e-003
3.542743e+003;1.959621e-003
3.544671e+003;1.478769e-003
3.546600e+003;9.996106e-004
3.548528e+003;1.458056e-003
3.550457e+003;1.513015e-003
3.552385e+003;1.191244e-003
3.554314e+003;1.154199e-003
3.556242e+003;1.239655e-003
3.558171e+003;1.169548e-003
3.560100e+003;1.115099e-003
3.562028e+003;1.215532e-003
3.563957e+003;5.429754e-004
3.565885e+003;-1.132832e-003
3.567814e+003;-1.597334e-003
3.569742e+003;-1.666654e-004
3.571671e+003;9.841349e-004
3.573599e+003;9.069635e-004
3.575528e+003;5.270847e-004
3.577457e+003;1.491951e-004
3.579385e+003;1.627849e-004
3.581314e+003;3.724537e-004
3.583242e+003;2.838858e-004
3.585171e+003;-6.174445e-004
3.587099e+003;-1.642921e-003
3.589028e+003;-1.185209e-003
3.590956e+003;-5.586118e-004
3.592885e+003;-6.908251e-004
3.594813e+003;-4.141436e-004
3.596742e+003;-3.679302e-004
3.598671e+003;-7.180502e-004
3.600599e+003;-5.965661e-004
3.602528e+003;-1.091298e-004
3.604456e+003;-3.559787e-004
3.606385e+003;-1.315250e-003
3.608313e+003;-2.134311e-003
3.610242e+003;-1.777940e-003
3.612170e+003;-1.745699e-003
3.614099e+003;-1.858251e-003
3.616028e+003;-1.777247e-003
3.617956e+003;-2.143049e-003
3.619885e+003;-1.630510e-003
3.621813e+003;-5.776390e-004
3.623742e+003;-6.080476e-004
3.625670e+003;-1.699660e-003
3.627599e+003;-4.653506e-003
3.629527e+003;-4.737712e-003
3.631456e+003;-1.736690e-003
3.633385e+003;-1.015761e-003
3.635313e+003;-1.178964e-003
3.637241e+003;-9.802238e-004
3.639170e+003;-7.509629e-004
3.641099e+003;-7.850968e-004
3.643027e+003;-8.047094e-004
3.644956e+003;-1.548010e-003
3.646884e+003;-3.789756e-003
3.648813e+003;-5.594379e-003
3.650741e+003;-4.283120e-003
3.652670e+003;-2.193063e-003
3.654598e+003;-2.858061e-003
3.656527e+003;-3.010537e-003
3.658456e+003;-1.509842e-003
3.660384e+003;-7.237729e-004
3.662313e+003;-3.823641e-004
3.664241e+003;-1.733558e-004
3.666170e+003;-8.739250e-004
3.668098e+003;-3.468763e-003
3.670027e+003;-5.072244e-003
3.671955e+003;-3.666138e-003
3.673884e+003;-5.228135e-003
3.675813e+003;-5.799390e-003
3.677741e+003;-2.404759e-003
3.679669e+003;-7.633335e-004
3.681598e+003;-3.456493e-004
3.683527e+003;-5.589427e-004
3.685455e+003;-1.699594e-003
3.687384e+003;-4.577349e-003
3.689312e+003;-4.522264e-003
3.691241e+003;-2.168436e-003
3.693169e+003;-4.329123e-004
3.695098e+003;1.935791e-004
3.697026e+003;2.015348e-004
3.698955e+003;-2.618456e-004
3.700884e+003;-1.205167e-003
3.702812e+003;-9.668015e-004
3.704741e+003;-5.612543e-005
3.706669e+003;-4.511506e-004
3.708598e+003;-1.587364e-003
3.710526e+003;-2.579562e-003
3.712455e+003;-2.366040e-003
3.714383e+003;-7.035282e-004
3.716312e+003;3.830464e-005
3.718240e+003;-2.051838e-004
3.720169e+003;-1.072483e-003
3.722098e+003;-1.179460e-003
3.724026e+003;-9.306319e-004
3.725955e+003;-1.198988e-003
3.727883e+003;-6.848043e-004
3.729812e+003;-1.463877e-003
3.731740e+003;-3.560823e-003
3.733669e+003;-4.363921e-003
3.735597e+003;-4.653407e-003
3.737526e+003;-2.702107e-003
3.739455e+003;-7.885365e-004
3.741383e+003;-1.935579e-003
3.743312e+003;-6.543500e-003
3.745240e+003;-6.103538e-003
3.747169e+003;-3.995291e-003
3.749097e+003;-6.204743e-003
3.751026e+003;-6.720496e-003
3.752954e+003;-3.922598e-003
3.754883e+003;-8.355320e-004
3.756812e+003;-8.536212e-004
3.758740e+003;-1.612849e-003
3.760668e+003;-1.055130e-003
3.762597e+003;1.082955e-004
3.764526e+003;-4.518457e-004
3.766454e+003;-1.575238e-004
3.768383e+003;-3.825958e-004
3.770311e+003;-5.318731e-004
3.772240e+003;2.396915e-004
3.774168e+003;5.763845e-004
3.776097e+003;1.084944e-004
3.778025e+003;-4.214923e-004
3.779954e+003;-2.478713e-004
3.781883e+003;6.061130e-004
3.783811e+003;5.843804e-004
3.785740e+003;2.711210e-004
3.787668e+003;3.659871e-004
3.789597e+003;1.041823e-003
3.791525e+003;9.606899e-004
3.793454e+003;2.978777e-004
3.795382e+003;-7.571151e-004
3.797311e+003;-8.334486e-004
3.799240e+003;-2.463309e-003
3.801168e+003;-4.288370e-003
3.803097e+003;-1.727152e-003
3.805025e+003;-1.132733e-003
3.806954e+003;-1.657379e-003
3.808882e+003;2.949268e-004
3.810811e+003;9.811128e-004
3.812739e+003;1.458474e-004
3.814668e+003;-2.570274e-003
3.816596e+003;-2.597810e-003
3.818525e+003;-1.573696e-003
3.820454e+003;-3.036137e-003
3.822382e+003;-1.535827e-003
3.824311e+003;4.739759e-004
3.826239e+003;6.299703e-004
3.828168e+003;9.717148e-004
3.830096e+003;2.728783e-004
3.832025e+003;-5.931580e-004
3.833953e+003;-1.615292e-003
3.835882e+003;-3.643303e-003
3.837811e+003;-4.689203e-003
3.839739e+003;-2.743990e-003
3.841667e+003;-1.106261e-003
3.843596e+003;-5.527877e-004
3.845525e+003;2.397247e-004
3.847453e+003;9.336930e-004
3.849382e+003;-8.354328e-004
3.851310e+003;-6.109648e-003
3.853239e+003;-9.721545e-003
3.855167e+003;-5.151228e-003
3.857096e+003;-1.452022e-004
3.859024e+003;6.587734e-004
3.860953e+003;2.462557e-004
3.862882e+003;-4.036831e-004
3.864810e+003;-8.826547e-004
3.866739e+003;-8.623513e-004
3.868667e+003;-2.402551e-003
3.870596e+003;-2.231995e-003
3.872524e+003;-8.701553e-004
3.874453e+003;-2.253193e-004
3.876381e+003;8.647310e-004
3.878310e+003;3.146885e-004
3.880239e+003;-2.511488e-005
3.882167e+003;2.921417e-004
3.884096e+003;-1.469293e-003
3.886024e+003;-1.345739e-003
3.887953e+003;6.560854e-004
3.889881e+003;-1.102561e-004
3.891810e+003;-6.729002e-005
3.893738e+003;1.570507e-003
3.895667e+003;1.693664e-003
3.897595e+003;1.463777e-004
3.899524e+003;-1.261963e-003
3.901453e+003;-1.207150e-003
3.903381e+003;-8.373840e-004
3.905310e+003;-9.637623e-005
3.907238e+003;9.160282e-004
3.909167e+003;1.900546e-003
3.911095e+003;2.495922e-003
3.913024e+003;2.229237e-003
3.914952e+003;1.982787e-003
3.916881e+003;1.918185e-003
3.918810e+003;1.636122e-003
3.920738e+003;1.471421e-003
3.922667e+003;1.350919e-003
3.924595e+003;1.345435e-003
3.926524e+003;1.810535e-003
3.928452e+003;2.347385e-003
3.930381e+003;2.215949e-003
3.932309e+003;1.315257e-003
3.934238e+003;1.685947e-003
3.936167e+003;2.307943e-003
3.938095e+003;2.211320e-003
3.940023e+003;1.690504e-003
3.941952e+003;1.580217e-003
3.943881e+003;1.941448e-003
3.945809e+003;2.280796e-003
3.947738e+003;2.473328e-003
3.949666e+003;2.756302e-003
3.951595e+003;2.956985e-003
3.953523e+003;2.963591e-003
3.955452e+003;2.715556e-003
3.957380e+003;2.197133e-003
3.959309e+003;1.597477e-003
3.961238e+003;1.213140e-003
3.963166e+003;1.570574e-003
3.965095e+003;2.390595e-003
3.967023e+003;2.754668e-003
3.968952e+003;2.548146e-003
3.970880e+003;2.454768e-003
3.972809e+003;2.453102e-003
3.974737e+003;2.566377e-003
3.976666e+003;2.754401e-003
3.978594e+003;2.615242e-003
3.980523e+003;2.190972e-003
3.982452e+003;2.221345e-003
3.984380e+003;2.798986e-003
3.986309e+003;3.322369e-003
3.988237e+003;3.653609e-003
3.990166e+003;3.954539e-003
3.992094e+003;4.101687e-003
3.994023e+003;3.986171e-003
3.995951e+003;4.011887e-003
3.997880e+003;3.789190e-003
3.999809e+003;3.849124e-003
4.001737e+003;0.000000e+000
