3.992094e+002;0.000000e+000
4.011380e+002;0.000000e+000
4.030665e+002;0.000000e+000
4.049951e+002;0.000000e+000
4.069236e+002;0.000000e+000
4.088522e+002;0.000000e+000
4.107807e+002;0.000000e+000
4.127093e+002;0.000000e+000
4.146378e+002;0.000000e+000
4.165664e+002;0.000000e+000
4.184949e+002;0.000000e+000
4.204235e+002;0.000000e+000
4.223520e+002;0.000000e+000
4.242806e+002;0.000000e+000
4.262091e+002;0.000000e+000
4.281377e+002;0.000000e+000
4.300662e+002;0.000000e+000
4.319948e+002;0.000000e+000
4.339233e+002;0.000000e+000
4.358519e+002;0.000000e+000
4.377804e+002;0.000000e+000
4.397090e+002;0.000000e+000
4.416375e+002;0.000000e+000
4.435660e+002;0.000000e+000
4.454946e+002;0.000000e+000
4.474232e+002;0.000000e+000
4.493517e+002;0.000000e+000
4.512802e+002;0.000000e+000
4.532088e+002;0.000000e+000
4.551373e+002;0.000000e+000
4.570659e+002;0.000000e+000
4.589944e+002;0.000000e+000
4.609230e+002;0.000000e+000
4.628515e+002;0.000000e+000
4.647801e+002;0.000000e+000
4.667086e+002;0.000000e+000
4.686372e+002;0.000000e+000
4.705657e+002;0.000000e+000
4.724943e+002;0.000000e+000
4.744228e+002;0.000000e+000
4.763513e+002;0.000000e+000
4.782799e+002;0.000000e+000
4.802085e+002;0.000000e+000
4.821370e+002;0.000000e+000
4.840656e+002;0.000000e+000
4.859941e+002;0.000000e+000
4.879226e+002;0.000000e+000
4.898512e+002;0.000000e+000
4.917798e+002;0.000000e+000
4.937083e+002;0.000000e+000
4.956368e+002;0.000000e+000
4.975654e+002;0.000000e+000
4.994939e+002;0.000000e+000
5.014225e+002;0.000000e+000
5.033510e+002;0.000000e+000
5.052796e+002;0.000000e+000
5.072081e+002;0.000000e+000
5.091367e+002;0.000000e+000
5.110652e+002;0.000000e+000
5.129938e+002;0.000000e+000
5.149223e+002;0.000000e+000
5.168509e+002;0.000000e+000
5.187794e+002;0.000000e+000
5.207079e+002;0.000000e+000
5.226365e+002;0.000000e+000
5.245651e+002;0.000000e+000
5.264936e+002;0.000000e+000
5.284222e+002;0.000000e+000
5.303507e+002;0.000000e+000
5.322792e+002;0.000000e+000
5.342078e+002;0.000000e+000
5.361364e+002;0.000000e+000
5.380649e+002;0.000000e+000
5.399935e+002;0.000000e+000
5.419220e+002;0.000000e+000
5.438505e+002;0.000000e+000
5.457791e+002;0.000000e+000
5.477076e+002;0.000000e+000
5.496362e+002;0.000000e+000
5.515648e+002;0.000000e+000
5.534933e+002;0.000000e+000
5.554218e+002;0.000000e+000
5.573504e+002;0.000000e+000
5.592789e+002;0.000000e+000
5.612075e+002;0.000000e+000
5.631360e+002;0.000000e+000
5.650646e+002;0.000000e+000
5.669931e+002;0.000000e+000
5.689217e+002;0.000000e+000
5.708502e+002;0.000000e+000
5.727787e+002;0.000000e+000
5.747073e+002;0.000000e+000
5.766359e+002;0.000000e+000
5.785644e+002;0.000000e+000
5.804930e+002;0.000000e+000
5.824215e+002;0.000000e+000
5.843500e+002;0.000000e+000
5.862786e+002;0.000000e+000
5.882072e+002;0.000000e+000
5.901357e+002;0.000000e+000
5.920643e+002;0.000000e+000
5.939928e+002;0.000000e+000
5.959213e+002;0.000000e+000
5.978499e+002;0.000000e+000
5.997784e+002;3.232013e-002
6.017070e+002;3.089084e-002
6.036355e+002;2.533028e-002
6.055641e+002;2.707713e-002
6.074926e+002;3.112454e-002
6.094211e+002;3.226770e-002
6.113497e+002;3.425534e-002
6.132783e+002;3.543803e-002
6.152068e+002;3.274453e-002
6.171354e+002;3.058176e-002
6.190639e+002;3.130469e-002
6.209924e+002;3.136737e-002
6.229210e+002;3.423982e-002
6.248495e+002;3.362274e-002
6.267781e+002;3.013049e-002
6.287067e+002;2.744846e-002
6.306352e+002;2.834544e-002
6.325637e+002;3.317091e-002
6.344923e+002;3.626753e-002
6.364208e+002;3.689466e-002
6.383494e+002;3.781431e-002
6.402780e+002;3.333921e-002
6.422065e+002;2.919225e-002
6.441350e+002;3.194458e-002
6.460636e+002;3.280156e-002
6.479921e+002;2.970041e-002
6.499207e+002;3.049111e-002
6.518492e+002;3.242805e-002
6.537778e+002;3.205637e-002
6.557063e+002;3.140915e-002
6.576349e+002;3.186389e-002
6.595634e+002;3.226496e-002
6.614919e+002;3.156326e-002
6.634205e+002;3.106168e-002
6.653491e+002;3.210881e-002
6.672776e+002;3.250693e-002
6.692062e+002;3.243655e-002
6.711347e+002;3.190204e-002
6.730632e+002;3.092831e-002
6.749918e+002;3.015350e-002
6.769203e+002;3.021189e-002
6.788489e+002;3.139511e-002
6.807775e+002;3.156102e-002
6.827060e+002;3.023832e-002
6.846345e+002;3.029012e-002
6.865631e+002;2.963857e-002
6.884916e+002;2.917163e-002
6.904202e+002;2.960416e-002
6.923488e+002;2.945496e-002
6.942773e+002;3.008805e-002
6.962058e+002;3.054656e-002
6.981344e+002;3.014533e-002
7.000629e+002;2.954156e-002
7.019915e+002;3.049029e-002
7.039200e+002;3.270884e-002
7.058486e+002;3.461872e-002
7.077771e+002;3.856985e-002
7.097057e+002;4.469232e-002
7.116342e+002;5.128273e-002
7.135627e+002;5.477749e-002
7.154913e+002;5.382717e-002
7.174199e+002;5.017128e-002
7.193484e+002;4.517281e-002
7.212770e+002;4.044773e-002
7.232055e+002;3.807238e-002
7.251340e+002;3.701887e-002
7.270626e+002;3.565325e-002
7.289911e+002;3.395159e-002
7.309197e+002;3.336938e-002
7.328483e+002;3.282075e-002
7.347768e+002;3.154438e-002
7.367053e+002;3.113789e-002
7.386339e+002;3.166419e-002
7.405624e+002;3.204420e-002
7.424910e+002;3.223409e-002
7.444196e+002;3.230529e-002
7.463481e+002;3.254275e-002
7.482766e+002;3.164982e-002
7.502052e+002;3.117569e-002
7.521337e+002;3.102990e-002
7.540623e+002;3.059263e-002
7.559908e+002;2.955217e-002
7.579194e+002;2.917606e-002
7.598479e+002;3.006781e-002
7.617765e+002;3.111710e-002
7.637050e+002;3.231385e-002
7.656335e+002;3.215822e-002
7.675621e+002;3.193171e-002
7.694907e+002;3.253317e-002
7.714192e+002;3.225846e-002
7.733478e+002;3.219265e-002
7.752763e+002;3.235826e-002
7.772048e+002;3.213920e-002
7.791334e+002;3.257775e-002
7.810620e+002;3.348171e-002
7.829905e+002;3.412338e-002
7.849191e+002;3.435610e-002
7.868476e+002;3.482481e-002
7.887761e+002;3.614425e-002
7.907047e+002;3.670900e-002
7.926332e+002;3.718997e-002
7.945618e+002;3.846174e-002
7.964903e+002;3.966293e-002
7.984189e+002;4.042155e-002
8.003474e+002;4.159218e-002
8.022759e+002;4.387056e-002
8.042045e+002;4.802506e-002
8.061331e+002;5.263488e-002
8.080616e+002;5.663916e-002
8.099902e+002;5.902172e-002
8.119187e+002;5.759789e-002
8.138472e+002;5.330903e-002
8.157758e+002;4.933683e-002
8.177043e+002;4.652566e-002
8.196329e+002;4.457416e-002
8.215615e+002;4.282310e-002
8.234900e+002;4.244103e-002
8.254185e+002;4.316156e-002
8.273471e+002;4.394949e-002
8.292756e+002;4.533638e-002
8.312042e+002;4.706575e-002
8.331328e+002;4.927678e-002
8.350613e+002;5.278811e-002
8.369898e+002;5.746538e-002
8.389184e+002;6.282335e-002
8.408469e+002;6.588785e-002
8.427755e+002;6.324479e-002
8.447040e+002;5.826081e-002
8.466326e+002;5.540431e-002
8.485611e+002;5.207595e-002
8.504897e+002;4.863761e-002
8.524182e+002;4.726915e-002
8.543467e+002;4.638480e-002
8.562753e+002;4.548484e-002
8.582039e+002;4.527672e-002
8.601324e+002;4.601074e-002
8.620610e+002;4.754791e-002
8.639895e+002;4.964088e-002
8.659180e+002;5.325363e-002
8.678466e+002;6.057582e-002
8.697751e+002;7.206192e-002
8.717037e+002;8.549424e-002
8.736323e+002;9.735847e-002
8.755608e+002;1.020065e-001
8.774893e+002;9.723783e-002
8.794179e+002;8.696853e-002
8.813464e+002;7.707437e-002
8.832750e+002;6.837827e-002
8.852036e+002;5.848261e-002
8.871321e+002;4.961254e-002
8.890606e+002;4.542690e-002
8.909892e+002;4.515487e-002
8.929177e+002;4.755172e-002
8.948463e+002;5.196057e-002
8.967748e+002;5.681560e-002
8.987034e+002;5.957416e-002
9.006319e+002;5.861240e-002
9.025605e+002;5.425702e-002
9.044890e+002;4.873531e-002
9.064175e+002;4.429796e-002
9.083461e+002;4.095843e-002
9.102747e+002;3.857119e-002
9.122032e+002;3.736822e-002
9.141318e+002;3.676835e-002
9.160603e+002;3.610770e-002
9.179888e+002;3.564509e-002
9.199174e+002;3.520240e-002
9.218459e+002;3.514470e-002
9.237745e+002;3.552127e-002
9.257031e+002;3.542085e-002
9.276316e+002;3.526359e-002
9.295601e+002;3.554824e-002
9.314887e+002;3.624952e-002
9.334172e+002;3.720863e-002
9.353458e+002;3.873979e-002
9.372744e+002;4.071709e-002
9.392029e+002;4.254421e-002
9.411314e+002;4.324551e-002
9.430600e+002;4.271692e-002
9.449885e+002;4.199187e-002
9.469171e+002;4.152083e-002
9.488456e+002;4.173092e-002
9.507742e+002;4.244344e-002
9.527027e+002;4.327297e-002
9.546313e+002;4.442809e-002
9.565598e+002;4.545262e-002
9.584883e+002;4.633389e-002
9.604169e+002;4.781930e-002
9.623455e+002;5.011420e-002
9.642740e+002;5.326794e-002
9.662026e+002;5.764284e-002
9.681311e+002;6.353150e-002
9.700596e+002;7.001442e-002
9.719882e+002;7.419643e-002
9.739167e+002;7.371286e-002
9.758453e+002;6.893599e-002
9.777739e+002;6.192203e-002
9.797024e+002;5.456152e-002
9.816309e+002;4.836763e-002
9.835595e+002;4.448113e-002
9.854880e+002;4.254188e-002
9.874166e+002;4.252159e-002
9.893452e+002;4.427848e-002
9.912737e+002;4.790017e-002
9.932022e+002;5.293589e-002
9.951307e+002;5.842010e-002
9.970593e+002;6.202533e-002
9.989879e+002;6.129516e-002
1.000916e+003;5.687742e-002
1.002845e+003;5.106983e-002
1.004773e+003;4.624793e-002
1.006702e+003;4.300331e-002
1.008631e+003;4.048243e-002
1.010559e+003;3.836704e-002
1.012488e+003;3.688467e-002
1.014416e+003;3.620011e-002
1.016345e+003;3.592965e-002
1.018273e+003;3.509113e-002
1.020202e+003;3.391870e-002
1.022130e+003;3.329027e-002
1.024059e+003;3.340412e-002
1.025988e+003;3.310565e-002
1.027916e+003;3.278609e-002
1.029845e+003;3.295366e-002
1.031773e+003;3.322839e-002
1.033702e+003;3.357641e-002
1.035630e+003;3.475377e-002
1.037559e+003;3.535409e-002
1.039487e+003;3.523880e-002
1.041416e+003;3.577524e-002
1.043344e+003;3.666840e-002
1.045273e+003;3.687092e-002
1.047202e+003;3.668055e-002
1.049130e+003;3.633417e-002
1.051059e+003;3.519820e-002
1.052987e+003;3.372235e-002
1.054916e+003;3.248500e-002
1.056844e+003;3.196181e-002
1.058773e+003;3.164508e-002
1.060701e+003;3.128592e-002
1.062630e+003;3.126865e-002
1.064558e+003;3.152332e-002
1.066487e+003;3.098734e-002
1.068416e+003;3.058680e-002
1.070344e+003;3.080533e-002
1.072273e+003;3.085189e-002
1.074201e+003;3.090134e-002
1.076130e+003;3.094307e-002
1.078058e+003;3.091269e-002
1.079987e+003;3.120990e-002
1.081915e+003;3.160538e-002
1.083844e+003;3.162915e-002
1.085773e+003;3.176516e-002
1.087701e+003;3.227481e-002
1.089630e+003;3.285763e-002
1.091558e+003;3.345282e-002
1.093487e+003;3.460516e-002
1.095415e+003;3.633082e-002
1.097344e+003;3.829217e-002
1.099272e+003;4.019476e-002
1.101201e+003;4.134547e-002
1.103129e+003;4.158238e-002
1.105058e+003;4.046006e-002
1.106987e+003;3.803559e-002
1.108915e+003;3.508869e-002
1.110844e+003;3.287600e-002
1.112772e+003;3.138621e-002
1.114701e+003;3.053668e-002
1.116629e+003;3.025548e-002
1.118558e+003;2.988299e-002
1.120486e+003;2.982382e-002
1.122415e+003;2.993811e-002
1.124344e+003;2.970105e-002
1.126272e+003;2.992150e-002
1.128201e+003;3.065766e-002
1.130129e+003;3.095716e-002
1.132058e+003;3.100513e-002
1.133986e+003;3.188681e-002
1.135915e+003;3.370573e-002
1.137843e+003;3.611743e-002
1.139772e+003;3.872077e-002
1.141700e+003;4.135961e-002
1.143629e+003;4.497858e-002
1.145557e+003;4.862478e-002
1.147486e+003;5.213856e-002
1.149415e+003;5.641758e-002
1.151343e+003;5.997325e-002
1.153272e+003;6.155608e-002
1.155200e+003;6.202988e-002
1.157129e+003;6.194110e-002
1.159057e+003;6.183530e-002
1.160986e+003;6.243035e-002
1.162914e+003;6.311610e-002
1.164843e+003;6.287588e-002
1.166771e+003;6.153538e-002
1.168700e+003;5.819818e-002
1.170629e+003;5.392608e-002
1.172557e+003;4.969456e-002
1.174486e+003;4.548080e-002
1.176414e+003;4.129361e-002
1.178343e+003;3.761572e-002
1.180271e+003;3.497864e-002
1.182200e+003;3.317052e-002
1.184128e+003;3.207071e-002
1.186057e+003;3.128450e-002
1.187986e+003;3.088764e-002
1.189914e+003;3.132192e-002
1.191843e+003;3.172531e-002
1.193771e+003;3.206015e-002
1.195700e+003;3.227163e-002
1.197628e+003;3.207356e-002
1.199557e+003;3.209368e-002
1.201485e+003;3.241142e-002
1.203414e+003;3.292632e-002
1.205343e+003;3.313297e-002
1.207271e+003;3.345436e-002
1.209200e+003;3.456461e-002
1.211128e+003;3.570109e-002
1.213057e+003;3.722820e-002
1.214985e+003;3.884388e-002
1.216914e+003;4.016314e-002
1.218842e+003;4.049087e-002
1.220771e+003;3.938320e-002
1.222699e+003;3.786214e-002
1.224628e+003;3.666537e-002
1.226557e+003;3.545831e-002
1.228485e+003;3.450388e-002
1.230414e+003;3.419289e-002
1.232342e+003;3.433462e-002
1.234271e+003;3.456583e-002
1.236199e+003;3.457986e-002
1.238128e+003;3.453028e-002
1.240056e+003;3.493364e-002
1.241985e+003;3.511901e-002
1.243913e+003;3.507166e-002
1.245842e+003;3.559538e-002
1.247771e+003;3.695606e-002
1.249699e+003;3.870846e-002
1.251628e+003;4.099207e-002
1.253556e+003;4.399378e-002
1.255485e+003;4.607304e-002
1.257413e+003;4.522495e-002
1.259342e+003;4.267430e-002
1.261270e+003;4.051436e-002
1.263199e+003;3.875453e-002
1.265127e+003;3.756814e-002
1.267056e+003;3.687590e-002
1.268985e+003;3.621235e-002
1.270913e+003;3.574534e-002
1.272842e+003;3.594938e-002
1.274770e+003;3.647949e-002
1.276699e+003;3.686327e-002
1.278627e+003;3.711800e-002
1.280556e+003;3.759238e-002
1.282484e+003;3.855026e-002
1.284413e+003;4.004794e-002
1.286342e+003;4.165881e-002
1.288270e+003;4.347145e-002
1.290199e+003;4.556149e-002
1.292127e+003;4.759098e-002
1.294056e+003;4.893360e-002
1.295984e+003;4.947038e-002
1.297913e+003;4.943815e-002
1.299841e+003;4.954691e-002
1.301770e+003;5.068785e-002
1.303698e+003;5.220955e-002
1.305627e+003;5.221751e-002
1.307556e+003;4.978065e-002
1.309484e+003;4.662765e-002
1.311413e+003;4.483642e-002
1.313341e+003;4.434409e-002
1.315270e+003;4.479638e-002
1.317198e+003;4.576596e-002
1.319127e+003;4.706679e-002
1.321055e+003;4.888917e-002
1.322984e+003;5.151501e-002
1.324912e+003;5.451404e-002
1.326841e+003;5.699120e-002
1.328770e+003;5.821785e-002
1.330698e+003;5.814841e-002
1.332627e+003;5.725155e-002
1.334555e+003;5.615634e-002
1.336484e+003;5.546876e-002
1.338412e+003;5.540920e-002
1.340341e+003;5.619285e-002
1.342269e+003;5.799448e-002
1.344198e+003;6.023087e-002
1.346126e+003;6.262451e-002
1.348055e+003;6.544904e-002
1.349984e+003;6.933255e-002
1.351912e+003;7.435706e-002
1.353841e+003;8.078053e-002
1.355769e+003;8.818959e-002
1.357698e+003;9.381052e-002
1.359626e+003;9.505504e-002
1.361555e+003;9.334759e-002
1.363483e+003;9.263062e-002
1.365412e+003;9.567641e-002
1.367341e+003;1.036839e-001
1.369269e+003;1.188467e-001
1.371198e+003;1.420550e-001
1.373126e+003;1.698268e-001
1.375055e+003;1.924540e-001
1.376983e+003;1.953422e-001
1.378912e+003;1.754690e-001
1.380840e+003;1.462934e-001
1.382769e+003;1.193478e-001
1.384698e+003;9.868573e-002
1.386626e+003;8.492509e-002
1.388555e+003;7.871767e-002
1.390483e+003;7.700102e-002
1.392412e+003;7.597797e-002
1.394340e+003;7.582609e-002
1.396269e+003;7.770956e-002
1.398197e+003;7.968935e-002
1.400126e+003;8.176473e-002
1.402054e+003;8.388294e-002
1.403983e+003;8.520834e-002
1.405911e+003;8.688559e-002
1.407840e+003;8.893558e-002
1.409769e+003;9.094664e-002
1.411697e+003;9.308226e-002
1.413626e+003;9.540201e-002
1.415554e+003;9.744720e-002
1.417483e+003;9.778003e-002
1.419411e+003;9.867886e-002
1.421340e+003;1.022065e-001
1.423268e+003;1.050557e-001
1.425197e+003;1.074680e-001
1.427125e+003;1.102986e-001
1.429054e+003;1.138019e-001
1.430983e+003;1.195645e-001
1.432911e+003;1.264300e-001
1.434840e+003;1.292304e-001
1.436768e+003;1.286700e-001
1.438697e+003;1.301997e-001
1.440625e+003;1.327100e-001
1.442554e+003;1.366892e-001
1.444482e+003;1.432227e-001
1.446411e+003;1.511579e-001
1.448340e+003;1.593391e-001
1.450268e+003;1.659966e-001
1.452197e+003;1.694532e-001
1.454125e+003;1.690024e-001
1.456054e+003;1.643318e-001
1.457982e+003;1.625502e-001
1.459911e+003;1.624368e-001
1.461839e+003;1.581835e-001
1.463768e+003;1.499124e-001
1.465697e+003;1.404673e-001
1.467625e+003;1.314877e-001
1.469554e+003;1.211289e-001
1.471482e+003;1.096513e-001
1.473411e+003;1.012524e-001
1.475339e+003;9.621385e-002
1.477268e+003;9.185607e-002
1.479196e+003;8.855972e-002
1.481125e+003;8.548803e-002
1.483053e+003;8.287309e-002
1.484982e+003;7.997706e-002
1.486911e+003;7.685205e-002
1.488839e+003;7.425617e-002
1.490768e+003;7.296091e-002
1.492696e+003;7.259499e-002
1.494625e+003;7.011067e-002
1.496553e+003;6.742689e-002
1.498482e+003;6.702132e-002
1.500410e+003;6.689607e-002
1.502339e+003;6.568275e-002
1.504267e+003;6.097496e-002
1.506196e+003;5.586081e-002
1.508125e+003;5.678999e-002
1.510053e+003;5.860549e-002
1.511982e+003;5.781719e-002
1.513910e+003;5.679706e-002
1.515839e+003;5.490031e-002
1.517767e+003;5.307421e-002
1.519696e+003;5.013986e-002
1.521624e+003;4.814598e-002
1.523553e+003;4.917302e-002
1.525481e+003;4.932904e-002
1.527410e+003;4.945742e-002
1.529339e+003;4.936749e-002
1.531267e+003;4.785581e-002
1.533196e+003;4.562600e-002
1.535124e+003;4.575197e-002
1.537053e+003;4.387709e-002
1.538981e+003;3.874464e-002
1.540910e+003;3.784457e-002
1.542838e+003;3.986899e-002
1.544767e+003;4.094706e-002
1.546695e+003;4.155331e-002
1.548624e+003;4.107135e-002
1.550553e+003;4.013333e-002
1.552481e+003;3.834710e-002
1.554410e+003;3.606724e-002
1.556338e+003;3.348618e-002
1.558267e+003;2.894497e-002
1.560195e+003;2.988778e-002
1.562124e+003;3.453441e-002
1.564052e+003;3.564984e-002
1.565981e+003;3.527991e-002
1.567910e+003;3.418235e-002
1.569838e+003;3.311817e-002
1.571767e+003;3.404662e-002
1.573695e+003;3.327983e-002
1.575624e+003;3.081002e-002
1.577552e+003;3.213000e-002
1.579481e+003;3.428449e-002
1.581409e+003;3.426556e-002
1.583338e+003;3.405923e-002
1.585266e+003;3.398344e-002
1.587195e+003;3.371411e-002
1.589124e+003;3.309775e-002
1.591052e+003;3.266711e-002
1.592981e+003;3.200190e-002
1.594909e+003;3.151427e-002
1.596838e+003;3.165203e-002
1.598766e+003;3.166344e-002
1.600695e+003;3.122212e-002
1.602623e+003;3.090337e-002
1.604552e+003;3.094094e-002
1.606480e+003;3.102435e-002
1.608409e+003;3.084655e-002
1.610338e+003;3.046914e-002
1.612266e+003;3.026919e-002
1.614195e+003;2.884606e-002
1.616123e+003;2.623929e-002
1.618052e+003;2.752171e-002
1.619980e+003;2.958437e-002
1.621909e+003;2.876884e-002
1.623837e+003;2.820434e-002
1.625766e+003;2.881093e-002
1.627694e+003;2.891022e-002
1.629623e+003;2.939440e-002
1.631552e+003;2.964304e-002
1.633480e+003;2.746385e-002
1.635409e+003;2.537446e-002
1.637337e+003;2.756276e-002
1.639266e+003;2.955412e-002
1.641194e+003;2.968611e-002
1.643123e+003;2.897100e-002
1.645051e+003;2.651194e-002
1.646980e+003;2.590395e-002
1.648909e+003;2.760121e-002
1.650837e+003;2.441177e-002
1.652766e+003;1.951491e-002
1.654694e+003;2.318696e-002
1.656623e+003;2.766710e-002
1.658551e+003;2.851730e-002
1.660480e+003;2.773491e-002
1.662408e+003;2.672131e-002
1.664337e+003;2.741963e-002
1.666266e+003;2.755277e-002
1.668194e+003;2.549047e-002
1.670123e+003;2.492391e-002
1.672051e+003;2.605764e-002
1.673980e+003;2.509701e-002
1.675908e+003;2.474273e-002
1.677837e+003;2.615454e-002
1.679765e+003;2.613885e-002
1.681694e+003;2.437360e-002
1.683622e+003;2.046565e-002
1.685551e+003;2.143376e-002
1.687479e+003;2.490819e-002
1.689408e+003;2.561526e-002
1.691337e+003;2.564338e-002
1.693265e+003;2.405402e-002
1.695194e+003;2.087938e-002
1.697122e+003;2.131145e-002
1.699051e+003;2.007001e-002
1.700979e+003;1.985142e-002
1.702908e+003;2.326481e-002
1.704836e+003;2.346841e-002
1.706765e+003;2.372205e-002
1.708693e+003;2.442151e-002
1.710622e+003;2.454246e-002
1.712551e+003;2.360823e-002
1.714479e+003;2.170139e-002
1.716408e+003;1.880184e-002
1.718336e+003;1.894441e-002
1.720265e+003;2.186294e-002
1.722193e+003;2.303020e-002
1.724122e+003;2.284304e-002
1.726050e+003;2.295956e-002
1.727979e+003;2.279178e-002
1.729908e+003;2.220455e-002
1.731836e+003;2.008667e-002
1.733765e+003;1.798087e-002
1.735693e+003;2.052762e-002
1.737622e+003;2.252319e-002
1.739550e+003;2.191765e-002
1.741479e+003;2.209008e-002
1.743407e+003;2.218297e-002
1.745336e+003;2.186214e-002
1.747265e+003;2.093424e-002
1.749193e+003;1.942557e-002
1.751122e+003;1.840433e-002
1.753050e+003;1.937038e-002
1.754979e+003;1.959445e-002
1.756907e+003;1.908576e-002
1.758836e+003;1.885513e-002
1.760764e+003;1.775327e-002
1.762693e+003;1.756140e-002
1.764621e+003;1.820512e-002
1.766550e+003;1.748827e-002
1.768479e+003;1.684778e-002
1.770407e+003;1.561991e-002
1.772336e+003;1.449378e-002
1.774264e+003;1.601587e-002
1.776193e+003;1.718750e-002
1.778121e+003;1.708089e-002
1.780050e+003;1.675251e-002
1.781978e+003;1.709475e-002
1.783907e+003;1.722787e-002
1.785835e+003;1.787620e-002
1.787764e+003;1.898142e-002
1.789693e+003;1.917350e-002
1.791621e+003;1.936262e-002
1.793550e+003;2.142537e-002
1.795478e+003;2.382806e-002
1.797407e+003;2.434774e-002
1.799335e+003;2.358300e-002
1.801264e+003;2.276992e-002
1.803192e+003;2.229715e-002
1.805121e+003;2.107275e-002
1.807049e+003;1.958600e-002
1.808978e+003;1.813585e-002
1.810907e+003;1.676781e-002
1.812835e+003;1.609279e-002
1.814764e+003;1.583432e-002
1.816692e+003;1.568576e-002
1.818621e+003;1.583714e-002
1.820549e+003;1.564268e-002
1.822478e+003;1.527746e-002
1.824406e+003;1.483681e-002
1.826335e+003;1.506919e-002
1.828264e+003;1.483897e-002
1.830192e+003;1.459592e-002
1.832121e+003;1.539207e-002
1.834049e+003;1.575997e-002
1.835978e+003;1.556197e-002
1.837906e+003;1.550445e-002
1.839835e+003;1.539640e-002
1.841763e+003;1.439845e-002
1.843692e+003;1.298543e-002
1.845620e+003;1.347541e-002
1.847549e+003;1.423897e-002
1.849478e+003;1.418234e-002
1.851406e+003;1.412795e-002
1.853335e+003;1.400963e-002
1.855263e+003;1.399776e-002
1.857192e+003;1.397367e-002
1.859120e+003;1.394903e-002
1.861049e+003;1.383857e-002
1.862977e+003;1.349256e-002
1.864906e+003;1.300117e-002
1.866834e+003;1.241915e-002
1.868763e+003;1.211223e-002
1.870692e+003;1.281425e-002
1.872620e+003;1.329037e-002
1.874549e+003;1.317484e-002
1.876477e+003;1.321365e-002
1.878406e+003;1.333065e-002
1.880334e+003;1.348043e-002
1.882263e+003;1.334975e-002
1.884191e+003;1.326912e-002
1.886120e+003;1.321901e-002
1.888048e+003;1.299045e-002
1.889977e+003;1.302555e-002
1.891906e+003;1.346519e-002
1.893834e+003;1.370190e-002
1.895763e+003;1.386005e-002
1.897691e+003;1.391838e-002
1.899620e+003;1.391585e-002
1.901548e+003;1.368661e-002
1.903477e+003;1.336967e-002
1.905405e+003;1.305320e-002
1.907334e+003;1.298871e-002
1.909262e+003;1.300926e-002
1.911191e+003;1.321105e-002
1.913120e+003;1.331668e-002
1.915048e+003;1.304603e-002
1.916977e+003;1.234384e-002
1.918905e+003;1.251848e-002
1.920834e+003;1.316726e-002
1.922762e+003;1.275269e-002
1.924691e+003;1.239644e-002
1.926619e+003;1.250620e-002
1.928548e+003;1.254037e-002
1.930477e+003;1.242992e-002
1.932405e+003;1.217513e-002
1.934334e+003;1.212099e-002
1.936262e+003;1.215506e-002
1.938191e+003;1.176699e-002
1.940119e+003;1.137290e-002
1.942048e+003;1.135035e-002
1.943976e+003;1.167001e-002
1.945905e+003;1.204494e-002
1.947833e+003;1.205782e-002
1.949762e+003;1.177645e-002
1.951691e+003;1.172478e-002
1.953619e+003;1.164618e-002
1.955548e+003;1.144604e-002
1.957476e+003;1.150241e-002
1.959405e+003;1.169251e-002
1.961333e+003;1.209346e-002
1.963262e+003;1.247330e-002
1.965190e+003;1.225211e-002
1.967119e+003;1.161422e-002
1.969047e+003;1.143059e-002
1.970976e+003;1.150656e-002
1.972905e+003;1.157972e-002
1.974833e+003;1.156522e-002
1.976762e+003;1.147938e-002
1.978690e+003;1.162845e-002
1.980619e+003;1.170241e-002
1.982547e+003;1.149091e-002
1.984476e+003;1.159272e-002
1.986404e+003;1.182327e-002
1.988333e+003;1.207905e-002
1.990261e+003;1.201003e-002
1.992190e+003;1.157352e-002
1.994119e+003;1.171804e-002
1.996047e+003;1.208569e-002
1.997976e+003;1.210048e-002
1.999904e+003;1.204573e-002
2.001833e+003;1.211206e-002
2.003761e+003;1.222683e-002
2.005690e+003;1.204934e-002
2.007618e+003;1.186903e-002
2.009547e+003;1.190969e-002
2.011476e+003;1.201282e-002
2.013404e+003;1.204287e-002
2.015333e+003;1.188834e-002
2.017261e+003;1.194068e-002
2.019190e+003;1.228391e-002
2.021118e+003;1.240391e-002
2.023047e+003;1.209308e-002
2.024975e+003;1.197801e-002
2.026904e+003;1.231425e-002
2.028833e+003;1.249921e-002
2.030761e+003;1.244540e-002
2.032690e+003;1.230631e-002
2.034618e+003;1.233198e-002
2.036547e+003;1.245389e-002
2.038475e+003;1.271820e-002
2.040404e+003;1.264458e-002
2.042332e+003;1.242692e-002
2.044261e+003;1.255651e-002
2.046189e+003;1.262005e-002
2.048118e+003;1.265976e-002
2.050047e+003;1.271738e-002
2.051975e+003;1.266798e-002
2.053904e+003;1.256896e-002
2.055832e+003;1.253867e-002
2.057761e+003;1.245185e-002
2.059689e+003;1.236845e-002
2.061618e+003;1.227577e-002
2.063546e+003;1.224526e-002
2.065475e+003;1.226585e-002
2.067404e+003;1.214402e-002
2.069332e+003;1.226271e-002
2.071260e+003;1.255378e-002
2.073189e+003;1.270779e-002
2.075118e+003;1.270977e-002
2.077046e+003;1.285609e-002
2.078975e+003;1.306044e-002
2.080903e+003;1.296160e-002
2.082832e+003;1.300988e-002
2.084760e+003;1.310531e-002
2.086689e+003;1.313813e-002
2.088617e+003;1.329037e-002
2.090546e+003;1.347869e-002
2.092475e+003;1.342083e-002
2.094403e+003;1.335491e-002
2.096332e+003;1.343945e-002
2.098260e+003;1.336427e-002
2.100189e+003;1.330246e-002
2.102117e+003;1.335231e-002
2.104046e+003;1.342647e-002
2.105974e+003;1.324565e-002
2.107903e+003;1.334148e-002
2.109832e+003;1.353539e-002
2.111760e+003;1.341300e-002
2.113688e+003;1.299222e-002
2.115617e+003;1.301933e-002
2.117546e+003;1.333075e-002
2.119474e+003;1.370183e-002
2.121403e+003;1.414332e-002
2.123331e+003;1.431954e-002
2.125260e+003;1.443554e-002
2.127188e+003;1.470191e-002
2.129117e+003;1.500168e-002
2.131045e+003;1.529037e-002
2.132974e+003;1.554229e-002
2.134903e+003;1.560195e-002
2.136831e+003;1.536461e-002
2.138760e+003;1.515365e-002
2.140688e+003;1.511464e-002
2.142617e+003;1.509931e-002
2.144545e+003;1.478699e-002
2.146474e+003;1.471610e-002
2.148402e+003;1.492671e-002
2.150331e+003;1.522712e-002
2.152260e+003;1.542946e-002
2.154188e+003;1.542314e-002
2.156117e+003;1.529565e-002
2.158045e+003;1.534971e-002
2.159974e+003;1.552704e-002
2.161902e+003;1.566072e-002
2.163831e+003;1.596166e-002
2.165759e+003;1.609815e-002
2.167688e+003;1.598445e-002
2.169616e+003;1.595211e-002
2.171545e+003;1.616486e-002
2.173474e+003;1.624108e-002
2.175402e+003;1.634662e-002
2.177331e+003;1.653152e-002
2.179259e+003;1.643760e-002
2.181188e+003;1.626107e-002
2.183116e+003;1.619988e-002
2.185045e+003;1.635161e-002
2.186973e+003;1.646169e-002
2.188902e+003;1.627149e-002
2.190831e+003;1.597473e-002
2.192759e+003;1.603595e-002
2.194688e+003;1.612109e-002
2.196616e+003;1.603554e-002
2.198545e+003;1.584085e-002
2.200473e+003;1.577663e-002
2.202402e+003;1.599573e-002
2.204330e+003;1.603757e-002
2.206259e+003;1.584587e-002
2.208188e+003;1.582003e-002
2.210116e+003;1.578749e-002
2.212044e+003;1.564622e-002
2.213973e+003;1.567909e-002
2.215902e+003;1.560641e-002
2.217830e+003;1.541133e-002
2.219759e+003;1.559137e-002
2.221687e+003;1.583096e-002
2.223616e+003;1.581340e-002
2.225544e+003;1.576653e-002
2.227473e+003;1.594448e-002
2.229401e+003;1.615671e-002
2.231330e+003;1.613539e-002
2.233259e+003;1.598456e-002
2.235187e+003;1.576629e-002
2.237116e+003;1.551248e-002
2.239044e+003;1.540131e-002
2.240973e+003;1.543173e-002
2.242901e+003;1.573262e-002
2.244830e+003;1.600336e-002
2.246758e+003;1.622976e-002
2.248687e+003;1.638715e-002
2.250615e+003;1.640109e-002
2.252544e+003;1.639596e-002
2.254473e+003;1.669704e-002
2.256401e+003;1.706935e-002
2.258330e+003;1.707879e-002
2.260258e+003;1.677456e-002
2.262187e+003;1.663200e-002
2.264115e+003;1.653778e-002
2.266044e+003;1.632268e-002
2.267972e+003;1.613739e-002
2.269901e+003;1.607666e-002
2.271830e+003;1.589979e-002
2.273758e+003;1.566587e-002
2.275687e+003;1.555053e-002
2.277615e+003;1.529418e-002
2.279544e+003;1.500062e-002
2.281472e+003;1.506946e-002
2.283401e+003;1.526243e-002
2.285329e+003;1.541453e-002
2.287258e+003;1.559497e-002
2.289187e+003;1.558704e-002
2.291115e+003;1.568129e-002
2.293043e+003;1.568930e-002
2.294972e+003;1.551118e-002
2.296901e+003;1.556296e-002
2.298829e+003;1.568878e-002
2.300758e+003;1.578869e-002
2.302686e+003;1.591743e-002
2.304615e+003;1.574021e-002
2.306543e+003;1.561634e-002
2.308472e+003;1.574639e-002
2.310400e+003;1.550249e-002
2.312329e+003;1.513784e-002
2.314258e+003;1.528131e-002
2.316186e+003;1.553412e-002
2.318115e+003;1.561599e-002
2.320043e+003;1.576003e-002
2.321972e+003;1.600594e-002
2.323900e+003;1.621559e-002
2.325829e+003;1.640181e-002
2.327757e+003;1.634776e-002
2.329686e+003;1.622323e-002
2.331615e+003;1.633585e-002
2.333543e+003;1.659014e-002
2.335472e+003;1.664990e-002
2.337400e+003;1.690551e-002
2.339329e+003;1.711543e-002
2.341257e+003;1.692015e-002
2.343186e+003;1.674015e-002
2.345114e+003;1.690830e-002
2.347043e+003;1.727772e-002
2.348971e+003;1.752245e-002
2.350900e+003;1.766813e-002
2.352829e+003;1.779383e-002
2.354757e+003;1.800621e-002
2.356686e+003;1.812822e-002
2.358614e+003;1.823069e-002
2.360543e+003;1.848132e-002
2.362471e+003;1.845217e-002
2.364400e+003;1.820405e-002
2.366328e+003;1.805036e-002
2.368257e+003;1.808027e-002
2.370186e+003;1.807519e-002
2.372114e+003;1.825115e-002
2.374042e+003;1.868560e-002
2.375971e+003;1.875105e-002
2.377900e+003;1.853336e-002
2.379828e+003;1.863368e-002
2.381757e+003;1.870929e-002
2.383685e+003;1.854017e-002
2.385614e+003;1.840668e-002
2.387542e+003;1.850670e-002
2.389471e+003;1.871971e-002
2.391399e+003;1.892607e-002
2.393328e+003;1.902486e-002
2.395257e+003;1.903396e-002
2.397185e+003;1.887911e-002
2.399114e+003;1.877260e-002
2.401042e+003;1.885191e-002
2.402971e+003;1.896432e-002
2.404899e+003;1.898481e-002
2.406828e+003;1.903293e-002
2.408756e+003;1.918275e-002
2.410685e+003;1.940004e-002
2.412614e+003;1.941171e-002
2.414542e+003;1.921062e-002
2.416471e+003;1.934772e-002
2.418399e+003;1.940114e-002
2.420328e+003;1.951938e-002
2.422256e+003;1.979024e-002
2.424185e+003;1.984830e-002
2.426113e+003;2.002851e-002
2.428042e+003;2.037202e-002
2.429970e+003;2.027775e-002
2.431899e+003;1.994771e-002
2.433828e+003;1.983307e-002
2.435756e+003;1.970435e-002
2.437685e+003;1.945222e-002
2.439613e+003;1.918953e-002
2.441542e+003;1.911574e-002
2.443470e+003;1.898419e-002
2.445399e+003;1.879506e-002
2.447327e+003;1.854778e-002
2.449256e+003;1.826587e-002
2.451185e+003;1.832106e-002
2.453113e+003;1.850411e-002
2.455042e+003;1.852240e-002
2.456970e+003;1.849567e-002
2.458899e+003;1.852011e-002
2.460827e+003;1.828999e-002
2.462756e+003;1.815323e-002
2.464684e+003;1.814414e-002
2.466613e+003;1.836243e-002
2.468542e+003;1.854802e-002
2.470470e+003;1.868138e-002
2.472398e+003;1.866806e-002
2.474327e+003;1.868833e-002
2.476256e+003;1.909590e-002
2.478184e+003;1.953886e-002
2.480113e+003;1.978188e-002
2.482041e+003;1.997595e-002
2.483970e+003;2.007761e-002
2.485898e+003;2.012460e-002
2.487827e+003;2.027140e-002
2.489755e+003;2.067201e-002
2.491684e+003;2.081468e-002
2.493613e+003;2.124294e-002
2.495541e+003;2.183789e-002
2.497470e+003;2.232006e-002
2.499398e+003;2.276468e-002
2.501327e+003;2.286407e-002
2.503255e+003;2.324555e-002
2.505184e+003;2.389509e-002
2.507112e+003;2.447830e-002
2.509041e+003;2.520016e-002
2.510969e+003;2.571129e-002
2.512898e+003;2.606007e-002
2.514827e+003;2.637098e-002
2.516755e+003;2.652015e-002
2.518684e+003;2.682234e-002
2.520612e+003;2.726045e-002
2.522541e+003;2.759528e-002
2.524469e+003;2.776073e-002
2.526398e+003;2.741493e-002
2.528326e+003;2.703097e-002
2.530255e+003;2.697033e-002
2.532184e+003;2.701034e-002
2.534112e+003;2.680377e-002
2.536041e+003;2.642816e-002
2.537969e+003;2.608188e-002
2.539898e+003;2.593961e-002
2.541826e+003;2.608663e-002
2.543755e+003;2.607284e-002
2.545683e+003;2.598344e-002
2.547612e+003;2.597855e-002
2.549541e+003;2.600342e-002
2.551469e+003;2.620121e-002
2.553397e+003;2.668783e-002
2.555326e+003;2.700999e-002
2.557255e+003;2.712704e-002
2.559183e+003;2.723025e-002
2.561112e+003;2.739009e-002
2.563040e+003;2.770987e-002
2.564969e+003;2.802081e-002
2.566897e+003;2.850527e-002
2.568826e+003;2.914006e-002
2.570754e+003;2.967650e-002
2.572683e+003;3.061645e-002
2.574612e+003;3.172749e-002
2.576540e+003;3.252728e-002
2.578469e+003;3.327135e-002
2.580397e+003;3.343064e-002
2.582326e+003;3.320789e-002
2.584254e+003;3.282664e-002
2.586183e+003;3.204203e-002
2.588111e+003;3.121375e-002
2.590040e+003;3.047547e-002
2.591969e+003;3.006671e-002
2.593897e+003;2.969175e-002
2.595826e+003;2.933860e-002
2.597754e+003;2.906494e-002
2.599683e+003;2.904943e-002
2.601611e+003;2.928780e-002
2.603540e+003;2.949588e-002
2.605468e+003;2.981399e-002
2.607397e+003;3.051108e-002
2.609325e+003;3.114166e-002
2.611254e+003;3.163682e-002
2.613183e+003;3.190536e-002
2.615111e+003;3.173180e-002
2.617040e+003;3.168468e-002
2.618968e+003;3.182263e-002
2.620897e+003;3.151267e-002
2.622825e+003;3.114088e-002
2.624754e+003;3.092980e-002
2.626682e+003;3.061905e-002
2.628611e+003;3.051283e-002
2.630540e+003;3.029637e-002
2.632468e+003;2.995785e-002
2.634396e+003;2.991625e-002
2.636325e+003;3.005549e-002
2.638254e+003;3.007459e-002
2.640182e+003;3.026905e-002
2.642111e+003;3.058314e-002
2.644039e+003;3.087003e-002
2.645968e+003;3.132691e-002
2.647896e+003;3.185833e-002
2.649825e+003;3.221132e-002
2.651753e+003;3.246279e-002
2.653682e+003;3.293776e-002
2.655611e+003;3.322624e-002
2.657539e+003;3.337339e-002
2.659468e+003;3.359056e-002
2.661396e+003;3.380289e-002
2.663325e+003;3.388263e-002
2.665253e+003;3.381142e-002
2.667182e+003;3.385812e-002
2.669110e+003;3.388080e-002
2.671039e+003;3.379333e-002
2.672968e+003;3.391831e-002
2.674896e+003;3.440072e-002
2.676825e+003;3.476124e-002
2.678753e+003;3.481271e-002
2.680682e+003;3.475263e-002
2.682610e+003;3.454976e-002
2.684539e+003;3.472836e-002
2.686467e+003;3.493673e-002
2.688396e+003;3.506739e-002
2.690324e+003;3.502120e-002
2.692253e+003;3.487400e-002
2.694182e+003;3.459536e-002
2.696110e+003;3.421942e-002
2.698039e+003;3.441836e-002
2.699967e+003;3.511509e-002
2.701896e+003;3.566973e-002
2.703824e+003;3.626029e-002
2.705753e+003;3.697489e-002
2.707681e+003;3.789026e-002
2.709610e+003;3.901700e-002
2.711539e+003;4.025510e-002
2.713467e+003;4.149586e-002
2.715396e+003;4.266603e-002
2.717324e+003;4.431432e-002
2.719253e+003;4.609367e-002
2.721181e+003;4.745938e-002
2.723110e+003;4.802665e-002
2.725038e+003;4.768523e-002
2.726967e+003;4.662094e-002
2.728896e+003;4.529015e-002
2.730824e+003;4.418163e-002
2.732752e+003;4.293128e-002
2.734681e+003;4.164211e-002
2.736610e+003;4.053150e-002
2.738538e+003;3.974890e-002
2.740467e+003;3.906554e-002
2.742395e+003;3.820406e-002
2.744324e+003;3.725054e-002
2.746252e+003;3.670723e-002
2.748181e+003;3.644958e-002
2.750109e+003;3.617234e-002
2.752038e+003;3.623079e-002
2.753967e+003;3.611595e-002
2.755895e+003;3.654984e-002
2.757824e+003;3.750018e-002
2.759752e+003;3.790299e-002
2.761681e+003;3.805852e-002
2.763609e+003;3.839528e-002
2.765538e+003;3.873562e-002
2.767466e+003;3.930651e-002
2.769395e+003;3.986511e-002
2.771323e+003;4.012912e-002
2.773252e+003;4.044573e-002
2.775181e+003;4.104353e-002
2.777109e+003;4.188213e-002
2.779038e+003;4.302544e-002
2.780966e+003;4.417077e-002
2.782895e+003;4.551737e-002
2.784823e+003;4.705877e-002
2.786752e+003;4.882543e-002
2.788680e+003;5.081149e-002
2.790609e+003;5.251861e-002
2.792538e+003;5.395643e-002
2.794466e+003;5.525971e-002
2.796395e+003;5.652117e-002
2.798323e+003;5.769256e-002
2.800252e+003;5.908117e-002
2.802180e+003;6.102391e-002
2.804109e+003;6.325311e-002
2.806037e+003;6.530371e-002
2.807966e+003;6.695344e-002
2.809895e+003;6.821843e-002
2.811823e+003;6.960799e-002
2.813751e+003;7.140499e-002
2.815680e+003;7.338985e-002
2.817609e+003;7.537287e-002
2.819537e+003;7.754803e-002
2.821466e+003;8.016057e-002
2.823394e+003;8.335709e-002
2.825323e+003;8.767216e-002
2.827251e+003;9.352382e-002
2.829180e+003;1.009648e-001
2.831108e+003;1.098800e-001
2.833037e+003;1.189078e-001
2.834966e+003;1.262857e-001
2.836894e+003;1.300613e-001
2.838823e+003;1.295124e-001
2.840751e+003;1.260006e-001
2.842680e+003;1.210060e-001
2.844608e+003;1.157929e-001
2.846537e+003;1.115741e-001
2.848465e+003;1.081130e-001
2.850394e+003;1.055329e-001
2.852323e+003;1.044411e-001
2.854251e+003;1.038821e-001
2.856180e+003;1.046726e-001
2.858108e+003;1.079701e-001
2.860037e+003;1.135758e-001
2.861965e+003;1.213026e-001
2.863894e+003;1.295562e-001
2.865822e+003;1.357767e-001
2.867751e+003;1.390314e-001
2.869679e+003;1.405023e-001
2.871608e+003;1.415397e-001
2.873536e+003;1.421687e-001
2.875465e+003;1.419770e-001
2.877394e+003;1.406650e-001
2.879322e+003;1.386633e-001
2.881251e+003;1.368639e-001
2.883179e+003;1.359174e-001
2.885108e+003;1.357942e-001
2.887036e+003;1.366940e-001
2.888965e+003;1.389503e-001
2.890893e+003;1.415677e-001
2.892822e+003;1.444342e-001
2.894750e+003;1.483505e-001
2.896679e+003;1.532277e-001
2.898608e+003;1.583123e-001
2.900536e+003;1.639787e-001
2.902465e+003;1.697909e-001
2.904393e+003;1.755811e-001
2.906322e+003;1.808493e-001
2.908250e+003;1.853260e-001
2.910179e+003;1.897777e-001
2.912107e+003;1.938592e-001
2.914036e+003;1.968851e-001
2.915965e+003;1.977874e-001
2.917893e+003;1.960298e-001
2.919822e+003;1.924632e-001
2.921750e+003;1.875085e-001
2.923679e+003;1.815424e-001
2.925607e+003;1.746667e-001
2.927536e+003;1.670817e-001
2.929464e+003;1.588130e-001
2.931393e+003;1.498713e-001
2.933322e+003;1.416569e-001
2.935250e+003;1.347093e-001
2.937178e+003;1.292686e-001
2.939107e+003;1.264506e-001
2.941036e+003;1.272555e-001
2.942964e+003;1.319123e-001
2.944893e+003;1.395863e-001
2.946821e+003;1.480338e-001
2.948750e+003;1.549879e-001
2.950678e+003;1.589279e-001
2.952607e+003;1.594954e-001
2.954535e+003;1.571418e-001
2.956464e+003;1.533874e-001
2.958393e+003;1.488560e-001
2.960321e+003;1.429566e-001
2.962250e+003;1.356259e-001
2.964178e+003;1.278954e-001
2.966107e+003;1.201880e-001
2.968035e+003;1.124852e-001
2.969964e+003;1.051631e-001
2.971892e+003;9.830209e-002
2.973821e+003;9.210934e-002
2.975750e+003;8.690478e-002
2.977678e+003;8.206090e-002
2.979607e+003;7.762255e-002
2.981535e+003;7.417610e-002
2.983464e+003;7.129935e-002
2.985392e+003;6.849324e-002
2.987321e+003;6.593478e-002
2.989249e+003;6.373874e-002
2.991178e+003;6.159979e-002
2.993106e+003;5.963030e-002
2.995035e+003;5.782139e-002
2.996964e+003;5.641985e-002
2.998892e+003;5.474674e-002
3.000821e+003;5.251453e-002
3.002749e+003;5.034664e-002
3.004678e+003;4.843123e-002
3.006606e+003;4.666831e-002
3.008535e+003;4.504680e-002
3.010463e+003;4.372546e-002
3.012392e+003;4.231836e-002
3.014321e+003;4.085678e-002
3.016249e+003;3.972098e-002
3.018177e+003;3.855211e-002
3.020106e+003;3.716810e-002
3.022035e+003;3.600283e-002
3.023963e+003;3.498147e-002
3.025892e+003;3.416557e-002
3.027820e+003;3.337872e-002
3.029749e+003;3.243376e-002
3.031677e+003;3.161483e-002
3.033606e+003;3.085833e-002
3.035534e+003;3.019854e-002
3.037463e+003;2.930744e-002
3.039392e+003;2.856507e-002
3.041320e+003;2.852639e-002
3.043249e+003;2.843546e-002
3.045177e+003;2.765937e-002
3.047106e+003;2.688191e-002
3.049034e+003;2.658915e-002
3.050963e+003;2.653984e-002
3.052891e+003;2.606840e-002
3.054820e+003;2.581178e-002
3.056749e+003;2.587360e-002
3.058677e+003;2.543215e-002
3.060606e+003;2.514469e-002
3.062534e+003;2.516782e-002
3.064463e+003;2.494194e-002
3.066391e+003;2.431059e-002
3.068320e+003;2.379075e-002
3.070248e+003;2.378952e-002
3.072177e+003;2.391064e-002
3.074105e+003;2.398756e-002
3.076034e+003;2.381402e-002
3.077963e+003;2.352221e-002
3.079891e+003;2.324132e-002
3.081820e+003;2.300606e-002
3.083748e+003;2.278773e-002
3.085677e+003;2.262353e-002
3.087605e+003;2.243198e-002
3.089534e+003;2.239995e-002
3.091462e+003;2.251408e-002
3.093391e+003;2.267855e-002
3.095320e+003;2.266672e-002
3.097248e+003;2.280372e-002
3.099177e+003;2.279261e-002
3.101105e+003;2.232345e-002
3.103034e+003;2.203315e-002
3.104962e+003;2.215681e-002
3.106891e+003;2.217554e-002
3.108819e+003;2.210811e-002
3.110748e+003;2.213624e-002
3.112677e+003;2.219765e-002
3.114605e+003;2.232331e-002
3.116533e+003;2.236227e-002
3.118462e+003;2.251136e-002
3.120391e+003;2.296997e-002
3.122319e+003;2.299090e-002
3.124248e+003;2.254127e-002
3.126176e+003;2.227012e-002
3.128105e+003;2.260266e-002
3.130033e+003;2.301773e-002
3.131962e+003;2.331816e-002
3.133890e+003;2.302430e-002
3.135819e+003;2.257767e-002
3.137748e+003;2.252417e-002
3.139676e+003;2.290647e-002
3.141605e+003;2.341578e-002
3.143533e+003;2.354288e-002
3.145462e+003;2.369692e-002
3.147390e+003;2.357338e-002
3.149319e+003;2.344236e-002
3.151247e+003;2.345292e-002
3.153176e+003;2.344050e-002
3.155104e+003;2.357583e-002
3.157033e+003;2.340540e-002
3.158962e+003;2.354487e-002
3.160890e+003;2.365987e-002
3.162819e+003;2.322734e-002
3.164747e+003;2.269597e-002
3.166676e+003;2.264190e-002
3.168604e+003;2.285272e-002
3.170533e+003;2.323157e-002
3.172461e+003;2.335462e-002
3.174390e+003;2.285111e-002
3.176319e+003;2.271810e-002
3.178247e+003;2.305606e-002
3.180176e+003;2.308097e-002
3.182104e+003;2.315418e-002
3.184033e+003;2.321793e-002
3.185961e+003;2.324775e-002
3.187890e+003;2.312871e-002
3.189818e+003;2.324960e-002
3.191747e+003;2.339491e-002
3.193676e+003;2.345614e-002
3.195604e+003;2.339613e-002
3.197532e+003;2.329512e-002
3.199461e+003;2.335424e-002
3.201390e+003;2.355929e-002
3.203318e+003;2.350335e-002
3.205247e+003;2.330141e-002
3.207175e+003;2.311973e-002
3.209104e+003;2.278333e-002
3.211032e+003;2.244196e-002
3.212961e+003;2.228295e-002
3.214889e+003;2.206303e-002
3.216818e+003;2.173776e-002
3.218747e+003;2.152184e-002
3.220675e+003;2.116792e-002
3.222604e+003;2.080269e-002
3.224532e+003;2.052755e-002
3.226461e+003;2.039143e-002
3.228389e+003;2.035643e-002
3.230318e+003;2.029216e-002
3.232246e+003;2.022995e-002
3.234175e+003;1.941833e-002
3.236104e+003;1.911072e-002
3.238032e+003;1.929773e-002
3.239961e+003;1.901479e-002
3.241889e+003;1.859778e-002
3.243818e+003;1.824299e-002
3.245746e+003;1.806466e-002
3.247675e+003;1.800421e-002
3.249603e+003;1.779573e-002
3.251532e+003;1.771506e-002
3.253460e+003;1.789423e-002
3.255389e+003;1.756189e-002
3.257318e+003;1.713128e-002
3.259246e+003;1.713238e-002
3.261175e+003;1.708455e-002
3.263103e+003;1.707979e-002
3.265032e+003;1.679821e-002
3.266960e+003;1.615630e-002
3.268889e+003;1.634514e-002
3.270817e+003;1.715665e-002
3.272746e+003;1.752828e-002
3.274675e+003;1.721925e-002
3.276603e+003;1.695864e-002
3.278531e+003;1.724200e-002
3.280460e+003;1.730293e-002
3.282389e+003;1.718047e-002
3.284317e+003;1.719802e-002
3.286246e+003;1.712904e-002
3.288174e+003;1.726638e-002
3.290103e+003;1.764176e-002
3.292031e+003;1.781078e-002
3.293960e+003;1.739000e-002
3.295888e+003;1.681144e-002
3.297817e+003;1.657616e-002
3.299746e+003;1.655045e-002
3.301674e+003;1.668995e-002
3.303603e+003;1.679787e-002
3.305531e+003;1.676123e-002
3.307460e+003;1.673740e-002
3.309388e+003;1.678668e-002
3.311317e+003;1.696584e-002
3.313245e+003;1.684433e-002
3.315174e+003;1.678165e-002
3.317103e+003;1.690916e-002
3.319031e+003;1.670331e-002
3.320960e+003;1.641155e-002
3.322888e+003;1.672476e-002
3.324817e+003;1.682677e-002
3.326745e+003;1.651744e-002
3.328674e+003;1.640092e-002
3.330602e+003;1.630812e-002
3.332531e+003;1.651957e-002
3.334459e+003;1.716603e-002
3.336388e+003;1.733665e-002
3.338317e+003;1.731168e-002
3.340245e+003;1.712535e-002
3.342174e+003;1.671715e-002
3.344102e+003;1.662825e-002
3.346031e+003;1.696818e-002
3.347959e+003;1.764994e-002
3.349888e+003;1.794032e-002
3.351816e+003;1.724321e-002
3.353745e+003;1.691771e-002
3.355674e+003;1.683145e-002
3.357602e+003;1.680527e-002
3.359531e+003;1.689170e-002
3.361459e+003;1.698117e-002
3.363388e+003;1.718478e-002
3.365316e+003;1.743487e-002
3.367245e+003;1.738879e-002
3.369173e+003;1.709730e-002
3.371102e+003;1.679859e-002
3.373031e+003;1.651610e-002
3.374959e+003;1.642696e-002
3.376887e+003;1.645088e-002
3.378816e+003;1.649208e-002
3.380745e+003;1.624968e-002
3.382673e+003;1.614055e-002
3.384602e+003;1.600821e-002
3.386530e+003;1.589563e-002
3.388459e+003;1.620466e-002
3.390387e+003;1.636021e-002
3.392316e+003;1.693479e-002
3.394244e+003;1.736579e-002
3.396173e+003;1.704695e-002
3.398102e+003;1.672435e-002
3.400030e+003;1.625047e-002
3.401959e+003;1.596867e-002
3.403887e+003;1.550290e-002
3.405816e+003;1.543186e-002
3.407744e+003;1.599322e-002
3.409673e+003;1.601440e-002
3.411601e+003;1.609382e-002
3.413530e+003;1.654763e-002
3.415458e+003;1.671446e-002
3.417387e+003;1.663135e-002
3.419316e+003;1.648702e-002
3.421244e+003;1.593461e-002
3.423173e+003;1.560964e-002
3.425101e+003;1.588539e-002
3.427030e+003;1.597909e-002
3.428958e+003;1.568844e-002
3.430887e+003;1.520042e-002
3.432815e+003;1.492150e-002
3.434744e+003;1.477691e-002
3.436673e+003;1.498838e-002
3.438601e+003;1.522149e-002
3.440530e+003;1.481624e-002
3.442458e+003;1.482789e-002
3.444387e+003;1.514147e-002
3.446315e+003;1.480499e-002
3.448244e+003;1.454229e-002
3.450172e+003;1.440701e-002
3.452101e+003;1.429677e-002
3.454030e+003;1.405618e-002
3.455958e+003;1.366668e-002
3.457886e+003;1.370569e-002
3.459815e+003;1.380128e-002
3.461744e+003;1.347025e-002
3.463672e+003;1.307089e-002
3.465601e+003;1.279228e-002
3.467529e+003;1.314240e-002
3.469458e+003;1.341874e-002
3.471386e+003;1.343439e-002
3.473315e+003;1.328197e-002
3.475243e+003;1.305191e-002
3.477172e+003;1.342021e-002
3.479101e+003;1.369978e-002
3.481029e+003;1.306973e-002
3.482958e+003;1.230014e-002
3.484886e+003;1.215898e-002
3.486815e+003;1.269855e-002
3.488743e+003;1.289620e-002
3.490672e+003;1.254119e-002
3.492600e+003;1.227751e-002
3.494529e+003;1.248022e-002
3.496458e+003;1.260358e-002
3.498386e+003;1.272383e-002
3.500315e+003;1.245536e-002
3.502243e+003;1.221173e-002
3.504172e+003;1.244578e-002
3.506100e+003;1.259982e-002
3.508029e+003;1.211359e-002
3.509957e+003;1.179998e-002
3.511886e+003;1.230750e-002
3.513814e+003;1.254112e-002
3.515743e+003;1.226970e-002
3.517672e+003;1.236051e-002
3.519600e+003;1.264369e-002
3.521529e+003;1.241724e-002
3.523457e+003;1.211247e-002
3.525386e+003;1.216927e-002
3.527314e+003;1.213376e-002
3.529243e+003;1.215312e-002
3.531171e+003;1.194177e-002
3.533100e+003;1.180386e-002
3.535029e+003;1.169908e-002
3.536957e+003;1.149598e-002
3.538885e+003;1.170769e-002
3.540814e+003;1.173761e-002
3.542743e+003;1.144641e-002
3.544671e+003;1.161276e-002
3.546600e+003;1.186086e-002
3.548528e+003;1.167927e-002
3.550457e+003;1.135430e-002
3.552385e+003;1.131168e-002
3.554314e+003;1.150459e-002
3.556242e+003;1.149578e-002
3.558171e+003;1.149901e-002
3.560100e+003;1.155535e-002
3.562028e+003;1.111264e-002
3.563957e+003;1.034546e-002
3.565885e+003;9.478120e-003
3.567814e+003;9.534374e-003
3.569742e+003;1.026606e-002
3.571671e+003;1.089069e-002
3.573599e+003;1.122640e-002
3.575528e+003;1.111563e-002
3.577457e+003;1.117057e-002
3.579385e+003;1.082197e-002
3.581314e+003;1.073848e-002
3.583242e+003;1.081922e-002
3.585171e+003;1.028622e-002
3.587099e+003;9.454043e-003
3.589028e+003;9.697452e-003
3.590956e+003;1.012437e-002
3.592885e+003;1.000135e-002
3.594813e+003;1.029154e-002
3.596742e+003;1.058923e-002
3.598671e+003;1.044194e-002
3.600599e+003;1.041384e-002
3.602528e+003;1.047683e-002
3.604456e+003;1.040009e-002
3.606385e+003;9.612619e-003
3.608313e+003;9.091484e-003
3.610242e+003;9.698942e-003
3.612170e+003;9.507515e-003
3.614099e+003;9.175877e-003
3.616028e+003;9.268817e-003
3.617956e+003;9.103733e-003
3.619885e+003;9.393973e-003
3.621813e+003;1.019632e-002
3.623742e+003;1.013394e-002
3.625670e+003;9.414018e-003
3.627599e+003;7.070831e-003
3.629527e+003;7.178513e-003
3.631456e+003;1.011600e-002
3.633385e+003;1.096973e-002
3.635313e+003;1.083654e-002
3.637241e+003;1.075872e-002
3.639170e+003;1.053912e-002
3.641099e+003;1.033121e-002
3.643027e+003;9.993752e-003
3.644956e+003;9.538167e-003
3.646884e+003;8.097671e-003
3.648813e+003;6.789207e-003
3.650741e+003;7.757696e-003
3.652670e+003;9.799382e-003
3.654598e+003;9.652052e-003
3.656527e+003;9.317053e-003
3.658456e+003;1.032588e-002
3.660384e+003;1.069086e-002
3.662313e+003;1.079336e-002
3.664241e+003;1.114422e-002
3.666170e+003;1.068709e-002
3.668098e+003;8.406833e-003
3.670027e+003;6.886955e-003
3.671955e+003;8.384402e-003
3.673884e+003;7.378318e-003
3.675813e+003;7.000888e-003
3.677741e+003;9.765154e-003
3.679669e+003;1.083450e-002
3.681598e+003;1.128954e-002
3.683527e+003;1.161460e-002
3.685455e+003;1.085553e-002
3.687384e+003;8.333972e-003
3.689312e+003;8.230561e-003
3.691241e+003;1.018794e-002
3.693169e+003;1.166854e-002
3.695098e+003;1.188255e-002
3.697026e+003;1.165302e-002
3.698955e+003;1.155443e-002
3.700884e+003;1.117924e-002
3.702812e+003;1.132723e-002
3.704741e+003;1.189423e-002
3.706669e+003;1.172927e-002
3.708598e+003;1.074863e-002
3.710526e+003;9.770915e-003
3.712455e+003;1.011454e-002
3.714383e+003;1.169199e-002
3.716312e+003;1.207833e-002
3.718240e+003;1.196313e-002
3.720169e+003;1.154116e-002
3.722098e+003;1.113233e-002
3.724026e+003;1.110496e-002
3.725955e+003;1.089565e-002
3.727883e+003;1.152466e-002
3.729812e+003;1.117669e-002
3.731740e+003;9.621122e-003
3.733669e+003;9.129788e-003
3.735597e+003;8.691739e-003
3.737526e+003;1.026983e-002
3.739455e+003;1.205223e-002
3.741383e+003;1.089395e-002
3.743312e+003;6.464479e-003
3.745240e+003;6.438753e-003
3.747169e+003;8.126434e-003
3.749097e+003;6.397324e-003
3.751026e+003;6.448573e-003
3.752954e+003;9.052780e-003
3.754883e+003;1.149887e-002
3.756812e+003;1.193775e-002
3.758740e+003;1.168369e-002
3.760668e+003;1.173397e-002
3.762597e+003;1.241291e-002
3.764526e+003;1.218709e-002
3.766454e+003;1.256350e-002
3.768383e+003;1.203902e-002
3.770311e+003;1.164098e-002
3.772240e+003;1.267893e-002
3.774168e+003;1.320996e-002
3.776097e+003;1.276764e-002
3.778025e+003;1.246808e-002
3.779954e+003;1.273089e-002
3.781883e+003;1.314428e-002
3.783811e+003;1.303582e-002
3.785740e+003;1.323978e-002
3.787668e+003;1.341662e-002
3.789597e+003;1.334979e-002
3.791525e+003;1.302439e-002
3.793454e+003;1.278846e-002
3.795382e+003;1.210126e-002
3.797311e+003;1.160027e-002
3.799240e+003;1.012302e-002
3.801168e+003;8.767365e-003
3.803097e+003;1.104602e-002
3.805025e+003;1.132481e-002
3.806954e+003;1.080318e-002
3.808882e+003;1.255306e-002
3.810811e+003;1.329816e-002
3.812739e+003;1.263707e-002
3.814668e+003;9.881234e-003
3.816596e+003;9.704194e-003
3.818525e+003;1.126601e-002
3.820454e+003;1.037637e-002
3.822382e+003;1.125982e-002
3.824311e+003;1.258290e-002
3.826239e+003;1.256067e-002
3.828168e+003;1.302333e-002
3.830096e+003;1.290804e-002
3.832025e+003;1.218310e-002
3.833953e+003;1.083182e-002
3.835882e+003;8.759995e-003
3.837811e+003;8.121032e-003
3.839739e+003;1.018068e-002
3.841667e+003;1.147856e-002
3.843596e+003;1.192481e-002
3.845525e+003;1.322690e-002
3.847453e+003;1.370056e-002
3.849382e+003;1.162951e-002
3.851310e+003;7.352200e-003
3.853239e+003;4.706053e-003
3.855167e+003;8.152869e-003
3.857096e+003;1.198949e-002
3.859024e+003;1.293057e-002
3.860953e+003;1.284732e-002
3.862882e+003;1.257260e-002
3.864810e+003;1.234824e-002
3.866739e+003;1.218965e-002
3.868667e+003;1.054296e-002
3.870596e+003;1.061521e-002
3.872524e+003;1.217257e-002
3.874453e+003;1.276177e-002
3.876381e+003;1.322116e-002
3.878310e+003;1.262442e-002
3.880239e+003;1.206988e-002
3.882167e+003;1.260368e-002
3.884096e+003;1.163407e-002
3.886024e+003;1.184652e-002
3.887953e+003;1.374003e-002
3.889881e+003;1.311624e-002
3.891810e+003;1.277433e-002
3.893738e+003;1.380641e-002
3.895667e+003;1.383894e-002
3.897595e+003;1.274502e-002
3.899524e+003;1.169785e-002
3.901453e+003;1.155954e-002
3.903381e+003;1.197386e-002
3.905310e+003;1.299871e-002
3.907238e+003;1.369827e-002
3.909167e+003;1.398890e-002
3.911095e+003;1.441581e-002
3.913024e+003;1.440119e-002
3.914952e+003;1.387271e-002
3.916881e+003;1.378493e-002
3.918810e+003;1.435499e-002
3.920738e+003;1.457056e-002
3.922667e+003;1.446839e-002
3.924595e+003;1.441194e-002
3.926524e+003;1.459379e-002
3.928452e+003;1.490686e-002
3.930381e+003;1.479460e-002
3.932309e+003;1.439841e-002
3.934238e+003;1.474479e-002
3.936167e+003;1.522259e-002
3.938095e+003;1.504127e-002
3.940023e+003;1.448802e-002
3.941952e+003;1.402100e-002
3.943881e+003;1.409933e-002
3.945809e+003;1.457354e-002
3.947738e+003;1.438475e-002
3.949666e+003;1.403975e-002
3.951595e+003;1.454507e-002
3.953523e+003;1.510205e-002
3.955452e+003;1.530231e-002
3.957380e+003;1.527029e-002
3.959309e+003;1.462432e-002
3.961238e+003;1.385871e-002
3.963166e+003;1.384342e-002
3.965095e+003;1.421867e-002
3.967023e+003;1.461678e-002
3.968952e+003;1.455665e-002
3.970880e+003;1.451577e-002
3.972809e+003;1.461757e-002
3.974737e+003;1.476944e-002
3.976666e+003;1.505801e-002
3.978594e+003;1.520749e-002
3.980523e+003;1.531587e-002
3.982452e+003;1.545895e-002
3.984380e+003;1.527156e-002
3.986309e+003;1.526154e-002
3.988237e+003;1.531659e-002
3.990166e+003;1.592066e-002
3.992094e+003;1.658057e-002
3.994023e+003;1.646881e-002
3.995951e+003;1.603650e-002
3.997880e+003;1.589000e-002
3.999809e+003;1.632646e-002
4.001737e+003;0.000000e+000
