3.992094e+002;0.000000e+000
4.011380e+002;0.000000e+000
4.030665e+002;0.000000e+000
4.049951e+002;0.000000e+000
4.069236e+002;0.000000e+000
4.088522e+002;0.000000e+000
4.107807e+002;0.000000e+000
4.127093e+002;0.000000e+000
4.146378e+002;0.000000e+000
4.165664e+002;0.000000e+000
4.184949e+002;0.000000e+000
4.204235e+002;0.000000e+000
4.223520e+002;0.000000e+000
4.242806e+002;0.000000e+000
4.262091e+002;0.000000e+000
4.281377e+002;0.000000e+000
4.300662e+002;0.000000e+000
4.319948e+002;0.000000e+000
4.339233e+002;0.000000e+000
4.358519e+002;0.000000e+000
4.377804e+002;0.000000e+000
4.397090e+002;0.000000e+000
4.416375e+002;0.000000e+000
4.435660e+002;0.000000e+000
4.454946e+002;0.000000e+000
4.474232e+002;0.000000e+000
4.493517e+002;0.000000e+000
4.512802e+002;0.000000e+000
4.532088e+002;0.000000e+000
4.551373e+002;0.000000e+000
4.570659e+002;0.000000e+000
4.589944e+002;0.000000e+000
4.609230e+002;0.000000e+000
4.628515e+002;0.000000e+000
4.647801e+002;0.000000e+000
4.667086e+002;0.000000e+000
4.686372e+002;0.000000e+000
4.705657e+002;0.000000e+000
4.724943e+002;0.000000e+000
4.744228e+002;0.000000e+000
4.763513e+002;0.000000e+000
4.782799e+002;0.000000e+000
4.802085e+002;0.000000e+000
4.821370e+002;0.000000e+000
4.840656e+002;0.000000e+000
4.859941e+002;0.000000e+000
4.879226e+002;0.000000e+000
4.898512e+002;0.000000e+000
4.917798e+002;0.000000e+000
4.937083e+002;0.000000e+000
4.956368e+002;0.000000e+000
4.975654e+002;0.000000e+000
4.994939e+002;0.000000e+000
5.014225e+002;0.000000e+000
5.033510e+002;0.000000e+000
5.052796e+002;0.000000e+000
5.072081e+002;0.000000e+000
5.091367e+002;0.000000e+000
5.110652e+002;0.000000e+000
5.129938e+002;0.000000e+000
5.149223e+002;0.000000e+000
5.168509e+002;0.000000e+000
5.187794e+002;0.000000e+000
5.207079e+002;0.000000e+000
5.226365e+002;0.000000e+000
5.245651e+002;0.000000e+000
5.264936e+002;0.000000e+000
5.284222e+002;0.000000e+000
5.303507e+002;0.000000e+000
5.322792e+002;0.000000e+000
5.342078e+002;0.000000e+000
5.361364e+002;0.000000e+000
5.380649e+002;0.000000e+000
5.399935e+002;0.000000e+000
5.419220e+002;0.000000e+000
5.438505e+002;0.000000e+000
5.457791e+002;0.000000e+000
5.477076e+002;0.000000e+000
5.496362e+002;0.000000e+000
5.515648e+002;0.000000e+000
5.534933e+002;0.000000e+000
5.554218e+002;0.000000e+000
5.573504e+002;0.000000e+000
5.592789e+002;0.000000e+000
5.612075e+002;0.000000e+000
5.631360e+002;0.000000e+000
5.650646e+002;0.000000e+000
5.669931e+002;0.000000e+000
5.689217e+002;0.000000e+000
5.708502e+002;0.000000e+000
5.727787e+002;0.000000e+000
5.747073e+002;0.000000e+000
5.766359e+002;0.000000e+000
5.785644e+002;0.000000e+000
5.804930e+002;0.000000e+000
5.824215e+002;0.000000e+000
5.843500e+002;0.000000e+000
5.862786e+002;0.000000e+000
5.882072e+002;0.000000e+000
5.901357e+002;0.000000e+000
5.920643e+002;0.000000e+000
5.939928e+002;0.000000e+000
5.959213e+002;0.000000e+000
5.978499e+002;0.000000e+000
5.997784e+002;3.748953e-002
6.017070e+002;3.582946e-002
6.036355e+002;3.071737e-002
6.055641e+002;3.663224e-002
6.074926e+002;4.132965e-002
6.094211e+002;3.827780e-002
6.113497e+002;3.708260e-002
6.132783e+002;3.784927e-002
6.152068e+002;3.581809e-002
6.171354e+002;3.276261e-002
6.190639e+002;3.450857e-002
6.209924e+002;3.431640e-002
6.229210e+002;3.460749e-002
6.248495e+002;3.542207e-002
6.267781e+002;3.256321e-002
6.287067e+002;2.994521e-002
6.306352e+002;3.168197e-002
6.325637e+002;3.168764e-002
6.344923e+002;3.524847e-002
6.364208e+002;3.937547e-002
6.383494e+002;3.958303e-002
6.402780e+002;3.559610e-002
6.422065e+002;3.215972e-002
6.441350e+002;3.291978e-002
6.460636e+002;3.137609e-002
6.479921e+002;3.116604e-002
6.499207e+002;3.522137e-002
6.518492e+002;3.718459e-002
6.537778e+002;3.575883e-002
6.557063e+002;3.311184e-002
6.576349e+002;3.047903e-002
6.595634e+002;2.983103e-002
6.614919e+002;3.157160e-002
6.634205e+002;3.163125e-002
6.653491e+002;3.096520e-002
6.672776e+002;3.028067e-002
6.692062e+002;3.105734e-002
6.711347e+002;3.107410e-002
6.730632e+002;3.058339e-002
6.749918e+002;3.168689e-002
6.769203e+002;3.289962e-002
6.788489e+002;3.300861e-002
6.807775e+002;3.183582e-002
6.827060e+002;3.049026e-002
6.846345e+002;3.109154e-002
6.865631e+002;3.136833e-002
6.884916e+002;3.081841e-002
6.904202e+002;3.065763e-002
6.923488e+002;3.113461e-002
6.942773e+002;3.206421e-002
6.962058e+002;3.225011e-002
6.981344e+002;3.154659e-002
7.000629e+002;3.209372e-002
7.019915e+002;3.320700e-002
7.039200e+002;3.468784e-002
7.058486e+002;3.699885e-002
7.077771e+002;4.191910e-002
7.097057e+002;5.011624e-002
7.116342e+002;5.891929e-002
7.135627e+002;6.308100e-002
7.154913e+002;6.075059e-002
7.174199e+002;5.431773e-002
7.193484e+002;4.740797e-002
7.212770e+002;4.311969e-002
7.232055e+002;4.056726e-002
7.251340e+002;3.796800e-002
7.270626e+002;3.586840e-002
7.289911e+002;3.480783e-002
7.309197e+002;3.495619e-002
7.328483e+002;3.435065e-002
7.347768e+002;3.305863e-002
7.367053e+002;3.214291e-002
7.386339e+002;3.231657e-002
7.405624e+002;3.267987e-002
7.424910e+002;3.309907e-002
7.444196e+002;3.350919e-002
7.463481e+002;3.389011e-002
7.482766e+002;3.302284e-002
7.502052e+002;3.253696e-002
7.521337e+002;3.200183e-002
7.540623e+002;3.093343e-002
7.559908e+002;3.072498e-002
7.579194e+002;3.205176e-002
7.598479e+002;3.292432e-002
7.617765e+002;3.322277e-002
7.637050e+002;3.367061e-002
7.656335e+002;3.396467e-002
7.675621e+002;3.444465e-002
7.694907e+002;3.458944e-002
7.714192e+002;3.433986e-002
7.733478e+002;3.433032e-002
7.752763e+002;3.427836e-002
7.772048e+002;3.428442e-002
7.791334e+002;3.490527e-002
7.810620e+002;3.571717e-002
7.829905e+002;3.630431e-002
7.849191e+002;3.694563e-002
7.868476e+002;3.776067e-002
7.887761e+002;3.913842e-002
7.907047e+002;3.932381e-002
7.926332e+002;3.966093e-002
7.945618e+002;4.132462e-002
7.964903e+002;4.230473e-002
7.984189e+002;4.271400e-002
8.003474e+002;4.411678e-002
8.022759e+002;4.629729e-002
8.042045e+002;5.052825e-002
8.061331e+002;5.594715e-002
8.080616e+002;6.011837e-002
8.099902e+002;6.158273e-002
8.119187e+002;5.988988e-002
8.138472e+002;5.631875e-002
8.157758e+002;5.249251e-002
8.177043e+002;4.976660e-002
8.196329e+002;4.789455e-002
8.215615e+002;4.618273e-002
8.234900e+002;4.535925e-002
8.254185e+002;4.612024e-002
8.273471e+002;4.674132e-002
8.292756e+002;4.760717e-002
8.312042e+002;4.885743e-002
8.331328e+002;5.091549e-002
8.350613e+002;5.483884e-002
8.369898e+002;5.987623e-002
8.389184e+002;6.466560e-002
8.408469e+002;6.798398e-002
8.427755e+002;6.640103e-002
8.447040e+002;6.108951e-002
8.466326e+002;5.831288e-002
8.485611e+002;5.554993e-002
8.504897e+002;5.195067e-002
8.524182e+002;4.973937e-002
8.543467e+002;4.848802e-002
8.562753e+002;4.815275e-002
8.582039e+002;4.859269e-002
8.601324e+002;4.940911e-002
8.620610e+002;5.184989e-002
8.639895e+002;5.588033e-002
8.659180e+002;6.198566e-002
8.678466e+002;7.220592e-002
8.697751e+002;8.662648e-002
8.717037e+002;1.008880e-001
8.736323e+002;1.109669e-001
8.755608e+002;1.133521e-001
8.774893e+002;1.064292e-001
8.794179e+002;9.436241e-002
8.813464e+002;8.408380e-002
8.832750e+002;7.499497e-002
8.852036e+002;6.302094e-002
8.871321e+002;5.170241e-002
8.890606e+002;4.589704e-002
8.909892e+002;4.533891e-002
8.929177e+002;4.809712e-002
8.948463e+002;5.227114e-002
8.967748e+002;5.687002e-002
8.987034e+002;6.001917e-002
9.006319e+002;5.921546e-002
9.025605e+002;5.507973e-002
9.044890e+002;4.959345e-002
9.064175e+002;4.494330e-002
9.083461e+002;4.165954e-002
9.102747e+002;3.972330e-002
9.122032e+002;3.888175e-002
9.141318e+002;3.791409e-002
9.160603e+002;3.733608e-002
9.179888e+002;3.734723e-002
9.199174e+002;3.703092e-002
9.218459e+002;3.712432e-002
9.237745e+002;3.751406e-002
9.257031e+002;3.736074e-002
9.276316e+002;3.718188e-002
9.295601e+002;3.713377e-002
9.314887e+002;3.742347e-002
9.334172e+002;3.878960e-002
9.353458e+002;4.053564e-002
9.372744e+002;4.223717e-002
9.392029e+002;4.408634e-002
9.411314e+002;4.495256e-002
9.430600e+002;4.422708e-002
9.449885e+002;4.300502e-002
9.469171e+002;4.254944e-002
9.488456e+002;4.315742e-002
9.507742e+002;4.406158e-002
9.527027e+002;4.481445e-002
9.546313e+002;4.573684e-002
9.565598e+002;4.648525e-002
9.584883e+002;4.737479e-002
9.604169e+002;4.926305e-002
9.623455e+002;5.194313e-002
9.642740e+002;5.517080e-002
9.662026e+002;5.959807e-002
9.681311e+002;6.527776e-002
9.700596e+002;7.148255e-002
9.719882e+002;7.583709e-002
9.739167e+002;7.576971e-002
9.758453e+002;7.100021e-002
9.777739e+002;6.378321e-002
9.797024e+002;5.617557e-002
9.816309e+002;4.986103e-002
9.835595e+002;4.605399e-002
9.854880e+002;4.414315e-002
9.874166e+002;4.414814e-002
9.893452e+002;4.620223e-002
9.912737e+002;4.998443e-002
9.932022e+002;5.494170e-002
9.951307e+002;5.996135e-002
9.970593e+002;6.332291e-002
9.989879e+002;6.291147e-002
1.000916e+003;5.889432e-002
1.002845e+003;5.337182e-002
1.004773e+003;4.859855e-002
1.006702e+003;4.497844e-002
1.008631e+003;4.189363e-002
1.010559e+003;3.964187e-002
1.012488e+003;3.822475e-002
1.014416e+003;3.725415e-002
1.016345e+003;3.681145e-002
1.018273e+003;3.604707e-002
1.020202e+003;3.511348e-002
1.022130e+003;3.488438e-002
1.024059e+003;3.449433e-002
1.025988e+003;3.376872e-002
1.027916e+003;3.373968e-002
1.029845e+003;3.408002e-002
1.031773e+003;3.419920e-002
1.033702e+003;3.443784e-002
1.035630e+003;3.514049e-002
1.037559e+003;3.549645e-002
1.039487e+003;3.580211e-002
1.041416e+003;3.647351e-002
1.043344e+003;3.724751e-002
1.045273e+003;3.762060e-002
1.047202e+003;3.747562e-002
1.049130e+003;3.681895e-002
1.051059e+003;3.577610e-002
1.052987e+003;3.460401e-002
1.054916e+003;3.341797e-002
1.056844e+003;3.272527e-002
1.058773e+003;3.246158e-002
1.060701e+003;3.209735e-002
1.062630e+003;3.206960e-002
1.064558e+003;3.228188e-002
1.066487e+003;3.188578e-002
1.068416e+003;3.149258e-002
1.070344e+003;3.155275e-002
1.072273e+003;3.178859e-002
1.074201e+003;3.145488e-002
1.076130e+003;3.123785e-002
1.078058e+003;3.198257e-002
1.079987e+003;3.287689e-002
1.081915e+003;3.313082e-002
1.083844e+003;3.333303e-002
1.085773e+003;3.350382e-002
1.087701e+003;3.355494e-002
1.089630e+003;3.377503e-002
1.091558e+003;3.460031e-002
1.093487e+003;3.567034e-002
1.095415e+003;3.725047e-002
1.097344e+003;3.955548e-002
1.099272e+003;4.162169e-002
1.101201e+003;4.287499e-002
1.103129e+003;4.304073e-002
1.105058e+003;4.160717e-002
1.106987e+003;3.939136e-002
1.108915e+003;3.648061e-002
1.110844e+003;3.434983e-002
1.112772e+003;3.324638e-002
1.114701e+003;3.258964e-002
1.116629e+003;3.198870e-002
1.118558e+003;3.141015e-002
1.120486e+003;3.118573e-002
1.122415e+003;3.131181e-002
1.124344e+003;3.139066e-002
1.126272e+003;3.100744e-002
1.128201e+003;3.128913e-002
1.130129e+003;3.177518e-002
1.132058e+003;3.253189e-002
1.133986e+003;3.389373e-002
1.135915e+003;3.555370e-002
1.137843e+003;3.742658e-002
1.139772e+003;3.979400e-002
1.141700e+003;4.314659e-002
1.143629e+003;4.710519e-002
1.145557e+003;5.065810e-002
1.147486e+003;5.451005e-002
1.149415e+003;5.854687e-002
1.151343e+003;6.181398e-002
1.153272e+003;6.336588e-002
1.155200e+003;6.363411e-002
1.157129e+003;6.355061e-002
1.159057e+003;6.376710e-002
1.160986e+003;6.435093e-002
1.162914e+003;6.485415e-002
1.164843e+003;6.463750e-002
1.166771e+003;6.342389e-002
1.168700e+003;6.039118e-002
1.170629e+003;5.595940e-002
1.172557e+003;5.133985e-002
1.174486e+003;4.684067e-002
1.176414e+003;4.255065e-002
1.178343e+003;3.904038e-002
1.180271e+003;3.669782e-002
1.182200e+003;3.500809e-002
1.184128e+003;3.363756e-002
1.186057e+003;3.275257e-002
1.187986e+003;3.253603e-002
1.189914e+003;3.268930e-002
1.191843e+003;3.295792e-002
1.193771e+003;3.327139e-002
1.195700e+003;3.344792e-002
1.197628e+003;3.353063e-002
1.199557e+003;3.359256e-002
1.201485e+003;3.373582e-002
1.203414e+003;3.388453e-002
1.205343e+003;3.441761e-002
1.207271e+003;3.514495e-002
1.209200e+003;3.619712e-002
1.211128e+003;3.764607e-002
1.213057e+003;3.952768e-002
1.214985e+003;4.115115e-002
1.216914e+003;4.206115e-002
1.218842e+003;4.200585e-002
1.220771e+003;4.091390e-002
1.222699e+003;3.966079e-002
1.224628e+003;3.861251e-002
1.226557e+003;3.748733e-002
1.228485e+003;3.670269e-002
1.230414e+003;3.629430e-002
1.232342e+003;3.638847e-002
1.234271e+003;3.662669e-002
1.236199e+003;3.655834e-002
1.238128e+003;3.661641e-002
1.240056e+003;3.715539e-002
1.241985e+003;3.752605e-002
1.243913e+003;3.755249e-002
1.245842e+003;3.812588e-002
1.247771e+003;3.949226e-002
1.249699e+003;4.124289e-002
1.251628e+003;4.372187e-002
1.253556e+003;4.675416e-002
1.255485e+003;4.879896e-002
1.257413e+003;4.834118e-002
1.259342e+003;4.592268e-002
1.261270e+003;4.329816e-002
1.263199e+003;4.136008e-002
1.265127e+003;4.037020e-002
1.267056e+003;4.011255e-002
1.268985e+003;3.977548e-002
1.270913e+003;3.930803e-002
1.272842e+003;3.934162e-002
1.274770e+003;3.974298e-002
1.276699e+003;4.017655e-002
1.278627e+003;4.034802e-002
1.280556e+003;4.081990e-002
1.282484e+003;4.219225e-002
1.284413e+003;4.367406e-002
1.286342e+003;4.513715e-002
1.288270e+003;4.721729e-002
1.290199e+003;4.946715e-002
1.292127e+003;5.160926e-002
1.294056e+003;5.329408e-002
1.295984e+003;5.399530e-002
1.297913e+003;5.389480e-002
1.299841e+003;5.399208e-002
1.301770e+003;5.514259e-002
1.303698e+003;5.657242e-002
1.305627e+003;5.629747e-002
1.307556e+003;5.400896e-002
1.309484e+003;5.123780e-002
1.311413e+003;4.953599e-002
1.313341e+003;4.932492e-002
1.315270e+003;4.998176e-002
1.317198e+003;5.109939e-002
1.319127e+003;5.256483e-002
1.321055e+003;5.437559e-002
1.322984e+003;5.676737e-002
1.324912e+003;5.978728e-002
1.326841e+003;6.246295e-002
1.328770e+003;6.370398e-002
1.330698e+003;6.365682e-002
1.332627e+003;6.282825e-002
1.334555e+003;6.199357e-002
1.336484e+003;6.136350e-002
1.338412e+003;6.104797e-002
1.340341e+003;6.216279e-002
1.342269e+003;6.447683e-002
1.344198e+003;6.677128e-002
1.346126e+003;6.934915e-002
1.348055e+003;7.246079e-002
1.349984e+003;7.626607e-002
1.351912e+003;8.130416e-002
1.353841e+003;8.802465e-002
1.355769e+003;9.528324e-002
1.357698e+003;1.005187e-001
1.359626e+003;1.021770e-001
1.361555e+003;1.009503e-001
1.363483e+003;1.007700e-001
1.365412e+003;1.041475e-001
1.367341e+003;1.120057e-001
1.369269e+003;1.268301e-001
1.371198e+003;1.494465e-001
1.373126e+003;1.767115e-001
1.375055e+003;1.992634e-001
1.376983e+003;2.025352e-001
1.378912e+003;1.831977e-001
1.380840e+003;1.548063e-001
1.382769e+003;1.288166e-001
1.384698e+003;1.098811e-001
1.386626e+003;9.781315e-002
1.388555e+003;9.231670e-002
1.390483e+003;9.104265e-002
1.392412e+003;9.052520e-002
1.394340e+003;9.078019e-002
1.396269e+003;9.291516e-002
1.398197e+003;9.510738e-002
1.400126e+003;9.782796e-002
1.402054e+003;1.003970e-001
1.403983e+003;1.016228e-001
1.405911e+003;1.031594e-001
1.407840e+003;1.053905e-001
1.409769e+003;1.073522e-001
1.411697e+003;1.093043e-001
1.413626e+003;1.114135e-001
1.415554e+003;1.131290e-001
1.417483e+003;1.131016e-001
1.419411e+003;1.136581e-001
1.421340e+003;1.167032e-001
1.423268e+003;1.189981e-001
1.425197e+003;1.210887e-001
1.427125e+003;1.231750e-001
1.429054e+003;1.258863e-001
1.430983e+003;1.308690e-001
1.432911e+003;1.365768e-001
1.434840e+003;1.385787e-001
1.436768e+003;1.374018e-001
1.438697e+003;1.385221e-001
1.440625e+003;1.410490e-001
1.442554e+003;1.447250e-001
1.444482e+003;1.505848e-001
1.446411e+003;1.576633e-001
1.448340e+003;1.650384e-001
1.450268e+003;1.711051e-001
1.452197e+003;1.740599e-001
1.454125e+003;1.735242e-001
1.456054e+003;1.687847e-001
1.457982e+003;1.663703e-001
1.459911e+003;1.659853e-001
1.461839e+003;1.615407e-001
1.463768e+003;1.530670e-001
1.465697e+003;1.439596e-001
1.467625e+003;1.354413e-001
1.469554e+003;1.252376e-001
1.471482e+003;1.135426e-001
1.473411e+003;1.050074e-001
1.475339e+003;1.004688e-001
1.477268e+003;9.667226e-002
1.479196e+003;9.334316e-002
1.481125e+003;8.995602e-002
1.483053e+003;8.709376e-002
1.484982e+003;8.405203e-002
1.486911e+003;8.073644e-002
1.488839e+003;7.792589e-002
1.490768e+003;7.669425e-002
1.492696e+003;7.620474e-002
1.494625e+003;7.336348e-002
1.496553e+003;7.053363e-002
1.498482e+003;7.008556e-002
1.500410e+003;6.980756e-002
1.502339e+003;6.872851e-002
1.504267e+003;6.410773e-002
1.506196e+003;5.870683e-002
1.508125e+003;5.952810e-002
1.510053e+003;6.145198e-002
1.511982e+003;6.070299e-002
1.513910e+003;5.954600e-002
1.515839e+003;5.751164e-002
1.517767e+003;5.573799e-002
1.519696e+003;5.274254e-002
1.521624e+003;5.061960e-002
1.523553e+003;5.159299e-002
1.525481e+003;5.171715e-002
1.527410e+003;5.159101e-002
1.529339e+003;5.144484e-002
1.531267e+003;5.032041e-002
1.533196e+003;4.820484e-002
1.535124e+003;4.775165e-002
1.537053e+003;4.550133e-002
1.538981e+003;4.035649e-002
1.540910e+003;3.946795e-002
1.542838e+003;4.153129e-002
1.544767e+003;4.233253e-002
1.546695e+003;4.267203e-002
1.548624e+003;4.194851e-002
1.550553e+003;4.085328e-002
1.552481e+003;3.890178e-002
1.554410e+003;3.628496e-002
1.556338e+003;3.340426e-002
1.558267e+003;2.875025e-002
1.560195e+003;3.003191e-002
1.562124e+003;3.497447e-002
1.564052e+003;3.607735e-002
1.565981e+003;3.553396e-002
1.567910e+003;3.418145e-002
1.569838e+003;3.314881e-002
1.571767e+003;3.417991e-002
1.573695e+003;3.299603e-002
1.575624e+003;3.032330e-002
1.577552e+003;3.210103e-002
1.579481e+003;3.438766e-002
1.581409e+003;3.427262e-002
1.583338e+003;3.387636e-002
1.585266e+003;3.360856e-002
1.587195e+003;3.339700e-002
1.589124e+003;3.288622e-002
1.591052e+003;3.233755e-002
1.592981e+003;3.161561e-002
1.594909e+003;3.124458e-002
1.596838e+003;3.118231e-002
1.598766e+003;3.101495e-002
1.600695e+003;3.050035e-002
1.602623e+003;3.019769e-002
1.604552e+003;3.026461e-002
1.606480e+003;3.011092e-002
1.608409e+003;2.979912e-002
1.610338e+003;2.970193e-002
1.612266e+003;2.973401e-002
1.614195e+003;2.838410e-002
1.616123e+003;2.569794e-002
1.618052e+003;2.685847e-002
1.619980e+003;2.897405e-002
1.621909e+003;2.815980e-002
1.623837e+003;2.752202e-002
1.625766e+003;2.822941e-002
1.627694e+003;2.838251e-002
1.629623e+003;2.875354e-002
1.631552e+003;2.905159e-002
1.633480e+003;2.695055e-002
1.635409e+003;2.455024e-002
1.637337e+003;2.647549e-002
1.639266e+003;2.868285e-002
1.641194e+003;2.903490e-002
1.643123e+003;2.809857e-002
1.645051e+003;2.556121e-002
1.646980e+003;2.511411e-002
1.648909e+003;2.694628e-002
1.650837e+003;2.371606e-002
1.652766e+003;1.881291e-002
1.654694e+003;2.275609e-002
1.656623e+003;2.733991e-002
1.658551e+003;2.811917e-002
1.660480e+003;2.720340e-002
1.662408e+003;2.609004e-002
1.664337e+003;2.671475e-002
1.666266e+003;2.675982e-002
1.668194e+003;2.473165e-002
1.670123e+003;2.410183e-002
1.672051e+003;2.529217e-002
1.673980e+003;2.456777e-002
1.675908e+003;2.433169e-002
1.677837e+003;2.575239e-002
1.679765e+003;2.581755e-002
1.681694e+003;2.404965e-002
1.683622e+003;1.995146e-002
1.685551e+003;2.066075e-002
1.687479e+003;2.421652e-002
1.689408e+003;2.494124e-002
1.691337e+003;2.499420e-002
1.693265e+003;2.343872e-002
1.695194e+003;2.011072e-002
1.697122e+003;2.035063e-002
1.699051e+003;1.914964e-002
1.700979e+003;1.931890e-002
1.702908e+003;2.271734e-002
1.704836e+003;2.269922e-002
1.706765e+003;2.282405e-002
1.708693e+003;2.344523e-002
1.710622e+003;2.364755e-002
1.712551e+003;2.289463e-002
1.714479e+003;2.099301e-002
1.716408e+003;1.810092e-002
1.718336e+003;1.848792e-002
1.720265e+003;2.148406e-002
1.722193e+003;2.235125e-002
1.724122e+003;2.225997e-002
1.726050e+003;2.251478e-002
1.727979e+003;2.219960e-002
1.729908e+003;2.151877e-002
1.731836e+003;1.923158e-002
1.733765e+003;1.671264e-002
1.735693e+003;1.909521e-002
1.737622e+003;2.125097e-002
1.739550e+003;2.089749e-002
1.741479e+003;2.110183e-002
1.743407e+003;2.095486e-002
1.745336e+003;2.065029e-002
1.747265e+003;1.970851e-002
1.749193e+003;1.824386e-002
1.751122e+003;1.756271e-002
1.753050e+003;1.873368e-002
1.754979e+003;1.890821e-002
1.756907e+003;1.832466e-002
1.758836e+003;1.832828e-002
1.760764e+003;1.754074e-002
1.762693e+003;1.728676e-002
1.764621e+003;1.784558e-002
1.766550e+003;1.717016e-002
1.768479e+003;1.656728e-002
1.770407e+003;1.542936e-002
1.772336e+003;1.428735e-002
1.774264e+003;1.573337e-002
1.776193e+003;1.713631e-002
1.778121e+003;1.729917e-002
1.780050e+003;1.691064e-002
1.781978e+003;1.710312e-002
1.783907e+003;1.725924e-002
1.785835e+003;1.810918e-002
1.787764e+003;1.933826e-002
1.789693e+003;1.975529e-002
1.791621e+003;2.026185e-002
1.793550e+003;2.265687e-002
1.795478e+003;2.500947e-002
1.797407e+003;2.532417e-002
1.799335e+003;2.469833e-002
1.801264e+003;2.413773e-002
1.803192e+003;2.332057e-002
1.805121e+003;2.166075e-002
1.807049e+003;2.002675e-002
1.808978e+003;1.837602e-002
1.810907e+003;1.705949e-002
1.812835e+003;1.648991e-002
1.814764e+003;1.612343e-002
1.816692e+003;1.575468e-002
1.818621e+003;1.577041e-002
1.820549e+003;1.568940e-002
1.822478e+003;1.536471e-002
1.824406e+003;1.468711e-002
1.826335e+003;1.484178e-002
1.828264e+003;1.478908e-002
1.830192e+003;1.469506e-002
1.832121e+003;1.534697e-002
1.834049e+003;1.565505e-002
1.835978e+003;1.534456e-002
1.837906e+003;1.512432e-002
1.839835e+003;1.513935e-002
1.841763e+003;1.423291e-002
1.843692e+003;1.284664e-002
1.845620e+003;1.339923e-002
1.847549e+003;1.437434e-002
1.849478e+003;1.461905e-002
1.851406e+003;1.473074e-002
1.853335e+003;1.435153e-002
1.855263e+003;1.392118e-002
1.857192e+003;1.384428e-002
1.859120e+003;1.372310e-002
1.861049e+003;1.370063e-002
1.862977e+003;1.386012e-002
1.864906e+003;1.368610e-002
1.866834e+003;1.301469e-002
1.868763e+003;1.242014e-002
1.870692e+003;1.273246e-002
1.872620e+003;1.313516e-002
1.874549e+003;1.309421e-002
1.876477e+003;1.311730e-002
1.878406e+003;1.329365e-002
1.880334e+003;1.333475e-002
1.882263e+003;1.317150e-002
1.884191e+003;1.333151e-002
1.886120e+003;1.361604e-002
1.888048e+003;1.350634e-002
1.889977e+003;1.348511e-002
1.891906e+003;1.383220e-002
1.893834e+003;1.403930e-002
1.895763e+003;1.406969e-002
1.897691e+003;1.395020e-002
1.899620e+003;1.396748e-002
1.901548e+003;1.389128e-002
1.903477e+003;1.378750e-002
1.905405e+003;1.362571e-002
1.907334e+003;1.330544e-002
1.909262e+003;1.319947e-002
1.911191e+003;1.348826e-002
1.913120e+003;1.348816e-002
1.915048e+003;1.321652e-002
1.916977e+003;1.251418e-002
1.918905e+003;1.252854e-002
1.920834e+003;1.308055e-002
1.922762e+003;1.293460e-002
1.924691e+003;1.290722e-002
1.926619e+003;1.296191e-002
1.928548e+003;1.284033e-002
1.930477e+003;1.278900e-002
1.932405e+003;1.259068e-002
1.934334e+003;1.228306e-002
1.936262e+003;1.217452e-002
1.938191e+003;1.199082e-002
1.940119e+003;1.188303e-002
1.942048e+003;1.201401e-002
1.943976e+003;1.229707e-002
1.945905e+003;1.233709e-002
1.947833e+003;1.225729e-002
1.949762e+003;1.216225e-002
1.951691e+003;1.202754e-002
1.953619e+003;1.194916e-002
1.955548e+003;1.198217e-002
1.957476e+003;1.223129e-002
1.959405e+003;1.232652e-002
1.961333e+003;1.239678e-002
1.963262e+003;1.244373e-002
1.965190e+003;1.230379e-002
1.967119e+003;1.205039e-002
1.969047e+003;1.203680e-002
1.970976e+003;1.205343e-002
1.972905e+003;1.210354e-002
1.974833e+003;1.230014e-002
1.976762e+003;1.236065e-002
1.978690e+003;1.228603e-002
1.980619e+003;1.217271e-002
1.982547e+003;1.198922e-002
1.984476e+003;1.196456e-002
1.986404e+003;1.195594e-002
1.988333e+003;1.226483e-002
1.990261e+003;1.250180e-002
1.992190e+003;1.220890e-002
1.994119e+003;1.222928e-002
1.996047e+003;1.226558e-002
1.997976e+003;1.227505e-002
1.999904e+003;1.234452e-002
2.001833e+003;1.229789e-002
2.003761e+003;1.231803e-002
2.005690e+003;1.220021e-002
2.007618e+003;1.204675e-002
2.009547e+003;1.208715e-002
2.011476e+003;1.227025e-002
2.013404e+003;1.249614e-002
2.015333e+003;1.253270e-002
2.017261e+003;1.245918e-002
2.019190e+003;1.251838e-002
2.021118e+003;1.265242e-002
2.023047e+003;1.266900e-002
2.024975e+003;1.254454e-002
2.026904e+003;1.263138e-002
2.028833e+003;1.280562e-002
2.030761e+003;1.281173e-002
2.032690e+003;1.283889e-002
2.034618e+003;1.298608e-002
2.036547e+003;1.296235e-002
2.038475e+003;1.287937e-002
2.040404e+003;1.269971e-002
2.042332e+003;1.289490e-002
2.044261e+003;1.307424e-002
2.046189e+003;1.308103e-002
2.048118e+003;1.296665e-002
2.050047e+003;1.286166e-002
2.051975e+003;1.297853e-002
2.053904e+003;1.305443e-002
2.055832e+003;1.281412e-002
2.057761e+003;1.256500e-002
2.059689e+003;1.265635e-002
2.061618e+003;1.274433e-002
2.063546e+003;1.266856e-002
2.065475e+003;1.277088e-002
2.067404e+003;1.285644e-002
2.069332e+003;1.302917e-002
2.071260e+003;1.324289e-002
2.073189e+003;1.330533e-002
2.075118e+003;1.333335e-002
2.077046e+003;1.338963e-002
2.078975e+003;1.351919e-002
2.080903e+003;1.349861e-002
2.082832e+003;1.372460e-002
2.084760e+003;1.381890e-002
2.086689e+003;1.358893e-002
2.088617e+003;1.370836e-002
2.090546e+003;1.400799e-002
2.092475e+003;1.389347e-002
2.094403e+003;1.377159e-002
2.096332e+003;1.378846e-002
2.098260e+003;1.390698e-002
2.100189e+003;1.404762e-002
2.102117e+003;1.396330e-002
2.104046e+003;1.385416e-002
2.105974e+003;1.366808e-002
2.107903e+003;1.359259e-002
2.109832e+003;1.378811e-002
2.111760e+003;1.383056e-002
2.113688e+003;1.355936e-002
2.115617e+003;1.355348e-002
2.117546e+003;1.381962e-002
2.119474e+003;1.412757e-002
2.121403e+003;1.464434e-002
2.123331e+003;1.518556e-002
2.125260e+003;1.556915e-002
2.127188e+003;1.563172e-002
2.129117e+003;1.548299e-002
2.131045e+003;1.568682e-002
2.132974e+003;1.608526e-002
2.134903e+003;1.624916e-002
2.136831e+003;1.618870e-002
2.138760e+003;1.591021e-002
2.140688e+003;1.565161e-002
2.142617e+003;1.577371e-002
2.144545e+003;1.557674e-002
2.146474e+003;1.551499e-002
2.148402e+003;1.579611e-002
2.150331e+003;1.591258e-002
2.152260e+003;1.597249e-002
2.154188e+003;1.608976e-002
2.156117e+003;1.586405e-002
2.158045e+003;1.589330e-002
2.159974e+003;1.625876e-002
2.161902e+003;1.649018e-002
2.163831e+003;1.663451e-002
2.165759e+003;1.647518e-002
2.167688e+003;1.629791e-002
2.169616e+003;1.639582e-002
2.171545e+003;1.665293e-002
2.173474e+003;1.687272e-002
2.175402e+003;1.691226e-002
2.177331e+003;1.697541e-002
2.179259e+003;1.691540e-002
2.181188e+003;1.674143e-002
2.183116e+003;1.670799e-002
2.185045e+003;1.686531e-002
2.186973e+003;1.698523e-002
2.188902e+003;1.678912e-002
2.190831e+003;1.671946e-002
2.192759e+003;1.689762e-002
2.194688e+003;1.683052e-002
2.196616e+003;1.657740e-002
2.198545e+003;1.654088e-002
2.200473e+003;1.661857e-002
2.202402e+003;1.659231e-002
2.204330e+003;1.677125e-002
2.206259e+003;1.664388e-002
2.208188e+003;1.634363e-002
2.210116e+003;1.623523e-002
2.212044e+003;1.623169e-002
2.213973e+003;1.628081e-002
2.215902e+003;1.632670e-002
2.217830e+003;1.642067e-002
2.219759e+003;1.656628e-002
2.221687e+003;1.661283e-002
2.223616e+003;1.671174e-002
2.225544e+003;1.681006e-002
2.227473e+003;1.679088e-002
2.229401e+003;1.673929e-002
2.231330e+003;1.671646e-002
2.233259e+003;1.657847e-002
2.235187e+003;1.626344e-002
2.237116e+003;1.606263e-002
2.239044e+003;1.595231e-002
2.240973e+003;1.591608e-002
2.242901e+003;1.614285e-002
2.244830e+003;1.650361e-002
2.246758e+003;1.670465e-002
2.248687e+003;1.669046e-002
2.250615e+003;1.698231e-002
2.252544e+003;1.720219e-002
2.254473e+003;1.747271e-002
2.256401e+003;1.778102e-002
2.258330e+003;1.764873e-002
2.260258e+003;1.741000e-002
2.262187e+003;1.743822e-002
2.264115e+003;1.725697e-002
2.266044e+003;1.693338e-002
2.267972e+003;1.679577e-002
2.269901e+003;1.684337e-002
2.271830e+003;1.689576e-002
2.273758e+003;1.671264e-002
2.275687e+003;1.643367e-002
2.277615e+003;1.628604e-002
2.279544e+003;1.602206e-002
2.281472e+003;1.559779e-002
2.283401e+003;1.566171e-002
2.285329e+003;1.603234e-002
2.287258e+003;1.616445e-002
2.289187e+003;1.594836e-002
2.291115e+003;1.589292e-002
2.293043e+003;1.596383e-002
2.294972e+003;1.595355e-002
2.296901e+003;1.590546e-002
2.298829e+003;1.591131e-002
2.300758e+003;1.584027e-002
2.302686e+003;1.606834e-002
2.304615e+003;1.642056e-002
2.306543e+003;1.642542e-002
2.308472e+003;1.639975e-002
2.310400e+003;1.617322e-002
2.312329e+003;1.595290e-002
2.314258e+003;1.613745e-002
2.316186e+003;1.609079e-002
2.318115e+003;1.613728e-002
2.320043e+003;1.643484e-002
2.321972e+003;1.665693e-002
2.323900e+003;1.666488e-002
2.325829e+003;1.657489e-002
2.327757e+003;1.655076e-002
2.329686e+003;1.680359e-002
2.331615e+003;1.695919e-002
2.333543e+003;1.685446e-002
2.335472e+003;1.694444e-002
2.337400e+003;1.723856e-002
2.339329e+003;1.728917e-002
2.341257e+003;1.763272e-002
2.343186e+003;1.791432e-002
2.345114e+003;1.793293e-002
2.347043e+003;1.800404e-002
2.348971e+003;1.800362e-002
2.350900e+003;1.823135e-002
2.352829e+003;1.838960e-002
2.354757e+003;1.831253e-002
2.356686e+003;1.830786e-002
2.358614e+003;1.839780e-002
2.360543e+003;1.879689e-002
2.362471e+003;1.898471e-002
2.364400e+003;1.881997e-002
2.366328e+003;1.859605e-002
2.368257e+003;1.876506e-002
2.370186e+003;1.882336e-002
2.372114e+003;1.877025e-002
2.374042e+003;1.891385e-002
2.375971e+003;1.896726e-002
2.377900e+003;1.884668e-002
2.379828e+003;1.882924e-002
2.381757e+003;1.886468e-002
2.383685e+003;1.879049e-002
2.385614e+003;1.894327e-002
2.387542e+003;1.925735e-002
2.389471e+003;1.938503e-002
2.391399e+003;1.938600e-002
2.393328e+003;1.937537e-002
2.395257e+003;1.935174e-002
2.397185e+003;1.938250e-002
2.399114e+003;1.947575e-002
2.401042e+003;1.956956e-002
2.402971e+003;1.943434e-002
2.404899e+003;1.938469e-002
2.406828e+003;1.956579e-002
2.408756e+003;1.965207e-002
2.410685e+003;1.970379e-002
2.412614e+003;1.954319e-002
2.414542e+003;1.930047e-002
2.416471e+003;1.952919e-002
2.418399e+003;1.993196e-002
2.420328e+003;2.005173e-002
2.422256e+003;2.005516e-002
2.424185e+003;2.013144e-002
2.426113e+003;2.051980e-002
2.428042e+003;2.081392e-002
2.429970e+003;2.066489e-002
2.431899e+003;2.075149e-002
2.433828e+003;2.085734e-002
2.435756e+003;2.052498e-002
2.437685e+003;2.004354e-002
2.439613e+003;1.964787e-002
2.441542e+003;1.960697e-002
2.443470e+003;1.968115e-002
2.445399e+003;1.926815e-002
2.447327e+003;1.901544e-002
2.449256e+003;1.902808e-002
2.451185e+003;1.906350e-002
2.453113e+003;1.902289e-002
2.455042e+003;1.904065e-002
2.456970e+003;1.926687e-002
2.458899e+003;1.946594e-002
2.460827e+003;1.920730e-002
2.462756e+003;1.905861e-002
2.464684e+003;1.904802e-002
2.466613e+003;1.913101e-002
2.468542e+003;1.925042e-002
2.470470e+003;1.938749e-002
2.472398e+003;1.957417e-002
2.474327e+003;1.957016e-002
2.476256e+003;1.967322e-002
2.478184e+003;2.001411e-002
2.480113e+003;2.038421e-002
2.482041e+003;2.052515e-002
2.483970e+003;2.081531e-002
2.485898e+003;2.124433e-002
2.487827e+003;2.146178e-002
2.489755e+003;2.185970e-002
2.491684e+003;2.224243e-002
2.493613e+003;2.238540e-002
2.495541e+003;2.275438e-002
2.497470e+003;2.328372e-002
2.499398e+003;2.380709e-002
2.501327e+003;2.431680e-002
2.503255e+003;2.483643e-002
2.505184e+003;2.528708e-002
2.507112e+003;2.607421e-002
2.509041e+003;2.670432e-002
2.510969e+003;2.698894e-002
2.512898e+003;2.729756e-002
2.514827e+003;2.747126e-002
2.516755e+003;2.779672e-002
2.518684e+003;2.812759e-002
2.520612e+003;2.852600e-002
2.522541e+003;2.866236e-002
2.524469e+003;2.870950e-002
2.526398e+003;2.850728e-002
2.528326e+003;2.822704e-002
2.530255e+003;2.803986e-002
2.532184e+003;2.776052e-002
2.534112e+003;2.751560e-002
2.536041e+003;2.717208e-002
2.537969e+003;2.650378e-002
2.539898e+003;2.653685e-002
2.541826e+003;2.691843e-002
2.543755e+003;2.675489e-002
2.545683e+003;2.667335e-002
2.547612e+003;2.690059e-002
2.549541e+003;2.719448e-002
2.551469e+003;2.751193e-002
2.553397e+003;2.759994e-002
2.555326e+003;2.760609e-002
2.557255e+003;2.784512e-002
2.559183e+003;2.818673e-002
2.561112e+003;2.833907e-002
2.563040e+003;2.842153e-002
2.564969e+003;2.867694e-002
2.566897e+003;2.930223e-002
2.568826e+003;3.018270e-002
2.570754e+003;3.084677e-002
2.572683e+003;3.157901e-002
2.574612e+003;3.234890e-002
2.576540e+003;3.316716e-002
2.578469e+003;3.394521e-002
2.580397e+003;3.424143e-002
2.582326e+003;3.408185e-002
2.584254e+003;3.358207e-002
2.586183e+003;3.269123e-002
2.588111e+003;3.160456e-002
2.590040e+003;3.101566e-002
2.591969e+003;3.063843e-002
2.593897e+003;2.996442e-002
2.595826e+003;2.974235e-002
2.597754e+003;2.976836e-002
2.599683e+003;2.975235e-002
2.601611e+003;2.995824e-002
2.603540e+003;3.023005e-002
2.605468e+003;3.053647e-002
2.607397e+003;3.103773e-002
2.609325e+003;3.151655e-002
2.611254e+003;3.197836e-002
2.613183e+003;3.223088e-002
2.615111e+003;3.225575e-002
2.617040e+003;3.230232e-002
2.618968e+003;3.234655e-002
2.620897e+003;3.219401e-002
2.622825e+003;3.185112e-002
2.624754e+003;3.155047e-002
2.626682e+003;3.131192e-002
2.628611e+003;3.114582e-002
2.630540e+003;3.075343e-002
2.632468e+003;3.033137e-002
2.634396e+003;3.033535e-002
2.636325e+003;3.031844e-002
2.638254e+003;3.021982e-002
2.640182e+003;3.051318e-002
2.642111e+003;3.106574e-002
2.644039e+003;3.164063e-002
2.645968e+003;3.208623e-002
2.647896e+003;3.242945e-002
2.649825e+003;3.276000e-002
2.651753e+003;3.314760e-002
2.653682e+003;3.362596e-002
2.655611e+003;3.384294e-002
2.657539e+003;3.404343e-002
2.659468e+003;3.443884e-002
2.661396e+003;3.454782e-002
2.663325e+003;3.450969e-002
2.665253e+003;3.437098e-002
2.667182e+003;3.428833e-002
2.669110e+003;3.434581e-002
2.671039e+003;3.425635e-002
2.672968e+003;3.428825e-002
2.674896e+003;3.475165e-002
2.676825e+003;3.529447e-002
2.678753e+003;3.527980e-002
2.680682e+003;3.506991e-002
2.682610e+003;3.507202e-002
2.684539e+003;3.517153e-002
2.686467e+003;3.530589e-002
2.688396e+003;3.532185e-002
2.690324e+003;3.510640e-002
2.692253e+003;3.504559e-002
2.694182e+003;3.491655e-002
2.696110e+003;3.479085e-002
2.698039e+003;3.500665e-002
2.699967e+003;3.545719e-002
2.701896e+003;3.596068e-002
2.703824e+003;3.660676e-002
2.705753e+003;3.746666e-002
2.707681e+003;3.841019e-002
2.709610e+003;3.932251e-002
2.711539e+003;4.042071e-002
2.713467e+003;4.156914e-002
2.715396e+003;4.285140e-002
2.717324e+003;4.448520e-002
2.719253e+003;4.619711e-002
2.721181e+003;4.780928e-002
2.723110e+003;4.856560e-002
2.725038e+003;4.832593e-002
2.726967e+003;4.708540e-002
2.728896e+003;4.554729e-002
2.730824e+003;4.438104e-002
2.732752e+003;4.301746e-002
2.734681e+003;4.173788e-002
2.736610e+003;4.094306e-002
2.738538e+003;4.028204e-002
2.740467e+003;3.946733e-002
2.742395e+003;3.864391e-002
2.744324e+003;3.773226e-002
2.746252e+003;3.709378e-002
2.748181e+003;3.687478e-002
2.750109e+003;3.677719e-002
2.752038e+003;3.681714e-002
2.753967e+003;3.682115e-002
2.755895e+003;3.704702e-002
2.757824e+003;3.735099e-002
2.759752e+003;3.773446e-002
2.761681e+003;3.841500e-002
2.763609e+003;3.931383e-002
2.765538e+003;3.983039e-002
2.767466e+003;3.992678e-002
2.769395e+003;3.988374e-002
2.771323e+003;4.011735e-002
2.773252e+003;4.057821e-002
2.775181e+003;4.098042e-002
2.777109e+003;4.190242e-002
2.779038e+003;4.340136e-002
2.780966e+003;4.468516e-002
2.782895e+003;4.585495e-002
2.784823e+003;4.733063e-002
2.786752e+003;4.918734e-002
2.788680e+003;5.069663e-002
2.790609e+003;5.220335e-002
2.792538e+003;5.394143e-002
2.794466e+003;5.523051e-002
2.796395e+003;5.608900e-002
2.798323e+003;5.727578e-002
2.800252e+003;5.877279e-002
2.802180e+003;6.047888e-002
2.804109e+003;6.277560e-002
2.806037e+003;6.476986e-002
2.807966e+003;6.631208e-002
2.809895e+003;6.777734e-002
2.811823e+003;6.935797e-002
2.813751e+003;7.120639e-002
2.815680e+003;7.319666e-002
2.817609e+003;7.509848e-002
2.819537e+003;7.727705e-002
2.821466e+003;8.001395e-002
2.823394e+003;8.324073e-002
2.825323e+003;8.726370e-002
2.827251e+003;9.265268e-002
2.829180e+003;9.977856e-002
2.831108e+003;1.085668e-001
2.833037e+003;1.179724e-001
2.834966e+003;1.255290e-001
2.836894e+003;1.290630e-001
2.838823e+003;1.283659e-001
2.840751e+003;1.248898e-001
2.842680e+003;1.198781e-001
2.844608e+003;1.146287e-001
2.846537e+003;1.098040e-001
2.848465e+003;1.061249e-001
2.850394e+003;1.040697e-001
2.852323e+003;1.030099e-001
2.854251e+003;1.025275e-001
2.856180e+003;1.033521e-001
2.858108e+003;1.064352e-001
2.860037e+003;1.117317e-001
2.861965e+003;1.193739e-001
2.863894e+003;1.278786e-001
2.865822e+003;1.343736e-001
2.867751e+003;1.380436e-001
2.869679e+003;1.395048e-001
2.871608e+003;1.402140e-001
2.873536e+003;1.412669e-001
2.875465e+003;1.408906e-001
2.877394e+003;1.389775e-001
2.879322e+003;1.372835e-001
2.881251e+003;1.357785e-001
2.883179e+003;1.346433e-001
2.885108e+003;1.344611e-001
2.887036e+003;1.354281e-001
2.888965e+003;1.371847e-001
2.890893e+003;1.396836e-001
2.892822e+003;1.430003e-001
2.894750e+003;1.471718e-001
2.896679e+003;1.520113e-001
2.898608e+003;1.571024e-001
2.900536e+003;1.627459e-001
2.902465e+003;1.685255e-001
2.904393e+003;1.745368e-001
2.906322e+003;1.799814e-001
2.908250e+003;1.844425e-001
2.910179e+003;1.883350e-001
2.912107e+003;1.919334e-001
2.914036e+003;1.949394e-001
2.915965e+003;1.958536e-001
2.917893e+003;1.946608e-001
2.919822e+003;1.916984e-001
2.921750e+003;1.868205e-001
2.923679e+003;1.806412e-001
2.925607e+003;1.732845e-001
2.927536e+003;1.655249e-001
2.929464e+003;1.573899e-001
2.931393e+003;1.487005e-001
2.933322e+003;1.406911e-001
2.935250e+003;1.334427e-001
2.937178e+003;1.278906e-001
2.939107e+003;1.255115e-001
2.941036e+003;1.265895e-001
2.942964e+003;1.311645e-001
2.944893e+003;1.389359e-001
2.946821e+003;1.473198e-001
2.948750e+003;1.543519e-001
2.950678e+003;1.585000e-001
2.952607e+003;1.590133e-001
2.954535e+003;1.572197e-001
2.956464e+003;1.537028e-001
2.958393e+003;1.490292e-001
2.960321e+003;1.433536e-001
2.962250e+003;1.356515e-001
2.964178e+003;1.272117e-001
2.966107e+003;1.191917e-001
2.968035e+003;1.117859e-001
2.969964e+003;1.046295e-001
2.971892e+003;9.800540e-002
2.973821e+003;9.228183e-002
2.975750e+003;8.699396e-002
2.977678e+003;8.197161e-002
2.979607e+003;7.774375e-002
2.981535e+003;7.437208e-002
2.983464e+003;7.134242e-002
2.985392e+003;6.851356e-002
2.987321e+003;6.612334e-002
2.989249e+003;6.396592e-002
2.991178e+003;6.170260e-002
2.993106e+003;5.965600e-002
2.995035e+003;5.775019e-002
2.996964e+003;5.608780e-002
2.998892e+003;5.443997e-002
3.000821e+003;5.248099e-002
3.002749e+003;5.057723e-002
3.004678e+003;4.897688e-002
3.006606e+003;4.713433e-002
3.008535e+003;4.528776e-002
3.010463e+003;4.394469e-002
3.012392e+003;4.250490e-002
3.014321e+003;4.112817e-002
3.016249e+003;3.992569e-002
3.018177e+003;3.872345e-002
3.020106e+003;3.735341e-002
3.022035e+003;3.613608e-002
3.023963e+003;3.499390e-002
3.025892e+003;3.419084e-002
3.027820e+003;3.360792e-002
3.029749e+003;3.272885e-002
3.031677e+003;3.187480e-002
3.033606e+003;3.128062e-002
3.035534e+003;3.073387e-002
3.037463e+003;3.018348e-002
3.039392e+003;2.992807e-002
3.041320e+003;2.952418e-002
3.043249e+003;2.876951e-002
3.045177e+003;2.820494e-002
3.047106e+003;2.774766e-002
3.049034e+003;2.738790e-002
3.050963e+003;2.722107e-002
3.052891e+003;2.701281e-002
3.054820e+003;2.656960e-002
3.056749e+003;2.619294e-002
3.058677e+003;2.583027e-002
3.060606e+003;2.556729e-002
3.062534e+003;2.534664e-002
3.064463e+003;2.509353e-002
3.066391e+003;2.459154e-002
3.068320e+003;2.420366e-002
3.070248e+003;2.425169e-002
3.072177e+003;2.417612e-002
3.074105e+003;2.408565e-002
3.076034e+003;2.384517e-002
3.077963e+003;2.364335e-002
3.079891e+003;2.372786e-002
3.081820e+003;2.375645e-002
3.083748e+003;2.346806e-002
3.085677e+003;2.324313e-002
3.087605e+003;2.323073e-002
3.089534e+003;2.290294e-002
3.091462e+003;2.275805e-002
3.093391e+003;2.306839e-002
3.095320e+003;2.319700e-002
3.097248e+003;2.339725e-002
3.099177e+003;2.354340e-002
3.101105e+003;2.355477e-002
3.103034e+003;2.332302e-002
3.104962e+003;2.317389e-002
3.106891e+003;2.318413e-002
3.108819e+003;2.313182e-002
3.110748e+003;2.319637e-002
3.112677e+003;2.313751e-002
3.114605e+003;2.291534e-002
3.116533e+003;2.274349e-002
3.118462e+003;2.270484e-002
3.120391e+003;2.344649e-002
3.122319e+003;2.373618e-002
3.124248e+003;2.330155e-002
3.126176e+003;2.301532e-002
3.128105e+003;2.313660e-002
3.130033e+003;2.376719e-002
3.131962e+003;2.420352e-002
3.133890e+003;2.377073e-002
3.135819e+003;2.329236e-002
3.137748e+003;2.336875e-002
3.139676e+003;2.377111e-002
3.141605e+003;2.423372e-002
3.143533e+003;2.459512e-002
3.145462e+003;2.452903e-002
3.147390e+003;2.416397e-002
3.149319e+003;2.401869e-002
3.151247e+003;2.389233e-002
3.153176e+003;2.370623e-002
3.155104e+003;2.401914e-002
3.157033e+003;2.406061e-002
3.158962e+003;2.398542e-002
3.160890e+003;2.401414e-002
3.162819e+003;2.386933e-002
3.164747e+003;2.381931e-002
3.166676e+003;2.349618e-002
3.168604e+003;2.308122e-002
3.170533e+003;2.337801e-002
3.172461e+003;2.381276e-002
3.174390e+003;2.359276e-002
3.176319e+003;2.343012e-002
3.178247e+003;2.369584e-002
3.180176e+003;2.371970e-002
3.182104e+003;2.355400e-002
3.184033e+003;2.346009e-002
3.185961e+003;2.368009e-002
3.187890e+003;2.380233e-002
3.189818e+003;2.367124e-002
3.191747e+003;2.358531e-002
3.193676e+003;2.379796e-002
3.195604e+003;2.371638e-002
3.197532e+003;2.369129e-002
3.199461e+003;2.389320e-002
3.201390e+003;2.404068e-002
3.203318e+003;2.383096e-002
3.205247e+003;2.337574e-002
3.207175e+003;2.321734e-002
3.209104e+003;2.314656e-002
3.211032e+003;2.313087e-002
3.212961e+003;2.325512e-002
3.214889e+003;2.301259e-002
3.216818e+003;2.263153e-002
3.218747e+003;2.256580e-002
3.220675e+003;2.234389e-002
3.222604e+003;2.189388e-002
3.224532e+003;2.149997e-002
3.226461e+003;2.106747e-002
3.228389e+003;2.073102e-002
3.230318e+003;2.040008e-002
3.232246e+003;2.002824e-002
3.234175e+003;1.969027e-002
3.236104e+003;1.950846e-002
3.238032e+003;1.949169e-002
3.239961e+003;1.937156e-002
3.241889e+003;1.913697e-002
3.243818e+003;1.876672e-002
3.245746e+003;1.837899e-002
3.247675e+003;1.843344e-002
3.249603e+003;1.872687e-002
3.251532e+003;1.875506e-002
3.253460e+003;1.840948e-002
3.255389e+003;1.765671e-002
3.257318e+003;1.741338e-002
3.259246e+003;1.791429e-002
3.261175e+003;1.805108e-002
3.263103e+003;1.799575e-002
3.265032e+003;1.769387e-002
3.266960e+003;1.697290e-002
3.268889e+003;1.673227e-002
3.270817e+003;1.739848e-002
3.272746e+003;1.800383e-002
3.274675e+003;1.806562e-002
3.276603e+003;1.778738e-002
3.278531e+003;1.741338e-002
3.280460e+003;1.731324e-002
3.282389e+003;1.772728e-002
3.284317e+003;1.775797e-002
3.286246e+003;1.776038e-002
3.288174e+003;1.788166e-002
3.290103e+003;1.767438e-002
3.292031e+003;1.768873e-002
3.293960e+003;1.771455e-002
3.295888e+003;1.730065e-002
3.297817e+003;1.722621e-002
3.299746e+003;1.733196e-002
3.301674e+003;1.734534e-002
3.303603e+003;1.745698e-002
3.305531e+003;1.734986e-002
3.307460e+003;1.696163e-002
3.309388e+003;1.691523e-002
3.311317e+003;1.714438e-002
3.313245e+003;1.729851e-002
3.315174e+003;1.729789e-002
3.317103e+003;1.725986e-002
3.319031e+003;1.683404e-002
3.320960e+003;1.676842e-002
3.322888e+003;1.723935e-002
3.324817e+003;1.696787e-002
3.326745e+003;1.686193e-002
3.328674e+003;1.728648e-002
3.330602e+003;1.707769e-002
3.332531e+003;1.707073e-002
3.334459e+003;1.770229e-002
3.336388e+003;1.798456e-002
3.338317e+003;1.766806e-002
3.340245e+003;1.750658e-002
3.342174e+003;1.773432e-002
3.344102e+003;1.806673e-002
3.346031e+003;1.818508e-002
3.347959e+003;1.829238e-002
3.349888e+003;1.837889e-002
3.351816e+003;1.787268e-002
3.353745e+003;1.760788e-002
3.355674e+003;1.742463e-002
3.357602e+003;1.726293e-002
3.359531e+003;1.725183e-002
3.361459e+003;1.737779e-002
3.363388e+003;1.752452e-002
3.365316e+003;1.754854e-002
3.367245e+003;1.726862e-002
3.369173e+003;1.743432e-002
3.371102e+003;1.738952e-002
3.373031e+003;1.660367e-002
3.374959e+003;1.648141e-002
3.376887e+003;1.696208e-002
3.378816e+003;1.694382e-002
3.380745e+003;1.659651e-002
3.382673e+003;1.655475e-002
3.384602e+003;1.650942e-002
3.386530e+003;1.652047e-002
3.388459e+003;1.635822e-002
3.390387e+003;1.627930e-002
3.392316e+003;1.669849e-002
3.394244e+003;1.732700e-002
3.396173e+003;1.741000e-002
3.398102e+003;1.705529e-002
3.400030e+003;1.677800e-002
3.401959e+003;1.671656e-002
3.403887e+003;1.651696e-002
3.405816e+003;1.625216e-002
3.407744e+003;1.638801e-002
3.409673e+003;1.655988e-002
3.411601e+003;1.649479e-002
3.413530e+003;1.673774e-002
3.415458e+003;1.695195e-002
3.417387e+003;1.681275e-002
3.419316e+003;1.645150e-002
3.421244e+003;1.652229e-002
3.423173e+003;1.680407e-002
3.425101e+003;1.653262e-002
3.427030e+003;1.614268e-002
3.428958e+003;1.608663e-002
3.430887e+003;1.599796e-002
3.432815e+003;1.582089e-002
3.434744e+003;1.544467e-002
3.436673e+003;1.553401e-002
3.438601e+003;1.600780e-002
3.440530e+003;1.587684e-002
3.442458e+003;1.574183e-002
3.444387e+003;1.575997e-002
3.446315e+003;1.474641e-002
3.448244e+003;1.445596e-002
3.450172e+003;1.450707e-002
3.452101e+003;1.441910e-002
3.454030e+003;1.472334e-002
3.455958e+003;1.495346e-002
3.457886e+003;1.501417e-002
3.459815e+003;1.486856e-002
3.461744e+003;1.443253e-002
3.463672e+003;1.405241e-002
3.465601e+003;1.362910e-002
3.467529e+003;1.349434e-002
3.469458e+003;1.367697e-002
3.471386e+003;1.392519e-002
3.473315e+003;1.395639e-002
3.475243e+003;1.395081e-002
3.477172e+003;1.406394e-002
3.479101e+003;1.396026e-002
3.481029e+003;1.338959e-002
3.482958e+003;1.299557e-002
3.484886e+003;1.309667e-002
3.486815e+003;1.354862e-002
3.488743e+003;1.340261e-002
3.490672e+003;1.311709e-002
3.492600e+003;1.297850e-002
3.494529e+003;1.301431e-002
3.496458e+003;1.315582e-002
3.498386e+003;1.361276e-002
3.500315e+003;1.319496e-002
3.502243e+003;1.276982e-002
3.504172e+003;1.319274e-002
3.506100e+003;1.372324e-002
3.508029e+003;1.315664e-002
3.509957e+003;1.271134e-002
3.511886e+003;1.305566e-002
3.513814e+003;1.323250e-002
3.515743e+003;1.307557e-002
3.517672e+003;1.293535e-002
3.519600e+003;1.301127e-002
3.521529e+003;1.239528e-002
3.523457e+003;1.205309e-002
3.525386e+003;1.222281e-002
3.527314e+003;1.219558e-002
3.529243e+003;1.250351e-002
3.531171e+003;1.286162e-002
3.533100e+003;1.262660e-002
3.535029e+003;1.219789e-002
3.536957e+003;1.220897e-002
3.538885e+003;1.245430e-002
3.540814e+003;1.263990e-002
3.542743e+003;1.246508e-002
3.544671e+003;1.239692e-002
3.546600e+003;1.244653e-002
3.548528e+003;1.238171e-002
3.550457e+003;1.214705e-002
3.552385e+003;1.202386e-002
3.554314e+003;1.203203e-002
3.556242e+003;1.187890e-002
3.558171e+003;1.172335e-002
3.560100e+003;1.171620e-002
3.562028e+003;1.193023e-002
3.563957e+003;1.177523e-002
3.565885e+003;1.077482e-002
3.567814e+003;1.052405e-002
3.569742e+003;1.147798e-002
3.571671e+003;1.195495e-002
3.573599e+003;1.170953e-002
3.575528e+003;1.166905e-002
3.577457e+003;1.169853e-002
3.579385e+003;1.122966e-002
3.581314e+003;1.112498e-002
3.583242e+003;1.132984e-002
3.585171e+003;1.069633e-002
3.587099e+003;9.791587e-003
3.589028e+003;1.013241e-002
3.590956e+003;1.103630e-002
3.592885e+003;1.121304e-002
3.594813e+003;1.126163e-002
3.596742e+003;1.138590e-002
3.598671e+003;1.138494e-002
3.600599e+003;1.130478e-002
3.602528e+003;1.152429e-002
3.604456e+003;1.138712e-002
3.606385e+003;1.059266e-002
3.608313e+003;9.927980e-003
3.610242e+003;1.021012e-002
3.612170e+003;1.014873e-002
3.614099e+003;1.023780e-002
3.616028e+003;1.030376e-002
3.617956e+003;9.713309e-003
3.619885e+003;9.884759e-003
3.621813e+003;1.090697e-002
3.623742e+003;1.123146e-002
3.625670e+003;1.044727e-002
3.627599e+003;7.928039e-003
3.629527e+003;8.095511e-003
3.631456e+003;1.105714e-002
3.633385e+003;1.145485e-002
3.635313e+003;1.107583e-002
3.637241e+003;1.125585e-002
3.639170e+003;1.141413e-002
3.641099e+003;1.172825e-002
3.643027e+003;1.183682e-002
3.644956e+003;1.094863e-002
3.646884e+003;8.811354e-003
3.648813e+003;7.427020e-003
3.650741e+003;8.257746e-003
3.652670e+003;9.779726e-003
3.654598e+003;9.404368e-003
3.656527e+003;9.495696e-003
3.658456e+003;1.087989e-002
3.660384e+003;1.165847e-002
3.662313e+003;1.211162e-002
3.664241e+003;1.232587e-002
3.666170e+003;1.213148e-002
3.668098e+003;1.004793e-002
3.670027e+003;8.233432e-003
3.671955e+003;9.194457e-003
3.673884e+003;8.018821e-003
3.675813e+003;7.756583e-003
3.677741e+003;1.066841e-002
3.679669e+003;1.210800e-002
3.681598e+003;1.264611e-002
3.683527e+003;1.243964e-002
3.685455e+003;1.146199e-002
3.687384e+003;8.971759e-003
3.689312e+003;8.889368e-003
3.691241e+003;1.063677e-002
3.693169e+003;1.208698e-002
3.695098e+003;1.321194e-002
3.697026e+003;1.311627e-002
3.698955e+003;1.215543e-002
3.700884e+003;1.150231e-002
3.702812e+003;1.239249e-002
3.704741e+003;1.335881e-002
3.706669e+003;1.297065e-002
3.708598e+003;1.175562e-002
3.710526e+003;1.059966e-002
3.712455e+003;1.093303e-002
3.714383e+003;1.251783e-002
3.716312e+003;1.306881e-002
3.718240e+003;1.239596e-002
3.720169e+003;1.140209e-002
3.722098e+003;1.147349e-002
3.724026e+003;1.169189e-002
3.725955e+003;1.135188e-002
3.727883e+003;1.219472e-002
3.729812e+003;1.185854e-002
3.731740e+003;1.005526e-002
3.733669e+003;9.534610e-003
3.735597e+003;9.204441e-003
3.737526e+003;1.078902e-002
3.739455e+003;1.246375e-002
3.741383e+003;1.128822e-002
3.743312e+003;7.076792e-003
3.745240e+003;7.632369e-003
3.747169e+003;9.717477e-003
3.749097e+003;7.568472e-003
3.751026e+003;7.396551e-003
3.752954e+003;1.006062e-002
3.754883e+003;1.240698e-002
3.756812e+003;1.251261e-002
3.758740e+003;1.237220e-002
3.760668e+003;1.271448e-002
3.762597e+003;1.313738e-002
3.764526e+003;1.255780e-002
3.766454e+003;1.276982e-002
3.768383e+003;1.255497e-002
3.770311e+003;1.248220e-002
3.772240e+003;1.326762e-002
3.774168e+003;1.370368e-002
3.776097e+003;1.312420e-002
3.778025e+003;1.249996e-002
3.779954e+003;1.302278e-002
3.781883e+003;1.391154e-002
3.783811e+003;1.381154e-002
3.785740e+003;1.342565e-002
3.787668e+003;1.328190e-002
3.789597e+003;1.362165e-002
3.791525e+003;1.352056e-002
3.793454e+003;1.315712e-002
3.795382e+003;1.248417e-002
3.797311e+003;1.229509e-002
3.799240e+003;1.086263e-002
3.801168e+003;9.678071e-003
3.803097e+003;1.203629e-002
3.805025e+003;1.198482e-002
3.806954e+003;1.117156e-002
3.808882e+003;1.298806e-002
3.810811e+003;1.340292e-002
3.812739e+003;1.291289e-002
3.814668e+003;1.077876e-002
3.816596e+003;1.054903e-002
3.818525e+003;1.155450e-002
3.820454e+003;1.031261e-002
3.822382e+003;1.141304e-002
3.824311e+003;1.342800e-002
3.826239e+003;1.344345e-002
3.828168e+003;1.371164e-002
3.830096e+003;1.357009e-002
3.832025e+003;1.255736e-002
3.833953e+003;1.145342e-002
3.835882e+003;1.008096e-002
3.837811e+003;9.409921e-003
3.839739e+003;1.145039e-002
3.841667e+003;1.272635e-002
3.843596e+003;1.261087e-002
3.845525e+003;1.350962e-002
3.847453e+003;1.428050e-002
3.849382e+003;1.283336e-002
3.851310e+003;8.683525e-003
3.853239e+003;5.211049e-003
3.855167e+003;8.310363e-003
3.857096e+003;1.275314e-002
3.859024e+003;1.401682e-002
3.860953e+003;1.384715e-002
3.862882e+003;1.320422e-002
3.864810e+003;1.238079e-002
3.866739e+003;1.227873e-002
3.868667e+003;1.119117e-002
3.870596e+003;1.150901e-002
3.872524e+003;1.270725e-002
3.874453e+003;1.344034e-002
3.876381e+003;1.444531e-002
3.878310e+003;1.401182e-002
3.880239e+003;1.346823e-002
3.882167e+003;1.362715e-002
3.884096e+003;1.237861e-002
3.886024e+003;1.241935e-002
3.887953e+003;1.442249e-002
3.889881e+003;1.350285e-002
3.891810e+003;1.271656e-002
3.893738e+003;1.410094e-002
3.895667e+003;1.462230e-002
3.897595e+003;1.349721e-002
3.899524e+003;1.219902e-002
3.901453e+003;1.201592e-002
3.903381e+003;1.259699e-002
3.905310e+003;1.370501e-002
3.907238e+003;1.469715e-002
3.909167e+003;1.508020e-002
3.911095e+003;1.522650e-002
3.913024e+003;1.526370e-002
3.914952e+003;1.497462e-002
3.916881e+003;1.497311e-002
3.918810e+003;1.530465e-002
3.920738e+003;1.496118e-002
3.922667e+003;1.467953e-002
3.924595e+003;1.455524e-002
3.926524e+003;1.503595e-002
3.928452e+003;1.577419e-002
3.930381e+003;1.581639e-002
3.932309e+003;1.532232e-002
3.934238e+003;1.545185e-002
3.936167e+003;1.585302e-002
3.938095e+003;1.586842e-002
3.940023e+003;1.509543e-002
3.941952e+003;1.482025e-002
3.943881e+003;1.562585e-002
3.945809e+003;1.556973e-002
3.947738e+003;1.491855e-002
3.949666e+003;1.505921e-002
3.951595e+003;1.539485e-002
3.953523e+003;1.547801e-002
3.955452e+003;1.582230e-002
3.957380e+003;1.583814e-002
3.959309e+003;1.523803e-002
3.961238e+003;1.470291e-002
3.963166e+003;1.495161e-002
3.965095e+003;1.561503e-002
3.967023e+003;1.609994e-002
3.968952e+003;1.623375e-002
3.970880e+003;1.589141e-002
3.972809e+003;1.537618e-002
3.974737e+003;1.545428e-002
3.976666e+003;1.581323e-002
3.978594e+003;1.592616e-002
3.980523e+003;1.617212e-002
3.982452e+003;1.658198e-002
3.984380e+003;1.662897e-002
3.986309e+003;1.687878e-002
3.988237e+003;1.700325e-002
3.990166e+003;1.732082e-002
3.992094e+003;1.754881e-002
3.994023e+003;1.712894e-002
3.995951e+003;1.675493e-002
3.997880e+003;1.659623e-002
3.999809e+003;1.702941e-002
4.001737e+003;0.000000e+000
