3.992094e+002;0.000000e+000
4.011380e+002;0.000000e+000
4.030665e+002;0.000000e+000
4.049951e+002;0.000000e+000
4.069236e+002;0.000000e+000
4.088522e+002;0.000000e+000
4.107807e+002;0.000000e+000
4.127093e+002;0.000000e+000
4.146378e+002;0.000000e+000
4.165664e+002;0.000000e+000
4.184949e+002;0.000000e+000
4.204235e+002;0.000000e+000
4.223520e+002;0.000000e+000
4.242806e+002;0.000000e+000
4.262091e+002;0.000000e+000
4.281377e+002;0.000000e+000
4.300662e+002;0.000000e+000
4.319948e+002;0.000000e+000
4.339233e+002;0.000000e+000
4.358519e+002;0.000000e+000
4.377804e+002;0.000000e+000
4.397090e+002;0.000000e+000
4.416375e+002;0.000000e+000
4.435660e+002;0.000000e+000
4.454946e+002;0.000000e+000
4.474232e+002;0.000000e+000
4.493517e+002;0.000000e+000
4.512802e+002;0.000000e+000
4.532088e+002;0.000000e+000
4.551373e+002;0.000000e+000
4.570659e+002;0.000000e+000
4.589944e+002;0.000000e+000
4.609230e+002;0.000000e+000
4.628515e+002;0.000000e+000
4.647801e+002;0.000000e+000
4.667086e+002;0.000000e+000
4.686372e+002;0.000000e+000
4.705657e+002;0.000000e+000
4.724943e+002;0.000000e+000
4.744228e+002;0.000000e+000
4.763513e+002;0.000000e+000
4.782799e+002;0.000000e+000
4.802085e+002;0.000000e+000
4.821370e+002;0.000000e+000
4.840656e+002;0.000000e+000
4.859941e+002;0.000000e+000
4.879226e+002;0.000000e+000
4.898512e+002;0.000000e+000
4.917798e+002;0.000000e+000
4.937083e+002;0.000000e+000
4.956368e+002;0.000000e+000
4.975654e+002;0.000000e+000
4.994939e+002;0.000000e+000
5.014225e+002;0.000000e+000
5.033510e+002;0.000000e+000
5.052796e+002;0.000000e+000
5.072081e+002;0.000000e+000
5.091367e+002;0.000000e+000
5.110652e+002;0.000000e+000
5.129938e+002;0.000000e+000
5.149223e+002;0.000000e+000
5.168509e+002;0.000000e+000
5.187794e+002;0.000000e+000
5.207079e+002;0.000000e+000
5.226365e+002;0.000000e+000
5.245651e+002;0.000000e+000
5.264936e+002;0.000000e+000
5.284222e+002;0.000000e+000
5.303507e+002;0.000000e+000
5.322792e+002;0.000000e+000
5.342078e+002;0.000000e+000
5.361364e+002;0.000000e+000
5.380649e+002;0.000000e+000
5.399935e+002;0.000000e+000
5.419220e+002;0.000000e+000
5.438505e+002;0.000000e+000
5.457791e+002;0.000000e+000
5.477076e+002;0.000000e+000
5.496362e+002;0.000000e+000
5.515648e+002;0.000000e+000
5.534933e+002;0.000000e+000
5.554218e+002;0.000000e+000
5.573504e+002;0.000000e+000
5.592789e+002;0.000000e+000
5.612075e+002;0.000000e+000
5.631360e+002;0.000000e+000
5.650646e+002;0.000000e+000
5.669931e+002;0.000000e+000
5.689217e+002;0.000000e+000
5.708502e+002;0.000000e+000
5.727787e+002;0.000000e+000
5.747073e+002;0.000000e+000
5.766359e+002;0.000000e+000
5.785644e+002;0.000000e+000
5.804930e+002;0.000000e+000
5.824215e+002;0.000000e+000
5.843500e+002;0.000000e+000
5.862786e+002;0.000000e+000
5.882072e+002;0.000000e+000
5.901357e+002;0.000000e+000
5.920643e+002;0.000000e+000
5.939928e+002;0.000000e+000
5.959213e+002;0.000000e+000
5.978499e+002;0.000000e+000
5.997784e+002;3.000141e-002
6.017070e+002;3.354427e-002
6.036355e+002;3.521185e-002
6.055641e+002;2.770966e-002
6.074926e+002;2.434364e-002
6.094211e+002;2.589421e-002
6.113497e+002;2.847367e-002
6.132783e+002;3.017776e-002
6.152068e+002;2.962811e-002
6.171354e+002;3.026042e-002
6.190639e+002;3.330784e-002
6.209924e+002;3.586908e-002
6.229210e+002;3.952210e-002
6.248495e+002;4.219127e-002
6.267781e+002;4.215012e-002
6.287067e+002;3.725044e-002
6.306352e+002;3.358182e-002
6.325637e+002;3.403984e-002
6.344923e+002;3.277819e-002
6.364208e+002;3.160881e-002
6.383494e+002;3.226303e-002
6.402780e+002;3.074294e-002
6.422065e+002;3.096606e-002
6.441350e+002;3.171119e-002
6.460636e+002;3.332755e-002
6.479921e+002;3.235337e-002
6.499207e+002;3.186513e-002
6.518492e+002;3.172078e-002
6.537778e+002;3.011564e-002
6.557063e+002;3.155532e-002
6.576349e+002;3.426624e-002
6.595634e+002;3.434025e-002
6.614919e+002;3.487892e-002
6.634205e+002;3.501987e-002
6.653491e+002;3.270216e-002
6.672776e+002;3.044594e-002
6.692062e+002;3.388223e-002
6.711347e+002;3.643012e-002
6.730632e+002;3.442708e-002
6.749918e+002;3.156426e-002
6.769203e+002;3.032533e-002
6.788489e+002;2.878494e-002
6.807775e+002;2.914743e-002
6.827060e+002;3.017368e-002
6.846345e+002;3.079661e-002
6.865631e+002;3.106314e-002
6.884916e+002;3.151530e-002
6.904202e+002;3.089714e-002
6.923488e+002;3.112831e-002
6.942773e+002;3.132110e-002
6.962058e+002;3.100296e-002
6.981344e+002;3.205922e-002
7.000629e+002;3.293147e-002
7.019915e+002;3.348625e-002
7.039200e+002;3.506157e-002
7.058486e+002;3.746894e-002
7.077771e+002;4.173526e-002
7.097057e+002;5.029444e-002
7.116342e+002;6.341757e-002
7.135627e+002;6.956731e-002
7.154913e+002;6.205369e-002
7.174199e+002;5.014257e-002
7.193484e+002;4.329109e-002
7.212770e+002;3.934151e-002
7.232055e+002;3.643801e-002
7.251340e+002;3.512925e-002
7.270626e+002;3.528659e-002
7.289911e+002;3.487709e-002
7.309197e+002;3.466398e-002
7.328483e+002;3.464596e-002
7.347768e+002;3.345780e-002
7.367053e+002;3.383513e-002
7.386339e+002;3.522561e-002
7.405624e+002;3.540787e-002
7.424910e+002;3.560168e-002
7.444196e+002;3.545773e-002
7.463481e+002;3.559631e-002
7.482766e+002;3.654559e-002
7.502052e+002;3.814986e-002
7.521337e+002;3.948544e-002
7.540623e+002;4.022380e-002
7.559908e+002;4.037853e-002
7.579194e+002;4.042450e-002
7.598479e+002;4.039151e-002
7.617765e+002;4.093144e-002
7.637050e+002;4.138362e-002
7.656335e+002;4.169240e-002
7.675621e+002;4.174616e-002
7.694907e+002;4.148135e-002
7.714192e+002;4.144296e-002
7.733478e+002;4.149932e-002
7.752763e+002;4.066349e-002
7.772048e+002;4.059058e-002
7.791334e+002;4.104808e-002
7.810620e+002;4.133894e-002
7.829905e+002;4.280430e-002
7.849191e+002;4.495014e-002
7.868476e+002;4.679926e-002
7.887761e+002;4.790517e-002
7.907047e+002;4.827505e-002
7.926332e+002;4.876196e-002
7.945618e+002;5.020439e-002
7.964903e+002;5.305295e-002
7.984189e+002;5.638159e-002
8.003474e+002;5.820129e-002
8.022759e+002;6.024419e-002
8.042045e+002;6.320183e-002
8.061331e+002;6.699871e-002
8.080616e+002;7.085520e-002
8.099902e+002;7.198667e-002
8.119187e+002;7.109936e-002
8.138472e+002;6.847745e-002
8.157758e+002;6.533464e-002
8.177043e+002;6.361447e-002
8.196329e+002;6.261241e-002
8.215615e+002;6.188691e-002
8.234900e+002;6.095932e-002
8.254185e+002;6.101350e-002
8.273471e+002;6.237461e-002
8.292756e+002;6.340392e-002
8.312042e+002;6.427613e-002
8.331328e+002;6.596320e-002
8.350613e+002;6.912065e-002
8.369898e+002;7.335924e-002
8.389184e+002;8.066410e-002
8.408469e+002;8.859097e-002
8.427755e+002;8.991098e-002
8.447040e+002;8.591518e-002
8.466326e+002;8.376431e-002
8.485611e+002;8.100918e-002
8.504897e+002;7.605857e-002
8.524182e+002;7.309891e-002
8.543467e+002;7.246134e-002
8.562753e+002;7.257074e-002
8.582039e+002;7.274308e-002
8.601324e+002;7.432702e-002
8.620610e+002;7.765768e-002
8.639895e+002;8.164631e-002
8.659180e+002;8.704274e-002
8.678466e+002;9.574873e-002
8.697751e+002;1.087343e-001
8.717037e+002;1.248762e-001
8.736323e+002;1.398050e-001
8.755608e+002;1.465500e-001
8.774893e+002;1.382529e-001
8.794179e+002;1.196003e-001
8.813464e+002;1.030096e-001
8.832750e+002;9.096424e-002
8.852036e+002;7.970269e-002
8.871321e+002;7.075996e-002
8.890606e+002;6.695502e-002
8.909892e+002;6.678044e-002
8.929177e+002;6.814876e-002
8.948463e+002;7.188563e-002
8.967748e+002;7.642353e-002
8.987034e+002;7.891694e-002
9.006319e+002;7.848784e-002
9.025605e+002;7.481383e-002
9.044890e+002;7.008863e-002
9.064175e+002;6.640354e-002
9.083461e+002;6.364869e-002
9.102747e+002;6.141770e-002
9.122032e+002;6.019760e-002
9.141318e+002;5.936051e-002
9.160603e+002;5.861861e-002
9.179888e+002;5.810678e-002
9.199174e+002;5.757454e-002
9.218459e+002;5.689261e-002
9.237745e+002;5.639283e-002
9.257031e+002;5.595156e-002
9.276316e+002;5.552463e-002
9.295601e+002;5.501022e-002
9.314887e+002;5.439831e-002
9.334172e+002;5.445931e-002
9.353458e+002;5.557133e-002
9.372744e+002;5.697167e-002
9.392029e+002;5.826790e-002
9.411314e+002;5.949930e-002
9.430600e+002;6.024438e-002
9.449885e+002;6.043825e-002
9.469171e+002;6.053407e-002
9.488456e+002;6.050649e-002
9.507742e+002;6.090564e-002
9.527027e+002;6.165390e-002
9.546313e+002;6.184844e-002
9.565598e+002;6.187935e-002
9.584883e+002;6.254139e-002
9.604169e+002;6.371292e-002
9.623455e+002;6.562000e-002
9.642740e+002;6.831416e-002
9.662026e+002;7.217024e-002
9.681311e+002;7.786464e-002
9.700596e+002;8.560689e-002
9.719882e+002;9.224753e-002
9.739167e+002;9.378276e-002
9.758453e+002;8.947647e-002
9.777739e+002;8.124554e-002
9.797024e+002;7.192735e-002
9.816309e+002;6.368767e-002
9.835595e+002;5.803955e-002
9.854880e+002;5.524654e-002
9.874166e+002;5.449875e-002
9.893452e+002;5.581658e-002
9.912737e+002;5.960708e-002
9.932022e+002;6.531111e-002
9.951307e+002;7.192011e-002
9.970593e+002;7.741777e-002
9.989879e+002;7.785267e-002
1.000916e+003;7.250319e-002
1.002845e+003;6.537462e-002
1.004773e+003;5.990410e-002
1.006702e+003;5.606525e-002
1.008631e+003;5.324659e-002
1.010559e+003;5.140941e-002
1.012488e+003;5.009211e-002
1.014416e+003;4.912333e-002
1.016345e+003;4.847190e-002
1.018273e+003;4.796107e-002
1.020202e+003;4.750943e-002
1.022130e+003;4.719531e-002
1.024059e+003;4.755006e-002
1.025988e+003;4.858576e-002
1.027916e+003;4.990890e-002
1.029845e+003;5.121118e-002
1.031773e+003;5.323340e-002
1.033702e+003;5.617999e-002
1.035630e+003;5.874749e-002
1.037559e+003;6.049503e-002
1.039487e+003;6.154019e-002
1.041416e+003;6.159800e-002
1.043344e+003;6.108009e-002
1.045273e+003;6.021522e-002
1.047202e+003;5.886878e-002
1.049130e+003;5.745441e-002
1.051059e+003;5.645023e-002
1.052987e+003;5.547087e-002
1.054916e+003;5.491944e-002
1.056844e+003;5.399819e-002
1.058773e+003;5.362120e-002
1.060701e+003;5.381176e-002
1.062630e+003;5.361408e-002
1.064558e+003;5.283555e-002
1.066487e+003;5.250855e-002
1.068416e+003;5.268197e-002
1.070344e+003;5.198309e-002
1.072273e+003;5.081249e-002
1.074201e+003;5.043520e-002
1.076130e+003;5.076475e-002
1.078058e+003;5.143280e-002
1.079987e+003;5.185777e-002
1.081915e+003;5.158459e-002
1.083844e+003;5.152490e-002
1.085773e+003;5.174720e-002
1.087701e+003;5.224796e-002
1.089630e+003;5.259677e-002
1.091558e+003;5.303340e-002
1.093487e+003;5.394931e-002
1.095415e+003;5.473453e-002
1.097344e+003;5.553713e-002
1.099272e+003;5.712837e-002
1.101201e+003;5.894270e-002
1.103129e+003;5.947300e-002
1.105058e+003;5.922522e-002
1.106987e+003;5.802069e-002
1.108915e+003;5.546432e-002
1.110844e+003;5.277423e-002
1.112772e+003;5.062783e-002
1.114701e+003;4.872778e-002
1.116629e+003;4.687916e-002
1.118558e+003;4.514332e-002
1.120486e+003;4.378421e-002
1.122415e+003;4.248820e-002
1.124344e+003;4.146680e-002
1.126272e+003;4.120066e-002
1.128201e+003;4.104673e-002
1.130129e+003;4.122901e-002
1.132058e+003;4.207801e-002
1.133986e+003;4.313008e-002
1.135915e+003;4.456612e-002
1.137843e+003;4.702307e-002
1.139772e+003;4.926182e-002
1.141700e+003;5.117927e-002
1.143629e+003;5.378659e-002
1.145557e+003;5.690443e-002
1.147486e+003;6.012666e-002
1.149415e+003;6.346834e-002
1.151343e+003;6.666685e-002
1.153272e+003;6.872688e-002
1.155200e+003;6.969473e-002
1.157129e+003;7.043071e-002
1.159057e+003;7.105956e-002
1.160986e+003;7.170269e-002
1.162914e+003;7.235084e-002
1.164843e+003;7.304417e-002
1.166771e+003;7.377326e-002
1.168700e+003;7.304931e-002
1.170629e+003;6.971916e-002
1.172557e+003;6.480014e-002
1.174486e+003;5.945861e-002
1.176414e+003;5.469717e-002
1.178343e+003;5.131897e-002
1.180271e+003;4.959757e-002
1.182200e+003;4.908508e-002
1.184128e+003;4.913484e-002
1.186057e+003;4.963490e-002
1.187986e+003;5.036614e-002
1.189914e+003;5.084881e-002
1.191843e+003;5.079190e-002
1.193771e+003;5.039754e-002
1.195700e+003;5.050334e-002
1.197628e+003;5.095778e-002
1.199557e+003;5.109160e-002
1.201485e+003;5.086598e-002
1.203414e+003;5.074456e-002
1.205343e+003;5.085626e-002
1.207271e+003;5.107643e-002
1.209200e+003;5.234518e-002
1.211128e+003;5.470375e-002
1.213057e+003;5.741977e-002
1.214985e+003;5.821861e-002
1.216914e+003;5.641023e-002
1.218842e+003;5.404998e-002
1.220771e+003;5.257238e-002
1.222699e+003;5.230653e-002
1.224628e+003;5.211218e-002
1.226557e+003;5.221329e-002
1.228485e+003;5.263491e-002
1.230414e+003;5.271545e-002
1.232342e+003;5.280861e-002
1.234271e+003;5.304894e-002
1.236199e+003;5.316427e-002
1.238128e+003;5.309526e-002
1.240056e+003;5.332941e-002
1.241985e+003;5.392665e-002
1.243913e+003;5.434829e-002
1.245842e+003;5.495547e-002
1.247771e+003;5.582276e-002
1.249699e+003;5.735265e-002
1.251628e+003;5.986778e-002
1.253556e+003;6.364229e-002
1.255485e+003;6.699692e-002
1.257413e+003;6.714266e-002
1.259342e+003;6.439720e-002
1.261270e+003;6.145919e-002
1.263199e+003;5.957154e-002
1.265127e+003;5.846699e-002
1.267056e+003;5.769468e-002
1.268985e+003;5.649173e-002
1.270913e+003;5.494091e-002
1.272842e+003;5.359053e-002
1.274770e+003;5.305950e-002
1.276699e+003;5.296456e-002
1.278627e+003;5.258109e-002
1.280556e+003;5.217117e-002
1.282484e+003;5.209033e-002
1.284413e+003;5.287930e-002
1.286342e+003;5.428656e-002
1.288270e+003;5.507315e-002
1.290199e+003;5.605756e-002
1.292127e+003;5.768419e-002
1.294056e+003;5.893405e-002
1.295984e+003;5.927771e-002
1.297913e+003;5.944394e-002
1.299841e+003;5.974773e-002
1.301770e+003;6.059742e-002
1.303698e+003;6.165509e-002
1.305627e+003;6.098620e-002
1.307556e+003;5.858342e-002
1.309484e+003;5.630830e-002
1.311413e+003;5.540785e-002
1.313341e+003;5.578644e-002
1.315270e+003;5.673668e-002
1.317198e+003;5.766838e-002
1.319127e+003;5.874230e-002
1.321055e+003;5.987006e-002
1.322984e+003;6.110961e-002
1.324912e+003;6.289120e-002
1.326841e+003;6.458682e-002
1.328770e+003;6.563522e-002
1.330698e+003;6.614571e-002
1.332627e+003;6.623477e-002
1.334555e+003;6.603502e-002
1.336484e+003;6.568529e-002
1.338412e+003;6.563587e-002
1.340341e+003;6.626762e-002
1.342269e+003;6.773284e-002
1.344198e+003;6.974728e-002
1.346126e+003;7.227256e-002
1.348055e+003;7.521138e-002
1.349984e+003;7.889672e-002
1.351912e+003;8.359277e-002
1.353841e+003;8.970897e-002
1.355769e+003;9.686392e-002
1.357698e+003;1.025653e-001
1.359626e+003;1.047031e-001
1.361555e+003;1.041500e-001
1.363483e+003;1.042632e-001
1.365412e+003;1.073371e-001
1.367341e+003;1.146978e-001
1.369269e+003;1.296361e-001
1.371198e+003;1.526791e-001
1.373126e+003;1.792464e-001
1.375055e+003;2.001556e-001
1.376983e+003;2.015265e-001
1.378912e+003;1.812134e-001
1.380840e+003;1.531568e-001
1.382769e+003;1.281138e-001
1.384698e+003;1.096347e-001
1.386626e+003;9.782328e-002
1.388555e+003;9.262184e-002
1.390483e+003;9.167508e-002
1.392412e+003;9.115279e-002
1.394340e+003;9.121038e-002
1.396269e+003;9.353545e-002
1.398197e+003;9.577136e-002
1.400126e+003;9.789056e-002
1.402054e+003;9.996838e-002
1.403983e+003;1.012958e-001
1.405911e+003;1.028044e-001
1.407840e+003;1.045840e-001
1.409769e+003;1.061695e-001
1.411697e+003;1.081728e-001
1.413626e+003;1.108315e-001
1.415554e+003;1.131999e-001
1.417483e+003;1.144061e-001
1.419411e+003;1.165733e-001
1.421340e+003;1.212154e-001
1.423268e+003;1.248336e-001
1.425197e+003;1.278636e-001
1.427125e+003;1.310481e-001
1.429054e+003;1.344491e-001
1.430983e+003;1.392115e-001
1.432911e+003;1.444232e-001
1.434840e+003;1.464093e-001
1.436768e+003;1.458899e-001
1.438697e+003;1.476690e-001
1.440625e+003;1.501167e-001
1.442554e+003;1.533523e-001
1.444482e+003;1.583991e-001
1.446411e+003;1.647588e-001
1.448340e+003;1.710380e-001
1.450268e+003;1.761646e-001
1.452197e+003;1.783520e-001
1.454125e+003;1.767561e-001
1.456054e+003;1.717424e-001
1.457982e+003;1.697560e-001
1.459911e+003;1.692973e-001
1.461839e+003;1.648590e-001
1.463768e+003;1.561645e-001
1.465697e+003;1.470102e-001
1.467625e+003;1.387293e-001
1.469554e+003;1.290047e-001
1.471482e+003;1.181636e-001
1.473411e+003;1.104795e-001
1.475339e+003;1.063416e-001
1.477268e+003;1.029488e-001
1.479196e+003;9.977105e-002
1.481125e+003;9.629776e-002
1.483053e+003;9.331576e-002
1.484982e+003;9.018996e-002
1.486911e+003;8.659951e-002
1.488839e+003;8.343434e-002
1.490768e+003;8.153036e-002
1.492696e+003;8.071198e-002
1.494625e+003;7.808415e-002
1.496553e+003;7.531292e-002
1.498482e+003;7.438613e-002
1.500410e+003;7.369241e-002
1.502339e+003;7.182132e-002
1.504267e+003;6.670243e-002
1.506196e+003;6.128047e-002
1.508125e+003;6.123801e-002
1.510053e+003;6.246172e-002
1.511982e+003;6.160373e-002
1.513910e+003;6.013823e-002
1.515839e+003;5.735503e-002
1.517767e+003;5.519515e-002
1.519696e+003;5.265725e-002
1.521624e+003;5.064585e-002
1.523553e+003;5.143280e-002
1.525481e+003;5.102310e-002
1.527410e+003;5.042727e-002
1.529339e+003;4.999027e-002
1.531267e+003;4.845468e-002
1.533196e+003;4.633861e-002
1.535124e+003;4.633323e-002
1.537053e+003;4.405968e-002
1.538981e+003;3.866720e-002
1.540910e+003;3.788267e-002
1.542838e+003;4.046435e-002
1.544767e+003;4.248659e-002
1.546695e+003;4.409125e-002
1.548624e+003;4.406947e-002
1.550553e+003;4.371795e-002
1.552481e+003;4.303894e-002
1.554410e+003;4.172227e-002
1.556338e+003;3.881468e-002
1.558267e+003;3.350597e-002
1.560195e+003;3.454201e-002
1.562124e+003;3.937884e-002
1.564052e+003;4.046410e-002
1.565981e+003;4.001037e-002
1.567910e+003;3.833469e-002
1.569838e+003;3.690216e-002
1.571767e+003;3.754993e-002
1.573695e+003;3.625608e-002
1.575624e+003;3.315460e-002
1.577552e+003;3.414980e-002
1.579481e+003;3.627769e-002
1.581409e+003;3.649592e-002
1.583338e+003;3.649124e-002
1.585266e+003;3.622507e-002
1.587195e+003;3.600772e-002
1.589124e+003;3.545335e-002
1.591052e+003;3.472954e-002
1.592981e+003;3.412023e-002
1.594909e+003;3.391498e-002
1.596838e+003;3.411037e-002
1.598766e+003;3.426007e-002
1.600695e+003;3.421788e-002
1.602623e+003;3.412833e-002
1.604552e+003;3.404153e-002
1.606480e+003;3.372754e-002
1.608409e+003;3.298391e-002
1.610338e+003;3.296571e-002
1.612266e+003;3.349821e-002
1.614195e+003;3.269451e-002
1.616123e+003;3.074739e-002
1.618052e+003;3.229512e-002
1.619980e+003;3.389194e-002
1.621909e+003;3.224076e-002
1.623837e+003;3.081425e-002
1.625766e+003;3.067825e-002
1.627694e+003;3.027179e-002
1.629623e+003;3.054198e-002
1.631552e+003;3.037582e-002
1.633480e+003;2.770574e-002
1.635409e+003;2.520631e-002
1.637337e+003;2.727858e-002
1.639266e+003;2.905609e-002
1.641194e+003;2.913456e-002
1.643123e+003;2.831867e-002
1.645051e+003;2.569579e-002
1.646980e+003;2.480591e-002
1.648909e+003;2.634218e-002
1.650837e+003;2.315523e-002
1.652766e+003;1.815665e-002
1.654694e+003;2.231992e-002
1.656623e+003;2.717917e-002
1.658551e+003;2.787762e-002
1.660480e+003;2.718079e-002
1.662408e+003;2.623355e-002
1.664337e+003;2.689545e-002
1.666266e+003;2.710870e-002
1.668194e+003;2.526576e-002
1.670123e+003;2.469829e-002
1.672051e+003;2.578228e-002
1.673980e+003;2.504681e-002
1.675908e+003;2.509427e-002
1.677837e+003;2.699430e-002
1.679765e+003;2.694071e-002
1.681694e+003;2.468388e-002
1.683622e+003;2.066051e-002
1.685551e+003;2.190852e-002
1.687479e+003;2.537938e-002
1.689408e+003;2.600606e-002
1.691337e+003;2.640964e-002
1.693265e+003;2.499680e-002
1.695194e+003;2.142091e-002
1.697122e+003;2.141897e-002
1.699051e+003;2.039348e-002
1.700979e+003;2.046054e-002
1.702908e+003;2.380538e-002
1.704836e+003;2.404786e-002
1.706765e+003;2.431865e-002
1.708693e+003;2.507103e-002
1.710622e+003;2.546064e-002
1.712551e+003;2.456802e-002
1.714479e+003;2.254207e-002
1.716408e+003;2.005999e-002
1.718336e+003;2.067754e-002
1.720265e+003;2.363289e-002
1.722193e+003;2.484436e-002
1.724122e+003;2.497377e-002
1.726050e+003;2.506482e-002
1.727979e+003;2.446596e-002
1.729908e+003;2.366826e-002
1.731836e+003;2.134570e-002
1.733765e+003;1.841297e-002
1.735693e+003;2.059158e-002
1.737622e+003;2.240644e-002
1.739550e+003;2.147355e-002
1.741479e+003;2.187095e-002
1.743407e+003;2.227681e-002
1.745336e+003;2.213694e-002
1.747265e+003;2.126221e-002
1.749193e+003;1.998150e-002
1.751122e+003;1.964201e-002
1.753050e+003;2.125191e-002
1.754979e+003;2.164267e-002
1.756907e+003;2.134180e-002
1.758836e+003;2.171331e-002
1.760764e+003;2.120526e-002
1.762693e+003;2.117088e-002
1.764621e+003;2.177434e-002
1.766550e+003;2.096421e-002
1.768479e+003;2.021158e-002
1.770407e+003;1.948954e-002
1.772336e+003;1.869231e-002
1.774264e+003;2.001519e-002
1.776193e+003;2.109727e-002
1.778121e+003;2.102879e-002
1.780050e+003;2.085817e-002
1.781978e+003;2.173602e-002
1.783907e+003;2.240822e-002
1.785835e+003;2.336403e-002
1.787764e+003;2.510572e-002
1.789693e+003;2.667547e-002
1.791621e+003;2.869074e-002
1.793550e+003;3.218577e-002
1.795478e+003;3.492405e-002
1.797407e+003;3.528649e-002
1.799335e+003;3.449455e-002
1.801264e+003;3.278540e-002
1.803192e+003;3.026188e-002
1.805121e+003;2.738190e-002
1.807049e+003;2.471211e-002
1.808978e+003;2.246931e-002
1.810907e+003;2.136105e-002
1.812835e+003;2.114991e-002
1.814764e+003;2.085480e-002
1.816692e+003;2.042793e-002
1.818621e+003;2.019225e-002
1.820549e+003;1.999791e-002
1.822478e+003;1.961418e-002
1.824406e+003;1.902714e-002
1.826335e+003;1.925402e-002
1.828264e+003;1.895559e-002
1.830192e+003;1.861501e-002
1.832121e+003;1.938070e-002
1.834049e+003;1.976538e-002
1.835978e+003;1.963993e-002
1.837906e+003;1.958038e-002
1.839835e+003;1.962118e-002
1.841763e+003;1.861497e-002
1.843692e+003;1.701022e-002
1.845620e+003;1.760277e-002
1.847549e+003;1.856213e-002
1.849478e+003;1.854380e-002
1.851406e+003;1.856469e-002
1.853335e+003;1.862331e-002
1.855263e+003;1.852741e-002
1.857192e+003;1.828529e-002
1.859120e+003;1.811606e-002
1.861049e+003;1.812625e-002
1.862977e+003;1.822755e-002
1.864906e+003;1.806894e-002
1.866834e+003;1.709023e-002
1.868763e+003;1.638340e-002
1.870692e+003;1.703919e-002
1.872620e+003;1.765519e-002
1.874549e+003;1.757786e-002
1.876477e+003;1.742418e-002
1.878406e+003;1.761402e-002
1.880334e+003;1.783353e-002
1.882263e+003;1.770978e-002
1.884191e+003;1.779062e-002
1.886120e+003;1.772252e-002
1.888048e+003;1.737669e-002
1.889977e+003;1.736089e-002
1.891906e+003;1.773974e-002
1.893834e+003;1.765053e-002
1.895763e+003;1.770395e-002
1.897691e+003;1.787942e-002
1.899620e+003;1.785749e-002
1.901548e+003;1.775420e-002
1.903477e+003;1.771624e-002
1.905405e+003;1.766492e-002
1.907334e+003;1.732724e-002
1.909262e+003;1.699271e-002
1.911191e+003;1.704054e-002
1.913120e+003;1.714955e-002
1.915048e+003;1.701159e-002
1.916977e+003;1.641031e-002
1.918905e+003;1.643185e-002
1.920834e+003;1.660783e-002
1.922762e+003;1.650718e-002
1.924691e+003;1.675764e-002
1.926619e+003;1.677507e-002
1.928548e+003;1.665985e-002
1.930477e+003;1.666643e-002
1.932405e+003;1.648740e-002
1.934334e+003;1.621518e-002
1.936262e+003;1.613907e-002
1.938191e+003;1.631277e-002
1.940119e+003;1.628477e-002
1.942048e+003;1.613243e-002
1.943976e+003;1.601921e-002
1.945905e+003;1.592805e-002
1.947833e+003;1.592385e-002
1.949762e+003;1.595637e-002
1.951691e+003;1.593111e-002
1.953619e+003;1.598593e-002
1.955548e+003;1.612470e-002
1.957476e+003;1.616352e-002
1.959405e+003;1.594891e-002
1.961333e+003;1.583312e-002
1.963262e+003;1.580948e-002
1.965190e+003;1.573014e-002
1.967119e+003;1.553559e-002
1.969047e+003;1.553360e-002
1.970976e+003;1.559738e-002
1.972905e+003;1.576340e-002
1.974833e+003;1.574767e-002
1.976762e+003;1.556770e-002
1.978690e+003;1.551623e-002
1.980619e+003;1.545181e-002
1.982547e+003;1.544179e-002
1.984476e+003;1.553419e-002
1.986404e+003;1.535675e-002
1.988333e+003;1.534141e-002
1.990261e+003;1.524143e-002
1.992190e+003;1.520625e-002
1.994119e+003;1.546877e-002
1.996047e+003;1.553625e-002
1.997976e+003;1.519802e-002
1.999904e+003;1.507907e-002
2.001833e+003;1.519545e-002
2.003761e+003;1.497538e-002
2.005690e+003;1.474942e-002
2.007618e+003;1.487816e-002
2.009547e+003;1.511169e-002
2.011476e+003;1.511622e-002
2.013404e+003;1.499427e-002
2.015333e+003;1.495936e-002
2.017261e+003;1.506188e-002
2.019190e+003;1.529922e-002
2.021118e+003;1.511739e-002
2.023047e+003;1.488707e-002
2.024975e+003;1.481864e-002
2.026904e+003;1.476379e-002
2.028833e+003;1.475463e-002
2.030761e+003;1.494568e-002
2.032690e+003;1.506562e-002
2.034618e+003;1.517928e-002
2.036547e+003;1.498135e-002
2.038475e+003;1.469766e-002
2.040404e+003;1.447442e-002
2.042332e+003;1.451375e-002
2.044261e+003;1.486139e-002
2.046189e+003;1.517819e-002
2.048118e+003;1.513694e-002
2.050047e+003;1.487223e-002
2.051975e+003;1.466020e-002
2.053904e+003;1.476965e-002
2.055832e+003;1.484949e-002
2.057761e+003;1.475306e-002
2.059689e+003;1.475491e-002
2.061618e+003;1.474171e-002
2.063546e+003;1.459101e-002
2.065475e+003;1.461696e-002
2.067404e+003;1.473304e-002
2.069332e+003;1.475083e-002
2.071260e+003;1.470884e-002
2.073189e+003;1.467340e-002
2.075118e+003;1.460181e-002
2.077046e+003;1.468498e-002
2.078975e+003;1.478675e-002
2.080903e+003;1.473228e-002
2.082832e+003;1.467463e-002
2.084760e+003;1.479803e-002
2.086689e+003;1.511879e-002
2.088617e+003;1.515684e-002
2.090546e+003;1.511094e-002
2.092475e+003;1.515677e-002
2.094403e+003;1.517970e-002
2.096332e+003;1.526624e-002
2.098260e+003;1.532304e-002
2.100189e+003;1.530053e-002
2.102117e+003;1.526761e-002
2.104046e+003;1.540968e-002
2.105974e+003;1.550596e-002
2.107903e+003;1.534099e-002
2.109832e+003;1.523285e-002
2.111760e+003;1.520807e-002
2.113688e+003;1.525872e-002
2.115617e+003;1.563087e-002
2.117546e+003;1.586721e-002
2.119474e+003;1.586707e-002
2.121403e+003;1.586027e-002
2.123331e+003;1.597555e-002
2.125260e+003;1.612181e-002
2.127188e+003;1.639675e-002
2.129117e+003;1.687644e-002
2.131045e+003;1.719236e-002
2.132974e+003;1.717116e-002
2.134903e+003;1.698768e-002
2.136831e+003;1.676670e-002
2.138760e+003;1.672724e-002
2.140688e+003;1.681323e-002
2.142617e+003;1.678368e-002
2.144545e+003;1.658363e-002
2.146474e+003;1.649431e-002
2.148402e+003;1.651775e-002
2.150331e+003;1.648017e-002
2.152260e+003;1.636314e-002
2.154188e+003;1.637483e-002
2.156117e+003;1.661930e-002
2.158045e+003;1.670262e-002
2.159974e+003;1.661988e-002
2.161902e+003;1.659348e-002
2.163831e+003;1.667965e-002
2.165759e+003;1.686293e-002
2.167688e+003;1.695788e-002
2.169616e+003;1.715772e-002
2.171545e+003;1.723652e-002
2.173474e+003;1.701008e-002
2.175402e+003;1.684378e-002
2.177331e+003;1.712542e-002
2.179259e+003;1.751880e-002
2.181188e+003;1.756075e-002
2.183116e+003;1.730134e-002
2.185045e+003;1.692287e-002
2.186973e+003;1.677824e-002
2.188902e+003;1.680965e-002
2.190831e+003;1.699826e-002
2.192759e+003;1.709588e-002
2.194688e+003;1.685732e-002
2.196616e+003;1.664057e-002
2.198545e+003;1.639689e-002
2.200473e+003;1.630971e-002
2.202402e+003;1.640501e-002
2.204330e+003;1.639541e-002
2.206259e+003;1.630355e-002
2.208188e+003;1.642001e-002
2.210116e+003;1.647862e-002
2.212044e+003;1.638213e-002
2.213973e+003;1.634332e-002
2.215902e+003;1.638674e-002
2.217830e+003;1.643158e-002
2.219759e+003;1.614038e-002
2.221687e+003;1.575213e-002
2.223616e+003;1.564330e-002
2.225544e+003;1.581776e-002
2.227473e+003;1.587735e-002
2.229401e+003;1.593465e-002
2.231330e+003;1.603781e-002
2.233259e+003;1.619568e-002
2.235187e+003;1.621088e-002
2.237116e+003;1.603052e-002
2.239044e+003;1.610995e-002
2.240973e+003;1.596538e-002
2.242901e+003;1.586845e-002
2.244830e+003;1.612270e-002
2.246758e+003;1.609695e-002
2.248687e+003;1.611538e-002
2.250615e+003;1.648213e-002
2.252544e+003;1.675413e-002
2.254473e+003;1.681044e-002
2.256401e+003;1.693731e-002
2.258330e+003;1.682529e-002
2.260258e+003;1.675603e-002
2.262187e+003;1.693293e-002
2.264115e+003;1.664278e-002
2.266044e+003;1.629860e-002
2.267972e+003;1.638691e-002
2.269901e+003;1.633671e-002
2.271830e+003;1.586594e-002
2.273758e+003;1.578110e-002
2.275687e+003;1.567164e-002
2.277615e+003;1.536866e-002
2.279544e+003;1.547567e-002
2.281472e+003;1.544446e-002
2.283401e+003;1.515585e-002
2.285329e+003;1.521566e-002
2.287258e+003;1.547602e-002
2.289187e+003;1.550187e-002
2.291115e+003;1.536633e-002
2.293043e+003;1.507221e-002
2.294972e+003;1.501479e-002
2.296901e+003;1.505478e-002
2.298829e+003;1.489283e-002
2.300758e+003;1.499078e-002
2.302686e+003;1.484377e-002
2.304615e+003;1.449179e-002
2.306543e+003;1.459194e-002
2.308472e+003;1.457275e-002
2.310400e+003;1.393316e-002
2.312329e+003;1.334606e-002
2.314258e+003;1.309541e-002
2.316186e+003;1.298041e-002
2.318115e+003;1.248387e-002
2.320043e+003;1.175180e-002
2.321972e+003;1.126530e-002
2.323900e+003;1.104949e-002
2.325829e+003;1.069996e-002
2.327757e+003;1.005380e-002
2.329686e+003;9.219637e-003
2.331615e+003;8.850072e-003
2.333543e+003;9.117268e-003
2.335472e+003;8.859810e-003
2.337400e+003;8.672168e-003
2.339329e+003;9.207216e-003
2.341257e+003;9.930828e-003
2.343186e+003;1.083331e-002
2.345114e+003;1.194991e-002
2.347043e+003;1.346638e-002
2.348971e+003;1.424277e-002
2.350900e+003;1.321098e-002
2.352829e+003;1.139096e-002
2.354757e+003;9.887539e-003
2.356686e+003;8.740826e-003
2.358614e+003;7.799390e-003
2.360543e+003;7.261894e-003
2.362471e+003;7.297981e-003
2.364400e+003;7.623804e-003
2.366328e+003;8.532519e-003
2.368257e+003;9.812159e-003
2.370186e+003;1.106971e-002
2.372114e+003;1.240050e-002
2.374042e+003;1.377833e-002
2.375971e+003;1.504645e-002
2.377900e+003;1.592323e-002
2.379828e+003;1.635041e-002
2.381757e+003;1.681912e-002
2.383685e+003;1.705708e-002
2.385614e+003;1.721170e-002
2.387542e+003;1.728579e-002
2.389471e+003;1.725986e-002
2.391399e+003;1.741487e-002
2.393328e+003;1.755485e-002
2.395257e+003;1.767379e-002
2.397185e+003;1.777757e-002
2.399114e+003;1.774982e-002
2.401042e+003;1.763980e-002
2.402971e+003;1.733575e-002
2.404899e+003;1.733286e-002
2.406828e+003;1.746033e-002
2.408756e+003;1.738417e-002
2.410685e+003;1.737800e-002
2.412614e+003;1.742735e-002
2.414542e+003;1.746491e-002
2.416471e+003;1.763731e-002
2.418399e+003;1.777329e-002
2.420328e+003;1.780122e-002
2.422256e+003;1.797914e-002
2.424185e+003;1.812708e-002
2.426113e+003;1.803619e-002
2.428042e+003;1.813585e-002
2.429970e+003;1.824244e-002
2.431899e+003;1.803709e-002
2.433828e+003;1.784889e-002
2.435756e+003;1.792406e-002
2.437685e+003;1.791709e-002
2.439613e+003;1.774340e-002
2.441542e+003;1.764363e-002
2.443470e+003;1.729507e-002
2.445399e+003;1.736245e-002
2.447327e+003;1.728055e-002
2.449256e+003;1.723087e-002
2.451185e+003;1.720553e-002
2.453113e+003;1.711232e-002
2.455042e+003;1.723449e-002
2.456970e+003;1.725590e-002
2.458899e+003;1.711763e-002
2.460827e+003;1.684692e-002
2.462756e+003;1.665865e-002
2.464684e+003;1.678382e-002
2.466613e+003;1.718747e-002
2.468542e+003;1.759532e-002
2.470470e+003;1.770423e-002
2.472398e+003;1.758290e-002
2.474327e+003;1.775131e-002
2.476256e+003;1.819303e-002
2.478184e+003;1.863192e-002
2.480113e+003;1.902012e-002
2.482041e+003;1.912793e-002
2.483970e+003;1.943971e-002
2.485898e+003;1.988052e-002
2.487827e+003;2.028393e-002
2.489755e+003;2.103018e-002
2.491684e+003;2.169293e-002
2.493613e+003;2.202782e-002
2.495541e+003;2.259652e-002
2.497470e+003;2.340949e-002
2.499398e+003;2.411962e-002
2.501327e+003;2.497339e-002
2.503255e+003;2.628156e-002
2.505184e+003;2.729855e-002
2.507112e+003;2.786286e-002
2.509041e+003;2.862707e-002
2.510969e+003;2.962488e-002
2.512898e+003;3.015936e-002
2.514827e+003;3.021793e-002
2.516755e+003;3.031808e-002
2.518684e+003;3.048208e-002
2.520612e+003;3.056928e-002
2.522541e+003;3.052385e-002
2.524469e+003;3.018142e-002
2.526398e+003;2.962821e-002
2.528326e+003;2.901294e-002
2.530255e+003;2.862024e-002
2.532184e+003;2.794755e-002
2.534112e+003;2.700241e-002
2.536041e+003;2.626576e-002
2.537969e+003;2.572212e-002
2.539898e+003;2.538061e-002
2.541826e+003;2.519300e-002
2.543755e+003;2.501529e-002
2.545683e+003;2.516017e-002
2.547612e+003;2.557730e-002
2.549541e+003;2.588707e-002
2.551469e+003;2.591151e-002
2.553397e+003;2.608533e-002
2.555326e+003;2.641222e-002
2.557255e+003;2.655706e-002
2.559183e+003;2.685361e-002
2.561112e+003;2.709032e-002
2.563040e+003;2.696098e-002
2.564969e+003;2.707629e-002
2.566897e+003;2.767205e-002
2.568826e+003;2.803385e-002
2.570754e+003;2.836949e-002
2.572683e+003;2.914275e-002
2.574612e+003;2.981247e-002
2.576540e+003;3.029559e-002
2.578469e+003;3.079366e-002
2.580397e+003;3.133646e-002
2.582326e+003;3.170478e-002
2.584254e+003;3.138632e-002
2.586183e+003;3.062392e-002
2.588111e+003;3.016071e-002
2.590040e+003;2.949826e-002
2.591969e+003;2.889868e-002
2.593897e+003;2.865446e-002
2.595826e+003;2.844488e-002
2.597754e+003;2.822570e-002
2.599683e+003;2.815276e-002
2.601611e+003;2.816793e-002
2.603540e+003;2.804265e-002
2.605468e+003;2.812306e-002
2.607397e+003;2.874115e-002
2.609325e+003;2.936593e-002
2.611254e+003;2.979203e-002
2.613183e+003;2.993797e-002
2.615111e+003;3.001110e-002
2.617040e+003;2.984856e-002
2.618968e+003;2.951638e-002
2.620897e+003;2.918070e-002
2.622825e+003;2.892988e-002
2.624754e+003;2.871651e-002
2.626682e+003;2.808991e-002
2.628611e+003;2.763522e-002
2.630540e+003;2.760955e-002
2.632468e+003;2.763970e-002
2.634396e+003;2.760972e-002
2.636325e+003;2.728359e-002
2.638254e+003;2.702663e-002
2.640182e+003;2.731838e-002
2.642111e+003;2.762868e-002
2.644039e+003;2.788257e-002
2.645968e+003;2.841891e-002
2.647896e+003;2.874405e-002
2.649825e+003;2.896944e-002
2.651753e+003;2.954461e-002
2.653682e+003;2.993627e-002
2.655611e+003;3.011227e-002
2.657539e+003;3.027221e-002
2.659468e+003;3.041822e-002
2.661396e+003;3.035336e-002
2.663325e+003;3.047977e-002
2.665253e+003;3.073497e-002
2.667182e+003;3.075642e-002
2.669110e+003;3.089390e-002
2.671039e+003;3.116056e-002
2.672968e+003;3.146383e-002
2.674896e+003;3.177244e-002
2.676825e+003;3.197130e-002
2.678753e+003;3.198410e-002
2.680682e+003;3.188282e-002
2.682610e+003;3.157620e-002
2.684539e+003;3.150512e-002
2.686467e+003;3.186603e-002
2.688396e+003;3.204456e-002
2.690324e+003;3.214677e-002
2.692253e+003;3.212636e-002
2.694182e+003;3.185900e-002
2.696110e+003;3.171633e-002
2.698039e+003;3.173868e-002
2.699967e+003;3.205048e-002
2.701896e+003;3.280856e-002
2.703824e+003;3.360759e-002
2.705753e+003;3.418393e-002
2.707681e+003;3.472994e-002
2.709610e+003;3.564588e-002
2.711539e+003;3.699148e-002
2.713467e+003;3.856290e-002
2.715396e+003;4.020232e-002
2.717324e+003;4.187984e-002
2.719253e+003;4.347797e-002
2.721181e+003;4.470969e-002
2.723110e+003;4.541888e-002
2.725038e+003;4.516288e-002
2.726967e+003;4.396855e-002
2.728896e+003;4.233479e-002
2.730824e+003;4.099571e-002
2.732752e+003;4.007167e-002
2.734681e+003;3.888776e-002
2.736610e+003;3.763353e-002
2.738538e+003;3.680052e-002
2.740467e+003;3.599200e-002
2.742395e+003;3.483113e-002
2.744324e+003;3.397986e-002
2.746252e+003;3.352007e-002
2.748181e+003;3.322413e-002
2.750109e+003;3.323679e-002
2.752038e+003;3.317603e-002
2.753967e+003;3.329432e-002
2.755895e+003;3.342924e-002
2.757824e+003;3.360047e-002
2.759752e+003;3.401730e-002
2.761681e+003;3.445972e-002
2.763609e+003;3.473066e-002
2.765538e+003;3.501430e-002
2.767466e+003;3.559358e-002
2.769395e+003;3.596403e-002
2.771323e+003;3.621804e-002
2.773252e+003;3.678472e-002
2.775181e+003;3.761026e-002
2.777109e+003;3.865583e-002
2.779038e+003;3.945580e-002
2.780966e+003;4.049414e-002
2.782895e+003;4.159291e-002
2.784823e+003;4.274602e-002
2.786752e+003;4.418739e-002
2.788680e+003;4.610141e-002
2.790609e+003;4.830785e-002
2.792538e+003;5.028421e-002
2.794466e+003;5.127404e-002
2.796395e+003;5.219401e-002
2.798323e+003;5.390579e-002
2.800252e+003;5.557750e-002
2.802180e+003;5.718661e-002
2.804109e+003;5.931538e-002
2.806037e+003;6.178816e-002
2.807966e+003;6.383664e-002
2.809895e+003;6.545570e-002
2.811823e+003;6.722690e-002
2.813751e+003;6.932855e-002
2.815680e+003;7.153302e-002
2.817609e+003;7.374141e-002
2.819537e+003;7.635044e-002
2.821466e+003;7.956139e-002
2.823394e+003;8.338563e-002
2.825323e+003;8.775850e-002
2.827251e+003;9.338547e-002
2.829180e+003;1.006643e-001
2.831108e+003;1.094074e-001
2.833037e+003;1.186412e-001
2.834966e+003;1.262301e-001
2.836894e+003;1.307076e-001
2.838823e+003;1.315766e-001
2.840751e+003;1.287076e-001
2.842680e+003;1.234701e-001
2.844608e+003;1.176404e-001
2.846537e+003;1.120742e-001
2.848465e+003;1.074996e-001
2.850394e+003;1.041392e-001
2.852323e+003;1.019205e-001
2.854251e+003;1.011835e-001
2.856180e+003;1.021433e-001
2.858108e+003;1.057026e-001
2.860037e+003;1.119399e-001
2.861965e+003;1.198801e-001
2.863894e+003;1.280885e-001
2.865822e+003;1.346567e-001
2.867751e+003;1.382207e-001
2.869679e+003;1.396275e-001
2.871608e+003;1.400559e-001
2.873536e+003;1.399038e-001
2.875465e+003;1.396692e-001
2.877394e+003;1.388999e-001
2.879322e+003;1.374115e-001
2.881251e+003;1.355582e-001
2.883179e+003;1.343138e-001
2.885108e+003;1.346235e-001
2.887036e+003;1.359871e-001
2.888965e+003;1.370470e-001
2.890893e+003;1.385911e-001
2.892822e+003;1.413764e-001
2.894750e+003;1.450491e-001
2.896679e+003;1.492504e-001
2.898608e+003;1.542700e-001
2.900536e+003;1.595746e-001
2.902465e+003;1.651357e-001
2.904393e+003;1.702502e-001
2.906322e+003;1.750223e-001
2.908250e+003;1.795531e-001
2.910179e+003;1.831691e-001
2.912107e+003;1.863084e-001
2.914036e+003;1.890957e-001
2.915965e+003;1.910072e-001
2.917893e+003;1.912741e-001
2.919822e+003;1.896280e-001
2.921750e+003;1.855744e-001
2.923679e+003;1.792054e-001
2.925607e+003;1.723708e-001
2.927536e+003;1.645531e-001
2.929464e+003;1.554561e-001
2.931393e+003;1.464725e-001
2.933322e+003;1.380480e-001
2.935250e+003;1.306737e-001
2.937178e+003;1.259155e-001
2.939107e+003;1.244443e-001
2.941036e+003;1.259116e-001
2.942964e+003;1.307041e-001
2.944893e+003;1.387674e-001
2.946821e+003;1.481675e-001
2.948750e+003;1.562922e-001
2.950678e+003;1.610097e-001
2.952607e+003;1.616978e-001
2.954535e+003;1.592012e-001
2.956464e+003;1.548596e-001
2.958393e+003;1.498206e-001
2.960321e+003;1.447763e-001
2.962250e+003;1.390039e-001
2.964178e+003;1.320901e-001
2.966107e+003;1.244058e-001
2.968035e+003;1.167465e-001
2.969964e+003;1.094400e-001
2.971892e+003;1.022533e-001
2.973821e+003;9.600722e-002
2.975750e+003;9.066076e-002
2.977678e+003;8.594991e-002
2.979607e+003;8.194932e-002
2.981535e+003;7.836869e-002
2.983464e+003;7.507630e-002
2.985392e+003;7.184270e-002
2.987321e+003;6.866078e-002
2.989249e+003;6.580877e-002
2.991178e+003;6.336293e-002
2.993106e+003;6.136270e-002
2.995035e+003;5.925124e-002
2.996964e+003;5.664750e-002
2.998892e+003;5.396795e-002
3.000821e+003;5.129108e-002
3.002749e+003;4.914263e-002
3.004678e+003;4.748233e-002
3.006606e+003;4.554151e-002
3.008535e+003;4.376255e-002
3.010463e+003;4.215019e-002
3.012392e+003;4.035486e-002
3.014321e+003;3.869585e-002
3.016249e+003;3.712179e-002
3.018177e+003;3.584742e-002
3.020106e+003;3.513841e-002
3.022035e+003;3.410912e-002
3.023963e+003;3.291692e-002
3.025892e+003;3.189384e-002
3.027820e+003;3.119417e-002
3.029749e+003;3.043382e-002
3.031677e+003;2.978138e-002
3.033606e+003;2.934062e-002
3.035534e+003;2.856507e-002
3.037463e+003;2.802448e-002
3.039392e+003;2.771704e-002
3.041320e+003;2.747695e-002
3.043249e+003;2.724838e-002
3.045177e+003;2.662255e-002
3.047106e+003;2.579560e-002
3.049034e+003;2.552867e-002
3.050963e+003;2.548787e-002
3.052891e+003;2.518868e-002
3.054820e+003;2.464856e-002
3.056749e+003;2.427033e-002
3.058677e+003;2.421554e-002
3.060606e+003;2.415479e-002
3.062534e+003;2.387370e-002
3.064463e+003;2.352249e-002
3.066391e+003;2.321178e-002
3.068320e+003;2.303006e-002
3.070248e+003;2.272973e-002
3.072177e+003;2.280882e-002
3.074105e+003;2.313706e-002
3.076034e+003;2.301703e-002
3.077963e+003;2.278284e-002
3.079891e+003;2.250588e-002
3.081820e+003;2.217781e-002
3.083748e+003;2.238174e-002
3.085677e+003;2.239482e-002
3.087605e+003;2.210999e-002
3.089534e+003;2.203260e-002
3.091462e+003;2.183663e-002
3.093391e+003;2.172682e-002
3.095320e+003;2.182778e-002
3.097248e+003;2.183621e-002
3.099177e+003;2.152163e-002
3.101105e+003;2.142690e-002
3.103034e+003;2.162408e-002
3.104962e+003;2.161279e-002
3.106891e+003;2.140167e-002
3.108819e+003;2.144932e-002
3.110748e+003;2.150408e-002
3.112677e+003;2.137525e-002
3.114605e+003;2.165037e-002
3.116533e+003;2.139926e-002
3.118462e+003;2.105397e-002
3.120391e+003;2.147397e-002
3.122319e+003;2.166698e-002
3.124248e+003;2.181670e-002
3.126176e+003;2.185949e-002
3.128105e+003;2.155478e-002
3.130033e+003;2.158110e-002
3.131962e+003;2.204870e-002
3.133890e+003;2.218687e-002
3.135819e+003;2.212920e-002
3.137748e+003;2.176197e-002
3.139676e+003;2.163902e-002
3.141605e+003;2.191713e-002
3.143533e+003;2.225181e-002
3.145462e+003;2.268700e-002
3.147390e+003;2.286833e-002
3.149319e+003;2.260057e-002
3.151247e+003;2.241516e-002
3.153176e+003;2.240665e-002
3.155104e+003;2.216114e-002
3.157033e+003;2.186810e-002
3.158962e+003;2.153552e-002
3.160890e+003;2.168342e-002
3.162819e+003;2.223988e-002
3.164747e+003;2.216630e-002
3.166676e+003;2.172881e-002
3.168604e+003;2.176295e-002
3.170533e+003;2.180709e-002
3.172461e+003;2.159778e-002
3.174390e+003;2.159472e-002
3.176319e+003;2.157689e-002
3.178247e+003;2.136310e-002
3.180176e+003;2.130557e-002
3.182104e+003;2.149057e-002
3.184033e+003;2.162505e-002
3.185961e+003;2.159503e-002
3.187890e+003;2.210758e-002
3.189818e+003;2.235373e-002
3.191747e+003;2.240927e-002
3.193676e+003;2.235237e-002
3.195604e+003;2.192232e-002
3.197532e+003;2.170227e-002
3.199461e+003;2.183144e-002
3.201390e+003;2.167332e-002
3.203318e+003;2.133049e-002
3.205247e+003;2.142071e-002
3.207175e+003;2.167628e-002
3.209104e+003;2.144083e-002
3.211032e+003;2.094081e-002
3.212961e+003;2.057643e-002
3.214889e+003;2.044637e-002
3.216818e+003;2.042915e-002
3.218747e+003;2.028445e-002
3.220675e+003;1.975133e-002
3.222604e+003;1.953764e-002
3.224532e+003;1.953595e-002
3.226461e+003;1.945703e-002
3.228389e+003;1.939172e-002
3.230318e+003;1.873195e-002
3.232246e+003;1.810020e-002
3.234175e+003;1.774150e-002
3.236104e+003;1.770954e-002
3.238032e+003;1.733169e-002
3.239961e+003;1.708141e-002
3.241889e+003;1.732251e-002
3.243818e+003;1.710485e-002
3.245746e+003;1.651162e-002
3.247675e+003;1.635429e-002
3.249603e+003;1.638643e-002
3.251532e+003;1.627723e-002
3.253460e+003;1.612449e-002
3.255389e+003;1.600144e-002
3.257318e+003;1.605614e-002
3.259246e+003;1.635220e-002
3.261175e+003;1.664336e-002
3.263103e+003;1.679718e-002
3.265032e+003;1.658226e-002
3.266960e+003;1.617054e-002
3.268889e+003;1.621776e-002
3.270817e+003;1.608405e-002
3.272746e+003;1.568359e-002
3.274675e+003;1.564684e-002
3.276603e+003;1.583415e-002
3.278531e+003;1.619248e-002
3.280460e+003;1.601237e-002
3.282389e+003;1.561462e-002
3.284317e+003;1.537367e-002
3.286246e+003;1.513032e-002
3.288174e+003;1.510569e-002
3.290103e+003;1.559466e-002
3.292031e+003;1.593111e-002
3.293960e+003;1.580326e-002
3.295888e+003;1.563835e-002
3.297817e+003;1.562314e-002
3.299746e+003;1.539753e-002
3.301674e+003;1.564413e-002
3.303603e+003;1.617958e-002
3.305531e+003;1.583474e-002
3.307460e+003;1.572348e-002
3.309388e+003;1.583250e-002
3.311317e+003;1.592193e-002
3.313245e+003;1.610465e-002
3.315174e+003;1.587223e-002
3.317103e+003;1.572640e-002
3.319031e+003;1.535830e-002
3.320960e+003;1.466898e-002
3.322888e+003;1.469694e-002
3.324817e+003;1.529236e-002
3.326745e+003;1.554706e-002
3.328674e+003;1.554913e-002
3.330602e+003;1.525605e-002
3.332531e+003;1.521174e-002
3.334459e+003;1.541377e-002
3.336388e+003;1.562808e-002
3.338317e+003;1.572097e-002
3.340245e+003;1.578725e-002
3.342174e+003;1.561689e-002
3.344102e+003;1.575653e-002
3.346031e+003;1.630947e-002
3.347959e+003;1.614622e-002
3.349888e+003;1.547482e-002
3.351816e+003;1.558309e-002
3.353745e+003;1.627348e-002
3.355674e+003;1.624194e-002
3.357602e+003;1.594843e-002
3.359531e+003;1.561737e-002
3.361459e+003;1.526439e-002
3.363388e+003;1.499530e-002
3.365316e+003;1.492044e-002
3.367245e+003;1.518892e-002
3.369173e+003;1.562420e-002
3.371102e+003;1.579629e-002
3.373031e+003;1.572702e-002
3.374959e+003;1.585213e-002
3.376887e+003;1.565721e-002
3.378816e+003;1.539578e-002
3.380745e+003;1.544055e-002
3.382673e+003;1.529061e-002
3.384602e+003;1.498858e-002
3.386530e+003;1.538394e-002
3.388459e+003;1.611500e-002
3.390387e+003;1.594668e-002
3.392316e+003;1.494530e-002
3.394244e+003;1.475655e-002
3.396173e+003;1.530042e-002
3.398102e+003;1.557313e-002
3.400030e+003;1.568267e-002
3.401959e+003;1.535706e-002
3.403887e+003;1.482827e-002
3.405816e+003;1.477578e-002
3.407744e+003;1.473338e-002
3.409673e+003;1.527122e-002
3.411601e+003;1.591433e-002
3.413530e+003;1.570991e-002
3.415458e+003;1.523374e-002
3.417387e+003;1.508236e-002
3.419316e+003;1.482344e-002
3.421244e+003;1.485354e-002
3.423173e+003;1.491821e-002
3.425101e+003;1.492404e-002
3.427030e+003;1.502960e-002
3.428958e+003;1.503211e-002
3.430887e+003;1.527472e-002
3.432815e+003;1.508253e-002
3.434744e+003;1.457100e-002
3.436673e+003;1.448528e-002
3.438601e+003;1.431618e-002
3.440530e+003;1.413664e-002
3.442458e+003;1.408260e-002
3.444387e+003;1.404666e-002
3.446315e+003;1.406353e-002
3.448244e+003;1.436536e-002
3.450172e+003;1.462388e-002
3.452101e+003;1.437218e-002
3.454030e+003;1.429721e-002
3.455958e+003;1.429865e-002
3.457886e+003;1.390637e-002
3.459815e+003;1.383227e-002
3.461744e+003;1.368353e-002
3.463672e+003;1.347906e-002
3.465601e+003;1.333779e-002
3.467529e+003;1.342148e-002
3.469458e+003;1.330048e-002
3.471386e+003;1.327951e-002
3.473315e+003;1.336602e-002
3.475243e+003;1.344499e-002
3.477172e+003;1.332724e-002
3.479101e+003;1.300274e-002
3.481029e+003;1.283609e-002
3.482958e+003;1.290408e-002
3.484886e+003;1.320456e-002
3.486815e+003;1.309592e-002
3.488743e+003;1.269387e-002
3.490672e+003;1.290115e-002
3.492600e+003;1.343706e-002
3.494529e+003;1.335532e-002
3.496458e+003;1.308202e-002
3.498386e+003;1.272185e-002
3.500315e+003;1.246828e-002
3.502243e+003;1.245543e-002
3.504172e+003;1.277163e-002
3.506100e+003;1.305163e-002
3.508029e+003;1.294337e-002
3.509957e+003;1.242975e-002
3.511886e+003;1.210320e-002
3.513814e+003;1.213022e-002
3.515743e+003;1.226916e-002
3.517672e+003;1.256319e-002
3.519600e+003;1.247476e-002
3.521529e+003;1.218665e-002
3.523457e+003;1.219196e-002
3.525386e+003;1.231964e-002
3.527314e+003;1.215830e-002
3.529243e+003;1.184499e-002
3.531171e+003;1.194361e-002
3.533100e+003;1.254835e-002
3.535029e+003;1.261023e-002
3.536957e+003;1.238986e-002
3.538885e+003;1.211625e-002
3.540814e+003;1.151820e-002
3.542743e+003;1.106784e-002
3.544671e+003;1.105870e-002
3.546600e+003;1.145648e-002
3.548528e+003;1.217050e-002
3.550457e+003;1.228204e-002
3.552385e+003;1.198200e-002
3.554314e+003;1.177444e-002
3.556242e+003;1.198537e-002
3.558171e+003;1.164884e-002
3.560100e+003;1.123181e-002
3.562028e+003;1.102927e-002
3.563957e+003;1.075345e-002
3.565885e+003;1.034654e-002
3.567814e+003;1.011959e-002
3.569742e+003;1.038543e-002
3.571671e+003;1.089433e-002
3.573599e+003;1.134464e-002
3.575528e+003;1.191538e-002
3.577457e+003;1.230051e-002
3.579385e+003;1.210613e-002
3.581314e+003;1.157747e-002
3.583242e+003;1.110421e-002
3.585171e+003;1.010620e-002
3.587099e+003;9.104309e-003
3.589028e+003;9.822224e-003
3.590956e+003;1.088533e-002
3.592885e+003;1.117628e-002
3.594813e+003;1.170469e-002
3.596742e+003;1.180219e-002
3.598671e+003;1.145202e-002
3.600599e+003;1.152534e-002
3.602528e+003;1.157325e-002
3.604456e+003;1.164700e-002
3.606385e+003;1.090218e-002
3.608313e+003;9.976460e-003
3.610242e+003;1.042242e-002
3.612170e+003;1.068577e-002
3.614099e+003;1.131954e-002
3.616028e+003;1.152623e-002
3.617956e+003;1.092229e-002
3.619885e+003;1.137464e-002
3.621813e+003;1.203030e-002
3.623742e+003;1.196875e-002
3.625670e+003;1.111139e-002
3.627599e+003;8.594531e-003
3.629527e+003;8.418487e-003
3.631456e+003;1.031377e-002
3.633385e+003;1.131862e-002
3.635313e+003;1.226718e-002
3.637241e+003;1.266651e-002
3.639170e+003;1.269708e-002
3.641099e+003;1.287214e-002
3.643027e+003;1.300400e-002
3.644956e+003;1.225658e-002
3.646884e+003;9.870082e-003
3.648813e+003;7.956216e-003
3.650741e+003;9.541621e-003
3.652670e+003;1.172181e-002
3.654598e+003;1.088533e-002
3.656527e+003;1.052123e-002
3.658456e+003;1.192304e-002
3.660384e+003;1.256967e-002
3.662313e+003;1.275116e-002
3.664241e+003;1.304682e-002
3.666170e+003;1.262882e-002
3.668098e+003;1.056258e-002
3.670027e+003;9.352735e-003
3.671955e+003;1.072068e-002
3.673884e+003;8.926807e-003
3.675813e+003;7.865583e-003
3.677741e+003;1.139127e-002
3.679669e+003;1.287777e-002
3.681598e+003;1.309302e-002
3.683527e+003;1.328825e-002
3.685455e+003;1.274505e-002
3.687384e+003;1.099416e-002
3.689312e+003;1.131886e-002
3.691241e+003;1.352377e-002
3.693169e+003;1.523137e-002
3.695098e+003;1.565161e-002
3.697026e+003;1.570218e-002
3.698955e+003;1.482378e-002
3.700884e+003;1.332525e-002
3.702812e+003;1.314353e-002
3.704741e+003;1.343173e-002
3.706669e+003;1.256486e-002
3.708598e+003;1.132018e-002
3.710526e+003;9.615600e-003
3.712455e+003;1.003047e-002
3.714383e+003;1.221217e-002
3.716312e+003;1.277306e-002
3.718240e+003;1.263956e-002
3.720169e+003;1.227703e-002
3.722098e+003;1.146594e-002
3.724026e+003;1.117540e-002
3.725955e+003;1.138406e-002
3.727883e+003;1.171535e-002
3.729812e+003;1.131338e-002
3.731740e+003;9.943168e-003
3.733669e+003;9.411242e-003
3.735597e+003;9.294576e-003
3.737526e+003;1.100446e-002
3.739455e+003;1.229813e-002
3.741383e+003;1.066872e-002
3.743312e+003;6.346653e-003
3.745240e+003;7.487593e-003
3.747169e+003;1.003766e-002
3.749097e+003;8.332823e-003
3.751026e+003;7.576766e-003
3.752954e+003;9.630845e-003
3.754883e+003;1.210882e-002
3.756812e+003;1.225975e-002
3.758740e+003;1.244100e-002
3.760668e+003;1.290712e-002
3.762597e+003;1.332071e-002
3.764526e+003;1.265894e-002
3.766454e+003;1.227236e-002
3.768383e+003;1.167150e-002
3.770311e+003;1.210494e-002
3.772240e+003;1.303606e-002
3.774168e+003;1.327305e-002
3.776097e+003;1.348846e-002
3.778025e+003;1.318666e-002
3.779954e+003;1.264696e-002
3.781883e+003;1.247885e-002
3.783811e+003;1.225835e-002
3.785740e+003;1.279357e-002
3.787668e+003;1.344191e-002
3.789597e+003;1.345623e-002
3.791525e+003;1.311774e-002
3.793454e+003;1.283282e-002
3.795382e+003;1.241496e-002
3.797311e+003;1.245192e-002
3.799240e+003;1.105051e-002
3.801168e+003;9.705075e-003
3.803097e+003;1.190843e-002
3.805025e+003;1.187121e-002
3.806954e+003;1.075909e-002
3.808882e+003;1.233838e-002
3.810811e+003;1.343289e-002
3.812739e+003;1.302186e-002
3.814668e+003;1.073644e-002
3.816596e+003;1.086477e-002
3.818525e+003;1.166293e-002
3.820454e+003;1.005000e-002
3.822382e+003;1.121854e-002
3.824311e+003;1.269476e-002
3.826239e+003;1.262841e-002
3.828168e+003;1.319756e-002
3.830096e+003;1.272652e-002
3.832025e+003;1.209223e-002
3.833953e+003;1.148149e-002
3.835882e+003;9.736181e-003
3.837811e+003;9.306085e-003
3.839739e+003;1.128648e-002
3.841667e+003;1.195740e-002
3.843596e+003;1.233859e-002
3.845525e+003;1.354373e-002
3.847453e+003;1.399376e-002
3.849382e+003;1.240940e-002
3.851310e+003;8.368087e-003
3.853239e+003;5.781300e-003
3.855167e+003;9.692979e-003
3.857096e+003;1.309862e-002
3.859024e+003;1.337285e-002
3.860953e+003;1.287937e-002
3.862882e+003;1.245161e-002
3.864810e+003;1.241178e-002
3.866739e+003;1.269844e-002
3.868667e+003;1.112186e-002
3.870596e+003;1.128509e-002
3.872524e+003;1.270926e-002
3.874453e+003;1.325238e-002
3.876381e+003;1.396488e-002
3.878310e+003;1.340019e-002
3.880239e+003;1.299543e-002
3.882167e+003;1.352921e-002
3.884096e+003;1.271608e-002
3.886024e+003;1.279282e-002
3.887953e+003;1.444678e-002
3.889881e+003;1.391095e-002
3.891810e+003;1.354777e-002
3.893738e+003;1.470267e-002
3.895667e+003;1.489619e-002
3.897595e+003;1.380628e-002
3.899524e+003;1.300916e-002
3.901453e+003;1.211540e-002
3.903381e+003;1.151061e-002
3.905310e+003;1.282705e-002
3.907238e+003;1.451728e-002
3.909167e+003;1.534086e-002
3.911095e+003;1.549123e-002
3.913024e+003;1.524428e-002
3.914952e+003;1.482467e-002
3.916881e+003;1.448395e-002
3.918810e+003;1.446278e-002
3.920738e+003;1.487037e-002
3.922667e+003;1.573320e-002
3.924595e+003;1.603214e-002
3.926524e+003;1.605720e-002
3.928452e+003;1.581556e-002
3.930381e+003;1.555297e-002
3.932309e+003;1.518323e-002
3.934238e+003;1.534638e-002
3.936167e+003;1.583776e-002
3.938095e+003;1.585680e-002
3.940023e+003;1.519397e-002
3.941952e+003;1.465205e-002
3.943881e+003;1.509485e-002
3.945809e+003;1.500079e-002
3.947738e+003;1.424880e-002
3.949666e+003;1.451296e-002
3.951595e+003;1.493477e-002
3.953523e+003;1.499935e-002
3.955452e+003;1.516233e-002
3.957380e+003;1.552835e-002
3.959309e+003;1.576728e-002
3.961238e+003;1.576072e-002
3.963166e+003;1.608588e-002
3.965095e+003;1.625759e-002
3.967023e+003;1.588027e-002
3.968952e+003;1.608000e-002
3.970880e+003;1.630424e-002
3.972809e+003;1.585622e-002
3.974737e+003;1.528131e-002
3.976666e+003;1.497394e-002
3.978594e+003;1.544525e-002
3.980523e+003;1.588357e-002
3.982452e+003;1.590670e-002
3.984380e+003;1.614495e-002
3.986309e+003;1.672111e-002
3.988237e+003;1.752121e-002
3.990166e+003;1.776201e-002
3.992094e+003;1.727131e-002
3.994023e+003;1.715027e-002
3.995951e+003;1.702882e-002
3.997880e+003;1.701759e-002
3.999809e+003;1.728731e-002
4.001737e+003;0.000000e+000
