3.992094e+002;0.000000e+000
4.011380e+002;0.000000e+000
4.030665e+002;0.000000e+000
4.049951e+002;0.000000e+000
4.069236e+002;0.000000e+000
4.088522e+002;0.000000e+000
4.107807e+002;0.000000e+000
4.127093e+002;0.000000e+000
4.146378e+002;0.000000e+000
4.165664e+002;0.000000e+000
4.184949e+002;0.000000e+000
4.204235e+002;0.000000e+000
4.223520e+002;0.000000e+000
4.242806e+002;0.000000e+000
4.262091e+002;0.000000e+000
4.281377e+002;0.000000e+000
4.300662e+002;0.000000e+000
4.319948e+002;0.000000e+000
4.339233e+002;0.000000e+000
4.358519e+002;0.000000e+000
4.377804e+002;0.000000e+000
4.397090e+002;0.000000e+000
4.416375e+002;0.000000e+000
4.435660e+002;0.000000e+000
4.454946e+002;0.000000e+000
4.474232e+002;0.000000e+000
4.493517e+002;0.000000e+000
4.512802e+002;0.000000e+000
4.532088e+002;0.000000e+000
4.551373e+002;0.000000e+000
4.570659e+002;0.000000e+000
4.589944e+002;0.000000e+000
4.609230e+002;0.000000e+000
4.628515e+002;0.000000e+000
4.647801e+002;0.000000e+000
4.667086e+002;0.000000e+000
4.686372e+002;0.000000e+000
4.705657e+002;0.000000e+000
4.724943e+002;0.000000e+000
4.744228e+002;0.000000e+000
4.763513e+002;0.000000e+000
4.782799e+002;0.000000e+000
4.802085e+002;0.000000e+000
4.821370e+002;0.000000e+000
4.840656e+002;0.000000e+000
4.859941e+002;0.000000e+000
4.879226e+002;0.000000e+000
4.898512e+002;0.000000e+000
4.917798e+002;0.000000e+000
4.937083e+002;0.000000e+000
4.956368e+002;0.000000e+000
4.975654e+002;0.000000e+000
4.994939e+002;0.000000e+000
5.014225e+002;0.000000e+000
5.033510e+002;0.000000e+000
5.052796e+002;0.000000e+000
5.072081e+002;0.000000e+000
5.091367e+002;0.000000e+000
5.110652e+002;0.000000e+000
5.129938e+002;0.000000e+000
5.149223e+002;0.000000e+000
5.168509e+002;0.000000e+000
5.187794e+002;0.000000e+000
5.207079e+002;0.000000e+000
5.226365e+002;0.000000e+000
5.245651e+002;0.000000e+000
5.264936e+002;0.000000e+000
5.284222e+002;0.000000e+000
5.303507e+002;0.000000e+000
5.322792e+002;0.000000e+000
5.342078e+002;0.000000e+000
5.361364e+002;0.000000e+000
5.380649e+002;0.000000e+000
5.399935e+002;0.000000e+000
5.419220e+002;0.000000e+000
5.438505e+002;0.000000e+000
5.457791e+002;0.000000e+000
5.477076e+002;0.000000e+000
5.496362e+002;0.000000e+000
5.515648e+002;0.000000e+000
5.534933e+002;0.000000e+000
5.554218e+002;0.000000e+000
5.573504e+002;0.000000e+000
5.592789e+002;0.000000e+000
5.612075e+002;0.000000e+000
5.631360e+002;0.000000e+000
5.650646e+002;0.000000e+000
5.669931e+002;0.000000e+000
5.689217e+002;0.000000e+000
5.708502e+002;0.000000e+000
5.727787e+002;0.000000e+000
5.747073e+002;0.000000e+000
5.766359e+002;0.000000e+000
5.785644e+002;0.000000e+000
5.804930e+002;0.000000e+000
5.824215e+002;0.000000e+000
5.843500e+002;0.000000e+000
5.862786e+002;0.000000e+000
5.882072e+002;0.000000e+000
5.901357e+002;0.000000e+000
5.920643e+002;0.000000e+000
5.939928e+002;0.000000e+000
5.959213e+002;0.000000e+000
5.978499e+002;0.000000e+000
5.997784e+002;3.703240e-002
6.017070e+002;3.909828e-002
6.036355e+002;4.243573e-002
6.055641e+002;4.494158e-002
6.074926e+002;4.771825e-002
6.094211e+002;4.524999e-002
6.113497e+002;3.939161e-002
6.132783e+002;3.699520e-002
6.152068e+002;4.160929e-002
6.171354e+002;4.582940e-002
6.190639e+002;4.419120e-002
6.209924e+002;4.293267e-002
6.229210e+002;4.085030e-002
6.248495e+002;3.783578e-002
6.267781e+002;3.678909e-002
6.287067e+002;3.966147e-002
6.306352e+002;4.245842e-002
6.325637e+002;4.088248e-002
6.344923e+002;3.829238e-002
6.364208e+002;3.600002e-002
6.383494e+002;3.811079e-002
6.402780e+002;4.009460e-002
6.422065e+002;4.346915e-002
6.441350e+002;4.476097e-002
6.460636e+002;4.017942e-002
6.479921e+002;3.629556e-002
6.499207e+002;3.778677e-002
6.518492e+002;3.686494e-002
6.537778e+002;3.822935e-002
6.557063e+002;4.118358e-002
6.576349e+002;4.059905e-002
6.595634e+002;4.137222e-002
6.614919e+002;4.488694e-002
6.634205e+002;4.600924e-002
6.653491e+002;4.164918e-002
6.672776e+002;3.740722e-002
6.692062e+002;3.695216e-002
6.711347e+002;3.672897e-002
6.730632e+002;3.699163e-002
6.749918e+002;3.711742e-002
6.769203e+002;3.776197e-002
6.788489e+002;3.932552e-002
6.807775e+002;3.960299e-002
6.827060e+002;3.925685e-002
6.846345e+002;3.877605e-002
6.865631e+002;3.886167e-002
6.884916e+002;3.885649e-002
6.904202e+002;3.724849e-002
6.923488e+002;3.601154e-002
6.942773e+002;3.634124e-002
6.962058e+002;3.826955e-002
6.981344e+002;3.914081e-002
7.000629e+002;3.844418e-002
7.019915e+002;3.831554e-002
7.039200e+002;3.836650e-002
7.058486e+002;3.792711e-002
7.077771e+002;3.823278e-002
7.097057e+002;3.785722e-002
7.116342e+002;3.793094e-002
7.135627e+002;3.918799e-002
7.154913e+002;3.964064e-002
7.174199e+002;3.992398e-002
7.193484e+002;4.089016e-002
7.212770e+002;4.084582e-002
7.232055e+002;3.961243e-002
7.251340e+002;3.773446e-002
7.270626e+002;3.734478e-002
7.289911e+002;3.862200e-002
7.309197e+002;3.914135e-002
7.328483e+002;3.783141e-002
7.347768e+002;3.618876e-002
7.367053e+002;3.629491e-002
7.386339e+002;3.664764e-002
7.405624e+002;3.718853e-002
7.424910e+002;3.657431e-002
7.444196e+002;3.566160e-002
7.463481e+002;3.513765e-002
7.482766e+002;3.500988e-002
7.502052e+002;3.530701e-002
7.521337e+002;3.614119e-002
7.540623e+002;3.687031e-002
7.559908e+002;3.611890e-002
7.579194e+002;3.505784e-002
7.598479e+002;3.473680e-002
7.617765e+002;3.477319e-002
7.637050e+002;3.427478e-002
7.656335e+002;3.408482e-002
7.675621e+002;3.465715e-002
7.694907e+002;3.525199e-002
7.714192e+002;3.439982e-002
7.733478e+002;3.363087e-002
7.752763e+002;3.327618e-002
7.772048e+002;3.309013e-002
7.791334e+002;3.352619e-002
7.810620e+002;3.438830e-002
7.829905e+002;3.473640e-002
7.849191e+002;3.514498e-002
7.868476e+002;3.615869e-002
7.887761e+002;3.727260e-002
7.907047e+002;3.755607e-002
7.926332e+002;3.858825e-002
7.945618e+002;4.046134e-002
7.964903e+002;4.243229e-002
7.984189e+002;4.321543e-002
8.003474e+002;4.445536e-002
8.022759e+002;4.649749e-002
8.042045e+002;4.883507e-002
8.061331e+002;5.102764e-002
8.080616e+002;5.240184e-002
8.099902e+002;5.195340e-002
8.119187e+002;5.076970e-002
8.138472e+002;4.761006e-002
8.157758e+002;4.434706e-002
8.177043e+002;4.260791e-002
8.196329e+002;4.127291e-002
8.215615e+002;4.028011e-002
8.234900e+002;3.983068e-002
8.254185e+002;3.995366e-002
8.273471e+002;4.078180e-002
8.292756e+002;4.071371e-002
8.312042e+002;4.064591e-002
8.331328e+002;4.203877e-002
8.350613e+002;4.448987e-002
8.369898e+002;4.758185e-002
8.389184e+002;5.270449e-002
8.408469e+002;5.697666e-002
8.427755e+002;5.632040e-002
8.447040e+002;5.190624e-002
8.466326e+002;4.675701e-002
8.485611e+002;4.295604e-002
8.504897e+002;4.079799e-002
8.524182e+002;3.976350e-002
8.543467e+002;3.920517e-002
8.562753e+002;3.852278e-002
8.582039e+002;3.744182e-002
8.601324e+002;3.650298e-002
8.620610e+002;3.620738e-002
8.639895e+002;3.657965e-002
8.659180e+002;3.684553e-002
8.678466e+002;3.637546e-002
8.697751e+002;3.646125e-002
8.717037e+002;3.731983e-002
8.736323e+002;3.732308e-002
8.755608e+002;3.684236e-002
8.774893e+002;3.632041e-002
8.794179e+002;3.580208e-002
8.813464e+002;3.539108e-002
8.832750e+002;3.494998e-002
8.852036e+002;3.480845e-002
8.871321e+002;3.532059e-002
8.890606e+002;3.603735e-002
8.909892e+002;3.738573e-002
8.929177e+002;3.996231e-002
8.948463e+002;4.371030e-002
8.967748e+002;4.864302e-002
8.987034e+002;5.146200e-002
9.006319e+002;5.020163e-002
9.025605e+002;4.618870e-002
9.044890e+002;4.146596e-002
9.064175e+002;3.738465e-002
9.083461e+002;3.500730e-002
9.102747e+002;3.361633e-002
9.122032e+002;3.267415e-002
9.141318e+002;3.194740e-002
9.160603e+002;3.166493e-002
9.179888e+002;3.184278e-002
9.199174e+002;3.210560e-002
9.218459e+002;3.204099e-002
9.237745e+002;3.175732e-002
9.257031e+002;3.139754e-002
9.276316e+002;3.129839e-002
9.295601e+002;3.174606e-002
9.314887e+002;3.247293e-002
9.334172e+002;3.344019e-002
9.353458e+002;3.481131e-002
9.372744e+002;3.614159e-002
9.392029e+002;3.744037e-002
9.411314e+002;3.830197e-002
9.430600e+002;3.850080e-002
9.449885e+002;3.879279e-002
9.469171e+002;3.896191e-002
9.488456e+002;3.905739e-002
9.507742e+002;3.934579e-002
9.527027e+002;4.006248e-002
9.546313e+002;4.131427e-002
9.565598e+002;4.233304e-002
9.584883e+002;4.339067e-002
9.604169e+002;4.518090e-002
9.623455e+002;4.740879e-002
9.642740e+002;5.030970e-002
9.662026e+002;5.484004e-002
9.681311e+002;6.144652e-002
9.700596e+002;6.905165e-002
9.719882e+002;7.518975e-002
9.739167e+002;7.709923e-002
9.758453e+002;7.351012e-002
9.777739e+002;6.645153e-002
9.797024e+002;5.885015e-002
9.816309e+002;5.277142e-002
9.835595e+002;4.829763e-002
9.854880e+002;4.580900e-002
9.874166e+002;4.593907e-002
9.893452e+002;4.778139e-002
9.912737e+002;5.115783e-002
9.932022e+002;5.668971e-002
9.951307e+002;6.352234e-002
9.970593e+002;6.839067e-002
9.989879e+002;6.831940e-002
1.000916e+003;6.407777e-002
1.002845e+003;5.846843e-002
1.004773e+003;5.410833e-002
1.006702e+003;5.145577e-002
1.008631e+003;4.993399e-002
1.010559e+003;4.882851e-002
1.012488e+003;4.778009e-002
1.014416e+003;4.701845e-002
1.016345e+003;4.684133e-002
1.018273e+003;4.660681e-002
1.020202e+003;4.624012e-002
1.022130e+003;4.636028e-002
1.024059e+003;4.678664e-002
1.025988e+003;4.728700e-002
1.027916e+003;4.757142e-002
1.029845e+003;4.836392e-002
1.031773e+003;4.961436e-002
1.033702e+003;5.090934e-002
1.035630e+003;5.200595e-002
1.037559e+003;5.285591e-002
1.039487e+003;5.367286e-002
1.041416e+003;5.442900e-002
1.043344e+003;5.454281e-002
1.045273e+003;5.423194e-002
1.047202e+003;5.305590e-002
1.049130e+003;5.159579e-002
1.051059e+003;5.050044e-002
1.052987e+003;5.002213e-002
1.054916e+003;4.998986e-002
1.056844e+003;5.006240e-002
1.058773e+003;4.972057e-002
1.060701e+003;4.884423e-002
1.062630e+003;4.850228e-002
1.064558e+003;4.898293e-002
1.066487e+003;4.935547e-002
1.068416e+003;4.907710e-002
1.070344e+003;4.918597e-002
1.072273e+003;4.959400e-002
1.074201e+003;4.938543e-002
1.076130e+003;4.919161e-002
1.078058e+003;4.991559e-002
1.079987e+003;5.082694e-002
1.081915e+003;5.123933e-002
1.083844e+003;5.132695e-002
1.085773e+003;5.160855e-002
1.087701e+003;5.193309e-002
1.089630e+003;5.308983e-002
1.091558e+003;5.416775e-002
1.093487e+003;5.497118e-002
1.095415e+003;5.655498e-002
1.097344e+003;5.795166e-002
1.099272e+003;5.831913e-002
1.101201e+003;5.894824e-002
1.103129e+003;5.960868e-002
1.105058e+003;5.920460e-002
1.106987e+003;5.755245e-002
1.108915e+003;5.549188e-002
1.110844e+003;5.355144e-002
1.112772e+003;5.150113e-002
1.114701e+003;5.032074e-002
1.116629e+003;5.030464e-002
1.118558e+003;4.992875e-002
1.120486e+003;4.908438e-002
1.122415e+003;4.829412e-002
1.124344e+003;4.792811e-002
1.126272e+003;4.795423e-002
1.128201e+003;4.810137e-002
1.130129e+003;4.856116e-002
1.132058e+003;4.920604e-002
1.133986e+003;5.026524e-002
1.135915e+003;5.198145e-002
1.137843e+003;5.424827e-002
1.139772e+003;5.711911e-002
1.141700e+003;6.012484e-002
1.143629e+003;6.375977e-002
1.145557e+003;6.719070e-002
1.147486e+003;6.995619e-002
1.149415e+003;7.279954e-002
1.151343e+003;7.553378e-002
1.153272e+003;7.734111e-002
1.155200e+003;7.815975e-002
1.157129e+003;7.818430e-002
1.159057e+003;7.878114e-002
1.160986e+003;7.925778e-002
1.162914e+003;7.976894e-002
1.164843e+003;8.044384e-002
1.166771e+003;7.994480e-002
1.168700e+003;7.818442e-002
1.170629e+003;7.486115e-002
1.172557e+003;7.073839e-002
1.174486e+003;6.634941e-002
1.176414e+003;6.225907e-002
1.178343e+003;5.938764e-002
1.180271e+003;5.743822e-002
1.182200e+003;5.572620e-002
1.184128e+003;5.425709e-002
1.186057e+003;5.346438e-002
1.187986e+003;5.323157e-002
1.189914e+003;5.266215e-002
1.191843e+003;5.196845e-002
1.193771e+003;5.190400e-002
1.195700e+003;5.206747e-002
1.197628e+003;5.216325e-002
1.199557e+003;5.185606e-002
1.201485e+003;5.097794e-002
1.203414e+003;5.016980e-002
1.205343e+003;5.004630e-002
1.207271e+003;5.056216e-002
1.209200e+003;5.155296e-002
1.211128e+003;5.241343e-002
1.213057e+003;5.326802e-002
1.214985e+003;5.406379e-002
1.216914e+003;5.395373e-002
1.218842e+003;5.318408e-002
1.220771e+003;5.250750e-002
1.222699e+003;5.185299e-002
1.224628e+003;5.131203e-002
1.226557e+003;5.089433e-002
1.228485e+003;5.061878e-002
1.230414e+003;5.097734e-002
1.232342e+003;5.132758e-002
1.234271e+003;5.140859e-002
1.236199e+003;5.151859e-002
1.238128e+003;5.153307e-002
1.240056e+003;5.153993e-002
1.241985e+003;5.174630e-002
1.243913e+003;5.201816e-002
1.245842e+003;5.265762e-002
1.247771e+003;5.314225e-002
1.249699e+003;5.372442e-002
1.251628e+003;5.591489e-002
1.253556e+003;5.868847e-002
1.255485e+003;6.019022e-002
1.257413e+003;5.952510e-002
1.259342e+003;5.743074e-002
1.261270e+003;5.515850e-002
1.263199e+003;5.340854e-002
1.265127e+003;5.268261e-002
1.267056e+003;5.199575e-002
1.268985e+003;5.097015e-002
1.270913e+003;5.001440e-002
1.272842e+003;4.951278e-002
1.274770e+003;4.948244e-002
1.276699e+003;4.955066e-002
1.278627e+003;4.946432e-002
1.280556e+003;4.920641e-002
1.282484e+003;4.932121e-002
1.284413e+003;4.964114e-002
1.286342e+003;5.015670e-002
1.288270e+003;5.108489e-002
1.290199e+003;5.194582e-002
1.292127e+003;5.269241e-002
1.294056e+003;5.345283e-002
1.295984e+003;5.361771e-002
1.297913e+003;5.320030e-002
1.299841e+003;5.308163e-002
1.301770e+003;5.366562e-002
1.303698e+003;5.407666e-002
1.305627e+003;5.278990e-002
1.307556e+003;5.035643e-002
1.309484e+003;4.820136e-002
1.311413e+003;4.713485e-002
1.313341e+003;4.712628e-002
1.315270e+003;4.776537e-002
1.317198e+003;4.857313e-002
1.319127e+003;4.955141e-002
1.321055e+003;5.088964e-002
1.322984e+003;5.235923e-002
1.324912e+003;5.395576e-002
1.326841e+003;5.547102e-002
1.328770e+003;5.617448e-002
1.330698e+003;5.618168e-002
1.332627e+003;5.612380e-002
1.334555e+003;5.549816e-002
1.336484e+003;5.425574e-002
1.338412e+003;5.353502e-002
1.340341e+003;5.411873e-002
1.342269e+003;5.586477e-002
1.344198e+003;5.764745e-002
1.346126e+003;5.984055e-002
1.348055e+003;6.266133e-002
1.349984e+003;6.612530e-002
1.351912e+003;7.075068e-002
1.353841e+003;7.639856e-002
1.355769e+003;8.229423e-002
1.357698e+003;8.678212e-002
1.359626e+003;8.792049e-002
1.361555e+003;8.695246e-002
1.363483e+003;8.663891e-002
1.365412e+003;8.888772e-002
1.367341e+003;9.544044e-002
1.369269e+003;1.089053e-001
1.371198e+003;1.290971e-001
1.373126e+003;1.527895e-001
1.375055e+003;1.721114e-001
1.376983e+003;1.729247e-001
1.378912e+003;1.525178e-001
1.380840e+003;1.252220e-001
1.382769e+003;1.016930e-001
1.384698e+003;8.450869e-002
1.386626e+003;7.255704e-002
1.388555e+003;6.525477e-002
1.390483e+003;6.099692e-002
1.392412e+003;5.757716e-002
1.394340e+003;5.476869e-002
1.396269e+003;5.377485e-002
1.398197e+003;5.368523e-002
1.400126e+003;5.400682e-002
1.402054e+003;5.438359e-002
1.403983e+003;5.441871e-002
1.405911e+003;5.490384e-002
1.407840e+003;5.584484e-002
1.409769e+003;5.644585e-002
1.411697e+003;5.720279e-002
1.413626e+003;5.790179e-002
1.415554e+003;5.804792e-002
1.417483e+003;5.722433e-002
1.419411e+003;5.704750e-002
1.421340e+003;5.928876e-002
1.423268e+003;6.129955e-002
1.425197e+003;6.343494e-002
1.427125e+003;6.654931e-002
1.429054e+003;7.115920e-002
1.430983e+003;7.879930e-002
1.432911e+003;8.770217e-002
1.434840e+003;9.252503e-002
1.436768e+003;9.364622e-002
1.438697e+003;9.615352e-002
1.440625e+003;9.959669e-002
1.442554e+003;1.039528e-001
1.444482e+003;1.102639e-001
1.446411e+003;1.184171e-001
1.448340e+003;1.272549e-001
1.450268e+003;1.352470e-001
1.452197e+003;1.406107e-001
1.454125e+003;1.421864e-001
1.456054e+003;1.395677e-001
1.457982e+003;1.386292e-001
1.459911e+003;1.388234e-001
1.461839e+003;1.348173e-001
1.463768e+003;1.268997e-001
1.465697e+003;1.180892e-001
1.467625e+003;1.090093e-001
1.469554e+003;9.790850e-002
1.471482e+003;8.570581e-002
1.473411e+003;7.670631e-002
1.475339e+003;7.125937e-002
1.477268e+003;6.648806e-002
1.479196e+003;6.217767e-002
1.481125e+003;5.773339e-002
1.483053e+003;5.421857e-002
1.484982e+003;5.104207e-002
1.486911e+003;4.780595e-002
1.488839e+003;4.520429e-002
1.490768e+003;4.422495e-002
1.492696e+003;4.400834e-002
1.494625e+003;4.198727e-002
1.496553e+003;3.962735e-002
1.498482e+003;3.947096e-002
1.500410e+003;3.958604e-002
1.502339e+003;3.879160e-002
1.504267e+003;3.530388e-002
1.506196e+003;3.146742e-002
1.508125e+003;3.288983e-002
1.510053e+003;3.519687e-002
1.511982e+003;3.512034e-002
1.513910e+003;3.501089e-002
1.515839e+003;3.434394e-002
1.517767e+003;3.351281e-002
1.519696e+003;3.180737e-002
1.521624e+003;3.060700e-002
1.523553e+003;3.215351e-002
1.525481e+003;3.328459e-002
1.527410e+003;3.408991e-002
1.529339e+003;3.512756e-002
1.531267e+003;3.533982e-002
1.533196e+003;3.473777e-002
1.535124e+003;3.609874e-002
1.537053e+003;3.555410e-002
1.538981e+003;3.262057e-002
1.540910e+003;3.344484e-002
1.542838e+003;3.677531e-002
1.544767e+003;3.887739e-002
1.546695e+003;4.018887e-002
1.548624e+003;3.996481e-002
1.550553e+003;3.925635e-002
1.552481e+003;3.827610e-002
1.554410e+003;3.664244e-002
1.556338e+003;3.412740e-002
1.558267e+003;2.969771e-002
1.560195e+003;3.062040e-002
1.562124e+003;3.471066e-002
1.564052e+003;3.525957e-002
1.565981e+003;3.474821e-002
1.567910e+003;3.381690e-002
1.569838e+003;3.327210e-002
1.571767e+003;3.460606e-002
1.573695e+003;3.400007e-002
1.575624e+003;3.153237e-002
1.577552e+003;3.308473e-002
1.579481e+003;3.537523e-002
1.581409e+003;3.549865e-002
1.583338e+003;3.515979e-002
1.585266e+003;3.464269e-002
1.587195e+003;3.439598e-002
1.589124e+003;3.427739e-002
1.591052e+003;3.472226e-002
1.592981e+003;3.493501e-002
1.594909e+003;3.461589e-002
1.596838e+003;3.445423e-002
1.598766e+003;3.491019e-002
1.600695e+003;3.547927e-002
1.602623e+003;3.611653e-002
1.604552e+003;3.669332e-002
1.606480e+003;3.668625e-002
1.608409e+003;3.675306e-002
1.610338e+003;3.757652e-002
1.612266e+003;3.826814e-002
1.614195e+003;3.788669e-002
1.616123e+003;3.664111e-002
1.618052e+003;3.864221e-002
1.619980e+003;4.122157e-002
1.621909e+003;4.114369e-002
1.623837e+003;4.120493e-002
1.625766e+003;4.244307e-002
1.627694e+003;4.342828e-002
1.629623e+003;4.417139e-002
1.631552e+003;4.436867e-002
1.633480e+003;4.261011e-002
1.635409e+003;4.052604e-002
1.637337e+003;4.232880e-002
1.639266e+003;4.459277e-002
1.641194e+003;4.556447e-002
1.643123e+003;4.566476e-002
1.645051e+003;4.425511e-002
1.646980e+003;4.406503e-002
1.648909e+003;4.570150e-002
1.650837e+003;4.309711e-002
1.652766e+003;3.891762e-002
1.654694e+003;4.273535e-002
1.656623e+003;4.691482e-002
1.658551e+003;4.731423e-002
1.660480e+003;4.677933e-002
1.662408e+003;4.584582e-002
1.664337e+003;4.621734e-002
1.666266e+003;4.614817e-002
1.668194e+003;4.437029e-002
1.670123e+003;4.399279e-002
1.672051e+003;4.461421e-002
1.673980e+003;4.337295e-002
1.675908e+003;4.297243e-002
1.677837e+003;4.403767e-002
1.679765e+003;4.386298e-002
1.681694e+003;4.179581e-002
1.683622e+003;3.791489e-002
1.685551e+003;3.901153e-002
1.687479e+003;4.230780e-002
1.689408e+003;4.283996e-002
1.691337e+003;4.306678e-002
1.693265e+003;4.206575e-002
1.695194e+003;3.931685e-002
1.697122e+003;4.003377e-002
1.699051e+003;4.013871e-002
1.700979e+003;4.113903e-002
1.702908e+003;4.513722e-002
1.704836e+003;4.647451e-002
1.706765e+003;4.768815e-002
1.708693e+003;4.894024e-002
1.710622e+003;4.964771e-002
1.712551e+003;4.937689e-002
1.714479e+003;4.787239e-002
1.716408e+003;4.571497e-002
1.718336e+003;4.656723e-002
1.720265e+003;4.961038e-002
1.722193e+003;5.064860e-002
1.724122e+003;5.072683e-002
1.726050e+003;5.110110e-002
1.727979e+003;5.149211e-002
1.729908e+003;5.213366e-002
1.731836e+003;5.146316e-002
1.733765e+003;5.060109e-002
1.735693e+003;5.450145e-002
1.737622e+003;5.773702e-002
1.739550e+003;5.779898e-002
1.741479e+003;5.796839e-002
1.743407e+003;5.708994e-002
1.745336e+003;5.480914e-002
1.747265e+003;5.162019e-002
1.749193e+003;4.742073e-002
1.751122e+003;4.327103e-002
1.753050e+003;4.074562e-002
1.754979e+003;3.727311e-002
1.756907e+003;3.320546e-002
1.758836e+003;3.012363e-002
1.760764e+003;2.695605e-002
1.762693e+003;2.507310e-002
1.764621e+003;2.437430e-002
1.766550e+003;2.251572e-002
1.768479e+003;2.085977e-002
1.770407e+003;1.938424e-002
1.772336e+003;1.800445e-002
1.774264e+003;1.869141e-002
1.776193e+003;1.946542e-002
1.778121e+003;1.914445e-002
1.780050e+003;1.844191e-002
1.781978e+003;1.787652e-002
1.783907e+003;1.707011e-002
1.785835e+003;1.638588e-002
1.787764e+003;1.596269e-002
1.789693e+003;1.501345e-002
1.791621e+003;1.334305e-002
1.793550e+003;1.291210e-002
1.795478e+003;1.340832e-002
1.797407e+003;1.316385e-002
1.799335e+003;1.253662e-002
1.801264e+003;1.205826e-002
1.803192e+003;1.189491e-002
1.805121e+003;1.153946e-002
1.807049e+003;1.121273e-002
1.808978e+003;1.080858e-002
1.810907e+003;1.071348e-002
1.812835e+003;1.080233e-002
1.814764e+003;1.053950e-002
1.816692e+003;1.028628e-002
1.818621e+003;1.036185e-002
1.820549e+003;1.057144e-002
1.822478e+003;1.031404e-002
1.824406e+003;9.597884e-003
1.826335e+003;9.750820e-003
1.828264e+003;9.550055e-003
1.830192e+003;9.295964e-003
1.832121e+003;9.758546e-003
1.834049e+003;9.935336e-003
1.835978e+003;1.002929e-002
1.837906e+003;1.015364e-002
1.839835e+003;1.021647e-002
1.841763e+003;9.470806e-003
1.843692e+003;8.052067e-003
1.845620e+003;8.295131e-003
1.847549e+003;9.172189e-003
1.849478e+003;9.579558e-003
1.851406e+003;9.554899e-003
1.853335e+003;9.658082e-003
1.855263e+003;9.780471e-003
1.857192e+003;9.688947e-003
1.859120e+003;9.773694e-003
1.861049e+003;9.528921e-003
1.862977e+003;9.156419e-003
1.864906e+003;8.891329e-003
1.866834e+003;8.221310e-003
1.868763e+003;7.785290e-003
1.870692e+003;8.537588e-003
1.872620e+003;9.179025e-003
1.874549e+003;9.322741e-003
1.876477e+003;9.539589e-003
1.878406e+003;9.441785e-003
1.880334e+003;9.042190e-003
1.882263e+003;8.902219e-003
1.884191e+003;9.102380e-003
1.886120e+003;9.090605e-003
1.888048e+003;8.724192e-003
1.889977e+003;8.878512e-003
1.891906e+003;9.635858e-003
1.893834e+003;9.786605e-003
1.895763e+003;9.564687e-003
1.897691e+003;9.318205e-003
1.899620e+003;9.153948e-003
1.901548e+003;9.172730e-003
1.903477e+003;9.301651e-003
1.905405e+003;9.027136e-003
1.907334e+003;8.638063e-003
1.909262e+003;8.590543e-003
1.911191e+003;8.905737e-003
1.913120e+003;9.069933e-003
1.915048e+003;9.072673e-003
1.916977e+003;8.452677e-003
1.918905e+003;8.274530e-003
1.920834e+003;8.542048e-003
1.922762e+003;8.468320e-003
1.924691e+003;8.654219e-003
1.926619e+003;8.878884e-003
1.928548e+003;8.779064e-003
1.930477e+003;8.541913e-003
1.932405e+003;8.303034e-003
1.934334e+003;8.240996e-003
1.936262e+003;8.326845e-003
1.938191e+003;8.121911e-003
1.940119e+003;7.754492e-003
1.942048e+003;7.624580e-003
1.943976e+003;7.984261e-003
1.945905e+003;8.248730e-003
1.947833e+003;8.350691e-003
1.949762e+003;8.279934e-003
1.951691e+003;8.233061e-003
1.953619e+003;8.290336e-003
1.955548e+003;8.288106e-003
1.957476e+003;8.178934e-003
1.959405e+003;8.097165e-003
1.961333e+003;7.972718e-003
1.963262e+003;7.817573e-003
1.965190e+003;7.692533e-003
1.967119e+003;7.703359e-003
1.969047e+003;7.659044e-003
1.970976e+003;7.630245e-003
1.972905e+003;7.589343e-003
1.974833e+003;7.695163e-003
1.976762e+003;7.784615e-003
1.978690e+003;7.772639e-003
1.980619e+003;8.029689e-003
1.982547e+003;8.083595e-003
1.984476e+003;8.061856e-003
1.986404e+003;8.014535e-003
1.988333e+003;7.908670e-003
1.990261e+003;7.812783e-003
1.992190e+003;7.683663e-003
1.994119e+003;7.889201e-003
1.996047e+003;8.141626e-003
1.997976e+003;8.176874e-003
1.999904e+003;8.157224e-003
2.001833e+003;7.974136e-003
2.003761e+003;7.884241e-003
2.005690e+003;7.857822e-003
2.007618e+003;7.709632e-003
2.009547e+003;7.683797e-003
2.011476e+003;7.824320e-003
2.013404e+003;7.865144e-003
2.015333e+003;7.916093e-003
2.017261e+003;8.139735e-003
2.019190e+003;8.067055e-003
2.021118e+003;7.975453e-003
2.023047e+003;8.303203e-003
2.024975e+003;8.309823e-003
2.026904e+003;8.226881e-003
2.028833e+003;7.974642e-003
2.030761e+003;7.915081e-003
2.032690e+003;8.266763e-003
2.034618e+003;8.452373e-003
2.036547e+003;8.406292e-003
2.038475e+003;8.397610e-003
2.040404e+003;8.433048e-003
2.042332e+003;8.267505e-003
2.044261e+003;8.188152e-003
2.046189e+003;8.576923e-003
2.048118e+003;8.933166e-003
2.050047e+003;8.789917e-003
2.051975e+003;8.669260e-003
2.053904e+003;8.512245e-003
2.055832e+003;8.227151e-003
2.057761e+003;8.283514e-003
2.059689e+003;8.400854e-003
2.061618e+003;8.400516e-003
2.063546e+003;8.165225e-003
2.065475e+003;8.151856e-003
2.067404e+003;8.422913e-003
2.069332e+003;8.570840e-003
2.071260e+003;8.554484e-003
2.073189e+003;8.741332e-003
2.075118e+003;8.746201e-003
2.077046e+003;8.349407e-003
2.078975e+003;8.410379e-003
2.080903e+003;8.909998e-003
2.082832e+003;9.324400e-003
2.084760e+003;9.483843e-003
2.086689e+003;9.663233e-003
2.088617e+003;9.468807e-003
2.090546e+003;9.266075e-003
2.092475e+003;9.409447e-003
2.094403e+003;9.498676e-003
2.096332e+003;9.484555e-003
2.098260e+003;9.509175e-003
2.100189e+003;9.307947e-003
2.102117e+003;9.278734e-003
2.104046e+003;9.738417e-003
2.105974e+003;9.850762e-003
2.107903e+003;9.681968e-003
2.109832e+003;9.458309e-003
2.111760e+003;9.402641e-003
2.113688e+003;9.652764e-003
2.115617e+003;9.912149e-003
2.117546e+003;9.819818e-003
2.119474e+003;9.889606e-003
2.121403e+003;1.021290e-002
2.123331e+003;1.077122e-002
2.125260e+003;1.096990e-002
2.127188e+003;1.107556e-002
2.129117e+003;1.157798e-002
2.131045e+003;1.184107e-002
2.132974e+003;1.177635e-002
2.134903e+003;1.147417e-002
2.136831e+003;1.113692e-002
2.138760e+003;1.110958e-002
2.140688e+003;1.129743e-002
2.142617e+003;1.138919e-002
2.144545e+003;1.125642e-002
2.146474e+003;1.116112e-002
2.148402e+003;1.114524e-002
2.150331e+003;1.144611e-002
2.152260e+003;1.178047e-002
2.154188e+003;1.172015e-002
2.156117e+003;1.147162e-002
2.158045e+003;1.176607e-002
2.159974e+003;1.222151e-002
2.161902e+003;1.228688e-002
2.163831e+003;1.238168e-002
2.165759e+003;1.242934e-002
2.167688e+003;1.261620e-002
2.169616e+003;1.309234e-002
2.171545e+003;1.359423e-002
2.173474e+003;1.397244e-002
2.175402e+003;1.384551e-002
2.177331e+003;1.354968e-002
2.179259e+003;1.343163e-002
2.181188e+003;1.325211e-002
2.183116e+003;1.304907e-002
2.185045e+003;1.331039e-002
2.186973e+003;1.358715e-002
2.188902e+003;1.340070e-002
2.190831e+003;1.302254e-002
2.192759e+003;1.295286e-002
2.194688e+003;1.305276e-002
2.196616e+003;1.315910e-002
2.198545e+003;1.311573e-002
2.200473e+003;1.291699e-002
2.202402e+003;1.267228e-002
2.204330e+003;1.259273e-002
2.206259e+003;1.263236e-002
2.208188e+003;1.260729e-002
2.210116e+003;1.247534e-002
2.212044e+003;1.226680e-002
2.213973e+003;1.231405e-002
2.215902e+003;1.235175e-002
2.217830e+003;1.244274e-002
2.219759e+003;1.246044e-002
2.221687e+003;1.245219e-002
2.223616e+003;1.260579e-002
2.225544e+003;1.284596e-002
2.227473e+003;1.313352e-002
2.229401e+003;1.319493e-002
2.231330e+003;1.306034e-002
2.233259e+003;1.297283e-002
2.235187e+003;1.288121e-002
2.237116e+003;1.293982e-002
2.239044e+003;1.313956e-002
2.240973e+003;1.319500e-002
2.242901e+003;1.283299e-002
2.244830e+003;1.261603e-002
2.246758e+003;1.288016e-002
2.248687e+003;1.320958e-002
2.250615e+003;1.333424e-002
2.252544e+003;1.332857e-002
2.254473e+003;1.359375e-002
2.256401e+003;1.404954e-002
2.258330e+003;1.401583e-002
2.260258e+003;1.370005e-002
2.262187e+003;1.363071e-002
2.264115e+003;1.367150e-002
2.266044e+003;1.369174e-002
2.267972e+003;1.360339e-002
2.269901e+003;1.333257e-002
2.271830e+003;1.300632e-002
2.273758e+003;1.266945e-002
2.275687e+003;1.266627e-002
2.277615e+003;1.290681e-002
2.279544e+003;1.271475e-002
2.281472e+003;1.240643e-002
2.283401e+003;1.239375e-002
2.285329e+003;1.262987e-002
2.287258e+003;1.272113e-002
2.289187e+003;1.244987e-002
2.291115e+003;1.246596e-002
2.293043e+003;1.259935e-002
2.294972e+003;1.247981e-002
2.296901e+003;1.238212e-002
2.298829e+003;1.232437e-002
2.300758e+003;1.230634e-002
2.302686e+003;1.239443e-002
2.304615e+003;1.248803e-002
2.306543e+003;1.239914e-002
2.308472e+003;1.244005e-002
2.310400e+003;1.267252e-002
2.312329e+003;1.274014e-002
2.314258e+003;1.268930e-002
2.316186e+003;1.270680e-002
2.318115e+003;1.251473e-002
2.320043e+003;1.241536e-002
2.321972e+003;1.255098e-002
2.323900e+003;1.300380e-002
2.325829e+003;1.342848e-002
2.327757e+003;1.380802e-002
2.329686e+003;1.415242e-002
2.331615e+003;1.412316e-002
2.333543e+003;1.420672e-002
2.335472e+003;1.438917e-002
2.337400e+003;1.423866e-002
2.339329e+003;1.406169e-002
2.341257e+003;1.444510e-002
2.343186e+003;1.488779e-002
2.345114e+003;1.482594e-002
2.347043e+003;1.467748e-002
2.348971e+003;1.466017e-002
2.350900e+003;1.467703e-002
2.352829e+003;1.497809e-002
2.354757e+003;1.531072e-002
2.356686e+003;1.544258e-002
2.358614e+003;1.540855e-002
2.360543e+003;1.529205e-002
2.362471e+003;1.535778e-002
2.364400e+003;1.539444e-002
2.366328e+003;1.562716e-002
2.368257e+003;1.580054e-002
2.370186e+003;1.572966e-002
2.372114e+003;1.562819e-002
2.374042e+003;1.584120e-002
2.375971e+003;1.600477e-002
2.377900e+003;1.595991e-002
2.379828e+003;1.601391e-002
2.381757e+003;1.602368e-002
2.383685e+003;1.612105e-002
2.385614e+003;1.605954e-002
2.387542e+003;1.574674e-002
2.389471e+003;1.587295e-002
2.391399e+003;1.616204e-002
2.393328e+003;1.618502e-002
2.395257e+003;1.647177e-002
2.397185e+003;1.677032e-002
2.399114e+003;1.679388e-002
2.401042e+003;1.671426e-002
2.402971e+003;1.674852e-002
2.404899e+003;1.663493e-002
2.406828e+003;1.644916e-002
2.408756e+003;1.631741e-002
2.410685e+003;1.641637e-002
2.412614e+003;1.649125e-002
2.414542e+003;1.642332e-002
2.416471e+003;1.656484e-002
2.418399e+003;1.664247e-002
2.420328e+003;1.689666e-002
2.422256e+003;1.707397e-002
2.424185e+003;1.701952e-002
2.426113e+003;1.732806e-002
2.428042e+003;1.743315e-002
2.429970e+003;1.707162e-002
2.431899e+003;1.700663e-002
2.433828e+003;1.693989e-002
2.435756e+003;1.664360e-002
2.437685e+003;1.636475e-002
2.439613e+003;1.616775e-002
2.441542e+003;1.604132e-002
2.443470e+003;1.590639e-002
2.445399e+003;1.588055e-002
2.447327e+003;1.598249e-002
2.449256e+003;1.597404e-002
2.451185e+003;1.605411e-002
2.453113e+003;1.599071e-002
2.455042e+003;1.592241e-002
2.456970e+003;1.594716e-002
2.458899e+003;1.585322e-002
2.460827e+003;1.591179e-002
2.462756e+003;1.596665e-002
2.464684e+003;1.586381e-002
2.466613e+003;1.577436e-002
2.468542e+003;1.588161e-002
2.470470e+003;1.580683e-002
2.472398e+003;1.577065e-002
2.474327e+003;1.585054e-002
2.476256e+003;1.564045e-002
2.478184e+003;1.609423e-002
2.480113e+003;1.673674e-002
2.482041e+003;1.688467e-002
2.483970e+003;1.683304e-002
2.485898e+003;1.678289e-002
2.487827e+003;1.691650e-002
2.489755e+003;1.689135e-002
2.491684e+003;1.678596e-002
2.493613e+003;1.664374e-002
2.495541e+003;1.665076e-002
2.497470e+003;1.662635e-002
2.499398e+003;1.669749e-002
2.501327e+003;1.692604e-002
2.503255e+003;1.692480e-002
2.505184e+003;1.686686e-002
2.507112e+003;1.695150e-002
2.509041e+003;1.734624e-002
2.510969e+003;1.779528e-002
2.512898e+003;1.782756e-002
2.514827e+003;1.773822e-002
2.516755e+003;1.800231e-002
2.518684e+003;1.843292e-002
2.520612e+003;1.879624e-002
2.522541e+003;1.887468e-002
2.524469e+003;1.912665e-002
2.526398e+003;1.956613e-002
2.528326e+003;1.982187e-002
2.530255e+003;2.012252e-002
2.532184e+003;2.062351e-002
2.534112e+003;2.081718e-002
2.536041e+003;2.076863e-002
2.537969e+003;2.086286e-002
2.539898e+003;2.092183e-002
2.541826e+003;2.122129e-002
2.543755e+003;2.138900e-002
2.545683e+003;2.149242e-002
2.547612e+003;2.193891e-002
2.549541e+003;2.256071e-002
2.551469e+003;2.299649e-002
2.553397e+003;2.343946e-002
2.555326e+003;2.405550e-002
2.557255e+003;2.420867e-002
2.559183e+003;2.417097e-002
2.561112e+003;2.445688e-002
2.563040e+003;2.464863e-002
2.564969e+003;2.500817e-002
2.566897e+003;2.561716e-002
2.568826e+003;2.606798e-002
2.570754e+003;2.668516e-002
2.572683e+003;2.752916e-002
2.574612e+003;2.823118e-002
2.576540e+003;2.864915e-002
2.578469e+003;2.947166e-002
2.580397e+003;2.989534e-002
2.582326e+003;2.971691e-002
2.584254e+003;2.943446e-002
2.586183e+003;2.875120e-002
2.588111e+003;2.791059e-002
2.590040e+003;2.744162e-002
2.591969e+003;2.709914e-002
2.593897e+003;2.673452e-002
2.595826e+003;2.659979e-002
2.597754e+003;2.640285e-002
2.599683e+003;2.659831e-002
2.601611e+003;2.688727e-002
2.603540e+003;2.710633e-002
2.605468e+003;2.762660e-002
2.607397e+003;2.814576e-002
2.609325e+003;2.843515e-002
2.611254e+003;2.850732e-002
2.613183e+003;2.855445e-002
2.615111e+003;2.875234e-002
2.617040e+003;2.893760e-002
2.618968e+003;2.882081e-002
2.620897e+003;2.883865e-002
2.622825e+003;2.885084e-002
2.624754e+003;2.858336e-002
2.626682e+003;2.826976e-002
2.628611e+003;2.811447e-002
2.630540e+003;2.780319e-002
2.632468e+003;2.783180e-002
2.634396e+003;2.804194e-002
2.636325e+003;2.811900e-002
2.638254e+003;2.796462e-002
2.640182e+003;2.826994e-002
2.642111e+003;2.896987e-002
2.644039e+003;2.951276e-002
2.645968e+003;2.981616e-002
2.647896e+003;3.001923e-002
2.649825e+003;3.016377e-002
2.651753e+003;3.059807e-002
2.653682e+003;3.118288e-002
2.655611e+003;3.160385e-002
2.657539e+003;3.179472e-002
2.659468e+003;3.193092e-002
2.661396e+003;3.216664e-002
2.663325e+003;3.221507e-002
2.665253e+003;3.187316e-002
2.667182e+003;3.176110e-002
2.669110e+003;3.177711e-002
2.671039e+003;3.178424e-002
2.672968e+003;3.211216e-002
2.674896e+003;3.257821e-002
2.676825e+003;3.271220e-002
2.678753e+003;3.277036e-002
2.680682e+003;3.295477e-002
2.682610e+003;3.301297e-002
2.684539e+003;3.304225e-002
2.686467e+003;3.301980e-002
2.688396e+003;3.297340e-002
2.690324e+003;3.305423e-002
2.692253e+003;3.336465e-002
2.694182e+003;3.311259e-002
2.696110e+003;3.286924e-002
2.698039e+003;3.313898e-002
2.699967e+003;3.345601e-002
2.701896e+003;3.394568e-002
2.703824e+003;3.494880e-002
2.705753e+003;3.595650e-002
2.707681e+003;3.673027e-002
2.709610e+003;3.759758e-002
2.711539e+003;3.836574e-002
2.713467e+003;3.943791e-002
2.715396e+003;4.086810e-002
2.717324e+003;4.240913e-002
2.719253e+003;4.409473e-002
2.721181e+003;4.518263e-002
2.723110e+003;4.542378e-002
2.725038e+003;4.503044e-002
2.726967e+003;4.423867e-002
2.728896e+003;4.319753e-002
2.730824e+003;4.181880e-002
2.732752e+003;4.056893e-002
2.734681e+003;3.966841e-002
2.736610e+003;3.865384e-002
2.738538e+003;3.776280e-002
2.740467e+003;3.694379e-002
2.742395e+003;3.601107e-002
2.744324e+003;3.509462e-002
2.746252e+003;3.482043e-002
2.748181e+003;3.497358e-002
2.750109e+003;3.515835e-002
2.752038e+003;3.514796e-002
2.753967e+003;3.503675e-002
2.755895e+003;3.499926e-002
2.757824e+003;3.498930e-002
2.759752e+003;3.538385e-002
2.761681e+003;3.608243e-002
2.763609e+003;3.651657e-002
2.765538e+003;3.666963e-002
2.767466e+003;3.684989e-002
2.769395e+003;3.727232e-002
2.771323e+003;3.788155e-002
2.773252e+003;3.852495e-002
2.775181e+003;3.933429e-002
2.777109e+003;4.014616e-002
2.779038e+003;4.092220e-002
2.780966e+003;4.185152e-002
2.782895e+003;4.301911e-002
2.784823e+003;4.444802e-002
2.786752e+003;4.584582e-002
2.788680e+003;4.746592e-002
2.790609e+003;4.926367e-002
2.792538e+003;5.067872e-002
2.794466e+003;5.178628e-002
2.796395e+003;5.236375e-002
2.798323e+003;5.326970e-002
2.800252e+003;5.487011e-002
2.802180e+003;5.671474e-002
2.804109e+003;5.863909e-002
2.806037e+003;6.049427e-002
2.807966e+003;6.233078e-002
2.809895e+003;6.391180e-002
2.811823e+003;6.542990e-002
2.813751e+003;6.697930e-002
2.815680e+003;6.873135e-002
2.817609e+003;7.042295e-002
2.819537e+003;7.212040e-002
2.821466e+003;7.451690e-002
2.823394e+003;7.749566e-002
2.825323e+003;8.154044e-002
2.827251e+003;8.700436e-002
2.829180e+003;9.342348e-002
2.831108e+003;1.008194e-001
2.833037e+003;1.092074e-001
2.834966e+003;1.167892e-001
2.836894e+003;1.206852e-001
2.838823e+003;1.202665e-001
2.840751e+003;1.173935e-001
2.842680e+003;1.136865e-001
2.844608e+003;1.098872e-001
2.846537e+003;1.062541e-001
2.848465e+003;1.040628e-001
2.850394e+003;1.033619e-001
2.852323e+003;1.029210e-001
2.854251e+003;1.026411e-001
2.856180e+003;1.033489e-001
2.858108e+003;1.058219e-001
2.860037e+003;1.103133e-001
2.861965e+003;1.165695e-001
2.863894e+003;1.231180e-001
2.865822e+003;1.281978e-001
2.867751e+003;1.306239e-001
2.869679e+003;1.308055e-001
2.871608e+003;1.300550e-001
2.873536e+003;1.294041e-001
2.875465e+003;1.288071e-001
2.877394e+003;1.278561e-001
2.879322e+003;1.263020e-001
2.881251e+003;1.248972e-001
2.883179e+003;1.240344e-001
2.885108e+003;1.238863e-001
2.887036e+003;1.242586e-001
2.888965e+003;1.253109e-001
2.890893e+003;1.278562e-001
2.892822e+003;1.312720e-001
2.894750e+003;1.348675e-001
2.896679e+003;1.389459e-001
2.898608e+003;1.435675e-001
2.900536e+003;1.490794e-001
2.902465e+003;1.549828e-001
2.904393e+003;1.608498e-001
2.906322e+003;1.663292e-001
2.908250e+003;1.719502e-001
2.910179e+003;1.771363e-001
2.912107e+003;1.816698e-001
2.914036e+003;1.858852e-001
2.915965e+003;1.879092e-001
2.917893e+003;1.869572e-001
2.919822e+003;1.844431e-001
2.921750e+003;1.807773e-001
2.923679e+003;1.751853e-001
2.925607e+003;1.687034e-001
2.927536e+003;1.614689e-001
2.929464e+003;1.529720e-001
2.931393e+003;1.445397e-001
2.933322e+003;1.370438e-001
2.935250e+003;1.303152e-001
2.937178e+003;1.248810e-001
2.939107e+003;1.223107e-001
2.941036e+003;1.235591e-001
2.942964e+003;1.282067e-001
2.944893e+003;1.354537e-001
2.946821e+003;1.433755e-001
2.948750e+003;1.493469e-001
2.950678e+003;1.519048e-001
2.952607e+003;1.507020e-001
2.954535e+003;1.472090e-001
2.956464e+003;1.427823e-001
2.958393e+003;1.376039e-001
2.960321e+003;1.317614e-001
2.962250e+003;1.248331e-001
2.964178e+003;1.172404e-001
2.966107e+003;1.100676e-001
2.968035e+003;1.028967e-001
2.969964e+003;9.569190e-002
2.971892e+003;8.913895e-002
2.973821e+003;8.351742e-002
2.975750e+003;7.870059e-002
2.977678e+003;7.488524e-002
2.979607e+003;7.162257e-002
2.981535e+003;6.852893e-002
2.983464e+003;6.596953e-002
2.985392e+003;6.348483e-002
2.987321e+003;6.125182e-002
2.989249e+003;5.944789e-002
2.991178e+003;5.796286e-002
2.993106e+003;5.649301e-002
2.995035e+003;5.491042e-002
2.996964e+003;5.338314e-002
2.998892e+003;5.178348e-002
3.000821e+003;5.016901e-002
3.002749e+003;4.831797e-002
3.004678e+003;4.657605e-002
3.006606e+003;4.536389e-002
3.008535e+003;4.431080e-002
3.010463e+003;4.317180e-002
3.012392e+003;4.197632e-002
3.014321e+003;4.088797e-002
3.016249e+003;3.981147e-002
3.018177e+003;3.855015e-002
3.020106e+003;3.757345e-002
3.022035e+003;3.658480e-002
3.023963e+003;3.557103e-002
3.025892e+003;3.492283e-002
3.027820e+003;3.443066e-002
3.029749e+003;3.350511e-002
3.031677e+003;3.293640e-002
3.033606e+003;3.258996e-002
3.035534e+003;3.225254e-002
3.037463e+003;3.190314e-002
3.039392e+003;3.156932e-002
3.041320e+003;3.109688e-002
3.043249e+003;3.063974e-002
3.045177e+003;3.021172e-002
3.047106e+003;2.993002e-002
3.049034e+003;2.977900e-002
3.050963e+003;2.985257e-002
3.052891e+003;2.967738e-002
3.054820e+003;2.921075e-002
3.056749e+003;2.888795e-002
3.058677e+003;2.856761e-002
3.060606e+003;2.829105e-002
3.062534e+003;2.842849e-002
3.064463e+003;2.861033e-002
3.066391e+003;2.861210e-002
3.068320e+003;2.819759e-002
3.070248e+003;2.783473e-002
3.072177e+003;2.769984e-002
3.074105e+003;2.776716e-002
3.076034e+003;2.758928e-002
3.077963e+003;2.743720e-002
3.079891e+003;2.725124e-002
3.081820e+003;2.691339e-002
3.083748e+003;2.713677e-002
3.085677e+003;2.743674e-002
3.087605e+003;2.750815e-002
3.089534e+003;2.751782e-002
3.091462e+003;2.725191e-002
3.093391e+003;2.672268e-002
3.095320e+003;2.649648e-002
3.097248e+003;2.662597e-002
3.099177e+003;2.684486e-002
3.101105e+003;2.702783e-002
3.103034e+003;2.698326e-002
3.104962e+003;2.732904e-002
3.106891e+003;2.753780e-002
3.108819e+003;2.698958e-002
3.110748e+003;2.637514e-002
3.112677e+003;2.651040e-002
3.114605e+003;2.681216e-002
3.116533e+003;2.715017e-002
3.118462e+003;2.727996e-002
3.120391e+003;2.692213e-002
3.122319e+003;2.689446e-002
3.124248e+003;2.682848e-002
3.126176e+003;2.690444e-002
3.128105e+003;2.758476e-002
3.130033e+003;2.775660e-002
3.131962e+003;2.797084e-002
3.133890e+003;2.847608e-002
3.135819e+003;2.863450e-002
3.137748e+003;2.878569e-002
3.139676e+003;2.906583e-002
3.141605e+003;2.894766e-002
3.143533e+003;2.878211e-002
3.145462e+003;2.903887e-002
3.147390e+003;2.931081e-002
3.149319e+003;2.940454e-002
3.151247e+003;2.935650e-002
3.153176e+003;2.901503e-002
3.155104e+003;2.878898e-002
3.157033e+003;2.896356e-002
3.158962e+003;2.918725e-002
3.160890e+003;2.937246e-002
3.162819e+003;2.958898e-002
3.164747e+003;2.971691e-002
3.166676e+003;2.997734e-002
3.168604e+003;2.994457e-002
3.170533e+003;3.001355e-002
3.172461e+003;3.017361e-002
3.174390e+003;3.015460e-002
3.176319e+003;3.018373e-002
3.178247e+003;3.025275e-002
3.180176e+003;3.060622e-002
3.182104e+003;3.057223e-002
3.184033e+003;3.058240e-002
3.185961e+003;3.060806e-002
3.187890e+003;3.037191e-002
3.189818e+003;3.049313e-002
3.191747e+003;3.093343e-002
3.193676e+003;3.080550e-002
3.195604e+003;3.050149e-002
3.197532e+003;3.078299e-002
3.199461e+003;3.108777e-002
3.201390e+003;3.113465e-002
3.203318e+003;3.120969e-002
3.205247e+003;3.126829e-002
3.207175e+003;3.110617e-002
3.209104e+003;3.103680e-002
3.211032e+003;3.112835e-002
3.212961e+003;3.103780e-002
3.214889e+003;3.090945e-002
3.216818e+003;3.078530e-002
3.218747e+003;3.055211e-002
3.220675e+003;3.032373e-002
3.222604e+003;3.038268e-002
3.224532e+003;3.040308e-002
3.226461e+003;3.024649e-002
3.228389e+003;2.980753e-002
3.230318e+003;2.964765e-002
3.232246e+003;2.943649e-002
3.234175e+003;2.888543e-002
3.236104e+003;2.870954e-002
3.238032e+003;2.902052e-002
3.239961e+003;2.932151e-002
3.241889e+003;2.923457e-002
3.243818e+003;2.902853e-002
3.245746e+003;2.877305e-002
3.247675e+003;2.856432e-002
3.249603e+003;2.872207e-002
3.251532e+003;2.873775e-002
3.253460e+003;2.898421e-002
3.255389e+003;2.917584e-002
3.257318e+003;2.910002e-002
3.259246e+003;2.876455e-002
3.261175e+003;2.844052e-002
3.263103e+003;2.887088e-002
3.265032e+003;2.952876e-002
3.266960e+003;2.918034e-002
3.268889e+003;2.834466e-002
3.270817e+003;2.848163e-002
3.272746e+003;2.874540e-002
3.274675e+003;2.900323e-002
3.276603e+003;2.943468e-002
3.278531e+003;2.960856e-002
3.280460e+003;2.936721e-002
3.282389e+003;2.900182e-002
3.284317e+003;2.951514e-002
3.286246e+003;3.008368e-002
3.288174e+003;2.985115e-002
3.290103e+003;2.963258e-002
3.292031e+003;2.958111e-002
3.293960e+003;2.967997e-002
3.295888e+003;2.970247e-002
3.297817e+003;2.950656e-002
3.299746e+003;2.928699e-002
3.301674e+003;2.937529e-002
3.303603e+003;2.933863e-002
3.305531e+003;2.944361e-002
3.307460e+003;2.965571e-002
3.309388e+003;2.960633e-002
3.311317e+003;2.931648e-002
3.313245e+003;2.904787e-002
3.315174e+003;2.906802e-002
3.317103e+003;2.922386e-002
3.319031e+003;2.903859e-002
3.320960e+003;2.901903e-002
3.322888e+003;2.907050e-002
3.324817e+003;2.883094e-002
3.326745e+003;2.885105e-002
3.328674e+003;2.923191e-002
3.330602e+003;2.917361e-002
3.332531e+003;2.896636e-002
3.334459e+003;2.886164e-002
3.336388e+003;2.896590e-002
3.338317e+003;2.944677e-002
3.340245e+003;2.957110e-002
3.342174e+003;2.913187e-002
3.344102e+003;2.874427e-002
3.346031e+003;2.849193e-002
3.347959e+003;2.829232e-002
3.349888e+003;2.856645e-002
3.351816e+003;2.886281e-002
3.353745e+003;2.889531e-002
3.355674e+003;2.890300e-002
3.357602e+003;2.901811e-002
3.359531e+003;2.919537e-002
3.361459e+003;2.869874e-002
3.363388e+003;2.836617e-002
3.365316e+003;2.848659e-002
3.367245e+003;2.820045e-002
3.369173e+003;2.802367e-002
3.371102e+003;2.794575e-002
3.373031e+003;2.817496e-002
3.374959e+003;2.798487e-002
3.376887e+003;2.736739e-002
3.378816e+003;2.708168e-002
3.380745e+003;2.710545e-002
3.382673e+003;2.698549e-002
3.384602e+003;2.705238e-002
3.386530e+003;2.730600e-002
3.388459e+003;2.742926e-002
3.390387e+003;2.714612e-002
3.392316e+003;2.690479e-002
3.394244e+003;2.693010e-002
3.396173e+003;2.672050e-002
3.398102e+003;2.639454e-002
3.400030e+003;2.654717e-002
3.401959e+003;2.686020e-002
3.403887e+003;2.681914e-002
3.405816e+003;2.670003e-002
3.407744e+003;2.680038e-002
3.409673e+003;2.666039e-002
3.411601e+003;2.623580e-002
3.413530e+003;2.604181e-002
3.415458e+003;2.604919e-002
3.417387e+003;2.613607e-002
3.419316e+003;2.583175e-002
3.421244e+003;2.587764e-002
3.423173e+003;2.566067e-002
3.425101e+003;2.520265e-002
3.427030e+003;2.522534e-002
3.428958e+003;2.517874e-002
3.430887e+003;2.493552e-002
3.432815e+003;2.428785e-002
3.434744e+003;2.396886e-002
3.436673e+003;2.430173e-002
3.438601e+003;2.432030e-002
3.440530e+003;2.424721e-002
3.442458e+003;2.382739e-002
3.444387e+003;2.344362e-002
3.446315e+003;2.283379e-002
3.448244e+003;2.285296e-002
3.450172e+003;2.308059e-002
3.452101e+003;2.271074e-002
3.454030e+003;2.235840e-002
3.455958e+003;2.230451e-002
3.457886e+003;2.233304e-002
3.459815e+003;2.244004e-002
3.461744e+003;2.230670e-002
3.463672e+003;2.197313e-002
3.465601e+003;2.184074e-002
3.467529e+003;2.162477e-002
3.469458e+003;2.122968e-002
3.471386e+003;2.113157e-002
3.473315e+003;2.094780e-002
3.475243e+003;2.089391e-002
3.477172e+003;2.080380e-002
3.479101e+003;2.035601e-002
3.481029e+003;2.009920e-002
3.482958e+003;1.991743e-002
3.484886e+003;1.973289e-002
3.486815e+003;1.978500e-002
3.488743e+003;1.958911e-002
3.490672e+003;1.924657e-002
3.492600e+003;1.944927e-002
3.494529e+003;1.926562e-002
3.496458e+003;1.887800e-002
3.498386e+003;1.880253e-002
3.500315e+003;1.839182e-002
3.502243e+003;1.771220e-002
3.504172e+003;1.740062e-002
3.506100e+003;1.779815e-002
3.508029e+003;1.814079e-002
3.509957e+003;1.797054e-002
3.511886e+003;1.778016e-002
3.513814e+003;1.762023e-002
3.515743e+003;1.745460e-002
3.517672e+003;1.776301e-002
3.519600e+003;1.778009e-002
3.521529e+003;1.708406e-002
3.523457e+003;1.652264e-002
3.525386e+003;1.667535e-002
3.527314e+003;1.678007e-002
3.529243e+003;1.660026e-002
3.531171e+003;1.615166e-002
3.533100e+003;1.575320e-002
3.535029e+003;1.608801e-002
3.536957e+003;1.657148e-002
3.538885e+003;1.627149e-002
3.540814e+003;1.568500e-002
3.542743e+003;1.540673e-002
3.544671e+003;1.494204e-002
3.546600e+003;1.507358e-002
3.548528e+003;1.538497e-002
3.550457e+003;1.520979e-002
3.552385e+003;1.445644e-002
3.554314e+003;1.385139e-002
3.556242e+003;1.380224e-002
3.558171e+003;1.403496e-002
3.560100e+003;1.371763e-002
3.562028e+003;1.299024e-002
3.563957e+003;1.246133e-002
3.565885e+003;1.162957e-002
3.567814e+003;1.148138e-002
3.569742e+003;1.201940e-002
3.571671e+003;1.209070e-002
3.573599e+003;1.183103e-002
3.575528e+003;1.180219e-002
3.577457e+003;1.168284e-002
3.579385e+003;1.157114e-002
3.581314e+003;1.148053e-002
3.583242e+003;1.082407e-002
3.585171e+003;1.008046e-002
3.587099e+003;9.823885e-003
3.589028e+003;1.026369e-002
3.590956e+003;1.070927e-002
3.592885e+003;1.031930e-002
3.594813e+003;1.031492e-002
3.596742e+003;1.078667e-002
3.598671e+003;1.033999e-002
3.600599e+003;9.929302e-003
3.602528e+003;1.008802e-002
3.604456e+003;1.005207e-002
3.606385e+003;9.261606e-003
3.608313e+003;8.519002e-003
3.610242e+003;8.604635e-003
3.612170e+003;8.462170e-003
3.614099e+003;8.584121e-003
3.616028e+003;8.555532e-003
3.617956e+003;7.527474e-003
3.619885e+003;7.535229e-003
3.621813e+003;8.591556e-003
3.623742e+003;8.763544e-003
3.625670e+003;7.905093e-003
3.627599e+003;5.133425e-003
3.629527e+003;4.368688e-003
3.631456e+003;6.819599e-003
3.633385e+003;8.332012e-003
3.635313e+003;8.637353e-003
3.637241e+003;8.718648e-003
3.639170e+003;9.187993e-003
3.641099e+003;9.504603e-003
3.643027e+003;8.978288e-003
3.644956e+003;7.983451e-003
3.646884e+003;6.306779e-003
3.648813e+003;4.983581e-003
3.650741e+003;5.886648e-003
3.652670e+003;7.499695e-003
3.654598e+003;6.796881e-003
3.656527e+003;6.527912e-003
3.658456e+003;7.733545e-003
3.660384e+003;8.097671e-003
3.662313e+003;8.003633e-003
3.664241e+003;7.680357e-003
3.666170e+003;7.021429e-003
3.668098e+003;5.465010e-003
3.670027e+003;4.523710e-003
3.671955e+003;5.943009e-003
3.673884e+003;4.898424e-003
3.675813e+003;4.330234e-003
3.677741e+003;7.409797e-003
3.679669e+003;8.759352e-003
3.681598e+003;8.614470e-003
3.683527e+003;8.549178e-003
3.685455e+003;7.797636e-003
3.687384e+003;5.734227e-003
3.689312e+003;5.319814e-003
3.691241e+003;6.628428e-003
3.693169e+003;8.235897e-003
3.695098e+003;8.918589e-003
3.697026e+003;8.873642e-003
3.698955e+003;8.994457e-003
3.700884e+003;8.150809e-003
3.702812e+003;8.162086e-003
3.704741e+003;8.822613e-003
3.706669e+003;8.514035e-003
3.708598e+003;7.821486e-003
3.710526e+003;6.784057e-003
3.712455e+003;6.565620e-003
3.714383e+003;7.645656e-003
3.716312e+003;7.787414e-003
3.718240e+003;8.058616e-003
3.720169e+003;8.119345e-003
3.722098e+003;7.594029e-003
3.724026e+003;7.211392e-003
3.725955e+003;7.515877e-003
3.727883e+003;8.003768e-003
3.729812e+003;7.129738e-003
3.731740e+003;5.645163e-003
3.733669e+003;5.326120e-003
3.735597e+003;5.378752e-003
3.737526e+003;6.656319e-003
3.739455e+003;7.837815e-003
3.741383e+003;7.078409e-003
3.743312e+003;3.679940e-003
3.745240e+003;3.808610e-003
3.747169e+003;5.246195e-003
3.749097e+003;3.188201e-003
3.751026e+003;2.984575e-003
3.752954e+003;5.665103e-003
3.754883e+003;8.149019e-003
3.756812e+003;8.207533e-003
3.758740e+003;8.119075e-003
3.760668e+003;8.949299e-003
3.762597e+003;9.828189e-003
3.764526e+003;9.157468e-003
3.766454e+003;8.900258e-003
3.768383e+003;7.965598e-003
3.770311e+003;7.594805e-003
3.772240e+003;8.343496e-003
3.774168e+003;8.654489e-003
3.776097e+003;8.434399e-003
3.778025e+003;8.222694e-003
3.779954e+003;8.257814e-003
3.781883e+003;8.356535e-003
3.783811e+003;8.126231e-003
3.785740e+003;8.813620e-003
3.787668e+003;9.289566e-003
3.789597e+003;9.376875e-003
3.791525e+003;9.119535e-003
3.793454e+003;8.770340e-003
3.795382e+003;8.382510e-003
3.797311e+003;8.423318e-003
3.799240e+003;7.187204e-003
3.801168e+003;5.843458e-003
3.803097e+003;7.182522e-003
3.805025e+003;6.956813e-003
3.806954e+003;6.433070e-003
3.808882e+003;7.774360e-003
3.810811e+003;8.300129e-003
3.812739e+003;8.202569e-003
3.814668e+003;6.403074e-003
3.816596e+003;6.442822e-003
3.818525e+003;7.158099e-003
3.820454e+003;5.993498e-003
3.822382e+003;6.812295e-003
3.824311e+003;8.453116e-003
3.826239e+003;9.018610e-003
3.828168e+003;8.720508e-003
3.830096e+003;8.470955e-003
3.832025e+003;8.843140e-003
3.833953e+003;8.481462e-003
3.835882e+003;6.773153e-003
3.837811e+003;5.759442e-003
3.839739e+003;6.736168e-003
3.841667e+003;7.376094e-003
3.843596e+003;7.879989e-003
3.845525e+003;8.400854e-003
3.847453e+003;8.726086e-003
3.849382e+003;7.896827e-003
3.851310e+003;4.537371e-003
3.853239e+003;2.246356e-003
3.855167e+003;5.476351e-003
3.857096e+003;8.791202e-003
3.859024e+003;9.042224e-003
3.860953e+003;8.440684e-003
3.862882e+003;8.271525e-003
3.864810e+003;8.203110e-003
3.866739e+003;8.612511e-003
3.868667e+003;7.570528e-003
3.870596e+003;7.575013e-003
3.872524e+003;8.527315e-003
3.874453e+003;8.920314e-003
3.876381e+003;9.774745e-003
3.878310e+003;9.106136e-003
3.880239e+003;8.377815e-003
3.882167e+003;8.902592e-003
3.884096e+003;8.277468e-003
3.886024e+003;8.169885e-003
3.887953e+003;9.574307e-003
3.889881e+003;8.800872e-003
3.891810e+003;8.460211e-003
3.893738e+003;9.785690e-003
3.895667e+003;1.014171e-002
3.897595e+003;9.464235e-003
3.899524e+003;8.945748e-003
3.901453e+003;8.365046e-003
3.903381e+003;8.209458e-003
3.905310e+003;9.315124e-003
3.907238e+003;9.976155e-003
3.909167e+003;9.903945e-003
3.911095e+003;9.960695e-003
3.913024e+003;1.049265e-002
3.914952e+003;1.025137e-002
3.916881e+003;9.260490e-003
3.918810e+003;8.868570e-003
3.920738e+003;9.624577e-003
3.922667e+003;1.017891e-002
3.924595e+003;1.015368e-002
3.926524e+003;1.061789e-002
3.928452e+003;1.097731e-002
3.930381e+003;1.053787e-002
3.932309e+003;1.040216e-002
3.934238e+003;1.083015e-002
3.936167e+003;1.114711e-002
3.938095e+003;1.145063e-002
3.940023e+003;1.137498e-002
3.941952e+003;1.058047e-002
3.943881e+003;1.020958e-002
3.945809e+003;1.037647e-002
3.947738e+003;1.036687e-002
3.949666e+003;1.022562e-002
3.951595e+003;1.072268e-002
3.953523e+003;1.097860e-002
3.955452e+003;1.053549e-002
3.957380e+003;1.055834e-002
3.959309e+003;1.111373e-002
3.961238e+003;1.136239e-002
3.963166e+003;1.089610e-002
3.965095e+003;1.080101e-002
3.967023e+003;1.084564e-002
3.968952e+003;1.082930e-002
3.970880e+003;1.091074e-002
3.972809e+003;1.127751e-002
3.974737e+003;1.173043e-002
3.976666e+003;1.181006e-002
3.978594e+003;1.161392e-002
3.980523e+003;1.150323e-002
3.982452e+003;1.141471e-002
3.984380e+003;1.173492e-002
3.986309e+003;1.227822e-002
3.988237e+003;1.243282e-002
3.990166e+003;1.262506e-002
3.992094e+003;1.276511e-002
3.994023e+003;1.253185e-002
3.995951e+003;1.240653e-002
3.997880e+003;1.267337e-002
3.999809e+003;1.254297e-002
4.001737e+003;0.000000e+000
