3.992094e+002;0.000000e+000
4.011380e+002;0.000000e+000
4.030665e+002;0.000000e+000
4.049951e+002;0.000000e+000
4.069236e+002;0.000000e+000
4.088522e+002;0.000000e+000
4.107807e+002;0.000000e+000
4.127093e+002;0.000000e+000
4.146378e+002;0.000000e+000
4.165664e+002;0.000000e+000
4.184949e+002;0.000000e+000
4.204235e+002;0.000000e+000
4.223520e+002;0.000000e+000
4.242806e+002;0.000000e+000
4.262091e+002;0.000000e+000
4.281377e+002;0.000000e+000
4.300662e+002;0.000000e+000
4.319948e+002;0.000000e+000
4.339233e+002;0.000000e+000
4.358519e+002;0.000000e+000
4.377804e+002;0.000000e+000
4.397090e+002;0.000000e+000
4.416375e+002;0.000000e+000
4.435660e+002;0.000000e+000
4.454946e+002;0.000000e+000
4.474232e+002;0.000000e+000
4.493517e+002;0.000000e+000
4.512802e+002;0.000000e+000
4.532088e+002;0.000000e+000
4.551373e+002;0.000000e+000
4.570659e+002;0.000000e+000
4.589944e+002;0.000000e+000
4.609230e+002;0.000000e+000
4.628515e+002;0.000000e+000
4.647801e+002;0.000000e+000
4.667086e+002;0.000000e+000
4.686372e+002;0.000000e+000
4.705657e+002;0.000000e+000
4.724943e+002;0.000000e+000
4.744228e+002;0.000000e+000
4.763513e+002;0.000000e+000
4.782799e+002;0.000000e+000
4.802085e+002;0.000000e+000
4.821370e+002;0.000000e+000
4.840656e+002;0.000000e+000
4.859941e+002;0.000000e+000
4.879226e+002;0.000000e+000
4.898512e+002;0.000000e+000
4.917798e+002;0.000000e+000
4.937083e+002;0.000000e+000
4.956368e+002;0.000000e+000
4.975654e+002;0.000000e+000
4.994939e+002;0.000000e+000
5.014225e+002;0.000000e+000
5.033510e+002;0.000000e+000
5.052796e+002;0.000000e+000
5.072081e+002;0.000000e+000
5.091367e+002;0.000000e+000
5.110652e+002;0.000000e+000
5.129938e+002;0.000000e+000
5.149223e+002;0.000000e+000
5.168509e+002;0.000000e+000
5.187794e+002;0.000000e+000
5.207079e+002;0.000000e+000
5.226365e+002;0.000000e+000
5.245651e+002;0.000000e+000
5.264936e+002;0.000000e+000
5.284222e+002;0.000000e+000
5.303507e+002;0.000000e+000
5.322792e+002;0.000000e+000
5.342078e+002;0.000000e+000
5.361364e+002;0.000000e+000
5.380649e+002;0.000000e+000
5.399935e+002;0.000000e+000
5.419220e+002;0.000000e+000
5.438505e+002;0.000000e+000
5.457791e+002;0.000000e+000
5.477076e+002;0.000000e+000
5.496362e+002;0.000000e+000
5.515648e+002;0.000000e+000
5.534933e+002;0.000000e+000
5.554218e+002;0.000000e+000
5.573504e+002;0.000000e+000
5.592789e+002;0.000000e+000
5.612075e+002;0.000000e+000
5.631360e+002;0.000000e+000
5.650646e+002;0.000000e+000
5.669931e+002;0.000000e+000
5.689217e+002;0.000000e+000
5.708502e+002;0.000000e+000
5.727787e+002;0.000000e+000
5.747073e+002;0.000000e+000
5.766359e+002;0.000000e+000
5.785644e+002;0.000000e+000
5.804930e+002;0.000000e+000
5.824215e+002;0.000000e+000
5.843500e+002;0.000000e+000
5.862786e+002;0.000000e+000
5.882072e+002;0.000000e+000
5.901357e+002;0.000000e+000
5.920643e+002;0.000000e+000
5.939928e+002;0.000000e+000
5.959213e+002;0.000000e+000
5.978499e+002;0.000000e+000
5.997784e+002;2.903263e-002
6.017070e+002;2.181820e-002
6.036355e+002;2.238802e-002
6.055641e+002;2.811995e-002
6.074926e+002;3.349870e-002
6.094211e+002;3.558380e-002
6.113497e+002;3.428593e-002
6.132783e+002;3.260664e-002
6.152068e+002;3.450086e-002
6.171354e+002;3.801614e-002
6.190639e+002;3.814371e-002
6.209924e+002;3.577977e-002
6.229210e+002;3.380332e-002
6.248495e+002;3.245258e-002
6.267781e+002;3.239771e-002
6.287067e+002;3.312689e-002
6.306352e+002;3.375680e-002
6.325637e+002;3.406124e-002
6.344923e+002;3.266097e-002
6.364208e+002;2.904046e-002
6.383494e+002;2.958270e-002
6.402780e+002;3.561272e-002
6.422065e+002;3.854932e-002
6.441350e+002;3.471415e-002
6.460636e+002;3.095994e-002
6.479921e+002;3.198132e-002
6.499207e+002;3.433727e-002
6.518492e+002;3.518813e-002
6.537778e+002;3.565365e-002
6.557063e+002;3.579913e-002
6.576349e+002;3.316977e-002
6.595634e+002;3.173914e-002
6.614919e+002;3.465335e-002
6.634205e+002;3.714211e-002
6.653491e+002;3.535395e-002
6.672776e+002;3.363101e-002
6.692062e+002;3.402680e-002
6.711347e+002;3.423670e-002
6.730632e+002;3.499778e-002
6.749918e+002;3.401687e-002
6.769203e+002;3.494772e-002
6.788489e+002;3.708408e-002
6.807775e+002;3.727102e-002
6.827060e+002;3.673290e-002
6.846345e+002;3.511456e-002
6.865631e+002;3.305655e-002
6.884916e+002;3.254656e-002
6.904202e+002;3.203065e-002
6.923488e+002;3.209750e-002
6.942773e+002;3.210788e-002
6.962058e+002;3.222002e-002
6.981344e+002;3.331378e-002
7.000629e+002;3.296482e-002
7.019915e+002;3.217803e-002
7.039200e+002;3.235580e-002
7.058486e+002;3.253224e-002
7.077771e+002;3.314824e-002
7.097057e+002;3.373116e-002
7.116342e+002;3.454266e-002
7.135627e+002;3.490463e-002
7.154913e+002;3.412600e-002
7.174199e+002;3.384505e-002
7.193484e+002;3.394582e-002
7.212770e+002;3.401691e-002
7.232055e+002;3.427710e-002
7.251340e+002;3.394338e-002
7.270626e+002;3.393665e-002
7.289911e+002;3.396004e-002
7.309197e+002;3.332866e-002
7.328483e+002;3.285484e-002
7.347768e+002;3.291138e-002
7.367053e+002;3.315922e-002
7.386339e+002;3.288350e-002
7.405624e+002;3.311520e-002
7.424910e+002;3.271048e-002
7.444196e+002;3.247558e-002
7.463481e+002;3.290663e-002
7.482766e+002;3.284108e-002
7.502052e+002;3.348253e-002
7.521337e+002;3.443590e-002
7.540623e+002;3.365783e-002
7.559908e+002;3.225853e-002
7.579194e+002;3.221589e-002
7.598479e+002;3.289172e-002
7.617765e+002;3.318375e-002
7.637050e+002;3.327199e-002
7.656335e+002;3.364991e-002
7.675621e+002;3.376976e-002
7.694907e+002;3.392648e-002
7.714192e+002;3.310776e-002
7.733478e+002;3.211173e-002
7.752763e+002;3.230932e-002
7.772048e+002;3.202651e-002
7.791334e+002;3.182313e-002
7.810620e+002;3.322660e-002
7.829905e+002;3.395252e-002
7.849191e+002;3.349198e-002
7.868476e+002;3.426947e-002
7.887761e+002;3.542261e-002
7.907047e+002;3.620144e-002
7.926332e+002;3.720040e-002
7.945618e+002;3.870356e-002
7.964903e+002;4.057344e-002
7.984189e+002;4.169076e-002
8.003474e+002;4.325540e-002
8.022759e+002;4.586913e-002
8.042045e+002;4.881946e-002
8.061331e+002;5.104211e-002
8.080616e+002;5.271425e-002
8.099902e+002;5.338909e-002
8.119187e+002;5.280446e-002
8.138472e+002;5.018653e-002
8.157758e+002;4.675188e-002
8.177043e+002;4.429029e-002
8.196329e+002;4.295367e-002
8.215615e+002;4.187648e-002
8.234900e+002;4.123352e-002
8.254185e+002;4.151857e-002
8.273471e+002;4.217363e-002
8.292756e+002;4.191950e-002
8.312042e+002;4.222632e-002
8.331328e+002;4.397922e-002
8.350613e+002;4.625858e-002
8.369898e+002;4.935992e-002
8.389184e+002;5.554146e-002
8.408469e+002;6.091845e-002
8.427755e+002;5.973557e-002
8.447040e+002;5.468845e-002
8.466326e+002;4.983747e-002
8.485611e+002;4.543639e-002
8.504897e+002;4.247588e-002
8.524182e+002;4.147085e-002
8.543467e+002;4.123779e-002
8.562753e+002;4.030643e-002
8.582039e+002;3.879174e-002
8.601324e+002;3.804847e-002
8.620610e+002;3.780166e-002
8.639895e+002;3.780017e-002
8.659180e+002;3.789749e-002
8.678466e+002;3.751370e-002
8.697751e+002;3.753295e-002
8.717037e+002;3.816567e-002
8.736323e+002;3.824281e-002
8.755608e+002;3.813698e-002
8.774893e+002;3.775058e-002
8.794179e+002;3.678058e-002
8.813464e+002;3.607681e-002
8.832750e+002;3.614958e-002
8.852036e+002;3.644082e-002
8.871321e+002;3.681610e-002
8.890606e+002;3.756391e-002
8.909892e+002;3.914563e-002
8.929177e+002;4.140535e-002
8.948463e+002;4.479980e-002
8.967748e+002;4.944264e-002
8.987034e+002;5.268855e-002
9.006319e+002;5.233105e-002
9.025605e+002;4.882621e-002
9.044890e+002;4.405630e-002
9.064175e+002;3.974959e-002
9.083461e+002;3.658073e-002
9.102747e+002;3.463322e-002
9.122032e+002;3.344234e-002
9.141318e+002;3.261085e-002
9.160603e+002;3.255117e-002
9.179888e+002;3.274299e-002
9.199174e+002;3.234037e-002
9.218459e+002;3.209122e-002
9.237745e+002;3.191769e-002
9.257031e+002;3.145677e-002
9.276316e+002;3.125359e-002
9.295601e+002;3.136189e-002
9.314887e+002;3.153412e-002
9.334172e+002;3.252700e-002
9.353458e+002;3.400014e-002
9.372744e+002;3.520926e-002
9.392029e+002;3.644176e-002
9.411314e+002;3.710429e-002
9.430600e+002;3.727466e-002
9.449885e+002;3.703514e-002
9.469171e+002;3.670435e-002
9.488456e+002;3.662565e-002
9.507742e+002;3.713290e-002
9.527027e+002;3.790632e-002
9.546313e+002;3.867944e-002
9.565598e+002;3.908523e-002
9.584883e+002;3.975496e-002
9.604169e+002;4.158949e-002
9.623455e+002;4.390773e-002
9.642740e+002;4.674457e-002
9.662026e+002;5.138655e-002
9.681311e+002;5.836923e-002
9.700596e+002;6.664463e-002
9.719882e+002;7.388040e-002
9.739167e+002;7.674782e-002
9.758453e+002;7.299329e-002
9.777739e+002;6.483707e-002
9.797024e+002;5.536241e-002
9.816309e+002;4.733307e-002
9.835595e+002;4.179833e-002
9.854880e+002;3.869111e-002
9.874166e+002;3.804717e-002
9.893452e+002;3.956118e-002
9.912737e+002;4.322688e-002
9.932022e+002;4.899242e-002
9.951307e+002;5.607947e-002
9.970593e+002;6.164222e-002
9.989879e+002;6.213305e-002
1.000916e+003;5.729612e-002
1.002845e+003;5.046151e-002
1.004773e+003;4.503797e-002
1.006702e+003;4.173996e-002
1.008631e+003;3.979244e-002
1.010559e+003;3.830711e-002
1.012488e+003;3.677109e-002
1.014416e+003;3.579963e-002
1.016345e+003;3.531093e-002
1.018273e+003;3.471716e-002
1.020202e+003;3.436406e-002
1.022130e+003;3.442514e-002
1.024059e+003;3.440581e-002
1.025988e+003;3.427764e-002
1.027916e+003;3.395299e-002
1.029845e+003;3.408711e-002
1.031773e+003;3.518853e-002
1.033702e+003;3.664197e-002
1.035630e+003;3.799332e-002
1.037559e+003;3.899880e-002
1.039487e+003;3.947971e-002
1.041416e+003;3.935990e-002
1.043344e+003;3.932831e-002
1.045273e+003;3.939731e-002
1.047202e+003;3.839274e-002
1.049130e+003;3.668380e-002
1.051059e+003;3.566106e-002
1.052987e+003;3.534356e-002
1.054916e+003;3.497286e-002
1.056844e+003;3.469904e-002
1.058773e+003;3.469153e-002
1.060701e+003;3.432408e-002
1.062630e+003;3.401071e-002
1.064558e+003;3.401920e-002
1.066487e+003;3.409658e-002
1.068416e+003;3.372042e-002
1.070344e+003;3.353142e-002
1.072273e+003;3.379906e-002
1.074201e+003;3.387747e-002
1.076130e+003;3.368339e-002
1.078058e+003;3.414869e-002
1.079987e+003;3.534557e-002
1.081915e+003;3.576301e-002
1.083844e+003;3.547150e-002
1.085773e+003;3.560513e-002
1.087701e+003;3.571606e-002
1.089630e+003;3.700267e-002
1.091558e+003;3.788574e-002
1.093487e+003;3.871483e-002
1.095415e+003;4.078700e-002
1.097344e+003;4.240354e-002
1.099272e+003;4.346717e-002
1.101201e+003;4.438291e-002
1.103129e+003;4.511524e-002
1.105058e+003;4.475568e-002
1.106987e+003;4.331232e-002
1.108915e+003;4.128723e-002
1.110844e+003;3.937151e-002
1.112772e+003;3.799748e-002
1.114701e+003;3.710183e-002
1.116629e+003;3.629995e-002
1.118558e+003;3.582450e-002
1.120486e+003;3.542804e-002
1.122415e+003;3.438020e-002
1.124344e+003;3.364358e-002
1.126272e+003;3.330347e-002
1.128201e+003;3.282943e-002
1.130129e+003;3.294730e-002
1.132058e+003;3.354849e-002
1.133986e+003;3.480389e-002
1.135915e+003;3.625698e-002
1.137843e+003;3.797513e-002
1.139772e+003;4.068601e-002
1.141700e+003;4.408546e-002
1.143629e+003;4.765650e-002
1.145557e+003;5.109167e-002
1.147486e+003;5.449345e-002
1.149415e+003;5.812132e-002
1.151343e+003;6.132317e-002
1.153272e+003;6.339345e-002
1.155200e+003;6.427847e-002
1.157129e+003;6.467629e-002
1.159057e+003;6.494956e-002
1.160986e+003;6.492813e-002
1.162914e+003;6.567901e-002
1.164843e+003;6.670741e-002
1.166771e+003;6.620660e-002
1.168700e+003;6.411187e-002
1.170629e+003;6.037827e-002
1.172557e+003;5.512141e-002
1.174486e+003;4.959987e-002
1.176414e+003;4.488106e-002
1.178343e+003;4.130396e-002
1.180271e+003;3.882696e-002
1.182200e+003;3.711024e-002
1.184128e+003;3.600755e-002
1.186057e+003;3.534536e-002
1.187986e+003;3.506882e-002
1.189914e+003;3.517373e-002
1.191843e+003;3.504692e-002
1.193771e+003;3.497989e-002
1.195700e+003;3.528332e-002
1.197628e+003;3.530158e-002
1.199557e+003;3.482183e-002
1.201485e+003;3.452935e-002
1.203414e+003;3.441474e-002
1.205343e+003;3.457147e-002
1.207271e+003;3.504268e-002
1.209200e+003;3.570609e-002
1.211128e+003;3.674755e-002
1.213057e+003;3.829549e-002
1.214985e+003;3.952380e-002
1.216914e+003;3.948628e-002
1.218842e+003;3.886707e-002
1.220771e+003;3.802185e-002
1.222699e+003;3.696699e-002
1.224628e+003;3.613161e-002
1.226557e+003;3.571516e-002
1.228485e+003;3.543972e-002
1.230414e+003;3.553748e-002
1.232342e+003;3.555607e-002
1.234271e+003;3.579791e-002
1.236199e+003;3.613457e-002
1.238128e+003;3.605453e-002
1.240056e+003;3.607598e-002
1.241985e+003;3.629376e-002
1.243913e+003;3.666934e-002
1.245842e+003;3.754530e-002
1.247771e+003;3.829383e-002
1.249699e+003;3.915067e-002
1.251628e+003;4.176061e-002
1.253556e+003;4.535635e-002
1.255485e+003;4.734926e-002
1.257413e+003;4.729642e-002
1.259342e+003;4.536606e-002
1.261270e+003;4.275114e-002
1.263199e+003;4.088055e-002
1.265127e+003;3.986264e-002
1.267056e+003;3.848476e-002
1.268985e+003;3.721109e-002
1.270913e+003;3.638760e-002
1.272842e+003;3.601788e-002
1.274770e+003;3.602342e-002
1.276699e+003;3.582896e-002
1.278627e+003;3.554165e-002
1.280556e+003;3.554896e-002
1.282484e+003;3.606716e-002
1.284413e+003;3.677643e-002
1.286342e+003;3.745749e-002
1.288270e+003;3.871795e-002
1.290199e+003;3.977864e-002
1.292127e+003;4.031374e-002
1.294056e+003;4.125163e-002
1.295984e+003;4.219769e-002
1.297913e+003;4.223574e-002
1.299841e+003;4.203490e-002
1.301770e+003;4.258778e-002
1.303698e+003;4.291149e-002
1.305627e+003;4.153855e-002
1.307556e+003;3.909788e-002
1.309484e+003;3.681275e-002
1.311413e+003;3.550753e-002
1.313341e+003;3.535179e-002
1.315270e+003;3.586005e-002
1.317198e+003;3.645992e-002
1.319127e+003;3.746067e-002
1.321055e+003;3.896528e-002
1.322984e+003;4.053815e-002
1.324912e+003;4.225028e-002
1.326841e+003;4.405846e-002
1.328770e+003;4.522175e-002
1.330698e+003;4.534119e-002
1.332627e+003;4.478484e-002
1.334555e+003;4.386279e-002
1.336484e+003;4.288948e-002
1.338412e+003;4.245301e-002
1.340341e+003;4.302738e-002
1.342269e+003;4.466427e-002
1.344198e+003;4.645947e-002
1.346126e+003;4.874606e-002
1.348055e+003;5.187991e-002
1.349984e+003;5.592767e-002
1.351912e+003;6.099676e-002
1.353841e+003;6.774926e-002
1.355769e+003;7.572860e-002
1.357698e+003;8.204925e-002
1.359626e+003;8.419657e-002
1.361555e+003;8.330506e-002
1.363483e+003;8.248473e-002
1.365412e+003;8.438368e-002
1.367341e+003;9.192944e-002
1.369269e+003;1.077652e-001
1.371198e+003;1.312850e-001
1.373126e+003;1.581806e-001
1.375055e+003;1.798910e-001
1.376983e+003;1.827613e-001
1.378912e+003;1.630566e-001
1.380840e+003;1.339414e-001
1.382769e+003;1.069167e-001
1.384698e+003;8.568970e-002
1.386626e+003;7.006866e-002
1.388555e+003;5.959187e-002
1.390483e+003;5.319393e-002
1.392412e+003;4.899138e-002
1.394340e+003;4.591561e-002
1.396269e+003;4.397497e-002
1.398197e+003;4.299489e-002
1.400126e+003;4.242703e-002
1.402054e+003;4.241801e-002
1.403983e+003;4.241867e-002
1.405911e+003;4.240569e-002
1.407840e+003;4.295703e-002
1.409769e+003;4.329325e-002
1.411697e+003;4.333769e-002
1.413626e+003;4.397959e-002
1.415554e+003;4.458492e-002
1.417483e+003;4.484608e-002
1.419411e+003;4.545924e-002
1.421340e+003;4.690135e-002
1.423268e+003;4.873275e-002
1.425197e+003;5.130547e-002
1.427125e+003;5.517998e-002
1.429054e+003;6.105320e-002
1.430983e+003;7.019117e-002
1.432911e+003;8.141233e-002
1.434840e+003;8.971818e-002
1.436768e+003;9.282764e-002
1.438697e+003;9.423269e-002
1.440625e+003;9.719995e-002
1.442554e+003;1.027411e-001
1.444482e+003;1.106342e-001
1.446411e+003;1.207717e-001
1.448340e+003;1.316829e-001
1.450268e+003;1.404099e-001
1.452197e+003;1.460013e-001
1.454125e+003;1.486151e-001
1.456054e+003;1.488703e-001
1.457982e+003;1.476976e-001
1.459911e+003;1.451549e-001
1.461839e+003;1.405183e-001
1.463768e+003;1.333192e-001
1.465697e+003;1.239134e-001
1.467625e+003;1.133054e-001
1.469554e+003;1.017506e-001
1.471482e+003;9.035280e-002
1.473411e+003;8.040078e-002
1.475339e+003;7.225972e-002
1.477268e+003;6.511655e-002
1.479196e+003;5.925374e-002
1.481125e+003;5.402210e-002
1.483053e+003;4.970095e-002
1.484982e+003;4.633150e-002
1.486911e+003;4.325708e-002
1.488839e+003;4.042446e-002
1.490768e+003;3.844302e-002
1.492696e+003;3.743817e-002
1.494625e+003;3.632009e-002
1.496553e+003;3.474394e-002
1.498482e+003;3.373051e-002
1.500410e+003;3.270559e-002
1.502339e+003;3.145691e-002
1.504267e+003;2.982510e-002
1.506196e+003;2.795504e-002
1.508125e+003;2.743953e-002
1.510053e+003;2.722996e-002
1.511982e+003;2.621659e-002
1.513910e+003;2.566851e-002
1.515839e+003;2.523352e-002
1.517767e+003;2.447557e-002
1.519696e+003;2.355456e-002
1.521624e+003;2.288841e-002
1.523553e+003;2.294926e-002
1.525481e+003;2.309292e-002
1.527410e+003;2.312937e-002
1.529339e+003;2.326998e-002
1.531267e+003;2.306521e-002
1.533196e+003;2.302650e-002
1.535124e+003;2.372362e-002
1.537053e+003;2.408376e-002
1.538981e+003;2.372509e-002
1.540910e+003;2.393886e-002
1.542838e+003;2.490215e-002
1.544767e+003;2.580366e-002
1.546695e+003;2.639394e-002
1.548624e+003;2.640264e-002
1.550553e+003;2.619783e-002
1.552481e+003;2.578625e-002
1.554410e+003;2.544536e-002
1.556338e+003;2.488797e-002
1.558267e+003;2.342617e-002
1.560195e+003;2.302046e-002
1.562124e+003;2.351413e-002
1.564052e+003;2.341092e-002
1.565981e+003;2.329767e-002
1.567910e+003;2.296505e-002
1.569838e+003;2.264347e-002
1.571767e+003;2.285628e-002
1.573695e+003;2.285160e-002
1.575624e+003;2.219277e-002
1.577552e+003;2.226419e-002
1.579481e+003;2.264577e-002
1.581409e+003;2.272114e-002
1.583338e+003;2.252867e-002
1.585266e+003;2.192333e-002
1.587195e+003;2.157508e-002
1.589124e+003;2.156742e-002
1.591052e+003;2.173428e-002
1.592981e+003;2.178385e-002
1.594909e+003;2.168112e-002
1.596838e+003;2.157365e-002
1.598766e+003;2.188761e-002
1.600695e+003;2.216867e-002
1.602623e+003;2.227904e-002
1.604552e+003;2.265642e-002
1.606480e+003;2.276266e-002
1.608409e+003;2.287028e-002
1.610338e+003;2.336781e-002
1.612266e+003;2.362320e-002
1.614195e+003;2.382288e-002
1.616123e+003;2.410358e-002
1.618052e+003;2.475862e-002
1.619980e+003;2.535107e-002
1.621909e+003;2.557372e-002
1.623837e+003;2.567987e-002
1.625766e+003;2.578302e-002
1.627694e+003;2.564602e-002
1.629623e+003;2.554097e-002
1.631552e+003;2.554641e-002
1.633480e+003;2.513026e-002
1.635409e+003;2.464975e-002
1.637337e+003;2.510586e-002
1.639266e+003;2.542049e-002
1.641194e+003;2.534756e-002
1.643123e+003;2.549153e-002
1.645051e+003;2.566925e-002
1.646980e+003;2.583875e-002
1.648909e+003;2.607815e-002
1.650837e+003;2.524585e-002
1.652766e+003;2.416449e-002
1.654694e+003;2.484798e-002
1.656623e+003;2.574930e-002
1.658551e+003;2.569681e-002
1.660480e+003;2.552350e-002
1.662408e+003;2.546061e-002
1.664337e+003;2.539379e-002
1.666266e+003;2.524402e-002
1.668194e+003;2.500080e-002
1.670123e+003;2.506587e-002
1.672051e+003;2.511741e-002
1.673980e+003;2.469728e-002
1.675908e+003;2.452321e-002
1.677837e+003;2.489127e-002
1.679765e+003;2.478767e-002
1.681694e+003;2.409577e-002
1.683622e+003;2.321542e-002
1.685551e+003;2.363107e-002
1.687479e+003;2.444261e-002
1.689408e+003;2.458173e-002
1.691337e+003;2.462840e-002
1.693265e+003;2.451893e-002
1.695194e+003;2.426746e-002
1.697122e+003;2.463958e-002
1.699051e+003;2.484570e-002
1.700979e+003;2.536291e-002
1.702908e+003;2.649282e-002
1.704836e+003;2.713511e-002
1.706765e+003;2.758137e-002
1.708693e+003;2.782527e-002
1.710622e+003;2.790310e-002
1.712551e+003;2.770927e-002
1.714479e+003;2.719737e-002
1.716408e+003;2.659222e-002
1.718336e+003;2.685597e-002
1.720265e+003;2.754829e-002
1.722193e+003;2.755923e-002
1.724122e+003;2.737396e-002
1.726050e+003;2.742887e-002
1.727979e+003;2.778408e-002
1.729908e+003;2.828051e-002
1.731836e+003;2.840525e-002
1.733765e+003;2.835764e-002
1.735693e+003;2.909640e-002
1.737622e+003;2.979802e-002
1.739550e+003;2.996772e-002
1.741479e+003;2.975689e-002
1.743407e+003;2.875492e-002
1.745336e+003;2.718531e-002
1.747265e+003;2.547677e-002
1.749193e+003;2.369601e-002
1.751122e+003;2.194222e-002
1.753050e+003;2.081374e-002
1.754979e+003;1.960787e-002
1.756907e+003;1.812445e-002
1.758836e+003;1.681612e-002
1.760764e+003;1.551077e-002
1.762693e+003;1.459091e-002
1.764621e+003;1.417348e-002
1.766550e+003;1.346922e-002
1.768479e+003;1.288227e-002
1.770407e+003;1.242195e-002
1.772336e+003;1.178697e-002
1.774264e+003;1.180451e-002
1.776193e+003;1.204454e-002
1.778121e+003;1.198973e-002
1.780050e+003;1.162682e-002
1.781978e+003;1.117700e-002
1.783907e+003;1.079401e-002
1.785835e+003;1.040756e-002
1.787764e+003;9.893674e-003
1.789693e+003;9.238286e-003
1.791621e+003;8.660979e-003
1.793550e+003;8.634750e-003
1.795478e+003;8.617681e-003
1.797407e+003;8.195073e-003
1.799335e+003;7.953246e-003
1.801264e+003;7.715872e-003
1.803192e+003;7.530643e-003
1.805121e+003;7.291309e-003
1.807049e+003;7.126167e-003
1.808978e+003;7.090735e-003
1.810907e+003;7.092082e-003
1.812835e+003;7.027961e-003
1.814764e+003;6.774331e-003
1.816692e+003;6.795804e-003
1.818621e+003;7.143380e-003
1.820549e+003;7.170024e-003
1.822478e+003;6.782880e-003
1.824406e+003;6.757504e-003
1.826335e+003;6.884262e-003
1.828264e+003;6.809031e-003
1.830192e+003;6.850970e-003
1.832121e+003;6.868878e-003
1.834049e+003;6.879414e-003
1.835978e+003;7.117814e-003
1.837906e+003;7.293230e-003
1.839835e+003;7.230359e-003
1.841763e+003;6.954153e-003
1.843692e+003;6.453449e-003
1.845620e+003;6.335255e-003
1.847549e+003;6.512171e-003
1.849478e+003;6.665639e-003
1.851406e+003;6.680881e-003
1.853335e+003;6.815156e-003
1.855263e+003;6.887426e-003
1.857192e+003;6.823604e-003
1.859120e+003;6.693802e-003
1.861049e+003;6.533530e-003
1.862977e+003;6.449111e-003
1.864906e+003;6.166309e-003
1.866834e+003;5.860955e-003
1.868763e+003;5.885707e-003
1.870692e+003;6.165099e-003
1.872620e+003;6.189903e-003
1.874549e+003;6.158243e-003
1.876477e+003;6.122890e-003
1.878406e+003;5.888999e-003
1.880334e+003;5.727076e-003
1.882263e+003;5.829656e-003
1.884191e+003;6.118085e-003
1.886120e+003;6.149069e-003
1.888048e+003;5.869687e-003
1.889977e+003;5.897160e-003
1.891906e+003;6.279381e-003
1.893834e+003;6.473560e-003
1.895763e+003;6.386597e-003
1.897691e+003;6.224253e-003
1.899620e+003;5.907606e-003
1.901548e+003;5.710960e-003
1.903477e+003;5.793926e-003
1.905405e+003;5.770556e-003
1.907334e+003;5.841007e-003
1.909262e+003;5.966120e-003
1.911191e+003;5.817835e-003
1.913120e+003;5.564172e-003
1.915048e+003;5.577596e-003
1.916977e+003;5.417064e-003
1.918905e+003;5.178355e-003
1.920834e+003;5.317969e-003
1.922762e+003;5.371237e-003
1.924691e+003;5.443838e-003
1.926619e+003;5.537089e-003
1.928548e+003;5.429276e-003
1.930477e+003;5.109788e-003
1.932405e+003;4.857577e-003
1.934334e+003;4.901976e-003
1.936262e+003;4.984050e-003
1.938191e+003;4.922686e-003
1.940119e+003;4.740085e-003
1.942048e+003;4.556858e-003
1.943976e+003;4.545541e-003
1.945905e+003;4.727691e-003
1.947833e+003;4.866892e-003
1.949762e+003;4.729433e-003
1.951691e+003;4.600790e-003
1.953619e+003;4.688568e-003
1.955548e+003;4.702837e-003
1.957476e+003;4.563454e-003
1.959405e+003;4.702536e-003
1.961333e+003;4.807186e-003
1.963262e+003;4.694397e-003
1.965190e+003;4.614420e-003
1.967119e+003;4.661775e-003
1.969047e+003;4.574906e-003
1.970976e+003;4.413840e-003
1.972905e+003;4.307912e-003
1.974833e+003;4.383950e-003
1.976762e+003;4.574437e-003
1.978690e+003;4.513164e-003
1.980619e+003;4.579828e-003
1.982547e+003;4.705282e-003
1.984476e+003;4.831275e-003
1.986404e+003;4.808828e-003
1.988333e+003;4.746852e-003
1.990261e+003;4.754992e-003
1.992190e+003;4.696942e-003
1.994119e+003;4.794958e-003
1.996047e+003;4.940213e-003
1.997976e+003;5.020987e-003
1.999904e+003;5.156325e-003
2.001833e+003;4.977983e-003
2.003761e+003;4.879860e-003
2.005690e+003;4.850507e-003
2.007618e+003;4.659664e-003
2.009547e+003;4.673363e-003
2.011476e+003;4.788559e-003
2.013404e+003;4.637661e-003
2.015333e+003;4.613415e-003
2.017261e+003;4.959047e-003
2.019190e+003;5.115455e-003
2.021118e+003;5.023769e-003
2.023047e+003;5.071436e-003
2.024975e+003;5.013981e-003
2.026904e+003;5.048306e-003
2.028833e+003;5.139930e-003
2.030761e+003;5.153241e-003
2.032690e+003;5.166150e-003
2.034618e+003;5.268598e-003
2.036547e+003;5.530780e-003
2.038475e+003;5.623479e-003
2.040404e+003;5.668862e-003
2.042332e+003;5.600285e-003
2.044261e+003;5.539807e-003
2.046189e+003;5.731809e-003
2.048118e+003;5.767937e-003
2.050047e+003;5.630662e-003
2.051975e+003;5.765519e-003
2.053904e+003;5.707435e-003
2.055832e+003;5.381804e-003
2.057761e+003;5.445885e-003
2.059689e+003;5.597130e-003
2.061618e+003;5.635194e-003
2.063546e+003;5.506249e-003
2.065475e+003;5.430551e-003
2.067404e+003;5.531719e-003
2.069332e+003;5.468734e-003
2.071260e+003;5.562292e-003
2.073189e+003;5.861660e-003
2.075118e+003;5.726907e-003
2.077046e+003;5.378215e-003
2.078975e+003;5.651910e-003
2.080903e+003;6.112507e-003
2.082832e+003;6.265800e-003
2.084760e+003;6.492563e-003
2.086689e+003;6.668230e-003
2.088617e+003;6.464479e-003
2.090546e+003;6.340937e-003
2.092475e+003;6.646394e-003
2.094403e+003;6.740745e-003
2.096332e+003;6.433877e-003
2.098260e+003;6.498616e-003
2.100189e+003;6.517317e-003
2.102117e+003;6.263716e-003
2.104046e+003;6.366087e-003
2.105974e+003;6.603600e-003
2.107903e+003;6.688418e-003
2.109832e+003;6.390464e-003
2.111760e+003;6.281331e-003
2.113688e+003;6.660290e-003
2.115617e+003;7.013077e-003
2.117546e+003;6.985567e-003
2.119474e+003;7.028669e-003
2.121403e+003;7.408078e-003
2.123331e+003;7.627446e-003
2.125260e+003;7.651894e-003
2.127188e+003;7.892271e-003
2.129117e+003;8.165901e-003
2.131045e+003;8.358055e-003
2.132974e+003;8.480246e-003
2.134903e+003;8.455515e-003
2.136831e+003;8.252917e-003
2.138760e+003;7.982877e-003
2.140688e+003;7.957228e-003
2.142617e+003;8.015378e-003
2.144545e+003;7.839502e-003
2.146474e+003;7.797704e-003
2.148402e+003;7.853065e-003
2.150331e+003;7.993913e-003
2.152260e+003;8.197336e-003
2.154188e+003;8.149019e-003
2.156117e+003;8.099359e-003
2.158045e+003;8.327892e-003
2.159974e+003;8.509744e-003
2.161902e+003;8.819097e-003
2.163831e+003;9.232769e-003
2.165759e+003;9.283033e-003
2.167688e+003;9.225187e-003
2.169616e+003;9.391739e-003
2.171545e+003;9.707143e-003
2.173474e+003;9.786300e-003
2.175402e+003;9.688473e-003
2.177331e+003;9.743331e-003
2.179259e+003;9.691454e-003
2.181188e+003;9.665740e-003
2.183116e+003;9.554560e-003
2.185045e+003;9.549073e-003
2.186973e+003;9.634876e-003
2.188902e+003;9.556795e-003
2.190831e+003;9.362994e-003
2.192759e+003;9.483708e-003
2.194688e+003;9.608113e-003
2.196616e+003;9.556965e-003
2.198545e+003;9.486823e-003
2.200473e+003;9.249116e-003
2.202402e+003;8.989789e-003
2.204330e+003;8.989044e-003
2.206259e+003;9.069933e-003
2.208188e+003;9.151207e-003
2.210116e+003;9.207013e-003
2.212044e+003;8.973247e-003
2.213973e+003;8.865053e-003
2.215902e+003;8.797321e-003
2.217830e+003;8.782174e-003
2.219759e+003;8.736194e-003
2.221687e+003;8.902727e-003
2.223616e+003;9.044930e-003
2.225544e+003;9.322876e-003
2.227473e+003;9.731946e-003
2.229401e+003;9.879369e-003
2.231330e+003;9.690947e-003
2.233259e+003;9.588805e-003
2.235187e+003;9.419131e-003
2.237116e+003;9.505958e-003
2.239044e+003;9.757190e-003
2.240973e+003;9.642770e-003
2.242901e+003;9.175505e-003
2.244830e+003;9.160344e-003
2.246758e+003;9.461256e-003
2.248687e+003;9.712699e-003
2.250615e+003;9.996091e-003
2.252544e+003;1.007713e-002
2.254473e+003;1.005177e-002
2.256401e+003;1.031601e-002
2.258330e+003;1.055379e-002
2.260258e+003;1.048589e-002
2.262187e+003;1.037437e-002
2.264115e+003;1.032703e-002
2.266044e+003;1.036847e-002
2.267972e+003;1.019397e-002
2.269901e+003;9.818903e-003
2.271830e+003;9.661606e-003
2.273758e+003;9.680071e-003
2.275687e+003;9.807922e-003
2.277615e+003;9.785385e-003
2.279544e+003;9.489872e-003
2.281472e+003;9.267632e-003
2.283401e+003;9.279072e-003
2.285329e+003;9.518015e-003
2.287258e+003;9.397766e-003
2.289187e+003;9.251080e-003
2.291115e+003;9.289430e-003
2.293043e+003;9.301956e-003
2.294972e+003;9.436739e-003
2.296901e+003;9.376774e-003
2.298829e+003;9.184034e-003
2.300758e+003;9.349418e-003
2.302686e+003;9.475580e-003
2.304615e+003;9.391705e-003
2.306543e+003;9.219197e-003
2.308472e+003;9.137469e-003
2.310400e+003;9.501182e-003
2.312329e+003;9.798772e-003
2.314258e+003;9.774067e-003
2.316186e+003;9.731301e-003
2.318115e+003;9.728726e-003
2.320043e+003;9.850931e-003
2.321972e+003;1.008130e-002
2.323900e+003;1.029931e-002
2.325829e+003;1.036002e-002
2.327757e+003;1.054764e-002
2.329686e+003;1.091244e-002
2.331615e+003;1.109045e-002
2.333543e+003;1.108926e-002
2.335472e+003;1.135828e-002
2.337400e+003;1.154855e-002
2.339329e+003;1.135447e-002
2.341257e+003;1.130390e-002
2.343186e+003;1.150023e-002
2.345114e+003;1.150472e-002
2.347043e+003;1.152191e-002
2.348971e+003;1.152003e-002
2.350900e+003;1.132600e-002
2.352829e+003;1.158159e-002
2.354757e+003;1.206855e-002
2.356686e+003;1.226527e-002
2.358614e+003;1.227089e-002
2.360543e+003;1.216739e-002
2.362471e+003;1.239065e-002
2.364400e+003;1.257656e-002
2.366328e+003;1.250719e-002
2.368257e+003;1.223562e-002
2.370186e+003;1.228078e-002
2.372114e+003;1.252261e-002
2.374042e+003;1.261446e-002
2.375971e+003;1.245072e-002
2.377900e+003;1.246116e-002
2.379828e+003;1.271649e-002
2.381757e+003;1.264055e-002
2.383685e+003;1.272373e-002
2.385614e+003;1.283012e-002
2.387542e+003;1.269599e-002
2.389471e+003;1.277419e-002
2.391399e+003;1.298878e-002
2.393328e+003;1.295778e-002
2.395257e+003;1.297577e-002
2.397185e+003;1.311470e-002
2.399114e+003;1.319858e-002
2.401042e+003;1.340935e-002
2.402971e+003;1.338003e-002
2.404899e+003;1.301339e-002
2.406828e+003;1.266385e-002
2.408756e+003;1.262711e-002
2.410685e+003;1.278450e-002
2.412614e+003;1.289241e-002
2.414542e+003;1.292852e-002
2.416471e+003;1.286633e-002
2.418399e+003;1.312946e-002
2.420328e+003;1.355180e-002
2.422256e+003;1.343009e-002
2.424185e+003;1.326608e-002
2.426113e+003;1.347869e-002
2.428042e+003;1.364397e-002
2.429970e+003;1.363532e-002
2.431899e+003;1.363789e-002
2.433828e+003;1.353628e-002
2.435756e+003;1.321607e-002
2.437685e+003;1.297485e-002
2.439613e+003;1.276061e-002
2.441542e+003;1.268964e-002
2.443470e+003;1.267374e-002
2.445399e+003;1.266852e-002
2.447327e+003;1.231060e-002
2.449256e+003;1.217107e-002
2.451185e+003;1.240568e-002
2.453113e+003;1.253407e-002
2.455042e+003;1.259897e-002
2.456970e+003;1.250897e-002
2.458899e+003;1.231998e-002
2.460827e+003;1.234121e-002
2.462756e+003;1.213100e-002
2.464684e+003;1.213230e-002
2.466613e+003;1.250504e-002
2.468542e+003;1.250156e-002
2.470470e+003;1.221480e-002
2.472398e+003;1.220399e-002
2.474327e+003;1.244670e-002
2.476256e+003;1.241298e-002
2.478184e+003;1.268330e-002
2.480113e+003;1.309575e-002
2.482041e+003;1.306850e-002
2.483970e+003;1.316149e-002
2.485898e+003;1.327776e-002
2.487827e+003;1.320453e-002
2.489755e+003;1.322926e-002
2.491684e+003;1.336168e-002
2.493613e+003;1.337859e-002
2.495541e+003;1.337903e-002
2.497470e+003;1.308393e-002
2.499398e+003;1.291746e-002
2.501327e+003;1.293753e-002
2.503255e+003;1.298447e-002
2.505184e+003;1.325587e-002
2.507112e+003;1.321655e-002
2.509041e+003;1.323455e-002
2.510969e+003;1.359474e-002
2.512898e+003;1.390623e-002
2.514827e+003;1.420018e-002
2.516755e+003;1.443681e-002
2.518684e+003;1.447716e-002
2.520612e+003;1.437865e-002
2.522541e+003;1.449261e-002
2.524469e+003;1.495761e-002
2.526398e+003;1.534110e-002
2.528326e+003;1.558233e-002
2.530255e+003;1.590557e-002
2.532184e+003;1.629763e-002
2.534112e+003;1.622540e-002
2.536041e+003;1.594888e-002
2.537969e+003;1.630523e-002
2.539898e+003;1.665899e-002
2.541826e+003;1.695044e-002
2.543755e+003;1.723697e-002
2.545683e+003;1.729113e-002
2.547612e+003;1.752790e-002
2.549541e+003;1.798311e-002
2.551469e+003;1.848294e-002
2.553397e+003;1.883834e-002
2.555326e+003;1.917253e-002
2.557255e+003;1.958676e-002
2.559183e+003;1.967665e-002
2.561112e+003;1.979738e-002
2.563040e+003;2.022075e-002
2.564969e+003;2.058772e-002
2.566897e+003;2.108858e-002
2.568826e+003;2.158793e-002
2.570754e+003;2.216090e-002
2.572683e+003;2.305435e-002
2.574612e+003;2.385785e-002
2.576540e+003;2.430765e-002
2.578469e+003;2.486639e-002
2.580397e+003;2.530625e-002
2.582326e+003;2.520438e-002
2.584254e+003;2.484208e-002
2.586183e+003;2.418320e-002
2.588111e+003;2.345243e-002
2.590040e+003;2.284531e-002
2.591969e+003;2.227643e-002
2.593897e+003;2.183409e-002
2.595826e+003;2.155286e-002
2.597754e+003;2.143661e-002
2.599683e+003;2.174964e-002
2.601611e+003;2.197881e-002
2.603540e+003;2.201897e-002
2.605468e+003;2.229914e-002
2.607397e+003;2.304240e-002
2.609325e+003;2.369612e-002
2.611254e+003;2.372908e-002
2.613183e+003;2.386982e-002
2.615111e+003;2.403890e-002
2.617040e+003;2.407672e-002
2.618968e+003;2.396098e-002
2.620897e+003;2.400279e-002
2.622825e+003;2.411041e-002
2.624754e+003;2.365682e-002
2.626682e+003;2.322632e-002
2.628611e+003;2.318861e-002
2.630540e+003;2.293228e-002
2.632468e+003;2.291307e-002
2.634396e+003;2.321105e-002
2.636325e+003;2.341984e-002
2.638254e+003;2.327683e-002
2.640182e+003;2.351392e-002
2.642111e+003;2.408554e-002
2.644039e+003;2.450428e-002
2.645968e+003;2.482352e-002
2.647896e+003;2.527636e-002
2.649825e+003;2.552238e-002
2.651753e+003;2.577451e-002
2.653682e+003;2.597493e-002
2.655611e+003;2.622500e-002
2.657539e+003;2.641433e-002
2.659468e+003;2.677561e-002
2.661396e+003;2.724824e-002
2.663325e+003;2.741274e-002
2.665253e+003;2.732071e-002
2.667182e+003;2.714351e-002
2.669110e+003;2.691237e-002
2.671039e+003;2.688455e-002
2.672968e+003;2.708849e-002
2.674896e+003;2.744310e-002
2.676825e+003;2.766912e-002
2.678753e+003;2.776179e-002
2.680682e+003;2.792765e-002
2.682610e+003;2.776013e-002
2.684539e+003;2.765552e-002
2.686467e+003;2.784247e-002
2.688396e+003;2.812953e-002
2.690324e+003;2.842510e-002
2.692253e+003;2.837151e-002
2.694182e+003;2.781880e-002
2.696110e+003;2.759154e-002
2.698039e+003;2.795062e-002
2.699967e+003;2.851995e-002
2.701896e+003;2.917308e-002
2.703824e+003;3.002903e-002
2.705753e+003;3.086309e-002
2.707681e+003;3.164811e-002
2.709610e+003;3.266190e-002
2.711539e+003;3.382198e-002
2.713467e+003;3.526370e-002
2.715396e+003;3.678747e-002
2.717324e+003;3.827476e-002
2.719253e+003;3.991654e-002
2.721181e+003;4.111899e-002
2.723110e+003;4.144402e-002
2.725038e+003;4.092205e-002
2.726967e+003;4.002676e-002
2.728896e+003;3.885152e-002
2.730824e+003;3.746941e-002
2.732752e+003;3.650464e-002
2.734681e+003;3.557744e-002
2.736610e+003;3.444142e-002
2.738538e+003;3.345694e-002
2.740467e+003;3.240056e-002
2.742395e+003;3.113190e-002
2.744324e+003;3.018994e-002
2.746252e+003;2.974753e-002
2.748181e+003;2.973820e-002
2.750109e+003;2.982336e-002
2.752038e+003;2.981410e-002
2.753967e+003;2.959313e-002
2.755895e+003;2.994589e-002
2.757824e+003;3.038499e-002
2.759752e+003;3.064170e-002
2.761681e+003;3.121799e-002
2.763609e+003;3.140933e-002
2.765538e+003;3.140591e-002
2.767466e+003;3.179258e-002
2.769395e+003;3.225425e-002
2.771323e+003;3.291789e-002
2.773252e+003;3.361812e-002
2.775181e+003;3.411106e-002
2.777109e+003;3.479947e-002
2.779038e+003;3.579654e-002
2.780966e+003;3.668030e-002
2.782895e+003;3.787414e-002
2.784823e+003;3.936466e-002
2.786752e+003;4.086701e-002
2.788680e+003;4.279011e-002
2.790609e+003;4.469287e-002
2.792538e+003;4.616494e-002
2.794466e+003;4.746108e-002
2.796395e+003;4.850102e-002
2.798323e+003;4.972867e-002
2.800252e+003;5.117084e-002
2.802180e+003;5.289932e-002
2.804109e+003;5.506438e-002
2.806037e+003;5.742438e-002
2.807966e+003;5.973378e-002
2.809895e+003;6.184974e-002
2.811823e+003;6.380432e-002
2.813751e+003;6.577453e-002
2.815680e+003;6.788328e-002
2.817609e+003;7.043784e-002
2.819537e+003;7.293599e-002
2.821466e+003;7.566494e-002
2.823394e+003;7.925897e-002
2.825323e+003;8.376078e-002
2.827251e+003;9.002300e-002
2.829180e+003;9.802612e-002
2.831108e+003;1.074453e-001
2.833037e+003;1.174204e-001
2.834966e+003;1.254210e-001
2.836894e+003;1.292027e-001
2.838823e+003;1.285917e-001
2.840751e+003;1.253307e-001
2.842680e+003;1.211309e-001
2.844608e+003;1.163811e-001
2.846537e+003;1.113391e-001
2.848465e+003;1.076070e-001
2.850394e+003;1.055092e-001
2.852323e+003;1.040612e-001
2.854251e+003;1.034047e-001
2.856180e+003;1.043953e-001
2.858108e+003;1.074457e-001
2.860037e+003;1.132127e-001
2.861965e+003;1.209925e-001
2.863894e+003;1.286357e-001
2.865822e+003;1.348057e-001
2.867751e+003;1.386559e-001
2.869679e+003;1.402390e-001
2.871608e+003;1.403571e-001
2.873536e+003;1.399490e-001
2.875465e+003;1.395031e-001
2.877394e+003;1.384631e-001
2.879322e+003;1.371016e-001
2.881251e+003;1.360166e-001
2.883179e+003;1.349374e-001
2.885108e+003;1.344531e-001
2.887036e+003;1.349983e-001
2.888965e+003;1.367405e-001
2.890893e+003;1.391860e-001
2.892822e+003;1.419275e-001
2.894750e+003;1.455373e-001
2.896679e+003;1.504146e-001
2.898608e+003;1.557354e-001
2.900536e+003;1.609947e-001
2.902465e+003;1.665854e-001
2.904393e+003;1.728844e-001
2.906322e+003;1.785488e-001
2.908250e+003;1.834924e-001
2.910179e+003;1.883313e-001
2.912107e+003;1.921070e-001
2.914036e+003;1.948363e-001
2.915965e+003;1.960571e-001
2.917893e+003;1.948784e-001
2.919822e+003;1.924612e-001
2.921750e+003;1.887559e-001
2.923679e+003;1.829253e-001
2.925607e+003;1.762044e-001
2.927536e+003;1.690008e-001
2.929464e+003;1.606866e-001
2.931393e+003;1.516472e-001
2.933322e+003;1.430575e-001
2.935250e+003;1.356556e-001
2.937178e+003;1.303530e-001
2.939107e+003;1.279072e-001
2.941036e+003;1.287689e-001
2.942964e+003;1.334683e-001
2.944893e+003;1.411196e-001
2.946821e+003;1.499805e-001
2.948750e+003;1.578735e-001
2.950678e+003;1.620311e-001
2.952607e+003;1.622096e-001
2.954535e+003;1.596792e-001
2.956464e+003;1.553640e-001
2.958393e+003;1.499936e-001
2.960321e+003;1.435341e-001
2.962250e+003;1.362690e-001
2.964178e+003;1.286357e-001
2.966107e+003;1.213773e-001
2.968035e+003;1.139756e-001
2.969964e+003;1.063119e-001
2.971892e+003;9.899741e-002
2.973821e+003;9.262238e-002
2.975750e+003;8.757977e-002
2.977678e+003;8.303737e-002
2.979607e+003;7.894237e-002
2.981535e+003;7.537972e-002
2.983464e+003;7.199786e-002
2.985392e+003;6.873220e-002
2.987321e+003;6.575641e-002
2.989249e+003;6.279478e-002
2.991178e+003;6.019612e-002
2.993106e+003;5.822565e-002
2.995035e+003;5.578474e-002
2.996964e+003;5.313570e-002
2.998892e+003;5.097264e-002
3.000821e+003;4.899505e-002
3.002749e+003;4.689755e-002
3.004678e+003;4.485839e-002
3.006606e+003;4.279227e-002
3.008535e+003;4.095475e-002
3.010463e+003;3.944487e-002
3.012392e+003;3.784276e-002
3.014321e+003;3.645754e-002
3.016249e+003;3.501355e-002
3.018177e+003;3.351037e-002
3.020106e+003;3.250118e-002
3.022035e+003;3.183397e-002
3.023963e+003;3.106677e-002
3.025892e+003;2.996399e-002
3.027820e+003;2.908450e-002
3.029749e+003;2.842920e-002
3.031677e+003;2.762473e-002
3.033606e+003;2.711995e-002
3.035534e+003;2.670890e-002
3.037463e+003;2.607505e-002
3.039392e+003;2.560398e-002
3.041320e+003;2.498346e-002
3.043249e+003;2.479167e-002
3.045177e+003;2.466834e-002
3.047106e+003;2.427531e-002
3.049034e+003;2.399726e-002
3.050963e+003;2.397495e-002
3.052891e+003;2.391036e-002
3.054820e+003;2.347555e-002
3.056749e+003;2.301574e-002
3.058677e+003;2.270393e-002
3.060606e+003;2.217896e-002
3.062534e+003;2.189960e-002
3.064463e+003;2.213684e-002
3.066391e+003;2.247071e-002
3.068320e+003;2.216735e-002
3.070248e+003;2.172226e-002
3.072177e+003;2.176061e-002
3.074105e+003;2.185405e-002
3.076034e+003;2.137121e-002
3.077963e+003;2.084037e-002
3.079891e+003;2.072272e-002
3.081820e+003;2.068261e-002
3.083748e+003;2.092273e-002
3.085677e+003;2.103909e-002
3.087605e+003;2.076418e-002
3.089534e+003;2.055517e-002
3.091462e+003;2.031615e-002
3.093391e+003;2.027803e-002
3.095320e+003;2.024370e-002
3.097248e+003;2.017483e-002
3.099177e+003;2.032761e-002
3.101105e+003;2.069735e-002
3.103034e+003;2.104729e-002
3.104962e+003;2.094742e-002
3.106891e+003;2.074232e-002
3.108819e+003;2.052779e-002
3.110748e+003;2.044467e-002
3.112677e+003;2.041203e-002
3.114605e+003;2.027730e-002
3.116533e+003;2.061225e-002
3.118462e+003;2.094797e-002
3.120391e+003;2.061190e-002
3.122319e+003;2.035688e-002
3.124248e+003;2.017410e-002
3.126176e+003;2.038376e-002
3.128105e+003;2.102441e-002
3.130033e+003;2.121420e-002
3.131962e+003;2.135600e-002
3.133890e+003;2.154259e-002
3.135819e+003;2.111467e-002
3.137748e+003;2.086756e-002
3.139676e+003;2.147174e-002
3.141605e+003;2.201813e-002
3.143533e+003;2.226475e-002
3.145462e+003;2.226021e-002
3.147390e+003;2.194163e-002
3.149319e+003;2.154057e-002
3.151247e+003;2.199331e-002
3.153176e+003;2.214660e-002
3.155104e+003;2.160785e-002
3.157033e+003;2.149482e-002
3.158962e+003;2.178583e-002
3.160890e+003;2.217010e-002
3.162819e+003;2.208705e-002
3.164747e+003;2.169526e-002
3.166676e+003;2.181966e-002
3.168604e+003;2.218164e-002
3.170533e+003;2.227755e-002
3.172461e+003;2.222188e-002
3.174390e+003;2.247476e-002
3.176319e+003;2.262479e-002
3.178247e+003;2.239287e-002
3.180176e+003;2.257160e-002
3.182104e+003;2.277292e-002
3.184033e+003;2.263132e-002
3.185961e+003;2.260242e-002
3.187890e+003;2.292795e-002
3.189818e+003;2.318389e-002
3.191747e+003;2.328973e-002
3.193676e+003;2.299093e-002
3.195604e+003;2.273434e-002
3.197532e+003;2.296099e-002
3.199461e+003;2.312559e-002
3.201390e+003;2.287325e-002
3.203318e+003;2.271657e-002
3.205247e+003;2.286124e-002
3.207175e+003;2.265020e-002
3.209104e+003;2.230716e-002
3.211032e+003;2.243630e-002
3.212961e+003;2.259673e-002
3.214889e+003;2.214221e-002
3.216818e+003;2.175131e-002
3.218747e+003;2.179559e-002
3.220675e+003;2.174427e-002
3.222604e+003;2.165775e-002
3.224532e+003;2.165852e-002
3.226461e+003;2.149928e-002
3.228389e+003;2.111818e-002
3.230318e+003;2.102149e-002
3.232246e+003;2.072706e-002
3.234175e+003;2.031542e-002
3.236104e+003;2.020350e-002
3.238032e+003;2.035858e-002
3.239961e+003;2.023502e-002
3.241889e+003;2.023963e-002
3.243818e+003;2.028834e-002
3.245746e+003;2.024113e-002
3.247675e+003;1.978348e-002
3.249603e+003;1.951453e-002
3.251532e+003;1.968590e-002
3.253460e+003;1.963047e-002
3.255389e+003;1.945648e-002
3.257318e+003;1.933761e-002
3.259246e+003;1.923262e-002
3.261175e+003;1.894632e-002
3.263103e+003;1.875240e-002
3.265032e+003;1.909929e-002
3.266960e+003;1.926497e-002
3.268889e+003;1.893493e-002
3.270817e+003;1.918739e-002
3.272746e+003;1.955258e-002
3.274675e+003;1.926018e-002
3.276603e+003;1.934207e-002
3.278531e+003;1.997567e-002
3.280460e+003;1.993595e-002
3.282389e+003;1.963345e-002
3.284317e+003;1.975751e-002
3.286246e+003;1.993241e-002
3.288174e+003;1.978819e-002
3.290103e+003;1.952219e-002
3.292031e+003;1.948947e-002
3.293960e+003;1.969398e-002
3.295888e+003;1.971458e-002
3.297817e+003;1.980259e-002
3.299746e+003;1.986300e-002
3.301674e+003;1.977086e-002
3.303603e+003;1.972838e-002
3.305531e+003;1.980054e-002
3.307460e+003;1.990695e-002
3.309388e+003;1.998553e-002
3.311317e+003;1.963307e-002
3.313245e+003;1.928312e-002
3.315174e+003;1.910792e-002
3.317103e+003;1.919407e-002
3.319031e+003;1.910999e-002
3.320960e+003;1.905328e-002
3.322888e+003;1.922638e-002
3.324817e+003;1.919185e-002
3.326745e+003;1.913170e-002
3.328674e+003;1.980259e-002
3.330602e+003;1.993935e-002
3.332531e+003;1.947956e-002
3.334459e+003;1.936536e-002
3.336388e+003;1.933906e-002
3.338317e+003;1.939889e-002
3.340245e+003;1.945679e-002
3.342174e+003;1.940547e-002
3.344102e+003;1.941251e-002
3.346031e+003;1.897141e-002
3.347959e+003;1.845930e-002
3.349888e+003;1.844578e-002
3.351816e+003;1.892984e-002
3.353745e+003;1.956385e-002
3.355674e+003;1.971874e-002
3.357602e+003;1.962870e-002
3.359531e+003;1.986973e-002
3.361459e+003;1.995798e-002
3.363388e+003;1.982398e-002
3.365316e+003;1.940128e-002
3.367245e+003;1.875292e-002
3.369173e+003;1.860864e-002
3.371102e+003;1.892881e-002
3.373031e+003;1.923639e-002
3.374959e+003;1.905037e-002
3.376887e+003;1.871711e-002
3.378816e+003;1.838003e-002
3.380745e+003;1.850469e-002
3.382673e+003;1.843095e-002
3.384602e+003;1.820979e-002
3.386530e+003;1.854276e-002
3.388459e+003;1.887184e-002
3.390387e+003;1.897148e-002
3.392316e+003;1.898986e-002
3.394244e+003;1.869290e-002
3.396173e+003;1.804770e-002
3.398102e+003;1.791232e-002
3.400030e+003;1.811374e-002
3.401959e+003;1.824838e-002
3.403887e+003;1.787838e-002
3.405816e+003;1.771482e-002
3.407744e+003;1.809312e-002
3.409673e+003;1.810890e-002
3.411601e+003;1.811146e-002
3.413530e+003;1.843150e-002
3.415458e+003;1.847593e-002
3.417387e+003;1.807550e-002
3.419316e+003;1.767855e-002
3.421244e+003;1.814176e-002
3.423173e+003;1.846023e-002
3.425101e+003;1.783277e-002
3.427030e+003;1.761471e-002
3.428958e+003;1.781731e-002
3.430887e+003;1.768438e-002
3.432815e+003;1.660907e-002
3.434744e+003;1.606463e-002
3.436673e+003;1.680548e-002
3.438601e+003;1.721811e-002
3.440530e+003;1.720956e-002
3.442458e+003;1.666750e-002
3.444387e+003;1.616473e-002
3.446315e+003;1.580896e-002
3.448244e+003;1.587223e-002
3.450172e+003;1.610469e-002
3.452101e+003;1.603276e-002
3.454030e+003;1.602873e-002
3.455958e+003;1.584048e-002
3.457886e+003;1.554119e-002
3.459815e+003;1.570981e-002
3.461744e+003;1.561022e-002
3.463672e+003;1.543200e-002
3.465601e+003;1.527808e-002
3.467529e+003;1.496523e-002
3.469458e+003;1.471055e-002
3.471386e+003;1.467340e-002
3.473315e+003;1.455147e-002
3.475243e+003;1.435262e-002
3.477172e+003;1.409044e-002
3.479101e+003;1.400180e-002
3.481029e+003;1.428732e-002
3.482958e+003;1.450484e-002
3.484886e+003;1.439516e-002
3.486815e+003;1.412275e-002
3.488743e+003;1.377645e-002
3.490672e+003;1.362725e-002
3.492600e+003;1.388321e-002
3.494529e+003;1.357156e-002
3.496458e+003;1.329075e-002
3.498386e+003;1.336926e-002
3.500315e+003;1.331593e-002
3.502243e+003;1.297659e-002
3.504172e+003;1.328938e-002
3.506100e+003;1.375299e-002
3.508029e+003;1.375795e-002
3.509957e+003;1.343655e-002
3.511886e+003;1.324637e-002
3.513814e+003;1.319411e-002
3.515743e+003;1.317361e-002
3.517672e+003;1.301776e-002
3.519600e+003;1.297672e-002
3.521529e+003;1.288473e-002
3.523457e+003;1.270305e-002
3.525386e+003;1.273038e-002
3.527314e+003;1.276539e-002
3.529243e+003;1.301708e-002
3.531171e+003;1.278518e-002
3.533100e+003;1.209240e-002
3.535029e+003;1.191259e-002
3.536957e+003;1.199324e-002
3.538885e+003;1.183937e-002
3.540814e+003;1.168475e-002
3.542743e+003;1.142784e-002
3.544671e+003;1.143553e-002
3.546600e+003;1.214327e-002
3.548528e+003;1.212105e-002
3.550457e+003;1.140147e-002
3.552385e+003;1.094625e-002
3.554314e+003;1.076072e-002
3.556242e+003;1.058492e-002
3.558171e+003;1.087636e-002
3.560100e+003;1.094370e-002
3.562028e+003;1.058278e-002
3.563957e+003;1.047055e-002
3.565885e+003;1.023339e-002
3.567814e+003;1.001182e-002
3.569742e+003;1.014618e-002
3.571671e+003;9.961068e-003
3.573599e+003;9.740891e-003
3.575528e+003;9.888860e-003
3.577457e+003;9.583487e-003
3.579385e+003;9.398409e-003
3.581314e+003;9.720865e-003
3.583242e+003;9.426987e-003
3.585171e+003;8.989890e-003
3.587099e+003;9.008766e-003
3.589028e+003;9.449166e-003
3.590956e+003;9.837781e-003
3.592885e+003;9.278024e-003
3.594813e+003;8.837424e-003
3.596742e+003;8.974127e-003
3.598671e+003;8.928160e-003
3.600599e+003;9.181529e-003
3.602528e+003;9.305814e-003
3.604456e+003;9.080759e-003
3.606385e+003;8.964994e-003
3.608313e+003;8.755937e-003
3.610242e+003;8.338058e-003
3.612170e+003;8.153274e-003
3.614099e+003;8.495181e-003
3.616028e+003;8.886629e-003
3.617956e+003;8.684336e-003
3.619885e+003;8.306851e-003
3.621813e+003;8.312929e-003
3.623742e+003;8.338565e-003
3.625670e+003;7.785559e-003
3.627599e+003;6.785134e-003
3.629527e+003;6.834712e-003
3.631456e+003;7.717727e-003
3.633385e+003;8.179002e-003
3.635313e+003;8.233838e-003
3.637241e+003;8.452981e-003
3.639170e+003;8.798167e-003
3.641099e+003;8.879391e-003
3.643027e+003;8.431596e-003
3.644956e+003;7.783873e-003
3.646884e+003;7.468042e-003
3.648813e+003;7.373196e-003
3.650741e+003;7.655334e-003
3.652670e+003;7.904924e-003
3.654598e+003;7.413875e-003
3.656527e+003;7.420178e-003
3.658456e+003;7.553940e-003
3.660384e+003;7.225575e-003
3.662313e+003;7.647713e-003
3.664241e+003;8.264128e-003
3.666170e+003;8.169953e-003
3.668098e+003;7.849657e-003
3.670027e+003;7.865751e-003
3.671955e+003;8.296246e-003
3.673884e+003;7.942447e-003
3.675813e+003;7.826514e-003
3.677741e+003;8.748669e-003
3.679669e+003;8.978727e-003
3.681598e+003;8.485111e-003
3.683527e+003;8.630289e-003
3.685455e+003;8.890044e-003
3.687384e+003;8.491126e-003
3.689312e+003;8.317624e-003
3.691241e+003;8.509068e-003
3.693169e+003;8.774905e-003
3.695098e+003;8.843984e-003
3.697026e+003;8.658410e-003
3.698955e+003;8.922951e-003
3.700884e+003;8.636845e-003
3.702812e+003;8.432846e-003
3.704741e+003;8.351097e-003
3.706669e+003;8.247345e-003
3.708598e+003;8.548840e-003
3.710526e+003;8.743226e-003
3.712455e+003;8.731968e-003
3.714383e+003;8.550564e-003
3.716312e+003;8.184133e-003
3.718240e+003;8.446156e-003
3.720169e+003;8.922445e-003
3.722098e+003;9.144203e-003
3.724026e+003;8.888657e-003
3.725955e+003;8.387341e-003
3.727883e+003;8.109723e-003
3.729812e+003;8.286249e-003
3.731740e+003;8.344206e-003
3.733669e+003;8.110365e-003
3.735597e+003;7.978861e-003
3.737526e+003;8.050481e-003
3.739455e+003;8.230866e-003
3.741383e+003;8.249810e-003
3.743312e+003;7.459109e-003
3.745240e+003;7.289321e-003
3.747169e+003;7.744980e-003
3.749097e+003;7.642890e-003
3.751026e+003;7.973158e-003
3.752954e+003;8.605616e-003
3.754883e+003;8.815581e-003
3.756812e+003;8.649183e-003
3.758740e+003;9.023651e-003
3.760668e+003;9.519979e-003
3.762597e+003;9.629964e-003
3.764526e+003;9.487568e-003
3.766454e+003;9.453907e-003
3.768383e+003;9.139533e-003
3.770311e+003;8.547692e-003
3.772240e+003;8.600681e-003
3.774168e+003;8.975176e-003
3.776097e+003;8.980690e-003
3.778025e+003;9.095613e-003
3.779954e+003;9.213003e-003
3.781883e+003;9.203629e-003
3.783811e+003;9.328090e-003
3.785740e+003;9.515136e-003
3.787668e+003;9.499015e-003
3.789597e+003;9.774202e-003
3.791525e+003;9.650867e-003
3.793454e+003;9.255785e-003
3.795382e+003;9.263468e-003
3.797311e+003;9.320811e-003
3.799240e+003;8.965840e-003
3.801168e+003;8.685249e-003
3.803097e+003;8.788429e-003
3.805025e+003;8.617208e-003
3.806954e+003;8.129810e-003
3.808882e+003;8.496904e-003
3.810811e+003;8.920685e-003
3.812739e+003;8.996114e-003
3.814668e+003;8.826063e-003
3.816596e+003;9.046385e-003
3.818525e+003;8.877971e-003
3.820454e+003;8.456022e-003
3.822382e+003;8.890620e-003
3.824311e+003;9.420790e-003
3.826239e+003;9.475546e-003
3.828168e+003;9.159803e-003
3.830096e+003;9.074974e-003
3.832025e+003;9.377789e-003
3.833953e+003;9.568922e-003
3.835882e+003;9.349654e-003
3.837811e+003;8.724429e-003
3.839739e+003;8.565737e-003
3.841667e+003;8.582397e-003
3.843596e+003;8.444197e-003
3.845525e+003;8.300974e-003
3.847453e+003;8.799689e-003
3.849382e+003;9.513815e-003
3.851310e+003;9.168568e-003
3.853239e+003;8.667638e-003
3.855167e+003;9.394447e-003
3.857096e+003;1.020442e-002
3.859024e+003;1.022963e-002
3.860953e+003;1.021423e-002
3.862882e+003;1.024028e-002
3.864810e+003;9.794332e-003
3.866739e+003;1.005726e-002
3.868667e+003;9.863880e-003
3.870596e+003;9.002609e-003
3.872524e+003;9.021994e-003
3.874453e+003;9.528243e-003
3.876381e+003;9.733775e-003
3.878310e+003;9.377857e-003
3.880239e+003;9.230264e-003
3.882167e+003;9.802059e-003
3.884096e+003;1.011372e-002
3.886024e+003;1.006513e-002
3.887953e+003;1.039263e-002
3.889881e+003;1.015731e-002
3.891810e+003;9.765967e-003
3.893738e+003;9.985648e-003
3.895667e+003;1.055555e-002
3.897595e+003;1.059463e-002
3.899524e+003;1.030108e-002
3.901453e+003;9.686000e-003
3.903381e+003;9.849474e-003
3.905310e+003;1.028771e-002
3.907238e+003;9.883539e-003
3.909167e+003;9.467859e-003
3.911095e+003;9.741534e-003
3.913024e+003;1.052704e-002
3.914952e+003;1.052184e-002
3.916881e+003;9.627084e-003
3.918810e+003;9.597375e-003
3.920738e+003;1.044846e-002
3.922667e+003;1.059565e-002
3.924595e+003;1.037634e-002
3.926524e+003;1.064903e-002
3.928452e+003;1.072730e-002
3.930381e+003;1.078209e-002
3.932309e+003;1.084276e-002
3.934238e+003;1.102121e-002
3.936167e+003;1.168958e-002
3.938095e+003;1.205540e-002
3.940023e+003;1.159190e-002
3.941952e+003;1.123466e-002
3.943881e+003;1.147138e-002
3.945809e+003;1.147118e-002
3.947738e+003;1.094523e-002
3.949666e+003;1.025748e-002
3.951595e+003;1.037240e-002
3.953523e+003;1.091798e-002
3.955452e+003;1.102699e-002
3.957380e+003;1.067748e-002
3.959309e+003;1.039992e-002
3.961238e+003;1.076079e-002
3.963166e+003;1.060811e-002
3.965095e+003;1.021073e-002
3.967023e+003;1.041323e-002
3.968952e+003;1.077957e-002
3.970880e+003;1.103542e-002
3.972809e+003;1.129318e-002
3.974737e+003;1.128886e-002
3.976666e+003;1.101098e-002
3.978594e+003;1.095471e-002
3.980523e+003;1.131968e-002
3.982452e+003;1.172835e-002
3.984380e+003;1.185626e-002
3.986309e+003;1.196878e-002
3.988237e+003;1.219115e-002
3.990166e+003;1.249069e-002
3.992094e+003;1.240190e-002
3.994023e+003;1.185854e-002
3.995951e+003;1.191221e-002
3.997880e+003;1.204287e-002
3.999809e+003;1.164982e-002
4.001737e+003;0.000000e+000
