3.992094e+002;0.000000e+000
4.011380e+002;0.000000e+000
4.030665e+002;0.000000e+000
4.049951e+002;0.000000e+000
4.069236e+002;0.000000e+000
4.088522e+002;0.000000e+000
4.107807e+002;0.000000e+000
4.127093e+002;0.000000e+000
4.146378e+002;0.000000e+000
4.165664e+002;0.000000e+000
4.184949e+002;0.000000e+000
4.204235e+002;0.000000e+000
4.223520e+002;0.000000e+000
4.242806e+002;0.000000e+000
4.262091e+002;0.000000e+000
4.281377e+002;0.000000e+000
4.300662e+002;0.000000e+000
4.319948e+002;0.000000e+000
4.339233e+002;0.000000e+000
4.358519e+002;0.000000e+000
4.377804e+002;0.000000e+000
4.397090e+002;0.000000e+000
4.416375e+002;0.000000e+000
4.435660e+002;0.000000e+000
4.454946e+002;0.000000e+000
4.474232e+002;0.000000e+000
4.493517e+002;0.000000e+000
4.512802e+002;0.000000e+000
4.532088e+002;0.000000e+000
4.551373e+002;0.000000e+000
4.570659e+002;0.000000e+000
4.589944e+002;0.000000e+000
4.609230e+002;0.000000e+000
4.628515e+002;0.000000e+000
4.647801e+002;0.000000e+000
4.667086e+002;0.000000e+000
4.686372e+002;0.000000e+000
4.705657e+002;0.000000e+000
4.724943e+002;0.000000e+000
4.744228e+002;0.000000e+000
4.763513e+002;0.000000e+000
4.782799e+002;0.000000e+000
4.802085e+002;0.000000e+000
4.821370e+002;0.000000e+000
4.840656e+002;0.000000e+000
4.859941e+002;0.000000e+000
4.879226e+002;0.000000e+000
4.898512e+002;0.000000e+000
4.917798e+002;0.000000e+000
4.937083e+002;0.000000e+000
4.956368e+002;0.000000e+000
4.975654e+002;0.000000e+000
4.994939e+002;0.000000e+000
5.014225e+002;0.000000e+000
5.033510e+002;0.000000e+000
5.052796e+002;0.000000e+000
5.072081e+002;0.000000e+000
5.091367e+002;0.000000e+000
5.110652e+002;0.000000e+000
5.129938e+002;0.000000e+000
5.149223e+002;0.000000e+000
5.168509e+002;0.000000e+000
5.187794e+002;0.000000e+000
5.207079e+002;0.000000e+000
5.226365e+002;0.000000e+000
5.245651e+002;0.000000e+000
5.264936e+002;0.000000e+000
5.284222e+002;0.000000e+000
5.303507e+002;0.000000e+000
5.322792e+002;0.000000e+000
5.342078e+002;0.000000e+000
5.361364e+002;0.000000e+000
5.380649e+002;0.000000e+000
5.399935e+002;0.000000e+000
5.419220e+002;0.000000e+000
5.438505e+002;0.000000e+000
5.457791e+002;0.000000e+000
5.477076e+002;0.000000e+000
5.496362e+002;0.000000e+000
5.515648e+002;0.000000e+000
5.534933e+002;0.000000e+000
5.554218e+002;0.000000e+000
5.573504e+002;0.000000e+000
5.592789e+002;0.000000e+000
5.612075e+002;0.000000e+000
5.631360e+002;0.000000e+000
5.650646e+002;0.000000e+000
5.669931e+002;0.000000e+000
5.689217e+002;0.000000e+000
5.708502e+002;0.000000e+000
5.727787e+002;0.000000e+000
5.747073e+002;0.000000e+000
5.766359e+002;0.000000e+000
5.785644e+002;0.000000e+000
5.804930e+002;0.000000e+000
5.824215e+002;0.000000e+000
5.843500e+002;0.000000e+000
5.862786e+002;0.000000e+000
5.882072e+002;0.000000e+000
5.901357e+002;0.000000e+000
5.920643e+002;0.000000e+000
5.939928e+002;0.000000e+000
5.959213e+002;0.000000e+000
5.978499e+002;0.000000e+000
5.997784e+002;2.969093e-002
6.017070e+002;2.426683e-002
6.036355e+002;1.848187e-002
6.055641e+002;2.292205e-002
6.074926e+002;2.612773e-002
6.094211e+002;2.205721e-002
6.113497e+002;2.543166e-002
6.132783e+002;3.197989e-002
6.152068e+002;2.900957e-002
6.171354e+002;2.392772e-002
6.190639e+002;2.459501e-002
6.209924e+002;2.589326e-002
6.229210e+002;2.736496e-002
6.248495e+002;2.724288e-002
6.267781e+002;2.636352e-002
6.287067e+002;2.381861e-002
6.306352e+002;2.313419e-002
6.325637e+002;2.444160e-002
6.344923e+002;2.713504e-002
6.364208e+002;2.769829e-002
6.383494e+002;2.762656e-002
6.402780e+002;2.684691e-002
6.422065e+002;2.412887e-002
6.441350e+002;2.432002e-002
6.460636e+002;2.594387e-002
6.479921e+002;2.638517e-002
6.499207e+002;2.690532e-002
6.518492e+002;2.614497e-002
6.537778e+002;2.300271e-002
6.557063e+002;2.048646e-002
6.576349e+002;2.042408e-002
6.595634e+002;2.210933e-002
6.614919e+002;2.278933e-002
6.634205e+002;2.146662e-002
6.653491e+002;2.066322e-002
6.672776e+002;2.112653e-002
6.692062e+002;2.128421e-002
6.711347e+002;2.099791e-002
6.730632e+002;2.153695e-002
6.749918e+002;2.248829e-002
6.769203e+002;2.277264e-002
6.788489e+002;2.237180e-002
6.807775e+002;2.191138e-002
6.827060e+002;2.102754e-002
6.846345e+002;2.047746e-002
6.865631e+002;2.048781e-002
6.884916e+002;2.153772e-002
6.904202e+002;2.133094e-002
6.923488e+002;1.967803e-002
6.942773e+002;2.012596e-002
6.962058e+002;2.084798e-002
6.981344e+002;2.039914e-002
7.000629e+002;2.057198e-002
7.019915e+002;2.076922e-002
7.039200e+002;2.247730e-002
7.058486e+002;2.468149e-002
7.077771e+002;2.714435e-002
7.097057e+002;3.078405e-002
7.116342e+002;3.542448e-002
7.135627e+002;3.859039e-002
7.154913e+002;3.900225e-002
7.174199e+002;3.704813e-002
7.193484e+002;3.426610e-002
7.212770e+002;3.108506e-002
7.232055e+002;2.962523e-002
7.251340e+002;2.849310e-002
7.270626e+002;2.700985e-002
7.289911e+002;2.589815e-002
7.309197e+002;2.596473e-002
7.328483e+002;2.573291e-002
7.347768e+002;2.483794e-002
7.367053e+002;2.438671e-002
7.386339e+002;2.476178e-002
7.405624e+002;2.540085e-002
7.424910e+002;2.552955e-002
7.444196e+002;2.440813e-002
7.463481e+002;2.386044e-002
7.482766e+002;2.369115e-002
7.502052e+002;2.333183e-002
7.521337e+002;2.339802e-002
7.540623e+002;2.269621e-002
7.559908e+002;2.188538e-002
7.579194e+002;2.180935e-002
7.598479e+002;2.293724e-002
7.617765e+002;2.351650e-002
7.637050e+002;2.371848e-002
7.656335e+002;2.422591e-002
7.675621e+002;2.452331e-002
7.694907e+002;2.473775e-002
7.714192e+002;2.401992e-002
7.733478e+002;2.387724e-002
7.752763e+002;2.436018e-002
7.772048e+002;2.443028e-002
7.791334e+002;2.456184e-002
7.810620e+002;2.513106e-002
7.829905e+002;2.567238e-002
7.849191e+002;2.578020e-002
7.868476e+002;2.605975e-002
7.887761e+002;2.648437e-002
7.907047e+002;2.679182e-002
7.926332e+002;2.783639e-002
7.945618e+002;2.904507e-002
7.964903e+002;2.993396e-002
7.984189e+002;3.144106e-002
8.003474e+002;3.301140e-002
8.022759e+002;3.487439e-002
8.042045e+002;3.802304e-002
8.061331e+002;4.173176e-002
8.080616e+002;4.552101e-002
8.099902e+002;4.774026e-002
8.119187e+002;4.648060e-002
8.138472e+002;4.339217e-002
8.157758e+002;4.060520e-002
8.177043e+002;3.786933e-002
8.196329e+002;3.611296e-002
8.215615e+002;3.499042e-002
8.234900e+002;3.409751e-002
8.254185e+002;3.401483e-002
8.273471e+002;3.449039e-002
8.292756e+002;3.581161e-002
8.312042e+002;3.696800e-002
8.331328e+002;3.861215e-002
8.350613e+002;4.137437e-002
8.369898e+002;4.572329e-002
8.389184e+002;5.164829e-002
8.408469e+002;5.483790e-002
8.427755e+002;5.251823e-002
8.447040e+002;4.736193e-002
8.466326e+002;4.334106e-002
8.485611e+002;3.972348e-002
8.504897e+002;3.670024e-002
8.524182e+002;3.481408e-002
8.543467e+002;3.345687e-002
8.562753e+002;3.287149e-002
8.582039e+002;3.270895e-002
8.601324e+002;3.244276e-002
8.620610e+002;3.299395e-002
8.639895e+002;3.491946e-002
8.659180e+002;3.824509e-002
8.678466e+002;4.446344e-002
8.697751e+002;5.462776e-002
8.717037e+002;6.783691e-002
8.736323e+002;7.974011e-002
8.755608e+002;8.448007e-002
8.774893e+002;8.005171e-002
8.794179e+002;7.041072e-002
8.813464e+002;6.145342e-002
8.832750e+002;5.385838e-002
8.852036e+002;4.564654e-002
8.871321e+002;3.817692e-002
8.890606e+002;3.453638e-002
8.909892e+002;3.499699e-002
8.929177e+002;3.793546e-002
8.948463e+002;4.184755e-002
8.967748e+002;4.559038e-002
8.987034e+002;4.789655e-002
9.006319e+002;4.755135e-002
9.025605e+002;4.419670e-002
9.044890e+002;3.944535e-002
9.064175e+002;3.493217e-002
9.083461e+002;3.156911e-002
9.102747e+002;2.923067e-002
9.122032e+002;2.787836e-002
9.141318e+002;2.717134e-002
9.160603e+002;2.675633e-002
9.179888e+002;2.645415e-002
9.199174e+002;2.558352e-002
9.218459e+002;2.507756e-002
9.237745e+002;2.561266e-002
9.257031e+002;2.580070e-002
9.276316e+002;2.545565e-002
9.295601e+002;2.558433e-002
9.314887e+002;2.601109e-002
9.334172e+002;2.699635e-002
9.353458e+002;2.848726e-002
9.372744e+002;3.019431e-002
9.392029e+002;3.184795e-002
9.411314e+002;3.266826e-002
9.430600e+002;3.244805e-002
9.449885e+002;3.181547e-002
9.469171e+002;3.133329e-002
9.488456e+002;3.173754e-002
9.507742e+002;3.246958e-002
9.527027e+002;3.279970e-002
9.546313e+002;3.350640e-002
9.565598e+002;3.441811e-002
9.584883e+002;3.562041e-002
9.604169e+002;3.706791e-002
9.623455e+002;3.898916e-002
9.642740e+002;4.213927e-002
9.662026e+002;4.622368e-002
9.681311e+002;5.186841e-002
9.700596e+002;5.872124e-002
9.719882e+002;6.313346e-002
9.739167e+002;6.276553e-002
9.758453e+002;5.813295e-002
9.777739e+002;5.096069e-002
9.797024e+002;4.356489e-002
9.816309e+002;3.756243e-002
9.835595e+002;3.356736e-002
9.854880e+002;3.157452e-002
9.874166e+002;3.121297e-002
9.893452e+002;3.267072e-002
9.912737e+002;3.619316e-002
9.932022e+002;4.146877e-002
9.951307e+002;4.746356e-002
9.970593e+002;5.181028e-002
9.989879e+002;5.174496e-002
1.000916e+003;4.730055e-002
1.002845e+003;4.141464e-002
1.004773e+003;3.635078e-002
1.006702e+003;3.235301e-002
1.008631e+003;2.968682e-002
1.010559e+003;2.777987e-002
1.012488e+003;2.628621e-002
1.014416e+003;2.526249e-002
1.016345e+003;2.469051e-002
1.018273e+003;2.406415e-002
1.020202e+003;2.367684e-002
1.022130e+003;2.345386e-002
1.024059e+003;2.307031e-002
1.025988e+003;2.258566e-002
1.027916e+003;2.231085e-002
1.029845e+003;2.260186e-002
1.031773e+003;2.291740e-002
1.033702e+003;2.310480e-002
1.035630e+003;2.379547e-002
1.037559e+003;2.437770e-002
1.039487e+003;2.460192e-002
1.041416e+003;2.499448e-002
1.043344e+003;2.585405e-002
1.045273e+003;2.605134e-002
1.047202e+003;2.587413e-002
1.049130e+003;2.571892e-002
1.051059e+003;2.488117e-002
1.052987e+003;2.348132e-002
1.054916e+003;2.216400e-002
1.056844e+003;2.152128e-002
1.058773e+003;2.116713e-002
1.060701e+003;2.070610e-002
1.062630e+003;2.040900e-002
1.064558e+003;2.030507e-002
1.066487e+003;2.016660e-002
1.068416e+003;1.995645e-002
1.070344e+003;2.018857e-002
1.072273e+003;2.080575e-002
1.074201e+003;2.052126e-002
1.076130e+003;2.031612e-002
1.078058e+003;2.061162e-002
1.079987e+003;2.062382e-002
1.081915e+003;2.035622e-002
1.083844e+003;2.063490e-002
1.085773e+003;2.122129e-002
1.087701e+003;2.150885e-002
1.089630e+003;2.187071e-002
1.091558e+003;2.249953e-002
1.093487e+003;2.289927e-002
1.095415e+003;2.351329e-002
1.097344e+003;2.574283e-002
1.099272e+003;2.801063e-002
1.101201e+003;2.887941e-002
1.103129e+003;2.918733e-002
1.105058e+003;2.792543e-002
1.106987e+003;2.568778e-002
1.108915e+003;2.327614e-002
1.110844e+003;2.159016e-002
1.112772e+003;2.039181e-002
1.114701e+003;1.956062e-002
1.116629e+003;1.933598e-002
1.118558e+003;1.891707e-002
1.120486e+003;1.850801e-002
1.122415e+003;1.849114e-002
1.124344e+003;1.856099e-002
1.126272e+003;1.826442e-002
1.128201e+003;1.819334e-002
1.130129e+003;1.839047e-002
1.132058e+003;1.901039e-002
1.133986e+003;2.031539e-002
1.135915e+003;2.182402e-002
1.137843e+003;2.341316e-002
1.139772e+003;2.555298e-002
1.141700e+003;2.815407e-002
1.143629e+003;3.145121e-002
1.145557e+003;3.531599e-002
1.147486e+003;3.947786e-002
1.149415e+003;4.374965e-002
1.151343e+003;4.732265e-002
1.153272e+003;4.918634e-002
1.155200e+003;5.007006e-002
1.157129e+003;4.993139e-002
1.159057e+003;4.957005e-002
1.160986e+003;4.999350e-002
1.162914e+003;5.045842e-002
1.164843e+003;4.994607e-002
1.166771e+003;4.837911e-002
1.168700e+003;4.522510e-002
1.170629e+003;4.093429e-002
1.172557e+003;3.632794e-002
1.174486e+003;3.161283e-002
1.176414e+003;2.713000e-002
1.178343e+003;2.339823e-002
1.180271e+003;2.081708e-002
1.182200e+003;1.876745e-002
1.184128e+003;1.735910e-002
1.186057e+003;1.646306e-002
1.187986e+003;1.604238e-002
1.189914e+003;1.646637e-002
1.191843e+003;1.691468e-002
1.193771e+003;1.707348e-002
1.195700e+003;1.719364e-002
1.197628e+003;1.708306e-002
1.199557e+003;1.699406e-002
1.201485e+003;1.703702e-002
1.203414e+003;1.715207e-002
1.205343e+003;1.743639e-002
1.207271e+003;1.796353e-002
1.209200e+003;1.892323e-002
1.211128e+003;2.026768e-002
1.213057e+003;2.206993e-002
1.214985e+003;2.387787e-002
1.216914e+003;2.499964e-002
1.218842e+003;2.491566e-002
1.220771e+003;2.383040e-002
1.222699e+003;2.218060e-002
1.224628e+003;2.082070e-002
1.226557e+003;1.965845e-002
1.228485e+003;1.873624e-002
1.230414e+003;1.828688e-002
1.232342e+003;1.825049e-002
1.234271e+003;1.851306e-002
1.236199e+003;1.862355e-002
1.238128e+003;1.855431e-002
1.240056e+003;1.864212e-002
1.241985e+003;1.872680e-002
1.243913e+003;1.865637e-002
1.245842e+003;1.888703e-002
1.247771e+003;1.973718e-002
1.249699e+003;2.144271e-002
1.251628e+003;2.387829e-002
1.253556e+003;2.672046e-002
1.255485e+003;2.885948e-002
1.257413e+003;2.828309e-002
1.259342e+003;2.579662e-002
1.261270e+003;2.328557e-002
1.263199e+003;2.139432e-002
1.265127e+003;2.023856e-002
1.267056e+003;1.970685e-002
1.268985e+003;1.929718e-002
1.270913e+003;1.906374e-002
1.272842e+003;1.915940e-002
1.274770e+003;1.924315e-002
1.276699e+003;1.937350e-002
1.278627e+003;1.934273e-002
1.280556e+003;1.975168e-002
1.282484e+003;2.092965e-002
1.284413e+003;2.206801e-002
1.286342e+003;2.350297e-002
1.288270e+003;2.566306e-002
1.290199e+003;2.785802e-002
1.292127e+003;2.981162e-002
1.294056e+003;3.137470e-002
1.295984e+003;3.192629e-002
1.297913e+003;3.173554e-002
1.299841e+003;3.174962e-002
1.301770e+003;3.267429e-002
1.303698e+003;3.422691e-002
1.305627e+003;3.433770e-002
1.307556e+003;3.190254e-002
1.309484e+003;2.878579e-002
1.311413e+003;2.701154e-002
1.313341e+003;2.645370e-002
1.315270e+003;2.672575e-002
1.317198e+003;2.762293e-002
1.319127e+003;2.889963e-002
1.321055e+003;3.077755e-002
1.322984e+003;3.350397e-002
1.324912e+003;3.674307e-002
1.326841e+003;3.942017e-002
1.328770e+003;4.058661e-002
1.330698e+003;4.041875e-002
1.332627e+003;3.920002e-002
1.334555e+003;3.793043e-002
1.336484e+003;3.727571e-002
1.338412e+003;3.699170e-002
1.340341e+003;3.755618e-002
1.342269e+003;3.933433e-002
1.344198e+003;4.155970e-002
1.346126e+003;4.407273e-002
1.348055e+003;4.743237e-002
1.349984e+003;5.176601e-002
1.351912e+003;5.713494e-002
1.353841e+003;6.433848e-002
1.355769e+003;7.291957e-002
1.357698e+003;7.987689e-002
1.359626e+003;8.204709e-002
1.361555e+003;8.061530e-002
1.363483e+003;8.004100e-002
1.365412e+003;8.353002e-002
1.367341e+003;9.239482e-002
1.369269e+003;1.089825e-001
1.371198e+003;1.332675e-001
1.373126e+003;1.611654e-001
1.375055e+003;1.839058e-001
1.376983e+003;1.890470e-001
1.378912e+003;1.730216e-001
1.380840e+003;1.457545e-001
1.382769e+003;1.177097e-001
1.384698e+003;9.440503e-002
1.386626e+003;7.746466e-002
1.388555e+003;6.840611e-002
1.390483e+003;6.449886e-002
1.392412e+003;6.186250e-002
1.394340e+003;6.065864e-002
1.396269e+003;6.228737e-002
1.398197e+003;6.428369e-002
1.400126e+003;6.668612e-002
1.402054e+003;6.910328e-002
1.403983e+003;7.054003e-002
1.405911e+003;7.238321e-002
1.407840e+003;7.488626e-002
1.409769e+003;7.725663e-002
1.411697e+003;7.946709e-002
1.413626e+003;8.170290e-002
1.415554e+003;8.377460e-002
1.417483e+003;8.420373e-002
1.419411e+003;8.528563e-002
1.421340e+003;8.935255e-002
1.423268e+003;9.261220e-002
1.425197e+003;9.576166e-002
1.427125e+003;9.929187e-002
1.429054e+003;1.036069e-001
1.430983e+003;1.101244e-001
1.432911e+003;1.172425e-001
1.434840e+003;1.201366e-001
1.436768e+003;1.199047e-001
1.438697e+003;1.220967e-001
1.440625e+003;1.249901e-001
1.442554e+003;1.292307e-001
1.444482e+003;1.362836e-001
1.446411e+003;1.447629e-001
1.448340e+003;1.528615e-001
1.450268e+003;1.594213e-001
1.452197e+003;1.628835e-001
1.454125e+003;1.623862e-001
1.456054e+003;1.575597e-001
1.457982e+003;1.558396e-001
1.459911e+003;1.562563e-001
1.461839e+003;1.525510e-001
1.463768e+003;1.443269e-001
1.465697e+003;1.352905e-001
1.467625e+003;1.268543e-001
1.469554e+003;1.162042e-001
1.471482e+003;1.038423e-001
1.473411e+003;9.477073e-002
1.475339e+003;8.926883e-002
1.477268e+003;8.412960e-002
1.479196e+003;7.976675e-002
1.481125e+003;7.543775e-002
1.483053e+003;7.166572e-002
1.484982e+003;6.773043e-002
1.486911e+003;6.350075e-002
1.488839e+003;5.975541e-002
1.490768e+003;5.801603e-002
1.492696e+003;5.759592e-002
1.494625e+003;5.451652e-002
1.496553e+003;5.089042e-002
1.498482e+003;5.025523e-002
1.500410e+003;5.038549e-002
1.502339e+003;4.913628e-002
1.504267e+003;4.350321e-002
1.506196e+003;3.744608e-002
1.508125e+003;3.872921e-002
1.510053e+003;4.119400e-002
1.511982e+003;4.068404e-002
1.513910e+003;3.985519e-002
1.515839e+003;3.766165e-002
1.517767e+003;3.551918e-002
1.519696e+003;3.238957e-002
1.521624e+003;3.059125e-002
1.523553e+003;3.198877e-002
1.525481e+003;3.232431e-002
1.527410e+003;3.286867e-002
1.529339e+003;3.318590e-002
1.531267e+003;3.186346e-002
1.533196e+003;2.969867e-002
1.535124e+003;2.996992e-002
1.537053e+003;2.769617e-002
1.538981e+003;2.199059e-002
1.540910e+003;2.191726e-002
1.542838e+003;2.492440e-002
1.544767e+003;2.624805e-002
1.546695e+003;2.698200e-002
1.548624e+003;2.642816e-002
1.550553e+003;2.569586e-002
1.552481e+003;2.418551e-002
1.554410e+003;2.178901e-002
1.556338e+003;1.855950e-002
1.558267e+003;1.323684e-002
1.560195e+003;1.475453e-002
1.562124e+003;2.055100e-002
1.564052e+003;2.222464e-002
1.565981e+003;2.199499e-002
1.567910e+003;2.070304e-002
1.569838e+003;1.981896e-002
1.571767e+003;2.112607e-002
1.573695e+003;1.987643e-002
1.575624e+003;1.684444e-002
1.577552e+003;1.879841e-002
1.579481e+003;2.133957e-002
1.581409e+003;2.123751e-002
1.583338e+003;2.095215e-002
1.585266e+003;2.075014e-002
1.587195e+003;2.028372e-002
1.589124e+003;1.950150e-002
1.591052e+003;1.905436e-002
1.592981e+003;1.843911e-002
1.594909e+003;1.830658e-002
1.596838e+003;1.870341e-002
1.598766e+003;1.866879e-002
1.600695e+003;1.822568e-002
1.602623e+003;1.793059e-002
1.604552e+003;1.792706e-002
1.606480e+003;1.789606e-002
1.608409e+003;1.775603e-002
1.610338e+003;1.762817e-002
1.612266e+003;1.761233e-002
1.614195e+003;1.609757e-002
1.616123e+003;1.300537e-002
1.618052e+003;1.445777e-002
1.619980e+003;1.685587e-002
1.621909e+003;1.601123e-002
1.623837e+003;1.543406e-002
1.625766e+003;1.623633e-002
1.627694e+003;1.643454e-002
1.629623e+003;1.693062e-002
1.631552e+003;1.720405e-002
1.633480e+003;1.446000e-002
1.635409e+003;1.166402e-002
1.637337e+003;1.414849e-002
1.639266e+003;1.698120e-002
1.641194e+003;1.746174e-002
1.643123e+003;1.649263e-002
1.645051e+003;1.358209e-002
1.646980e+003;1.291907e-002
1.648909e+003;1.514247e-002
1.650837e+003;1.157683e-002
1.652766e+003;5.925374e-003
1.654694e+003;1.056160e-002
1.656623e+003;1.593231e-002
1.658551e+003;1.694716e-002
1.660480e+003;1.600199e-002
1.662408e+003;1.471686e-002
1.664337e+003;1.550929e-002
1.666266e+003;1.570342e-002
1.668194e+003;1.341023e-002
1.670123e+003;1.259662e-002
1.672051e+003;1.365341e-002
1.673980e+003;1.249962e-002
1.675908e+003;1.217649e-002
1.677837e+003;1.389268e-002
1.679765e+003;1.383094e-002
1.681694e+003;1.152623e-002
1.683622e+003;6.712040e-003
1.685551e+003;7.906611e-003
1.687479e+003;1.208337e-002
1.689408e+003;1.301537e-002
1.691337e+003;1.330820e-002
1.693265e+003;1.139454e-002
1.695194e+003;7.221162e-003
1.697122e+003;7.320254e-003
1.699051e+003;5.739867e-003
1.700979e+003;5.709013e-003
1.702908e+003;9.782165e-003
1.704836e+003;9.967171e-003
1.706765e+003;1.010436e-002
1.708693e+003;1.065823e-002
1.710622e+003;1.092012e-002
1.712551e+003;1.014299e-002
1.714479e+003;7.995904e-003
1.716408e+003;4.792009e-003
1.718336e+003;4.978620e-003
1.720265e+003;8.316983e-003
1.722193e+003;9.692437e-003
1.724122e+003;9.667128e-003
1.726050e+003;9.927268e-003
1.727979e+003;9.579185e-003
1.729908e+003;8.619810e-003
1.731836e+003;5.698404e-003
1.733765e+003;3.068223e-003
1.735693e+003;6.279280e-003
1.737622e+003;8.474333e-003
1.739550e+003;7.545815e-003
1.741479e+003;7.751388e-003
1.743407e+003;7.557952e-003
1.745336e+003;7.129232e-003
1.747265e+003;6.158378e-003
1.749193e+003;4.575509e-003
1.751122e+003;3.640978e-003
1.753050e+003;4.999903e-003
1.754979e+003;5.388648e-003
1.756907e+003;4.788224e-003
1.758836e+003;4.886427e-003
1.760764e+003;4.103895e-003
1.762693e+003;4.143700e-003
1.764621e+003;4.983279e-003
1.766550e+003;3.935514e-003
1.768479e+003;3.067622e-003
1.770407e+003;1.890928e-003
1.772336e+003;5.890587e-004
1.774264e+003;2.264142e-003
1.776193e+003;3.837825e-003
1.778121e+003;3.957916e-003
1.780050e+003;3.421577e-003
1.781978e+003;3.409054e-003
1.783907e+003;3.458615e-003
1.785835e+003;4.080281e-003
1.787764e+003;4.849167e-003
1.789693e+003;4.350347e-003
1.791621e+003;3.677233e-003
1.793550e+003;5.142478e-003
1.795478e+003;7.339024e-003
1.797407e+003;7.742349e-003
1.799335e+003;7.171102e-003
1.801264e+003;6.666177e-003
1.803192e+003;6.469255e-003
1.805121e+003;5.850544e-003
1.807049e+003;5.102882e-003
1.808978e+003;4.096068e-003
1.810907e+003;3.147515e-003
1.812835e+003;2.774175e-003
1.814764e+003;2.543146e-003
1.816692e+003;2.399990e-003
1.818621e+003;2.652245e-003
1.820549e+003;2.531348e-003
1.822478e+003;2.111222e-003
1.824406e+003;1.431029e-003
1.826335e+003;1.495659e-003
1.828264e+003;1.087627e-003
1.830192e+003;8.045434e-004
1.832121e+003;1.896453e-003
1.834049e+003;2.559844e-003
1.835978e+003;2.376102e-003
1.837906e+003;2.071736e-003
1.839835e+003;1.982055e-003
1.841763e+003;1.029036e-003
1.843692e+003;-4.771331e-004
1.845620e+003;2.584230e-004
1.847549e+003;1.297112e-003
1.849478e+003;1.361622e-003
1.851406e+003;1.441966e-003
1.853335e+003;1.526780e-003
1.855263e+003;1.386551e-003
1.857192e+003;1.168784e-003
1.859120e+003;1.012164e-003
1.861049e+003;9.057018e-004
1.862977e+003;8.168591e-004
1.864906e+003;6.101610e-004
1.866834e+003;-1.129856e-005
1.868763e+003;-5.541776e-004
1.870692e+003;2.650804e-005
1.872620e+003;6.668704e-004
1.874549e+003;8.379061e-004
1.876477e+003;9.016179e-004
1.878406e+003;9.506281e-004
1.880334e+003;8.291752e-004
1.882263e+003;5.041619e-004
1.884191e+003;5.074128e-004
1.886120e+003;5.257909e-004
1.888048e+003;4.151359e-004
1.889977e+003;6.118200e-004
1.891906e+003;1.087295e-003
1.893834e+003;1.212641e-003
1.895763e+003;1.249259e-003
1.897691e+003;1.193669e-003
1.899620e+003;1.183236e-003
1.901548e+003;1.075337e-003
1.903477e+003;9.388731e-004
1.905405e+003;7.445302e-004
1.907334e+003;5.993774e-004
1.909262e+003;4.538752e-004
1.911191e+003;6.358768e-004
1.913120e+003;9.203447e-004
1.915048e+003;7.556492e-004
1.916977e+003;-1.928967e-004
1.918905e+003;-2.409170e-004
1.920834e+003;3.218839e-004
1.922762e+003;6.952078e-005
1.924691e+003;7.300042e-005
1.926619e+003;4.001784e-004
1.928548e+003;4.779232e-004
1.930477e+003;1.876786e-004
1.932405e+003;-2.286309e-004
1.934334e+003;-2.196563e-004
1.936262e+003;-4.224385e-005
1.938191e+003;-4.363217e-004
1.940119e+003;-9.166791e-004
1.942048e+003;-9.716944e-004
1.943976e+003;-6.412002e-004
1.945905e+003;-4.348322e-004
1.947833e+003;-5.032794e-004
1.949762e+003;-5.859114e-004
1.951691e+003;-5.937866e-004
1.953619e+003;-7.645242e-004
1.955548e+003;-7.392867e-004
1.957476e+003;-5.750249e-004
1.959405e+003;-7.475560e-004
1.961333e+003;-7.414698e-004
1.963262e+003;-6.537063e-004
1.965190e+003;-7.307194e-004
1.967119e+003;-8.834153e-004
1.969047e+003;-8.092734e-004
1.970976e+003;-7.821863e-004
1.972905e+003;-6.913213e-004
1.974833e+003;-5.032794e-004
1.976762e+003;-5.817752e-004
1.978690e+003;-5.668846e-004
1.980619e+003;-4.717050e-004
1.982547e+003;-6.803051e-004
1.984476e+003;-7.862875e-004
1.986404e+003;-8.124153e-004
1.988333e+003;-6.713397e-004
1.990261e+003;-5.225406e-004
1.992190e+003;-5.735689e-004
1.994119e+003;-4.070596e-004
1.996047e+003;-3.718366e-004
1.997976e+003;-3.876940e-004
1.999904e+003;-3.717042e-004
2.001833e+003;-4.158319e-004
2.003761e+003;-4.545930e-004
2.005690e+003;-6.195289e-004
2.007618e+003;-6.517212e-004
2.009547e+003;-4.681304e-004
2.011476e+003;-3.977245e-004
2.013404e+003;-3.554821e-004
2.015333e+003;-3.150236e-004
2.017261e+003;-3.630304e-004
2.019190e+003;-2.784355e-004
2.021118e+003;-2.409170e-004
2.023047e+003;-2.665478e-004
2.024975e+003;-3.102557e-004
2.026904e+003;-2.606535e-004
2.028833e+003;-2.187952e-004
2.030761e+003;-2.585342e-004
2.032690e+003;-2.894288e-004
2.034618e+003;9.719301e-005
2.036547e+003;3.440344e-004
2.038475e+003;2.449628e-004
2.040404e+003;-5.741750e-005
2.042332e+003;1.265739e-005
2.044261e+003;1.635804e-004
2.046189e+003;9.523767e-005
2.048118e+003;2.098886e-004
2.050047e+003;2.423437e-004
2.051975e+003;3.180375e-004
2.053904e+003;4.832637e-004
2.055832e+003;1.351748e-004
2.057761e+003;-2.563155e-004
2.059689e+003;-3.454837e-004
2.061618e+003;-2.677399e-004
2.063546e+003;-1.099580e-004
2.065475e+003;-3.956024e-005
2.067404e+003;-1.518599e-004
2.069332e+003;-7.838806e-005
2.071260e+003;2.441008e-004
2.073189e+003;4.991528e-004
2.075118e+003;4.255169e-004
2.077046e+003;4.376229e-004
2.078975e+003;6.364741e-004
2.080903e+003;7.519982e-004
2.082832e+003;9.276165e-004
2.084760e+003;9.116121e-004
2.086689e+003;7.855560e-004
2.088617e+003;8.674534e-004
2.090546e+003;1.059327e-003
2.092475e+003;1.085900e-003
2.094403e+003;1.130679e-003
2.096332e+003;1.168950e-003
2.098260e+003;1.066701e-003
2.100189e+003;7.761954e-004
2.102117e+003;6.392946e-004
2.104046e+003;8.148673e-004
2.105974e+003;7.165511e-004
2.107903e+003;6.870473e-004
2.109832e+003;7.953484e-004
2.111760e+003;7.851577e-004
2.113688e+003;6.775893e-004
2.115617e+003;7.586033e-004
2.117546e+003;9.032116e-004
2.119474e+003;1.115165e-003
2.121403e+003;1.427472e-003
2.123331e+003;1.651688e-003
2.125260e+003;1.935923e-003
2.127188e+003;2.247289e-003
2.129117e+003;2.326398e-003
2.131045e+003;2.391361e-003
2.132974e+003;2.600342e-003
2.134903e+003;2.572110e-003
2.136831e+003;2.386264e-003
2.138760e+003;2.129835e-003
2.140688e+003;1.996934e-003
2.142617e+003;2.280696e-003
2.144545e+003;2.458134e-003
2.146474e+003;2.276166e-003
2.148402e+003;2.121877e-003
2.150331e+003;2.256415e-003
2.152260e+003;2.478460e-003
2.154188e+003;2.632710e-003
2.156117e+003;2.518084e-003
2.158045e+003;2.620342e-003
2.159974e+003;2.794184e-003
2.161902e+003;2.838505e-003
2.163831e+003;2.961789e-003
2.165759e+003;2.914486e-003
2.167688e+003;2.907348e-003
2.169616e+003;2.904713e-003
2.171545e+003;3.155692e-003
2.173474e+003;3.459784e-003
2.175402e+003;3.419440e-003
2.177331e+003;3.467900e-003
2.179259e+003;3.355057e-003
2.181188e+003;3.199517e-003
2.183116e+003;3.126089e-003
2.185045e+003;3.174550e-003
2.186973e+003;3.512491e-003
2.188902e+003;3.345608e-003
2.190831e+003;2.936936e-003
2.192759e+003;3.092550e-003
2.194688e+003;3.218643e-003
2.196616e+003;3.085942e-003
2.198545e+003;3.027548e-003
2.200473e+003;3.144745e-003
2.202402e+003;2.949279e-003
2.204330e+003;2.809024e-003
2.206259e+003;2.852613e-003
2.208188e+003;2.855315e-003
2.210116e+003;2.976802e-003
2.212044e+003;3.054942e-003
2.213973e+003;3.027882e-003
2.215902e+003;3.085008e-003
2.217830e+003;3.177787e-003
2.219759e+003;3.127891e-003
2.221687e+003;2.802154e-003
2.223616e+003;2.790015e-003
2.225544e+003;3.101560e-003
2.227473e+003;3.413596e-003
2.229401e+003;3.453906e-003
2.231330e+003;3.350416e-003
2.233259e+003;3.237303e-003
2.235187e+003;2.833269e-003
2.237116e+003;2.744998e-003
2.239044e+003;2.715023e-003
2.240973e+003;2.586943e-003
2.242901e+003;2.830401e-003
2.244830e+003;2.949546e-003
2.246758e+003;2.939805e-003
2.248687e+003;3.190471e-003
2.250615e+003;3.545829e-003
2.252544e+003;3.700892e-003
2.254473e+003;3.932905e-003
2.256401e+003;4.119582e-003
2.258330e+003;3.931033e-003
2.260258e+003;3.594670e-003
2.262187e+003;3.610106e-003
2.264115e+003;3.859755e-003
2.266044e+003;3.777492e-003
2.267972e+003;3.345140e-003
2.269901e+003;3.253861e-003
2.271830e+003;3.386112e-003
2.273758e+003;3.325440e-003
2.275687e+003;3.138037e-003
2.277615e+003;2.999555e-003
2.279544e+003;2.730360e-003
2.281472e+003;2.589676e-003
2.283401e+003;2.548279e-003
2.285329e+003;2.536281e-003
2.287258e+003;2.882665e-003
2.289187e+003;2.886267e-003
2.291115e+003;2.852180e-003
2.293043e+003;2.728893e-003
2.294972e+003;2.636677e-003
2.296901e+003;2.755702e-003
2.298829e+003;2.703954e-003
2.300758e+003;2.701220e-003
2.302686e+003;2.894406e-003
2.304615e+003;3.010599e-003
2.306543e+003;3.079369e-003
2.308472e+003;3.225152e-003
2.310400e+003;2.958086e-003
2.312329e+003;2.642977e-003
2.314258e+003;2.749033e-003
2.316186e+003;2.781745e-003
2.318115e+003;2.728060e-003
2.320043e+003;2.947344e-003
2.321972e+003;3.227556e-003
2.323900e+003;3.148349e-003
2.325829e+003;2.886167e-003
2.327757e+003;2.811225e-003
2.329686e+003;2.915387e-003
2.331615e+003;3.070225e-003
2.333543e+003;3.094852e-003
2.335472e+003;3.069491e-003
2.337400e+003;3.295725e-003
2.339329e+003;3.580939e-003
2.341257e+003;3.954773e-003
2.343186e+003;3.921136e-003
2.345114e+003;3.772746e-003
2.347043e+003;4.225732e-003
2.348971e+003;4.446310e-003
2.350900e+003;4.485644e-003
2.352829e+003;4.542092e-003
2.354757e+003;4.492641e-003
2.356686e+003;4.456419e-003
2.358614e+003;4.402760e-003
2.360543e+003;4.527226e-003
2.362471e+003;4.655713e-003
2.364400e+003;4.682573e-003
2.366328e+003;4.742832e-003
2.368257e+003;4.892258e-003
2.370186e+003;4.867897e-003
2.372114e+003;4.700827e-003
2.374042e+003;4.807052e-003
2.375971e+003;5.042808e-003
2.377900e+003;5.146602e-003
2.379828e+003;5.419144e-003
2.381757e+003;5.447092e-003
2.383685e+003;5.121321e-003
2.385614e+003;5.115320e-003
2.387542e+003;5.315420e-003
2.389471e+003;5.312569e-003
2.391399e+003;5.317701e-003
2.393328e+003;5.597063e-003
2.395257e+003;5.779924e-003
2.397185e+003;5.752122e-003
2.399114e+003;5.621633e-003
2.401042e+003;5.708979e-003
2.402971e+003;5.790333e-003
2.404899e+003;5.908949e-003
2.406828e+003;5.825324e-003
2.408756e+003;5.882248e-003
2.410685e+003;6.162848e-003
2.412614e+003;5.999714e-003
2.414542e+003;5.766862e-003
2.416471e+003;5.825391e-003
2.418399e+003;5.903643e-003
2.420328e+003;5.868511e-003
2.422256e+003;6.069261e-003
2.424185e+003;6.252186e-003
2.426113e+003;6.307788e-003
2.428042e+003;6.520008e-003
2.429970e+003;6.698446e-003
2.431899e+003;6.682967e-003
2.433828e+003;6.588057e-003
2.435756e+003;6.434684e-003
2.437685e+003;6.055317e-003
2.439613e+003;5.715257e-003
2.441542e+003;5.941430e-003
2.443470e+003;6.105652e-003
2.445399e+003;5.674871e-003
2.447327e+003;5.418909e-003
2.449256e+003;5.371237e-003
2.451185e+003;5.317634e-003
2.453113e+003;5.275071e-003
2.455042e+003;5.282986e-003
2.456970e+003;5.174164e-003
2.458899e+003;5.195959e-003
2.460827e+003;5.266183e-003
2.462756e+003;5.397975e-003
2.464684e+003;5.242405e-003
2.466613e+003;5.060005e-003
2.468542e+003;4.923423e-003
2.470470e+003;5.012841e-003
2.472398e+003;5.434947e-003
2.474327e+003;5.622975e-003
2.476256e+003;5.622774e-003
2.478184e+003;5.827540e-003
2.480113e+003;6.070000e-003
2.482041e+003;6.173166e-003
2.483970e+003;6.277969e-003
2.485898e+003;6.378494e-003
2.487827e+003;6.572146e-003
2.489755e+003;6.967823e-003
2.491684e+003;7.089590e-003
2.493613e+003;7.038670e-003
2.495541e+003;7.315065e-003
2.497470e+003;7.623770e-003
2.499398e+003;7.780567e-003
2.501327e+003;7.848646e-003
2.503255e+003;8.106347e-003
2.505184e+003;8.560938e-003
2.507112e+003;8.975954e-003
2.509041e+003;9.442868e-003
2.510969e+003;9.798534e-003
2.512898e+003;1.001203e-002
2.514827e+003;1.027675e-002
2.516755e+003;1.064037e-002
2.518684e+003;1.109993e-002
2.520612e+003;1.123952e-002
2.522541e+003;1.134107e-002
2.524469e+003;1.167770e-002
2.526398e+003;1.176903e-002
2.528326e+003;1.166344e-002
2.530255e+003;1.144029e-002
2.532184e+003;1.123881e-002
2.534112e+003;1.115990e-002
2.536041e+003;1.100915e-002
2.537969e+003;1.078127e-002
2.539898e+003;1.081086e-002
2.541826e+003;1.109497e-002
2.543755e+003;1.118750e-002
2.545683e+003;1.103627e-002
2.547612e+003;1.104670e-002
2.549541e+003;1.112576e-002
2.551469e+003;1.128250e-002
2.553397e+003;1.171303e-002
2.555326e+003;1.196486e-002
2.557255e+003;1.203401e-002
2.559183e+003;1.214351e-002
2.561112e+003;1.230065e-002
2.563040e+003;1.279907e-002
2.564969e+003;1.340893e-002
2.566897e+003;1.379872e-002
2.568826e+003;1.434088e-002
2.570754e+003;1.484798e-002
2.572683e+003;1.573475e-002
2.574612e+003;1.671660e-002
2.576540e+003;1.730841e-002
2.578469e+003;1.781116e-002
2.580397e+003;1.811989e-002
2.582326e+003;1.814570e-002
2.584254e+003;1.760919e-002
2.586183e+003;1.686555e-002
2.588111e+003;1.620723e-002
2.590040e+003;1.568353e-002
2.591969e+003;1.527262e-002
2.593897e+003;1.479999e-002
2.595826e+003;1.463529e-002
2.597754e+003;1.435964e-002
2.599683e+003;1.403051e-002
2.601611e+003;1.424404e-002
2.603540e+003;1.469132e-002
2.605468e+003;1.501009e-002
2.607397e+003;1.533008e-002
2.609325e+003;1.573324e-002
2.611254e+003;1.634786e-002
2.613183e+003;1.678613e-002
2.615111e+003;1.666416e-002
2.617040e+003;1.634015e-002
2.618968e+003;1.629405e-002
2.620897e+003;1.627403e-002
2.622825e+003;1.616658e-002
2.624754e+003;1.598679e-002
2.626682e+003;1.580000e-002
2.628611e+003;1.586835e-002
2.630540e+003;1.562132e-002
2.632468e+003;1.522712e-002
2.634396e+003;1.533365e-002
2.636325e+003;1.538085e-002
2.638254e+003;1.523014e-002
2.640182e+003;1.551825e-002
2.642111e+003;1.578570e-002
2.644039e+003;1.624899e-002
2.645968e+003;1.685505e-002
2.647896e+003;1.733379e-002
2.649825e+003;1.754253e-002
2.651753e+003;1.779010e-002
2.653682e+003;1.807526e-002
2.655611e+003;1.803405e-002
2.657539e+003;1.833665e-002
2.659468e+003;1.878630e-002
2.661396e+003;1.890963e-002
2.663325e+003;1.902382e-002
2.665253e+003;1.911685e-002
2.667182e+003;1.900250e-002
2.669110e+003;1.894933e-002
2.671039e+003;1.895913e-002
2.672968e+003;1.917568e-002
2.674896e+003;1.957362e-002
2.676825e+003;1.991871e-002
2.678753e+003;1.996638e-002
2.680682e+003;1.990726e-002
2.682610e+003;1.992336e-002
2.684539e+003;2.008088e-002
2.686467e+003;2.029237e-002
2.688396e+003;2.030438e-002
2.690324e+003;1.993949e-002
2.692253e+003;1.991562e-002
2.694182e+003;1.994622e-002
2.696110e+003;1.965075e-002
2.698039e+003;1.966722e-002
2.699967e+003;2.008157e-002
2.701896e+003;2.063261e-002
2.703824e+003;2.137236e-002
2.705753e+003;2.200705e-002
2.707681e+003;2.259208e-002
2.709610e+003;2.357870e-002
2.711539e+003;2.489910e-002
2.713467e+003;2.638574e-002
2.715396e+003;2.773300e-002
2.717324e+003;2.955170e-002
2.719253e+003;3.137534e-002
2.721181e+003;3.283082e-002
2.723110e+003;3.340079e-002
2.725038e+003;3.306639e-002
2.726967e+003;3.199002e-002
2.728896e+003;3.061048e-002
2.730824e+003;2.937075e-002
2.732752e+003;2.805742e-002
2.734681e+003;2.677152e-002
2.736610e+003;2.585827e-002
2.738538e+003;2.498279e-002
2.740467e+003;2.407430e-002
2.742395e+003;2.347139e-002
2.744324e+003;2.284021e-002
2.746252e+003;2.223154e-002
2.748181e+003;2.184858e-002
2.750109e+003;2.143091e-002
2.752038e+003;2.111835e-002
2.753967e+003;2.109387e-002
2.755895e+003;2.179312e-002
2.757824e+003;2.257366e-002
2.759752e+003;2.292694e-002
2.761681e+003;2.330634e-002
2.763609e+003;2.365371e-002
2.765538e+003;2.409518e-002
2.767466e+003;2.477350e-002
2.769395e+003;2.505341e-002
2.771323e+003;2.551426e-002
2.773252e+003;2.619396e-002
2.775181e+003;2.648673e-002
2.777109e+003;2.712570e-002
2.779038e+003;2.833773e-002
2.780966e+003;2.939132e-002
2.782895e+003;3.062133e-002
2.784823e+003;3.221849e-002
2.786752e+003;3.391135e-002
2.788680e+003;3.567616e-002
2.790609e+003;3.731290e-002
2.792538e+003;3.887594e-002
2.794466e+003;4.047436e-002
2.796395e+003;4.197880e-002
2.798323e+003;4.348625e-002
2.800252e+003;4.509759e-002
2.802180e+003;4.698910e-002
2.804109e+003;4.960117e-002
2.806037e+003;5.204711e-002
2.807966e+003;5.428059e-002
2.809895e+003;5.623478e-002
2.811823e+003;5.785890e-002
2.813751e+003;6.001080e-002
2.815680e+003;6.269766e-002
2.817609e+003;6.529879e-002
2.819537e+003;6.812155e-002
2.821466e+003;7.155334e-002
2.823394e+003;7.554037e-002
2.825323e+003;8.044361e-002
2.827251e+003;8.706946e-002
2.829180e+003;9.569632e-002
2.831108e+003;1.054199e-001
2.833037e+003;1.149369e-001
2.834966e+003;1.223489e-001
2.836894e+003;1.261938e-001
2.838823e+003;1.262554e-001
2.840751e+003;1.232233e-001
2.842680e+003;1.189734e-001
2.844608e+003;1.145794e-001
2.846537e+003;1.102866e-001
2.848465e+003;1.069016e-001
2.850394e+003;1.049663e-001
2.852323e+003;1.037911e-001
2.854251e+003;1.030592e-001
2.856180e+003;1.037430e-001
2.858108e+003;1.064372e-001
2.860037e+003;1.112686e-001
2.861965e+003;1.181488e-001
2.863894e+003;1.256890e-001
2.865822e+003;1.321463e-001
2.867751e+003;1.359862e-001
2.869679e+003;1.378099e-001
2.871608e+003;1.394427e-001
2.873536e+003;1.405487e-001
2.875465e+003;1.402597e-001
2.877394e+003;1.389334e-001
2.879322e+003;1.370860e-001
2.881251e+003;1.357741e-001
2.883179e+003;1.355614e-001
2.885108e+003;1.358435e-001
2.887036e+003;1.367349e-001
2.888965e+003;1.386522e-001
2.890893e+003;1.409698e-001
2.892822e+003;1.441414e-001
2.894750e+003;1.479033e-001
2.896679e+003;1.524747e-001
2.898608e+003;1.580779e-001
2.900536e+003;1.638321e-001
2.902465e+003;1.691620e-001
2.904393e+003;1.745289e-001
2.906322e+003;1.794044e-001
2.908250e+003;1.835846e-001
2.910179e+003;1.874263e-001
2.912107e+003;1.908678e-001
2.914036e+003;1.930979e-001
2.915965e+003;1.939424e-001
2.917893e+003;1.930260e-001
2.919822e+003;1.899734e-001
2.921750e+003;1.853754e-001
2.923679e+003;1.801820e-001
2.925607e+003;1.739977e-001
2.927536e+003;1.668523e-001
2.929464e+003;1.592259e-001
2.931393e+003;1.510300e-001
2.933322e+003;1.433682e-001
2.935250e+003;1.363524e-001
2.937178e+003;1.300543e-001
2.939107e+003;1.265024e-001
2.941036e+003;1.261615e-001
2.942964e+003;1.290452e-001
2.944893e+003;1.344489e-001
2.946821e+003;1.404800e-001
2.948750e+003;1.461090e-001
2.950678e+003;1.502725e-001
2.952607e+003;1.518285e-001
2.954535e+003;1.509828e-001
2.956464e+003;1.482630e-001
2.958393e+003;1.446316e-001
2.960321e+003;1.399341e-001
2.962250e+003;1.333824e-001
2.964178e+003;1.262351e-001
2.966107e+003;1.191402e-001
2.968035e+003;1.116875e-001
2.969964e+003;1.045226e-001
2.971892e+003;9.812242e-002
2.973821e+003;9.214781e-002
2.975750e+003;8.674999e-002
2.977678e+003;8.193564e-002
2.979607e+003;7.731996e-002
2.981535e+003;7.318231e-002
2.983464e+003;6.979787e-002
2.985392e+003;6.644593e-002
2.987321e+003;6.295738e-002
2.989249e+003;5.975302e-002
2.991178e+003;5.671236e-002
2.993106e+003;5.378629e-002
2.995035e+003;5.135555e-002
2.996964e+003;4.924887e-002
2.998892e+003;4.696314e-002
3.000821e+003;4.435550e-002
3.002749e+003;4.148186e-002
3.004678e+003;3.890881e-002
3.006606e+003;3.645188e-002
3.008535e+003;3.432842e-002
3.010463e+003;3.275343e-002
3.012392e+003;3.104972e-002
3.014321e+003;2.940745e-002
3.016249e+003;2.832765e-002
3.018177e+003;2.705259e-002
3.020106e+003;2.546503e-002
3.022035e+003;2.393847e-002
3.023963e+003;2.249911e-002
3.025892e+003;2.151522e-002
3.027820e+003;2.068918e-002
3.029749e+003;1.968299e-002
3.031677e+003;1.886430e-002
3.033606e+003;1.823926e-002
3.035534e+003;1.766016e-002
3.037463e+003;1.703099e-002
3.039392e+003;1.657245e-002
3.041320e+003;1.611290e-002
3.043249e+003;1.548062e-002
3.045177e+003;1.499818e-002
3.047106e+003;1.456093e-002
3.049034e+003;1.398459e-002
3.050963e+003;1.371284e-002
3.052891e+003;1.345411e-002
3.054820e+003;1.337493e-002
3.056749e+003;1.308093e-002
3.058677e+003;1.254546e-002
3.060606e+003;1.253782e-002
3.062534e+003;1.263045e-002
3.064463e+003;1.237029e-002
3.066391e+003;1.175878e-002
3.068320e+003;1.140045e-002
3.070248e+003;1.154742e-002
3.072177e+003;1.127292e-002
3.074105e+003;1.089389e-002
3.076034e+003;1.069008e-002
3.077963e+003;1.045565e-002
3.079891e+003;1.058275e-002
3.081820e+003;1.064991e-002
3.083748e+003;1.055922e-002
3.085677e+003;1.052758e-002
3.087605e+003;1.035333e-002
3.089534e+003;9.964356e-003
3.091462e+003;9.903369e-003
3.093391e+003;1.008507e-002
3.095320e+003;1.007130e-002
3.097248e+003;1.000914e-002
3.099177e+003;9.643176e-003
3.101105e+003;9.294305e-003
3.103034e+003;9.414018e-003
3.104962e+003;9.526143e-003
3.106891e+003;9.195810e-003
3.108819e+003;9.300974e-003
3.110748e+003;9.584605e-003
3.112677e+003;9.437111e-003
3.114605e+003;9.254430e-003
3.116533e+003;9.224714e-003
3.118462e+003;9.317155e-003
3.120391e+003;9.778438e-003
3.122319e+003;9.732589e-003
3.124248e+003;9.601745e-003
3.126176e+003;9.750379e-003
3.128105e+003;9.852118e-003
3.130033e+003;1.027410e-002
3.131962e+003;1.073338e-002
3.133890e+003;1.052571e-002
3.135819e+003;1.019065e-002
3.137748e+003;1.003607e-002
3.139676e+003;1.017189e-002
3.141605e+003;1.048002e-002
3.143533e+003;1.073036e-002
3.145462e+003;1.080468e-002
3.147390e+003;1.044700e-002
3.149319e+003;1.027644e-002
3.151247e+003;1.007686e-002
3.153176e+003;9.737943e-003
3.155104e+003;9.928455e-003
3.157033e+003;1.003814e-002
3.158962e+003;1.033911e-002
3.160890e+003;1.083950e-002
3.162819e+003;1.054343e-002
3.164747e+003;1.010884e-002
3.166676e+003;9.882116e-003
3.168604e+003;9.833239e-003
3.170533e+003;1.026749e-002
3.172461e+003;1.037634e-002
3.174390e+003;9.783860e-003
3.176319e+003;9.784470e-003
3.178247e+003;1.023081e-002
3.180176e+003;1.010206e-002
3.182104e+003;9.968120e-003
3.184033e+003;1.013879e-002
3.185961e+003;1.028829e-002
3.187890e+003;1.000382e-002
3.189818e+003;9.768983e-003
3.191747e+003;9.900793e-003
3.193676e+003;1.043240e-002
3.195604e+003;1.055684e-002
3.197532e+003;1.054303e-002
3.199461e+003;1.055440e-002
3.201390e+003;1.057545e-002
3.203318e+003;1.023533e-002
3.205247e+003;9.872726e-003
3.207175e+003;9.778743e-003
3.209104e+003;9.483775e-003
3.211032e+003;9.554086e-003
3.212961e+003;9.676039e-003
3.214889e+003;9.482082e-003
3.216818e+003;9.263366e-003
3.218747e+003;9.001899e-003
3.220675e+003;8.621771e-003
3.222604e+003;8.389536e-003
3.224532e+003;8.272368e-003
3.226461e+003;8.263521e-003
3.228389e+003;8.520016e-003
3.230318e+003;8.426392e-003
3.232246e+003;8.091764e-003
3.234175e+003;7.475626e-003
3.236104e+003;6.756259e-003
3.238032e+003;6.673479e-003
3.239961e+003;6.946880e-003
3.241889e+003;6.868306e-003
3.243818e+003;6.474603e-003
3.245746e+003;6.129140e-003
3.247675e+003;6.177098e-003
3.249603e+003;6.379099e-003
3.251532e+003;6.472046e-003
3.253460e+003;6.574971e-003
3.255389e+003;6.252320e-003
3.257318e+003;6.148363e-003
3.259246e+003;6.198339e-003
3.261175e+003;6.018158e-003
3.263103e+003;5.901627e-003
3.265032e+003;5.697766e-003
3.266960e+003;4.963036e-003
3.268889e+003;4.609095e-003
3.270817e+003;5.363857e-003
3.272746e+003;5.863843e-003
3.274675e+003;5.619115e-003
3.276603e+003;5.475814e-003
3.278531e+003;5.544774e-003
3.280460e+003;5.401330e-003
3.282389e+003;5.551922e-003
3.284317e+003;5.536250e-003
3.286246e+003;5.304653e-003
3.288174e+003;5.211586e-003
3.290103e+003;5.437899e-003
3.292031e+003;5.706696e-003
3.293960e+003;5.409884e-003
3.295888e+003;4.841662e-003
3.297817e+003;4.910253e-003
3.299746e+003;5.310992e-003
3.301674e+003;5.629051e-003
3.303603e+003;5.455380e-003
3.305531e+003;5.151832e-003
3.307460e+003;4.922686e-003
3.309388e+003;4.725346e-003
3.311317e+003;4.859990e-003
3.313245e+003;4.760184e-003
3.315174e+003;4.658593e-003
3.317103e+003;4.851379e-003
3.319031e+003;4.748694e-003
3.320960e+003;4.639369e-003
3.322888e+003;4.857745e-003
3.324817e+003;4.696540e-003
3.326745e+003;4.713355e-003
3.328674e+003;5.306967e-003
3.330602e+003;5.423137e-003
3.332531e+003;5.396063e-003
3.334459e+003;5.625224e-003
3.336388e+003;5.570347e-003
3.338317e+003;5.165211e-003
3.340245e+003;5.053233e-003
3.342174e+003;5.186805e-003
3.344102e+003;5.282617e-003
3.346031e+003;5.096009e-003
3.347959e+003;5.341416e-003
3.349888e+003;5.896690e-003
3.351816e+003;5.510142e-003
3.353745e+003;4.973995e-003
3.355674e+003;4.993569e-003
3.357602e+003;5.158907e-003
3.359531e+003;5.075459e-003
3.361459e+003;5.058999e-003
3.363388e+003;5.135638e-003
3.365316e+003;4.995110e-003
3.367245e+003;5.055915e-003
3.369173e+003;5.261420e-003
3.371102e+003;5.291975e-003
3.373031e+003;5.188716e-003
3.374959e+003;5.161422e-003
3.376887e+003;5.284898e-003
3.378816e+003;5.070833e-003
3.380745e+003;4.558700e-003
3.382673e+003;4.432886e-003
3.384602e+003;4.567003e-003
3.386530e+003;4.407480e-003
3.388459e+003;4.473191e-003
3.390387e+003;4.949730e-003
3.392316e+003;5.343562e-003
3.394244e+003;5.471519e-003
3.396173e+003;5.152436e-003
3.398102e+003;4.773014e-003
3.400030e+003;4.398911e-003
3.401959e+003;4.121222e-003
3.403887e+003;3.979082e-003
3.405816e+003;3.886800e-003
3.407744e+003;4.168388e-003
3.409673e+003;4.290043e-003
3.411601e+003;4.238245e-003
3.413530e+003;4.455850e-003
3.415458e+003;4.438108e-003
3.417387e+003;4.158185e-003
3.419316e+003;3.947517e-003
3.421244e+003;3.920234e-003
3.423173e+003;4.212683e-003
3.425101e+003;4.381272e-003
3.427030e+003;4.175648e-003
3.428958e+003;3.721144e-003
3.430887e+003;3.444588e-003
3.432815e+003;3.505176e-003
3.434744e+003;3.562298e-003
3.436673e+003;3.686188e-003
3.438601e+003;3.786583e-003
3.440530e+003;3.272222e-003
3.442458e+003;3.197414e-003
3.444387e+003;3.456478e-003
3.446315e+003;2.919056e-003
3.448244e+003;2.483192e-003
3.450172e+003;2.317603e-003
3.452101e+003;2.125673e-003
3.454030e+003;2.033484e-003
3.455958e+003;2.119713e-003
3.457886e+003;2.323166e-003
3.459815e+003;2.372571e-003
3.461744e+003;2.229604e-003
3.463672e+003;1.951899e-003
3.465601e+003;1.484288e-003
3.467529e+003;1.464539e-003
3.469458e+003;1.708533e-003
3.471386e+003;1.842411e-003
3.473315e+003;1.593553e-003
3.475243e+003;1.323167e-003
3.477172e+003;1.352614e-003
3.479101e+003;1.348028e-003
3.481029e+003;1.138751e-003
3.482958e+003;8.957410e-004
3.484886e+003;8.804017e-004
3.486815e+003;1.232212e-003
3.488743e+003;1.476242e-003
3.490672e+003;1.293024e-003
3.492600e+003;1.032490e-003
3.494529e+003;1.090982e-003
3.496458e+003;1.228324e-003
3.498386e+003;1.242081e-003
3.500315e+003;9.685601e-004
3.502243e+003;8.647310e-004
3.504172e+003;9.418948e-004
3.506100e+003;9.954594e-004
3.508029e+003;3.149538e-004
3.509957e+003;-6.543480e-005
3.511886e+003;4.623333e-004
3.513814e+003;6.256898e-004
3.515743e+003;5.470774e-005
3.517672e+003;1.747841e-004
3.519600e+003;6.662067e-004
3.521529e+003;1.340147e-004
3.523457e+003;-4.834878e-004
3.525386e+003;-2.201861e-004
3.527314e+003;-1.318715e-005
3.529243e+003;-2.170225e-005
3.531171e+003;1.790601e-004
3.533100e+003;1.839992e-004
3.535029e+003;2.440013e-004
3.536957e+003;3.220497e-004
3.538885e+003;1.476041e-004
3.540814e+003;1.865847e-004
3.542743e+003;2.183588e-005
3.544671e+003;-2.313465e-004
3.546600e+003;-1.347352e-004
3.548528e+003;2.027614e-004
3.550457e+003;-1.371728e-005
3.552385e+003;-4.592930e-004
3.554314e+003;-7.259230e-004
3.556242e+003;-7.435206e-004
3.558171e+003;-9.567841e-004
3.560100e+003;-9.137364e-004
3.562028e+003;-5.721791e-004
3.563957e+003;-1.091653e-003
3.565885e+003;-2.629197e-003
3.567814e+003;-3.003430e-003
3.569742e+003;-1.934391e-003
3.571671e+003;-1.181475e-003
3.573599e+003;-9.747690e-004
3.575528e+003;-9.253749e-004
3.577457e+003;-1.254959e-003
3.579385e+003;-1.495710e-003
3.581314e+003;-1.402154e-003
3.583242e+003;-1.313731e-003
3.585171e+003;-2.128772e-003
3.587099e+003;-3.159605e-003
3.589028e+003;-2.865829e-003
3.590956e+003;-2.194480e-003
3.592885e+003;-2.000525e-003
3.594813e+003;-1.774112e-003
3.596742e+003;-1.601493e-003
3.598671e+003;-1.677777e-003
3.600599e+003;-1.634867e-003
3.602528e+003;-1.265465e-003
3.604456e+003;-1.641799e-003
3.606385e+003;-2.665060e-003
3.608313e+003;-3.219895e-003
3.610242e+003;-2.872610e-003
3.612170e+003;-2.921882e-003
3.614099e+003;-2.829686e-003
3.616028e+003;-2.910527e-003
3.617956e+003;-3.611069e-003
3.619885e+003;-3.043178e-003
3.621813e+003;-1.932379e-003
3.623742e+003;-2.115154e-003
3.625670e+003;-3.132631e-003
3.627599e+003;-5.869677e-003
3.629527e+003;-5.927697e-003
3.631456e+003;-2.662788e-003
3.633385e+003;-1.722235e-003
3.635313e+003;-1.946959e-003
3.637241e+003;-1.922483e-003
3.639170e+003;-1.806186e-003
3.641099e+003;-1.815359e-003
3.643027e+003;-1.981692e-003
3.644956e+003;-2.853189e-003
3.646884e+003;-5.362437e-003
3.648813e+003;-7.098621e-003
3.650741e+003;-5.741190e-003
3.652670e+003;-3.440756e-003
3.654598e+003;-3.661637e-003
3.656527e+003;-3.484540e-003
3.658456e+003;-1.973611e-003
3.660384e+003;-1.559566e-003
3.662313e+003;-1.545171e-003
3.664241e+003;-1.195056e-003
3.666170e+003;-1.936206e-003
3.668098e+003;-4.514000e-003
3.670027e+003;-5.993454e-003
3.671955e+003;-4.676288e-003
3.673884e+003;-6.194095e-003
3.675813e+003;-6.692144e-003
3.677741e+003;-3.200687e-003
3.679669e+003;-1.623545e-003
3.681598e+003;-1.230014e-003
3.683527e+003;-1.223406e-003
3.685455e+003;-2.506072e-003
3.687384e+003;-5.829010e-003
3.689312e+003;-5.615313e-003
3.691241e+003;-3.218876e-003
3.693169e+003;-1.379959e-003
3.695098e+003;-5.722784e-004
3.697026e+003;-1.141457e-003
3.698955e+003;-1.785562e-003
3.700884e+003;-2.205557e-003
3.702812e+003;-1.685897e-003
3.704741e+003;-7.899918e-004
3.706669e+003;-9.909349e-004
3.708598e+003;-2.052567e-003
3.710526e+003;-3.548401e-003
3.712455e+003;-3.371982e-003
3.714383e+003;-1.361891e-003
3.716312e+003;-6.844404e-004
3.718240e+003;-1.048155e-003
3.720169e+003;-1.597268e-003
3.722098e+003;-1.910178e-003
3.724026e+003;-2.056986e-003
3.725955e+003;-2.135960e-003
3.727883e+003;-1.278218e-003
3.729812e+003;-1.923737e-003
3.731740e+003;-4.227079e-003
3.733669e+003;-5.082003e-003
3.735597e+003;-5.126866e-003
3.737526e+003;-3.029622e-003
3.739455e+003;-1.398058e-003
3.741383e+003;-2.834031e-003
3.743312e+003;-7.616667e-003
3.745240e+003;-7.095166e-003
3.747169e+003;-5.167599e-003
3.749097e+003;-7.757848e-003
3.751026e+003;-7.768361e-003
3.752954e+003;-4.320357e-003
3.754883e+003;-1.494983e-003
3.756812e+003;-1.689230e-003
3.758740e+003;-1.908034e-003
3.760668e+003;-1.236457e-003
3.762597e+003;-7.686586e-004
3.764526e+003;-1.500497e-003
3.766454e+003;-1.060253e-003
3.768383e+003;-1.249111e-003
3.770311e+003;-1.614599e-003
3.772240e+003;-8.711804e-004
3.774168e+003;-4.923439e-005
3.776097e+003;-2.541631e-004
3.778025e+003;-9.411129e-004
3.779954e+003;-7.960773e-004
3.781883e+003;-1.002189e-004
3.783811e+003;-5.274619e-005
3.785740e+003;7.058124e-005
3.787668e+003;-3.512194e-006
3.789597e+003;5.709370e-005
3.791525e+003;-8.401980e-005
3.793454e+003;-4.730289e-004
3.795382e+003;-1.479100e-003
3.797311e+003;-1.702663e-003
3.799240e+003;-3.363203e-003
3.801168e+003;-5.002646e-003
3.803097e+003;-2.376849e-003
3.805025e+003;-2.142917e-003
3.806954e+003;-2.713105e-003
3.808882e+003;-3.391270e-004
3.810811e+003;3.512634e-004
3.812739e+003;-7.825170e-004
3.814668e+003;-3.733585e-003
3.816596e+003;-3.802763e-003
3.818525e+003;-2.537005e-003
3.820454e+003;-3.896723e-003
3.822382e+003;-2.526101e-003
3.824311e+003;-6.612825e-004
3.826239e+003;-4.734592e-004
3.828168e+003;1.175423e-004
3.830096e+003;3.363235e-005
3.832025e+003;-8.294801e-004
3.833953e+003;-1.952270e-003
3.835882e+003;-4.273474e-003
3.837811e+003;-5.613187e-003
3.839739e+003;-3.395784e-003
3.841667e+003;-1.483591e-003
3.843596e+003;-8.267352e-004
3.845525e+003;1.896675e-004
3.847453e+003;6.899346e-004
3.849382e+003;-1.399676e-003
3.851310e+003;-6.708294e-003
3.853239e+003;-1.048352e-002
3.855167e+003;-6.452429e-003
3.857096e+003;-1.296553e-003
3.859024e+003;8.609077e-005
3.860953e+003;-5.340573e-004
3.862882e+003;-1.495908e-003
3.864810e+003;-1.880686e-003
3.866739e+003;-1.683718e-003
3.868667e+003;-3.167894e-003
3.870596e+003;-2.992011e-003
3.872524e+003;-1.592778e-003
3.874453e+003;-6.581064e-004
3.876381e+003;7.637481e-004
3.878310e+003;1.523770e-004
3.880239e+003;-1.060022e-003
3.882167e+003;-7.797057e-004
3.884096e+003;-1.802226e-003
3.886024e+003;-1.632160e-003
3.887953e+003;4.193148e-004
3.889881e+003;-2.042564e-004
3.891810e+003;-4.924901e-004
3.893738e+003;7.951492e-004
3.895667e+003;9.759655e-004
3.897595e+003;-3.348229e-004
3.899524e+003;-1.897577e-003
3.901453e+003;-2.085016e-003
3.903381e+003;-1.864652e-003
3.905310e+003;-8.922440e-004
3.907238e+003;3.474831e-004
3.909167e+003;1.206959e-003
3.911095e+003;1.487480e-003
3.913024e+003;1.277870e-003
3.914952e+003;8.912255e-004
3.916881e+003;4.002116e-004
3.918810e+003;7.997633e-004
3.920738e+003;1.372092e-003
3.922667e+003;1.303260e-003
3.924595e+003;9.303725e-004
3.926524e+003;1.265142e-003
3.928452e+003;1.708301e-003
3.930381e+003;1.618129e-003
3.932309e+003;1.515242e-003
3.934238e+003;1.724168e-003
3.936167e+003;1.894789e-003
3.938095e+003;1.809437e-003
3.940023e+003;1.522059e-003
3.941952e+003;1.252316e-003
3.943881e+003;1.501610e-003
3.945809e+003;1.894589e-003
3.947738e+003;1.673008e-003
3.949666e+003;1.549291e-003
3.951595e+003;1.681324e-003
3.953523e+003;1.779792e-003
3.955452e+003;1.444625e-003
3.957380e+003;1.158053e-003
3.959309e+003;9.787551e-004
3.961238e+003;8.400640e-004
3.963166e+003;1.005954e-003
3.965095e+003;1.346233e-003
3.967023e+003;1.444526e-003
3.968952e+003;1.316121e-003
3.970880e+003;1.366674e-003
3.972809e+003;1.602898e-003
3.974737e+003;1.757369e-003
3.976666e+003;1.906603e-003
3.978594e+003;1.975231e-003
3.980523e+003;1.811566e-003
3.982452e+003;1.343308e-003
3.984380e+003;1.519432e-003
3.986309e+003;2.126072e-003
3.988237e+003;2.373037e-003
3.990166e+003;2.780911e-003
3.992094e+003;2.898775e-003
3.994023e+003;2.500755e-003
3.995951e+003;2.377535e-003
3.997880e+003;2.477961e-003
3.999809e+003;3.031819e-003
4.001737e+003;0.000000e+000
