3.992094e+002;0.000000e+000
4.011380e+002;0.000000e+000
4.030665e+002;0.000000e+000
4.049951e+002;0.000000e+000
4.069236e+002;0.000000e+000
4.088522e+002;0.000000e+000
4.107807e+002;0.000000e+000
4.127093e+002;0.000000e+000
4.146378e+002;0.000000e+000
4.165664e+002;0.000000e+000
4.184949e+002;0.000000e+000
4.204235e+002;0.000000e+000
4.223520e+002;0.000000e+000
4.242806e+002;0.000000e+000
4.262091e+002;0.000000e+000
4.281377e+002;0.000000e+000
4.300662e+002;0.000000e+000
4.319948e+002;0.000000e+000
4.339233e+002;0.000000e+000
4.358519e+002;0.000000e+000
4.377804e+002;0.000000e+000
4.397090e+002;0.000000e+000
4.416375e+002;0.000000e+000
4.435660e+002;0.000000e+000
4.454946e+002;0.000000e+000
4.474232e+002;0.000000e+000
4.493517e+002;0.000000e+000
4.512802e+002;0.000000e+000
4.532088e+002;0.000000e+000
4.551373e+002;0.000000e+000
4.570659e+002;0.000000e+000
4.589944e+002;0.000000e+000
4.609230e+002;0.000000e+000
4.628515e+002;0.000000e+000
4.647801e+002;0.000000e+000
4.667086e+002;0.000000e+000
4.686372e+002;0.000000e+000
4.705657e+002;0.000000e+000
4.724943e+002;0.000000e+000
4.744228e+002;0.000000e+000
4.763513e+002;0.000000e+000
4.782799e+002;0.000000e+000
4.802085e+002;0.000000e+000
4.821370e+002;0.000000e+000
4.840656e+002;0.000000e+000
4.859941e+002;0.000000e+000
4.879226e+002;0.000000e+000
4.898512e+002;0.000000e+000
4.917798e+002;0.000000e+000
4.937083e+002;0.000000e+000
4.956368e+002;0.000000e+000
4.975654e+002;0.000000e+000
4.994939e+002;0.000000e+000
5.014225e+002;0.000000e+000
5.033510e+002;0.000000e+000
5.052796e+002;0.000000e+000
5.072081e+002;0.000000e+000
5.091367e+002;0.000000e+000
5.110652e+002;0.000000e+000
5.129938e+002;0.000000e+000
5.149223e+002;0.000000e+000
5.168509e+002;0.000000e+000
5.187794e+002;0.000000e+000
5.207079e+002;0.000000e+000
5.226365e+002;0.000000e+000
5.245651e+002;0.000000e+000
5.264936e+002;0.000000e+000
5.284222e+002;0.000000e+000
5.303507e+002;0.000000e+000
5.322792e+002;0.000000e+000
5.342078e+002;0.000000e+000
5.361364e+002;0.000000e+000
5.380649e+002;0.000000e+000
5.399935e+002;0.000000e+000
5.419220e+002;0.000000e+000
5.438505e+002;0.000000e+000
5.457791e+002;0.000000e+000
5.477076e+002;0.000000e+000
5.496362e+002;0.000000e+000
5.515648e+002;0.000000e+000
5.534933e+002;0.000000e+000
5.554218e+002;0.000000e+000
5.573504e+002;0.000000e+000
5.592789e+002;0.000000e+000
5.612075e+002;0.000000e+000
5.631360e+002;0.000000e+000
5.650646e+002;0.000000e+000
5.669931e+002;0.000000e+000
5.689217e+002;0.000000e+000
5.708502e+002;0.000000e+000
5.727787e+002;0.000000e+000
5.747073e+002;0.000000e+000
5.766359e+002;0.000000e+000
5.785644e+002;0.000000e+000
5.804930e+002;0.000000e+000
5.824215e+002;0.000000e+000
5.843500e+002;0.000000e+000
5.862786e+002;0.000000e+000
5.882072e+002;0.000000e+000
5.901357e+002;0.000000e+000
5.920643e+002;0.000000e+000
5.939928e+002;0.000000e+000
5.959213e+002;0.000000e+000
5.978499e+002;0.000000e+000
5.997784e+002;3.329246e-002
6.017070e+002;4.516277e-002
6.036355e+002;4.373551e-002
6.055641e+002;3.409736e-002
6.074926e+002;3.157085e-002
6.094211e+002;3.143604e-002
6.113497e+002;3.036694e-002
6.132783e+002;3.225132e-002
6.152068e+002;3.409704e-002
6.171354e+002;3.468174e-002
6.190639e+002;3.654043e-002
6.209924e+002;3.894118e-002
6.229210e+002;3.724704e-002
6.248495e+002;3.767805e-002
6.267781e+002;4.009768e-002
6.287067e+002;3.746645e-002
6.306352e+002;3.260553e-002
6.325637e+002;2.918733e-002
6.344923e+002;2.841442e-002
6.364208e+002;3.040364e-002
6.383494e+002;3.132883e-002
6.402780e+002;3.170385e-002
6.422065e+002;3.184231e-002
6.441350e+002;3.008418e-002
6.460636e+002;3.085214e-002
6.479921e+002;3.116665e-002
6.499207e+002;3.323368e-002
6.518492e+002;3.345264e-002
6.537778e+002;3.292071e-002
6.557063e+002;3.569440e-002
6.576349e+002;3.800912e-002
6.595634e+002;3.842460e-002
6.614919e+002;3.809332e-002
6.634205e+002;3.840918e-002
6.653491e+002;3.581043e-002
6.672776e+002;3.167292e-002
6.692062e+002;3.433673e-002
6.711347e+002;3.514746e-002
6.730632e+002;3.313547e-002
6.749918e+002;3.328838e-002
6.769203e+002;3.354810e-002
6.788489e+002;3.294566e-002
6.807775e+002;3.362689e-002
6.827060e+002;3.428191e-002
6.846345e+002;3.481778e-002
6.865631e+002;3.601471e-002
6.884916e+002;3.629408e-002
6.904202e+002;3.542006e-002
6.923488e+002;3.555176e-002
6.942773e+002;3.667024e-002
6.962058e+002;3.785436e-002
6.981344e+002;3.865601e-002
7.000629e+002;3.869379e-002
7.019915e+002;3.865210e-002
7.039200e+002;3.944292e-002
7.058486e+002;4.215483e-002
7.077771e+002;4.620647e-002
7.097057e+002;5.362401e-002
7.116342e+002;6.607603e-002
7.135627e+002;7.105730e-002
7.154913e+002;6.295341e-002
7.174199e+002;5.203161e-002
7.193484e+002;4.563708e-002
7.212770e+002;4.240277e-002
7.232055e+002;4.092886e-002
7.251340e+002;4.037788e-002
7.270626e+002;4.010150e-002
7.289911e+002;3.879272e-002
7.309197e+002;3.774560e-002
7.328483e+002;3.748429e-002
7.347768e+002;3.725791e-002
7.367053e+002;3.738555e-002
7.386339e+002;3.682115e-002
7.405624e+002;3.622910e-002
7.424910e+002;3.759697e-002
7.444196e+002;3.825649e-002
7.463481e+002;3.787287e-002
7.482766e+002;3.789590e-002
7.502052e+002;3.883283e-002
7.521337e+002;3.973234e-002
7.540623e+002;3.937572e-002
7.559908e+002;3.915187e-002
7.579194e+002;3.999936e-002
7.598479e+002;4.033883e-002
7.617765e+002;4.060378e-002
7.637050e+002;4.088284e-002
7.656335e+002;4.068368e-002
7.675621e+002;4.002102e-002
7.694907e+002;3.957624e-002
7.714192e+002;3.922345e-002
7.733478e+002;3.862990e-002
7.752763e+002;3.766511e-002
7.772048e+002;3.781254e-002
7.791334e+002;3.893933e-002
7.810620e+002;3.918527e-002
7.829905e+002;4.018545e-002
7.849191e+002;4.221073e-002
7.868476e+002;4.304377e-002
7.887761e+002;4.275988e-002
7.907047e+002;4.324156e-002
7.926332e+002;4.402766e-002
7.945618e+002;4.511932e-002
7.964903e+002;4.785903e-002
7.984189e+002;5.062749e-002
8.003474e+002;5.268867e-002
8.022759e+002;5.454514e-002
8.042045e+002;5.664089e-002
8.061331e+002;5.939584e-002
8.080616e+002;6.171795e-002
8.099902e+002;6.167957e-002
8.119187e+002;5.935219e-002
8.138472e+002;5.594666e-002
8.157758e+002;5.325678e-002
8.177043e+002;5.204020e-002
8.196329e+002;5.068982e-002
8.215615e+002;4.980506e-002
8.234900e+002;4.885865e-002
8.254185e+002;4.803301e-002
8.273471e+002;4.893953e-002
8.292756e+002;4.956779e-002
8.312042e+002;4.947238e-002
8.331328e+002;5.017359e-002
8.350613e+002;5.205488e-002
8.369898e+002;5.540427e-002
8.389184e+002;6.178292e-002
8.408469e+002;6.761594e-002
8.427755e+002;6.773020e-002
8.447040e+002;6.521865e-002
8.466326e+002;6.448948e-002
8.485611e+002;6.144518e-002
8.504897e+002;5.591173e-002
8.524182e+002;5.268590e-002
8.543467e+002;5.160142e-002
8.562753e+002;5.120104e-002
8.582039e+002;5.096791e-002
8.601324e+002;5.214330e-002
8.620610e+002;5.520139e-002
8.639895e+002;5.916268e-002
8.659180e+002;6.530961e-002
8.678466e+002;7.518420e-002
8.697751e+002;8.888886e-002
8.717037e+002;1.056963e-001
8.736323e+002;1.214350e-001
8.755608e+002;1.287270e-001
8.774893e+002;1.203847e-001
8.794179e+002;1.009864e-001
8.813464e+002;8.369428e-002
8.832750e+002;7.118289e-002
8.852036e+002;5.994941e-002
8.871321e+002;5.168054e-002
8.890606e+002;4.841071e-002
8.909892e+002;4.838945e-002
8.929177e+002;5.017225e-002
8.948463e+002;5.355961e-002
8.967748e+002;5.738195e-002
8.987034e+002;5.997946e-002
9.006319e+002;5.929328e-002
9.025605e+002;5.534311e-002
9.044890e+002;5.056048e-002
9.064175e+002;4.683819e-002
9.083461e+002;4.445819e-002
9.102747e+002;4.302365e-002
9.122032e+002;4.183375e-002
9.141318e+002;4.072222e-002
9.160603e+002;3.986532e-002
9.179888e+002;3.939840e-002
9.199174e+002;3.952881e-002
9.218459e+002;3.955407e-002
9.237745e+002;3.967766e-002
9.257031e+002;4.002083e-002
9.276316e+002;4.012145e-002
9.295601e+002;3.981615e-002
9.314887e+002;3.983950e-002
9.334172e+002;4.083210e-002
9.353458e+002;4.218849e-002
9.372744e+002;4.347017e-002
9.392029e+002;4.433062e-002
9.411314e+002;4.484590e-002
9.430600e+002;4.457713e-002
9.449885e+002;4.399906e-002
9.469171e+002;4.385821e-002
9.488456e+002;4.389809e-002
9.507742e+002;4.424806e-002
9.527027e+002;4.487426e-002
9.546313e+002;4.551042e-002
9.565598e+002;4.612112e-002
9.584883e+002;4.697278e-002
9.604169e+002;4.865577e-002
9.623455e+002;5.139363e-002
9.642740e+002;5.503542e-002
9.662026e+002;5.981336e-002
9.681311e+002;6.684583e-002
9.700596e+002;7.583764e-002
9.719882e+002;8.289102e-002
9.739167e+002;8.484778e-002
9.758453e+002;8.105027e-002
9.777739e+002;7.265773e-002
9.797024e+002;6.274103e-002
9.816309e+002;5.442408e-002
9.835595e+002;4.901008e-002
9.854880e+002;4.649808e-002
9.874166e+002;4.608207e-002
9.893452e+002;4.749912e-002
9.912737e+002;5.126457e-002
9.932022e+002;5.727374e-002
9.951307e+002;6.389356e-002
9.970593e+002;6.857754e-002
9.989879e+002;6.841616e-002
1.000916e+003;6.390753e-002
1.002845e+003;5.832417e-002
1.004773e+003;5.404386e-002
1.006702e+003;5.118736e-002
1.008631e+003;4.876474e-002
1.010559e+003;4.692335e-002
1.012488e+003;4.591874e-002
1.014416e+003;4.518564e-002
1.016345e+003;4.449255e-002
1.018273e+003;4.403356e-002
1.020202e+003;4.371821e-002
1.022130e+003;4.325701e-002
1.024059e+003;4.284581e-002
1.025988e+003;4.346640e-002
1.027916e+003;4.426420e-002
1.029845e+003;4.515829e-002
1.031773e+003;4.672852e-002
1.033702e+003;4.865651e-002
1.035630e+003;5.014458e-002
1.037559e+003;5.052136e-002
1.039487e+003;4.976887e-002
1.041416e+003;4.892043e-002
1.043344e+003;4.816305e-002
1.045273e+003;4.688296e-002
1.047202e+003;4.520822e-002
1.049130e+003;4.304348e-002
1.051059e+003;4.134288e-002
1.052987e+003;4.024481e-002
1.054916e+003;3.973169e-002
1.056844e+003;3.933876e-002
1.058773e+003;3.864757e-002
1.060701e+003;3.800366e-002
1.062630e+003;3.805129e-002
1.064558e+003;3.805755e-002
1.066487e+003;3.798771e-002
1.068416e+003;3.801831e-002
1.070344e+003;3.796453e-002
1.072273e+003;3.752377e-002
1.074201e+003;3.752316e-002
1.076130e+003;3.828196e-002
1.078058e+003;3.892643e-002
1.079987e+003;3.937180e-002
1.081915e+003;3.944705e-002
1.083844e+003;3.970315e-002
1.085773e+003;4.100795e-002
1.087701e+003;4.219203e-002
1.089630e+003;4.293750e-002
1.091558e+003;4.404310e-002
1.093487e+003;4.536775e-002
1.095415e+003;4.661983e-002
1.097344e+003;4.863234e-002
1.099272e+003;5.101017e-002
1.101201e+003;5.292612e-002
1.103129e+003;5.365723e-002
1.105058e+003;5.360605e-002
1.106987e+003;5.244218e-002
1.108915e+003;5.029723e-002
1.110844e+003;4.829375e-002
1.112772e+003;4.609014e-002
1.114701e+003;4.389413e-002
1.116629e+003;4.206549e-002
1.118558e+003;4.032977e-002
1.120486e+003;3.911115e-002
1.122415e+003;3.842554e-002
1.124344e+003;3.774871e-002
1.126272e+003;3.722982e-002
1.128201e+003;3.719820e-002
1.130129e+003;3.785722e-002
1.132058e+003;3.861291e-002
1.133986e+003;3.999224e-002
1.135915e+003;4.178403e-002
1.137843e+003;4.429000e-002
1.139772e+003;4.713053e-002
1.141700e+003;4.979343e-002
1.143629e+003;5.226635e-002
1.145557e+003;5.507687e-002
1.147486e+003;5.864687e-002
1.149415e+003;6.250932e-002
1.151343e+003;6.619684e-002
1.153272e+003;6.843521e-002
1.155200e+003;6.893320e-002
1.157129e+003;6.908094e-002
1.159057e+003;6.937531e-002
1.160986e+003;7.014167e-002
1.162914e+003;7.099701e-002
1.164843e+003;7.166955e-002
1.166771e+003;7.242572e-002
1.168700e+003;7.108004e-002
1.170629e+003;6.670745e-002
1.172557e+003;6.161381e-002
1.174486e+003;5.657114e-002
1.176414e+003;5.203583e-002
1.178343e+003;4.888865e-002
1.180271e+003;4.756547e-002
1.182200e+003;4.747221e-002
1.184128e+003;4.760137e-002
1.186057e+003;4.802887e-002
1.187986e+003;4.901946e-002
1.189914e+003;4.952946e-002
1.191843e+003;4.896405e-002
1.193771e+003;4.880326e-002
1.195700e+003;4.924285e-002
1.197628e+003;4.987013e-002
1.199557e+003;5.011353e-002
1.201485e+003;4.983089e-002
1.203414e+003;4.981435e-002
1.205343e+003;4.985352e-002
1.207271e+003;5.016849e-002
1.209200e+003;5.173473e-002
1.211128e+003;5.410064e-002
1.213057e+003;5.629547e-002
1.214985e+003;5.666981e-002
1.216914e+003;5.497969e-002
1.218842e+003;5.305093e-002
1.220771e+003;5.199437e-002
1.222699e+003;5.181118e-002
1.224628e+003;5.182279e-002
1.226557e+003;5.205607e-002
1.228485e+003;5.263316e-002
1.230414e+003;5.303857e-002
1.232342e+003;5.309226e-002
1.234271e+003;5.334773e-002
1.236199e+003;5.338434e-002
1.238128e+003;5.333080e-002
1.240056e+003;5.394180e-002
1.241985e+003;5.479470e-002
1.243913e+003;5.507044e-002
1.245842e+003;5.563979e-002
1.247771e+003;5.686504e-002
1.249699e+003;5.866264e-002
1.251628e+003;6.131130e-002
1.253556e+003;6.504489e-002
1.255485e+003;6.822277e-002
1.257413e+003;6.827798e-002
1.259342e+003;6.564417e-002
1.261270e+003;6.283058e-002
1.263199e+003;6.075718e-002
1.265127e+003;5.930171e-002
1.267056e+003;5.818599e-002
1.268985e+003;5.687973e-002
1.270913e+003;5.560559e-002
1.272842e+003;5.482361e-002
1.274770e+003;5.408214e-002
1.276699e+003;5.351411e-002
1.278627e+003;5.349207e-002
1.280556e+003;5.379529e-002
1.282484e+003;5.391449e-002
1.284413e+003;5.428040e-002
1.286342e+003;5.520387e-002
1.288270e+003;5.618674e-002
1.290199e+003;5.728614e-002
1.292127e+003;5.860455e-002
1.294056e+003;5.984337e-002
1.295984e+003;6.054786e-002
1.297913e+003;6.088487e-002
1.299841e+003;6.109336e-002
1.301770e+003;6.151191e-002
1.303698e+003;6.205243e-002
1.305627e+003;6.100363e-002
1.307556e+003;5.882242e-002
1.309484e+003;5.711835e-002
1.311413e+003;5.636971e-002
1.313341e+003;5.674185e-002
1.315270e+003;5.786681e-002
1.317198e+003;5.895599e-002
1.319127e+003;5.991935e-002
1.321055e+003;6.083634e-002
1.322984e+003;6.207177e-002
1.324912e+003;6.402309e-002
1.326841e+003;6.580749e-002
1.328770e+003;6.690214e-002
1.330698e+003;6.719402e-002
1.332627e+003;6.713868e-002
1.334555e+003;6.684088e-002
1.336484e+003;6.653235e-002
1.338412e+003;6.664070e-002
1.340341e+003;6.737152e-002
1.342269e+003;6.893882e-002
1.344198e+003;7.128248e-002
1.346126e+003;7.411558e-002
1.348055e+003;7.700320e-002
1.349984e+003;8.067806e-002
1.351912e+003;8.546515e-002
1.353841e+003;9.158403e-002
1.355769e+003;9.870428e-002
1.357698e+003;1.042442e-001
1.359626e+003;1.060823e-001
1.361555e+003;1.053034e-001
1.363483e+003;1.054422e-001
1.365412e+003;1.087025e-001
1.367341e+003;1.166856e-001
1.369269e+003;1.327321e-001
1.371198e+003;1.570427e-001
1.373126e+003;1.852972e-001
1.375055e+003;2.073660e-001
1.376983e+003;2.083811e-001
1.378912e+003;1.867378e-001
1.380840e+003;1.566479e-001
1.382769e+003;1.299810e-001
1.384698e+003;1.112538e-001
1.386626e+003;9.996692e-002
1.388555e+003;9.568326e-002
1.390483e+003;9.573229e-002
1.392412e+003;9.634706e-002
1.394340e+003;9.731349e-002
1.396269e+003;9.961999e-002
1.398197e+003;1.014197e-001
1.400126e+003;1.035255e-001
1.402054e+003;1.059629e-001
1.403983e+003;1.075134e-001
1.405911e+003;1.092451e-001
1.407840e+003;1.114034e-001
1.409769e+003;1.134183e-001
1.411697e+003;1.158080e-001
1.413626e+003;1.186430e-001
1.415554e+003;1.212203e-001
1.417483e+003;1.226925e-001
1.419411e+003;1.250875e-001
1.421340e+003;1.297438e-001
1.423268e+003;1.330814e-001
1.425197e+003;1.361144e-001
1.427125e+003;1.394027e-001
1.429054e+003;1.428058e-001
1.430983e+003;1.474549e-001
1.432911e+003;1.525446e-001
1.434840e+003;1.549153e-001
1.436768e+003;1.547110e-001
1.438697e+003;1.565092e-001
1.440625e+003;1.589751e-001
1.442554e+003;1.623281e-001
1.444482e+003;1.672164e-001
1.446411e+003;1.731375e-001
1.448340e+003;1.797826e-001
1.450268e+003;1.857485e-001
1.452197e+003;1.886111e-001
1.454125e+003;1.874565e-001
1.456054e+003;1.824784e-001
1.457982e+003;1.799044e-001
1.459911e+003;1.789602e-001
1.461839e+003;1.738415e-001
1.463768e+003;1.644653e-001
1.465697e+003;1.545810e-001
1.467625e+003;1.452690e-001
1.469554e+003;1.349821e-001
1.471482e+003;1.240555e-001
1.473411e+003;1.164808e-001
1.475339e+003;1.122511e-001
1.477268e+003;1.088049e-001
1.479196e+003;1.055783e-001
1.481125e+003;1.017502e-001
1.483053e+003;9.859807e-002
1.484982e+003;9.544098e-002
1.486911e+003;9.186078e-002
1.488839e+003;8.862466e-002
1.490768e+003;8.678196e-002
1.492696e+003;8.559398e-002
1.494625e+003;8.271721e-002
1.496553e+003;7.992934e-002
1.498482e+003;7.901530e-002
1.500410e+003;7.821433e-002
1.502339e+003;7.624218e-002
1.504267e+003;7.093806e-002
1.506196e+003;6.557549e-002
1.508125e+003;6.565669e-002
1.510053e+003;6.649439e-002
1.511982e+003;6.543028e-002
1.513910e+003;6.399237e-002
1.515839e+003;6.162847e-002
1.517767e+003;5.958481e-002
1.519696e+003;5.655015e-002
1.521624e+003;5.405947e-002
1.523553e+003;5.466271e-002
1.525481e+003;5.451742e-002
1.527410e+003;5.406000e-002
1.529339e+003;5.362645e-002
1.531267e+003;5.210404e-002
1.533196e+003;4.996451e-002
1.535124e+003;4.989890e-002
1.537053e+003;4.756211e-002
1.538981e+003;4.230663e-002
1.540910e+003;4.182700e-002
1.542838e+003;4.446201e-002
1.544767e+003;4.597409e-002
1.546695e+003;4.721108e-002
1.548624e+003;4.765565e-002
1.550553e+003;4.774433e-002
1.552481e+003;4.705999e-002
1.554410e+003;4.555799e-002
1.556338e+003;4.273403e-002
1.558267e+003;3.736078e-002
1.560195e+003;3.789221e-002
1.562124e+003;4.233943e-002
1.564052e+003;4.369989e-002
1.565981e+003;4.356712e-002
1.567910e+003;4.185338e-002
1.569838e+003;4.033602e-002
1.571767e+003;4.107186e-002
1.573695e+003;4.003577e-002
1.575624e+003;3.708682e-002
1.577552e+003;3.801747e-002
1.579481e+003;3.989729e-002
1.581409e+003;3.987513e-002
1.583338e+003;3.967538e-002
1.585266e+003;3.957817e-002
1.587195e+003;3.956724e-002
1.589124e+003;3.901001e-002
1.591052e+003;3.831417e-002
1.592981e+003;3.772048e-002
1.594909e+003;3.752255e-002
1.596838e+003;3.770494e-002
1.598766e+003;3.771589e-002
1.600695e+003;3.742181e-002
1.602623e+003;3.716842e-002
1.604552e+003;3.738837e-002
1.606480e+003;3.728022e-002
1.608409e+003;3.654328e-002
1.610338e+003;3.659796e-002
1.612266e+003;3.718961e-002
1.614195e+003;3.651217e-002
1.616123e+003;3.462106e-002
1.618052e+003;3.588470e-002
1.619980e+003;3.752836e-002
1.621909e+003;3.624812e-002
1.623837e+003;3.489440e-002
1.625766e+003;3.470080e-002
1.627694e+003;3.412554e-002
1.629623e+003;3.407228e-002
1.631552e+003;3.395105e-002
1.633480e+003;3.143084e-002
1.635409e+003;2.881451e-002
1.637337e+003;3.074707e-002
1.639266e+003;3.272942e-002
1.641194e+003;3.317252e-002
1.643123e+003;3.248697e-002
1.645051e+003;2.994514e-002
1.646980e+003;2.916192e-002
1.648909e+003;3.082379e-002
1.650837e+003;2.785696e-002
1.652766e+003;2.309317e-002
1.654694e+003;2.682678e-002
1.656623e+003;3.122593e-002
1.658551e+003;3.196231e-002
1.660480e+003;3.130059e-002
1.662408e+003;3.045208e-002
1.664337e+003;3.102132e-002
1.666266e+003;3.122012e-002
1.668194e+003;2.954472e-002
1.670123e+003;2.869931e-002
1.672051e+003;2.947961e-002
1.673980e+003;2.868671e-002
1.675908e+003;2.873269e-002
1.677837e+003;3.063939e-002
1.679765e+003;3.054350e-002
1.681694e+003;2.852890e-002
1.683622e+003;2.483949e-002
1.685551e+003;2.589741e-002
1.687479e+003;2.888908e-002
1.689408e+003;2.935328e-002
1.691337e+003;2.988022e-002
1.693265e+003;2.851914e-002
1.695194e+003;2.497441e-002
1.697122e+003;2.506201e-002
1.699051e+003;2.414547e-002
1.700979e+003;2.409931e-002
1.702908e+003;2.709505e-002
1.704836e+003;2.740466e-002
1.706765e+003;2.788013e-002
1.708693e+003;2.846437e-002
1.710622e+003;2.848461e-002
1.712551e+003;2.758098e-002
1.714479e+003;2.571527e-002
1.716408e+003;2.321954e-002
1.718336e+003;2.386296e-002
1.720265e+003;2.664312e-002
1.722193e+003;2.734453e-002
1.724122e+003;2.718657e-002
1.726050e+003;2.741881e-002
1.727979e+003;2.723159e-002
1.729908e+003;2.662530e-002
1.731836e+003;2.425958e-002
1.733765e+003;2.161620e-002
1.735693e+003;2.378970e-002
1.737622e+003;2.546992e-002
1.739550e+003;2.463520e-002
1.741479e+003;2.493889e-002
1.743407e+003;2.508497e-002
1.745336e+003;2.475922e-002
1.747265e+003;2.375554e-002
1.749193e+003;2.242085e-002
1.751122e+003;2.203127e-002
1.753050e+003;2.351790e-002
1.754979e+003;2.380947e-002
1.756907e+003;2.344015e-002
1.758836e+003;2.372663e-002
1.760764e+003;2.296026e-002
1.762693e+003;2.262154e-002
1.764621e+003;2.320521e-002
1.766550e+003;2.247887e-002
1.768479e+003;2.175570e-002
1.770407e+003;2.101314e-002
1.772336e+003;2.025335e-002
1.774264e+003;2.150767e-002
1.776193e+003;2.243759e-002
1.778121e+003;2.246628e-002
1.780050e+003;2.225690e-002
1.781978e+003;2.288013e-002
1.783907e+003;2.348534e-002
1.785835e+003;2.441005e-002
1.787764e+003;2.612336e-002
1.789693e+003;2.783173e-002
1.791621e+003;2.975927e-002
1.793550e+003;3.287110e-002
1.795478e+003;3.554295e-002
1.797407e+003;3.597403e-002
1.799335e+003;3.473834e-002
1.801264e+003;3.248157e-002
1.803192e+003;2.969303e-002
1.805121e+003;2.694878e-002
1.807049e+003;2.469356e-002
1.808978e+003;2.289725e-002
1.810907e+003;2.203064e-002
1.812835e+003;2.204026e-002
1.814764e+003;2.192197e-002
1.816692e+003;2.150422e-002
1.818621e+003;2.134667e-002
1.820549e+003;2.104121e-002
1.822478e+003;2.061881e-002
1.824406e+003;2.017122e-002
1.826335e+003;2.034386e-002
1.828264e+003;2.005384e-002
1.830192e+003;1.990244e-002
1.832121e+003;2.077822e-002
1.834049e+003;2.100678e-002
1.835978e+003;2.057834e-002
1.837906e+003;2.039692e-002
1.839835e+003;2.044363e-002
1.841763e+003;1.969613e-002
1.843692e+003;1.824085e-002
1.845620e+003;1.884032e-002
1.847549e+003;1.990445e-002
1.849478e+003;2.005860e-002
1.851406e+003;1.997713e-002
1.853335e+003;1.973386e-002
1.855263e+003;1.948947e-002
1.857192e+003;1.948871e-002
1.859120e+003;1.952953e-002
1.861049e+003;1.951730e-002
1.862977e+003;1.940849e-002
1.864906e+003;1.914497e-002
1.866834e+003;1.825592e-002
1.868763e+003;1.777226e-002
1.870692e+003;1.852271e-002
1.872620e+003;1.899914e-002
1.874549e+003;1.878520e-002
1.876477e+003;1.867799e-002
1.878406e+003;1.879374e-002
1.880334e+003;1.910238e-002
1.882263e+003;1.924037e-002
1.884191e+003;1.927387e-002
1.886120e+003;1.895819e-002
1.888048e+003;1.851935e-002
1.889977e+003;1.865730e-002
1.891906e+003;1.921616e-002
1.893834e+003;1.929559e-002
1.895763e+003;1.919923e-002
1.897691e+003;1.923230e-002
1.899620e+003;1.914999e-002
1.901548e+003;1.905643e-002
1.903477e+003;1.913953e-002
1.905405e+003;1.912848e-002
1.907334e+003;1.884094e-002
1.909262e+003;1.848734e-002
1.911191e+003;1.856597e-002
1.913120e+003;1.869968e-002
1.915048e+003;1.858198e-002
1.916977e+003;1.799433e-002
1.918905e+003;1.803098e-002
1.920834e+003;1.834861e-002
1.922762e+003;1.832887e-002
1.924691e+003;1.840450e-002
1.926619e+003;1.835773e-002
1.928548e+003;1.808624e-002
1.930477e+003;1.802542e-002
1.932405e+003;1.810175e-002
1.934334e+003;1.790738e-002
1.936262e+003;1.770071e-002
1.938191e+003;1.765626e-002
1.940119e+003;1.764138e-002
1.942048e+003;1.751997e-002
1.943976e+003;1.727572e-002
1.945905e+003;1.734582e-002
1.947833e+003;1.767700e-002
1.949762e+003;1.779601e-002
1.951691e+003;1.779459e-002
1.953619e+003;1.771624e-002
1.955548e+003;1.769211e-002
1.957476e+003;1.777840e-002
1.959405e+003;1.777744e-002
1.961333e+003;1.752839e-002
1.963262e+003;1.736751e-002
1.965190e+003;1.741428e-002
1.967119e+003;1.743918e-002
1.969047e+003;1.738314e-002
1.970976e+003;1.721080e-002
1.972905e+003;1.733210e-002
1.974833e+003;1.728496e-002
1.976762e+003;1.718853e-002
1.978690e+003;1.730824e-002
1.980619e+003;1.748002e-002
1.982547e+003;1.754788e-002
1.984476e+003;1.737576e-002
1.986404e+003;1.712649e-002
1.988333e+003;1.707576e-002
1.990261e+003;1.686118e-002
1.992190e+003;1.678837e-002
1.994119e+003;1.729655e-002
1.996047e+003;1.755909e-002
1.997976e+003;1.723414e-002
1.999904e+003;1.702820e-002
2.001833e+003;1.700239e-002
2.003761e+003;1.686262e-002
2.005690e+003;1.676092e-002
2.007618e+003;1.694465e-002
2.009547e+003;1.698651e-002
2.011476e+003;1.698816e-002
2.013404e+003;1.676608e-002
2.015333e+003;1.678723e-002
2.017261e+003;1.708010e-002
2.019190e+003;1.726169e-002
2.021118e+003;1.703889e-002
2.023047e+003;1.670561e-002
2.024975e+003;1.678110e-002
2.026904e+003;1.687413e-002
2.028833e+003;1.668055e-002
2.030761e+003;1.648502e-002
2.032690e+003;1.662928e-002
2.034618e+003;1.677387e-002
2.036547e+003;1.667586e-002
2.038475e+003;1.659517e-002
2.040404e+003;1.638017e-002
2.042332e+003;1.662701e-002
2.044261e+003;1.699533e-002
2.046189e+003;1.703116e-002
2.048118e+003;1.692136e-002
2.050047e+003;1.674263e-002
2.051975e+003;1.667328e-002
2.053904e+003;1.689935e-002
2.055832e+003;1.687782e-002
2.057761e+003;1.654091e-002
2.059689e+003;1.647005e-002
2.061618e+003;1.652508e-002
2.063546e+003;1.630909e-002
2.065475e+003;1.620414e-002
2.067404e+003;1.636083e-002
2.069332e+003;1.657785e-002
2.071260e+003;1.682181e-002
2.073189e+003;1.668323e-002
2.075118e+003;1.641454e-002
2.077046e+003;1.650853e-002
2.078975e+003;1.665751e-002
2.080903e+003;1.660653e-002
2.082832e+003;1.653506e-002
2.084760e+003;1.681853e-002
2.086689e+003;1.707131e-002
2.088617e+003;1.696167e-002
2.090546e+003;1.683297e-002
2.092475e+003;1.692053e-002
2.094403e+003;1.700112e-002
2.096332e+003;1.707669e-002
2.098260e+003;1.713500e-002
2.100189e+003;1.724793e-002
2.102117e+003;1.726569e-002
2.104046e+003;1.709637e-002
2.105974e+003;1.702613e-002
2.107903e+003;1.694193e-002
2.109832e+003;1.685098e-002
2.111760e+003;1.704140e-002
2.113688e+003;1.714841e-002
2.115617e+003;1.720357e-002
2.117546e+003;1.723711e-002
2.119474e+003;1.748451e-002
2.121403e+003;1.795490e-002
2.123331e+003;1.803989e-002
2.125260e+003;1.823308e-002
2.127188e+003;1.870718e-002
2.129117e+003;1.893729e-002
2.131045e+003;1.892645e-002
2.132974e+003;1.894847e-002
2.134903e+003;1.900430e-002
2.136831e+003;1.896041e-002
2.138760e+003;1.889755e-002
2.140688e+003;1.866595e-002
2.142617e+003;1.828540e-002
2.144545e+003;1.809374e-002
2.146474e+003;1.820298e-002
2.148402e+003;1.829096e-002
2.150331e+003;1.829234e-002
2.152260e+003;1.844841e-002
2.154188e+003;1.847703e-002
2.156117e+003;1.860643e-002
2.158045e+003;1.874887e-002
2.159974e+003;1.867522e-002
2.161902e+003;1.858333e-002
2.163831e+003;1.859771e-002
2.165759e+003;1.895061e-002
2.167688e+003;1.925797e-002
2.169616e+003;1.927453e-002
2.171545e+003;1.936844e-002
2.173474e+003;1.927394e-002
2.175402e+003;1.912897e-002
2.177331e+003;1.913181e-002
2.179259e+003;1.918042e-002
2.181188e+003;1.912533e-002
2.183116e+003;1.889607e-002
2.185045e+003;1.869933e-002
2.186973e+003;1.874953e-002
2.188902e+003;1.871957e-002
2.190831e+003;1.881565e-002
2.192759e+003;1.896664e-002
2.194688e+003;1.885392e-002
2.196616e+003;1.870144e-002
2.198545e+003;1.844360e-002
2.200473e+003;1.809194e-002
2.202402e+003;1.829956e-002
2.204330e+003;1.839012e-002
2.206259e+003;1.814404e-002
2.208188e+003;1.833230e-002
2.210116e+003;1.837007e-002
2.212044e+003;1.824051e-002
2.213973e+003;1.805612e-002
2.215902e+003;1.805968e-002
2.217830e+003;1.817520e-002
2.219759e+003;1.794074e-002
2.221687e+003;1.770485e-002
2.223616e+003;1.763814e-002
2.225544e+003;1.770064e-002
2.227473e+003;1.789143e-002
2.229401e+003;1.798867e-002
2.231330e+003;1.791909e-002
2.233259e+003;1.802455e-002
2.235187e+003;1.807564e-002
2.237116e+003;1.788874e-002
2.239044e+003;1.793563e-002
2.240973e+003;1.782000e-002
2.242901e+003;1.787548e-002
2.244830e+003;1.800373e-002
2.246758e+003;1.795272e-002
2.248687e+003;1.817206e-002
2.250615e+003;1.846645e-002
2.252544e+003;1.849633e-002
2.254473e+003;1.863845e-002
2.256401e+003;1.892894e-002
2.258330e+003;1.871563e-002
2.260258e+003;1.840257e-002
2.262187e+003;1.858098e-002
2.264115e+003;1.866651e-002
2.266044e+003;1.856074e-002
2.267972e+003;1.856278e-002
2.269901e+003;1.834581e-002
2.271830e+003;1.782697e-002
2.273758e+003;1.752549e-002
2.275687e+003;1.734124e-002
2.277615e+003;1.735793e-002
2.279544e+003;1.761664e-002
2.281472e+003;1.716189e-002
2.283401e+003;1.687103e-002
2.285329e+003;1.718081e-002
2.287258e+003;1.728431e-002
2.289187e+003;1.723349e-002
2.291115e+003;1.721387e-002
2.293043e+003;1.715372e-002
2.294972e+003;1.717699e-002
2.296901e+003;1.727031e-002
2.298829e+003;1.711519e-002
2.300758e+003;1.699357e-002
2.302686e+003;1.686104e-002
2.304615e+003;1.661758e-002
2.306543e+003;1.648117e-002
2.308472e+003;1.623616e-002
2.310400e+003;1.579704e-002
2.312329e+003;1.541013e-002
2.314258e+003;1.512363e-002
2.316186e+003;1.490309e-002
2.318115e+003;1.454904e-002
2.320043e+003;1.400364e-002
2.321972e+003;1.363939e-002
2.323900e+003;1.334975e-002
2.325829e+003;1.302360e-002
2.327757e+003;1.240766e-002
2.329686e+003;1.159963e-002
2.331615e+003;1.131172e-002
2.333543e+003;1.155777e-002
2.335472e+003;1.148502e-002
2.337400e+003;1.151493e-002
2.339329e+003;1.208409e-002
2.341257e+003;1.261047e-002
2.343186e+003;1.332905e-002
2.345114e+003;1.453383e-002
2.347043e+003;1.601402e-002
2.348971e+003;1.658291e-002
2.350900e+003;1.561434e-002
2.352829e+003;1.390428e-002
2.354757e+003;1.265150e-002
2.356686e+003;1.164445e-002
2.358614e+003;1.040047e-002
2.360543e+003;9.745025e-003
2.362471e+003;9.786639e-003
2.364400e+003;1.035404e-002
2.366328e+003;1.126985e-002
2.368257e+003;1.229356e-002
2.370186e+003;1.354315e-002
2.372114e+003;1.497397e-002
2.374042e+003;1.631311e-002
2.375971e+003;1.730872e-002
2.377900e+003;1.804590e-002
2.379828e+003;1.880703e-002
2.381757e+003;1.952101e-002
2.383685e+003;1.968476e-002
2.385614e+003;1.957282e-002
2.387542e+003;1.968212e-002
2.389471e+003;1.978237e-002
2.391399e+003;1.982849e-002
2.393328e+003;2.002640e-002
2.395257e+003;1.994716e-002
2.397185e+003;1.985017e-002
2.399114e+003;1.992277e-002
2.401042e+003;2.015858e-002
2.402971e+003;2.035650e-002
2.404899e+003;2.045533e-002
2.406828e+003;2.031945e-002
2.408756e+003;2.029001e-002
2.410685e+003;2.038727e-002
2.412614e+003;2.031955e-002
2.414542e+003;2.023509e-002
2.416471e+003;2.027216e-002
2.418399e+003;2.041470e-002
2.420328e+003;2.064925e-002
2.422256e+003;2.082424e-002
2.424185e+003;2.079146e-002
2.426113e+003;2.070774e-002
2.428042e+003;2.074506e-002
2.429970e+003;2.081253e-002
2.431899e+003;2.081166e-002
2.433828e+003;2.063987e-002
2.435756e+003;2.052150e-002
2.437685e+003;2.033129e-002
2.439613e+003;2.024376e-002
2.441542e+003;2.023127e-002
2.443470e+003;1.998084e-002
2.445399e+003;1.982894e-002
2.447327e+003;1.968011e-002
2.449256e+003;1.966417e-002
2.451185e+003;1.966902e-002
2.453113e+003;1.987611e-002
2.455042e+003;2.007300e-002
2.456970e+003;1.992173e-002
2.458899e+003;1.963359e-002
2.460827e+003;1.935843e-002
2.462756e+003;1.921530e-002
2.464684e+003;1.928381e-002
2.466613e+003;1.965872e-002
2.468542e+003;1.971666e-002
2.470470e+003;1.962052e-002
2.472398e+003;1.986644e-002
2.474327e+003;2.033737e-002
2.476256e+003;2.079522e-002
2.478184e+003;2.123375e-002
2.480113e+003;2.142384e-002
2.482041e+003;2.162352e-002
2.483970e+003;2.212777e-002
2.485898e+003;2.219266e-002
2.487827e+003;2.217585e-002
2.489755e+003;2.276192e-002
2.491684e+003;2.331284e-002
2.493613e+003;2.383380e-002
2.495541e+003;2.430541e-002
2.497470e+003;2.477514e-002
2.499398e+003;2.570968e-002
2.501327e+003;2.686584e-002
2.503255e+003;2.797395e-002
2.505184e+003;2.871828e-002
2.507112e+003;2.932988e-002
2.509041e+003;3.004157e-002
2.510969e+003;3.083278e-002
2.512898e+003;3.127321e-002
2.514827e+003;3.146076e-002
2.516755e+003;3.163254e-002
2.518684e+003;3.180424e-002
2.520612e+003;3.188054e-002
2.522541e+003;3.175244e-002
2.524469e+003;3.140210e-002
2.526398e+003;3.102819e-002
2.528326e+003;3.050817e-002
2.530255e+003;2.990066e-002
2.532184e+003;2.924591e-002
2.534112e+003;2.850668e-002
2.536041e+003;2.798034e-002
2.537969e+003;2.751323e-002
2.539898e+003;2.709261e-002
2.541826e+003;2.682019e-002
2.543755e+003;2.685308e-002
2.545683e+003;2.715627e-002
2.547612e+003;2.774649e-002
2.549541e+003;2.826095e-002
2.551469e+003;2.830717e-002
2.553397e+003;2.838605e-002
2.555326e+003;2.865733e-002
2.557255e+003;2.881306e-002
2.559183e+003;2.920154e-002
2.561112e+003;2.956837e-002
2.563040e+003;2.976140e-002
2.564969e+003;2.998817e-002
2.566897e+003;3.036470e-002
2.568826e+003;3.062798e-002
2.570754e+003;3.090877e-002
2.572683e+003;3.154092e-002
2.574612e+003;3.239046e-002
2.576540e+003;3.296296e-002
2.578469e+003;3.321473e-002
2.580397e+003;3.350765e-002
2.582326e+003;3.371426e-002
2.584254e+003;3.340537e-002
2.586183e+003;3.288196e-002
2.588111e+003;3.242741e-002
2.590040e+003;3.197201e-002
2.591969e+003;3.149817e-002
2.593897e+003;3.105178e-002
2.595826e+003;3.072829e-002
2.597754e+003;3.050216e-002
2.599683e+003;3.032533e-002
2.601611e+003;3.048738e-002
2.603540e+003;3.072736e-002
2.605468e+003;3.098737e-002
2.607397e+003;3.155471e-002
2.609325e+003;3.194629e-002
2.611254e+003;3.230482e-002
2.613183e+003;3.235087e-002
2.615111e+003;3.233102e-002
2.617040e+003;3.255117e-002
2.618968e+003;3.236115e-002
2.620897e+003;3.190257e-002
2.622825e+003;3.139775e-002
2.624754e+003;3.109503e-002
2.626682e+003;3.065525e-002
2.628611e+003;3.015482e-002
2.630540e+003;3.033279e-002
2.632468e+003;3.060845e-002
2.634396e+003;3.042354e-002
2.636325e+003;3.022674e-002
2.638254e+003;3.010783e-002
2.640182e+003;3.018120e-002
2.642111e+003;3.053366e-002
2.644039e+003;3.089056e-002
2.645968e+003;3.128215e-002
2.647896e+003;3.160036e-002
2.649825e+003;3.188821e-002
2.651753e+003;3.237682e-002
2.653682e+003;3.272074e-002
2.655611e+003;3.293636e-002
2.657539e+003;3.326434e-002
2.659468e+003;3.355404e-002
2.661396e+003;3.353203e-002
2.663325e+003;3.344416e-002
2.665253e+003;3.340580e-002
2.667182e+003;3.361486e-002
2.669110e+003;3.376235e-002
2.671039e+003;3.399957e-002
2.672968e+003;3.442518e-002
2.674896e+003;3.475147e-002
2.676825e+003;3.494352e-002
2.678753e+003;3.486818e-002
2.680682e+003;3.472922e-002
2.682610e+003;3.469771e-002
2.684539e+003;3.466451e-002
2.686467e+003;3.499290e-002
2.688396e+003;3.519651e-002
2.690324e+003;3.508729e-002
2.692253e+003;3.498144e-002
2.694182e+003;3.485687e-002
2.696110e+003;3.466721e-002
2.698039e+003;3.474552e-002
2.699967e+003;3.539917e-002
2.701896e+003;3.629678e-002
2.703824e+003;3.692514e-002
2.705753e+003;3.747378e-002
2.707681e+003;3.811918e-002
2.709610e+003;3.901374e-002
2.711539e+003;4.029759e-002
2.713467e+003;4.171388e-002
2.715396e+003;4.339082e-002
2.717324e+003;4.511649e-002
2.719253e+003;4.676022e-002
2.721181e+003;4.796774e-002
2.723110e+003;4.845208e-002
2.725038e+003;4.819266e-002
2.726967e+003;4.712960e-002
2.728896e+003;4.576680e-002
2.730824e+003;4.435671e-002
2.732752e+003;4.298713e-002
2.734681e+003;4.194844e-002
2.736610e+003;4.089835e-002
2.738538e+003;3.976455e-002
2.740467e+003;3.904633e-002
2.742395e+003;3.826322e-002
2.744324e+003;3.745139e-002
2.746252e+003;3.711107e-002
2.748181e+003;3.679049e-002
2.750109e+003;3.638288e-002
2.752038e+003;3.619305e-002
2.753967e+003;3.646745e-002
2.755895e+003;3.665293e-002
2.757824e+003;3.663603e-002
2.759752e+003;3.698293e-002
2.761681e+003;3.765807e-002
2.763609e+003;3.805881e-002
2.765538e+003;3.816079e-002
2.767466e+003;3.854458e-002
2.769395e+003;3.896274e-002
2.771323e+003;3.947086e-002
2.773252e+003;4.036788e-002
2.775181e+003;4.113159e-002
2.777109e+003;4.177652e-002
2.779038e+003;4.249839e-002
2.780966e+003;4.354756e-002
2.782895e+003;4.479436e-002
2.784823e+003;4.613638e-002
2.786752e+003;4.748625e-002
2.788680e+003;4.920908e-002
2.790609e+003;5.122855e-002
2.792538e+003;5.300121e-002
2.794466e+003;5.408574e-002
2.796395e+003;5.534981e-002
2.798323e+003;5.690934e-002
2.800252e+003;5.837299e-002
2.802180e+003;6.010828e-002
2.804109e+003;6.234474e-002
2.806037e+003;6.473848e-002
2.807966e+003;6.656650e-002
2.809895e+003;6.805958e-002
2.811823e+003;6.992034e-002
2.813751e+003;7.204444e-002
2.815680e+003;7.411358e-002
2.817609e+003;7.615905e-002
2.819537e+003;7.882115e-002
2.821466e+003;8.201087e-002
2.823394e+003;8.543119e-002
2.825323e+003;8.972587e-002
2.827251e+003;9.574823e-002
2.829180e+003;1.040175e-001
2.831108e+003;1.140371e-001
2.833037e+003;1.237404e-001
2.834966e+003;1.314099e-001
2.836894e+003;1.356240e-001
2.838823e+003;1.355474e-001
2.840751e+003;1.318345e-001
2.842680e+003;1.263387e-001
2.844608e+003;1.201761e-001
2.846537e+003;1.145147e-001
2.848465e+003;1.098055e-001
2.850394e+003;1.065847e-001
2.852323e+003;1.048291e-001
2.854251e+003;1.038542e-001
2.856180e+003;1.048748e-001
2.858108e+003;1.087697e-001
2.860037e+003;1.150851e-001
2.861965e+003;1.236923e-001
2.863894e+003;1.326236e-001
2.865822e+003;1.395324e-001
2.867751e+003;1.431115e-001
2.869679e+003;1.441495e-001
2.871608e+003;1.441026e-001
2.873536e+003;1.440074e-001
2.875465e+003;1.437662e-001
2.877394e+003;1.427706e-001
2.879322e+003;1.412059e-001
2.881251e+003;1.396516e-001
2.883179e+003;1.387576e-001
2.885108e+003;1.386522e-001
2.887036e+003;1.396610e-001
2.888965e+003;1.414391e-001
2.890893e+003;1.434428e-001
2.892822e+003;1.459107e-001
2.894750e+003;1.494404e-001
2.896679e+003;1.540316e-001
2.898608e+003;1.598027e-001
2.900536e+003;1.657418e-001
2.902465e+003;1.711799e-001
2.904393e+003;1.766270e-001
2.906322e+003;1.821679e-001
2.908250e+003;1.866776e-001
2.910179e+003;1.904302e-001
2.912107e+003;1.937433e-001
2.914036e+003;1.960953e-001
2.915965e+003;1.972078e-001
2.917893e+003;1.963610e-001
2.919822e+003;1.935095e-001
2.921750e+003;1.883463e-001
2.923679e+003;1.818975e-001
2.925607e+003;1.750798e-001
2.927536e+003;1.673911e-001
2.929464e+003;1.585299e-001
2.931393e+003;1.492939e-001
2.933322e+003;1.404557e-001
2.935250e+003;1.330976e-001
2.937178e+003;1.287214e-001
2.939107e+003;1.276987e-001
2.941036e+003;1.297714e-001
2.942964e+003;1.360494e-001
2.944893e+003;1.457199e-001
2.946821e+003;1.560154e-001
2.948750e+003;1.637128e-001
2.950678e+003;1.674401e-001
2.952607e+003;1.673540e-001
2.954535e+003;1.640017e-001
2.956464e+003;1.589996e-001
2.958393e+003;1.532574e-001
2.960321e+003;1.472940e-001
2.962250e+003;1.406005e-001
2.964178e+003;1.330872e-001
2.966107e+003;1.252897e-001
2.968035e+003;1.176828e-001
2.969964e+003;1.105911e-001
2.971892e+003;1.036657e-001
2.973821e+003;9.747138e-002
2.975750e+003;9.192026e-002
2.977678e+003;8.737426e-002
2.979607e+003;8.352501e-002
2.981535e+003;7.977256e-002
2.983464e+003;7.658309e-002
2.985392e+003;7.377172e-002
2.987321e+003;7.109129e-002
2.989249e+003;6.832386e-002
2.991178e+003;6.568170e-002
2.993106e+003;6.341220e-002
2.995035e+003;6.116186e-002
2.996964e+003;5.872636e-002
2.998892e+003;5.593758e-002
3.000821e+003;5.361250e-002
3.002749e+003;5.183989e-002
3.004678e+003;5.014012e-002
3.006606e+003;4.857005e-002
3.008535e+003;4.685473e-002
3.010463e+003;4.490696e-002
3.012392e+003;4.329794e-002
3.014321e+003;4.200486e-002
3.016249e+003;4.078438e-002
3.018177e+003;3.954304e-002
3.020106e+003;3.869248e-002
3.022035e+003;3.779273e-002
3.023963e+003;3.707974e-002
3.025892e+003;3.623933e-002
3.027820e+003;3.532678e-002
3.029749e+003;3.449204e-002
3.031677e+003;3.370967e-002
3.033606e+003;3.318944e-002
3.035534e+003;3.264682e-002
3.037463e+003;3.229287e-002
3.039392e+003;3.190079e-002
3.041320e+003;3.159305e-002
3.043249e+003;3.137809e-002
3.045177e+003;3.099481e-002
3.047106e+003;3.036427e-002
3.049034e+003;2.985073e-002
3.050963e+003;2.958923e-002
3.052891e+003;2.950918e-002
3.054820e+003;2.939812e-002
3.056749e+003;2.913233e-002
3.058677e+003;2.884595e-002
3.060606e+003;2.875595e-002
3.062534e+003;2.871917e-002
3.064463e+003;2.854737e-002
3.066391e+003;2.795539e-002
3.068320e+003;2.743145e-002
3.070248e+003;2.748217e-002
3.072177e+003;2.770906e-002
3.074105e+003;2.795553e-002
3.076034e+003;2.800596e-002
3.077963e+003;2.762035e-002
3.079891e+003;2.699599e-002
3.081820e+003;2.669093e-002
3.083748e+003;2.710704e-002
3.085677e+003;2.750632e-002
3.087605e+003;2.731630e-002
3.089534e+003;2.694727e-002
3.091462e+003;2.671507e-002
3.093391e+003;2.678830e-002
3.095320e+003;2.683426e-002
3.097248e+003;2.665450e-002
3.099177e+003;2.650462e-002
3.101105e+003;2.656178e-002
3.103034e+003;2.646007e-002
3.104962e+003;2.635278e-002
3.106891e+003;2.619533e-002
3.108819e+003;2.637623e-002
3.110748e+003;2.668840e-002
3.112677e+003;2.656893e-002
3.114605e+003;2.660976e-002
3.116533e+003;2.655911e-002
3.118462e+003;2.639063e-002
3.120391e+003;2.660370e-002
3.122319e+003;2.660434e-002
3.124248e+003;2.681783e-002
3.126176e+003;2.702212e-002
3.128105e+003;2.680853e-002
3.130033e+003;2.674421e-002
3.131962e+003;2.685516e-002
3.133890e+003;2.707279e-002
3.135819e+003;2.754931e-002
3.137748e+003;2.746353e-002
3.139676e+003;2.708348e-002
3.141605e+003;2.712548e-002
3.143533e+003;2.739587e-002
3.145462e+003;2.760474e-002
3.147390e+003;2.780870e-002
3.149319e+003;2.812017e-002
3.151247e+003;2.832999e-002
3.153176e+003;2.821647e-002
3.155104e+003;2.776797e-002
3.157033e+003;2.728546e-002
3.158962e+003;2.676821e-002
3.160890e+003;2.664732e-002
3.162819e+003;2.715924e-002
3.164747e+003;2.716308e-002
3.166676e+003;2.671725e-002
3.168604e+003;2.669689e-002
3.170533e+003;2.688671e-002
3.172461e+003;2.690155e-002
3.174390e+003;2.707967e-002
3.176319e+003;2.714178e-002
3.178247e+003;2.671461e-002
3.180176e+003;2.659888e-002
3.182104e+003;2.710852e-002
3.184033e+003;2.769981e-002
3.185961e+003;2.764397e-002
3.187890e+003;2.767152e-002
3.189818e+003;2.748595e-002
3.191747e+003;2.765559e-002
3.193676e+003;2.784237e-002
3.195604e+003;2.762229e-002
3.197532e+003;2.763818e-002
3.199461e+003;2.743208e-002
3.201390e+003;2.671581e-002
3.203318e+003;2.631958e-002
3.205247e+003;2.655573e-002
3.207175e+003;2.686742e-002
3.209104e+003;2.660469e-002
3.211032e+003;2.620561e-002
3.212961e+003;2.608962e-002
3.214889e+003;2.580654e-002
3.216818e+003;2.555495e-002
3.218747e+003;2.543306e-002
3.220675e+003;2.502807e-002
3.222604e+003;2.459316e-002
3.224532e+003;2.445071e-002
3.226461e+003;2.467662e-002
3.228389e+003;2.477262e-002
3.230318e+003;2.442215e-002
3.232246e+003;2.421992e-002
3.234175e+003;2.380261e-002
3.236104e+003;2.325006e-002
3.238032e+003;2.269272e-002
3.239961e+003;2.243917e-002
3.241889e+003;2.279195e-002
3.243818e+003;2.282363e-002
3.245746e+003;2.226426e-002
3.247675e+003;2.209298e-002
3.249603e+003;2.213335e-002
3.251532e+003;2.187587e-002
3.253460e+003;2.178967e-002
3.255389e+003;2.193852e-002
3.257318e+003;2.219845e-002
3.259246e+003;2.226234e-002
3.261175e+003;2.224030e-002
3.263103e+003;2.252605e-002
3.265032e+003;2.251834e-002
3.266960e+003;2.218590e-002
3.268889e+003;2.225620e-002
3.270817e+003;2.212010e-002
3.272746e+003;2.159559e-002
3.274675e+003;2.175985e-002
3.276603e+003;2.245881e-002
3.278531e+003;2.259875e-002
3.280460e+003;2.212878e-002
3.282389e+003;2.166538e-002
3.284317e+003;2.165424e-002
3.286246e+003;2.181273e-002
3.288174e+003;2.169464e-002
3.290103e+003;2.181980e-002
3.292031e+003;2.215082e-002
3.293960e+003;2.222300e-002
3.295888e+003;2.214531e-002
3.297817e+003;2.211337e-002
3.299746e+003;2.183677e-002
3.301674e+003;2.220605e-002
3.303603e+003;2.259376e-002
3.305531e+003;2.225404e-002
3.307460e+003;2.220399e-002
3.309388e+003;2.218468e-002
3.311317e+003;2.199781e-002
3.313245e+003;2.202970e-002
3.315174e+003;2.188350e-002
3.317103e+003;2.167649e-002
3.319031e+003;2.137754e-002
3.320960e+003;2.105112e-002
3.322888e+003;2.127408e-002
3.324817e+003;2.175089e-002
3.326745e+003;2.179904e-002
3.328674e+003;2.161767e-002
3.330602e+003;2.152400e-002
3.332531e+003;2.167726e-002
3.334459e+003;2.185022e-002
3.336388e+003;2.226175e-002
3.338317e+003;2.243829e-002
3.340245e+003;2.233238e-002
3.342174e+003;2.186688e-002
3.344102e+003;2.182433e-002
3.346031e+003;2.217341e-002
3.347959e+003;2.197254e-002
3.349888e+003;2.165176e-002
3.351816e+003;2.183064e-002
3.353745e+003;2.223594e-002
3.355674e+003;2.207467e-002
3.357602e+003;2.179440e-002
3.359531e+003;2.172595e-002
3.361459e+003;2.186778e-002
3.363388e+003;2.201865e-002
3.365316e+003;2.158406e-002
3.367245e+003;2.127892e-002
3.369173e+003;2.129005e-002
3.371102e+003;2.114267e-002
3.373031e+003;2.108287e-002
3.374959e+003;2.120494e-002
3.376887e+003;2.149747e-002
3.378816e+003;2.168757e-002
3.380745e+003;2.165639e-002
3.382673e+003;2.142840e-002
3.384602e+003;2.093636e-002
3.386530e+003;2.092183e-002
3.388459e+003;2.153395e-002
3.390387e+003;2.198202e-002
3.392316e+003;2.146422e-002
3.394244e+003;2.107543e-002
3.396173e+003;2.127551e-002
3.398102e+003;2.153653e-002
3.400030e+003;2.154827e-002
3.401959e+003;2.124273e-002
3.403887e+003;2.097903e-002
3.405816e+003;2.079310e-002
3.407744e+003;2.082647e-002
3.409673e+003;2.121350e-002
3.411601e+003;2.140532e-002
3.413530e+003;2.110729e-002
3.415458e+003;2.100281e-002
3.417387e+003;2.114785e-002
3.419316e+003;2.116062e-002
3.421244e+003;2.100240e-002
3.423173e+003;2.074006e-002
3.425101e+003;2.054023e-002
3.427030e+003;2.074503e-002
3.428958e+003;2.108792e-002
3.430887e+003;2.084420e-002
3.432815e+003;2.029848e-002
3.434744e+003;2.009011e-002
3.436673e+003;2.011360e-002
3.438601e+003;2.012734e-002
3.440530e+003;1.994823e-002
3.442458e+003;1.981577e-002
3.444387e+003;1.996055e-002
3.446315e+003;1.977405e-002
3.448244e+003;1.943888e-002
3.450172e+003;1.936702e-002
3.452101e+003;1.956426e-002
3.454030e+003;1.988121e-002
3.455958e+003;1.955372e-002
3.457886e+003;1.918382e-002
3.459815e+003;1.916249e-002
3.461744e+003;1.888683e-002
3.463672e+003;1.873974e-002
3.465601e+003;1.854498e-002
3.467529e+003;1.845750e-002
3.469458e+003;1.842953e-002
3.471386e+003;1.850044e-002
3.473315e+003;1.856251e-002
3.475243e+003;1.853509e-002
3.477172e+003;1.853858e-002
3.479101e+003;1.798646e-002
3.481029e+003;1.762030e-002
3.482958e+003;1.798239e-002
3.484886e+003;1.857762e-002
3.486815e+003;1.853429e-002
3.488743e+003;1.817696e-002
3.490672e+003;1.826207e-002
3.492600e+003;1.842075e-002
3.494529e+003;1.803132e-002
3.496458e+003;1.791740e-002
3.498386e+003;1.790541e-002
3.500315e+003;1.778700e-002
3.502243e+003;1.774447e-002
3.504172e+003;1.804234e-002
3.506100e+003;1.824728e-002
3.508029e+003;1.747640e-002
3.509957e+003;1.689070e-002
3.511886e+003;1.711129e-002
3.513814e+003;1.748206e-002
3.515743e+003;1.738621e-002
3.517672e+003;1.714314e-002
3.519600e+003;1.734938e-002
3.521529e+003;1.714807e-002
3.523457e+003;1.695788e-002
3.525386e+003;1.722184e-002
3.527314e+003;1.681533e-002
3.529243e+003;1.614574e-002
3.531171e+003;1.646764e-002
3.533100e+003;1.716727e-002
3.535029e+003;1.684106e-002
3.536957e+003;1.640505e-002
3.538885e+003;1.639273e-002
3.540814e+003;1.617934e-002
3.542743e+003;1.571864e-002
3.544671e+003;1.567188e-002
3.546600e+003;1.588849e-002
3.548528e+003;1.617638e-002
3.550457e+003;1.599260e-002
3.552385e+003;1.564636e-002
3.554314e+003;1.575478e-002
3.556242e+003;1.626224e-002
3.558171e+003;1.603922e-002
3.560100e+003;1.555823e-002
3.562028e+003;1.532054e-002
3.563957e+003;1.528168e-002
3.565885e+003;1.480568e-002
3.567814e+003;1.466408e-002
3.569742e+003;1.521820e-002
3.571671e+003;1.549696e-002
3.573599e+003;1.568122e-002
3.575528e+003;1.635288e-002
3.577457e+003;1.662395e-002
3.579385e+003;1.635158e-002
3.581314e+003;1.603282e-002
3.583242e+003;1.587979e-002
3.585171e+003;1.511293e-002
3.587099e+003;1.393696e-002
3.589028e+003;1.413052e-002
3.590956e+003;1.491118e-002
3.592885e+003;1.503389e-002
3.594813e+003;1.524026e-002
3.596742e+003;1.554456e-002
3.598671e+003;1.556671e-002
3.600599e+003;1.559422e-002
3.602528e+003;1.544361e-002
3.604456e+003;1.536324e-002
3.606385e+003;1.466493e-002
3.608313e+003;1.378425e-002
3.610242e+003;1.440198e-002
3.612170e+003;1.490333e-002
3.614099e+003;1.558000e-002
3.616028e+003;1.575560e-002
3.617956e+003;1.490717e-002
3.619885e+003;1.513080e-002
3.621813e+003;1.630069e-002
3.623742e+003;1.626337e-002
3.625670e+003;1.480081e-002
3.627599e+003;1.232877e-002
3.629527e+003;1.256711e-002
3.631456e+003;1.456179e-002
3.633385e+003;1.510720e-002
3.635313e+003;1.567703e-002
3.637241e+003;1.614461e-002
3.639170e+003;1.610183e-002
3.641099e+003;1.605332e-002
3.643027e+003;1.634752e-002
3.644956e+003;1.576144e-002
3.646884e+003;1.352158e-002
3.648813e+003;1.156798e-002
3.650741e+003;1.276535e-002
3.652670e+003;1.496903e-002
3.654598e+003;1.432680e-002
3.656527e+003;1.415862e-002
3.658456e+003;1.592983e-002
3.660384e+003;1.649710e-002
3.662313e+003;1.632725e-002
3.664241e+003;1.644190e-002
3.666170e+003;1.596648e-002
3.668098e+003;1.381401e-002
3.670027e+003;1.242130e-002
3.671955e+003;1.404238e-002
3.673884e+003;1.297908e-002
3.675813e+003;1.205091e-002
3.677741e+003;1.472985e-002
3.679669e+003;1.625095e-002
3.681598e+003;1.718754e-002
3.683527e+003;1.720050e-002
3.685455e+003;1.613474e-002
3.687384e+003;1.435594e-002
3.689312e+003;1.507553e-002
3.691241e+003;1.733917e-002
3.693169e+003;1.901755e-002
3.695098e+003;1.935974e-002
3.697026e+003;1.953397e-002
3.698955e+003;1.895127e-002
3.700884e+003;1.754505e-002
3.702812e+003;1.715351e-002
3.704741e+003;1.752977e-002
3.706669e+003;1.697924e-002
3.708598e+003;1.546767e-002
3.710526e+003;1.373223e-002
3.712455e+003;1.396878e-002
3.714383e+003;1.583195e-002
3.716312e+003;1.633513e-002
3.718240e+003;1.591505e-002
3.720169e+003;1.569132e-002
3.722098e+003;1.544117e-002
3.724026e+003;1.524661e-002
3.725955e+003;1.555452e-002
3.727883e+003;1.607501e-002
3.729812e+003;1.529562e-002
3.731740e+003;1.378688e-002
3.733669e+003;1.332355e-002
3.735597e+003;1.308011e-002
3.737526e+003;1.445757e-002
3.739455e+003;1.611156e-002
3.741383e+003;1.491588e-002
3.743312e+003;1.063279e-002
3.745240e+003;1.156066e-002
3.747169e+003;1.406655e-002
3.749097e+003;1.212617e-002
3.751026e+003;1.100391e-002
3.752954e+003;1.269817e-002
3.754883e+003;1.546572e-002
3.756812e+003;1.648839e-002
3.758740e+003;1.669064e-002
3.760668e+003;1.664612e-002
3.762597e+003;1.690110e-002
3.764526e+003;1.637796e-002
3.766454e+003;1.614509e-002
3.768383e+003;1.550946e-002
3.770311e+003;1.586264e-002
3.772240e+003;1.692177e-002
3.774168e+003;1.708810e-002
3.776097e+003;1.707200e-002
3.778025e+003;1.703068e-002
3.779954e+003;1.688577e-002
3.781883e+003;1.691350e-002
3.783811e+003;1.662195e-002
3.785740e+003;1.668392e-002
3.787668e+003;1.714976e-002
3.789597e+003;1.745964e-002
3.791525e+003;1.744563e-002
3.793454e+003;1.745308e-002
3.795382e+003;1.701056e-002
3.797311e+003;1.677090e-002
3.799240e+003;1.511499e-002
3.801168e+003;1.377898e-002
3.803097e+003;1.556588e-002
3.805025e+003;1.549504e-002
3.806954e+003;1.467357e-002
3.808882e+003;1.670441e-002
3.810811e+003;1.799123e-002
3.812739e+003;1.732413e-002
3.814668e+003;1.454476e-002
3.816596e+003;1.403017e-002
3.818525e+003;1.537704e-002
3.820454e+003;1.462672e-002
3.822382e+003;1.551427e-002
3.824311e+003;1.700625e-002
3.826239e+003;1.714724e-002
3.828168e+003;1.721922e-002
3.830096e+003;1.678778e-002
3.832025e+003;1.611283e-002
3.833953e+003;1.550198e-002
3.835882e+003;1.442677e-002
3.837811e+003;1.406090e-002
3.839739e+003;1.539427e-002
3.841667e+003;1.605706e-002
3.843596e+003;1.656732e-002
3.845525e+003;1.713900e-002
3.847453e+003;1.732279e-002
3.849382e+003;1.614199e-002
3.851310e+003;1.225876e-002
3.853239e+003;9.720560e-003
3.855167e+003;1.372970e-002
3.857096e+003;1.716544e-002
3.859024e+003;1.718481e-002
3.860953e+003;1.660477e-002
3.862882e+003;1.630382e-002
3.864810e+003;1.608519e-002
3.866739e+003;1.639300e-002
3.868667e+003;1.535098e-002
3.870596e+003;1.544955e-002
3.872524e+003;1.655000e-002
3.874453e+003;1.726297e-002
3.876381e+003;1.821660e-002
3.878310e+003;1.783250e-002
3.880239e+003;1.734531e-002
3.882167e+003;1.756192e-002
3.884096e+003;1.668423e-002
3.886024e+003;1.647377e-002
3.887953e+003;1.805094e-002
3.889881e+003;1.754205e-002
3.891810e+003;1.726624e-002
3.893738e+003;1.847326e-002
3.895667e+003;1.888766e-002
3.897595e+003;1.788639e-002
3.899524e+003;1.693579e-002
3.901453e+003;1.638898e-002
3.903381e+003;1.607515e-002
3.905310e+003;1.698513e-002
3.907238e+003;1.838805e-002
3.909167e+003;1.884437e-002
3.911095e+003;1.889281e-002
3.913024e+003;1.926912e-002
3.914952e+003;1.896241e-002
3.916881e+003;1.828146e-002
3.918810e+003;1.863973e-002
3.920738e+003;1.950902e-002
3.922667e+003;1.979284e-002
3.924595e+003;1.982367e-002
3.926524e+003;2.041119e-002
3.928452e+003;1.993342e-002
3.930381e+003;1.932998e-002
3.932309e+003;1.911103e-002
3.934238e+003;1.946930e-002
3.936167e+003;2.004569e-002
3.938095e+003;2.019770e-002
3.940023e+003;1.981361e-002
3.941952e+003;1.933487e-002
3.943881e+003;1.925644e-002
3.945809e+003;1.884045e-002
3.947738e+003;1.839762e-002
3.949666e+003;1.877406e-002
3.951595e+003;1.920356e-002
3.953523e+003;1.941022e-002
3.955452e+003;1.969273e-002
3.957380e+003;1.975955e-002
3.959309e+003;1.982603e-002
3.961238e+003;2.017628e-002
3.963166e+003;2.035494e-002
3.965095e+003;1.981247e-002
3.967023e+003;1.905875e-002
3.968952e+003;1.940659e-002
3.970880e+003;1.984153e-002
3.972809e+003;1.956887e-002
3.974737e+003;1.941438e-002
3.976666e+003;1.948795e-002
3.978594e+003;2.018170e-002
3.980523e+003;2.066725e-002
3.982452e+003;2.058942e-002
3.984380e+003;2.033389e-002
3.986309e+003;2.042915e-002
3.988237e+003;2.138983e-002
3.990166e+003;2.238422e-002
3.992094e+003;2.217223e-002
3.994023e+003;2.182548e-002
3.995951e+003;2.145882e-002
3.997880e+003;2.143338e-002
3.999809e+003;2.155711e-002
4.001737e+003;0.000000e+000
