3.992094e+002;0.000000e+000
4.011380e+002;0.000000e+000
4.030665e+002;0.000000e+000
4.049951e+002;0.000000e+000
4.069236e+002;0.000000e+000
4.088522e+002;0.000000e+000
4.107807e+002;0.000000e+000
4.127093e+002;0.000000e+000
4.146378e+002;0.000000e+000
4.165664e+002;0.000000e+000
4.184949e+002;0.000000e+000
4.204235e+002;0.000000e+000
4.223520e+002;0.000000e+000
4.242806e+002;0.000000e+000
4.262091e+002;0.000000e+000
4.281377e+002;0.000000e+000
4.300662e+002;0.000000e+000
4.319948e+002;0.000000e+000
4.339233e+002;0.000000e+000
4.358519e+002;0.000000e+000
4.377804e+002;0.000000e+000
4.397090e+002;0.000000e+000
4.416375e+002;0.000000e+000
4.435660e+002;0.000000e+000
4.454946e+002;0.000000e+000
4.474232e+002;0.000000e+000
4.493517e+002;0.000000e+000
4.512802e+002;0.000000e+000
4.532088e+002;0.000000e+000
4.551373e+002;0.000000e+000
4.570659e+002;0.000000e+000
4.589944e+002;0.000000e+000
4.609230e+002;0.000000e+000
4.628515e+002;0.000000e+000
4.647801e+002;0.000000e+000
4.667086e+002;0.000000e+000
4.686372e+002;0.000000e+000
4.705657e+002;0.000000e+000
4.724943e+002;0.000000e+000
4.744228e+002;0.000000e+000
4.763513e+002;0.000000e+000
4.782799e+002;0.000000e+000
4.802085e+002;0.000000e+000
4.821370e+002;0.000000e+000
4.840656e+002;0.000000e+000
4.859941e+002;0.000000e+000
4.879226e+002;0.000000e+000
4.898512e+002;0.000000e+000
4.917798e+002;0.000000e+000
4.937083e+002;0.000000e+000
4.956368e+002;0.000000e+000
4.975654e+002;0.000000e+000
4.994939e+002;0.000000e+000
5.014225e+002;0.000000e+000
5.033510e+002;0.000000e+000
5.052796e+002;0.000000e+000
5.072081e+002;0.000000e+000
5.091367e+002;0.000000e+000
5.110652e+002;0.000000e+000
5.129938e+002;0.000000e+000
5.149223e+002;0.000000e+000
5.168509e+002;0.000000e+000
5.187794e+002;0.000000e+000
5.207079e+002;0.000000e+000
5.226365e+002;0.000000e+000
5.245651e+002;0.000000e+000
5.264936e+002;0.000000e+000
5.284222e+002;0.000000e+000
5.303507e+002;0.000000e+000
5.322792e+002;0.000000e+000
5.342078e+002;0.000000e+000
5.361364e+002;0.000000e+000
5.380649e+002;0.000000e+000
5.399935e+002;0.000000e+000
5.419220e+002;0.000000e+000
5.438505e+002;0.000000e+000
5.457791e+002;0.000000e+000
5.477076e+002;0.000000e+000
5.496362e+002;0.000000e+000
5.515648e+002;0.000000e+000
5.534933e+002;0.000000e+000
5.554218e+002;0.000000e+000
5.573504e+002;0.000000e+000
5.592789e+002;0.000000e+000
5.612075e+002;0.000000e+000
5.631360e+002;0.000000e+000
5.650646e+002;0.000000e+000
5.669931e+002;0.000000e+000
5.689217e+002;0.000000e+000
5.708502e+002;0.000000e+000
5.727787e+002;0.000000e+000
5.747073e+002;0.000000e+000
5.766359e+002;0.000000e+000
5.785644e+002;0.000000e+000
5.804930e+002;0.000000e+000
5.824215e+002;0.000000e+000
5.843500e+002;0.000000e+000
5.862786e+002;0.000000e+000
5.882072e+002;0.000000e+000
5.901357e+002;0.000000e+000
5.920643e+002;0.000000e+000
5.939928e+002;0.000000e+000
5.959213e+002;0.000000e+000
5.978499e+002;0.000000e+000
5.997784e+002;6.825957e-002
6.017070e+002;6.048985e-002
6.036355e+002;5.713785e-002
6.055641e+002;6.098319e-002
6.074926e+002;5.864213e-002
6.094211e+002;5.224471e-002
6.113497e+002;5.062686e-002
6.132783e+002;5.078668e-002
6.152068e+002;5.088062e-002
6.171354e+002;5.435043e-002
6.190639e+002;5.646479e-002
6.209924e+002;5.509011e-002
6.229210e+002;5.483098e-002
6.248495e+002;5.150520e-002
6.267781e+002;5.257051e-002
6.287067e+002;5.473494e-002
6.306352e+002;5.199777e-002
6.325637e+002;5.256838e-002
6.344923e+002;5.591520e-002
6.364208e+002;5.461912e-002
6.383494e+002;4.975389e-002
6.402780e+002;5.006548e-002
6.422065e+002;5.434705e-002
6.441350e+002;5.636405e-002
6.460636e+002;5.452858e-002
6.479921e+002;5.228747e-002
6.499207e+002;5.446975e-002
6.518492e+002;5.602356e-002
6.537778e+002;5.586541e-002
6.557063e+002;5.562925e-002
6.576349e+002;5.415829e-002
6.595634e+002;5.603784e-002
6.614919e+002;5.754473e-002
6.634205e+002;5.612542e-002
6.653491e+002;5.388943e-002
6.672776e+002;5.389982e-002
6.692062e+002;5.474298e-002
6.711347e+002;5.575863e-002
6.730632e+002;5.721711e-002
6.749918e+002;5.636378e-002
6.769203e+002;5.541440e-002
6.788489e+002;5.616000e-002
6.807775e+002;5.639748e-002
6.827060e+002;5.551123e-002
6.846345e+002;5.562879e-002
6.865631e+002;5.564431e-002
6.884916e+002;5.437018e-002
6.904202e+002;5.387390e-002
6.923488e+002;5.343672e-002
6.942773e+002;5.340547e-002
6.962058e+002;5.494791e-002
6.981344e+002;5.638940e-002
7.000629e+002;5.696321e-002
7.019915e+002;5.657782e-002
7.039200e+002;5.522148e-002
7.058486e+002;5.458553e-002
7.077771e+002;5.590705e-002
7.097057e+002;5.637484e-002
7.116342e+002;5.580618e-002
7.135627e+002;5.709061e-002
7.154913e+002;5.841949e-002
7.174199e+002;5.849629e-002
7.193484e+002;5.796824e-002
7.212770e+002;5.690870e-002
7.232055e+002;5.636171e-002
7.251340e+002;5.645577e-002
7.270626e+002;5.708249e-002
7.289911e+002;5.757765e-002
7.309197e+002;5.721220e-002
7.328483e+002;5.725336e-002
7.347768e+002;5.680498e-002
7.367053e+002;5.551714e-002
7.386339e+002;5.547200e-002
7.405624e+002;5.609903e-002
7.424910e+002;5.631799e-002
7.444196e+002;5.565339e-002
7.463481e+002;5.527028e-002
7.482766e+002;5.582178e-002
7.502052e+002;5.564601e-002
7.521337e+002;5.528256e-002
7.540623e+002;5.597030e-002
7.559908e+002;5.605206e-002
7.579194e+002;5.486808e-002
7.598479e+002;5.419147e-002
7.617765e+002;5.461825e-002
7.637050e+002;5.520545e-002
7.656335e+002;5.608014e-002
7.675621e+002;5.644343e-002
7.694907e+002;5.579653e-002
7.714192e+002;5.554975e-002
7.733478e+002;5.525794e-002
7.752763e+002;5.453090e-002
7.772048e+002;5.419631e-002
7.791334e+002;5.436222e-002
7.810620e+002;5.420164e-002
7.829905e+002;5.472434e-002
7.849191e+002;5.593916e-002
7.868476e+002;5.666449e-002
7.887761e+002;5.746368e-002
7.907047e+002;5.782665e-002
7.926332e+002;5.864573e-002
7.945618e+002;6.088586e-002
7.964903e+002;6.305166e-002
7.984189e+002;6.430141e-002
8.003474e+002;6.526262e-002
8.022759e+002;6.685127e-002
8.042045e+002;6.909675e-002
8.061331e+002;7.064025e-002
8.080616e+002;7.261370e-002
8.099902e+002;7.327648e-002
8.119187e+002;7.120967e-002
8.138472e+002;6.806342e-002
8.157758e+002;6.567673e-002
8.177043e+002;6.418277e-002
8.196329e+002;6.278805e-002
8.215615e+002;6.192172e-002
8.234900e+002;6.165669e-002
8.254185e+002;6.135026e-002
8.273471e+002;6.098792e-002
8.292756e+002;6.044164e-002
8.312042e+002;6.071195e-002
8.331328e+002;6.191641e-002
8.350613e+002;6.336738e-002
8.369898e+002;6.612221e-002
8.389184e+002;7.062782e-002
8.408469e+002;7.512704e-002
8.427755e+002;7.494111e-002
8.447040e+002;7.052448e-002
8.466326e+002;6.577048e-002
8.485611e+002;6.272135e-002
8.504897e+002;6.113390e-002
8.524182e+002;6.010733e-002
8.543467e+002;5.902890e-002
8.562753e+002;5.739057e-002
8.582039e+002;5.664263e-002
8.601324e+002;5.642566e-002
8.620610e+002;5.636032e-002
8.639895e+002;5.668586e-002
8.659180e+002;5.708854e-002
8.678466e+002;5.676779e-002
8.697751e+002;5.681564e-002
8.717037e+002;5.750524e-002
8.736323e+002;5.811106e-002
8.755608e+002;5.794367e-002
8.774893e+002;5.748625e-002
8.794179e+002;5.683063e-002
8.813464e+002;5.616871e-002
8.832750e+002;5.643083e-002
8.852036e+002;5.678890e-002
8.871321e+002;5.655948e-002
8.890606e+002;5.675367e-002
8.909892e+002;5.782022e-002
8.929177e+002;5.993624e-002
8.948463e+002;6.332418e-002
8.967748e+002;6.747430e-002
8.987034e+002;7.004868e-002
9.006319e+002;6.969029e-002
9.025605e+002;6.587520e-002
9.044890e+002;6.064378e-002
9.064175e+002;5.649894e-002
9.083461e+002;5.417191e-002
9.102747e+002;5.309132e-002
9.122032e+002;5.203751e-002
9.141318e+002;5.142604e-002
9.160603e+002;5.131308e-002
9.179888e+002;5.105772e-002
9.199174e+002;5.051138e-002
9.218459e+002;5.045068e-002
9.237745e+002;5.043892e-002
9.257031e+002;5.017593e-002
9.276316e+002;5.042013e-002
9.295601e+002;5.097939e-002
9.314887e+002;5.127635e-002
9.334172e+002;5.142638e-002
9.353458e+002;5.200449e-002
9.372744e+002;5.321958e-002
9.392029e+002;5.457238e-002
9.411314e+002;5.532685e-002
9.430600e+002;5.555860e-002
9.449885e+002;5.585482e-002
9.469171e+002;5.631852e-002
9.488456e+002;5.631897e-002
9.507742e+002;5.626571e-002
9.527027e+002;5.735374e-002
9.546313e+002;5.831511e-002
9.565598e+002;5.871756e-002
9.584883e+002;5.949721e-002
9.604169e+002;6.098327e-002
9.623455e+002;6.307852e-002
9.642740e+002;6.609146e-002
9.662026e+002;7.057605e-002
9.681311e+002;7.689536e-002
9.700596e+002;8.448578e-002
9.719882e+002;9.058483e-002
9.739167e+002;9.227400e-002
9.758453e+002;8.872809e-002
9.777739e+002;8.103745e-002
9.797024e+002;7.229827e-002
9.816309e+002;6.520768e-002
9.835595e+002;6.051209e-002
9.854880e+002;5.824153e-002
9.874166e+002;5.820519e-002
9.893452e+002;5.987391e-002
9.912737e+002;6.313200e-002
9.932022e+002;6.841880e-002
9.951307e+002;7.454522e-002
9.970593e+002;7.918143e-002
9.989879e+002;7.969250e-002
1.000916e+003;7.568202e-002
1.002845e+003;7.024546e-002
1.004773e+003;6.592903e-002
1.006702e+003;6.339595e-002
1.008631e+003;6.185650e-002
1.010559e+003;6.110011e-002
1.012488e+003;6.033605e-002
1.014416e+003;5.935200e-002
1.016345e+003;5.891037e-002
1.018273e+003;5.929837e-002
1.020202e+003;5.982329e-002
1.022130e+003;5.962281e-002
1.024059e+003;5.906200e-002
1.025988e+003;5.915722e-002
1.027916e+003;6.028918e-002
1.029845e+003;6.119551e-002
1.031773e+003;6.191592e-002
1.033702e+003;6.271274e-002
1.035630e+003;6.390508e-002
1.037559e+003;6.517149e-002
1.039487e+003;6.584127e-002
1.041416e+003;6.585415e-002
1.043344e+003;6.593343e-002
1.045273e+003;6.576524e-002
1.047202e+003;6.513777e-002
1.049130e+003;6.442487e-002
1.051059e+003;6.341603e-002
1.052987e+003;6.228083e-002
1.054916e+003;6.185914e-002
1.056844e+003;6.228206e-002
1.058773e+003;6.235186e-002
1.060701e+003;6.187331e-002
1.062630e+003;6.147889e-002
1.064558e+003;6.144426e-002
1.066487e+003;6.183656e-002
1.068416e+003;6.167438e-002
1.070344e+003;6.180019e-002
1.072273e+003;6.270473e-002
1.074201e+003;6.250450e-002
1.076130e+003;6.219747e-002
1.078058e+003;6.217778e-002
1.079987e+003;6.197862e-002
1.081915e+003;6.204016e-002
1.083844e+003;6.237530e-002
1.085773e+003;6.255811e-002
1.087701e+003;6.338797e-002
1.089630e+003;6.420210e-002
1.091558e+003;6.410795e-002
1.093487e+003;6.431942e-002
1.095415e+003;6.541295e-002
1.097344e+003;6.648733e-002
1.099272e+003;6.778651e-002
1.101201e+003;6.869890e-002
1.103129e+003;6.885258e-002
1.105058e+003;6.837315e-002
1.106987e+003;6.714668e-002
1.108915e+003;6.602889e-002
1.110844e+003;6.455295e-002
1.112772e+003;6.267752e-002
1.114701e+003;6.161301e-002
1.116629e+003;6.088269e-002
1.118558e+003;6.014729e-002
1.120486e+003;5.969386e-002
1.122415e+003;5.937783e-002
1.124344e+003;5.920411e-002
1.126272e+003;5.891318e-002
1.128201e+003;5.878592e-002
1.130129e+003;5.948520e-002
1.132058e+003;5.986968e-002
1.133986e+003;6.047020e-002
1.135915e+003;6.195852e-002
1.137843e+003;6.374998e-002
1.139772e+003;6.634934e-002
1.141700e+003;6.929725e-002
1.143629e+003;7.236156e-002
1.145557e+003;7.575788e-002
1.147486e+003;7.906849e-002
1.149415e+003;8.203020e-002
1.151343e+003;8.451472e-002
1.153272e+003;8.599850e-002
1.155200e+003;8.709926e-002
1.157129e+003;8.750231e-002
1.159057e+003;8.743358e-002
1.160986e+003;8.807854e-002
1.162914e+003;8.921564e-002
1.164843e+003;8.975162e-002
1.166771e+003;8.947919e-002
1.168700e+003;8.788050e-002
1.170629e+003;8.453296e-002
1.172557e+003;8.035824e-002
1.174486e+003;7.586830e-002
1.176414e+003;7.170769e-002
1.178343e+003;6.824219e-002
1.180271e+003;6.615073e-002
1.182200e+003;6.463915e-002
1.184128e+003;6.339096e-002
1.186057e+003;6.307001e-002
1.187986e+003;6.305537e-002
1.189914e+003;6.299818e-002
1.191843e+003;6.308901e-002
1.193771e+003;6.281795e-002
1.195700e+003;6.270171e-002
1.197628e+003;6.321383e-002
1.199557e+003;6.340419e-002
1.201485e+003;6.318930e-002
1.203414e+003;6.324479e-002
1.205343e+003;6.354485e-002
1.207271e+003;6.404559e-002
1.209200e+003;6.504304e-002
1.211128e+003;6.605084e-002
1.213057e+003;6.687678e-002
1.214985e+003;6.747828e-002
1.216914e+003;6.795394e-002
1.218842e+003;6.848536e-002
1.220771e+003;6.823219e-002
1.222699e+003;6.713969e-002
1.224628e+003;6.642608e-002
1.226557e+003;6.642207e-002
1.228485e+003;6.653197e-002
1.230414e+003;6.660172e-002
1.232342e+003;6.702121e-002
1.234271e+003;6.725978e-002
1.236199e+003;6.708028e-002
1.238128e+003;6.726860e-002
1.240056e+003;6.776111e-002
1.241985e+003;6.777490e-002
1.243913e+003;6.804803e-002
1.245842e+003;6.874532e-002
1.247771e+003;6.934021e-002
1.249699e+003;7.021313e-002
1.251628e+003;7.247959e-002
1.253556e+003;7.519937e-002
1.255485e+003;7.670721e-002
1.257413e+003;7.693812e-002
1.259342e+003;7.584345e-002
1.261270e+003;7.382898e-002
1.263199e+003;7.154037e-002
1.265127e+003;6.957967e-002
1.267056e+003;6.829780e-002
1.268985e+003;6.765419e-002
1.270913e+003;6.715342e-002
1.272842e+003;6.675319e-002
1.274770e+003;6.645142e-002
1.276699e+003;6.607835e-002
1.278627e+003;6.590851e-002
1.280556e+003;6.612036e-002
1.282484e+003;6.650891e-002
1.284413e+003;6.700388e-002
1.286342e+003;6.789540e-002
1.288270e+003;6.866078e-002
1.290199e+003;6.916405e-002
1.292127e+003;6.977701e-002
1.294056e+003;7.038746e-002
1.295984e+003;7.080777e-002
1.297913e+003;7.099248e-002
1.299841e+003;7.092892e-002
1.301770e+003;7.114113e-002
1.303698e+003;7.109905e-002
1.305627e+003;6.985585e-002
1.307556e+003;6.744497e-002
1.309484e+003;6.509165e-002
1.311413e+003;6.414229e-002
1.313341e+003;6.420129e-002
1.315270e+003;6.464503e-002
1.317198e+003;6.529085e-002
1.319127e+003;6.615625e-002
1.321055e+003;6.731495e-002
1.322984e+003;6.871054e-002
1.324912e+003;7.012216e-002
1.326841e+003;7.135741e-002
1.328770e+003;7.237773e-002
1.330698e+003;7.269474e-002
1.332627e+003;7.228208e-002
1.334555e+003;7.166021e-002
1.336484e+003;7.120530e-002
1.338412e+003;7.105152e-002
1.340341e+003;7.157537e-002
1.342269e+003;7.265636e-002
1.344198e+003;7.423531e-002
1.346126e+003;7.617904e-002
1.348055e+003;7.874233e-002
1.349984e+003;8.217786e-002
1.351912e+003;8.634773e-002
1.353841e+003;9.185189e-002
1.355769e+003;9.844314e-002
1.357698e+003;1.038081e-001
1.359626e+003;1.056741e-001
1.361555e+003;1.047325e-001
1.363483e+003;1.041218e-001
1.365412e+003;1.066366e-001
1.367341e+003;1.139030e-001
1.369269e+003;1.276272e-001
1.371198e+003;1.481764e-001
1.373126e+003;1.725514e-001
1.375055e+003;1.912337e-001
1.376983e+003;1.920844e-001
1.378912e+003;1.738209e-001
1.380840e+003;1.476745e-001
1.382769e+003;1.234091e-001
1.384698e+003;1.043983e-001
1.386626e+003;9.120576e-002
1.388555e+003;8.272871e-002
1.390483e+003;7.741151e-002
1.392412e+003;7.383028e-002
1.394340e+003;7.142916e-002
1.396269e+003;7.015128e-002
1.398197e+003;6.956726e-002
1.400126e+003;6.944155e-002
1.402054e+003;6.932687e-002
1.403983e+003;6.909776e-002
1.405911e+003;6.948650e-002
1.407840e+003;7.003026e-002
1.409769e+003;7.017189e-002
1.411697e+003;7.074701e-002
1.413626e+003;7.150955e-002
1.415554e+003;7.167025e-002
1.417483e+003;7.167584e-002
1.419411e+003;7.197287e-002
1.421340e+003;7.284695e-002
1.423268e+003;7.440736e-002
1.425197e+003;7.648525e-002
1.427125e+003;7.966208e-002
1.429054e+003;8.504694e-002
1.430983e+003;9.289797e-002
1.432911e+003;1.018931e-001
1.434840e+003;1.087135e-001
1.436768e+003;1.118625e-001
1.438697e+003;1.136262e-001
1.440625e+003;1.164378e-001
1.442554e+003;1.211262e-001
1.444482e+003;1.281765e-001
1.446411e+003;1.370084e-001
1.448340e+003;1.462683e-001
1.450268e+003;1.543257e-001
1.452197e+003;1.599384e-001
1.454125e+003;1.625151e-001
1.456054e+003;1.622754e-001
1.457982e+003;1.605413e-001
1.459911e+003;1.581621e-001
1.461839e+003;1.535445e-001
1.463768e+003;1.462604e-001
1.465697e+003;1.371329e-001
1.467625e+003;1.270073e-001
1.469554e+003;1.164456e-001
1.471482e+003;1.067854e-001
1.473411e+003;9.828331e-002
1.475339e+003;9.083083e-002
1.477268e+003;8.443749e-002
1.479196e+003;7.910049e-002
1.481125e+003;7.485363e-002
1.483053e+003;7.108025e-002
1.484982e+003;6.758141e-002
1.486911e+003;6.491347e-002
1.488839e+003;6.294727e-002
1.490768e+003;6.133057e-002
1.492696e+003;6.050364e-002
1.494625e+003;5.999897e-002
1.496553e+003;5.903675e-002
1.498482e+003;5.839523e-002
1.500410e+003;5.790899e-002
1.502339e+003;5.741962e-002
1.504267e+003;5.704176e-002
1.506196e+003;5.663686e-002
1.508125e+003;5.649279e-002
1.510053e+003;5.679630e-002
1.511982e+003;5.712534e-002
1.513910e+003;5.710845e-002
1.515839e+003;5.706148e-002
1.517767e+003;5.692486e-002
1.519696e+003;5.665011e-002
1.521624e+003;5.636360e-002
1.523553e+003;5.635564e-002
1.525481e+003;5.656216e-002
1.527410e+003;5.697141e-002
1.529339e+003;5.715184e-002
1.531267e+003;5.721039e-002
1.533196e+003;5.752007e-002
1.535124e+003;5.793345e-002
1.537053e+003;5.824123e-002
1.538981e+003;5.819387e-002
1.540910e+003;5.837746e-002
1.542838e+003;5.916454e-002
1.544767e+003;6.002792e-002
1.546695e+003;6.026444e-002
1.548624e+003;5.999102e-002
1.550553e+003;5.957352e-002
1.552481e+003;5.918432e-002
1.554410e+003;5.844428e-002
1.556338e+003;5.730663e-002
1.558267e+003;5.603193e-002
1.560195e+003;5.530205e-002
1.562124e+003;5.466759e-002
1.564052e+003;5.401879e-002
1.565981e+003;5.347105e-002
1.567910e+003;5.283387e-002
1.569838e+003;5.202776e-002
1.571767e+003;5.135548e-002
1.573695e+003;5.084479e-002
1.575624e+003;5.068237e-002
1.577552e+003;5.060206e-002
1.579481e+003;5.044324e-002
1.581409e+003;5.035888e-002
1.583338e+003;5.036818e-002
1.585266e+003;5.027681e-002
1.587195e+003;5.011252e-002
1.589124e+003;4.977719e-002
1.591052e+003;4.950498e-002
1.592981e+003;4.970868e-002
1.594909e+003;5.021833e-002
1.596838e+003;5.066431e-002
1.598766e+003;5.108034e-002
1.600695e+003;5.139169e-002
1.602623e+003;5.186815e-002
1.604552e+003;5.265654e-002
1.606480e+003;5.342481e-002
1.608409e+003;5.409111e-002
1.610338e+003;5.472690e-002
1.612266e+003;5.538613e-002
1.614195e+003;5.639397e-002
1.616123e+003;5.734157e-002
1.618052e+003;5.823649e-002
1.619980e+003;5.929385e-002
1.621909e+003;6.017134e-002
1.623837e+003;6.091807e-002
1.625766e+003;6.183426e-002
1.627694e+003;6.291039e-002
1.629623e+003;6.402528e-002
1.631552e+003;6.466241e-002
1.633480e+003;6.502699e-002
1.635409e+003;6.579380e-002
1.637337e+003;6.699731e-002
1.639266e+003;6.805854e-002
1.641194e+003;6.875720e-002
1.643123e+003;6.951360e-002
1.645051e+003;7.000761e-002
1.646980e+003;7.030775e-002
1.648909e+003;7.076865e-002
1.650837e+003;7.082524e-002
1.652766e+003;7.067507e-002
1.654694e+003;7.102475e-002
1.656623e+003;7.127003e-002
1.658551e+003;7.088063e-002
1.660480e+003;7.021227e-002
1.662408e+003;6.950723e-002
1.664337e+003;6.889176e-002
1.666266e+003;6.810492e-002
1.668194e+003;6.727363e-002
1.670123e+003;6.646532e-002
1.672051e+003;6.578282e-002
1.673980e+003;6.515016e-002
1.675908e+003;6.442799e-002
1.677837e+003;6.354723e-002
1.679765e+003;6.254885e-002
1.681694e+003;6.173655e-002
1.683622e+003;6.095067e-002
1.685551e+003;6.031911e-002
1.687479e+003;5.970219e-002
1.689408e+003;5.914886e-002
1.691337e+003;5.863367e-002
1.693265e+003;5.803879e-002
1.695194e+003;5.747805e-002
1.697122e+003;5.721189e-002
1.699051e+003;5.677934e-002
1.700979e+003;5.637156e-002
1.702908e+003;5.650275e-002
1.704836e+003;5.665524e-002
1.706765e+003;5.668544e-002
1.708693e+003;5.644169e-002
1.710622e+003;5.594930e-002
1.712551e+003;5.550272e-002
1.714479e+003;5.505641e-002
1.716408e+003;5.425612e-002
1.718336e+003;5.381592e-002
1.720265e+003;5.355908e-002
1.722193e+003;5.335976e-002
1.724122e+003;5.339974e-002
1.726050e+003;5.325887e-002
1.727979e+003;5.325202e-002
1.729908e+003;5.347307e-002
1.731836e+003;5.344418e-002
1.733765e+003;5.389247e-002
1.735693e+003;5.488865e-002
1.737622e+003;5.535207e-002
1.739550e+003;5.524225e-002
1.741479e+003;5.481816e-002
1.743407e+003;5.379904e-002
1.745336e+003;5.205600e-002
1.747265e+003;4.991448e-002
1.749193e+003;4.773686e-002
1.751122e+003;4.577991e-002
1.753050e+003;4.384160e-002
1.754979e+003;4.169722e-002
1.756907e+003;3.965559e-002
1.758836e+003;3.788564e-002
1.760764e+003;3.613219e-002
1.762693e+003;3.475072e-002
1.764621e+003;3.359170e-002
1.766550e+003;3.262171e-002
1.768479e+003;3.218891e-002
1.770407e+003;3.160271e-002
1.772336e+003;3.096360e-002
1.774264e+003;3.069625e-002
1.776193e+003;3.024589e-002
1.778121e+003;2.971517e-002
1.780050e+003;2.924899e-002
1.781978e+003;2.875949e-002
1.783907e+003;2.821622e-002
1.785835e+003;2.776098e-002
1.787764e+003;2.739845e-002
1.789693e+003;2.696014e-002
1.791621e+003;2.628762e-002
1.793550e+003;2.580735e-002
1.795478e+003;2.565301e-002
1.797407e+003;2.544929e-002
1.799335e+003;2.513233e-002
1.801264e+003;2.476115e-002
1.803192e+003;2.424462e-002
1.805121e+003;2.374731e-002
1.807049e+003;2.362446e-002
1.808978e+003;2.364048e-002
1.810907e+003;2.371571e-002
1.812835e+003;2.370385e-002
1.814764e+003;2.338990e-002
1.816692e+003;2.307154e-002
1.818621e+003;2.277785e-002
1.820549e+003;2.276405e-002
1.822478e+003;2.306570e-002
1.824406e+003;2.310816e-002
1.826335e+003;2.279733e-002
1.828264e+003;2.262880e-002
1.830192e+003;2.267439e-002
1.832121e+003;2.258929e-002
1.834049e+003;2.274136e-002
1.835978e+003;2.303282e-002
1.837906e+003;2.277610e-002
1.839835e+003;2.228654e-002
1.841763e+003;2.192382e-002
1.843692e+003;2.182399e-002
1.845620e+003;2.205825e-002
1.847549e+003;2.194664e-002
1.849478e+003;2.173267e-002
1.851406e+003;2.180130e-002
1.853335e+003;2.164034e-002
1.855263e+003;2.150544e-002
1.857192e+003;2.140233e-002
1.859120e+003;2.138252e-002
1.861049e+003;2.147216e-002
1.862977e+003;2.151589e-002
1.864906e+003;2.140668e-002
1.866834e+003;2.110642e-002
1.868763e+003;2.089019e-002
1.870692e+003;2.074405e-002
1.872620e+003;2.067194e-002
1.874549e+003;2.068956e-002
1.876477e+003;2.064317e-002
1.878406e+003;2.065915e-002
1.880334e+003;2.064713e-002
1.882263e+003;2.066284e-002
1.884191e+003;2.066711e-002
1.886120e+003;2.066951e-002
1.888048e+003;2.068452e-002
1.889977e+003;2.100740e-002
1.891906e+003;2.123709e-002
1.893834e+003;2.120195e-002
1.895763e+003;2.107310e-002
1.897691e+003;2.098226e-002
1.899620e+003;2.100333e-002
1.901548e+003;2.092259e-002
1.903477e+003;2.086780e-002
1.905405e+003;2.062503e-002
1.907334e+003;2.031355e-002
1.909262e+003;2.015167e-002
1.911191e+003;2.022998e-002
1.913120e+003;2.025689e-002
1.915048e+003;2.008813e-002
1.916977e+003;2.014588e-002
1.918905e+003;2.029570e-002
1.920834e+003;2.017691e-002
1.922762e+003;2.008855e-002
1.924691e+003;2.004017e-002
1.926619e+003;1.994042e-002
1.928548e+003;2.001762e-002
1.930477e+003;1.987930e-002
1.932405e+003;1.948843e-002
1.934334e+003;1.933477e-002
1.936262e+003;1.933109e-002
1.938191e+003;1.913170e-002
1.940119e+003;1.892143e-002
1.942048e+003;1.897314e-002
1.943976e+003;1.920020e-002
1.945905e+003;1.916654e-002
1.947833e+003;1.897744e-002
1.949762e+003;1.891801e-002
1.951691e+003;1.919487e-002
1.953619e+003;1.906429e-002
1.955548e+003;1.888361e-002
1.957476e+003;1.906194e-002
1.959405e+003;1.907977e-002
1.961333e+003;1.891424e-002
1.963262e+003;1.882544e-002
1.965190e+003;1.877786e-002
1.967119e+003;1.851275e-002
1.969047e+003;1.836624e-002
1.970976e+003;1.846912e-002
1.972905e+003;1.858938e-002
1.974833e+003;1.857738e-002
1.976762e+003;1.871324e-002
1.978690e+003;1.889544e-002
1.980619e+003;1.873133e-002
1.982547e+003;1.865405e-002
1.984476e+003;1.859726e-002
1.986404e+003;1.855162e-002
1.988333e+003;1.863510e-002
1.990261e+003;1.869144e-002
1.992190e+003;1.867349e-002
1.994119e+003;1.857202e-002
1.996047e+003;1.837751e-002
1.997976e+003;1.827406e-002
1.999904e+003;1.837986e-002
2.001833e+003;1.834232e-002
2.003761e+003;1.843828e-002
2.005690e+003;1.863918e-002
2.007618e+003;1.877281e-002
2.009547e+003;1.876901e-002
2.011476e+003;1.868117e-002
2.013404e+003;1.866478e-002
2.015333e+003;1.868255e-002
2.017261e+003;1.851119e-002
2.019190e+003;1.851406e-002
2.021118e+003;1.865201e-002
2.023047e+003;1.852900e-002
2.024975e+003;1.841788e-002
2.026904e+003;1.834954e-002
2.028833e+003;1.814729e-002
2.030761e+003;1.807484e-002
2.032690e+003;1.833938e-002
2.034618e+003;1.849384e-002
2.036547e+003;1.857897e-002
2.038475e+003;1.842836e-002
2.040404e+003;1.844526e-002
2.042332e+003;1.862140e-002
2.044261e+003;1.863026e-002
2.046189e+003;1.857167e-002
2.048118e+003;1.835207e-002
2.050047e+003;1.820046e-002
2.051975e+003;1.821079e-002
2.053904e+003;1.826376e-002
2.055832e+003;1.835926e-002
2.057761e+003;1.842137e-002
2.059689e+003;1.837298e-002
2.061618e+003;1.818353e-002
2.063546e+003;1.793849e-002
2.065475e+003;1.784289e-002
2.067404e+003;1.807229e-002
2.069332e+003;1.825923e-002
2.071260e+003;1.821228e-002
2.073189e+003;1.813322e-002
2.075118e+003;1.808897e-002
2.077046e+003;1.816100e-002
2.078975e+003;1.835082e-002
2.080903e+003;1.846894e-002
2.082832e+003;1.837315e-002
2.084760e+003;1.843319e-002
2.086689e+003;1.860729e-002
2.088617e+003;1.849740e-002
2.090546e+003;1.854504e-002
2.092475e+003;1.856818e-002
2.094403e+003;1.845615e-002
2.096332e+003;1.834491e-002
2.098260e+003;1.831052e-002
2.100189e+003;1.850158e-002
2.102117e+003;1.859522e-002
2.104046e+003;1.856818e-002
2.105974e+003;1.857717e-002
2.107903e+003;1.850355e-002
2.109832e+003;1.830506e-002
2.111760e+003;1.846991e-002
2.113688e+003;1.879385e-002
2.115617e+003;1.873801e-002
2.117546e+003;1.861227e-002
2.119474e+003;1.859370e-002
2.121403e+003;1.872534e-002
2.123331e+003;1.911204e-002
2.125260e+003;1.949415e-002
2.127188e+003;1.972033e-002
2.129117e+003;2.005683e-002
2.131045e+003;2.021009e-002
2.132974e+003;2.009438e-002
2.134903e+003;1.994521e-002
2.136831e+003;1.992152e-002
2.138760e+003;1.971694e-002
2.140688e+003;1.958620e-002
2.142617e+003;1.983914e-002
2.144545e+003;1.991531e-002
2.146474e+003;1.966878e-002
2.148402e+003;1.950829e-002
2.150331e+003;1.959120e-002
2.152260e+003;1.975213e-002
2.154188e+003;1.993352e-002
2.156117e+003;1.990577e-002
2.158045e+003;1.963543e-002
2.159974e+003;1.970431e-002
2.161902e+003;2.009229e-002
2.163831e+003;2.030632e-002
2.165759e+003;2.036528e-002
2.167688e+003;2.036171e-002
2.169616e+003;2.041599e-002
2.171545e+003;2.080067e-002
2.173474e+003;2.120362e-002
2.175402e+003;2.107153e-002
2.177331e+003;2.070697e-002
2.179259e+003;2.072334e-002
2.181188e+003;2.093549e-002
2.183116e+003;2.088393e-002
2.185045e+003;2.078044e-002
2.186973e+003;2.063580e-002
2.188902e+003;2.049823e-002
2.190831e+003;2.072525e-002
2.192759e+003;2.095510e-002
2.194688e+003;2.083283e-002
2.196616e+003;2.081784e-002
2.198545e+003;2.113648e-002
2.200473e+003;2.117314e-002
2.202402e+003;2.076616e-002
2.204330e+003;2.059613e-002
2.206259e+003;2.041293e-002
2.208188e+003;2.015591e-002
2.210116e+003;2.047704e-002
2.212044e+003;2.078010e-002
2.213973e+003;2.074979e-002
2.215902e+003;2.065895e-002
2.217830e+003;2.065888e-002
2.219759e+003;2.059279e-002
2.221687e+003;2.059602e-002
2.223616e+003;2.051049e-002
2.225544e+003;2.057354e-002
2.227473e+003;2.071823e-002
2.229401e+003;2.080592e-002
2.231330e+003;2.079341e-002
2.233259e+003;2.083592e-002
2.235187e+003;2.090705e-002
2.237116e+003;2.089085e-002
2.239044e+003;2.091811e-002
2.240973e+003;2.086088e-002
2.242901e+003;2.062441e-002
2.244830e+003;2.049007e-002
2.246758e+003;2.062858e-002
2.248687e+003;2.085939e-002
2.250615e+003;2.102764e-002
2.252544e+003;2.127951e-002
2.254473e+003;2.149169e-002
2.256401e+003;2.151766e-002
2.258330e+003;2.163731e-002
2.260258e+003;2.139812e-002
2.262187e+003;2.111303e-002
2.264115e+003;2.114392e-002
2.266044e+003;2.119583e-002
2.267972e+003;2.120473e-002
2.269901e+003;2.094846e-002
2.271830e+003;2.065137e-002
2.273758e+003;2.068762e-002
2.275687e+003;2.055023e-002
2.277615e+003;2.051115e-002
2.279544e+003;2.055871e-002
2.281472e+003;2.050855e-002
2.283401e+003;2.050059e-002
2.285329e+003;2.043276e-002
2.287258e+003;2.025168e-002
2.289187e+003;2.016101e-002
2.291115e+003;1.995423e-002
2.293043e+003;1.984483e-002
2.294972e+003;2.022866e-002
2.296901e+003;2.019943e-002
2.298829e+003;1.995049e-002
2.300758e+003;1.994667e-002
2.302686e+003;2.006557e-002
2.304615e+003;2.026303e-002
2.306543e+003;2.048698e-002
2.308472e+003;2.056284e-002
2.310400e+003;2.032032e-002
2.312329e+003;2.010833e-002
2.314258e+003;2.038473e-002
2.316186e+003;2.078013e-002
2.318115e+003;2.096460e-002
2.320043e+003;2.105922e-002
2.321972e+003;2.084239e-002
2.323900e+003;2.084520e-002
2.325829e+003;2.132562e-002
2.327757e+003;2.160865e-002
2.329686e+003;2.146230e-002
2.331615e+003;2.155659e-002
2.333543e+003;2.182088e-002
2.335472e+003;2.191068e-002
2.337400e+003;2.186461e-002
2.339329e+003;2.196567e-002
2.341257e+003;2.221470e-002
2.343186e+003;2.227653e-002
2.345114e+003;2.212080e-002
2.347043e+003;2.215465e-002
2.348971e+003;2.264678e-002
2.350900e+003;2.254975e-002
2.352829e+003;2.222621e-002
2.354757e+003;2.273821e-002
2.356686e+003;2.305871e-002
2.358614e+003;2.280651e-002
2.360543e+003;2.274555e-002
2.362471e+003;2.291164e-002
2.364400e+003;2.274610e-002
2.366328e+003;2.260793e-002
2.368257e+003;2.253565e-002
2.370186e+003;2.279373e-002
2.372114e+003;2.311951e-002
2.374042e+003;2.334004e-002
2.375971e+003;2.351056e-002
2.377900e+003;2.335742e-002
2.379828e+003;2.326502e-002
2.381757e+003;2.341015e-002
2.383685e+003;2.341798e-002
2.385614e+003;2.319612e-002
2.387542e+003;2.289924e-002
2.389471e+003;2.286009e-002
2.391399e+003;2.326229e-002
2.393328e+003;2.356932e-002
2.395257e+003;2.368656e-002
2.397185e+003;2.367351e-002
2.399114e+003;2.373696e-002
2.401042e+003;2.401316e-002
2.402971e+003;2.424829e-002
2.404899e+003;2.414446e-002
2.406828e+003;2.403515e-002
2.408756e+003;2.393409e-002
2.410685e+003;2.375347e-002
2.412614e+003;2.393010e-002
2.414542e+003;2.401214e-002
2.416471e+003;2.384643e-002
2.418399e+003;2.382680e-002
2.420328e+003;2.411195e-002
2.422256e+003;2.463036e-002
2.424185e+003;2.492068e-002
2.426113e+003;2.485636e-002
2.428042e+003;2.472397e-002
2.429970e+003;2.490292e-002
2.431899e+003;2.512513e-002
2.433828e+003;2.497697e-002
2.435756e+003;2.460196e-002
2.437685e+003;2.445460e-002
2.439613e+003;2.439316e-002
2.441542e+003;2.417725e-002
2.443470e+003;2.412109e-002
2.445399e+003;2.414274e-002
2.447327e+003;2.408355e-002
2.449256e+003;2.385147e-002
2.451185e+003;2.354554e-002
2.453113e+003;2.367775e-002
2.455042e+003;2.377269e-002
2.456970e+003;2.371358e-002
2.458899e+003;2.363537e-002
2.460827e+003;2.336155e-002
2.462756e+003;2.327579e-002
2.464684e+003;2.315404e-002
2.466613e+003;2.329781e-002
2.468542e+003;2.368786e-002
2.470470e+003;2.359388e-002
2.472398e+003;2.359049e-002
2.474327e+003;2.384941e-002
2.476256e+003;2.413503e-002
2.478184e+003;2.430001e-002
2.480113e+003;2.440714e-002
2.482041e+003;2.434616e-002
2.483970e+003;2.424626e-002
2.485898e+003;2.425744e-002
2.487827e+003;2.444482e-002
2.489755e+003;2.471643e-002
2.491684e+003;2.475217e-002
2.493613e+003;2.456728e-002
2.495541e+003;2.432591e-002
2.497470e+003;2.423705e-002
2.499398e+003;2.432622e-002
2.501327e+003;2.441973e-002
2.503255e+003;2.424416e-002
2.505184e+003;2.402247e-002
2.507112e+003;2.407181e-002
2.509041e+003;2.428932e-002
2.510969e+003;2.474578e-002
2.512898e+003;2.510091e-002
2.514827e+003;2.533730e-002
2.516755e+003;2.564250e-002
2.518684e+003;2.595013e-002
2.520612e+003;2.618973e-002
2.522541e+003;2.655086e-002
2.524469e+003;2.676793e-002
2.526398e+003;2.675655e-002
2.528326e+003;2.703087e-002
2.530255e+003;2.730928e-002
2.532184e+003;2.729061e-002
2.534112e+003;2.736962e-002
2.536041e+003;2.752781e-002
2.537969e+003;2.773004e-002
2.539898e+003;2.802272e-002
2.541826e+003;2.833126e-002
2.543755e+003;2.866112e-002
2.545683e+003;2.907486e-002
2.547612e+003;2.939341e-002
2.549541e+003;2.965798e-002
2.551469e+003;2.991294e-002
2.553397e+003;3.010293e-002
2.555326e+003;3.040162e-002
2.557255e+003;3.071687e-002
2.559183e+003;3.100556e-002
2.561112e+003;3.151659e-002
2.563040e+003;3.201531e-002
2.564969e+003;3.240213e-002
2.566897e+003;3.289144e-002
2.568826e+003;3.349051e-002
2.570754e+003;3.379849e-002
2.572683e+003;3.407231e-002
2.574612e+003;3.450047e-002
2.576540e+003;3.505917e-002
2.578469e+003;3.562149e-002
2.580397e+003;3.615063e-002
2.582326e+003;3.634311e-002
2.584254e+003;3.585501e-002
2.586183e+003;3.516633e-002
2.588111e+003;3.465188e-002
2.590040e+003;3.422759e-002
2.591969e+003;3.398631e-002
2.593897e+003;3.363495e-002
2.595826e+003;3.349660e-002
2.597754e+003;3.349502e-002
2.599683e+003;3.332848e-002
2.601611e+003;3.322671e-002
2.603540e+003;3.352888e-002
2.605468e+003;3.418285e-002
2.607397e+003;3.455722e-002
2.609325e+003;3.477384e-002
2.611254e+003;3.501987e-002
2.613183e+003;3.531481e-002
2.615111e+003;3.558707e-002
2.617040e+003;3.569206e-002
2.618968e+003;3.570102e-002
2.620897e+003;3.555553e-002
2.622825e+003;3.524236e-002
2.624754e+003;3.510597e-002
2.626682e+003;3.493537e-002
2.628611e+003;3.474534e-002
2.630540e+003;3.462034e-002
2.632468e+003;3.452314e-002
2.634396e+003;3.468500e-002
2.636325e+003;3.510834e-002
2.638254e+003;3.537214e-002
2.640182e+003;3.541082e-002
2.642111e+003;3.565099e-002
2.644039e+003;3.621588e-002
2.645968e+003;3.649405e-002
2.647896e+003;3.658473e-002
2.649825e+003;3.677802e-002
2.651753e+003;3.705333e-002
2.653682e+003;3.759671e-002
2.655611e+003;3.798157e-002
2.657539e+003;3.832267e-002
2.659468e+003;3.867484e-002
2.661396e+003;3.877873e-002
2.663325e+003;3.884717e-002
2.665253e+003;3.898391e-002
2.667182e+003;3.906902e-002
2.669110e+003;3.901744e-002
2.671039e+003;3.878051e-002
2.672968e+003;3.895183e-002
2.674896e+003;3.964252e-002
2.676825e+003;4.002894e-002
2.678753e+003;3.968286e-002
2.680682e+003;3.950333e-002
2.682610e+003;3.975456e-002
2.684539e+003;3.982512e-002
2.686467e+003;3.983002e-002
2.688396e+003;3.992329e-002
2.690324e+003;3.989685e-002
2.692253e+003;3.977686e-002
2.694182e+003;4.002214e-002
2.696110e+003;4.036399e-002
2.698039e+003;4.063623e-002
2.699967e+003;4.078998e-002
2.701896e+003;4.121746e-002
2.703824e+003;4.205034e-002
2.705753e+003;4.273414e-002
2.707681e+003;4.287890e-002
2.709610e+003;4.349419e-002
2.711539e+003;4.455907e-002
2.713467e+003;4.593645e-002
2.715396e+003;4.756410e-002
2.717324e+003;4.947320e-002
2.719253e+003;5.107065e-002
2.721181e+003;5.215742e-002
2.723110e+003;5.278736e-002
2.725038e+003;5.226224e-002
2.726967e+003;5.118437e-002
2.728896e+003;5.025036e-002
2.730824e+003;4.894876e-002
2.732752e+003;4.755231e-002
2.734681e+003;4.659689e-002
2.736610e+003;4.595210e-002
2.738538e+003;4.522352e-002
2.740467e+003;4.468120e-002
2.742395e+003;4.402319e-002
2.744324e+003;4.325884e-002
2.746252e+003;4.239806e-002
2.748181e+003;4.183649e-002
2.750109e+003;4.177498e-002
2.752038e+003;4.184568e-002
2.753967e+003;4.212416e-002
2.755895e+003;4.243112e-002
2.757824e+003;4.243810e-002
2.759752e+003;4.283268e-002
2.761681e+003;4.353397e-002
2.763609e+003;4.398593e-002
2.765538e+003;4.410119e-002
2.767466e+003;4.443176e-002
2.769395e+003;4.488492e-002
2.771323e+003;4.544761e-002
2.773252e+003;4.604442e-002
2.775181e+003;4.621660e-002
2.777109e+003;4.637002e-002
2.779038e+003;4.716192e-002
2.780966e+003;4.859943e-002
2.782895e+003;5.013848e-002
2.784823e+003;5.144089e-002
2.786752e+003;5.272799e-002
2.788680e+003;5.381415e-002
2.790609e+003;5.527506e-002
2.792538e+003;5.693654e-002
2.794466e+003;5.858035e-002
2.796395e+003;6.012400e-002
2.798323e+003;6.150106e-002
2.800252e+003;6.300799e-002
2.802180e+003;6.437161e-002
2.804109e+003;6.623072e-002
2.806037e+003;6.869641e-002
2.807966e+003;7.063004e-002
2.809895e+003;7.189658e-002
2.811823e+003;7.342912e-002
2.813751e+003;7.549830e-002
2.815680e+003;7.751591e-002
2.817609e+003;7.928152e-002
2.819537e+003;8.171257e-002
2.821466e+003;8.462591e-002
2.823394e+003;8.795721e-002
2.825323e+003;9.238187e-002
2.827251e+003;9.821779e-002
2.829180e+003;1.057700e-001
2.831108e+003;1.143041e-001
2.833037e+003;1.227411e-001
2.834966e+003;1.295412e-001
2.836894e+003;1.331852e-001
2.838823e+003;1.331713e-001
2.840751e+003;1.303328e-001
2.842680e+003;1.261919e-001
2.844608e+003;1.217987e-001
2.846537e+003;1.169903e-001
2.848465e+003;1.131700e-001
2.850394e+003;1.109570e-001
2.852323e+003;1.095806e-001
2.854251e+003;1.092183e-001
2.856180e+003;1.102448e-001
2.858108e+003;1.129616e-001
2.860037e+003;1.178615e-001
2.861965e+003;1.248993e-001
2.863894e+003;1.326592e-001
2.865822e+003;1.387314e-001
2.867751e+003;1.416040e-001
2.869679e+003;1.425132e-001
2.871608e+003;1.424703e-001
2.873536e+003;1.421247e-001
2.875465e+003;1.419097e-001
2.877394e+003;1.412386e-001
2.879322e+003;1.400426e-001
2.881251e+003;1.382935e-001
2.883179e+003;1.373205e-001
2.885108e+003;1.376393e-001
2.887036e+003;1.383829e-001
2.888965e+003;1.395574e-001
2.890893e+003;1.415738e-001
2.892822e+003;1.444421e-001
2.894750e+003;1.485233e-001
2.896679e+003;1.529218e-001
2.898608e+003;1.573959e-001
2.900536e+003;1.624037e-001
2.902465e+003;1.675818e-001
2.904393e+003;1.726952e-001
2.906322e+003;1.773151e-001
2.908250e+003;1.817628e-001
2.910179e+003;1.859910e-001
2.912107e+003;1.888144e-001
2.914036e+003;1.909666e-001
2.915965e+003;1.925775e-001
2.917893e+003;1.923608e-001
2.919822e+003;1.895159e-001
2.921750e+003;1.849900e-001
2.923679e+003;1.800097e-001
2.925607e+003;1.737005e-001
2.927536e+003;1.666850e-001
2.929464e+003;1.594348e-001
2.931393e+003;1.517763e-001
2.933322e+003;1.440951e-001
2.935250e+003;1.374068e-001
2.937178e+003;1.323162e-001
2.939107e+003;1.300933e-001
2.941036e+003;1.316706e-001
2.942964e+003;1.367599e-001
2.944893e+003;1.440519e-001
2.946821e+003;1.518350e-001
2.948750e+003;1.588959e-001
2.950678e+003;1.630171e-001
2.952607e+003;1.630973e-001
2.954535e+003;1.606099e-001
2.956464e+003;1.568406e-001
2.958393e+003;1.520145e-001
2.960321e+003;1.463551e-001
2.962250e+003;1.402366e-001
2.964178e+003;1.334565e-001
2.966107e+003;1.261221e-001
2.968035e+003;1.188540e-001
2.969964e+003;1.122578e-001
2.971892e+003;1.062875e-001
2.973821e+003;1.006026e-001
2.975750e+003;9.532768e-002
2.977678e+003;9.054903e-002
2.979607e+003;8.622313e-002
2.981535e+003;8.283929e-002
2.983464e+003;7.996845e-002
2.985392e+003;7.715423e-002
2.987321e+003;7.449794e-002
2.989249e+003;7.226893e-002
2.991178e+003;7.038917e-002
2.993106e+003;6.804896e-002
2.995035e+003;6.558609e-002
2.996964e+003;6.363120e-002
2.998892e+003;6.164298e-002
3.000821e+003;5.965562e-002
3.002749e+003;5.800054e-002
3.004678e+003;5.634625e-002
3.006606e+003;5.476820e-002
3.008535e+003;5.341532e-002
3.010463e+003;5.192364e-002
3.012392e+003;5.017269e-002
3.014321e+003;4.877275e-002
3.016249e+003;4.766230e-002
3.018177e+003;4.657704e-002
3.020106e+003;4.581504e-002
3.022035e+003;4.495617e-002
3.023963e+003;4.406591e-002
3.025892e+003;4.321060e-002
3.027820e+003;4.239393e-002
3.029749e+003;4.170506e-002
3.031677e+003;4.120125e-002
3.033606e+003;4.077077e-002
3.035534e+003;4.035075e-002
3.037463e+003;4.012716e-002
3.039392e+003;3.993946e-002
3.041320e+003;3.932243e-002
3.043249e+003;3.835159e-002
3.045177e+003;3.813723e-002
3.047106e+003;3.858810e-002
3.049034e+003;3.848676e-002
3.050963e+003;3.788990e-002
3.052891e+003;3.752811e-002
3.054820e+003;3.759661e-002
3.056749e+003;3.748418e-002
3.058677e+003;3.718344e-002
3.060606e+003;3.698871e-002
3.062534e+003;3.693751e-002
3.064463e+003;3.684528e-002
3.066391e+003;3.659684e-002
3.068320e+003;3.644525e-002
3.070248e+003;3.645026e-002
3.072177e+003;3.639751e-002
3.074105e+003;3.631436e-002
3.076034e+003;3.625183e-002
3.077963e+003;3.582785e-002
3.079891e+003;3.550548e-002
3.081820e+003;3.568026e-002
3.083748e+003;3.625842e-002
3.085677e+003;3.616669e-002
3.087605e+003;3.554985e-002
3.089534e+003;3.530331e-002
3.091462e+003;3.567055e-002
3.093391e+003;3.606400e-002
3.095320e+003;3.599347e-002
3.097248e+003;3.568836e-002
3.099177e+003;3.539583e-002
3.101105e+003;3.525228e-002
3.103034e+003;3.532523e-002
3.104962e+003;3.534439e-002
3.106891e+003;3.538476e-002
3.108819e+003;3.532732e-002
3.110748e+003;3.535664e-002
3.112677e+003;3.554284e-002
3.114605e+003;3.550379e-002
3.116533e+003;3.552979e-002
3.118462e+003;3.556888e-002
3.120391e+003;3.548610e-002
3.122319e+003;3.562106e-002
3.124248e+003;3.611444e-002
3.126176e+003;3.609345e-002
3.128105e+003;3.593329e-002
3.130033e+003;3.637499e-002
3.131962e+003;3.647275e-002
3.133890e+003;3.653175e-002
3.135819e+003;3.678667e-002
3.137748e+003;3.679212e-002
3.139676e+003;3.689902e-002
3.141605e+003;3.704727e-002
3.143533e+003;3.698849e-002
3.145462e+003;3.697225e-002
3.147390e+003;3.701548e-002
3.149319e+003;3.733915e-002
3.151247e+003;3.779486e-002
3.153176e+003;3.780712e-002
3.155104e+003;3.759903e-002
3.157033e+003;3.788162e-002
3.158962e+003;3.800655e-002
3.160890e+003;3.767502e-002
3.162819e+003;3.765854e-002
3.164747e+003;3.802008e-002
3.166676e+003;3.809285e-002
3.168604e+003;3.802833e-002
3.170533e+003;3.807173e-002
3.172461e+003;3.781073e-002
3.174390e+003;3.794385e-002
3.176319e+003;3.857793e-002
3.178247e+003;3.873439e-002
3.180176e+003;3.826314e-002
3.182104e+003;3.848842e-002
3.184033e+003;3.898713e-002
3.185961e+003;3.878366e-002
3.187890e+003;3.867205e-002
3.189818e+003;3.950664e-002
3.191747e+003;3.979360e-002
3.193676e+003;3.946857e-002
3.195604e+003;3.927720e-002
3.197532e+003;3.947572e-002
3.199461e+003;3.965029e-002
3.201390e+003;3.939800e-002
3.203318e+003;3.936984e-002
3.205247e+003;3.955421e-002
3.207175e+003;3.985893e-002
3.209104e+003;3.995653e-002
3.211032e+003;3.948338e-002
3.212961e+003;3.909618e-002
3.214889e+003;3.909904e-002
3.216818e+003;3.938824e-002
3.218747e+003;3.969495e-002
3.220675e+003;3.967048e-002
3.222604e+003;3.926530e-002
3.224532e+003;3.887638e-002
3.226461e+003;3.878471e-002
3.228389e+003;3.881619e-002
3.230318e+003;3.871262e-002
3.232246e+003;3.838420e-002
3.234175e+003;3.823695e-002
3.236104e+003;3.811618e-002
3.238032e+003;3.796815e-002
3.239961e+003;3.800532e-002
3.241889e+003;3.812009e-002
3.243818e+003;3.825431e-002
3.245746e+003;3.864761e-002
3.247675e+003;3.869987e-002
3.249603e+003;3.844567e-002
3.251532e+003;3.829575e-002
3.253460e+003;3.865514e-002
3.255389e+003;3.902142e-002
3.257318e+003;3.907105e-002
3.259246e+003;3.911586e-002
3.261175e+003;3.923796e-002
3.263103e+003;3.934968e-002
3.265032e+003;3.965073e-002
3.266960e+003;3.933658e-002
3.268889e+003;3.905478e-002
3.270817e+003;3.918770e-002
3.272746e+003;3.930031e-002
3.274675e+003;3.936360e-002
3.276603e+003;3.940435e-002
3.278531e+003;3.947042e-002
3.280460e+003;3.946759e-002
3.282389e+003;3.951382e-002
3.284317e+003;3.975293e-002
3.286246e+003;3.991926e-002
3.288174e+003;4.010561e-002
3.290103e+003;3.967269e-002
3.292031e+003;3.893331e-002
3.293960e+003;3.891447e-002
3.295888e+003;3.916246e-002
3.297817e+003;3.981008e-002
3.299746e+003;4.004427e-002
3.301674e+003;3.911057e-002
3.303603e+003;3.880710e-002
3.305531e+003;3.956194e-002
3.307460e+003;3.971502e-002
3.309388e+003;3.925210e-002
3.311317e+003;3.888283e-002
3.313245e+003;3.893795e-002
3.315174e+003;3.885576e-002
3.317103e+003;3.864007e-002
3.319031e+003;3.881033e-002
3.320960e+003;3.883080e-002
3.322888e+003;3.848983e-002
3.324817e+003;3.885982e-002
3.326745e+003;3.931188e-002
3.328674e+003;3.910502e-002
3.330602e+003;3.849903e-002
3.332531e+003;3.834059e-002
3.334459e+003;3.842735e-002
3.336388e+003;3.845240e-002
3.338317e+003;3.833346e-002
3.340245e+003;3.827150e-002
3.342174e+003;3.816433e-002
3.344102e+003;3.834515e-002
3.346031e+003;3.865489e-002
3.347959e+003;3.828648e-002
3.349888e+003;3.795137e-002
3.351816e+003;3.812291e-002
3.353745e+003;3.836267e-002
3.355674e+003;3.814809e-002
3.357602e+003;3.755748e-002
3.359531e+003;3.690321e-002
3.361459e+003;3.673759e-002
3.363388e+003;3.710223e-002
3.365316e+003;3.735644e-002
3.367245e+003;3.719953e-002
3.369173e+003;3.670485e-002
3.371102e+003;3.655604e-002
3.373031e+003;3.626389e-002
3.374959e+003;3.585555e-002
3.376887e+003;3.570077e-002
3.378816e+003;3.549649e-002
3.380745e+003;3.546935e-002
3.382673e+003;3.514398e-002
3.384602e+003;3.471720e-002
3.386530e+003;3.501815e-002
3.388459e+003;3.490280e-002
3.390387e+003;3.468468e-002
3.392316e+003;3.463229e-002
3.394244e+003;3.413321e-002
3.396173e+003;3.414847e-002
3.398102e+003;3.460308e-002
3.400030e+003;3.456275e-002
3.401959e+003;3.455963e-002
3.403887e+003;3.480360e-002
3.405816e+003;3.461359e-002
3.407744e+003;3.437826e-002
3.409673e+003;3.453071e-002
3.411601e+003;3.458159e-002
3.413530e+003;3.390871e-002
3.415458e+003;3.355308e-002
3.417387e+003;3.384738e-002
3.419316e+003;3.351700e-002
3.421244e+003;3.294837e-002
3.423173e+003;3.318382e-002
3.425101e+003;3.314728e-002
3.427030e+003;3.260875e-002
3.428958e+003;3.242116e-002
3.430887e+003;3.247622e-002
3.432815e+003;3.189912e-002
3.434744e+003;3.175586e-002
3.436673e+003;3.196384e-002
3.438601e+003;3.193667e-002
3.440530e+003;3.163942e-002
3.442458e+003;3.107051e-002
3.444387e+003;3.082485e-002
3.446315e+003;3.072839e-002
3.448244e+003;3.078416e-002
3.450172e+003;3.081443e-002
3.452101e+003;3.059036e-002
3.454030e+003;3.045301e-002
3.455958e+003;3.006000e-002
3.457886e+003;2.979309e-002
3.459815e+003;2.964137e-002
3.461744e+003;2.937235e-002
3.463672e+003;2.923287e-002
3.465601e+003;2.908230e-002
3.467529e+003;2.877223e-002
3.469458e+003;2.845991e-002
3.471386e+003;2.825915e-002
3.473315e+003;2.832829e-002
3.475243e+003;2.820321e-002
3.477172e+003;2.757724e-002
3.479101e+003;2.732473e-002
3.481029e+003;2.767968e-002
3.482958e+003;2.766615e-002
3.484886e+003;2.725438e-002
3.486815e+003;2.685734e-002
3.488743e+003;2.659613e-002
3.490672e+003;2.640528e-002
3.492600e+003;2.584856e-002
3.494529e+003;2.556950e-002
3.496458e+003;2.577194e-002
3.498386e+003;2.565470e-002
3.500315e+003;2.541030e-002
3.502243e+003;2.532290e-002
3.504172e+003;2.526193e-002
3.506100e+003;2.524500e-002
3.508029e+003;2.525154e-002
3.509957e+003;2.508093e-002
3.511886e+003;2.488885e-002
3.513814e+003;2.470962e-002
3.515743e+003;2.466150e-002
3.517672e+003;2.487990e-002
3.519600e+003;2.493619e-002
3.521529e+003;2.508837e-002
3.523457e+003;2.530678e-002
3.525386e+003;2.483271e-002
3.527314e+003;2.400461e-002
3.529243e+003;2.353805e-002
3.531171e+003;2.324062e-002
3.533100e+003;2.338347e-002
3.535029e+003;2.346040e-002
3.536957e+003;2.340599e-002
3.538885e+003;2.314985e-002
3.540814e+003;2.289403e-002
3.542743e+003;2.292743e-002
3.544671e+003;2.280994e-002
3.546600e+003;2.263498e-002
3.548528e+003;2.245752e-002
3.550457e+003;2.201381e-002
3.552385e+003;2.173037e-002
3.554314e+003;2.166096e-002
3.556242e+003;2.157187e-002
3.558171e+003;2.152278e-002
3.560100e+003;2.089394e-002
3.562028e+003;2.049014e-002
3.563957e+003;2.057403e-002
3.565885e+003;2.019659e-002
3.567814e+003;2.011156e-002
3.569742e+003;1.995243e-002
3.571671e+003;1.964181e-002
3.573599e+003;1.979544e-002
3.575528e+003;1.980938e-002
3.577457e+003;1.925638e-002
3.579385e+003;1.889697e-002
3.581314e+003;1.917509e-002
3.583242e+003;1.909677e-002
3.585171e+003;1.864139e-002
3.587099e+003;1.830658e-002
3.589028e+003;1.844802e-002
3.590956e+003;1.868224e-002
3.592885e+003;1.857233e-002
3.594813e+003;1.857703e-002
3.596742e+003;1.888382e-002
3.598671e+003;1.865744e-002
3.600599e+003;1.795017e-002
3.602528e+003;1.760560e-002
3.604456e+003;1.754705e-002
3.606385e+003;1.738183e-002
3.608313e+003;1.733431e-002
3.610242e+003;1.751666e-002
3.612170e+003;1.775341e-002
3.614099e+003;1.799941e-002
3.616028e+003;1.764566e-002
3.617956e+003;1.702445e-002
3.619885e+003;1.667879e-002
3.621813e+003;1.672397e-002
3.623742e+003;1.678509e-002
3.625670e+003;1.672187e-002
3.627599e+003;1.669177e-002
3.629527e+003;1.668747e-002
3.631456e+003;1.689810e-002
3.633385e+003;1.707062e-002
3.635313e+003;1.674432e-002
3.637241e+003;1.639565e-002
3.639170e+003;1.622037e-002
3.641099e+003;1.627864e-002
3.643027e+003;1.670296e-002
3.644956e+003;1.652518e-002
3.646884e+003;1.568394e-002
3.648813e+003;1.507162e-002
3.650741e+003;1.524222e-002
3.652670e+003;1.595867e-002
3.654598e+003;1.592420e-002
3.656527e+003;1.536492e-002
3.658456e+003;1.532122e-002
3.660384e+003;1.527661e-002
3.662313e+003;1.523666e-002
3.664241e+003;1.526291e-002
3.666170e+003;1.526233e-002
3.668098e+003;1.502134e-002
3.670027e+003;1.490041e-002
3.671955e+003;1.518570e-002
3.673884e+003;1.534772e-002
3.675813e+003;1.559910e-002
3.677741e+003;1.580993e-002
3.679669e+003;1.548549e-002
3.681598e+003;1.532682e-002
3.683527e+003;1.562310e-002
3.685455e+003;1.590928e-002
3.687384e+003;1.613604e-002
3.689312e+003;1.655895e-002
3.691241e+003;1.695109e-002
3.693169e+003;1.673605e-002
3.695098e+003;1.627372e-002
3.697026e+003;1.646895e-002
3.698955e+003;1.646940e-002
3.700884e+003;1.600769e-002
3.702812e+003;1.595451e-002
3.704741e+003;1.598758e-002
3.706669e+003;1.605875e-002
3.708598e+003;1.622629e-002
3.710526e+003;1.625322e-002
3.712455e+003;1.597208e-002
3.714383e+003;1.581687e-002
3.716312e+003;1.591223e-002
3.718240e+003;1.601969e-002
3.720169e+003;1.547354e-002
3.722098e+003;1.542706e-002
3.724026e+003;1.602186e-002
3.725955e+003;1.618147e-002
3.727883e+003;1.620717e-002
3.729812e+003;1.652742e-002
3.731740e+003;1.605775e-002
3.733669e+003;1.514864e-002
3.735597e+003;1.523827e-002
3.737526e+003;1.622770e-002
3.739455e+003;1.659062e-002
3.741383e+003;1.671804e-002
3.743312e+003;1.684740e-002
3.745240e+003;1.656078e-002
3.747169e+003;1.579003e-002
3.749097e+003;1.560421e-002
3.751026e+003;1.567370e-002
3.752954e+003;1.558876e-002
3.754883e+003;1.575361e-002
3.756812e+003;1.607621e-002
3.758740e+003;1.659789e-002
3.760668e+003;1.687647e-002
3.762597e+003;1.714276e-002
3.764526e+003;1.735048e-002
3.766454e+003;1.694530e-002
3.768383e+003;1.613178e-002
3.770311e+003;1.623702e-002
3.772240e+003;1.677449e-002
3.774168e+003;1.674780e-002
3.776097e+003;1.648261e-002
3.778025e+003;1.640518e-002
3.779954e+003;1.622973e-002
3.781883e+003;1.645050e-002
3.783811e+003;1.655671e-002
3.785740e+003;1.630128e-002
3.787668e+003;1.616239e-002
3.789597e+003;1.642583e-002
3.791525e+003;1.647611e-002
3.793454e+003;1.675957e-002
3.795382e+003;1.719564e-002
3.797311e+003;1.736017e-002
3.799240e+003;1.701635e-002
3.801168e+003;1.631125e-002
3.803097e+003;1.639070e-002
3.805025e+003;1.640226e-002
3.806954e+003;1.650275e-002
3.808882e+003;1.693042e-002
3.810811e+003;1.709871e-002
3.812739e+003;1.717230e-002
3.814668e+003;1.669263e-002
3.816596e+003;1.652143e-002
3.818525e+003;1.683731e-002
3.820454e+003;1.674876e-002
3.822382e+003;1.708441e-002
3.824311e+003;1.790182e-002
3.826239e+003;1.772566e-002
3.828168e+003;1.697045e-002
3.830096e+003;1.682339e-002
3.832025e+003;1.705270e-002
3.833953e+003;1.694141e-002
3.835882e+003;1.675541e-002
3.837811e+003;1.672221e-002
3.839739e+003;1.674473e-002
3.841667e+003;1.672683e-002
3.843596e+003;1.685525e-002
3.845525e+003;1.701921e-002
3.847453e+003;1.666161e-002
3.849382e+003;1.691088e-002
3.851310e+003;1.748106e-002
3.853239e+003;1.759446e-002
3.855167e+003;1.770581e-002
3.857096e+003;1.782048e-002
3.859024e+003;1.724693e-002
3.860953e+003;1.709737e-002
3.862882e+003;1.704812e-002
3.864810e+003;1.701611e-002
3.866739e+003;1.774130e-002
3.868667e+003;1.775483e-002
3.870596e+003;1.772531e-002
3.872524e+003;1.772511e-002
3.874453e+003;1.710161e-002
3.876381e+003;1.757876e-002
3.878310e+003;1.819458e-002
3.880239e+003;1.821196e-002
3.882167e+003;1.822271e-002
3.884096e+003;1.815478e-002
3.886024e+003;1.810770e-002
3.887953e+003;1.769722e-002
3.889881e+003;1.767831e-002
3.891810e+003;1.804586e-002
3.893738e+003;1.788843e-002
3.895667e+003;1.795828e-002
3.897595e+003;1.795562e-002
3.899524e+003;1.766385e-002
3.901453e+003;1.720963e-002
3.903381e+003;1.717699e-002
3.905310e+003;1.727503e-002
3.907238e+003;1.702386e-002
3.909167e+003;1.728372e-002
3.911095e+003;1.787182e-002
3.913024e+003;1.785501e-002
3.914952e+003;1.815910e-002
3.916881e+003;1.857174e-002
3.918810e+003;1.835552e-002
3.920738e+003;1.814780e-002
3.922667e+003;1.813561e-002
3.924595e+003;1.822655e-002
3.926524e+003;1.864063e-002
3.928452e+003;1.902995e-002
3.930381e+003;1.896989e-002
3.932309e+003;1.880966e-002
3.934238e+003;1.884630e-002
3.936167e+003;1.883004e-002
3.938095e+003;1.863832e-002
3.940023e+003;1.867837e-002
3.941952e+003;1.907637e-002
3.943881e+003;1.873794e-002
3.945809e+003;1.802455e-002
3.947738e+003;1.793725e-002
3.949666e+003;1.829120e-002
3.951595e+003;1.853619e-002
3.953523e+003;1.840136e-002
3.955452e+003;1.854581e-002
3.957380e+003;1.877897e-002
3.959309e+003;1.881745e-002
3.961238e+003;1.890679e-002
3.963166e+003;1.882603e-002
3.965095e+003;1.893787e-002
3.967023e+003;1.898190e-002
3.968952e+003;1.862919e-002
3.970880e+003;1.825813e-002
3.972809e+003;1.857074e-002
3.974737e+003;1.911425e-002
3.976666e+003;1.948271e-002
3.978594e+003;1.934852e-002
3.980523e+003;1.915778e-002
3.982452e+003;1.945582e-002
3.984380e+003;1.938697e-002
3.986309e+003;1.926878e-002
3.988237e+003;1.943649e-002
3.990166e+003;1.926289e-002
3.992094e+003;1.929714e-002
3.994023e+003;2.001408e-002
3.995951e+003;2.030313e-002
3.997880e+003;2.037254e-002
3.999809e+003;2.031442e-002
4.001737e+003;0.000000e+000
