3.992094e+002;0.000000e+000
4.011380e+002;0.000000e+000
4.030665e+002;0.000000e+000
4.049951e+002;0.000000e+000
4.069236e+002;0.000000e+000
4.088522e+002;0.000000e+000
4.107807e+002;0.000000e+000
4.127093e+002;0.000000e+000
4.146378e+002;0.000000e+000
4.165664e+002;0.000000e+000
4.184949e+002;0.000000e+000
4.204235e+002;0.000000e+000
4.223520e+002;0.000000e+000
4.242806e+002;0.000000e+000
4.262091e+002;0.000000e+000
4.281377e+002;0.000000e+000
4.300662e+002;0.000000e+000
4.319948e+002;0.000000e+000
4.339233e+002;0.000000e+000
4.358519e+002;0.000000e+000
4.377804e+002;0.000000e+000
4.397090e+002;0.000000e+000
4.416375e+002;0.000000e+000
4.435660e+002;0.000000e+000
4.454946e+002;0.000000e+000
4.474232e+002;0.000000e+000
4.493517e+002;0.000000e+000
4.512802e+002;0.000000e+000
4.532088e+002;0.000000e+000
4.551373e+002;0.000000e+000
4.570659e+002;0.000000e+000
4.589944e+002;0.000000e+000
4.609230e+002;0.000000e+000
4.628515e+002;0.000000e+000
4.647801e+002;0.000000e+000
4.667086e+002;0.000000e+000
4.686372e+002;0.000000e+000
4.705657e+002;0.000000e+000
4.724943e+002;0.000000e+000
4.744228e+002;0.000000e+000
4.763513e+002;0.000000e+000
4.782799e+002;0.000000e+000
4.802085e+002;0.000000e+000
4.821370e+002;0.000000e+000
4.840656e+002;0.000000e+000
4.859941e+002;0.000000e+000
4.879226e+002;0.000000e+000
4.898512e+002;0.000000e+000
4.917798e+002;0.000000e+000
4.937083e+002;0.000000e+000
4.956368e+002;0.000000e+000
4.975654e+002;0.000000e+000
4.994939e+002;0.000000e+000
5.014225e+002;0.000000e+000
5.033510e+002;0.000000e+000
5.052796e+002;0.000000e+000
5.072081e+002;0.000000e+000
5.091367e+002;0.000000e+000
5.110652e+002;0.000000e+000
5.129938e+002;0.000000e+000
5.149223e+002;0.000000e+000
5.168509e+002;0.000000e+000
5.187794e+002;0.000000e+000
5.207079e+002;0.000000e+000
5.226365e+002;0.000000e+000
5.245651e+002;0.000000e+000
5.264936e+002;0.000000e+000
5.284222e+002;0.000000e+000
5.303507e+002;0.000000e+000
5.322792e+002;0.000000e+000
5.342078e+002;0.000000e+000
5.361364e+002;0.000000e+000
5.380649e+002;0.000000e+000
5.399935e+002;0.000000e+000
5.419220e+002;0.000000e+000
5.438505e+002;0.000000e+000
5.457791e+002;0.000000e+000
5.477076e+002;0.000000e+000
5.496362e+002;0.000000e+000
5.515648e+002;0.000000e+000
5.534933e+002;0.000000e+000
5.554218e+002;0.000000e+000
5.573504e+002;0.000000e+000
5.592789e+002;0.000000e+000
5.612075e+002;0.000000e+000
5.631360e+002;0.000000e+000
5.650646e+002;0.000000e+000
5.669931e+002;0.000000e+000
5.689217e+002;0.000000e+000
5.708502e+002;0.000000e+000
5.727787e+002;0.000000e+000
5.747073e+002;0.000000e+000
5.766359e+002;0.000000e+000
5.785644e+002;0.000000e+000
5.804930e+002;0.000000e+000
5.824215e+002;0.000000e+000
5.843500e+002;0.000000e+000
5.862786e+002;0.000000e+000
5.882072e+002;0.000000e+000
5.901357e+002;0.000000e+000
5.920643e+002;0.000000e+000
5.939928e+002;0.000000e+000
5.959213e+002;0.000000e+000
5.978499e+002;0.000000e+000
5.997784e+002;5.865756e-002
6.017070e+002;5.264490e-002
6.036355e+002;5.121144e-002
6.055641e+002;5.382035e-002
6.074926e+002;5.514642e-002
6.094211e+002;5.196095e-002
6.113497e+002;5.137237e-002
6.132783e+002;5.294270e-002
6.152068e+002;5.186886e-002
6.171354e+002;5.376627e-002
6.190639e+002;5.696476e-002
6.209924e+002;5.449691e-002
6.229210e+002;5.156101e-002
6.248495e+002;5.274243e-002
6.267781e+002;5.658967e-002
6.287067e+002;5.638412e-002
6.306352e+002;5.390710e-002
6.325637e+002;5.642992e-002
6.344923e+002;5.800584e-002
6.364208e+002;5.151493e-002
6.383494e+002;4.735609e-002
6.402780e+002;4.968731e-002
6.422065e+002;5.128161e-002
6.441350e+002;5.279645e-002
6.460636e+002;5.197559e-002
6.479921e+002;5.258521e-002
6.499207e+002;5.206874e-002
6.518492e+002;5.148311e-002
6.537778e+002;5.286190e-002
6.557063e+002;5.496521e-002
6.576349e+002;5.489715e-002
6.595634e+002;5.320397e-002
6.614919e+002;5.511712e-002
6.634205e+002;5.695195e-002
6.653491e+002;5.733631e-002
6.672776e+002;5.559238e-002
6.692062e+002;5.367541e-002
6.711347e+002;5.472126e-002
6.730632e+002;5.634904e-002
6.749918e+002;5.584133e-002
6.769203e+002;5.630026e-002
6.788489e+002;5.734679e-002
6.807775e+002;5.632104e-002
6.827060e+002;5.460105e-002
6.846345e+002;5.483211e-002
6.865631e+002;5.574790e-002
6.884916e+002;5.441709e-002
6.904202e+002;5.352468e-002
6.923488e+002;5.497513e-002
6.942773e+002;5.660854e-002
6.962058e+002;5.756199e-002
6.981344e+002;5.767738e-002
7.000629e+002;5.775379e-002
7.019915e+002;5.744866e-002
7.039200e+002;5.667955e-002
7.058486e+002;5.600079e-002
7.077771e+002;5.653728e-002
7.097057e+002;5.661353e-002
7.116342e+002;5.645894e-002
7.135627e+002;5.759509e-002
7.154913e+002;5.852780e-002
7.174199e+002;5.866132e-002
7.193484e+002;5.948311e-002
7.212770e+002;5.904036e-002
7.232055e+002;5.856469e-002
7.251340e+002;5.907350e-002
7.270626e+002;5.912384e-002
7.289911e+002;5.973762e-002
7.309197e+002;5.988840e-002
7.328483e+002;5.897413e-002
7.347768e+002;5.774663e-002
7.367053e+002;5.696306e-002
7.386339e+002;5.733242e-002
7.405624e+002;5.745256e-002
7.424910e+002;5.743123e-002
7.444196e+002;5.711378e-002
7.463481e+002;5.692702e-002
7.482766e+002;5.694213e-002
7.502052e+002;5.713109e-002
7.521337e+002;5.829806e-002
7.540623e+002;5.819530e-002
7.559908e+002;5.753929e-002
7.579194e+002;5.767541e-002
7.598479e+002;5.692842e-002
7.617765e+002;5.705717e-002
7.637050e+002;5.825933e-002
7.656335e+002;5.880462e-002
7.675621e+002;5.874514e-002
7.694907e+002;5.929051e-002
7.714192e+002;6.009006e-002
7.733478e+002;6.043943e-002
7.752763e+002;5.993830e-002
7.772048e+002;5.966793e-002
7.791334e+002;5.999848e-002
7.810620e+002;6.072003e-002
7.829905e+002;6.168457e-002
7.849191e+002;6.278850e-002
7.868476e+002;6.337172e-002
7.887761e+002;6.324077e-002
7.907047e+002;6.406468e-002
7.926332e+002;6.603333e-002
7.945618e+002;6.829737e-002
7.964903e+002;7.048269e-002
7.984189e+002;7.217791e-002
8.003474e+002;7.313333e-002
8.022759e+002;7.361884e-002
8.042045e+002;7.514685e-002
8.061331e+002;7.794575e-002
8.080616e+002;8.103997e-002
8.099902e+002;8.152360e-002
8.119187e+002;8.014854e-002
8.138472e+002;7.723383e-002
8.157758e+002;7.383424e-002
8.177043e+002;7.124012e-002
8.196329e+002;6.897463e-002
8.215615e+002;6.832141e-002
8.234900e+002;6.795987e-002
8.254185e+002;6.679628e-002
8.273471e+002;6.635818e-002
8.292756e+002;6.626631e-002
8.312042e+002;6.625272e-002
8.331328e+002;6.702128e-002
8.350613e+002;6.823367e-002
8.369898e+002;7.100005e-002
8.389184e+002;7.738739e-002
8.408469e+002;8.356565e-002
8.427755e+002;8.281884e-002
8.447040e+002;7.721625e-002
8.466326e+002;7.184336e-002
8.485611e+002;6.839208e-002
8.504897e+002;6.586514e-002
8.524182e+002;6.422941e-002
8.543467e+002;6.371219e-002
8.562753e+002;6.258823e-002
8.582039e+002;6.145167e-002
8.601324e+002;6.136362e-002
8.620610e+002;6.151656e-002
8.639895e+002;6.206661e-002
8.659180e+002;6.252788e-002
8.678466e+002;6.241960e-002
8.697751e+002;6.255589e-002
8.717037e+002;6.310491e-002
8.736323e+002;6.363657e-002
8.755608e+002;6.340899e-002
8.774893e+002;6.310488e-002
8.794179e+002;6.253048e-002
8.813464e+002;6.191080e-002
8.832750e+002;6.193246e-002
8.852036e+002;6.217208e-002
8.871321e+002;6.196078e-002
8.890606e+002;6.222164e-002
8.909892e+002;6.414103e-002
8.929177e+002;6.667735e-002
8.948463e+002;7.022972e-002
8.967748e+002;7.483583e-002
8.987034e+002;7.847109e-002
9.006319e+002;7.903923e-002
9.025605e+002;7.544114e-002
9.044890e+002;6.984608e-002
9.064175e+002;6.516456e-002
9.083461e+002;6.239045e-002
9.102747e+002;6.142255e-002
9.122032e+002;6.049316e-002
9.141318e+002;5.993084e-002
9.160603e+002;5.985044e-002
9.179888e+002;5.954897e-002
9.199174e+002;5.909491e-002
9.218459e+002;5.881593e-002
9.237745e+002;5.890206e-002
9.257031e+002;5.929966e-002
9.276316e+002;5.972123e-002
9.295601e+002;6.007027e-002
9.314887e+002;6.061193e-002
9.334172e+002;6.105797e-002
9.353458e+002;6.187943e-002
9.372744e+002;6.332291e-002
9.392029e+002;6.498396e-002
9.411314e+002;6.629371e-002
9.430600e+002;6.665406e-002
9.449885e+002;6.662795e-002
9.469171e+002;6.690253e-002
9.488456e+002;6.708543e-002
9.507742e+002;6.786716e-002
9.527027e+002;6.933367e-002
9.546313e+002;7.024690e-002
9.565598e+002;7.083452e-002
9.584883e+002;7.230344e-002
9.604169e+002;7.414506e-002
9.623455e+002;7.663807e-002
9.642740e+002;8.022071e-002
9.662026e+002;8.496852e-002
9.681311e+002;9.174313e-002
9.700596e+002;1.001514e-001
9.719882e+002;1.075971e-001
9.739167e+002;1.106491e-001
9.758453e+002;1.077426e-001
9.777739e+002;1.003348e-001
9.797024e+002;9.181570e-002
9.816309e+002;8.432441e-002
9.835595e+002;7.970461e-002
9.854880e+002;7.796831e-002
9.874166e+002;7.827595e-002
9.893452e+002;8.071162e-002
9.912737e+002;8.473580e-002
9.932022e+002;9.048761e-002
9.951307e+002;9.788384e-002
9.970593e+002;1.046044e-001
9.989879e+002;1.059485e-001
1.000916e+003;1.012916e-001
1.002845e+003;9.485412e-002
1.004773e+003;8.957806e-002
1.006702e+003;8.672988e-002
1.008631e+003;8.554047e-002
1.010559e+003;8.512167e-002
1.012488e+003;8.457221e-002
1.014416e+003;8.357758e-002
1.016345e+003;8.282052e-002
1.018273e+003;8.288641e-002
1.020202e+003;8.340523e-002
1.022130e+003;8.323386e-002
1.024059e+003;8.280212e-002
1.025988e+003;8.354497e-002
1.027916e+003;8.475961e-002
1.029845e+003;8.568482e-002
1.031773e+003;8.677544e-002
1.033702e+003;8.750377e-002
1.035630e+003;8.844655e-002
1.037559e+003;9.001595e-002
1.039487e+003;9.118990e-002
1.041416e+003;9.177723e-002
1.043344e+003;9.177424e-002
1.045273e+003;9.098540e-002
1.047202e+003;8.991755e-002
1.049130e+003;8.893778e-002
1.051059e+003;8.831322e-002
1.052987e+003;8.785445e-002
1.054916e+003;8.792654e-002
1.056844e+003;8.806856e-002
1.058773e+003;8.758861e-002
1.060701e+003;8.662450e-002
1.062630e+003;8.554289e-002
1.064558e+003;8.517952e-002
1.066487e+003;8.525991e-002
1.068416e+003;8.491985e-002
1.070344e+003;8.400302e-002
1.072273e+003;8.364587e-002
1.074201e+003;8.366527e-002
1.076130e+003;8.336909e-002
1.078058e+003;8.354858e-002
1.079987e+003;8.387784e-002
1.081915e+003;8.416009e-002
1.083844e+003;8.408569e-002
1.085773e+003;8.390879e-002
1.087701e+003;8.481427e-002
1.089630e+003;8.566508e-002
1.091558e+003;8.553761e-002
1.093487e+003;8.563239e-002
1.095415e+003;8.647936e-002
1.097344e+003;8.802798e-002
1.099272e+003;8.932300e-002
1.101201e+003;8.975838e-002
1.103129e+003;8.959785e-002
1.105058e+003;8.933309e-002
1.106987e+003;8.811864e-002
1.108915e+003;8.586224e-002
1.110844e+003;8.362056e-002
1.112772e+003;8.178581e-002
1.114701e+003;8.008124e-002
1.116629e+003;7.871120e-002
1.118558e+003;7.774562e-002
1.120486e+003;7.687353e-002
1.122415e+003;7.638765e-002
1.124344e+003;7.568868e-002
1.126272e+003;7.450195e-002
1.128201e+003;7.383715e-002
1.130129e+003;7.440563e-002
1.132058e+003;7.486166e-002
1.133986e+003;7.486764e-002
1.135915e+003;7.574138e-002
1.137843e+003;7.735754e-002
1.139772e+003;7.964410e-002
1.141700e+003;8.248329e-002
1.143629e+003;8.540469e-002
1.145557e+003;8.833300e-002
1.147486e+003;9.176249e-002
1.149415e+003;9.508168e-002
1.151343e+003;9.761294e-002
1.153272e+003;9.939108e-002
1.155200e+003;1.007624e-001
1.157129e+003;1.011061e-001
1.159057e+003;1.010503e-001
1.160986e+003;1.014681e-001
1.162914e+003;1.021664e-001
1.164843e+003;1.023670e-001
1.166771e+003;1.019198e-001
1.168700e+003;1.005980e-001
1.170629e+003;9.720203e-002
1.172557e+003;9.231945e-002
1.174486e+003;8.704043e-002
1.176414e+003;8.209216e-002
1.178343e+003;7.799508e-002
1.180271e+003;7.514822e-002
1.182200e+003;7.364871e-002
1.184128e+003;7.262130e-002
1.186057e+003;7.161972e-002
1.187986e+003;7.073395e-002
1.189914e+003;7.065561e-002
1.191843e+003;7.100715e-002
1.193771e+003;7.082622e-002
1.195700e+003;7.060454e-002
1.197628e+003;7.065558e-002
1.199557e+003;7.072888e-002
1.201485e+003;7.021593e-002
1.203414e+003;6.993038e-002
1.205343e+003;7.029691e-002
1.207271e+003;7.052304e-002
1.209200e+003;7.104976e-002
1.211128e+003;7.183586e-002
1.213057e+003;7.234285e-002
1.214985e+003;7.288869e-002
1.216914e+003;7.337639e-002
1.218842e+003;7.356651e-002
1.220771e+003;7.336894e-002
1.222699e+003;7.243985e-002
1.224628e+003;7.170746e-002
1.226557e+003;7.154647e-002
1.228485e+003;7.094824e-002
1.230414e+003;7.050168e-002
1.232342e+003;7.076211e-002
1.234271e+003;7.105464e-002
1.236199e+003;7.093080e-002
1.238128e+003;7.090481e-002
1.240056e+003;7.109406e-002
1.241985e+003;7.113902e-002
1.243913e+003;7.143462e-002
1.245842e+003;7.227624e-002
1.247771e+003;7.315627e-002
1.249699e+003;7.439958e-002
1.251628e+003;7.647248e-002
1.253556e+003;7.890359e-002
1.255485e+003;8.066925e-002
1.257413e+003;8.096926e-002
1.259342e+003;7.992592e-002
1.261270e+003;7.804714e-002
1.263199e+003;7.550086e-002
1.265127e+003;7.333571e-002
1.267056e+003;7.214426e-002
1.268985e+003;7.120499e-002
1.270913e+003;7.033767e-002
1.272842e+003;6.982729e-002
1.274770e+003;6.959713e-002
1.276699e+003;6.956423e-002
1.278627e+003;6.948502e-002
1.280556e+003;6.941251e-002
1.282484e+003;6.953791e-002
1.284413e+003;6.996211e-002
1.286342e+003;7.073898e-002
1.288270e+003;7.148013e-002
1.290199e+003;7.229839e-002
1.292127e+003;7.321094e-002
1.294056e+003;7.400548e-002
1.295984e+003;7.439875e-002
1.297913e+003;7.449640e-002
1.299841e+003;7.433434e-002
1.301770e+003;7.437389e-002
1.303698e+003;7.482036e-002
1.305627e+003;7.420472e-002
1.307556e+003;7.159374e-002
1.309484e+003;6.891575e-002
1.311413e+003;6.821769e-002
1.313341e+003;6.843253e-002
1.315270e+003;6.856921e-002
1.317198e+003;6.912686e-002
1.319127e+003;7.004417e-002
1.321055e+003;7.126655e-002
1.322984e+003;7.261198e-002
1.324912e+003;7.412120e-002
1.326841e+003;7.561253e-002
1.328770e+003;7.669117e-002
1.330698e+003;7.664330e-002
1.332627e+003;7.612632e-002
1.334555e+003;7.539722e-002
1.336484e+003;7.473090e-002
1.338412e+003;7.475293e-002
1.340341e+003;7.539872e-002
1.342269e+003;7.650046e-002
1.344198e+003;7.801455e-002
1.346126e+003;8.007036e-002
1.348055e+003;8.287838e-002
1.349984e+003;8.635428e-002
1.351912e+003;9.052446e-002
1.353841e+003;9.621442e-002
1.355769e+003;1.033117e-001
1.357698e+003;1.092196e-001
1.359626e+003;1.115570e-001
1.361555e+003;1.109335e-001
1.363483e+003;1.105184e-001
1.365412e+003;1.127790e-001
1.367341e+003;1.199091e-001
1.369269e+003;1.336894e-001
1.371198e+003;1.540278e-001
1.373126e+003;1.769446e-001
1.375055e+003;1.941149e-001
1.376983e+003;1.945053e-001
1.378912e+003;1.765571e-001
1.380840e+003;1.519721e-001
1.382769e+003;1.293159e-001
1.384698e+003;1.107218e-001
1.386626e+003;9.714901e-002
1.388555e+003;8.812314e-002
1.390483e+003;8.245348e-002
1.392412e+003;7.879946e-002
1.394340e+003;7.655752e-002
1.396269e+003;7.539514e-002
1.398197e+003;7.473389e-002
1.400126e+003;7.459220e-002
1.402054e+003;7.479580e-002
1.403983e+003;7.503250e-002
1.405911e+003;7.533586e-002
1.407840e+003;7.552649e-002
1.409769e+003;7.575898e-002
1.411697e+003;7.683205e-002
1.413626e+003;7.774030e-002
1.415554e+003;7.799944e-002
1.417483e+003;7.795757e-002
1.419411e+003;7.825901e-002
1.421340e+003;7.928124e-002
1.423268e+003;8.091257e-002
1.425197e+003;8.323511e-002
1.427125e+003;8.666390e-002
1.429054e+003;9.220889e-002
1.430983e+003;1.003130e-001
1.432911e+003;1.095650e-001
1.434840e+003;1.163305e-001
1.436768e+003;1.190557e-001
1.438697e+003;1.204244e-001
1.440625e+003;1.231331e-001
1.442554e+003;1.281528e-001
1.444482e+003;1.357619e-001
1.446411e+003;1.450090e-001
1.448340e+003;1.536233e-001
1.450268e+003;1.602947e-001
1.452197e+003;1.648835e-001
1.454125e+003;1.668959e-001
1.456054e+003;1.664501e-001
1.457982e+003;1.646145e-001
1.459911e+003;1.619827e-001
1.461839e+003;1.573348e-001
1.463768e+003;1.505504e-001
1.465697e+003;1.421246e-001
1.467625e+003;1.324429e-001
1.469554e+003;1.220403e-001
1.471482e+003;1.122381e-001
1.473411e+003;1.034416e-001
1.475339e+003;9.544829e-002
1.477268e+003;8.863461e-002
1.479196e+003;8.305831e-002
1.481125e+003;7.819434e-002
1.483053e+003;7.397094e-002
1.484982e+003;7.037538e-002
1.486911e+003;6.732597e-002
1.488839e+003;6.490839e-002
1.490768e+003;6.320505e-002
1.492696e+003;6.184527e-002
1.494625e+003;6.055658e-002
1.496553e+003;5.927991e-002
1.498482e+003;5.814852e-002
1.500410e+003;5.740910e-002
1.502339e+003;5.682447e-002
1.504267e+003;5.602224e-002
1.506196e+003;5.519251e-002
1.508125e+003;5.478294e-002
1.510053e+003;5.460447e-002
1.511982e+003;5.444631e-002
1.513910e+003;5.416452e-002
1.515839e+003;5.399073e-002
1.517767e+003;5.390774e-002
1.519696e+003;5.359533e-002
1.521624e+003;5.349203e-002
1.523553e+003;5.356879e-002
1.525481e+003;5.357936e-002
1.527410e+003;5.382638e-002
1.529339e+003;5.389420e-002
1.531267e+003;5.406896e-002
1.533196e+003;5.463174e-002
1.535124e+003;5.531966e-002
1.537053e+003;5.572250e-002
1.538981e+003;5.597651e-002
1.540910e+003;5.651385e-002
1.542838e+003;5.741939e-002
1.544767e+003;5.819049e-002
1.546695e+003;5.870023e-002
1.548624e+003;5.889663e-002
1.550553e+003;5.874787e-002
1.552481e+003;5.861645e-002
1.554410e+003;5.842737e-002
1.556338e+003;5.789600e-002
1.558267e+003;5.670556e-002
1.560195e+003;5.615944e-002
1.562124e+003;5.592533e-002
1.564052e+003;5.552143e-002
1.565981e+003;5.538470e-002
1.567910e+003;5.528323e-002
1.569838e+003;5.503892e-002
1.571767e+003;5.501650e-002
1.573695e+003;5.496351e-002
1.575624e+003;5.499100e-002
1.577552e+003;5.515459e-002
1.579481e+003;5.525068e-002
1.581409e+003;5.518762e-002
1.583338e+003;5.499386e-002
1.585266e+003;5.491162e-002
1.587195e+003;5.480162e-002
1.589124e+003;5.429227e-002
1.591052e+003;5.399936e-002
1.592981e+003;5.442194e-002
1.594909e+003;5.490880e-002
1.596838e+003;5.500620e-002
1.598766e+003;5.496321e-002
1.600695e+003;5.531495e-002
1.602623e+003;5.594764e-002
1.604552e+003;5.655502e-002
1.606480e+003;5.721428e-002
1.608409e+003;5.763913e-002
1.610338e+003;5.786382e-002
1.612266e+003;5.808197e-002
1.614195e+003;5.858733e-002
1.616123e+003;5.934798e-002
1.618052e+003;5.999859e-002
1.619980e+003;6.036841e-002
1.621909e+003;6.100393e-002
1.623837e+003;6.172780e-002
1.625766e+003;6.226714e-002
1.627694e+003;6.256691e-002
1.629623e+003;6.311944e-002
1.631552e+003;6.346151e-002
1.633480e+003;6.346726e-002
1.635409e+003;6.363772e-002
1.637337e+003;6.427193e-002
1.639266e+003;6.487500e-002
1.641194e+003;6.526008e-002
1.643123e+003;6.580178e-002
1.645051e+003;6.636064e-002
1.646980e+003;6.675524e-002
1.648909e+003;6.710956e-002
1.650837e+003;6.732640e-002
1.652766e+003;6.745224e-002
1.654694e+003;6.773907e-002
1.656623e+003;6.797363e-002
1.658551e+003;6.787995e-002
1.660480e+003;6.753774e-002
1.662408e+003;6.719831e-002
1.664337e+003;6.676070e-002
1.666266e+003;6.605752e-002
1.668194e+003;6.529439e-002
1.670123e+003;6.456556e-002
1.672051e+003;6.413066e-002
1.673980e+003;6.374968e-002
1.675908e+003;6.320271e-002
1.677837e+003;6.252849e-002
1.679765e+003;6.187033e-002
1.681694e+003;6.127528e-002
1.683622e+003;6.047960e-002
1.685551e+003;5.986945e-002
1.687479e+003;5.946172e-002
1.689408e+003;5.905027e-002
1.691337e+003;5.900468e-002
1.693265e+003;5.914309e-002
1.695194e+003;5.863667e-002
1.697122e+003;5.844239e-002
1.699051e+003;5.850517e-002
1.700979e+003;5.854698e-002
1.702908e+003;5.899424e-002
1.704836e+003;5.945766e-002
1.706765e+003;5.993229e-002
1.708693e+003;6.008077e-002
1.710622e+003;5.994122e-002
1.712551e+003;5.960267e-002
1.714479e+003;5.924543e-002
1.716408e+003;5.880493e-002
1.718336e+003;5.845994e-002
1.720265e+003;5.835328e-002
1.722193e+003;5.860553e-002
1.724122e+003;5.889568e-002
1.726050e+003;5.886886e-002
1.727979e+003;5.886833e-002
1.729908e+003;5.913979e-002
1.731836e+003;5.945184e-002
1.733765e+003;5.979979e-002
1.735693e+003;6.050215e-002
1.737622e+003;6.073279e-002
1.739550e+003;6.052729e-002
1.741479e+003;5.991776e-002
1.743407e+003;5.849133e-002
1.745336e+003;5.646988e-002
1.747265e+003;5.420994e-002
1.749193e+003;5.173309e-002
1.751122e+003;4.911725e-002
1.753050e+003;4.682970e-002
1.754979e+003;4.479921e-002
1.756907e+003;4.256629e-002
1.758836e+003;4.061481e-002
1.760764e+003;3.893944e-002
1.762693e+003;3.744510e-002
1.764621e+003;3.632185e-002
1.766550e+003;3.541028e-002
1.768479e+003;3.493641e-002
1.770407e+003;3.451686e-002
1.772336e+003;3.376077e-002
1.774264e+003;3.325518e-002
1.776193e+003;3.307887e-002
1.778121e+003;3.261825e-002
1.780050e+003;3.190874e-002
1.781978e+003;3.142842e-002
1.783907e+003;3.094293e-002
1.785835e+003;3.054781e-002
1.787764e+003;3.024649e-002
1.789693e+003;2.982194e-002
1.791621e+003;2.934356e-002
1.793550e+003;2.914377e-002
1.795478e+003;2.885112e-002
1.797407e+003;2.814976e-002
1.799335e+003;2.737159e-002
1.801264e+003;2.680951e-002
1.803192e+003;2.640077e-002
1.805121e+003;2.603653e-002
1.807049e+003;2.601099e-002
1.808978e+003;2.599843e-002
1.810907e+003;2.596888e-002
1.812835e+003;2.599287e-002
1.814764e+003;2.569298e-002
1.816692e+003;2.520093e-002
1.818621e+003;2.488622e-002
1.820549e+003;2.487345e-002
1.822478e+003;2.493759e-002
1.824406e+003;2.509174e-002
1.826335e+003;2.506233e-002
1.828264e+003;2.497030e-002
1.830192e+003;2.494994e-002
1.832121e+003;2.482892e-002
1.834049e+003;2.488783e-002
1.835978e+003;2.511379e-002
1.837906e+003;2.506152e-002
1.839835e+003;2.452984e-002
1.841763e+003;2.420629e-002
1.843692e+003;2.419704e-002
1.845620e+003;2.412257e-002
1.847549e+003;2.396473e-002
1.849478e+003;2.381367e-002
1.851406e+003;2.389471e-002
1.853335e+003;2.388253e-002
1.855263e+003;2.377769e-002
1.857192e+003;2.378991e-002
1.859120e+003;2.372968e-002
1.861049e+003;2.357426e-002
1.862977e+003;2.352920e-002
1.864906e+003;2.341589e-002
1.866834e+003;2.345072e-002
1.868763e+003;2.339067e-002
1.870692e+003;2.310501e-002
1.872620e+003;2.305173e-002
1.874549e+003;2.318801e-002
1.876477e+003;2.314957e-002
1.878406e+003;2.302807e-002
1.880334e+003;2.303223e-002
1.882263e+003;2.314181e-002
1.884191e+003;2.323202e-002
1.886120e+003;2.327631e-002
1.888048e+003;2.322069e-002
1.889977e+003;2.341456e-002
1.891906e+003;2.363898e-002
1.893834e+003;2.358724e-002
1.895763e+003;2.336781e-002
1.897691e+003;2.326691e-002
1.899620e+003;2.332920e-002
1.901548e+003;2.326768e-002
1.903477e+003;2.317159e-002
1.905405e+003;2.286302e-002
1.907334e+003;2.253945e-002
1.909262e+003;2.259282e-002
1.911191e+003;2.263352e-002
1.913120e+003;2.278015e-002
1.915048e+003;2.275445e-002
1.916977e+003;2.258469e-002
1.918905e+003;2.281517e-002
1.920834e+003;2.278836e-002
1.922762e+003;2.260493e-002
1.924691e+003;2.253492e-002
1.926619e+003;2.245982e-002
1.928548e+003;2.239259e-002
1.930477e+003;2.217502e-002
1.932405e+003;2.180737e-002
1.934334e+003;2.165880e-002
1.936262e+003;2.166827e-002
1.938191e+003;2.153496e-002
1.940119e+003;2.134636e-002
1.942048e+003;2.129068e-002
1.943976e+003;2.142527e-002
1.945905e+003;2.142119e-002
1.947833e+003;2.135913e-002
1.949762e+003;2.134243e-002
1.951691e+003;2.157003e-002
1.953619e+003;2.162286e-002
1.955548e+003;2.157348e-002
1.957476e+003;2.146251e-002
1.959405e+003;2.145440e-002
1.961333e+003;2.145948e-002
1.963262e+003;2.127105e-002
1.965190e+003;2.134998e-002
1.967119e+003;2.133084e-002
1.969047e+003;2.107957e-002
1.970976e+003;2.074951e-002
1.972905e+003;2.067570e-002
1.974833e+003;2.081948e-002
1.976762e+003;2.111185e-002
1.978690e+003;2.121496e-002
1.980619e+003;2.079198e-002
1.982547e+003;2.069526e-002
1.984476e+003;2.097364e-002
1.986404e+003;2.117241e-002
1.988333e+003;2.115227e-002
1.990261e+003;2.105209e-002
1.992190e+003;2.100726e-002
1.994119e+003;2.087368e-002
1.996047e+003;2.073467e-002
1.997976e+003;2.064341e-002
1.999904e+003;2.084524e-002
2.001833e+003;2.086130e-002
2.003761e+003;2.078861e-002
2.005690e+003;2.086481e-002
2.007618e+003;2.104263e-002
2.009547e+003;2.104528e-002
2.011476e+003;2.098581e-002
2.013404e+003;2.090483e-002
2.015333e+003;2.078489e-002
2.017261e+003;2.072543e-002
2.019190e+003;2.095917e-002
2.021118e+003;2.117572e-002
2.023047e+003;2.125278e-002
2.024975e+003;2.109254e-002
2.026904e+003;2.072463e-002
2.028833e+003;2.039775e-002
2.030761e+003;2.014092e-002
2.032690e+003;2.021252e-002
2.034618e+003;2.048111e-002
2.036547e+003;2.053151e-002
2.038475e+003;2.038202e-002
2.040404e+003;2.052810e-002
2.042332e+003;2.074089e-002
2.044261e+003;2.060102e-002
2.046189e+003;2.057983e-002
2.048118e+003;2.055409e-002
2.050047e+003;2.053561e-002
2.051975e+003;2.058080e-002
2.053904e+003;2.047802e-002
2.055832e+003;2.036056e-002
2.057761e+003;2.045843e-002
2.059689e+003;2.056785e-002
2.061618e+003;2.045030e-002
2.063546e+003;2.026463e-002
2.065475e+003;1.996089e-002
2.067404e+003;2.001509e-002
2.069332e+003;2.022856e-002
2.071260e+003;2.022519e-002
2.073189e+003;2.018784e-002
2.075118e+003;2.031268e-002
2.077046e+003;2.050070e-002
2.078975e+003;2.055437e-002
2.080903e+003;2.050757e-002
2.082832e+003;2.053002e-002
2.084760e+003;2.055444e-002
2.086689e+003;2.053721e-002
2.088617e+003;2.054464e-002
2.090546e+003;2.071931e-002
2.092475e+003;2.089433e-002
2.094403e+003;2.070864e-002
2.096332e+003;2.042863e-002
2.098260e+003;2.051327e-002
2.100189e+003;2.075601e-002
2.102117e+003;2.078896e-002
2.104046e+003;2.080387e-002
2.105974e+003;2.086968e-002
2.107903e+003;2.075511e-002
2.109832e+003;2.069589e-002
2.111760e+003;2.086074e-002
2.113688e+003;2.096352e-002
2.115617e+003;2.085066e-002
2.117546e+003;2.076904e-002
2.119474e+003;2.068692e-002
2.121403e+003;2.094992e-002
2.123331e+003;2.134406e-002
2.125260e+003;2.156320e-002
2.127188e+003;2.177577e-002
2.129117e+003;2.202869e-002
2.131045e+003;2.214499e-002
2.132974e+003;2.208890e-002
2.134903e+003;2.214325e-002
2.136831e+003;2.233942e-002
2.138760e+003;2.234755e-002
2.140688e+003;2.218094e-002
2.142617e+003;2.220483e-002
2.144545e+003;2.223151e-002
2.146474e+003;2.206414e-002
2.148402e+003;2.195849e-002
2.150331e+003;2.199380e-002
2.152260e+003;2.206561e-002
2.154188e+003;2.208565e-002
2.156117e+003;2.218977e-002
2.158045e+003;2.207722e-002
2.159974e+003;2.209179e-002
2.161902e+003;2.235470e-002
2.163831e+003;2.259554e-002
2.165759e+003;2.276084e-002
2.167688e+003;2.286630e-002
2.169616e+003;2.287842e-002
2.171545e+003;2.306389e-002
2.173474e+003;2.344239e-002
2.175402e+003;2.342620e-002
2.177331e+003;2.324223e-002
2.179259e+003;2.319514e-002
2.181188e+003;2.318438e-002
2.183116e+003;2.324705e-002
2.185045e+003;2.321650e-002
2.186973e+003;2.316030e-002
2.188902e+003;2.300093e-002
2.190831e+003;2.294685e-002
2.192759e+003;2.324125e-002
2.194688e+003;2.317536e-002
2.196616e+003;2.295858e-002
2.198545e+003;2.314038e-002
2.200473e+003;2.309435e-002
2.202402e+003;2.277502e-002
2.204330e+003;2.270103e-002
2.206259e+003;2.246506e-002
2.208188e+003;2.229516e-002
2.210116e+003;2.252605e-002
2.212044e+003;2.265233e-002
2.213973e+003;2.244499e-002
2.215902e+003;2.247095e-002
2.217830e+003;2.270899e-002
2.219759e+003;2.284954e-002
2.221687e+003;2.286333e-002
2.223616e+003;2.281043e-002
2.225544e+003;2.302887e-002
2.227473e+003;2.327974e-002
2.229401e+003;2.336906e-002
2.231330e+003;2.307094e-002
2.233259e+003;2.270068e-002
2.235187e+003;2.264668e-002
2.237116e+003;2.262577e-002
2.239044e+003;2.270152e-002
2.240973e+003;2.279890e-002
2.242901e+003;2.284123e-002
2.244830e+003;2.275920e-002
2.246758e+003;2.272191e-002
2.248687e+003;2.308537e-002
2.250615e+003;2.346359e-002
2.252544e+003;2.354690e-002
2.254473e+003;2.354722e-002
2.256401e+003;2.348128e-002
2.258330e+003;2.351538e-002
2.260258e+003;2.337917e-002
2.262187e+003;2.322370e-002
2.264115e+003;2.344991e-002
2.266044e+003;2.355390e-002
2.267972e+003;2.355911e-002
2.269901e+003;2.326215e-002
2.271830e+003;2.287294e-002
2.273758e+003;2.282754e-002
2.275687e+003;2.273469e-002
2.277615e+003;2.266759e-002
2.279544e+003;2.270892e-002
2.281472e+003;2.275728e-002
2.283401e+003;2.274673e-002
2.285329e+003;2.279558e-002
2.287258e+003;2.255135e-002
2.289187e+003;2.231912e-002
2.291115e+003;2.220441e-002
2.293043e+003;2.230838e-002
2.294972e+003;2.242211e-002
2.296901e+003;2.226597e-002
2.298829e+003;2.228504e-002
2.300758e+003;2.240616e-002
2.302686e+003;2.243076e-002
2.304615e+003;2.254375e-002
2.306543e+003;2.272086e-002
2.308472e+003;2.277652e-002
2.310400e+003;2.271688e-002
2.312329e+003;2.257470e-002
2.314258e+003;2.277317e-002
2.316186e+003;2.307087e-002
2.318115e+003;2.307056e-002
2.320043e+003;2.302199e-002
2.321972e+003;2.297298e-002
2.323900e+003;2.324331e-002
2.325829e+003;2.368188e-002
2.327757e+003;2.374794e-002
2.329686e+003;2.363929e-002
2.331615e+003;2.383278e-002
2.333543e+003;2.403298e-002
2.335472e+003;2.404681e-002
2.337400e+003;2.411332e-002
2.339329e+003;2.427997e-002
2.341257e+003;2.442236e-002
2.343186e+003;2.439190e-002
2.345114e+003;2.429178e-002
2.347043e+003;2.457783e-002
2.348971e+003;2.495914e-002
2.350900e+003;2.463702e-002
2.352829e+003;2.430839e-002
2.354757e+003;2.471372e-002
2.356686e+003;2.512787e-002
2.358614e+003;2.502635e-002
2.360543e+003;2.487927e-002
2.362471e+003;2.507696e-002
2.364400e+003;2.516895e-002
2.366328e+003;2.515546e-002
2.368257e+003;2.536372e-002
2.370186e+003;2.560482e-002
2.372114e+003;2.559994e-002
2.374042e+003;2.566081e-002
2.375971e+003;2.557699e-002
2.377900e+003;2.531391e-002
2.379828e+003;2.536909e-002
2.381757e+003;2.549040e-002
2.383685e+003;2.544567e-002
2.385614e+003;2.545832e-002
2.387542e+003;2.536779e-002
2.389471e+003;2.531668e-002
2.391399e+003;2.571446e-002
2.393328e+003;2.606615e-002
2.395257e+003;2.608110e-002
2.397185e+003;2.594901e-002
2.399114e+003;2.599642e-002
2.401042e+003;2.618836e-002
2.402971e+003;2.644415e-002
2.404899e+003;2.659715e-002
2.406828e+003;2.669696e-002
2.408756e+003;2.659891e-002
2.410685e+003;2.634539e-002
2.412614e+003;2.633257e-002
2.414542e+003;2.648673e-002
2.416471e+003;2.673434e-002
2.418399e+003;2.676282e-002
2.420328e+003;2.672938e-002
2.422256e+003;2.703263e-002
2.424185e+003;2.749985e-002
2.426113e+003;2.744048e-002
2.428042e+003;2.706176e-002
2.429970e+003;2.700269e-002
2.431899e+003;2.714809e-002
2.433828e+003;2.711325e-002
2.435756e+003;2.677494e-002
2.437685e+003;2.637700e-002
2.439613e+003;2.629860e-002
2.441542e+003;2.624408e-002
2.443470e+003;2.625425e-002
2.445399e+003;2.641267e-002
2.447327e+003;2.635799e-002
2.449256e+003;2.615408e-002
2.451185e+003;2.611692e-002
2.453113e+003;2.604075e-002
2.455042e+003;2.591162e-002
2.456970e+003;2.600553e-002
2.458899e+003;2.622898e-002
2.460827e+003;2.602457e-002
2.462756e+003;2.570978e-002
2.464684e+003;2.539684e-002
2.466613e+003;2.564514e-002
2.468542e+003;2.603554e-002
2.470470e+003;2.607530e-002
2.472398e+003;2.620518e-002
2.474327e+003;2.616682e-002
2.476256e+003;2.623362e-002
2.478184e+003;2.653889e-002
2.480113e+003;2.667363e-002
2.482041e+003;2.654329e-002
2.483970e+003;2.657827e-002
2.485898e+003;2.665612e-002
2.487827e+003;2.661413e-002
2.489755e+003;2.679179e-002
2.491684e+003;2.689026e-002
2.493613e+003;2.687951e-002
2.495541e+003;2.658817e-002
2.497470e+003;2.647690e-002
2.499398e+003;2.693718e-002
2.501327e+003;2.725173e-002
2.503255e+003;2.726743e-002
2.505184e+003;2.702561e-002
2.507112e+003;2.666268e-002
2.509041e+003;2.686552e-002
2.510969e+003;2.735670e-002
2.512898e+003;2.758278e-002
2.514827e+003;2.804519e-002
2.516755e+003;2.835683e-002
2.518684e+003;2.859338e-002
2.520612e+003;2.879429e-002
2.522541e+003;2.903405e-002
2.524469e+003;2.920575e-002
2.526398e+003;2.931591e-002
2.528326e+003;2.971918e-002
2.530255e+003;2.997166e-002
2.532184e+003;2.997365e-002
2.534112e+003;3.010826e-002
2.536041e+003;3.035578e-002
2.537969e+003;3.048411e-002
2.539898e+003;3.054155e-002
2.541826e+003;3.092902e-002
2.543755e+003;3.143989e-002
2.545683e+003;3.166508e-002
2.547612e+003;3.192422e-002
2.549541e+003;3.232638e-002
2.551469e+003;3.249882e-002
2.553397e+003;3.271309e-002
2.555326e+003;3.306675e-002
2.557255e+003;3.353238e-002
2.559183e+003;3.385691e-002
2.561112e+003;3.407034e-002
2.563040e+003;3.450560e-002
2.564969e+003;3.487860e-002
2.566897e+003;3.520722e-002
2.568826e+003;3.584868e-002
2.570754e+003;3.623929e-002
2.572683e+003;3.670229e-002
2.574612e+003;3.740469e-002
2.576540e+003;3.797708e-002
2.578469e+003;3.843607e-002
2.580397e+003;3.906387e-002
2.582326e+003;3.936516e-002
2.584254e+003;3.899272e-002
2.586183e+003;3.827479e-002
2.588111e+003;3.772153e-002
2.590040e+003;3.711692e-002
2.591969e+003;3.670269e-002
2.593897e+003;3.641365e-002
2.595826e+003;3.650418e-002
2.597754e+003;3.653993e-002
2.599683e+003;3.627729e-002
2.601611e+003;3.628151e-002
2.603540e+003;3.661998e-002
2.605468e+003;3.697309e-002
2.607397e+003;3.723470e-002
2.609325e+003;3.759299e-002
2.611254e+003;3.803603e-002
2.613183e+003;3.843499e-002
2.615111e+003;3.882159e-002
2.617040e+003;3.877304e-002
2.618968e+003;3.857362e-002
2.620897e+003;3.830342e-002
2.622825e+003;3.823083e-002
2.624754e+003;3.825352e-002
2.626682e+003;3.805968e-002
2.628611e+003;3.790158e-002
2.630540e+003;3.795072e-002
2.632468e+003;3.779584e-002
2.634396e+003;3.791601e-002
2.636325e+003;3.822620e-002
2.638254e+003;3.825916e-002
2.640182e+003;3.835890e-002
2.642111e+003;3.863449e-002
2.644039e+003;3.904368e-002
2.645968e+003;3.924862e-002
2.647896e+003;3.965911e-002
2.649825e+003;4.017309e-002
2.651753e+003;4.048403e-002
2.653682e+003;4.066185e-002
2.655611e+003;4.087338e-002
2.657539e+003;4.153862e-002
2.659468e+003;4.198639e-002
2.661396e+003;4.188250e-002
2.663325e+003;4.182398e-002
2.665253e+003;4.193333e-002
2.667182e+003;4.191202e-002
2.669110e+003;4.190987e-002
2.671039e+003;4.217827e-002
2.672968e+003;4.256643e-002
2.674896e+003;4.290593e-002
2.676825e+003;4.322385e-002
2.678753e+003;4.326287e-002
2.680682e+003;4.311182e-002
2.682610e+003;4.283959e-002
2.684539e+003;4.254081e-002
2.686467e+003;4.253680e-002
2.688396e+003;4.277191e-002
2.690324e+003;4.314677e-002
2.692253e+003;4.330881e-002
2.694182e+003;4.330375e-002
2.696110e+003;4.343604e-002
2.698039e+003;4.384985e-002
2.699967e+003;4.409224e-002
2.701896e+003;4.434166e-002
2.703824e+003;4.519619e-002
2.705753e+003;4.621693e-002
2.707681e+003;4.680531e-002
2.709610e+003;4.740243e-002
2.711539e+003;4.826508e-002
2.713467e+003;4.965485e-002
2.715396e+003;5.129041e-002
2.717324e+003;5.313345e-002
2.719253e+003;5.487745e-002
2.721181e+003;5.602638e-002
2.723110e+003;5.671262e-002
2.725038e+003;5.651804e-002
2.726967e+003;5.546699e-002
2.728896e+003;5.415052e-002
2.730824e+003;5.264210e-002
2.732752e+003;5.125704e-002
2.734681e+003;5.016429e-002
2.736610e+003;4.933565e-002
2.738538e+003;4.853955e-002
2.740467e+003;4.777125e-002
2.742395e+003;4.696477e-002
2.744324e+003;4.622250e-002
2.746252e+003;4.559631e-002
2.748181e+003;4.520873e-002
2.750109e+003;4.523896e-002
2.752038e+003;4.558155e-002
2.753967e+003;4.578599e-002
2.755895e+003;4.583676e-002
2.757824e+003;4.600087e-002
2.759752e+003;4.649989e-002
2.761681e+003;4.698563e-002
2.763609e+003;4.736079e-002
2.765538e+003;4.764404e-002
2.767466e+003;4.790957e-002
2.769395e+003;4.844568e-002
2.771323e+003;4.894599e-002
2.773252e+003;4.945448e-002
2.775181e+003;4.975107e-002
2.777109e+003;5.007340e-002
2.779038e+003;5.125517e-002
2.780966e+003;5.269862e-002
2.782895e+003;5.383366e-002
2.784823e+003;5.508341e-002
2.786752e+003;5.648664e-002
2.788680e+003;5.812704e-002
2.790609e+003;5.992324e-002
2.792538e+003;6.136656e-002
2.794466e+003;6.284923e-002
2.796395e+003;6.418489e-002
2.798323e+003;6.543066e-002
2.800252e+003;6.714080e-002
2.802180e+003;6.893199e-002
2.804109e+003;7.091453e-002
2.806037e+003;7.323447e-002
2.807966e+003;7.532778e-002
2.809895e+003;7.697408e-002
2.811823e+003;7.864372e-002
2.813751e+003;8.032431e-002
2.815680e+003;8.215004e-002
2.817609e+003;8.401118e-002
2.819537e+003;8.636232e-002
2.821466e+003;8.944035e-002
2.823394e+003;9.293564e-002
2.825323e+003;9.707559e-002
2.827251e+003;1.024790e-001
2.829180e+003;1.092343e-001
2.831108e+003;1.169325e-001
2.833037e+003;1.248771e-001
2.834966e+003;1.315745e-001
2.836894e+003;1.354325e-001
2.838823e+003;1.362537e-001
2.840751e+003;1.346567e-001
2.842680e+003;1.311718e-001
2.844608e+003;1.269532e-001
2.846537e+003;1.228883e-001
2.848465e+003;1.197225e-001
2.850394e+003;1.175608e-001
2.852323e+003;1.162589e-001
2.854251e+003;1.160136e-001
2.856180e+003;1.167864e-001
2.858108e+003;1.192059e-001
2.860037e+003;1.237525e-001
2.861965e+003;1.300053e-001
2.863894e+003;1.366737e-001
2.865822e+003;1.418779e-001
2.867751e+003;1.443907e-001
2.869679e+003;1.448891e-001
2.871608e+003;1.448911e-001
2.873536e+003;1.448406e-001
2.875465e+003;1.446905e-001
2.877394e+003;1.440250e-001
2.879322e+003;1.428083e-001
2.881251e+003;1.417248e-001
2.883179e+003;1.414164e-001
2.885108e+003;1.415425e-001
2.887036e+003;1.424763e-001
2.888965e+003;1.438784e-001
2.890893e+003;1.453326e-001
2.892822e+003;1.476191e-001
2.894750e+003;1.511962e-001
2.896679e+003;1.553982e-001
2.898608e+003;1.599420e-001
2.900536e+003;1.640150e-001
2.902465e+003;1.677161e-001
2.904393e+003;1.727114e-001
2.906322e+003;1.776739e-001
2.908250e+003;1.812439e-001
2.910179e+003;1.842677e-001
2.912107e+003;1.866975e-001
2.914036e+003;1.891826e-001
2.915965e+003;1.918837e-001
2.917893e+003;1.932707e-001
2.919822e+003;1.919838e-001
2.921750e+003;1.888063e-001
2.923679e+003;1.843802e-001
2.925607e+003;1.785003e-001
2.927536e+003;1.718795e-001
2.929464e+003;1.646758e-001
2.931393e+003;1.567909e-001
2.933322e+003;1.489592e-001
2.935250e+003;1.424679e-001
2.937178e+003;1.378937e-001
2.939107e+003;1.352779e-001
2.941036e+003;1.357842e-001
2.942964e+003;1.397763e-001
2.944893e+003;1.458102e-001
2.946821e+003;1.523633e-001
2.948750e+003;1.585902e-001
2.950678e+003;1.624707e-001
2.952607e+003;1.633451e-001
2.954535e+003;1.615225e-001
2.956464e+003;1.575778e-001
2.958393e+003;1.523840e-001
2.960321e+003;1.472117e-001
2.962250e+003;1.423693e-001
2.964178e+003;1.366033e-001
2.966107e+003;1.298781e-001
2.968035e+003;1.230700e-001
2.969964e+003;1.168960e-001
2.971892e+003;1.109704e-001
2.973821e+003;1.052321e-001
2.975750e+003;1.001930e-001
2.977678e+003;9.572031e-002
2.979607e+003;9.156518e-002
2.981535e+003;8.800976e-002
2.983464e+003;8.502184e-002
2.985392e+003;8.202880e-002
2.987321e+003;7.941438e-002
2.989249e+003;7.720228e-002
2.991178e+003;7.515926e-002
2.993106e+003;7.290044e-002
2.995035e+003;7.072603e-002
2.996964e+003;6.882401e-002
2.998892e+003;6.682279e-002
3.000821e+003;6.434828e-002
3.002749e+003;6.212483e-002
3.004678e+003;6.040123e-002
3.006606e+003;5.905718e-002
3.008535e+003;5.774633e-002
3.010463e+003;5.630452e-002
3.012392e+003;5.449864e-002
3.014321e+003;5.278324e-002
3.016249e+003;5.189026e-002
3.018177e+003;5.109976e-002
3.020106e+003;4.987835e-002
3.022035e+003;4.830171e-002
3.023963e+003;4.730148e-002
3.025892e+003;4.676667e-002
3.027820e+003;4.612599e-002
3.029749e+003;4.561721e-002
3.031677e+003;4.523120e-002
3.033606e+003;4.470995e-002
3.035534e+003;4.422077e-002
3.037463e+003;4.356338e-002
3.039392e+003;4.297671e-002
3.041320e+003;4.230254e-002
3.043249e+003;4.158646e-002
3.045177e+003;4.181821e-002
3.047106e+003;4.242912e-002
3.049034e+003;4.228771e-002
3.050963e+003;4.145186e-002
3.052891e+003;4.097390e-002
3.054820e+003;4.087028e-002
3.056749e+003;4.078216e-002
3.058677e+003;4.074245e-002
3.060606e+003;4.058319e-002
3.062534e+003;4.019887e-002
3.064463e+003;3.998392e-002
3.066391e+003;3.972980e-002
3.068320e+003;3.980663e-002
3.070248e+003;4.002531e-002
3.072177e+003;4.006538e-002
3.074105e+003;3.981045e-002
3.076034e+003;3.959838e-002
3.077963e+003;3.938106e-002
3.079891e+003;3.910470e-002
3.081820e+003;3.917979e-002
3.083748e+003;3.951425e-002
3.085677e+003;3.940856e-002
3.087605e+003;3.919868e-002
3.089534e+003;3.929135e-002
3.091462e+003;3.918784e-002
3.093391e+003;3.900457e-002
3.095320e+003;3.867618e-002
3.097248e+003;3.860918e-002
3.099177e+003;3.864435e-002
3.101105e+003;3.853107e-002
3.103034e+003;3.858122e-002
3.104962e+003;3.895415e-002
3.106891e+003;3.935345e-002
3.108819e+003;3.955294e-002
3.110748e+003;3.934336e-002
3.112677e+003;3.934859e-002
3.114605e+003;3.957472e-002
3.116533e+003;3.966982e-002
3.118462e+003;3.916753e-002
3.120391e+003;3.891172e-002
3.122319e+003;3.951731e-002
3.124248e+003;4.018920e-002
3.126176e+003;4.011945e-002
3.128105e+003;3.989006e-002
3.130033e+003;3.998171e-002
3.131962e+003;3.987099e-002
3.133890e+003;3.997571e-002
3.135819e+003;4.045461e-002
3.137748e+003;4.064977e-002
3.139676e+003;4.066524e-002
3.141605e+003;4.072007e-002
3.143533e+003;4.072709e-002
3.145462e+003;4.109852e-002
3.147390e+003;4.154256e-002
3.149319e+003;4.189534e-002
3.151247e+003;4.205768e-002
3.153176e+003;4.191527e-002
3.155104e+003;4.179326e-002
3.157033e+003;4.170940e-002
3.158962e+003;4.172866e-002
3.160890e+003;4.183397e-002
3.162819e+003;4.182037e-002
3.164747e+003;4.200337e-002
3.166676e+003;4.203410e-002
3.168604e+003;4.187024e-002
3.170533e+003;4.175937e-002
3.172461e+003;4.169437e-002
3.174390e+003;4.205958e-002
3.176319e+003;4.258211e-002
3.178247e+003;4.256088e-002
3.180176e+003;4.239010e-002
3.182104e+003;4.234225e-002
3.184033e+003;4.244603e-002
3.185961e+003;4.288220e-002
3.187890e+003;4.328359e-002
3.189818e+003;4.361511e-002
3.191747e+003;4.366248e-002
3.193676e+003;4.354529e-002
3.195604e+003;4.370626e-002
3.197532e+003;4.388962e-002
3.199461e+003;4.382097e-002
3.201390e+003;4.384292e-002
3.203318e+003;4.385473e-002
3.205247e+003;4.363859e-002
3.207175e+003;4.353346e-002
3.209104e+003;4.387918e-002
3.211032e+003;4.372616e-002
3.212961e+003;4.364284e-002
3.214889e+003;4.351335e-002
3.216818e+003;4.323823e-002
3.218747e+003;4.323186e-002
3.220675e+003;4.343472e-002
3.222604e+003;4.344897e-002
3.224532e+003;4.327443e-002
3.226461e+003;4.303715e-002
3.228389e+003;4.273443e-002
3.230318e+003;4.266033e-002
3.232246e+003;4.265711e-002
3.234175e+003;4.281136e-002
3.236104e+003;4.239780e-002
3.238032e+003;4.230955e-002
3.239961e+003;4.281388e-002
3.241889e+003;4.284091e-002
3.243818e+003;4.273264e-002
3.245746e+003;4.278949e-002
3.247675e+003;4.280229e-002
3.249603e+003;4.268523e-002
3.251532e+003;4.263233e-002
3.253460e+003;4.277505e-002
3.255389e+003;4.263650e-002
3.257318e+003;4.276394e-002
3.259246e+003;4.337606e-002
3.261175e+003;4.381243e-002
3.263103e+003;4.376922e-002
3.265032e+003;4.380305e-002
3.266960e+003;4.359566e-002
3.268889e+003;4.319834e-002
3.270817e+003;4.326481e-002
3.272746e+003;4.356089e-002
3.274675e+003;4.377996e-002
3.276603e+003;4.377776e-002
3.278531e+003;4.378373e-002
3.280460e+003;4.390968e-002
3.282389e+003;4.394560e-002
3.284317e+003;4.394718e-002
3.286246e+003;4.403885e-002
3.288174e+003;4.414073e-002
3.290103e+003;4.393959e-002
3.292031e+003;4.350240e-002
3.293960e+003;4.358426e-002
3.295888e+003;4.359460e-002
3.297817e+003;4.409972e-002
3.299746e+003;4.436724e-002
3.301674e+003;4.365592e-002
3.303603e+003;4.354807e-002
3.305531e+003;4.427859e-002
3.307460e+003;4.430108e-002
3.309388e+003;4.408982e-002
3.311317e+003;4.384388e-002
3.313245e+003;4.369963e-002
3.315174e+003;4.397662e-002
3.317103e+003;4.375804e-002
3.319031e+003;4.346742e-002
3.320960e+003;4.353419e-002
3.322888e+003;4.355144e-002
3.324817e+003;4.397761e-002
3.326745e+003;4.432170e-002
3.328674e+003;4.379674e-002
3.330602e+003;4.310904e-002
3.332531e+003;4.334864e-002
3.334459e+003;4.381906e-002
3.336388e+003;4.420393e-002
3.338317e+003;4.421989e-002
3.340245e+003;4.385924e-002
3.342174e+003;4.352954e-002
3.344102e+003;4.288055e-002
3.346031e+003;4.279841e-002
3.347959e+003;4.295776e-002
3.349888e+003;4.306170e-002
3.351816e+003;4.286475e-002
3.353745e+003;4.256706e-002
3.355674e+003;4.231989e-002
3.357602e+003;4.183675e-002
3.359531e+003;4.159860e-002
3.361459e+003;4.197665e-002
3.363388e+003;4.225141e-002
3.365316e+003;4.208148e-002
3.367245e+003;4.188297e-002
3.369173e+003;4.145638e-002
3.371102e+003;4.107889e-002
3.373031e+003;4.099411e-002
3.374959e+003;4.090112e-002
3.376887e+003;4.061189e-002
3.378816e+003;4.022024e-002
3.380745e+003;4.022209e-002
3.382673e+003;4.020919e-002
3.384602e+003;3.988621e-002
3.386530e+003;4.014714e-002
3.388459e+003;4.016401e-002
3.390387e+003;4.001640e-002
3.392316e+003;4.030312e-002
3.394244e+003;3.998632e-002
3.396173e+003;3.934938e-002
3.398102e+003;3.917725e-002
3.400030e+003;3.893422e-002
3.401959e+003;3.882623e-002
3.403887e+003;3.922164e-002
3.405816e+003;3.942503e-002
3.407744e+003;3.900497e-002
3.409673e+003;3.900152e-002
3.411601e+003;3.933121e-002
3.413530e+003;3.935149e-002
3.415458e+003;3.914563e-002
3.417387e+003;3.857322e-002
3.419316e+003;3.806981e-002
3.421244e+003;3.806080e-002
3.423173e+003;3.829386e-002
3.425101e+003;3.810222e-002
3.427030e+003;3.782830e-002
3.428958e+003;3.745973e-002
3.430887e+003;3.706286e-002
3.432815e+003;3.655845e-002
3.434744e+003;3.656624e-002
3.436673e+003;3.672396e-002
3.438601e+003;3.644403e-002
3.440530e+003;3.587329e-002
3.442458e+003;3.571538e-002
3.444387e+003;3.582997e-002
3.446315e+003;3.560991e-002
3.448244e+003;3.549138e-002
3.450172e+003;3.553773e-002
3.452101e+003;3.511642e-002
3.454030e+003;3.484258e-002
3.455958e+003;3.472657e-002
3.457886e+003;3.458119e-002
3.459815e+003;3.410364e-002
3.461744e+003;3.371977e-002
3.463672e+003;3.368798e-002
3.465601e+003;3.353414e-002
3.467529e+003;3.324481e-002
3.469458e+003;3.302741e-002
3.471386e+003;3.305244e-002
3.473315e+003;3.278591e-002
3.475243e+003;3.246101e-002
3.477172e+003;3.216853e-002
3.479101e+003;3.219098e-002
3.481029e+003;3.243880e-002
3.482958e+003;3.214459e-002
3.484886e+003;3.128671e-002
3.486815e+003;3.103364e-002
3.488743e+003;3.110660e-002
3.490672e+003;3.091888e-002
3.492600e+003;3.046822e-002
3.494529e+003;3.009952e-002
3.496458e+003;3.011827e-002
3.498386e+003;3.005059e-002
3.500315e+003;2.985552e-002
3.502243e+003;2.967217e-002
3.504172e+003;2.983695e-002
3.506100e+003;2.989573e-002
3.508029e+003;2.956905e-002
3.509957e+003;2.923060e-002
3.511886e+003;2.912425e-002
3.513814e+003;2.910012e-002
3.515743e+003;2.882148e-002
3.517672e+003;2.853287e-002
3.519600e+003;2.820820e-002
3.521529e+003;2.815371e-002
3.523457e+003;2.832758e-002
3.525386e+003;2.803940e-002
3.527314e+003;2.745245e-002
3.529243e+003;2.701320e-002
3.531171e+003;2.680264e-002
3.533100e+003;2.693743e-002
3.535029e+003;2.704060e-002
3.536957e+003;2.691300e-002
3.538885e+003;2.624372e-002
3.540814e+003;2.556817e-002
3.542743e+003;2.554708e-002
3.544671e+003;2.589477e-002
3.546600e+003;2.591570e-002
3.548528e+003;2.568725e-002
3.550457e+003;2.551061e-002
3.552385e+003;2.497500e-002
3.554314e+003;2.471071e-002
3.556242e+003;2.510368e-002
3.558171e+003;2.506959e-002
3.560100e+003;2.420713e-002
3.562028e+003;2.371634e-002
3.563957e+003;2.368681e-002
3.565885e+003;2.311902e-002
3.567814e+003;2.295429e-002
3.569742e+003;2.319644e-002
3.571671e+003;2.333714e-002
3.573599e+003;2.318336e-002
3.575528e+003;2.286822e-002
3.577457e+003;2.253994e-002
3.579385e+003;2.217136e-002
3.581314e+003;2.205233e-002
3.583242e+003;2.190134e-002
3.585171e+003;2.174393e-002
3.587099e+003;2.147912e-002
3.589028e+003;2.138618e-002
3.590956e+003;2.119983e-002
3.592885e+003;2.098581e-002
3.594813e+003;2.116031e-002
3.596742e+003;2.165538e-002
3.598671e+003;2.174448e-002
3.600599e+003;2.120282e-002
3.602528e+003;2.063091e-002
3.604456e+003;2.066329e-002
3.606385e+003;2.060471e-002
3.608313e+003;2.025480e-002
3.610242e+003;2.044578e-002
3.612170e+003;2.071465e-002
3.614099e+003;2.053644e-002
3.616028e+003;1.979593e-002
3.617956e+003;1.956995e-002
3.619885e+003;1.982367e-002
3.621813e+003;1.975643e-002
3.623742e+003;1.967332e-002
3.625670e+003;1.971759e-002
3.627599e+003;1.956811e-002
3.629527e+003;1.951207e-002
3.631456e+003;1.961224e-002
3.633385e+003;1.962239e-002
3.635313e+003;1.949228e-002
3.637241e+003;1.921049e-002
3.639170e+003;1.838300e-002
3.641099e+003;1.805391e-002
3.643027e+003;1.860691e-002
3.644956e+003;1.875271e-002
3.646884e+003;1.814200e-002
3.648813e+003;1.798408e-002
3.650741e+003;1.804504e-002
3.652670e+003;1.834173e-002
3.654598e+003;1.814953e-002
3.656527e+003;1.781931e-002
3.658456e+003;1.825657e-002
3.660384e+003;1.832438e-002
3.662313e+003;1.781375e-002
3.664241e+003;1.750310e-002
3.666170e+003;1.740776e-002
3.668098e+003;1.725841e-002
3.670027e+003;1.733558e-002
3.671955e+003;1.775904e-002
3.673884e+003;1.800597e-002
3.675813e+003;1.812732e-002
3.677741e+003;1.853640e-002
3.679669e+003;1.866799e-002
3.681598e+003;1.822385e-002
3.683527e+003;1.820118e-002
3.685455e+003;1.869113e-002
3.687384e+003;1.898702e-002
3.689312e+003;1.903518e-002
3.691241e+003;1.911612e-002
3.693169e+003;1.908901e-002
3.695098e+003;1.882571e-002
3.697026e+003;1.858485e-002
3.698955e+003;1.861705e-002
3.700884e+003;1.842867e-002
3.702812e+003;1.849280e-002
3.704741e+003;1.860231e-002
3.706669e+003;1.823930e-002
3.708598e+003;1.799351e-002
3.710526e+003;1.824887e-002
3.712455e+003;1.839873e-002
3.714383e+003;1.822724e-002
3.716312e+003;1.798411e-002
3.718240e+003;1.764584e-002
3.720169e+003;1.736638e-002
3.722098e+003;1.758821e-002
3.724026e+003;1.810186e-002
3.725955e+003;1.792548e-002
3.727883e+003;1.749003e-002
3.729812e+003;1.783291e-002
3.731740e+003;1.807636e-002
3.733669e+003;1.752356e-002
3.735597e+003;1.752632e-002
3.737526e+003;1.806358e-002
3.739455e+003;1.821190e-002
3.741383e+003;1.830634e-002
3.743312e+003;1.807440e-002
3.745240e+003;1.806839e-002
3.747169e+003;1.811930e-002
3.749097e+003;1.827147e-002
3.751026e+003;1.817624e-002
3.752954e+003;1.779114e-002
3.754883e+003;1.807985e-002
3.756812e+003;1.839154e-002
3.758740e+003;1.878963e-002
3.760668e+003;1.903833e-002
3.762597e+003;1.910092e-002
3.764526e+003;1.906426e-002
3.766454e+003;1.903659e-002
3.768383e+003;1.853370e-002
3.770311e+003;1.847313e-002
3.772240e+003;1.892393e-002
3.774168e+003;1.877845e-002
3.776097e+003;1.862026e-002
3.778025e+003;1.855442e-002
3.779954e+003;1.811143e-002
3.781883e+003;1.855784e-002
3.783811e+003;1.897432e-002
3.785740e+003;1.857814e-002
3.787668e+003;1.810130e-002
3.789597e+003;1.830589e-002
3.791525e+003;1.853253e-002
3.793454e+003;1.856365e-002
3.795382e+003;1.892316e-002
3.797311e+003;1.928125e-002
3.799240e+003;1.892355e-002
3.801168e+003;1.823968e-002
3.803097e+003;1.864824e-002
3.805025e+003;1.890150e-002
3.806954e+003;1.866450e-002
3.808882e+003;1.877015e-002
3.810811e+003;1.871642e-002
3.812739e+003;1.875070e-002
3.814668e+003;1.874870e-002
3.816596e+003;1.843489e-002
3.818525e+003;1.825419e-002
3.820454e+003;1.857835e-002
3.822382e+003;1.911439e-002
3.824311e+003;1.925499e-002
3.826239e+003;1.883201e-002
3.828168e+003;1.834913e-002
3.830096e+003;1.801775e-002
3.832025e+003;1.845453e-002
3.833953e+003;1.889520e-002
3.835882e+003;1.854829e-002
3.837811e+003;1.829836e-002
3.839739e+003;1.882423e-002
3.841667e+003;1.918572e-002
3.843596e+003;1.918901e-002
3.845525e+003;1.927944e-002
3.847453e+003;1.950302e-002
3.849382e+003;1.963723e-002
3.851310e+003;1.928741e-002
3.853239e+003;1.946410e-002
3.855167e+003;1.976760e-002
3.857096e+003;1.947263e-002
3.859024e+003;1.899813e-002
3.860953e+003;1.886589e-002
3.862882e+003;1.911017e-002
3.864810e+003;1.964129e-002
3.866739e+003;2.041928e-002
3.868667e+003;2.029112e-002
3.870596e+003;2.001758e-002
3.872524e+003;1.994688e-002
3.874453e+003;1.942419e-002
3.876381e+003;1.977866e-002
3.878310e+003;2.025182e-002
3.880239e+003;2.013415e-002
3.882167e+003;2.019378e-002
3.884096e+003;2.026553e-002
3.886024e+003;2.023137e-002
3.887953e+003;2.024567e-002
3.889881e+003;2.051077e-002
3.891810e+003;2.049660e-002
3.893738e+003;2.000180e-002
3.895667e+003;2.016726e-002
3.897595e+003;2.012794e-002
3.899524e+003;1.977980e-002
3.901453e+003;1.970463e-002
3.903381e+003;1.937540e-002
3.905310e+003;1.903846e-002
3.907238e+003;1.915359e-002
3.909167e+003;1.974512e-002
3.911095e+003;2.006887e-002
3.913024e+003;2.026876e-002
3.914952e+003;2.059960e-002
3.916881e+003;2.050382e-002
3.918810e+003;2.045870e-002
3.920738e+003;2.065610e-002
3.922667e+003;2.075653e-002
3.924595e+003;2.035056e-002
3.926524e+003;1.970352e-002
3.928452e+003;2.006047e-002
3.930381e+003;2.038862e-002
3.932309e+003;2.029292e-002
3.934238e+003;2.033219e-002
3.936167e+003;2.030816e-002
3.938095e+003;2.008386e-002
3.940023e+003;2.045137e-002
3.941952e+003;2.112364e-002
3.943881e+003;2.094036e-002
3.945809e+003;2.050313e-002
3.947738e+003;2.013391e-002
3.949666e+003;1.983567e-002
3.951595e+003;1.972467e-002
3.953523e+003;1.972335e-002
3.955452e+003;2.054353e-002
3.957380e+003;2.095663e-002
3.959309e+003;2.078302e-002
3.961238e+003;2.067330e-002
3.963166e+003;2.086676e-002
3.965095e+003;2.142520e-002
3.967023e+003;2.122453e-002
3.968952e+003;2.033903e-002
3.970880e+003;2.008671e-002
3.972809e+003;2.029580e-002
3.974737e+003;2.046968e-002
3.976666e+003;2.095698e-002
3.978594e+003;2.144190e-002
3.980523e+003;2.144793e-002
3.982452e+003;2.160133e-002
3.984380e+003;2.159475e-002
3.986309e+003;2.185743e-002
3.988237e+003;2.203190e-002
3.990166e+003;2.180806e-002
3.992094e+003;2.189681e-002
3.994023e+003;2.268260e-002
3.995951e+003;2.306319e-002
3.997880e+003;2.279918e-002
3.999809e+003;2.261006e-002
4.001737e+003;0.000000e+000
