3.992094e+002;0.000000e+000
4.011380e+002;0.000000e+000
4.030665e+002;0.000000e+000
4.049951e+002;0.000000e+000
4.069236e+002;0.000000e+000
4.088522e+002;0.000000e+000
4.107807e+002;0.000000e+000
4.127093e+002;0.000000e+000
4.146378e+002;0.000000e+000
4.165664e+002;0.000000e+000
4.184949e+002;0.000000e+000
4.204235e+002;0.000000e+000
4.223520e+002;0.000000e+000
4.242806e+002;0.000000e+000
4.262091e+002;0.000000e+000
4.281377e+002;0.000000e+000
4.300662e+002;0.000000e+000
4.319948e+002;0.000000e+000
4.339233e+002;0.000000e+000
4.358519e+002;0.000000e+000
4.377804e+002;0.000000e+000
4.397090e+002;0.000000e+000
4.416375e+002;0.000000e+000
4.435660e+002;0.000000e+000
4.454946e+002;0.000000e+000
4.474232e+002;0.000000e+000
4.493517e+002;0.000000e+000
4.512802e+002;0.000000e+000
4.532088e+002;0.000000e+000
4.551373e+002;0.000000e+000
4.570659e+002;0.000000e+000
4.589944e+002;0.000000e+000
4.609230e+002;0.000000e+000
4.628515e+002;0.000000e+000
4.647801e+002;0.000000e+000
4.667086e+002;0.000000e+000
4.686372e+002;0.000000e+000
4.705657e+002;0.000000e+000
4.724943e+002;0.000000e+000
4.744228e+002;0.000000e+000
4.763513e+002;0.000000e+000
4.782799e+002;0.000000e+000
4.802085e+002;0.000000e+000
4.821370e+002;0.000000e+000
4.840656e+002;0.000000e+000
4.859941e+002;0.000000e+000
4.879226e+002;0.000000e+000
4.898512e+002;0.000000e+000
4.917798e+002;0.000000e+000
4.937083e+002;0.000000e+000
4.956368e+002;0.000000e+000
4.975654e+002;0.000000e+000
4.994939e+002;0.000000e+000
5.014225e+002;0.000000e+000
5.033510e+002;0.000000e+000
5.052796e+002;0.000000e+000
5.072081e+002;0.000000e+000
5.091367e+002;0.000000e+000
5.110652e+002;0.000000e+000
5.129938e+002;0.000000e+000
5.149223e+002;0.000000e+000
5.168509e+002;0.000000e+000
5.187794e+002;0.000000e+000
5.207079e+002;0.000000e+000
5.226365e+002;0.000000e+000
5.245651e+002;0.000000e+000
5.264936e+002;0.000000e+000
5.284222e+002;0.000000e+000
5.303507e+002;0.000000e+000
5.322792e+002;0.000000e+000
5.342078e+002;0.000000e+000
5.361364e+002;0.000000e+000
5.380649e+002;0.000000e+000
5.399935e+002;0.000000e+000
5.419220e+002;0.000000e+000
5.438505e+002;0.000000e+000
5.457791e+002;0.000000e+000
5.477076e+002;0.000000e+000
5.496362e+002;0.000000e+000
5.515648e+002;0.000000e+000
5.534933e+002;0.000000e+000
5.554218e+002;0.000000e+000
5.573504e+002;0.000000e+000
5.592789e+002;0.000000e+000
5.612075e+002;0.000000e+000
5.631360e+002;0.000000e+000
5.650646e+002;0.000000e+000
5.669931e+002;0.000000e+000
5.689217e+002;0.000000e+000
5.708502e+002;0.000000e+000
5.727787e+002;0.000000e+000
5.747073e+002;0.000000e+000
5.766359e+002;0.000000e+000
5.785644e+002;0.000000e+000
5.804930e+002;0.000000e+000
5.824215e+002;0.000000e+000
5.843500e+002;0.000000e+000
5.862786e+002;0.000000e+000
5.882072e+002;0.000000e+000
5.901357e+002;0.000000e+000
5.920643e+002;0.000000e+000
5.939928e+002;0.000000e+000
5.959213e+002;0.000000e+000
5.978499e+002;0.000000e+000
5.997784e+002;3.794443e-002
6.017070e+002;3.198178e-002
6.036355e+002;2.610485e-002
6.055641e+002;2.620353e-002
6.074926e+002;2.932906e-002
6.094211e+002;3.312346e-002
6.113497e+002;3.671845e-002
6.132783e+002;3.654249e-002
6.152068e+002;3.377241e-002
6.171354e+002;3.157638e-002
6.190639e+002;3.154256e-002
6.209924e+002;3.338559e-002
6.229210e+002;3.436815e-002
6.248495e+002;3.091511e-002
6.267781e+002;2.803519e-002
6.287067e+002;2.880767e-002
6.306352e+002;2.965063e-002
6.325637e+002;3.153251e-002
6.344923e+002;3.566609e-002
6.364208e+002;3.882453e-002
6.383494e+002;3.873378e-002
6.402780e+002;3.567670e-002
6.422065e+002;3.324771e-002
6.441350e+002;3.173536e-002
6.460636e+002;3.162427e-002
6.479921e+002;3.374097e-002
6.499207e+002;3.570502e-002
6.518492e+002;3.580024e-002
6.537778e+002;3.291388e-002
6.557063e+002;3.062044e-002
6.576349e+002;3.042710e-002
6.595634e+002;3.031506e-002
6.614919e+002;3.192447e-002
6.634205e+002;3.393733e-002
6.653491e+002;3.527323e-002
6.672776e+002;3.520606e-002
6.692062e+002;3.404719e-002
6.711347e+002;3.214645e-002
6.730632e+002;3.145781e-002
6.749918e+002;3.161515e-002
6.769203e+002;3.162381e-002
6.788489e+002;3.202968e-002
6.807775e+002;3.233006e-002
6.827060e+002;3.228630e-002
6.846345e+002;3.292106e-002
6.865631e+002;3.276104e-002
6.884916e+002;3.249289e-002
6.904202e+002;3.222809e-002
6.923488e+002;3.192600e-002
6.942773e+002;3.308827e-002
6.962058e+002;3.427298e-002
6.981344e+002;3.406436e-002
7.000629e+002;3.360806e-002
7.019915e+002;3.332923e-002
7.039200e+002;3.513482e-002
7.058486e+002;3.732849e-002
7.077771e+002;4.087596e-002
7.097057e+002;4.786047e-002
7.116342e+002;5.513360e-002
7.135627e+002;5.872561e-002
7.154913e+002;5.718457e-002
7.174199e+002;5.221437e-002
7.193484e+002;4.726272e-002
7.212770e+002;4.243642e-002
7.232055e+002;3.899714e-002
7.251340e+002;3.724109e-002
7.270626e+002;3.630204e-002
7.289911e+002;3.546758e-002
7.309197e+002;3.525091e-002
7.328483e+002;3.479728e-002
7.347768e+002;3.419271e-002
7.367053e+002;3.410120e-002
7.386339e+002;3.408417e-002
7.405624e+002;3.397370e-002
7.424910e+002;3.466451e-002
7.444196e+002;3.442177e-002
7.463481e+002;3.408898e-002
7.482766e+002;3.395969e-002
7.502052e+002;3.361801e-002
7.521337e+002;3.322971e-002
7.540623e+002;3.342037e-002
7.559908e+002;3.279873e-002
7.579194e+002;3.239114e-002
7.598479e+002;3.308820e-002
7.617765e+002;3.341017e-002
7.637050e+002;3.375616e-002
7.656335e+002;3.446754e-002
7.675621e+002;3.510626e-002
7.694907e+002;3.526751e-002
7.714192e+002;3.475331e-002
7.733478e+002;3.482772e-002
7.752763e+002;3.560818e-002
7.772048e+002;3.607069e-002
7.791334e+002;3.637492e-002
7.810620e+002;3.644785e-002
7.829905e+002;3.724412e-002
7.849191e+002;3.813814e-002
7.868476e+002;3.886142e-002
7.887761e+002;3.993586e-002
7.907047e+002;4.086992e-002
7.926332e+002;4.186685e-002
7.945618e+002;4.262736e-002
7.964903e+002;4.299899e-002
7.984189e+002;4.389930e-002
8.003474e+002;4.548900e-002
8.022759e+002;4.804967e-002
8.042045e+002;5.223832e-002
8.061331e+002;5.671614e-002
8.080616e+002;6.054031e-002
8.099902e+002;6.211970e-002
8.119187e+002;6.068478e-002
8.138472e+002;5.670334e-002
8.157758e+002;5.222943e-002
8.177043e+002;4.981227e-002
8.196329e+002;4.846235e-002
8.215615e+002;4.752921e-002
8.234900e+002;4.717998e-002
8.254185e+002;4.766016e-002
8.273471e+002;4.849228e-002
8.292756e+002;4.923053e-002
8.312042e+002;5.033949e-002
8.331328e+002;5.250219e-002
8.350613e+002;5.554444e-002
8.369898e+002;6.001339e-002
8.389184e+002;6.549250e-002
8.408469e+002;6.829613e-002
8.427755e+002;6.630158e-002
8.447040e+002;6.144980e-002
8.466326e+002;5.848458e-002
8.485611e+002;5.554835e-002
8.504897e+002;5.229214e-002
8.524182e+002;5.115176e-002
8.543467e+002;5.058077e-002
8.562753e+002;5.020658e-002
8.582039e+002;5.031423e-002
8.601324e+002;5.085786e-002
8.620610e+002;5.204711e-002
8.639895e+002;5.460555e-002
8.659180e+002;5.845994e-002
8.678466e+002;6.570155e-002
8.697751e+002;7.788462e-002
8.717037e+002;9.168927e-002
8.736323e+002;1.022855e-001
8.755608e+002;1.054921e-001
8.774893e+002;1.003964e-001
8.794179e+002;9.061479e-002
8.813464e+002;8.103330e-002
8.832750e+002;7.182147e-002
8.852036e+002;6.122687e-002
8.871321e+002;5.222285e-002
8.890606e+002;4.820392e-002
8.909892e+002;4.826405e-002
8.929177e+002;5.102448e-002
8.948463e+002;5.552132e-002
8.967748e+002;6.009637e-002
8.987034e+002;6.286899e-002
9.006319e+002;6.220703e-002
9.025605e+002;5.765797e-002
9.044890e+002;5.183545e-002
9.064175e+002;4.727747e-002
9.083461e+002;4.405912e-002
9.102747e+002;4.191870e-002
9.122032e+002;4.093308e-002
9.141318e+002;4.043537e-002
9.160603e+002;3.986674e-002
9.179888e+002;3.938363e-002
9.199174e+002;3.894125e-002
9.218459e+002;3.905826e-002
9.237745e+002;3.930752e-002
9.257031e+002;3.905275e-002
9.276316e+002;3.888305e-002
9.295601e+002;3.925616e-002
9.314887e+002;3.966892e-002
9.334172e+002;4.081288e-002
9.353458e+002;4.260777e-002
9.372744e+002;4.409873e-002
9.392029e+002;4.553135e-002
9.411314e+002;4.644870e-002
9.430600e+002;4.594607e-002
9.449885e+002;4.484906e-002
9.469171e+002;4.410306e-002
9.488456e+002;4.438049e-002
9.507742e+002;4.539585e-002
9.527027e+002;4.602408e-002
9.546313e+002;4.677534e-002
9.565598e+002;4.738846e-002
9.584883e+002;4.849995e-002
9.604169e+002;5.064611e-002
9.623455e+002;5.316741e-002
9.642740e+002;5.613595e-002
9.662026e+002;6.050013e-002
9.681311e+002;6.664579e-002
9.700596e+002;7.281615e-002
9.719882e+002;7.698195e-002
9.739167e+002;7.644293e-002
9.758453e+002;7.137792e-002
9.777739e+002;6.437422e-002
9.797024e+002;5.735525e-002
9.816309e+002;5.144324e-002
9.835595e+002;4.777669e-002
9.854880e+002;4.598500e-002
9.874166e+002;4.597726e-002
9.893452e+002;4.800559e-002
9.912737e+002;5.163056e-002
9.932022e+002;5.628778e-002
9.951307e+002;6.140048e-002
9.970593e+002;6.487007e-002
9.989879e+002;6.438748e-002
1.000916e+003;6.022588e-002
1.002845e+003;5.481857e-002
1.004773e+003;5.021138e-002
1.006702e+003;4.662142e-002
1.008631e+003;4.383746e-002
1.010559e+003;4.158759e-002
1.012488e+003;4.011161e-002
1.014416e+003;3.924974e-002
1.016345e+003;3.839868e-002
1.018273e+003;3.755755e-002
1.020202e+003;3.694534e-002
1.022130e+003;3.655694e-002
1.024059e+003;3.661764e-002
1.025988e+003;3.618984e-002
1.027916e+003;3.549261e-002
1.029845e+003;3.559161e-002
1.031773e+003;3.627722e-002
1.033702e+003;3.682353e-002
1.035630e+003;3.752555e-002
1.037559e+003;3.816484e-002
1.039487e+003;3.847807e-002
1.041416e+003;3.908142e-002
1.043344e+003;3.974019e-002
1.045273e+003;4.004449e-002
1.047202e+003;4.007119e-002
1.049130e+003;3.963465e-002
1.051059e+003;3.841555e-002
1.052987e+003;3.738360e-002
1.054916e+003;3.633280e-002
1.056844e+003;3.535697e-002
1.058773e+003;3.531934e-002
1.060701e+003;3.524667e-002
1.062630e+003;3.475995e-002
1.064558e+003;3.432089e-002
1.066487e+003;3.399505e-002
1.068416e+003;3.425685e-002
1.070344e+003;3.476960e-002
1.072273e+003;3.472294e-002
1.074201e+003;3.436625e-002
1.076130e+003;3.435560e-002
1.078058e+003;3.450427e-002
1.079987e+003;3.471347e-002
1.081915e+003;3.508330e-002
1.083844e+003;3.574678e-002
1.085773e+003;3.601093e-002
1.087701e+003;3.608401e-002
1.089630e+003;3.610364e-002
1.091558e+003;3.659901e-002
1.093487e+003;3.806265e-002
1.095415e+003;4.007712e-002
1.097344e+003;4.232723e-002
1.099272e+003;4.452272e-002
1.101201e+003;4.584170e-002
1.103129e+003;4.575149e-002
1.105058e+003;4.428307e-002
1.106987e+003;4.218334e-002
1.108915e+003;3.923625e-002
1.110844e+003;3.683716e-002
1.112772e+003;3.563969e-002
1.114701e+003;3.518156e-002
1.116629e+003;3.491465e-002
1.118558e+003;3.470270e-002
1.120486e+003;3.496503e-002
1.122415e+003;3.494923e-002
1.124344e+003;3.427811e-002
1.126272e+003;3.413492e-002
1.128201e+003;3.471835e-002
1.130129e+003;3.525691e-002
1.132058e+003;3.582835e-002
1.133986e+003;3.697821e-002
1.135915e+003;3.896542e-002
1.137843e+003;4.114005e-002
1.139772e+003;4.317821e-002
1.141700e+003;4.592647e-002
1.143629e+003;4.945519e-002
1.145557e+003;5.269974e-002
1.147486e+003;5.621777e-002
1.149415e+003;6.010387e-002
1.151343e+003;6.311151e-002
1.153272e+003;6.459655e-002
1.155200e+003;6.520440e-002
1.157129e+003;6.506124e-002
1.159057e+003;6.486195e-002
1.160986e+003;6.537535e-002
1.162914e+003;6.604829e-002
1.164843e+003;6.581613e-002
1.166771e+003;6.449698e-002
1.168700e+003;6.157937e-002
1.170629e+003;5.753464e-002
1.172557e+003;5.320408e-002
1.174486e+003;4.894276e-002
1.176414e+003;4.498266e-002
1.178343e+003;4.204439e-002
1.180271e+003;4.014536e-002
1.182200e+003;3.833791e-002
1.184128e+003;3.695649e-002
1.186057e+003;3.605445e-002
1.187986e+003;3.548801e-002
1.189914e+003;3.571080e-002
1.191843e+003;3.641189e-002
1.193771e+003;3.670943e-002
1.195700e+003;3.675393e-002
1.197628e+003;3.662363e-002
1.199557e+003;3.672869e-002
1.201485e+003;3.706120e-002
1.203414e+003;3.729145e-002
1.205343e+003;3.755318e-002
1.207271e+003;3.796453e-002
1.209200e+003;3.890012e-002
1.211128e+003;3.999973e-002
1.213057e+003;4.173394e-002
1.214985e+003;4.369956e-002
1.216914e+003;4.490891e-002
1.218842e+003;4.518336e-002
1.220771e+003;4.435495e-002
1.222699e+003;4.286490e-002
1.224628e+003;4.142244e-002
1.226557e+003;4.005884e-002
1.228485e+003;3.925297e-002
1.230414e+003;3.873725e-002
1.232342e+003;3.857518e-002
1.234271e+003;3.866441e-002
1.236199e+003;3.887569e-002
1.238128e+003;3.930259e-002
1.240056e+003;3.970489e-002
1.241985e+003;3.976346e-002
1.243913e+003;3.998036e-002
1.245842e+003;4.050578e-002
1.247771e+003;4.135633e-002
1.249699e+003;4.312514e-002
1.251628e+003;4.594908e-002
1.253556e+003;4.905830e-002
1.255485e+003;5.077778e-002
1.257413e+003;4.991749e-002
1.259342e+003;4.748777e-002
1.261270e+003;4.507811e-002
1.263199e+003;4.312401e-002
1.265127e+003;4.207987e-002
1.267056e+003;4.173537e-002
1.268985e+003;4.123433e-002
1.270913e+003;4.092631e-002
1.272842e+003;4.114402e-002
1.274770e+003;4.136682e-002
1.276699e+003;4.143757e-002
1.278627e+003;4.164514e-002
1.280556e+003;4.251582e-002
1.282484e+003;4.381701e-002
1.284413e+003;4.484406e-002
1.286342e+003;4.601727e-002
1.288270e+003;4.790128e-002
1.290199e+003;4.995893e-002
1.292127e+003;5.179375e-002
1.294056e+003;5.311020e-002
1.295984e+003;5.374118e-002
1.297913e+003;5.371932e-002
1.299841e+003;5.369820e-002
1.301770e+003;5.462810e-002
1.303698e+003;5.587932e-002
1.305627e+003;5.543424e-002
1.307556e+003;5.270864e-002
1.309484e+003;4.980164e-002
1.311413e+003;4.822499e-002
1.313341e+003;4.784756e-002
1.315270e+003;4.821773e-002
1.317198e+003;4.921914e-002
1.319127e+003;5.066312e-002
1.321055e+003;5.241549e-002
1.322984e+003;5.486951e-002
1.324912e+003;5.763716e-002
1.326841e+003;5.991536e-002
1.328770e+003;6.112532e-002
1.330698e+003;6.114672e-002
1.332627e+003;6.026566e-002
1.334555e+003;5.901781e-002
1.336484e+003;5.834721e-002
1.338412e+003;5.848758e-002
1.340341e+003;5.914203e-002
1.342269e+003;6.076095e-002
1.344198e+003;6.286616e-002
1.346126e+003;6.521142e-002
1.348055e+003;6.803598e-002
1.349984e+003;7.143338e-002
1.351912e+003;7.604440e-002
1.353841e+003;8.223873e-002
1.355769e+003;8.906699e-002
1.357698e+003;9.440713e-002
1.359626e+003;9.586209e-002
1.361555e+003;9.425969e-002
1.363483e+003;9.369654e-002
1.365412e+003;9.672301e-002
1.367341e+003;1.043925e-001
1.369269e+003;1.196181e-001
1.371198e+003;1.430133e-001
1.373126e+003;1.706675e-001
1.375055e+003;1.931449e-001
1.376983e+003;1.965241e-001
1.378912e+003;1.766390e-001
1.380840e+003;1.468024e-001
1.382769e+003;1.195161e-001
1.384698e+003;9.917145e-002
1.386626e+003;8.605565e-002
1.388555e+003;7.990751e-002
1.390483e+003;7.801669e-002
1.392412e+003;7.719412e-002
1.394340e+003;7.719424e-002
1.396269e+003;7.888277e-002
1.398197e+003;8.077814e-002
1.400126e+003;8.289430e-002
1.402054e+003;8.507133e-002
1.403983e+003;8.648967e-002
1.405911e+003;8.808394e-002
1.407840e+003;8.987366e-002
1.409769e+003;9.191687e-002
1.411697e+003;9.417897e-002
1.413626e+003;9.620305e-002
1.415554e+003;9.783295e-002
1.417483e+003;9.811109e-002
1.419411e+003;9.895896e-002
1.421340e+003;1.022133e-001
1.423268e+003;1.045748e-001
1.425197e+003;1.066632e-001
1.427125e+003;1.094145e-001
1.429054e+003;1.129847e-001
1.430983e+003;1.184331e-001
1.432911e+003;1.248636e-001
1.434840e+003;1.279302e-001
1.436768e+003;1.275517e-001
1.438697e+003;1.289879e-001
1.440625e+003;1.316114e-001
1.442554e+003;1.355870e-001
1.444482e+003;1.419517e-001
1.446411e+003;1.497965e-001
1.448340e+003;1.579168e-001
1.450268e+003;1.645644e-001
1.452197e+003;1.680546e-001
1.454125e+003;1.680120e-001
1.456054e+003;1.639725e-001
1.457982e+003;1.619906e-001
1.459911e+003;1.615527e-001
1.461839e+003;1.571363e-001
1.463768e+003;1.486522e-001
1.465697e+003;1.392436e-001
1.467625e+003;1.303517e-001
1.469554e+003;1.199977e-001
1.471482e+003;1.085743e-001
1.473411e+003;1.000484e-001
1.475339e+003;9.489163e-002
1.477268e+003;9.062365e-002
1.479196e+003;8.747272e-002
1.481125e+003;8.446281e-002
1.483053e+003;8.191251e-002
1.484982e+003;7.915635e-002
1.486911e+003;7.618843e-002
1.488839e+003;7.373580e-002
1.490768e+003;7.261030e-002
1.492696e+003;7.218295e-002
1.494625e+003;6.978074e-002
1.496553e+003;6.727321e-002
1.498482e+003;6.696866e-002
1.500410e+003;6.696526e-002
1.502339e+003;6.581061e-002
1.504267e+003;6.179962e-002
1.506196e+003;5.753097e-002
1.508125e+003;5.832428e-002
1.510053e+003;5.983207e-002
1.511982e+003;5.915547e-002
1.513910e+003;5.805042e-002
1.515839e+003;5.614884e-002
1.517767e+003;5.455532e-002
1.519696e+003;5.206579e-002
1.521624e+003;5.024884e-002
1.523553e+003;5.094992e-002
1.525481e+003;5.094638e-002
1.527410e+003;5.084728e-002
1.529339e+003;5.081443e-002
1.531267e+003;4.968535e-002
1.533196e+003;4.797243e-002
1.535124e+003;4.787697e-002
1.537053e+003;4.587366e-002
1.538981e+003;4.110912e-002
1.540910e+003;4.021017e-002
1.542838e+003;4.206615e-002
1.544767e+003;4.298684e-002
1.546695e+003;4.334120e-002
1.548624e+003;4.273176e-002
1.550553e+003;4.191049e-002
1.552481e+003;4.030846e-002
1.554410e+003;3.826361e-002
1.556338e+003;3.606641e-002
1.558267e+003;3.206849e-002
1.560195e+003;3.294058e-002
1.562124e+003;3.706239e-002
1.564052e+003;3.802894e-002
1.565981e+003;3.762920e-002
1.567910e+003;3.658073e-002
1.569838e+003;3.565944e-002
1.571767e+003;3.653928e-002
1.573695e+003;3.585793e-002
1.575624e+003;3.354993e-002
1.577552e+003;3.468091e-002
1.579481e+003;3.668690e-002
1.581409e+003;3.667951e-002
1.583338e+003;3.636901e-002
1.585266e+003;3.614544e-002
1.587195e+003;3.599963e-002
1.589124e+003;3.561253e-002
1.591052e+003;3.522816e-002
1.592981e+003;3.472219e-002
1.594909e+003;3.447396e-002
1.596838e+003;3.442761e-002
1.598766e+003;3.434420e-002
1.600695e+003;3.416041e-002
1.602623e+003;3.390616e-002
1.604552e+003;3.366549e-002
1.606480e+003;3.347050e-002
1.608409e+003;3.334387e-002
1.610338e+003;3.355905e-002
1.612266e+003;3.359940e-002
1.614195e+003;3.217917e-002
1.616123e+003;2.970481e-002
1.618052e+003;3.063231e-002
1.619980e+003;3.239139e-002
1.621909e+003;3.173048e-002
1.623837e+003;3.125954e-002
1.625766e+003;3.187316e-002
1.627694e+003;3.197529e-002
1.629623e+003;3.238882e-002
1.631552e+003;3.251071e-002
1.633480e+003;3.043559e-002
1.635409e+003;2.851287e-002
1.637337e+003;3.042230e-002
1.639266e+003;3.246636e-002
1.641194e+003;3.269351e-002
1.643123e+003;3.180342e-002
1.645051e+003;2.954287e-002
1.646980e+003;2.880513e-002
1.648909e+003;3.032103e-002
1.650837e+003;2.768699e-002
1.652766e+003;2.335267e-002
1.654694e+003;2.679059e-002
1.656623e+003;3.092418e-002
1.658551e+003;3.155845e-002
1.660480e+003;3.070819e-002
1.662408e+003;2.963839e-002
1.664337e+003;3.022916e-002
1.666266e+003;3.036360e-002
1.668194e+003;2.870398e-002
1.670123e+003;2.811458e-002
1.672051e+003;2.884535e-002
1.673980e+003;2.802582e-002
1.675908e+003;2.790536e-002
1.677837e+003;2.930638e-002
1.679765e+003;2.940670e-002
1.681694e+003;2.767689e-002
1.683622e+003;2.407374e-002
1.685551e+003;2.498634e-002
1.687479e+003;2.813989e-002
1.689408e+003;2.888781e-002
1.691337e+003;2.914034e-002
1.693265e+003;2.777708e-002
1.695194e+003;2.467792e-002
1.697122e+003;2.471253e-002
1.699051e+003;2.366609e-002
1.700979e+003;2.376901e-002
1.702908e+003;2.653280e-002
1.704836e+003;2.641095e-002
1.706765e+003;2.652526e-002
1.708693e+003;2.710425e-002
1.710622e+003;2.724302e-002
1.712551e+003;2.644503e-002
1.714479e+003;2.472607e-002
1.716408e+003;2.225442e-002
1.718336e+003;2.243791e-002
1.720265e+003;2.511344e-002
1.722193e+003;2.599350e-002
1.724122e+003;2.580816e-002
1.726050e+003;2.593406e-002
1.727979e+003;2.549385e-002
1.729908e+003;2.483713e-002
1.731836e+003;2.282673e-002
1.733765e+003;2.073988e-002
1.735693e+003;2.306975e-002
1.737622e+003;2.480875e-002
1.739550e+003;2.422552e-002
1.741479e+003;2.440960e-002
1.743407e+003;2.430187e-002
1.745336e+003;2.410232e-002
1.747265e+003;2.330459e-002
1.749193e+003;2.177173e-002
1.751122e+003;2.107842e-002
1.753050e+003;2.228675e-002
1.754979e+003;2.257380e-002
1.756907e+003;2.212432e-002
1.758836e+003;2.209015e-002
1.760764e+003;2.134208e-002
1.762693e+003;2.122397e-002
1.764621e+003;2.170498e-002
1.766550e+003;2.105178e-002
1.768479e+003;2.055593e-002
1.770407e+003;1.945399e-002
1.772336e+003;1.832884e-002
1.774264e+003;1.961095e-002
1.776193e+003;2.091007e-002
1.778121e+003;2.101613e-002
1.780050e+003;2.073662e-002
1.781978e+003;2.107105e-002
1.783907e+003;2.122509e-002
1.785835e+003;2.176486e-002
1.787764e+003;2.281402e-002
1.789693e+003;2.325471e-002
1.791621e+003;2.378959e-002
1.793550e+003;2.597982e-002
1.795478e+003;2.812395e-002
1.797407e+003;2.841070e-002
1.799335e+003;2.780110e-002
1.801264e+003;2.714651e-002
1.803192e+003;2.624598e-002
1.805121e+003;2.459642e-002
1.807049e+003;2.313423e-002
1.808978e+003;2.168370e-002
1.810907e+003;2.047941e-002
1.812835e+003;1.990067e-002
1.814764e+003;1.953889e-002
1.816692e+003;1.919466e-002
1.818621e+003;1.921932e-002
1.820549e+003;1.920370e-002
1.822478e+003;1.902195e-002
1.824406e+003;1.847192e-002
1.826335e+003;1.863424e-002
1.828264e+003;1.852482e-002
1.830192e+003;1.833326e-002
1.832121e+003;1.884281e-002
1.834049e+003;1.908513e-002
1.835978e+003;1.903871e-002
1.837906e+003;1.887966e-002
1.839835e+003;1.870096e-002
1.841763e+003;1.794084e-002
1.843692e+003;1.676732e-002
1.845620e+003;1.726745e-002
1.847549e+003;1.798173e-002
1.849478e+003;1.811091e-002
1.851406e+003;1.820450e-002
1.853335e+003;1.790099e-002
1.855263e+003;1.769760e-002
1.857192e+003;1.772483e-002
1.859120e+003;1.751624e-002
1.861049e+003;1.739028e-002
1.862977e+003;1.733134e-002
1.864906e+003;1.702259e-002
1.866834e+003;1.645498e-002
1.868763e+003;1.594217e-002
1.870692e+003;1.629884e-002
1.872620e+003;1.664953e-002
1.874549e+003;1.667855e-002
1.876477e+003;1.671033e-002
1.878406e+003;1.674618e-002
1.880334e+003;1.694303e-002
1.882263e+003;1.694930e-002
1.884191e+003;1.694782e-002
1.886120e+003;1.703096e-002
1.888048e+003;1.700901e-002
1.889977e+003;1.699457e-002
1.891906e+003;1.734762e-002
1.893834e+003;1.764932e-002
1.895763e+003;1.778189e-002
1.897691e+003;1.778127e-002
1.899620e+003;1.765960e-002
1.901548e+003;1.744570e-002
1.903477e+003;1.731537e-002
1.905405e+003;1.711391e-002
1.907334e+003;1.697128e-002
1.909262e+003;1.685363e-002
1.911191e+003;1.686025e-002
1.913120e+003;1.693293e-002
1.915048e+003;1.684220e-002
1.916977e+003;1.626347e-002
1.918905e+003;1.629127e-002
1.920834e+003;1.660322e-002
1.922762e+003;1.628542e-002
1.924691e+003;1.644352e-002
1.926619e+003;1.671870e-002
1.928548e+003;1.655441e-002
1.930477e+003;1.621749e-002
1.932405e+003;1.591103e-002
1.934334e+003;1.581309e-002
1.936262e+003;1.592750e-002
1.938191e+003;1.562046e-002
1.940119e+003;1.526229e-002
1.942048e+003;1.531021e-002
1.943976e+003;1.557883e-002
1.945905e+003;1.563238e-002
1.947833e+003;1.548800e-002
1.949762e+003;1.555201e-002
1.951691e+003;1.570129e-002
1.953619e+003;1.563863e-002
1.955548e+003;1.548446e-002
1.957476e+003;1.540426e-002
1.959405e+003;1.547152e-002
1.961333e+003;1.573629e-002
1.963262e+003;1.596417e-002
1.965190e+003;1.577787e-002
1.967119e+003;1.539338e-002
1.969047e+003;1.544343e-002
1.970976e+003;1.561208e-002
1.972905e+003;1.546215e-002
1.974833e+003;1.529092e-002
1.976762e+003;1.526106e-002
1.978690e+003;1.540745e-002
1.980619e+003;1.554325e-002
1.982547e+003;1.545995e-002
1.984476e+003;1.541556e-002
1.986404e+003;1.540663e-002
1.988333e+003;1.559150e-002
1.990261e+003;1.570146e-002
1.992190e+003;1.558409e-002
1.994119e+003;1.567051e-002
1.996047e+003;1.569204e-002
1.997976e+003;1.576553e-002
1.999904e+003;1.584982e-002
2.001833e+003;1.600360e-002
2.003761e+003;1.604599e-002
2.005690e+003;1.572101e-002
2.007618e+003;1.563403e-002
2.009547e+003;1.582680e-002
2.011476e+003;1.598813e-002
2.013404e+003;1.597094e-002
2.015333e+003;1.590629e-002
2.017261e+003;1.602983e-002
2.019190e+003;1.617384e-002
2.021118e+003;1.623475e-002
2.023047e+003;1.634408e-002
2.024975e+003;1.629677e-002
2.026904e+003;1.617645e-002
2.028833e+003;1.612566e-002
2.030761e+003;1.606882e-002
2.032690e+003;1.608856e-002
2.034618e+003;1.630881e-002
2.036547e+003;1.642696e-002
2.038475e+003;1.635498e-002
2.040404e+003;1.608539e-002
2.042332e+003;1.620256e-002
2.044261e+003;1.649879e-002
2.046189e+003;1.643763e-002
2.048118e+003;1.655228e-002
2.050047e+003;1.673488e-002
2.051975e+003;1.659647e-002
2.053904e+003;1.645938e-002
2.055832e+003;1.628074e-002
2.057761e+003;1.615076e-002
2.059689e+003;1.618880e-002
2.061618e+003;1.621969e-002
2.063546e+003;1.618175e-002
2.065475e+003;1.617233e-002
2.067404e+003;1.620342e-002
2.069332e+003;1.625071e-002
2.071260e+003;1.630245e-002
2.073189e+003;1.638760e-002
2.075118e+003;1.653823e-002
2.077046e+003;1.671787e-002
2.078975e+003;1.683273e-002
2.080903e+003;1.690083e-002
2.082832e+003;1.704798e-002
2.084760e+003;1.702048e-002
2.086689e+003;1.690427e-002
2.088617e+003;1.707858e-002
2.090546e+003;1.723338e-002
2.092475e+003;1.715158e-002
2.094403e+003;1.713835e-002
2.096332e+003;1.713294e-002
2.098260e+003;1.711119e-002
2.100189e+003;1.739438e-002
2.102117e+003;1.756496e-002
2.104046e+003;1.743066e-002
2.105974e+003;1.707834e-002
2.107903e+003;1.703909e-002
2.109832e+003;1.724349e-002
2.111760e+003;1.710702e-002
2.113688e+003;1.688653e-002
2.115617e+003;1.708217e-002
2.117546e+003;1.736921e-002
2.119474e+003;1.771199e-002
2.121403e+003;1.806925e-002
2.123331e+003;1.826176e-002
2.125260e+003;1.837156e-002
2.127188e+003;1.880374e-002
2.129117e+003;1.920370e-002
2.131045e+003;1.947388e-002
2.132974e+003;1.979825e-002
2.134903e+003;1.984663e-002
2.136831e+003;1.961508e-002
2.138760e+003;1.942803e-002
2.140688e+003;1.930241e-002
2.142617e+003;1.946365e-002
2.144545e+003;1.947519e-002
2.146474e+003;1.913240e-002
2.148402e+003;1.894092e-002
2.150331e+003;1.909507e-002
2.152260e+003;1.935226e-002
2.154188e+003;1.943891e-002
2.156117e+003;1.944654e-002
2.158045e+003;1.961068e-002
2.159974e+003;1.959456e-002
2.161902e+003;1.962281e-002
2.163831e+003;1.998927e-002
2.165759e+003;2.007033e-002
2.167688e+003;1.998976e-002
2.169616e+003;2.010684e-002
2.171545e+003;2.026060e-002
2.173474e+003;2.048017e-002
2.175402e+003;2.066882e-002
2.177331e+003;2.071990e-002
2.179259e+003;2.048250e-002
2.181188e+003;2.038511e-002
2.183116e+003;2.042922e-002
2.185045e+003;2.043814e-002
2.186973e+003;2.052057e-002
2.188902e+003;2.031896e-002
2.190831e+003;2.009785e-002
2.192759e+003;2.011419e-002
2.194688e+003;2.004489e-002
2.196616e+003;1.986775e-002
2.198545e+003;1.959352e-002
2.200473e+003;1.951931e-002
2.202402e+003;1.953851e-002
2.204330e+003;1.969305e-002
2.206259e+003;1.971517e-002
2.208188e+003;1.959213e-002
2.210116e+003;1.947381e-002
2.212044e+003;1.944317e-002
2.213973e+003;1.945759e-002
2.215902e+003;1.953106e-002
2.217830e+003;1.965453e-002
2.219759e+003;1.977789e-002
2.221687e+003;1.972886e-002
2.223616e+003;1.970459e-002
2.225544e+003;1.988031e-002
2.227473e+003;2.014806e-002
2.229401e+003;2.017128e-002
2.231330e+003;2.013477e-002
2.233259e+003;1.990175e-002
2.235187e+003;1.958284e-002
2.237116e+003;1.937814e-002
2.239044e+003;1.911796e-002
2.240973e+003;1.898602e-002
2.242901e+003;1.935829e-002
2.244830e+003;1.982305e-002
2.246758e+003;1.997432e-002
2.248687e+003;2.004777e-002
2.250615e+003;2.021585e-002
2.252544e+003;2.046676e-002
2.254473e+003;2.084162e-002
2.256401e+003;2.105498e-002
2.258330e+003;2.089485e-002
2.260258e+003;2.051765e-002
2.262187e+003;2.045568e-002
2.264115e+003;2.043064e-002
2.266044e+003;2.021134e-002
2.267972e+003;2.002633e-002
2.269901e+003;2.004777e-002
2.271830e+003;1.999697e-002
2.273758e+003;1.975813e-002
2.275687e+003;1.959643e-002
2.277615e+003;1.949138e-002
2.279544e+003;1.922295e-002
2.281472e+003;1.910445e-002
2.283401e+003;1.923705e-002
2.285329e+003;1.930598e-002
2.287258e+003;1.940035e-002
2.289187e+003;1.935413e-002
2.291115e+003;1.951345e-002
2.293043e+003;1.957532e-002
2.294972e+003;1.938690e-002
2.296901e+003;1.918299e-002
2.298829e+003;1.916851e-002
2.300758e+003;1.935250e-002
2.302686e+003;1.947363e-002
2.304615e+003;1.956943e-002
2.306543e+003;1.961491e-002
2.308472e+003;1.974017e-002
2.310400e+003;1.950025e-002
2.312329e+003;1.902157e-002
2.314258e+003;1.929299e-002
2.316186e+003;1.970033e-002
2.318115e+003;1.976836e-002
2.320043e+003;1.993227e-002
2.321972e+003;2.002716e-002
2.323900e+003;2.008907e-002
2.325829e+003;2.016375e-002
2.327757e+003;2.003604e-002
2.329686e+003;2.000312e-002
2.331615e+003;2.020790e-002
2.333543e+003;2.026445e-002
2.335472e+003;2.031091e-002
2.337400e+003;2.059397e-002
2.339329e+003;2.084493e-002
2.341257e+003;2.095987e-002
2.343186e+003;2.084527e-002
2.345114e+003;2.086478e-002
2.347043e+003;2.117182e-002
2.348971e+003;2.140678e-002
2.350900e+003;2.150983e-002
2.352829e+003;2.165096e-002
2.354757e+003;2.176518e-002
2.356686e+003;2.182451e-002
2.358614e+003;2.206003e-002
2.360543e+003;2.241548e-002
2.362471e+003;2.247339e-002
2.364400e+003;2.221895e-002
2.366328e+003;2.210922e-002
2.368257e+003;2.213795e-002
2.370186e+003;2.214622e-002
2.372114e+003;2.245284e-002
2.374042e+003;2.281790e-002
2.375971e+003;2.263624e-002
2.377900e+003;2.235296e-002
2.379828e+003;2.253031e-002
2.381757e+003;2.257341e-002
2.383685e+003;2.229268e-002
2.385614e+003;2.232076e-002
2.387542e+003;2.254888e-002
2.389471e+003;2.265327e-002
2.391399e+003;2.255750e-002
2.393328e+003;2.245546e-002
2.395257e+003;2.262367e-002
2.397185e+003;2.279426e-002
2.399114e+003;2.288073e-002
2.401042e+003;2.300281e-002
2.402971e+003;2.306364e-002
2.404899e+003;2.296264e-002
2.406828e+003;2.274352e-002
2.408756e+003;2.266937e-002
2.410685e+003;2.303974e-002
2.412614e+003;2.334669e-002
2.414542e+003;2.329599e-002
2.416471e+003;2.342837e-002
2.418399e+003;2.348244e-002
2.420328e+003;2.322503e-002
2.422256e+003;2.341917e-002
2.424185e+003;2.384073e-002
2.426113e+003;2.399537e-002
2.428042e+003;2.408124e-002
2.429970e+003;2.427815e-002
2.431899e+003;2.432703e-002
2.433828e+003;2.405140e-002
2.435756e+003;2.357573e-002
2.437685e+003;2.315792e-002
2.439613e+003;2.291618e-002
2.441542e+003;2.292840e-002
2.443470e+003;2.301106e-002
2.445399e+003;2.282914e-002
2.447327e+003;2.260706e-002
2.449256e+003;2.252776e-002
2.451185e+003;2.247681e-002
2.453113e+003;2.243512e-002
2.455042e+003;2.239123e-002
2.456970e+003;2.233548e-002
2.458899e+003;2.249109e-002
2.460827e+003;2.252494e-002
2.462756e+003;2.235055e-002
2.464684e+003;2.233440e-002
2.466613e+003;2.240100e-002
2.468542e+003;2.233740e-002
2.470470e+003;2.241795e-002
2.472398e+003;2.266682e-002
2.474327e+003;2.285397e-002
2.476256e+003;2.322076e-002
2.478184e+003;2.367967e-002
2.480113e+003;2.384815e-002
2.482041e+003;2.391746e-002
2.483970e+003;2.416026e-002
2.485898e+003;2.444798e-002
2.487827e+003;2.452395e-002
2.489755e+003;2.481005e-002
2.491684e+003;2.520283e-002
2.493613e+003;2.550400e-002
2.495541e+003;2.584729e-002
2.497470e+003;2.616689e-002
2.499398e+003;2.678720e-002
2.501327e+003;2.712210e-002
2.503255e+003;2.756901e-002
2.505184e+003;2.823457e-002
2.507112e+003;2.884542e-002
2.509041e+003;2.965982e-002
2.510969e+003;3.006234e-002
2.512898e+003;3.026088e-002
2.514827e+003;3.052875e-002
2.516755e+003;3.076296e-002
2.518684e+003;3.123294e-002
2.520612e+003;3.158286e-002
2.522541e+003;3.170981e-002
2.524469e+003;3.201303e-002
2.526398e+003;3.192836e-002
2.528326e+003;3.147997e-002
2.530255e+003;3.125840e-002
2.532184e+003;3.117719e-002
2.534112e+003;3.089938e-002
2.536041e+003;3.032217e-002
2.537969e+003;2.976761e-002
2.539898e+003;2.985481e-002
2.541826e+003;3.006280e-002
2.543755e+003;2.968398e-002
2.545683e+003;2.954766e-002
2.547612e+003;2.990932e-002
2.549541e+003;3.023989e-002
2.551469e+003;3.061201e-002
2.553397e+003;3.110585e-002
2.555326e+003;3.126321e-002
2.557255e+003;3.116255e-002
2.559183e+003;3.131925e-002
2.561112e+003;3.151349e-002
2.563040e+003;3.163072e-002
2.564969e+003;3.202565e-002
2.566897e+003;3.267068e-002
2.568826e+003;3.339060e-002
2.570754e+003;3.390193e-002
2.572683e+003;3.472642e-002
2.574612e+003;3.569480e-002
2.576540e+003;3.642378e-002
2.578469e+003;3.699607e-002
2.580397e+003;3.744554e-002
2.582326e+003;3.742954e-002
2.584254e+003;3.674437e-002
2.586183e+003;3.587362e-002
2.588111e+003;3.499922e-002
2.590040e+003;3.440642e-002
2.591969e+003;3.404167e-002
2.593897e+003;3.361257e-002
2.595826e+003;3.332712e-002
2.597754e+003;3.310400e-002
2.599683e+003;3.288911e-002
2.601611e+003;3.312038e-002
2.603540e+003;3.354749e-002
2.605468e+003;3.370008e-002
2.607397e+003;3.413955e-002
2.609325e+003;3.473489e-002
2.611254e+003;3.536632e-002
2.613183e+003;3.584947e-002
2.615111e+003;3.599185e-002
2.617040e+003;3.584591e-002
2.618968e+003;3.557801e-002
2.620897e+003;3.547247e-002
2.622825e+003;3.553403e-002
2.624754e+003;3.515813e-002
2.626682e+003;3.467086e-002
2.628611e+003;3.435976e-002
2.630540e+003;3.408113e-002
2.632468e+003;3.392171e-002
2.634396e+003;3.383480e-002
2.636325e+003;3.375154e-002
2.638254e+003;3.370724e-002
2.640182e+003;3.399709e-002
2.642111e+003;3.442657e-002
2.644039e+003;3.463810e-002
2.645968e+003;3.512127e-002
2.647896e+003;3.565663e-002
2.649825e+003;3.588258e-002
2.651753e+003;3.616827e-002
2.653682e+003;3.650907e-002
2.655611e+003;3.698102e-002
2.657539e+003;3.735305e-002
2.659468e+003;3.758154e-002
2.661396e+003;3.787280e-002
2.663325e+003;3.792837e-002
2.665253e+003;3.768239e-002
2.667182e+003;3.755184e-002
2.669110e+003;3.755109e-002
2.671039e+003;3.753447e-002
2.672968e+003;3.789598e-002
2.674896e+003;3.849436e-002
2.676825e+003;3.877497e-002
2.678753e+003;3.868357e-002
2.680682e+003;3.858901e-002
2.682610e+003;3.837012e-002
2.684539e+003;3.832184e-002
2.686467e+003;3.866608e-002
2.688396e+003;3.893491e-002
2.690324e+003;3.864257e-002
2.692253e+003;3.840682e-002
2.694182e+003;3.821136e-002
2.696110e+003;3.803646e-002
2.698039e+003;3.814831e-002
2.699967e+003;3.862707e-002
2.701896e+003;3.933110e-002
2.703824e+003;4.009078e-002
2.705753e+003;4.085489e-002
2.707681e+003;4.173839e-002
2.709610e+003;4.271359e-002
2.711539e+003;4.379828e-002
2.713467e+003;4.511263e-002
2.715396e+003;4.665285e-002
2.717324e+003;4.836263e-002
2.719253e+003;4.995276e-002
2.721181e+003;5.106681e-002
2.723110e+003;5.151106e-002
2.725038e+003;5.132841e-002
2.726967e+003;5.027208e-002
2.728896e+003;4.862082e-002
2.730824e+003;4.732121e-002
2.732752e+003;4.625342e-002
2.734681e+003;4.525720e-002
2.736610e+003;4.433756e-002
2.738538e+003;4.353452e-002
2.740467e+003;4.276076e-002
2.742395e+003;4.197271e-002
2.744324e+003;4.102277e-002
2.746252e+003;4.031061e-002
2.748181e+003;4.003679e-002
2.750109e+003;3.999214e-002
2.752038e+003;3.982443e-002
2.753967e+003;3.974291e-002
2.755895e+003;4.029654e-002
2.757824e+003;4.117520e-002
2.759752e+003;4.170969e-002
2.761681e+003;4.200475e-002
2.763609e+003;4.232358e-002
2.765538e+003;4.249974e-002
2.767466e+003;4.289214e-002
2.769395e+003;4.340136e-002
2.771323e+003;4.377802e-002
2.773252e+003;4.426094e-002
2.775181e+003;4.487886e-002
2.777109e+003;4.555557e-002
2.779038e+003;4.649800e-002
2.780966e+003;4.774322e-002
2.782895e+003;4.912445e-002
2.784823e+003;5.045031e-002
2.786752e+003;5.216045e-002
2.788680e+003;5.385358e-002
2.790609e+003;5.534115e-002
2.792538e+003;5.697012e-002
2.794466e+003;5.829639e-002
2.796395e+003;5.945306e-002
2.798323e+003;6.059940e-002
2.800252e+003;6.197305e-002
2.802180e+003;6.359357e-002
2.804109e+003;6.543444e-002
2.806037e+003;6.725305e-002
2.807966e+003;6.881943e-002
2.809895e+003;7.011277e-002
2.811823e+003;7.150111e-002
2.813751e+003;7.304931e-002
2.815680e+003;7.496832e-002
2.817609e+003;7.714742e-002
2.819537e+003;7.921694e-002
2.821466e+003;8.169138e-002
2.823394e+003;8.484689e-002
2.825323e+003;8.858678e-002
2.827251e+003;9.398623e-002
2.829180e+003;1.014125e-001
2.831108e+003;1.106824e-001
2.833037e+003;1.202985e-001
2.834966e+003;1.278192e-001
2.836894e+003;1.312600e-001
2.838823e+003;1.304599e-001
2.840751e+003;1.267570e-001
2.842680e+003;1.212818e-001
2.844608e+003;1.157355e-001
2.846537e+003;1.108951e-001
2.848465e+003;1.070772e-001
2.850394e+003;1.046873e-001
2.852323e+003;1.036303e-001
2.854251e+003;1.032049e-001
2.856180e+003;1.042844e-001
2.858108e+003;1.075353e-001
2.860037e+003;1.129686e-001
2.861965e+003;1.209541e-001
2.863894e+003;1.296126e-001
2.865822e+003;1.361689e-001
2.867751e+003;1.398419e-001
2.869679e+003;1.416158e-001
2.871608e+003;1.429036e-001
2.873536e+003;1.435402e-001
2.875465e+003;1.432868e-001
2.877394e+003;1.417320e-001
2.879322e+003;1.395486e-001
2.881251e+003;1.378001e-001
2.883179e+003;1.369607e-001
2.885108e+003;1.370114e-001
2.887036e+003;1.379886e-001
2.888965e+003;1.399675e-001
2.890893e+003;1.427348e-001
2.892822e+003;1.461210e-001
2.894750e+003;1.498667e-001
2.896679e+003;1.541576e-001
2.898608e+003;1.599338e-001
2.900536e+003;1.664333e-001
2.902465e+003;1.722948e-001
2.904393e+003;1.779614e-001
2.906322e+003;1.835195e-001
2.908250e+003;1.884299e-001
2.910179e+003;1.930497e-001
2.912107e+003;1.971481e-001
2.914036e+003;1.989553e-001
2.915965e+003;1.984138e-001
2.917893e+003;1.966175e-001
2.919822e+003;1.934130e-001
2.921750e+003;1.885389e-001
2.923679e+003;1.823456e-001
2.925607e+003;1.749276e-001
2.927536e+003;1.669496e-001
2.929464e+003;1.587835e-001
2.931393e+003;1.501033e-001
2.933322e+003;1.415945e-001
2.935250e+003;1.342751e-001
2.937178e+003;1.289283e-001
2.939107e+003;1.261603e-001
2.941036e+003;1.268747e-001
2.942964e+003;1.319387e-001
2.944893e+003;1.399585e-001
2.946821e+003;1.486391e-001
2.948750e+003;1.559659e-001
2.950678e+003;1.600656e-001
2.952607e+003;1.603469e-001
2.954535e+003;1.580352e-001
2.956464e+003;1.544384e-001
2.958393e+003;1.497706e-001
2.960321e+003;1.440698e-001
2.962250e+003;1.369279e-001
2.964178e+003;1.288310e-001
2.966107e+003;1.206651e-001
2.968035e+003;1.127711e-001
2.969964e+003;1.054514e-001
2.971892e+003;9.892076e-002
2.973821e+003;9.313650e-002
2.975750e+003;8.753976e-002
2.977678e+003;8.257072e-002
2.979607e+003;7.832130e-002
2.981535e+003;7.472519e-002
2.983464e+003;7.169913e-002
2.985392e+003;6.882673e-002
2.987321e+003;6.610478e-002
2.989249e+003;6.385464e-002
2.991178e+003;6.177131e-002
2.993106e+003;5.981142e-002
2.995035e+003;5.806239e-002
2.996964e+003;5.664267e-002
2.998892e+003;5.519021e-002
3.000821e+003;5.345770e-002
3.002749e+003;5.150852e-002
3.004678e+003;4.960366e-002
3.006606e+003;4.785792e-002
3.008535e+003;4.663783e-002
3.010463e+003;4.577509e-002
3.012392e+003;4.441737e-002
3.014321e+003;4.303781e-002
3.016249e+003;4.177177e-002
3.018177e+003;4.047723e-002
3.020106e+003;3.954754e-002
3.022035e+003;3.844744e-002
3.023963e+003;3.722343e-002
3.025892e+003;3.663985e-002
3.027820e+003;3.611397e-002
3.029749e+003;3.509218e-002
3.031677e+003;3.416099e-002
3.033606e+003;3.371415e-002
3.035534e+003;3.351184e-002
3.037463e+003;3.296535e-002
3.039392e+003;3.217956e-002
3.041320e+003;3.179597e-002
3.043249e+003;3.137705e-002
3.045177e+003;3.069297e-002
3.047106e+003;3.037120e-002
3.049034e+003;3.010953e-002
3.050963e+003;2.972095e-002
3.052891e+003;2.926168e-002
3.054820e+003;2.899214e-002
3.056749e+003;2.898365e-002
3.058677e+003;2.889368e-002
3.060606e+003;2.862601e-002
3.062534e+003;2.839351e-002
3.064463e+003;2.807602e-002
3.066391e+003;2.763126e-002
3.068320e+003;2.739256e-002
3.070248e+003;2.739489e-002
3.072177e+003;2.725537e-002
3.074105e+003;2.711300e-002
3.076034e+003;2.665429e-002
3.077963e+003;2.631983e-002
3.079891e+003;2.641239e-002
3.081820e+003;2.644542e-002
3.083748e+003;2.626108e-002
3.085677e+003;2.601187e-002
3.087605e+003;2.601429e-002
3.089534e+003;2.598886e-002
3.091462e+003;2.600909e-002
3.093391e+003;2.603069e-002
3.095320e+003;2.583928e-002
3.097248e+003;2.589590e-002
3.099177e+003;2.581631e-002
3.101105e+003;2.574793e-002
3.103034e+003;2.593645e-002
3.104962e+003;2.598900e-002
3.106891e+003;2.596487e-002
3.108819e+003;2.598745e-002
3.110748e+003;2.601757e-002
3.112677e+003;2.623077e-002
3.114605e+003;2.631634e-002
3.116533e+003;2.633183e-002
3.118462e+003;2.637056e-002
3.120391e+003;2.674256e-002
3.122319e+003;2.682213e-002
3.124248e+003;2.652223e-002
3.126176e+003;2.643859e-002
3.128105e+003;2.649825e-002
3.130033e+003;2.680106e-002
3.131962e+003;2.736256e-002
3.133890e+003;2.729202e-002
3.135819e+003;2.691981e-002
3.137748e+003;2.690010e-002
3.139676e+003;2.711705e-002
3.141605e+003;2.722302e-002
3.143533e+003;2.756767e-002
3.145462e+003;2.772085e-002
3.147390e+003;2.709829e-002
3.149319e+003;2.705061e-002
3.151247e+003;2.701743e-002
3.153176e+003;2.674368e-002
3.155104e+003;2.691854e-002
3.157033e+003;2.720693e-002
3.158962e+003;2.736051e-002
3.160890e+003;2.730712e-002
3.162819e+003;2.670112e-002
3.164747e+003;2.639084e-002
3.166676e+003;2.669132e-002
3.168604e+003;2.704465e-002
3.170533e+003;2.738359e-002
3.172461e+003;2.722926e-002
3.174390e+003;2.664196e-002
3.176319e+003;2.629550e-002
3.178247e+003;2.653484e-002
3.180176e+003;2.692707e-002
3.182104e+003;2.704762e-002
3.184033e+003;2.695287e-002
3.185961e+003;2.730465e-002
3.187890e+003;2.750914e-002
3.189818e+003;2.739700e-002
3.191747e+003;2.734643e-002
3.193676e+003;2.720502e-002
3.195604e+003;2.702494e-002
3.197532e+003;2.695848e-002
3.199461e+003;2.729950e-002
3.201390e+003;2.777959e-002
3.203318e+003;2.764775e-002
3.205247e+003;2.717292e-002
3.207175e+003;2.663960e-002
3.209104e+003;2.598358e-002
3.211032e+003;2.597211e-002
3.212961e+003;2.615106e-002
3.214889e+003;2.627540e-002
3.216818e+003;2.600656e-002
3.218747e+003;2.527605e-002
3.220675e+003;2.479465e-002
3.222604e+003;2.472067e-002
3.224532e+003;2.467024e-002
3.226461e+003;2.460504e-002
3.228389e+003;2.432819e-002
3.230318e+003;2.384048e-002
3.232246e+003;2.363296e-002
3.234175e+003;2.323516e-002
3.236104e+003;2.277104e-002
3.238032e+003;2.264186e-002
3.239961e+003;2.247448e-002
3.241889e+003;2.217380e-002
3.243818e+003;2.163243e-002
3.245746e+003;2.131020e-002
3.247675e+003;2.148361e-002
3.249603e+003;2.153587e-002
3.251532e+003;2.141747e-002
3.253460e+003;2.149106e-002
3.255389e+003;2.112531e-002
3.257318e+003;2.091720e-002
3.259246e+003;2.123420e-002
3.261175e+003;2.105143e-002
3.263103e+003;2.075396e-002
3.265032e+003;2.056899e-002
3.266960e+003;2.034330e-002
3.268889e+003;2.054037e-002
3.270817e+003;2.076268e-002
3.272746e+003;2.087159e-002
3.274675e+003;2.092652e-002
3.276603e+003;2.061808e-002
3.278531e+003;2.035514e-002
3.280460e+003;2.038612e-002
3.282389e+003;2.063681e-002
3.284317e+003;2.080481e-002
3.286246e+003;2.081993e-002
3.288174e+003;2.093953e-002
3.290103e+003;2.094721e-002
3.292031e+003;2.107779e-002
3.293960e+003;2.086154e-002
3.295888e+003;2.056771e-002
3.297817e+003;2.063973e-002
3.299746e+003;2.074763e-002
3.301674e+003;2.105968e-002
3.303603e+003;2.085775e-002
3.305531e+003;2.050351e-002
3.307460e+003;2.045224e-002
3.309388e+003;2.031716e-002
3.311317e+003;2.033532e-002
3.313245e+003;2.045071e-002
3.315174e+003;2.057796e-002
3.317103e+003;2.081729e-002
3.319031e+003;2.068734e-002
3.320960e+003;2.038487e-002
3.322888e+003;2.069662e-002
3.324817e+003;2.050104e-002
3.326745e+003;2.017017e-002
3.328674e+003;2.093737e-002
3.330602e+003;2.141381e-002
3.332531e+003;2.094297e-002
3.334459e+003;2.083898e-002
3.336388e+003;2.100939e-002
3.338317e+003;2.112928e-002
3.340245e+003;2.095135e-002
3.342174e+003;2.059741e-002
3.344102e+003;2.085459e-002
3.346031e+003;2.131824e-002
3.347959e+003;2.142088e-002
3.349888e+003;2.159879e-002
3.351816e+003;2.128967e-002
3.353745e+003;2.094321e-002
3.355674e+003;2.091863e-002
3.357602e+003;2.105185e-002
3.359531e+003;2.090771e-002
3.361459e+003;2.049993e-002
3.363388e+003;2.075907e-002
3.365316e+003;2.118981e-002
3.367245e+003;2.115505e-002
3.369173e+003;2.105999e-002
3.371102e+003;2.089839e-002
3.373031e+003;2.056083e-002
3.374959e+003;2.071180e-002
3.376887e+003;2.104117e-002
3.378816e+003;2.074437e-002
3.380745e+003;2.001699e-002
3.382673e+003;1.965418e-002
3.384602e+003;1.946067e-002
3.386530e+003;1.956028e-002
3.388459e+003;1.974419e-002
3.390387e+003;1.997054e-002
3.392316e+003;2.037515e-002
3.394244e+003;2.063011e-002
3.396173e+003;2.027980e-002
3.398102e+003;2.027858e-002
3.400030e+003;2.019173e-002
3.401959e+003;1.980748e-002
3.403887e+003;1.949339e-002
3.405816e+003;1.971815e-002
3.407744e+003;2.022727e-002
3.409673e+003;2.024897e-002
3.411601e+003;2.023793e-002
3.413530e+003;2.044290e-002
3.415458e+003;2.050660e-002
3.417387e+003;2.055253e-002
3.419316e+003;2.031782e-002
3.421244e+003;1.988694e-002
3.423173e+003;1.990622e-002
3.425101e+003;2.005822e-002
3.427030e+003;1.969856e-002
3.428958e+003;1.925662e-002
3.430887e+003;1.920643e-002
3.432815e+003;1.926008e-002
3.434744e+003;1.912509e-002
3.436673e+003;1.935271e-002
3.438601e+003;1.959965e-002
3.440530e+003;1.904850e-002
3.442458e+003;1.897155e-002
3.444387e+003;1.904290e-002
3.446315e+003;1.849895e-002
3.448244e+003;1.815281e-002
3.450172e+003;1.812590e-002
3.452101e+003;1.813246e-002
3.454030e+003;1.799078e-002
3.455958e+003;1.786888e-002
3.457886e+003;1.806424e-002
3.459815e+003;1.788591e-002
3.461744e+003;1.723990e-002
3.463672e+003;1.687585e-002
3.465601e+003;1.699106e-002
3.467529e+003;1.739531e-002
3.469458e+003;1.751776e-002
3.471386e+003;1.724821e-002
3.473315e+003;1.706883e-002
3.475243e+003;1.680714e-002
3.477172e+003;1.687168e-002
3.479101e+003;1.674769e-002
3.481029e+003;1.642879e-002
3.482958e+003;1.640935e-002
3.484886e+003;1.658942e-002
3.486815e+003;1.700932e-002
3.488743e+003;1.720298e-002
3.490672e+003;1.711488e-002
3.492600e+003;1.669859e-002
3.494529e+003;1.668444e-002
3.496458e+003;1.694778e-002
3.498386e+003;1.717071e-002
3.500315e+003;1.681010e-002
3.502243e+003;1.613271e-002
3.504172e+003;1.629223e-002
3.506100e+003;1.663875e-002
3.508029e+003;1.602712e-002
3.509957e+003;1.548141e-002
3.511886e+003;1.601130e-002
3.513814e+003;1.644465e-002
3.515743e+003;1.610372e-002
3.517672e+003;1.602371e-002
3.519600e+003;1.616964e-002
3.521529e+003;1.558172e-002
3.523457e+003;1.527661e-002
3.525386e+003;1.560785e-002
3.527314e+003;1.558261e-002
3.529243e+003;1.568782e-002
3.531171e+003;1.601735e-002
3.533100e+003;1.584945e-002
3.535029e+003;1.535733e-002
3.536957e+003;1.532037e-002
3.538885e+003;1.545984e-002
3.540814e+003;1.533852e-002
3.542743e+003;1.530293e-002
3.544671e+003;1.568071e-002
3.546600e+003;1.581316e-002
3.548528e+003;1.556303e-002
3.550457e+003;1.520653e-002
3.552385e+003;1.516278e-002
3.554314e+003;1.545202e-002
3.556242e+003;1.520193e-002
3.558171e+003;1.498755e-002
3.560100e+003;1.515499e-002
3.562028e+003;1.516189e-002
3.563957e+003;1.453739e-002
3.565885e+003;1.358708e-002
3.567814e+003;1.376284e-002
3.569742e+003;1.450748e-002
3.571671e+003;1.496900e-002
3.573599e+003;1.523079e-002
3.575528e+003;1.528477e-002
3.577457e+003;1.504826e-002
3.579385e+003;1.461678e-002
3.581314e+003;1.461243e-002
3.583242e+003;1.466103e-002
3.585171e+003;1.392471e-002
3.587099e+003;1.326420e-002
3.589028e+003;1.360773e-002
3.590956e+003;1.443380e-002
3.592885e+003;1.447398e-002
3.594813e+003;1.432526e-002
3.596742e+003;1.453472e-002
3.598671e+003;1.447706e-002
3.600599e+003;1.452300e-002
3.602528e+003;1.473091e-002
3.604456e+003;1.474942e-002
3.606385e+003;1.395321e-002
3.608313e+003;1.331603e-002
3.610242e+003;1.402609e-002
3.612170e+003;1.402466e-002
3.614099e+003;1.362606e-002
3.616028e+003;1.360182e-002
3.617956e+003;1.310552e-002
3.619885e+003;1.322608e-002
3.621813e+003;1.415602e-002
3.623742e+003;1.429228e-002
3.625670e+003;1.360920e-002
3.627599e+003;1.156896e-002
3.629527e+003;1.180631e-002
3.631456e+003;1.417334e-002
3.633385e+003;1.478158e-002
3.635313e+003;1.469468e-002
3.637241e+003;1.479049e-002
3.639170e+003;1.474870e-002
3.641099e+003;1.459280e-002
3.643027e+003;1.460781e-002
3.644956e+003;1.411621e-002
3.646884e+003;1.211550e-002
3.648813e+003;1.075553e-002
3.650741e+003;1.173986e-002
3.652670e+003;1.335129e-002
3.654598e+003;1.317829e-002
3.656527e+003;1.325614e-002
3.658456e+003;1.444065e-002
3.660384e+003;1.488707e-002
3.662313e+003;1.503746e-002
3.664241e+003;1.541957e-002
3.666170e+003;1.524798e-002
3.668098e+003;1.349708e-002
3.670027e+003;1.208927e-002
3.671955e+003;1.287862e-002
3.673884e+003;1.176985e-002
3.675813e+003;1.160868e-002
3.677741e+003;1.424445e-002
3.679669e+003;1.534786e-002
3.681598e+003;1.573657e-002
3.683527e+003;1.611906e-002
3.685455e+003;1.519397e-002
3.687384e+003;1.288947e-002
3.689312e+003;1.291757e-002
3.691241e+003;1.481466e-002
3.693169e+003;1.614120e-002
3.695098e+003;1.627623e-002
3.697026e+003;1.600188e-002
3.698955e+003;1.551307e-002
3.700884e+003;1.485776e-002
3.702812e+003;1.510651e-002
3.704741e+003;1.564512e-002
3.706669e+003;1.553628e-002
3.708598e+003;1.457364e-002
3.710526e+003;1.352422e-002
3.712455e+003;1.415215e-002
3.714383e+003;1.570479e-002
3.716312e+003;1.616834e-002
3.718240e+003;1.577185e-002
3.720169e+003;1.509838e-002
3.722098e+003;1.499222e-002
3.724026e+003;1.506816e-002
3.725955e+003;1.486098e-002
3.727883e+003;1.549363e-002
3.729812e+003;1.506082e-002
3.731740e+003;1.354008e-002
3.733669e+003;1.298983e-002
3.735597e+003;1.287196e-002
3.737526e+003;1.452581e-002
3.739455e+003;1.604334e-002
3.741383e+003;1.504679e-002
3.743312e+003;1.129563e-002
3.745240e+003;1.203435e-002
3.747169e+003;1.383713e-002
3.749097e+003;1.146379e-002
3.751026e+003;1.107495e-002
3.752954e+003;1.374454e-002
3.754883e+003;1.608588e-002
3.756812e+003;1.592475e-002
3.758740e+003;1.537227e-002
3.760668e+003;1.570366e-002
3.762597e+003;1.647511e-002
3.764526e+003;1.649215e-002
3.766454e+003;1.683534e-002
3.768383e+003;1.615919e-002
3.770311e+003;1.574461e-002
3.772240e+003;1.673440e-002
3.774168e+003;1.709427e-002
3.776097e+003;1.649975e-002
3.778025e+003;1.628989e-002
3.779954e+003;1.641313e-002
3.781883e+003;1.685546e-002
3.783811e+003;1.706797e-002
3.785740e+003;1.701425e-002
3.787668e+003;1.667635e-002
3.789597e+003;1.701556e-002
3.791525e+003;1.700157e-002
3.793454e+003;1.688209e-002
3.795382e+003;1.626750e-002
3.797311e+003;1.591138e-002
3.799240e+003;1.434242e-002
3.801168e+003;1.299885e-002
3.803097e+003;1.512411e-002
3.805025e+003;1.532895e-002
3.806954e+003;1.472334e-002
3.808882e+003;1.665614e-002
3.810811e+003;1.755343e-002
3.812739e+003;1.670954e-002
3.814668e+003;1.422661e-002
3.816596e+003;1.428345e-002
3.818525e+003;1.535194e-002
3.820454e+003;1.421572e-002
3.822382e+003;1.534505e-002
3.824311e+003;1.703003e-002
3.826239e+003;1.722549e-002
3.828168e+003;1.718350e-002
3.830096e+003;1.664240e-002
3.832025e+003;1.597720e-002
3.833953e+003;1.512816e-002
3.835882e+003;1.368784e-002
3.837811e+003;1.292153e-002
3.839739e+003;1.401730e-002
3.841667e+003;1.514820e-002
3.843596e+003;1.565306e-002
3.845525e+003;1.634129e-002
3.847453e+003;1.693920e-002
3.849382e+003;1.586316e-002
3.851310e+003;1.222734e-002
3.853239e+003;9.342207e-003
3.855167e+003;1.220747e-002
3.857096e+003;1.627279e-002
3.859024e+003;1.738400e-002
3.860953e+003;1.698206e-002
3.862882e+003;1.659517e-002
3.864810e+003;1.614372e-002
3.866739e+003;1.587711e-002
3.868667e+003;1.489890e-002
3.870596e+003;1.512339e-002
3.872524e+003;1.605803e-002
3.874453e+003;1.665999e-002
3.876381e+003;1.763479e-002
3.878310e+003;1.724052e-002
3.880239e+003;1.648767e-002
3.882167e+003;1.681041e-002
3.884096e+003;1.586518e-002
3.886024e+003;1.606380e-002
3.887953e+003;1.788435e-002
3.889881e+003;1.755029e-002
3.891810e+003;1.733917e-002
3.893738e+003;1.819759e-002
3.895667e+003;1.831958e-002
3.897595e+003;1.742263e-002
3.899524e+003;1.617002e-002
3.901453e+003;1.571826e-002
3.903381e+003;1.614193e-002
3.905310e+003;1.686714e-002
3.907238e+003;1.773329e-002
3.909167e+003;1.865499e-002
3.911095e+003;1.875364e-002
3.913024e+003;1.829480e-002
3.914952e+003;1.805861e-002
3.916881e+003;1.826742e-002
3.918810e+003;1.857195e-002
3.920738e+003;1.850767e-002
3.922667e+003;1.871531e-002
3.924595e+003;1.880880e-002
3.926524e+003;1.851735e-002
3.928452e+003;1.851171e-002
3.930381e+003;1.876949e-002
3.932309e+003;1.854816e-002
3.934238e+003;1.893770e-002
3.936167e+003;1.903982e-002
3.938095e+003;1.861310e-002
3.940023e+003;1.839392e-002
3.941952e+003;1.840550e-002
3.943881e+003;1.858506e-002
3.945809e+003;1.906938e-002
3.947738e+003;1.905453e-002
3.949666e+003;1.878426e-002
3.951595e+003;1.896729e-002
3.953523e+003;1.921301e-002
3.955452e+003;1.959962e-002
3.957380e+003;1.958045e-002
3.959309e+003;1.877938e-002
3.961238e+003;1.785887e-002
3.963166e+003;1.788273e-002
3.965095e+003;1.833005e-002
3.967023e+003;1.861978e-002
3.968952e+003;1.844792e-002
3.970880e+003;1.826269e-002
3.972809e+003;1.874925e-002
3.974737e+003;1.908011e-002
3.976666e+003;1.877665e-002
3.978594e+003;1.866775e-002
3.980523e+003;1.931481e-002
3.982452e+003;1.979444e-002
3.984380e+003;2.011110e-002
3.986309e+003;2.046061e-002
3.988237e+003;2.031011e-002
3.990166e+003;2.061284e-002
3.992094e+003;2.131486e-002
3.994023e+003;2.099721e-002
3.995951e+003;2.025536e-002
3.997880e+003;2.037563e-002
3.999809e+003;2.113665e-002
4.001737e+003;0.000000e+000
