3.992094e+002;0.000000e+000
4.011380e+002;0.000000e+000
4.030665e+002;0.000000e+000
4.049951e+002;0.000000e+000
4.069236e+002;0.000000e+000
4.088522e+002;0.000000e+000
4.107807e+002;0.000000e+000
4.127093e+002;0.000000e+000
4.146378e+002;0.000000e+000
4.165664e+002;0.000000e+000
4.184949e+002;0.000000e+000
4.204235e+002;0.000000e+000
4.223520e+002;0.000000e+000
4.242806e+002;0.000000e+000
4.262091e+002;0.000000e+000
4.281377e+002;0.000000e+000
4.300662e+002;0.000000e+000
4.319948e+002;0.000000e+000
4.339233e+002;0.000000e+000
4.358519e+002;0.000000e+000
4.377804e+002;0.000000e+000
4.397090e+002;0.000000e+000
4.416375e+002;0.000000e+000
4.435660e+002;0.000000e+000
4.454946e+002;0.000000e+000
4.474232e+002;0.000000e+000
4.493517e+002;0.000000e+000
4.512802e+002;0.000000e+000
4.532088e+002;0.000000e+000
4.551373e+002;0.000000e+000
4.570659e+002;0.000000e+000
4.589944e+002;0.000000e+000
4.609230e+002;0.000000e+000
4.628515e+002;0.000000e+000
4.647801e+002;0.000000e+000
4.667086e+002;0.000000e+000
4.686372e+002;0.000000e+000
4.705657e+002;0.000000e+000
4.724943e+002;0.000000e+000
4.744228e+002;0.000000e+000
4.763513e+002;0.000000e+000
4.782799e+002;0.000000e+000
4.802085e+002;0.000000e+000
4.821370e+002;0.000000e+000
4.840656e+002;0.000000e+000
4.859941e+002;0.000000e+000
4.879226e+002;0.000000e+000
4.898512e+002;0.000000e+000
4.917798e+002;0.000000e+000
4.937083e+002;0.000000e+000
4.956368e+002;0.000000e+000
4.975654e+002;0.000000e+000
4.994939e+002;0.000000e+000
5.014225e+002;0.000000e+000
5.033510e+002;0.000000e+000
5.052796e+002;0.000000e+000
5.072081e+002;0.000000e+000
5.091367e+002;0.000000e+000
5.110652e+002;0.000000e+000
5.129938e+002;0.000000e+000
5.149223e+002;0.000000e+000
5.168509e+002;0.000000e+000
5.187794e+002;0.000000e+000
5.207079e+002;0.000000e+000
5.226365e+002;0.000000e+000
5.245651e+002;0.000000e+000
5.264936e+002;0.000000e+000
5.284222e+002;0.000000e+000
5.303507e+002;0.000000e+000
5.322792e+002;0.000000e+000
5.342078e+002;0.000000e+000
5.361364e+002;0.000000e+000
5.380649e+002;0.000000e+000
5.399935e+002;0.000000e+000
5.419220e+002;0.000000e+000
5.438505e+002;0.000000e+000
5.457791e+002;0.000000e+000
5.477076e+002;0.000000e+000
5.496362e+002;0.000000e+000
5.515648e+002;0.000000e+000
5.534933e+002;0.000000e+000
5.554218e+002;0.000000e+000
5.573504e+002;0.000000e+000
5.592789e+002;0.000000e+000
5.612075e+002;0.000000e+000
5.631360e+002;0.000000e+000
5.650646e+002;0.000000e+000
5.669931e+002;0.000000e+000
5.689217e+002;0.000000e+000
5.708502e+002;0.000000e+000
5.727787e+002;0.000000e+000
5.747073e+002;0.000000e+000
5.766359e+002;0.000000e+000
5.785644e+002;0.000000e+000
5.804930e+002;0.000000e+000
5.824215e+002;0.000000e+000
5.843500e+002;0.000000e+000
5.862786e+002;0.000000e+000
5.882072e+002;0.000000e+000
5.901357e+002;0.000000e+000
5.920643e+002;0.000000e+000
5.939928e+002;0.000000e+000
5.959213e+002;0.000000e+000
5.978499e+002;0.000000e+000
5.997784e+002;2.063511e-002
6.017070e+002;1.885450e-002
6.036355e+002;1.857247e-002
6.055641e+002;2.186580e-002
6.074926e+002;2.511632e-002
6.094211e+002;2.602147e-002
6.113497e+002;2.760683e-002
6.132783e+002;2.666733e-002
6.152068e+002;2.173971e-002
6.171354e+002;1.896788e-002
6.190639e+002;2.293092e-002
6.209924e+002;2.588608e-002
6.229210e+002;2.499129e-002
6.248495e+002;2.288380e-002
6.267781e+002;2.261568e-002
6.287067e+002;2.415216e-002
6.306352e+002;2.633912e-002
6.325637e+002;2.804912e-002
6.344923e+002;3.066801e-002
6.364208e+002;3.127214e-002
6.383494e+002;3.133646e-002
6.402780e+002;2.932793e-002
6.422065e+002;2.780591e-002
6.441350e+002;2.765619e-002
6.460636e+002;2.717240e-002
6.479921e+002;2.683348e-002
6.499207e+002;2.856411e-002
6.518492e+002;2.903338e-002
6.537778e+002;2.772018e-002
6.557063e+002;2.402478e-002
6.576349e+002;2.245305e-002
6.595634e+002;2.309474e-002
6.614919e+002;2.448745e-002
6.634205e+002;2.431238e-002
6.653491e+002;2.322269e-002
6.672776e+002;2.099196e-002
6.692062e+002;1.914195e-002
6.711347e+002;2.084882e-002
6.730632e+002;2.243927e-002
6.749918e+002;2.206059e-002
6.769203e+002;2.261034e-002
6.788489e+002;2.401260e-002
6.807775e+002;2.355372e-002
6.827060e+002;2.243784e-002
6.846345e+002;2.180601e-002
6.865631e+002;2.124061e-002
6.884916e+002;2.101585e-002
6.904202e+002;2.016011e-002
6.923488e+002;2.085452e-002
6.942773e+002;2.203936e-002
6.962058e+002;2.235809e-002
6.981344e+002;2.200792e-002
7.000629e+002;2.200764e-002
7.019915e+002;2.292159e-002
7.039200e+002;2.403613e-002
7.058486e+002;2.505303e-002
7.077771e+002;2.756502e-002
7.097057e+002;3.220240e-002
7.116342e+002;3.741256e-002
7.135627e+002;4.062579e-002
7.154913e+002;4.118223e-002
7.174199e+002;3.886620e-002
7.193484e+002;3.566422e-002
7.212770e+002;3.206322e-002
7.232055e+002;2.912503e-002
7.251340e+002;2.737378e-002
7.270626e+002;2.571267e-002
7.289911e+002;2.454694e-002
7.309197e+002;2.497054e-002
7.328483e+002;2.496103e-002
7.347768e+002;2.430401e-002
7.367053e+002;2.315736e-002
7.386339e+002;2.299006e-002
7.405624e+002;2.273025e-002
7.424910e+002;2.242067e-002
7.444196e+002;2.199927e-002
7.463481e+002;2.180970e-002
7.482766e+002;2.160858e-002
7.502052e+002;2.132249e-002
7.521337e+002;2.074683e-002
7.540623e+002;2.052348e-002
7.559908e+002;2.032244e-002
7.579194e+002;1.990567e-002
7.598479e+002;2.006550e-002
7.617765e+002;2.066611e-002
7.637050e+002;2.135684e-002
7.656335e+002;2.198474e-002
7.675621e+002;2.199805e-002
7.694907e+002;2.213788e-002
7.714192e+002;2.161537e-002
7.733478e+002;2.156501e-002
7.752763e+002;2.206167e-002
7.772048e+002;2.239744e-002
7.791334e+002;2.266595e-002
7.810620e+002;2.285691e-002
7.829905e+002;2.305515e-002
7.849191e+002;2.263289e-002
7.868476e+002;2.345334e-002
7.887761e+002;2.489868e-002
7.907047e+002;2.506850e-002
7.926332e+002;2.579064e-002
7.945618e+002;2.703200e-002
7.964903e+002;2.804823e-002
7.984189e+002;2.944684e-002
8.003474e+002;3.089290e-002
8.022759e+002;3.253560e-002
8.042045e+002;3.588218e-002
8.061331e+002;4.020708e-002
8.080616e+002;4.447863e-002
8.099902e+002;4.658811e-002
8.119187e+002;4.572001e-002
8.138472e+002;4.287155e-002
8.157758e+002;3.935504e-002
8.177043e+002;3.683244e-002
8.196329e+002;3.549271e-002
8.215615e+002;3.395238e-002
8.234900e+002;3.286989e-002
8.254185e+002;3.278941e-002
8.273471e+002;3.332422e-002
8.292756e+002;3.430421e-002
8.312042e+002;3.513101e-002
8.331328e+002;3.641747e-002
8.350613e+002;3.905822e-002
8.369898e+002;4.354320e-002
8.389184e+002;4.951821e-002
8.408469e+002;5.407009e-002
8.427755e+002;5.291478e-002
8.447040e+002;4.758115e-002
8.466326e+002;4.297367e-002
8.485611e+002;3.951523e-002
8.504897e+002;3.626321e-002
8.524182e+002;3.415719e-002
8.543467e+002;3.296521e-002
8.562753e+002;3.225657e-002
8.582039e+002;3.215355e-002
8.601324e+002;3.245815e-002
8.620610e+002;3.372568e-002
8.639895e+002;3.673045e-002
8.659180e+002;4.111007e-002
8.678466e+002;4.833841e-002
8.697751e+002;6.007525e-002
8.717037e+002;7.403545e-002
8.736323e+002;8.533628e-002
8.755608e+002;8.895628e-002
8.774893e+002;8.389854e-002
8.794179e+002;7.369139e-002
8.813464e+002;6.378214e-002
8.832750e+002;5.529343e-002
8.852036e+002;4.572484e-002
8.871321e+002;3.749162e-002
8.890606e+002;3.375924e-002
8.909892e+002;3.379884e-002
8.929177e+002;3.653420e-002
8.948463e+002;4.088113e-002
8.967748e+002;4.516590e-002
8.987034e+002;4.764799e-002
9.006319e+002;4.730059e-002
9.025605e+002;4.370828e-002
9.044890e+002;3.850667e-002
9.064175e+002;3.403347e-002
9.083461e+002;3.066542e-002
9.102747e+002;2.840005e-002
9.122032e+002;2.689467e-002
9.141318e+002;2.581572e-002
9.160603e+002;2.545755e-002
9.179888e+002;2.539252e-002
9.199174e+002;2.479075e-002
9.218459e+002;2.458064e-002
9.237745e+002;2.463734e-002
9.257031e+002;2.432780e-002
9.276316e+002;2.392373e-002
9.295601e+002;2.427219e-002
9.314887e+002;2.501119e-002
9.334172e+002;2.608818e-002
9.353458e+002;2.758144e-002
9.372744e+002;2.901627e-002
9.392029e+002;3.042710e-002
9.411314e+002;3.127321e-002
9.430600e+002;3.150081e-002
9.449885e+002;3.116779e-002
9.469171e+002;3.056135e-002
9.488456e+002;3.077502e-002
9.507742e+002;3.163710e-002
9.527027e+002;3.211576e-002
9.546313e+002;3.318465e-002
9.565598e+002;3.411579e-002
9.584883e+002;3.489228e-002
9.604169e+002;3.636458e-002
9.623455e+002;3.854038e-002
9.642740e+002;4.145813e-002
9.662026e+002;4.549827e-002
9.681311e+002;5.132755e-002
9.700596e+002;5.772139e-002
9.719882e+002;6.201409e-002
9.739167e+002;6.202238e-002
9.758453e+002;5.755567e-002
9.777739e+002;5.052676e-002
9.797024e+002;4.307984e-002
9.816309e+002;3.662222e-002
9.835595e+002;3.244994e-002
9.854880e+002;3.054080e-002
9.874166e+002;3.031342e-002
9.893452e+002;3.184320e-002
9.912737e+002;3.538982e-002
9.932022e+002;4.034828e-002
9.951307e+002;4.631472e-002
9.970593e+002;5.089984e-002
9.989879e+002;5.066208e-002
1.000916e+003;4.627023e-002
1.002845e+003;4.057246e-002
1.004773e+003;3.566667e-002
1.006702e+003;3.173308e-002
1.008631e+003;2.899958e-002
1.010559e+003;2.740981e-002
1.012488e+003;2.635173e-002
1.014416e+003;2.550150e-002
1.016345e+003;2.499964e-002
1.018273e+003;2.463881e-002
1.020202e+003;2.406278e-002
1.022130e+003;2.344701e-002
1.024059e+003;2.307182e-002
1.025988e+003;2.259983e-002
1.027916e+003;2.205431e-002
1.029845e+003;2.220821e-002
1.031773e+003;2.285984e-002
1.033702e+003;2.322971e-002
1.035630e+003;2.362750e-002
1.037559e+003;2.392807e-002
1.039487e+003;2.419809e-002
1.041416e+003;2.493921e-002
1.043344e+003;2.564756e-002
1.045273e+003;2.582771e-002
1.047202e+003;2.619195e-002
1.049130e+003;2.606650e-002
1.051059e+003;2.482180e-002
1.052987e+003;2.342148e-002
1.054916e+003;2.201865e-002
1.056844e+003;2.123636e-002
1.058773e+003;2.100796e-002
1.060701e+003;2.039765e-002
1.062630e+003;1.979690e-002
1.064558e+003;2.001637e-002
1.066487e+003;2.034684e-002
1.068416e+003;2.034553e-002
1.070344e+003;2.062062e-002
1.072273e+003;2.060856e-002
1.074201e+003;2.020148e-002
1.076130e+003;1.976180e-002
1.078058e+003;1.966774e-002
1.079987e+003;2.018371e-002
1.081915e+003;2.044210e-002
1.083844e+003;2.072066e-002
1.085773e+003;2.140160e-002
1.087701e+003;2.180921e-002
1.089630e+003;2.186193e-002
1.091558e+003;2.207931e-002
1.093487e+003;2.303667e-002
1.095415e+003;2.481770e-002
1.097344e+003;2.671352e-002
1.099272e+003;2.805643e-002
1.101201e+003;2.915302e-002
1.103129e+003;2.970821e-002
1.105058e+003;2.877163e-002
1.106987e+003;2.662142e-002
1.108915e+003;2.374948e-002
1.110844e+003;2.149722e-002
1.112772e+003;2.041706e-002
1.114701e+003;1.967432e-002
1.116629e+003;1.898921e-002
1.118558e+003;1.853395e-002
1.120486e+003;1.879167e-002
1.122415e+003;1.876883e-002
1.124344e+003;1.802791e-002
1.126272e+003;1.768531e-002
1.128201e+003;1.805332e-002
1.130129e+003;1.826463e-002
1.132058e+003;1.881236e-002
1.133986e+003;2.023384e-002
1.135915e+003;2.214147e-002
1.137843e+003;2.419241e-002
1.139772e+003;2.637588e-002
1.141700e+003;2.898031e-002
1.143629e+003;3.233934e-002
1.145557e+003;3.621091e-002
1.147486e+003;4.000296e-002
1.149415e+003;4.401292e-002
1.151343e+003;4.791952e-002
1.153272e+003;5.031587e-002
1.155200e+003;5.122825e-002
1.157129e+003;5.083238e-002
1.159057e+003;5.057146e-002
1.160986e+003;5.121017e-002
1.162914e+003;5.145178e-002
1.164843e+003;5.102541e-002
1.166771e+003;4.980911e-002
1.168700e+003;4.683568e-002
1.170629e+003;4.251198e-002
1.172557e+003;3.786550e-002
1.174486e+003;3.326985e-002
1.176414e+003;2.875836e-002
1.178343e+003;2.487404e-002
1.180271e+003;2.219196e-002
1.182200e+003;2.026119e-002
1.184128e+003;1.888163e-002
1.186057e+003;1.784755e-002
1.187986e+003;1.692301e-002
1.189914e+003;1.704757e-002
1.191843e+003;1.745384e-002
1.193771e+003;1.763742e-002
1.195700e+003;1.772594e-002
1.197628e+003;1.786578e-002
1.199557e+003;1.776943e-002
1.201485e+003;1.745688e-002
1.203414e+003;1.735796e-002
1.205343e+003;1.787910e-002
1.207271e+003;1.860262e-002
1.209200e+003;1.950669e-002
1.211128e+003;2.089022e-002
1.213057e+003;2.273437e-002
1.214985e+003;2.443722e-002
1.216914e+003;2.548664e-002
1.218842e+003;2.547821e-002
1.220771e+003;2.444644e-002
1.222699e+003;2.326558e-002
1.224628e+003;2.230025e-002
1.226557e+003;2.116222e-002
1.228485e+003;2.008941e-002
1.230414e+003;1.953574e-002
1.232342e+003;1.958800e-002
1.234271e+003;1.984632e-002
1.236199e+003;2.002491e-002
1.238128e+003;2.005763e-002
1.240056e+003;2.043762e-002
1.241985e+003;2.072695e-002
1.243913e+003;2.068994e-002
1.245842e+003;2.101116e-002
1.247771e+003;2.214838e-002
1.249699e+003;2.384083e-002
1.251628e+003;2.611559e-002
1.253556e+003;2.901393e-002
1.255485e+003;3.111728e-002
1.257413e+003;3.047547e-002
1.259342e+003;2.811462e-002
1.261270e+003;2.580693e-002
1.263199e+003;2.388389e-002
1.265127e+003;2.294496e-002
1.267056e+003;2.250976e-002
1.268985e+003;2.183904e-002
1.270913e+003;2.134525e-002
1.272842e+003;2.156825e-002
1.274770e+003;2.187395e-002
1.276699e+003;2.214831e-002
1.278627e+003;2.238170e-002
1.280556e+003;2.285230e-002
1.282484e+003;2.385799e-002
1.284413e+003;2.519345e-002
1.286342e+003;2.674583e-002
1.288270e+003;2.856174e-002
1.290199e+003;3.066335e-002
1.292127e+003;3.282782e-002
1.294056e+003;3.441789e-002
1.295984e+003;3.498388e-002
1.297913e+003;3.482399e-002
1.299841e+003;3.505755e-002
1.301770e+003;3.643361e-002
1.303698e+003;3.802778e-002
1.305627e+003;3.789995e-002
1.307556e+003;3.532311e-002
1.309484e+003;3.226025e-002
1.311413e+003;3.071172e-002
1.313341e+003;3.012843e-002
1.315270e+003;3.034373e-002
1.317198e+003;3.121108e-002
1.319127e+003;3.248614e-002
1.321055e+003;3.446922e-002
1.322984e+003;3.729510e-002
1.324912e+003;4.055423e-002
1.326841e+003;4.357708e-002
1.328770e+003;4.514619e-002
1.330698e+003;4.506014e-002
1.332627e+003;4.403041e-002
1.334555e+003;4.287126e-002
1.336484e+003;4.198165e-002
1.338412e+003;4.138730e-002
1.340341e+003;4.212514e-002
1.342269e+003;4.422634e-002
1.344198e+003;4.638289e-002
1.346126e+003;4.916463e-002
1.348055e+003;5.273629e-002
1.349984e+003;5.684536e-002
1.351912e+003;6.233465e-002
1.353841e+003;6.999959e-002
1.355769e+003;7.891075e-002
1.357698e+003;8.584896e-002
1.359626e+003;8.820684e-002
1.361555e+003;8.702942e-002
1.363483e+003;8.671415e-002
1.365412e+003;9.042481e-002
1.367341e+003;9.944873e-002
1.369269e+003;1.161810e-001
1.371198e+003;1.404579e-001
1.373126e+003;1.679064e-001
1.375055e+003;1.897885e-001
1.376983e+003;1.942715e-001
1.378912e+003;1.774329e-001
1.380840e+003;1.499345e-001
1.382769e+003;1.223906e-001
1.384698e+003;1.000332e-001
1.386626e+003;8.430027e-002
1.388555e+003;7.614046e-002
1.390483e+003;7.278606e-002
1.392412e+003;7.036962e-002
1.394340e+003;6.909151e-002
1.396269e+003;7.065406e-002
1.398197e+003;7.300944e-002
1.400126e+003;7.569575e-002
1.402054e+003;7.828579e-002
1.403983e+003;7.977690e-002
1.405911e+003;8.161752e-002
1.407840e+003;8.417714e-002
1.409769e+003;8.655632e-002
1.411697e+003;8.908212e-002
1.413626e+003;9.192657e-002
1.415554e+003;9.401783e-002
1.417483e+003;9.417996e-002
1.419411e+003;9.514990e-002
1.421340e+003;9.911046e-002
1.423268e+003;1.021201e-001
1.425197e+003;1.047579e-001
1.427125e+003;1.079725e-001
1.429054e+003;1.121708e-001
1.430983e+003;1.186588e-001
1.432911e+003;1.255022e-001
1.434840e+003;1.280068e-001
1.436768e+003;1.274531e-001
1.438697e+003;1.294480e-001
1.440625e+003;1.323025e-001
1.442554e+003;1.364832e-001
1.444482e+003;1.429116e-001
1.446411e+003;1.504948e-001
1.448340e+003;1.582251e-001
1.450268e+003;1.643702e-001
1.452197e+003;1.671151e-001
1.454125e+003;1.659759e-001
1.456054e+003;1.605015e-001
1.457982e+003;1.584471e-001
1.459911e+003;1.593550e-001
1.461839e+003;1.557492e-001
1.463768e+003;1.474099e-001
1.465697e+003;1.386443e-001
1.467625e+003;1.306560e-001
1.469554e+003;1.202896e-001
1.471482e+003;1.079044e-001
1.473411e+003;9.849501e-002
1.475339e+003;9.305328e-002
1.477268e+003;8.814628e-002
1.479196e+003;8.364711e-002
1.481125e+003;7.928741e-002
1.483053e+003;7.590086e-002
1.484982e+003;7.235620e-002
1.486911e+003;6.835302e-002
1.488839e+003;6.475933e-002
1.490768e+003;6.286298e-002
1.492696e+003;6.214383e-002
1.494625e+003;5.901497e-002
1.496553e+003;5.558895e-002
1.498482e+003;5.496013e-002
1.500410e+003;5.477411e-002
1.502339e+003;5.331327e-002
1.504267e+003;4.773819e-002
1.506196e+003;4.167278e-002
1.508125e+003;4.285897e-002
1.510053e+003;4.514472e-002
1.511982e+003;4.435223e-002
1.513910e+003;4.322999e-002
1.515839e+003;4.098879e-002
1.517767e+003;3.898496e-002
1.519696e+003;3.568530e-002
1.521624e+003;3.337796e-002
1.523553e+003;3.471207e-002
1.525481e+003;3.486373e-002
1.527410e+003;3.503855e-002
1.529339e+003;3.521415e-002
1.531267e+003;3.397961e-002
1.533196e+003;3.192012e-002
1.535124e+003;3.219919e-002
1.537053e+003;2.973763e-002
1.538981e+003;2.401613e-002
1.540910e+003;2.361687e-002
1.542838e+003;2.647856e-002
1.544767e+003;2.778471e-002
1.546695e+003;2.847863e-002
1.548624e+003;2.785236e-002
1.550553e+003;2.668202e-002
1.552481e+003;2.468482e-002
1.554410e+003;2.215681e-002
1.556338e+003;1.927134e-002
1.558267e+003;1.392963e-002
1.560195e+003;1.523518e-002
1.562124e+003;2.112754e-002
1.564052e+003;2.291604e-002
1.565981e+003;2.253219e-002
1.567910e+003;2.098970e-002
1.569838e+003;2.007269e-002
1.571767e+003;2.150370e-002
1.573695e+003;2.038334e-002
1.575624e+003;1.742332e-002
1.577552e+003;1.928429e-002
1.579481e+003;2.183569e-002
1.581409e+003;2.183601e-002
1.583338e+003;2.140925e-002
1.585266e+003;2.082897e-002
1.587195e+003;2.019076e-002
1.589124e+003;1.950486e-002
1.591052e+003;1.909936e-002
1.592981e+003;1.848222e-002
1.594909e+003;1.814421e-002
1.596838e+003;1.815883e-002
1.598766e+003;1.800718e-002
1.600695e+003;1.769398e-002
1.602623e+003;1.765357e-002
1.604552e+003;1.760215e-002
1.606480e+003;1.728417e-002
1.608409e+003;1.694155e-002
1.610338e+003;1.693359e-002
1.612266e+003;1.702531e-002
1.614195e+003;1.523120e-002
1.616123e+003;1.201916e-002
1.618052e+003;1.331517e-002
1.619980e+003;1.568641e-002
1.621909e+003;1.490322e-002
1.623837e+003;1.437512e-002
1.625766e+003;1.514833e-002
1.627694e+003;1.531292e-002
1.629623e+003;1.586089e-002
1.631552e+003;1.606023e-002
1.633480e+003;1.349356e-002
1.635409e+003;1.100653e-002
1.637337e+003;1.334862e-002
1.639266e+003;1.572437e-002
1.641194e+003;1.609083e-002
1.643123e+003;1.505931e-002
1.645051e+003;1.208562e-002
1.646980e+003;1.143644e-002
1.648909e+003;1.371506e-002
1.650837e+003;1.017959e-002
1.652766e+003;4.499270e-003
1.654694e+003;9.167993e-003
1.656623e+003;1.452842e-002
1.658551e+003;1.544069e-002
1.660480e+003;1.457248e-002
1.662408e+003;1.339031e-002
1.664337e+003;1.413024e-002
1.666266e+003;1.410320e-002
1.668194e+003;1.174677e-002
1.670123e+003;1.117040e-002
1.672051e+003;1.226813e-002
1.673980e+003;1.113671e-002
1.675908e+003;1.094142e-002
1.677837e+003;1.274686e-002
1.679765e+003;1.272697e-002
1.681694e+003;1.055443e-002
1.683622e+003;5.837245e-003
1.685551e+003;7.063220e-003
1.687479e+003;1.142199e-002
1.689408e+003;1.222376e-002
1.691337e+003;1.231503e-002
1.693265e+003;1.051916e-002
1.695194e+003;6.381251e-003
1.697122e+003;6.469054e-003
1.699051e+003;5.202632e-003
1.700979e+003;5.469472e-003
1.702908e+003;9.617802e-003
1.704836e+003;9.928319e-003
1.706765e+003;1.029127e-002
1.708693e+003;1.100497e-002
1.710622e+003;1.118431e-002
1.712551e+003;1.025256e-002
1.714479e+003;7.851850e-003
1.716408e+003;4.515273e-003
1.718336e+003;5.057457e-003
1.720265e+003;8.654794e-003
1.722193e+003;1.001362e-002
1.724122e+003;1.009090e-002
1.726050e+003;1.045830e-002
1.727979e+003;1.058197e-002
1.729908e+003;1.037851e-002
1.731836e+003;7.796793e-003
1.733765e+003;5.196194e-003
1.735693e+003;8.868434e-003
1.737622e+003;1.171221e-002
1.739550e+003;1.109514e-002
1.741479e+003;1.127173e-002
1.743407e+003;1.102080e-002
1.745336e+003;1.031882e-002
1.747265e+003;8.772978e-003
1.749193e+003;6.593002e-003
1.751122e+003;5.306934e-003
1.753050e+003;6.286911e-003
1.754979e+003;6.289466e-003
1.756907e+003;5.457359e-003
1.758836e+003;5.226945e-003
1.760764e+003;4.186320e-003
1.762693e+003;3.896897e-003
1.764621e+003;4.362931e-003
1.766550e+003;3.388349e-003
1.768479e+003;2.779244e-003
1.770407e+003;1.621189e-003
1.772336e+003;6.077208e-005
1.774264e+003;1.625779e-003
1.776193e+003;3.260838e-003
1.778121e+003;3.410290e-003
1.780050e+003;2.927029e-003
1.781978e+003;3.109536e-003
1.783907e+003;3.124821e-003
1.785835e+003;3.424049e-003
1.787764e+003;4.070280e-003
1.789693e+003;3.651236e-003
1.791621e+003;3.012934e-003
1.793550e+003;4.552673e-003
1.795478e+003;6.727519e-003
1.797407e+003;7.091005e-003
1.799335e+003;6.419686e-003
1.801264e+003;6.133308e-003
1.803192e+003;6.241597e-003
1.805121e+003;5.617168e-003
1.807049e+003;4.660200e-003
1.808978e+003;3.494788e-003
1.810907e+003;2.604376e-003
1.812835e+003;2.390095e-003
1.814764e+003;2.225741e-003
1.816692e+003;1.864806e-003
1.818621e+003;1.804646e-003
1.820549e+003;1.662531e-003
1.822478e+003;1.476874e-003
1.824406e+003;1.029601e-003
1.826335e+003;9.963893e-004
1.828264e+003;4.813398e-004
1.830192e+003;2.812334e-004
1.832121e+003;1.299671e-003
1.834049e+003;1.834359e-003
1.835978e+003;1.686646e-003
1.837906e+003;1.528110e-003
1.839835e+003;1.469759e-003
1.841763e+003;4.752364e-004
1.843692e+003;-1.061641e-003
1.845620e+003;-5.100309e-004
1.847549e+003;4.416693e-004
1.849478e+003;6.575455e-004
1.851406e+003;8.786421e-004
1.853335e+003;7.654077e-004
1.855263e+003;6.035250e-004
1.857192e+003;6.536298e-004
1.859120e+003;5.063512e-004
1.861049e+003;4.055180e-004
1.862977e+003;4.538752e-004
1.864906e+003;1.773033e-004
1.866834e+003;-6.681307e-004
1.868763e+003;-1.346070e-003
1.870692e+003;-7.806979e-004
1.872620e+003;-1.183387e-004
1.874549e+003;1.590437e-006
1.876477e+003;5.437636e-005
1.878406e+003;4.191658e-005
1.880334e+003;6.199822e-005
1.882263e+003;-3.147722e-006
1.884191e+003;4.957135e-005
1.886120e+003;2.954573e-004
1.888048e+003;1.460463e-004
1.889977e+003;-1.010471e-004
1.891906e+003;1.377269e-004
1.893834e+003;3.285488e-004
1.895763e+003;4.338086e-004
1.897691e+003;4.156666e-004
1.899620e+003;5.371366e-004
1.901548e+003;6.155363e-004
1.903477e+003;3.401547e-004
1.905405e+003;3.340040e-005
1.907334e+003;-1.124424e-004
1.909262e+003;-1.567289e-004
1.911191e+003;8.841061e-005
1.913120e+003;1.862532e-004
1.915048e+003;4.559483e-005
1.916977e+003;-7.190426e-004
1.918905e+003;-8.284880e-004
1.920834e+003;-4.894783e-004
1.922762e+003;-8.013690e-004
1.924691e+003;-6.636314e-004
1.926619e+003;-3.724326e-004
1.928548e+003;-3.855753e-004
1.930477e+003;-6.444426e-004
1.932405e+003;-8.461475e-004
1.934334e+003;-7.953166e-004
1.936262e+003;-8.166154e-004
1.938191e+003;-1.183590e-003
1.940119e+003;-1.572871e-003
1.942048e+003;-1.673255e-003
1.943976e+003;-1.518724e-003
1.945905e+003;-1.342866e-003
1.947833e+003;-1.134253e-003
1.949762e+003;-9.278547e-004
1.951691e+003;-9.943399e-004
1.953619e+003;-1.365921e-003
1.955548e+003;-1.508191e-003
1.957476e+003;-1.221292e-003
1.959405e+003;-1.042536e-003
1.961333e+003;-9.701406e-004
1.963262e+003;-9.423031e-004
1.965190e+003;-1.010538e-003
1.967119e+003;-1.170736e-003
1.969047e+003;-1.163004e-003
1.970976e+003;-1.121629e-003
1.972905e+003;-1.185342e-003
1.974833e+003;-1.150413e-003
1.976762e+003;-1.043660e-003
1.978690e+003;-1.108773e-003
1.980619e+003;-1.109764e-003
1.982547e+003;-1.226710e-003
1.984476e+003;-1.206522e-003
1.986404e+003;-1.228362e-003
1.988333e+003;-1.311583e-003
1.990261e+003;-1.320304e-003
1.992190e+003;-1.299129e-003
1.994119e+003;-1.019265e-003
1.996047e+003;-9.470640e-004
1.997976e+003;-9.994309e-004
1.999904e+003;-8.728338e-004
2.001833e+003;-7.105081e-004
2.003761e+003;-8.766365e-004
2.005690e+003;-1.230014e-003
2.007618e+003;-1.258990e-003
2.009547e+003;-9.018661e-004
2.011476e+003;-6.582057e-004
2.013404e+003;-7.114013e-004
2.015333e+003;-7.851960e-004
2.017261e+003;-8.258423e-004
2.019190e+003;-7.520214e-004
2.021118e+003;-4.848778e-004
2.023047e+003;-3.837876e-004
2.024975e+003;-4.294036e-004
2.026904e+003;-4.299994e-004
2.028833e+003;-5.999742e-004
2.030761e+003;-6.866899e-004
2.032690e+003;-6.983015e-004
2.034618e+003;-5.848195e-004
2.036547e+003;-5.882608e-004
2.038475e+003;-6.395460e-004
2.040404e+003;-6.141358e-004
2.042332e+003;-4.986460e-004
2.044261e+003;-5.835951e-004
2.046189e+003;-5.692671e-004
2.048118e+003;-3.942817e-004
2.050047e+003;-2.937664e-004
2.051975e+003;-1.901809e-004
2.053904e+003;-1.705074e-004
2.055832e+003;-4.207972e-004
2.057761e+003;-6.470232e-004
2.059689e+003;-6.642269e-004
2.061618e+003;-6.181723e-004
2.063546e+003;-5.874335e-004
2.065475e+003;-4.388705e-004
2.067404e+003;-4.067286e-004
2.069332e+003;-3.759086e-004
2.071260e+003;-4.422798e-004
2.073189e+003;-2.808858e-004
2.075118e+003;-9.836382e-005
2.077046e+003;-7.371698e-005
2.078975e+003;-4.187941e-005
2.080903e+003;-1.253280e-004
2.082832e+003;4.218168e-005
2.084760e+003;1.588405e-004
2.086689e+003;1.872114e-005
2.088617e+003;-4.419856e-005
2.090546e+003;1.877781e-004
2.092475e+003;3.831653e-004
2.094403e+003;3.250008e-004
2.096332e+003;2.335252e-004
2.098260e+003;1.620557e-004
2.100189e+003;1.114109e-004
2.102117e+003;1.950708e-004
2.104046e+003;2.484107e-004
2.105974e+003;5.096314e-005
2.107903e+003;-2.786483e-005
2.109832e+003;-1.537392e-005
2.111760e+003;-3.402733e-005
2.113688e+003;-1.779596e-004
2.115617e+003;-1.481066e-005
2.117546e+003;3.111075e-004
2.119474e+003;4.621343e-004
2.121403e+003;6.469931e-004
2.123331e+003;9.299077e-004
2.125260e+003;1.182672e-003
2.127188e+003;1.382330e-003
2.129117e+003;1.469360e-003
2.131045e+003;1.516572e-003
2.132974e+003;1.596912e-003
2.134903e+003;1.830898e-003
2.136831e+003;1.875787e-003
2.138760e+003;1.645668e-003
2.140688e+003;1.308644e-003
2.142617e+003;1.330113e-003
2.144545e+003;1.370297e-003
2.146474e+003;1.376480e-003
2.148402e+003;1.546864e-003
2.150331e+003;1.688808e-003
2.152260e+003;1.716750e-003
2.154188e+003;1.681557e-003
2.156117e+003;1.635790e-003
2.158045e+003;1.921080e-003
2.159974e+003;2.148848e-003
2.161902e+003;2.175953e-003
2.163831e+003;2.254716e-003
2.165759e+003;2.261278e-003
2.167688e+003;2.251419e-003
2.169616e+003;2.269138e-003
2.171545e+003;2.298050e-003
2.173474e+003;2.545546e-003
2.175402e+003;2.841840e-003
2.177331e+003;2.862052e-003
2.179259e+003;2.728793e-003
2.181188e+003;2.673614e-003
2.183116e+003;2.753401e-003
2.185045e+003;2.767973e-003
2.186973e+003;2.726526e-003
2.188902e+003;2.552712e-003
2.190831e+003;2.302014e-003
2.192759e+003;2.394293e-003
2.194688e+003;2.580310e-003
2.196616e+003;2.416816e-003
2.198545e+003;1.959288e-003
2.200473e+003;1.841879e-003
2.202402e+003;2.180749e-003
2.204330e+003;2.543613e-003
2.206259e+003;2.366807e-003
2.208188e+003;1.910463e-003
2.210116e+003;1.815958e-003
2.212044e+003;1.954262e-003
2.213973e+003;1.923510e-003
2.215902e+003;1.881012e-003
2.217830e+003;1.875820e-003
2.219759e+003;2.062713e-003
2.221687e+003;2.022732e-003
2.223616e+003;1.913792e-003
2.225544e+003;2.122443e-003
2.227473e+003;2.262843e-003
2.229401e+003;2.252152e-003
2.231330e+003;2.326664e-003
2.233259e+003;2.139291e-003
2.235187e+003;2.047400e-003
2.237116e+003;2.152344e-003
2.239044e+003;1.998432e-003
2.240973e+003;1.803681e-003
2.242901e+003;1.874389e-003
2.244830e+003;2.024296e-003
2.246758e+003;2.201596e-003
2.248687e+003;2.351249e-003
2.250615e+003;2.529948e-003
2.252544e+003;2.691151e-003
2.254473e+003;2.930965e-003
2.256401e+003;3.119047e-003
2.258330e+003;3.048302e-003
2.260258e+003;2.932032e-003
2.262187e+003;3.065387e-003
2.264115e+003;2.933067e-003
2.266044e+003;2.605275e-003
2.267972e+003;2.507720e-003
2.269901e+003;2.716623e-003
2.271830e+003;2.665847e-003
2.273758e+003;2.420481e-003
2.275687e+003;2.199564e-003
2.277615e+003;2.057154e-003
2.279544e+003;1.951733e-003
2.281472e+003;1.840048e-003
2.283401e+003;1.854989e-003
2.285329e+003;2.162134e-003
2.287258e+003;2.453702e-003
2.289187e+003;2.178085e-003
2.291115e+003;2.070704e-003
2.293043e+003;2.054324e-003
2.294972e+003;2.056055e-003
2.296901e+003;1.874123e-003
2.298829e+003;1.667287e-003
2.300758e+003;1.781323e-003
2.302686e+003;2.049597e-003
2.304615e+003;2.256548e-003
2.306543e+003;2.251186e-003
2.308472e+003;2.218081e-003
2.310400e+003;1.932662e-003
2.312329e+003;1.620258e-003
2.314258e+003;1.769745e-003
2.316186e+003;1.854423e-003
2.318115e+003;1.949935e-003
2.320043e+003;2.310941e-003
2.321972e+003;2.447937e-003
2.323900e+003;2.275334e-003
2.325829e+003;2.297484e-003
2.327757e+003;2.292721e-003
2.329686e+003;2.226074e-003
2.331615e+003;2.332427e-003
2.333543e+003;2.417083e-003
2.335472e+003;2.338657e-003
2.337400e+003;2.464032e-003
2.339329e+003;2.945243e-003
2.341257e+003;3.289883e-003
2.343186e+003;3.070459e-003
2.345114e+003;3.190070e-003
2.347043e+003;3.500600e-003
2.348971e+003;3.632124e-003
2.350900e+003;3.700123e-003
2.352829e+003;3.609772e-003
2.354757e+003;3.433733e-003
2.356686e+003;3.434936e-003
2.358614e+003;3.546463e-003
2.360543e+003;3.640243e-003
2.362471e+003;3.588623e-003
2.364400e+003;3.570549e-003
2.366328e+003;3.662196e-003
2.368257e+003;3.979417e-003
2.370186e+003;4.143734e-003
2.372114e+003;3.938991e-003
2.374042e+003;3.856813e-003
2.375971e+003;3.985503e-003
2.377900e+003;4.046534e-003
2.379828e+003;4.417957e-003
2.381757e+003;4.593491e-003
2.383685e+003;4.431949e-003
2.385614e+003;4.399179e-003
2.387542e+003;4.473258e-003
2.389471e+003;4.561646e-003
2.391399e+003;4.680296e-003
2.393328e+003;4.719886e-003
2.395257e+003;4.737271e-003
2.397185e+003;4.761356e-003
2.399114e+003;4.863441e-003
2.401042e+003;4.845147e-003
2.402971e+003;4.713020e-003
2.404899e+003;4.722231e-003
2.406828e+003;4.816131e-003
2.408756e+003;4.877815e-003
2.410685e+003;5.035903e-003
2.412614e+003;5.098055e-003
2.414542e+003;5.020853e-003
2.416471e+003;5.076163e-003
2.418399e+003;5.273025e-003
2.420328e+003;5.361643e-003
2.422256e+003;5.462057e-003
2.424185e+003;5.481854e-003
2.426113e+003;5.507893e-003
2.428042e+003;5.797687e-003
2.429970e+003;5.742184e-003
2.431899e+003;5.615456e-003
2.433828e+003;5.598037e-003
2.435756e+003;5.469808e-003
2.437685e+003;5.114616e-003
2.439613e+003;4.856337e-003
2.441542e+003;4.965281e-003
2.443470e+003;5.093562e-003
2.445399e+003;4.992127e-003
2.447327e+003;4.845817e-003
2.449256e+003;4.652631e-003
2.451185e+003;4.451097e-003
2.453113e+003;4.451599e-003
2.455042e+003;4.468839e-003
2.456970e+003;4.422108e-003
2.458899e+003;4.569850e-003
2.460827e+003;4.494683e-003
2.462756e+003;4.379900e-003
2.464684e+003;4.373005e-003
2.466613e+003;4.652598e-003
2.468542e+003;4.860057e-003
2.470470e+003;4.710709e-003
2.472398e+003;4.711044e-003
2.474327e+003;4.836066e-003
2.476256e+003;4.984184e-003
2.478184e+003;5.248173e-003
2.480113e+003;5.484538e-003
2.482041e+003;5.605186e-003
2.483970e+003;5.637811e-003
2.485898e+003;5.701694e-003
2.487827e+003;5.859679e-003
2.489755e+003;6.196322e-003
2.491684e+003;6.440905e-003
2.493613e+003;6.388716e-003
2.495541e+003;6.420425e-003
2.497470e+003;6.585971e-003
2.499398e+003;6.862213e-003
2.501327e+003;7.183128e-003
2.503255e+003;7.432245e-003
2.505184e+003;7.919535e-003
2.507112e+003;8.566177e-003
2.509041e+003;8.950754e-003
2.510969e+003;8.818657e-003
2.512898e+003;9.011303e-003
2.514827e+003;9.472193e-003
2.516755e+003;9.817785e-003
2.518684e+003;1.021877e-002
2.520612e+003;1.065266e-002
2.522541e+003;1.096738e-002
2.524469e+003;1.127016e-002
2.526398e+003;1.112937e-002
2.528326e+003;1.088845e-002
2.530255e+003;1.085900e-002
2.532184e+003;1.089807e-002
2.534112e+003;1.074024e-002
2.536041e+003;1.042728e-002
2.537969e+003;1.029544e-002
2.539898e+003;1.026118e-002
2.541826e+003;1.047805e-002
2.543755e+003;1.069511e-002
2.545683e+003;1.072031e-002
2.547612e+003;1.075454e-002
2.549541e+003;1.078328e-002
2.551469e+003;1.112260e-002
2.553397e+003;1.149336e-002
2.555326e+003;1.169727e-002
2.557255e+003;1.181080e-002
2.559183e+003;1.196517e-002
2.561112e+003;1.205486e-002
2.563040e+003;1.223381e-002
2.564969e+003;1.259675e-002
2.566897e+003;1.301257e-002
2.568826e+003;1.357365e-002
2.570754e+003;1.422257e-002
2.572683e+003;1.507920e-002
2.574612e+003;1.597579e-002
2.576540e+003;1.680169e-002
2.578469e+003;1.751086e-002
2.580397e+003;1.774292e-002
2.582326e+003;1.768866e-002
2.584254e+003;1.735862e-002
2.586183e+003;1.660859e-002
2.588111e+003;1.577168e-002
2.590040e+003;1.514545e-002
2.591969e+003;1.471802e-002
2.593897e+003;1.444407e-002
2.595826e+003;1.420939e-002
2.597754e+003;1.392762e-002
2.599683e+003;1.379249e-002
2.601611e+003;1.393973e-002
2.603540e+003;1.420234e-002
2.605468e+003;1.470126e-002
2.607397e+003;1.513025e-002
2.609325e+003;1.537247e-002
2.611254e+003;1.594881e-002
2.613183e+003;1.639390e-002
2.615111e+003;1.646145e-002
2.617040e+003;1.634621e-002
2.618968e+003;1.630541e-002
2.620897e+003;1.598411e-002
2.622825e+003;1.579065e-002
2.624754e+003;1.584697e-002
2.626682e+003;1.572856e-002
2.628611e+003;1.537704e-002
2.630540e+003;1.504113e-002
2.632468e+003;1.501822e-002
2.634396e+003;1.518896e-002
2.636325e+003;1.511039e-002
2.638254e+003;1.476804e-002
2.640182e+003;1.503790e-002
2.642111e+003;1.560641e-002
2.644039e+003;1.607594e-002
2.645968e+003;1.649913e-002
2.647896e+003;1.689697e-002
2.649825e+003;1.718519e-002
2.651753e+003;1.743728e-002
2.653682e+003;1.783754e-002
2.655611e+003;1.813827e-002
2.657539e+003;1.854688e-002
2.659468e+003;1.901607e-002
2.661396e+003;1.918309e-002
2.663325e+003;1.917180e-002
2.665253e+003;1.908461e-002
2.667182e+003;1.880571e-002
2.669110e+003;1.865423e-002
2.671039e+003;1.885046e-002
2.672968e+003;1.921284e-002
2.674896e+003;1.962083e-002
2.676825e+003;1.999264e-002
2.678753e+003;1.997456e-002
2.680682e+003;1.974159e-002
2.682610e+003;1.947648e-002
2.684539e+003;1.946279e-002
2.686467e+003;1.971877e-002
2.688396e+003;2.007026e-002
2.690324e+003;1.985239e-002
2.692253e+003;1.976305e-002
2.694182e+003;1.980779e-002
2.696110e+003;1.963345e-002
2.698039e+003;1.973202e-002
2.699967e+003;2.021200e-002
2.701896e+003;2.086902e-002
2.703824e+003;2.152327e-002
2.705753e+003;2.205550e-002
2.707681e+003;2.266532e-002
2.709610e+003;2.371053e-002
2.711539e+003;2.523647e-002
2.713467e+003;2.666557e-002
2.715396e+003;2.771549e-002
2.717324e+003;2.939153e-002
2.719253e+003;3.132552e-002
2.721181e+003;3.296164e-002
2.723110e+003;3.377664e-002
2.725038e+003;3.363480e-002
2.726967e+003;3.263203e-002
2.728896e+003;3.104766e-002
2.730824e+003;2.982180e-002
2.732752e+003;2.848924e-002
2.734681e+003;2.711942e-002
2.736610e+003;2.622736e-002
2.738538e+003;2.518717e-002
2.740467e+003;2.430250e-002
2.742395e+003;2.365504e-002
2.744324e+003;2.284898e-002
2.746252e+003;2.223343e-002
2.748181e+003;2.219151e-002
2.750109e+003;2.209137e-002
2.752038e+003;2.178364e-002
2.753967e+003;2.158361e-002
2.755895e+003;2.203964e-002
2.757824e+003;2.268361e-002
2.759752e+003;2.297567e-002
2.761681e+003;2.338361e-002
2.763609e+003;2.392261e-002
2.765538e+003;2.428063e-002
2.767466e+003;2.468114e-002
2.769395e+003;2.506682e-002
2.771323e+003;2.552477e-002
2.773252e+003;2.608082e-002
2.775181e+003;2.655865e-002
2.777109e+003;2.731683e-002
2.779038e+003;2.857781e-002
2.780966e+003;2.975253e-002
2.782895e+003;3.125448e-002
2.784823e+003;3.265357e-002
2.786752e+003;3.411812e-002
2.788680e+003;3.582263e-002
2.790609e+003;3.771524e-002
2.792538e+003;3.971764e-002
2.794466e+003;4.102739e-002
2.796395e+003;4.207662e-002
2.798323e+003;4.366079e-002
2.800252e+003;4.565589e-002
2.802180e+003;4.765539e-002
2.804109e+003;5.007274e-002
2.806037e+003;5.234121e-002
2.807966e+003;5.443997e-002
2.809895e+003;5.661043e-002
2.811823e+003;5.874040e-002
2.813751e+003;6.072406e-002
2.815680e+003;6.288990e-002
2.817609e+003;6.513257e-002
2.819537e+003;6.777021e-002
2.821466e+003;7.145482e-002
2.823394e+003;7.573531e-002
2.825323e+003;8.083373e-002
2.827251e+003;8.725385e-002
2.829180e+003;9.542513e-002
2.831108e+003;1.049064e-001
2.833037e+003;1.141546e-001
2.834966e+003;1.215181e-001
2.836894e+003;1.253132e-001
2.838823e+003;1.250151e-001
2.840751e+003;1.220500e-001
2.842680e+003;1.180254e-001
2.844608e+003;1.139016e-001
2.846537e+003;1.099847e-001
2.848465e+003;1.068246e-001
2.850394e+003;1.050818e-001
2.852323e+003;1.042142e-001
2.854251e+003;1.034681e-001
2.856180e+003;1.039320e-001
2.858108e+003;1.067004e-001
2.860037e+003;1.114698e-001
2.861965e+003;1.178274e-001
2.863894e+003;1.249933e-001
2.865822e+003;1.310513e-001
2.867751e+003;1.350806e-001
2.869679e+003;1.370708e-001
2.871608e+003;1.382470e-001
2.873536e+003;1.392077e-001
2.875465e+003;1.390838e-001
2.877394e+003;1.374910e-001
2.879322e+003;1.354439e-001
2.881251e+003;1.339452e-001
2.883179e+003;1.333365e-001
2.885108e+003;1.333802e-001
2.887036e+003;1.341211e-001
2.888965e+003;1.360095e-001
2.890893e+003;1.384962e-001
2.892822e+003;1.413540e-001
2.894750e+003;1.450095e-001
2.896679e+003;1.492579e-001
2.898608e+003;1.543042e-001
2.900536e+003;1.599785e-001
2.902465e+003;1.653610e-001
2.904393e+003;1.705985e-001
2.906322e+003;1.758340e-001
2.908250e+003;1.809275e-001
2.910179e+003;1.852997e-001
2.912107e+003;1.889621e-001
2.914036e+003;1.914270e-001
2.915965e+003;1.919672e-001
2.917893e+003;1.913540e-001
2.919822e+003;1.891173e-001
2.921750e+003;1.851574e-001
2.923679e+003;1.799206e-001
2.925607e+003;1.736336e-001
2.927536e+003;1.665516e-001
2.929464e+003;1.590006e-001
2.931393e+003;1.506916e-001
2.933322e+003;1.422717e-001
2.935250e+003;1.352522e-001
2.937178e+003;1.296156e-001
2.939107e+003;1.256526e-001
2.941036e+003;1.248637e-001
2.942964e+003;1.274585e-001
2.944893e+003;1.325729e-001
2.946821e+003;1.388447e-001
2.948750e+003;1.447075e-001
2.950678e+003;1.491942e-001
2.952607e+003;1.511328e-001
2.954535e+003;1.504601e-001
2.956464e+003;1.477393e-001
2.958393e+003;1.434481e-001
2.960321e+003;1.383871e-001
2.962250e+003;1.323955e-001
2.964178e+003;1.253421e-001
2.966107e+003;1.179978e-001
2.968035e+003;1.105738e-001
2.969964e+003;1.035712e-001
2.971892e+003;9.703818e-002
2.973821e+003;9.130927e-002
2.975750e+003;8.574056e-002
2.977678e+003;8.064339e-002
2.979607e+003;7.629680e-002
2.981535e+003;7.225139e-002
2.983464e+003;6.863393e-002
2.985392e+003;6.553118e-002
2.987321e+003;6.247041e-002
2.989249e+003;5.936499e-002
2.991178e+003;5.632633e-002
2.993106e+003;5.349694e-002
2.995035e+003;5.104352e-002
2.996964e+003;4.892636e-002
2.998892e+003;4.673405e-002
3.000821e+003;4.413779e-002
3.002749e+003;4.138614e-002
3.004678e+003;3.898079e-002
3.006606e+003;3.688878e-002
3.008535e+003;3.490858e-002
3.010463e+003;3.322231e-002
3.012392e+003;3.160592e-002
3.014321e+003;3.004096e-002
3.016249e+003;2.888589e-002
3.018177e+003;2.755507e-002
3.020106e+003;2.557252e-002
3.022035e+003;2.379187e-002
3.023963e+003;2.249929e-002
3.025892e+003;2.169112e-002
3.027820e+003;2.088946e-002
3.029749e+003;1.996638e-002
3.031677e+003;1.913898e-002
3.033606e+003;1.848989e-002
3.035534e+003;1.787900e-002
3.037463e+003;1.716430e-002
3.039392e+003;1.631511e-002
3.041320e+003;1.547354e-002
3.043249e+003;1.504785e-002
3.045177e+003;1.459821e-002
3.047106e+003;1.422894e-002
3.049034e+003;1.405203e-002
3.050963e+003;1.374201e-002
3.052891e+003;1.313140e-002
3.054820e+003;1.270523e-002
3.056749e+003;1.283139e-002
3.058677e+003;1.295795e-002
3.060606e+003;1.289746e-002
3.062534e+003;1.261019e-002
3.064463e+003;1.197406e-002
3.066391e+003;1.132757e-002
3.068320e+003;1.106376e-002
3.070248e+003;1.111829e-002
3.072177e+003;1.112607e-002
3.074105e+003;1.124177e-002
3.076034e+003;1.097336e-002
3.077963e+003;1.060933e-002
3.079891e+003;1.033328e-002
3.081820e+003;1.008388e-002
3.083748e+003;9.924352e-003
3.085677e+003;9.919064e-003
3.087605e+003;9.989954e-003
3.089534e+003;9.742585e-003
3.091462e+003;9.698671e-003
3.093391e+003;9.768373e-003
3.095320e+003;9.661268e-003
3.097248e+003;9.738587e-003
3.099177e+003;9.731133e-003
3.101105e+003;9.446559e-003
3.103034e+003;9.285809e-003
3.104962e+003;9.284624e-003
3.106891e+003;9.367565e-003
3.108819e+003;9.304867e-003
3.110748e+003;9.100282e-003
3.112677e+003;8.915612e-003
3.114605e+003;9.057550e-003
3.116533e+003;9.069763e-003
3.118462e+003;9.026154e-003
3.120391e+003;9.625628e-003
3.122319e+003;9.792231e-003
3.124248e+003;9.393093e-003
3.126176e+003;9.290954e-003
3.128105e+003;9.501860e-003
3.130033e+003;9.841611e-003
3.131962e+003;1.026379e-002
3.133890e+003;1.020022e-002
3.135819e+003;9.826359e-003
3.137748e+003;9.241163e-003
3.139676e+003;9.289363e-003
3.141605e+003;9.824596e-003
3.143533e+003;1.017885e-002
3.145462e+003;1.029768e-002
3.147390e+003;1.040267e-002
3.149319e+003;1.041951e-002
3.151247e+003;1.004634e-002
3.153176e+003;1.000535e-002
3.155104e+003;1.014110e-002
3.157033e+003;9.995209e-003
3.158962e+003;1.001159e-002
3.160890e+003;1.007076e-002
3.162819e+003;9.881302e-003
3.164747e+003;9.996735e-003
3.166676e+003;9.724457e-003
3.168604e+003;9.499117e-003
3.170533e+003;1.015375e-002
3.172461e+003;1.041218e-002
3.174390e+003;9.775151e-003
3.176319e+003;9.439617e-003
3.178247e+003;9.539860e-003
3.180176e+003;9.718120e-003
3.182104e+003;1.005038e-002
3.184033e+003;9.950355e-003
3.185961e+003;9.971510e-003
3.187890e+003;9.916793e-003
3.189818e+003;9.846831e-003
3.191747e+003;1.012108e-002
3.193676e+003;1.035608e-002
3.195604e+003;1.024245e-002
3.197532e+003;1.015934e-002
3.199461e+003;1.036144e-002
3.201390e+003;1.065286e-002
3.203318e+003;1.042690e-002
3.205247e+003;9.778912e-003
3.207175e+003;9.301753e-003
3.209104e+003;9.096357e-003
3.211032e+003;9.198010e-003
3.212961e+003;9.106169e-003
3.214889e+003;9.153407e-003
3.216818e+003;9.043239e-003
3.218747e+003;8.680787e-003
3.220675e+003;8.158170e-003
3.222604e+003;7.881879e-003
3.224532e+003;8.184471e-003
3.226461e+003;8.065366e-003
3.228389e+003;7.577474e-003
3.230318e+003;7.392035e-003
3.232246e+003;7.589140e-003
3.234175e+003;7.274394e-003
3.236104e+003;6.755451e-003
3.238032e+003;6.502787e-003
3.239961e+003;6.731457e-003
3.241889e+003;6.810545e-003
3.243818e+003;6.304493e-003
3.245746e+003;6.035427e-003
3.247675e+003;6.222976e-003
3.249603e+003;6.266304e-003
3.251532e+003;6.115060e-003
3.253460e+003;5.876975e-003
3.255389e+003;5.113476e-003
3.257318e+003;4.934448e-003
3.259246e+003;5.335814e-003
3.261175e+003;5.335646e-003
3.263103e+003;5.309214e-003
3.265032e+003;5.213162e-003
3.266960e+003;4.749197e-003
3.268889e+003;4.540652e-003
3.270817e+003;5.049680e-003
3.272746e+003;5.674099e-003
3.274675e+003;5.604112e-003
3.276603e+003;5.207193e-003
3.278531e+003;5.197703e-003
3.280460e+003;5.299119e-003
3.282389e+003;5.480646e-003
3.284317e+003;5.396599e-003
3.286246e+003;5.003322e-003
3.288174e+003;4.895106e-003
3.290103e+003;5.033255e-003
3.292031e+003;5.251225e-003
3.293960e+003;5.147306e-003
3.295888e+003;4.758844e-003
3.297817e+003;4.802596e-003
3.299746e+003;5.273528e-003
3.301674e+003;5.707704e-003
3.303603e+003;5.742117e-003
3.305531e+003;5.182379e-003
3.307460e+003;4.620917e-003
3.309388e+003;4.525686e-003
3.311317e+003;4.535496e-003
3.313245e+003;4.734290e-003
3.315174e+003;4.844108e-003
3.317103e+003;5.000339e-003
3.319031e+003;4.811240e-003
3.320960e+003;4.558398e-003
3.322888e+003;4.811005e-003
3.324817e+003;4.720757e-003
3.326745e+003;4.694531e-003
3.328674e+003;5.066140e-003
3.330602e+003;5.116159e-003
3.332531e+003;4.936526e-003
3.334459e+003;5.356410e-003
3.336388e+003;5.827540e-003
3.338317e+003;5.468465e-003
3.340245e+003;4.978822e-003
3.342174e+003;4.926070e-003
3.344102e+003;5.296804e-003
3.346031e+003;5.784491e-003
3.347959e+003;5.894675e-003
3.349888e+003;5.448233e-003
3.351816e+003;4.777370e-003
3.353745e+003;4.613382e-003
3.355674e+003;4.775527e-003
3.357602e+003;5.085751e-003
3.359531e+003;5.087293e-003
3.361459e+003;4.767722e-003
3.363388e+003;4.926774e-003
3.365316e+003;5.357249e-003
3.367245e+003;5.279028e-003
3.369173e+003;4.877648e-003
3.371102e+003;4.507238e-003
3.373031e+003;4.465725e-003
3.374959e+003;4.926137e-003
3.376887e+003;4.942458e-003
3.378816e+003;4.518220e-003
3.380745e+003;4.368052e-003
3.382673e+003;4.555987e-003
3.384602e+003;4.475166e-003
3.386530e+003;4.128714e-003
3.388459e+003;3.921738e-003
3.390387e+003;4.080180e-003
3.392316e+003;4.673229e-003
3.394244e+003;5.082432e-003
3.396173e+003;4.951842e-003
3.398102e+003;4.586626e-003
3.400030e+003;4.339035e-003
3.401959e+003;4.153837e-003
3.403887e+003;3.984600e-003
3.405816e+003;4.209873e-003
3.407744e+003;4.566769e-003
3.409673e+003;4.343955e-003
3.411601e+003;4.097205e-003
3.413530e+003;4.343486e-003
3.415458e+003;4.525150e-003
3.417387e+003;4.413974e-003
3.419316e+003;4.067136e-003
3.421244e+003;3.948487e-003
3.423173e+003;4.102523e-003
3.425101e+003;3.885998e-003
3.427030e+003;3.352353e-003
3.428958e+003;3.007496e-003
3.430887e+003;2.992783e-003
3.432815e+003;2.999956e-003
3.434744e+003;2.967027e-003
3.436673e+003;3.177454e-003
3.438601e+003;3.517167e-003
3.440530e+003;3.567008e-003
3.442458e+003;3.299999e-003
3.444387e+003;2.999922e-003
3.446315e+003;2.275234e-003
3.448244e+003;1.982954e-003
3.450172e+003;1.895355e-003
3.452101e+003;1.855987e-003
3.454030e+003;1.918684e-003
3.455958e+003;1.873557e-003
3.457886e+003;2.153842e-003
3.459815e+003;2.302347e-003
3.461744e+003;1.851362e-003
3.463672e+003;1.576892e-003
3.465601e+003;1.295982e-003
3.467529e+003;1.060157e-003
3.469458e+003;1.111943e-003
3.471386e+003;1.316886e-003
3.473315e+003;1.268831e-003
3.475243e+003;1.413277e-003
3.477172e+003;1.467531e-003
3.479101e+003;1.218423e-003
3.481029e+003;1.005888e-003
3.482958e+003;5.646064e-004
3.484886e+003;1.527416e-004
3.486815e+003;4.276728e-004
3.488743e+003;5.762518e-004
3.490672e+003;5.278477e-004
3.492600e+003;6.306671e-004
3.494529e+003;7.237531e-004
3.496458e+003;2.549087e-004
3.498386e+003;5.130853e-004
3.500315e+003;6.644479e-004
3.502243e+003;4.161972e-004
3.504172e+003;7.257113e-004
3.506100e+003;7.470527e-004
3.508029e+003;-1.239368e-004
3.509957e+003;-2.342939e-004
3.511886e+003;5.963913e-004
3.513814e+003;5.712751e-004
3.515743e+003;9.828668e-005
3.517672e+003;2.842174e-004
3.519600e+003;5.576061e-004
3.521529e+003;1.325364e-006
3.523457e+003;-3.503174e-004
3.525386e+003;9.354747e-005
3.527314e+003;5.752450e-005
3.529243e+003;-3.122423e-004
3.531171e+003;-2.144237e-004
3.533100e+003;-1.306610e-004
3.535029e+003;-2.571765e-004
3.536957e+003;-4.414523e-004
3.538885e+003;-7.013449e-004
3.540814e+003;-3.867670e-004
3.542743e+003;-3.292606e-004
3.544671e+003;-7.245668e-004
3.546600e+003;-1.044850e-003
3.548528e+003;-7.684271e-004
3.550457e+003;-7.914470e-004
3.552385e+003;-1.005943e-003
3.554314e+003;-6.116211e-004
3.556242e+003;-7.622420e-004
3.558171e+003;-1.419327e-003
3.560100e+003;-1.118423e-003
3.562028e+003;-4.694874e-004
3.563957e+003;-1.004918e-003
3.565885e+003;-2.381132e-003
3.567814e+003;-2.460871e-003
3.569742e+003;-1.309833e-003
3.571671e+003;-1.094164e-003
3.573599e+003;-1.779887e-003
3.575528e+003;-1.909684e-003
3.577457e+003;-1.796815e-003
3.579385e+003;-1.656488e-003
3.581314e+003;-1.428508e-003
3.583242e+003;-1.722928e-003
3.585171e+003;-2.824386e-003
3.587099e+003;-3.878989e-003
3.589028e+003;-3.524770e-003
3.590956e+003;-2.771251e-003
3.592885e+003;-2.621424e-003
3.594813e+003;-2.348805e-003
3.596742e+003;-2.058899e-003
3.598671e+003;-2.167974e-003
3.600599e+003;-1.741178e-003
3.602528e+003;-1.172653e-003
3.604456e+003;-1.645034e-003
3.606385e+003;-2.820008e-003
3.608313e+003;-3.772281e-003
3.610242e+003;-3.654540e-003
3.612170e+003;-3.580410e-003
3.614099e+003;-3.458836e-003
3.616028e+003;-3.366129e-003
3.617956e+003;-3.968960e-003
3.619885e+003;-3.683650e-003
3.621813e+003;-2.351672e-003
3.623742e+003;-2.169194e-003
3.625670e+003;-3.656446e-003
3.627599e+003;-6.681442e-003
3.629527e+003;-6.281399e-003
3.631456e+003;-3.246666e-003
3.633385e+003;-2.433590e-003
3.635313e+003;-2.175128e-003
3.637241e+003;-2.015103e-003
3.639170e+003;-2.210634e-003
3.641099e+003;-2.546426e-003
3.643027e+003;-2.842590e-003
3.644956e+003;-3.473694e-003
3.646884e+003;-5.356447e-003
3.648813e+003;-7.151327e-003
3.650741e+003;-6.029563e-003
3.652670e+003;-3.624409e-003
3.654598e+003;-4.290765e-003
3.656527e+003;-4.768027e-003
3.658456e+003;-3.348046e-003
3.660384e+003;-2.414480e-003
3.662313e+003;-1.996501e-003
3.664241e+003;-1.651239e-003
3.666170e+003;-2.181887e-003
3.668098e+003;-4.757146e-003
3.670027e+003;-6.450209e-003
3.671955e+003;-5.199882e-003
3.673884e+003;-6.650476e-003
3.675813e+003;-6.830723e-003
3.677741e+003;-3.282545e-003
3.679669e+003;-1.719858e-003
3.681598e+003;-1.304250e-003
3.683527e+003;-1.412689e-003
3.685455e+003;-2.780403e-003
3.687384e+003;-5.796251e-003
3.689312e+003;-5.683080e-003
3.691241e+003;-3.447397e-003
3.693169e+003;-1.734577e-003
3.695098e+003;-8.722055e-004
3.697026e+003;-1.287468e-003
3.698955e+003;-1.910178e-003
3.700884e+003;-2.620074e-003
3.702812e+003;-2.306982e-003
3.704741e+003;-1.302532e-003
3.706669e+003;-1.418667e-003
3.708598e+003;-2.887784e-003
3.710526e+003;-4.444215e-003
3.712455e+003;-4.274524e-003
3.714383e+003;-2.365743e-003
3.716312e+003;-1.487223e-003
3.718240e+003;-1.667413e-003
3.720169e+003;-2.488513e-003
3.722098e+003;-2.765786e-003
3.724026e+003;-2.608975e-003
3.725955e+003;-2.708692e-003
3.727883e+003;-1.910277e-003
3.729812e+003;-2.601136e-003
3.731740e+003;-4.493145e-003
3.733669e+003;-5.103093e-003
3.735597e+003;-5.733375e-003
3.737526e+003;-3.798920e-003
3.739455e+003;-1.724215e-003
3.741383e+003;-3.329534e-003
3.743312e+003;-8.230993e-003
3.745240e+003;-7.102794e-003
3.747169e+003;-5.054166e-003
3.749097e+003;-8.031812e-003
3.751026e+003;-8.340349e-003
3.752954e+003;-4.858437e-003
3.754883e+003;-1.834298e-003
3.756812e+003;-1.961539e-003
3.758740e+003;-2.476323e-003
3.760668e+003;-1.881246e-003
3.762597e+003;-7.868828e-004
3.764526e+003;-1.344550e-003
3.766454e+003;-1.209926e-003
3.768383e+003;-1.557090e-003
3.770311e+003;-1.439704e-003
3.772240e+003;-1.824971e-004
3.774168e+003;8.933856e-005
3.776097e+003;-6.904613e-004
3.778025e+003;-1.193239e-003
3.779954e+003;-1.312145e-003
3.781883e+003;-1.131973e-003
3.783811e+003;-1.131047e-003
3.785740e+003;-7.404443e-004
3.787668e+003;-3.500857e-004
3.789597e+003;-3.843531e-006
3.791525e+003;-5.045370e-004
3.793454e+003;-8.230644e-004
3.795382e+003;-1.429565e-003
3.797311e+003;-1.956954e-003
3.799240e+003;-3.986525e-003
3.801168e+003;-5.612042e-003
3.803097e+003;-2.803251e-003
3.805025e+003;-2.273264e-003
3.806954e+003;-3.052753e-003
3.808882e+003;-1.141986e-003
3.810811e+003;-2.873427e-004
3.812739e+003;-1.048453e-003
3.814668e+003;-3.906574e-003
3.816596e+003;-3.858596e-003
3.818525e+003;-2.539739e-003
3.820454e+003;-3.953988e-003
3.822382e+003;-2.590497e-003
3.824311e+003;-6.232346e-004
3.826239e+003;-6.573786e-004
3.828168e+003;-5.675795e-004
3.830096e+003;-1.095718e-003
3.832025e+003;-2.041981e-003
3.833953e+003;-3.099734e-003
3.835882e+003;-5.046960e-003
3.837811e+003;-6.063873e-003
3.839739e+003;-4.076080e-003
3.841667e+003;-2.420938e-003
3.843596e+003;-1.761704e-003
3.845525e+003;-4.837856e-004
3.847453e+003;3.470520e-004
3.849382e+003;-1.467840e-003
3.851310e+003;-6.670055e-003
3.853239e+003;-1.060993e-002
3.855167e+003;-6.300961e-003
3.857096e+003;-9.116864e-004
3.859024e+003;-6.324828e-005
3.860953e+003;-9.518249e-004
3.862882e+003;-1.556891e-003
3.864810e+003;-1.920009e-003
3.866739e+003;-2.219172e-003
3.868667e+003;-4.000216e-003
3.870596e+003;-3.716601e-003
3.872524e+003;-2.101701e-003
3.874453e+003;-8.498844e-004
3.876381e+003;5.761854e-004
3.878310e+003;-4.462926e-005
3.880239e+003;-1.106261e-003
3.882167e+003;-1.010175e-003
3.884096e+003;-2.164216e-003
3.886024e+003;-1.882434e-003
3.887953e+003;2.450291e-004
3.889881e+003;-6.069227e-004
3.891810e+003;-1.125462e-003
3.893738e+003;5.228716e-004
3.895667e+003;7.969417e-004
3.897595e+003;-5.767125e-004
3.899524e+003;-1.676028e-003
3.901453e+003;-1.769888e-003
3.903381e+003;-1.767347e-003
3.905310e+003;-1.091025e-003
3.907238e+003;1.124383e-004
3.909167e+003;1.286377e-003
3.911095e+003;1.513646e-003
3.913024e+003;1.047569e-003
3.914952e+003;7.244169e-004
3.916881e+003;7.530271e-004
3.918810e+003;9.743383e-004
3.920738e+003;1.253844e-003
3.922667e+003;1.303991e-003
3.924595e+003;9.640106e-004
3.926524e+003;9.834707e-004
3.928452e+003;1.337425e-003
3.930381e+003;1.460317e-003
3.932309e+003;9.545797e-004
3.934238e+003;1.227128e-003
3.936167e+003;1.567182e-003
3.938095e+003;1.514079e-003
3.940023e+003;1.259460e-003
3.941952e+003;8.065020e-004
3.943881e+003;9.766629e-004
3.945809e+003;1.325627e-003
3.947738e+003;9.290111e-004
3.949666e+003;1.140811e-003
3.951595e+003;1.610248e-003
3.953523e+003;1.660568e-003
3.955452e+003;1.298142e-003
3.957380e+003;1.008046e-003
3.959309e+003;8.500568e-004
3.961238e+003;4.404753e-004
3.963166e+003;3.032823e-004
3.965095e+003;7.279018e-004
3.967023e+003;1.369799e-003
3.968952e+003;1.690970e-003
3.970880e+003;1.698953e-003
3.972809e+003;1.655313e-003
3.974737e+003;1.413211e-003
3.976666e+003;1.427206e-003
3.978594e+003;1.934958e-003
3.980523e+003;2.051528e-003
3.982452e+003;1.863474e-003
3.984380e+003;1.746756e-003
3.986309e+003;1.687544e-003
3.988237e+003;2.004923e-003
3.990166e+003;2.626509e-003
3.992094e+003;2.775609e-003
3.994023e+003;2.316971e-003
3.995951e+003;2.244225e-003
3.997880e+003;2.429744e-003
3.999809e+003;2.783879e-003
4.001737e+003;0.000000e+000
