3.992094e+002;0.000000e+000
4.011380e+002;0.000000e+000
4.030665e+002;0.000000e+000
4.049951e+002;0.000000e+000
4.069236e+002;0.000000e+000
4.088522e+002;0.000000e+000
4.107807e+002;0.000000e+000
4.127093e+002;0.000000e+000
4.146378e+002;0.000000e+000
4.165664e+002;0.000000e+000
4.184949e+002;0.000000e+000
4.204235e+002;0.000000e+000
4.223520e+002;0.000000e+000
4.242806e+002;0.000000e+000
4.262091e+002;0.000000e+000
4.281377e+002;0.000000e+000
4.300662e+002;0.000000e+000
4.319948e+002;0.000000e+000
4.339233e+002;0.000000e+000
4.358519e+002;0.000000e+000
4.377804e+002;0.000000e+000
4.397090e+002;0.000000e+000
4.416375e+002;0.000000e+000
4.435660e+002;0.000000e+000
4.454946e+002;0.000000e+000
4.474232e+002;0.000000e+000
4.493517e+002;0.000000e+000
4.512802e+002;0.000000e+000
4.532088e+002;0.000000e+000
4.551373e+002;0.000000e+000
4.570659e+002;0.000000e+000
4.589944e+002;0.000000e+000
4.609230e+002;0.000000e+000
4.628515e+002;0.000000e+000
4.647801e+002;0.000000e+000
4.667086e+002;0.000000e+000
4.686372e+002;0.000000e+000
4.705657e+002;0.000000e+000
4.724943e+002;0.000000e+000
4.744228e+002;0.000000e+000
4.763513e+002;0.000000e+000
4.782799e+002;0.000000e+000
4.802085e+002;0.000000e+000
4.821370e+002;0.000000e+000
4.840656e+002;0.000000e+000
4.859941e+002;0.000000e+000
4.879226e+002;0.000000e+000
4.898512e+002;0.000000e+000
4.917798e+002;0.000000e+000
4.937083e+002;0.000000e+000
4.956368e+002;0.000000e+000
4.975654e+002;0.000000e+000
4.994939e+002;0.000000e+000
5.014225e+002;0.000000e+000
5.033510e+002;0.000000e+000
5.052796e+002;0.000000e+000
5.072081e+002;0.000000e+000
5.091367e+002;0.000000e+000
5.110652e+002;0.000000e+000
5.129938e+002;0.000000e+000
5.149223e+002;0.000000e+000
5.168509e+002;0.000000e+000
5.187794e+002;0.000000e+000
5.207079e+002;0.000000e+000
5.226365e+002;0.000000e+000
5.245651e+002;0.000000e+000
5.264936e+002;0.000000e+000
5.284222e+002;0.000000e+000
5.303507e+002;0.000000e+000
5.322792e+002;0.000000e+000
5.342078e+002;0.000000e+000
5.361364e+002;0.000000e+000
5.380649e+002;0.000000e+000
5.399935e+002;0.000000e+000
5.419220e+002;0.000000e+000
5.438505e+002;0.000000e+000
5.457791e+002;0.000000e+000
5.477076e+002;0.000000e+000
5.496362e+002;0.000000e+000
5.515648e+002;0.000000e+000
5.534933e+002;0.000000e+000
5.554218e+002;0.000000e+000
5.573504e+002;0.000000e+000
5.592789e+002;0.000000e+000
5.612075e+002;0.000000e+000
5.631360e+002;0.000000e+000
5.650646e+002;0.000000e+000
5.669931e+002;0.000000e+000
5.689217e+002;0.000000e+000
5.708502e+002;0.000000e+000
5.727787e+002;0.000000e+000
5.747073e+002;0.000000e+000
5.766359e+002;0.000000e+000
5.785644e+002;0.000000e+000
5.804930e+002;0.000000e+000
5.824215e+002;0.000000e+000
5.843500e+002;0.000000e+000
5.862786e+002;0.000000e+000
5.882072e+002;0.000000e+000
5.901357e+002;0.000000e+000
5.920643e+002;0.000000e+000
5.939928e+002;0.000000e+000
5.959213e+002;0.000000e+000
5.978499e+002;0.000000e+000
5.997784e+002;2.522169e-002
6.017070e+002;3.325075e-002
6.036355e+002;3.351413e-002
6.055641e+002;2.923953e-002
6.074926e+002;2.854422e-002
6.094211e+002;2.746696e-002
6.113497e+002;2.717264e-002
6.132783e+002;2.943319e-002
6.152068e+002;2.751186e-002
6.171354e+002;2.447083e-002
6.190639e+002;2.873074e-002
6.209924e+002;3.163632e-002
6.229210e+002;3.363416e-002
6.248495e+002;3.608351e-002
6.267781e+002;3.735344e-002
6.287067e+002;3.223394e-002
6.306352e+002;2.869074e-002
6.325637e+002;2.743936e-002
6.344923e+002;2.712041e-002
6.364208e+002;2.860654e-002
6.383494e+002;3.042255e-002
6.402780e+002;2.869683e-002
6.422065e+002;3.034540e-002
6.441350e+002;3.237339e-002
6.460636e+002;3.327303e-002
6.479921e+002;3.004803e-002
6.499207e+002;3.002765e-002
6.518492e+002;3.155664e-002
6.537778e+002;3.126637e-002
6.557063e+002;3.128386e-002
6.576349e+002;3.229986e-002
6.595634e+002;3.301426e-002
6.614919e+002;3.379752e-002
6.634205e+002;3.349226e-002
6.653491e+002;3.093610e-002
6.672776e+002;2.849869e-002
6.692062e+002;3.125669e-002
6.711347e+002;3.244922e-002
6.730632e+002;3.129746e-002
6.749918e+002;3.065543e-002
6.769203e+002;3.042845e-002
6.788489e+002;2.944989e-002
6.807775e+002;2.892276e-002
6.827060e+002;3.028664e-002
6.846345e+002;3.233466e-002
6.865631e+002;3.264743e-002
6.884916e+002;3.151085e-002
6.904202e+002;3.064934e-002
6.923488e+002;3.200561e-002
6.942773e+002;3.342731e-002
6.962058e+002;3.435649e-002
6.981344e+002;3.580694e-002
7.000629e+002;3.651405e-002
7.019915e+002;3.591735e-002
7.039200e+002;3.670435e-002
7.058486e+002;3.927561e-002
7.077771e+002;4.342465e-002
7.097057e+002;5.246357e-002
7.116342e+002;6.653896e-002
7.135627e+002;7.167482e-002
7.154913e+002;6.167457e-002
7.174199e+002;4.926275e-002
7.193484e+002;4.298838e-002
7.212770e+002;3.950645e-002
7.232055e+002;3.783810e-002
7.251340e+002;3.741397e-002
7.270626e+002;3.681257e-002
7.289911e+002;3.531750e-002
7.309197e+002;3.505025e-002
7.328483e+002;3.508449e-002
7.347768e+002;3.380450e-002
7.367053e+002;3.378047e-002
7.386339e+002;3.386651e-002
7.405624e+002;3.360251e-002
7.424910e+002;3.489551e-002
7.444196e+002;3.541276e-002
7.463481e+002;3.588510e-002
7.482766e+002;3.647221e-002
7.502052e+002;3.770230e-002
7.521337e+002;3.825030e-002
7.540623e+002;3.814859e-002
7.559908e+002;3.828200e-002
7.579194e+002;3.814150e-002
7.598479e+002;3.806775e-002
7.617765e+002;3.841837e-002
7.637050e+002;3.835590e-002
7.656335e+002;3.873033e-002
7.675621e+002;3.892041e-002
7.694907e+002;3.850392e-002
7.714192e+002;3.789091e-002
7.733478e+002;3.820463e-002
7.752763e+002;3.741285e-002
7.772048e+002;3.734124e-002
7.791334e+002;3.804811e-002
7.810620e+002;3.775181e-002
7.829905e+002;3.857547e-002
7.849191e+002;4.043577e-002
7.868476e+002;4.164824e-002
7.887761e+002;4.253322e-002
7.907047e+002;4.309620e-002
7.926332e+002;4.345208e-002
7.945618e+002;4.481905e-002
7.964903e+002;4.735317e-002
7.984189e+002;5.026929e-002
8.003474e+002;5.213916e-002
8.022759e+002;5.350253e-002
8.042045e+002;5.580256e-002
8.061331e+002;5.902912e-002
8.080616e+002;6.139285e-002
8.099902e+002;6.067785e-002
8.119187e+002;5.846737e-002
8.138472e+002;5.554982e-002
8.157758e+002;5.265265e-002
8.177043e+002;5.108914e-002
8.196329e+002;5.012665e-002
8.215615e+002;4.883170e-002
8.234900e+002;4.762315e-002
8.254185e+002;4.744053e-002
8.273471e+002;4.833196e-002
8.292756e+002;4.873446e-002
8.312042e+002;4.910727e-002
8.331328e+002;5.019293e-002
8.350613e+002;5.215399e-002
8.369898e+002;5.556820e-002
8.389184e+002;6.139991e-002
8.408469e+002;6.654096e-002
8.427755e+002;6.760591e-002
8.447040e+002;6.610304e-002
8.466326e+002;6.549180e-002
8.485611e+002;6.238330e-002
8.504897e+002;5.663463e-002
8.524182e+002;5.379432e-002
8.543467e+002;5.323415e-002
8.562753e+002;5.278785e-002
8.582039e+002;5.286456e-002
8.601324e+002;5.472141e-002
8.620610e+002;5.812022e-002
8.639895e+002;6.169477e-002
8.659180e+002;6.761552e-002
8.678466e+002;7.755203e-002
8.697751e+002;9.190323e-002
8.717037e+002;1.096039e-001
8.736323e+002;1.250777e-001
8.755608e+002;1.310416e-001
8.774893e+002;1.217060e-001
8.794179e+002;1.016132e-001
8.813464e+002;8.315930e-002
8.832750e+002;6.992143e-002
8.852036e+002;5.812079e-002
8.871321e+002;4.904747e-002
8.890606e+002;4.519671e-002
8.909892e+002;4.480942e-002
8.929177e+002;4.621225e-002
8.948463e+002;4.977983e-002
8.967748e+002;5.390935e-002
8.987034e+002;5.630286e-002
9.006319e+002;5.568265e-002
9.025605e+002;5.191550e-002
9.044890e+002;4.720761e-002
9.064175e+002;4.338785e-002
9.083461e+002;4.082496e-002
9.102747e+002;3.951491e-002
9.122032e+002;3.857496e-002
9.141318e+002;3.783473e-002
9.160603e+002;3.739692e-002
9.179888e+002;3.727047e-002
9.199174e+002;3.727055e-002
9.218459e+002;3.703193e-002
9.237745e+002;3.700501e-002
9.257031e+002;3.713525e-002
9.276316e+002;3.732864e-002
9.295601e+002;3.747794e-002
9.314887e+002;3.755036e-002
9.334172e+002;3.834529e-002
9.353458e+002;3.973122e-002
9.372744e+002;4.072262e-002
9.392029e+002;4.152801e-002
9.411314e+002;4.246083e-002
9.430600e+002;4.266600e-002
9.449885e+002;4.250153e-002
9.469171e+002;4.244665e-002
9.488456e+002;4.293589e-002
9.507742e+002;4.356877e-002
9.527027e+002;4.404915e-002
9.546313e+002;4.472681e-002
9.565598e+002;4.562449e-002
9.584883e+002;4.665288e-002
9.604169e+002;4.842163e-002
9.623455e+002;5.124865e-002
9.642740e+002;5.486651e-002
9.662026e+002;5.936173e-002
9.681311e+002;6.596718e-002
9.700596e+002;7.472291e-002
9.719882e+002;8.234577e-002
9.739167e+002;8.467130e-002
9.758453e+002;8.088151e-002
9.777739e+002;7.242724e-002
9.797024e+002;6.267404e-002
9.816309e+002;5.456261e-002
9.835595e+002;4.908397e-002
9.854880e+002;4.621804e-002
9.874166e+002;4.571644e-002
9.893452e+002;4.752507e-002
9.912737e+002;5.108120e-002
9.932022e+002;5.658873e-002
9.951307e+002;6.328864e-002
9.970593e+002;6.835329e-002
9.989879e+002;6.845794e-002
1.000916e+003;6.384048e-002
1.002845e+003;5.787855e-002
1.004773e+003;5.335215e-002
1.006702e+003;5.049207e-002
1.008631e+003;4.851373e-002
1.010559e+003;4.711092e-002
1.012488e+003;4.593273e-002
1.014416e+003;4.494294e-002
1.016345e+003;4.422194e-002
1.018273e+003;4.349940e-002
1.020202e+003;4.288779e-002
1.022130e+003;4.264381e-002
1.024059e+003;4.225740e-002
1.025988e+003;4.227146e-002
1.027916e+003;4.334315e-002
1.029845e+003;4.446803e-002
1.031773e+003;4.585418e-002
1.033702e+003;4.801769e-002
1.035630e+003;4.965251e-002
1.037559e+003;4.998495e-002
1.039487e+003;4.985360e-002
1.041416e+003;4.947687e-002
1.043344e+003;4.864428e-002
1.045273e+003;4.728885e-002
1.047202e+003;4.556642e-002
1.049130e+003;4.343476e-002
1.051059e+003;4.173719e-002
1.052987e+003;4.055122e-002
1.054916e+003;3.979541e-002
1.056844e+003;3.934010e-002
1.058773e+003;3.899739e-002
1.060701e+003;3.858314e-002
1.062630e+003;3.835988e-002
1.064558e+003;3.819342e-002
1.066487e+003;3.848259e-002
1.068416e+003;3.885953e-002
1.070344e+003;3.900395e-002
1.072273e+003;3.863058e-002
1.074201e+003;3.907370e-002
1.076130e+003;4.010837e-002
1.078058e+003;4.054212e-002
1.079987e+003;4.114718e-002
1.081915e+003;4.136941e-002
1.083844e+003;4.160214e-002
1.085773e+003;4.255309e-002
1.087701e+003;4.387159e-002
1.089630e+003;4.487713e-002
1.091558e+003;4.565122e-002
1.093487e+003;4.691729e-002
1.095415e+003;4.823894e-002
1.097344e+003;5.002444e-002
1.099272e+003;5.225828e-002
1.101201e+003;5.387518e-002
1.103129e+003;5.436530e-002
1.105058e+003;5.423663e-002
1.106987e+003;5.314982e-002
1.108915e+003;5.086997e-002
1.110844e+003;4.842508e-002
1.112772e+003;4.655137e-002
1.114701e+003;4.459623e-002
1.116629e+003;4.268661e-002
1.118558e+003;4.151773e-002
1.120486e+003;4.058999e-002
1.122415e+003;3.968384e-002
1.124344e+003;3.877065e-002
1.126272e+003;3.835720e-002
1.128201e+003;3.841044e-002
1.130129e+003;3.869795e-002
1.132058e+003;3.957508e-002
1.133986e+003;4.136062e-002
1.135915e+003;4.331433e-002
1.137843e+003;4.531287e-002
1.139772e+003;4.747650e-002
1.141700e+003;5.049345e-002
1.143629e+003;5.416542e-002
1.145557e+003;5.739916e-002
1.147486e+003;6.031930e-002
1.149415e+003;6.388784e-002
1.151343e+003;6.777075e-002
1.153272e+003;6.980557e-002
1.155200e+003;7.024951e-002
1.157129e+003;7.071410e-002
1.159057e+003;7.115444e-002
1.160986e+003;7.182299e-002
1.162914e+003;7.249427e-002
1.164843e+003;7.299329e-002
1.166771e+003;7.298690e-002
1.168700e+003;7.134449e-002
1.170629e+003;6.739745e-002
1.172557e+003;6.225839e-002
1.174486e+003;5.735522e-002
1.176414e+003;5.307414e-002
1.178343e+003;5.015473e-002
1.180271e+003;4.889240e-002
1.182200e+003;4.848483e-002
1.184128e+003;4.843501e-002
1.186057e+003;4.867567e-002
1.187986e+003;4.946952e-002
1.189914e+003;5.037909e-002
1.191843e+003;5.050386e-002
1.193771e+003;5.009133e-002
1.195700e+003;4.987277e-002
1.197628e+003;5.056435e-002
1.199557e+003;5.111429e-002
1.201485e+003;5.083261e-002
1.203414e+003;5.047290e-002
1.205343e+003;5.035188e-002
1.207271e+003;5.095163e-002
1.209200e+003;5.248450e-002
1.211128e+003;5.445386e-002
1.213057e+003;5.648928e-002
1.214985e+003;5.707108e-002
1.216914e+003;5.570861e-002
1.218842e+003;5.396848e-002
1.220771e+003;5.283612e-002
1.222699e+003;5.237896e-002
1.224628e+003;5.225690e-002
1.226557e+003;5.272806e-002
1.228485e+003;5.324427e-002
1.230414e+003;5.346336e-002
1.232342e+003;5.360872e-002
1.234271e+003;5.383501e-002
1.236199e+003;5.416193e-002
1.238128e+003;5.435070e-002
1.240056e+003;5.437003e-002
1.241985e+003;5.485658e-002
1.243913e+003;5.541880e-002
1.245842e+003;5.627703e-002
1.247771e+003;5.746772e-002
1.249699e+003;5.919458e-002
1.251628e+003;6.188336e-002
1.253556e+003;6.556828e-002
1.255485e+003;6.859299e-002
1.257413e+003;6.884338e-002
1.259342e+003;6.625145e-002
1.261270e+003;6.303258e-002
1.263199e+003;6.094037e-002
1.265127e+003;5.994568e-002
1.267056e+003;5.894612e-002
1.268985e+003;5.766645e-002
1.270913e+003;5.652128e-002
1.272842e+003;5.526035e-002
1.274770e+003;5.421970e-002
1.276699e+003;5.373844e-002
1.278627e+003;5.352291e-002
1.280556e+003;5.363154e-002
1.282484e+003;5.380666e-002
1.284413e+003;5.438562e-002
1.286342e+003;5.557569e-002
1.288270e+003;5.673585e-002
1.290199e+003;5.785583e-002
1.292127e+003;5.907760e-002
1.294056e+003;6.017298e-002
1.295984e+003;6.083241e-002
1.297913e+003;6.116995e-002
1.299841e+003;6.153718e-002
1.301770e+003;6.210491e-002
1.303698e+003;6.256618e-002
1.305627e+003;6.179797e-002
1.307556e+003;6.003991e-002
1.309484e+003;5.864565e-002
1.311413e+003;5.814011e-002
1.313341e+003;5.861960e-002
1.315270e+003;5.987280e-002
1.317198e+003;6.107608e-002
1.319127e+003;6.212812e-002
1.321055e+003;6.312481e-002
1.322984e+003;6.461981e-002
1.324912e+003;6.674006e-002
1.326841e+003;6.854018e-002
1.328770e+003;6.978767e-002
1.330698e+003;7.052927e-002
1.332627e+003;7.083519e-002
1.334555e+003;7.063323e-002
1.336484e+003;7.040877e-002
1.338412e+003;7.087146e-002
1.340341e+003;7.204088e-002
1.342269e+003;7.375652e-002
1.344198e+003;7.624439e-002
1.346126e+003;7.932941e-002
1.348055e+003;8.248914e-002
1.349984e+003;8.623557e-002
1.351912e+003;9.078648e-002
1.353841e+003;9.707215e-002
1.355769e+003;1.044109e-001
1.357698e+003;1.101702e-001
1.359626e+003;1.126054e-001
1.361555e+003;1.125465e-001
1.363483e+003;1.131545e-001
1.365412e+003;1.167821e-001
1.367341e+003;1.249164e-001
1.369269e+003;1.408652e-001
1.371198e+003;1.648503e-001
1.373126e+003;1.925754e-001
1.375055e+003;2.148425e-001
1.376983e+003;2.170524e-001
1.378912e+003;1.965381e-001
1.380840e+003;1.671793e-001
1.382769e+003;1.404673e-001
1.384698e+003;1.208806e-001
1.386626e+003;1.086088e-001
1.388555e+003;1.034245e-001
1.390483e+003;1.029606e-001
1.392412e+003;1.031206e-001
1.394340e+003;1.036399e-001
1.396269e+003;1.060244e-001
1.398197e+003;1.081876e-001
1.400126e+003;1.104066e-001
1.402054e+003;1.128352e-001
1.403983e+003;1.142743e-001
1.405911e+003;1.156845e-001
1.407840e+003;1.178600e-001
1.409769e+003;1.202333e-001
1.411697e+003;1.226952e-001
1.413626e+003;1.256926e-001
1.415554e+003;1.283614e-001
1.417483e+003;1.295348e-001
1.419411e+003;1.315655e-001
1.421340e+003;1.360314e-001
1.423268e+003;1.394732e-001
1.425197e+003;1.422438e-001
1.427125e+003;1.449734e-001
1.429054e+003;1.480155e-001
1.430983e+003;1.524746e-001
1.432911e+003;1.576850e-001
1.434840e+003;1.598200e-001
1.436768e+003;1.593806e-001
1.438697e+003;1.609444e-001
1.440625e+003;1.631275e-001
1.442554e+003;1.660268e-001
1.444482e+003;1.707010e-001
1.446411e+003;1.766344e-001
1.448340e+003;1.829781e-001
1.450268e+003;1.886570e-001
1.452197e+003;1.915566e-001
1.454125e+003;1.901792e-001
1.456054e+003;1.848958e-001
1.457982e+003;1.824949e-001
1.459911e+003;1.814065e-001
1.461839e+003;1.761163e-001
1.463768e+003;1.666752e-001
1.465697e+003;1.569433e-001
1.467625e+003;1.481506e-001
1.469554e+003;1.378891e-001
1.471482e+003;1.265932e-001
1.473411e+003;1.185930e-001
1.475339e+003;1.143986e-001
1.477268e+003;1.111218e-001
1.479196e+003;1.081308e-001
1.481125e+003;1.043943e-001
1.483053e+003;1.009993e-001
1.484982e+003;9.789110e-002
1.486911e+003;9.466029e-002
1.488839e+003;9.158330e-002
1.490768e+003;8.940949e-002
1.492696e+003;8.813130e-002
1.494625e+003;8.536617e-002
1.496553e+003;8.243838e-002
1.498482e+003;8.138251e-002
1.500410e+003;8.065473e-002
1.502339e+003;7.879767e-002
1.504267e+003;7.348739e-002
1.506196e+003;6.773036e-002
1.508125e+003;6.747093e-002
1.510053e+003;6.852583e-002
1.511982e+003;6.768063e-002
1.513910e+003;6.621151e-002
1.515839e+003;6.354313e-002
1.517767e+003;6.121508e-002
1.519696e+003;5.816284e-002
1.521624e+003;5.577837e-002
1.523553e+003;5.650188e-002
1.525481e+003;5.621200e-002
1.527410e+003;5.560243e-002
1.529339e+003;5.504279e-002
1.531267e+003;5.336886e-002
1.533196e+003;5.124037e-002
1.535124e+003;5.124380e-002
1.537053e+003;4.876185e-002
1.538981e+003;4.337328e-002
1.540910e+003;4.244161e-002
1.542838e+003;4.473430e-002
1.544767e+003;4.664853e-002
1.546695e+003;4.817615e-002
1.548624e+003;4.821939e-002
1.550553e+003;4.798105e-002
1.552481e+003;4.718153e-002
1.554410e+003;4.547131e-002
1.556338e+003;4.238842e-002
1.558267e+003;3.717734e-002
1.560195e+003;3.822877e-002
1.562124e+003;4.290926e-002
1.564052e+003;4.379062e-002
1.565981e+003;4.337167e-002
1.567910e+003;4.182336e-002
1.569838e+003;4.038075e-002
1.571767e+003;4.125160e-002
1.573695e+003;3.999195e-002
1.575624e+003;3.661335e-002
1.577552e+003;3.769406e-002
1.579481e+003;3.995424e-002
1.581409e+003;3.983710e-002
1.583338e+003;3.953356e-002
1.585266e+003;3.924612e-002
1.587195e+003;3.892244e-002
1.589124e+003;3.835166e-002
1.591052e+003;3.784063e-002
1.592981e+003;3.726560e-002
1.594909e+003;3.692222e-002
1.596838e+003;3.715384e-002
1.598766e+003;3.744904e-002
1.600695e+003;3.721802e-002
1.602623e+003;3.680542e-002
1.604552e+003;3.683457e-002
1.606480e+003;3.673821e-002
1.608409e+003;3.614469e-002
1.610338e+003;3.589460e-002
1.612266e+003;3.628900e-002
1.614195e+003;3.572214e-002
1.616123e+003;3.402963e-002
1.618052e+003;3.565688e-002
1.619980e+003;3.720314e-002
1.621909e+003;3.553367e-002
1.623837e+003;3.427366e-002
1.625766e+003;3.429439e-002
1.627694e+003;3.398380e-002
1.629623e+003;3.429209e-002
1.631552e+003;3.418185e-002
1.633480e+003;3.157659e-002
1.635409e+003;2.884875e-002
1.637337e+003;3.080013e-002
1.639266e+003;3.283904e-002
1.641194e+003;3.304329e-002
1.643123e+003;3.230636e-002
1.645051e+003;2.973532e-002
1.646980e+003;2.895124e-002
1.648909e+003;3.055740e-002
1.650837e+003;2.740819e-002
1.652766e+003;2.239430e-002
1.654694e+003;2.659740e-002
1.656623e+003;3.137143e-002
1.658551e+003;3.183351e-002
1.660480e+003;3.094051e-002
1.662408e+003;2.987127e-002
1.664337e+003;3.045016e-002
1.666266e+003;3.061358e-002
1.668194e+003;2.882315e-002
1.670123e+003;2.824861e-002
1.672051e+003;2.927256e-002
1.673980e+003;2.843890e-002
1.675908e+003;2.828337e-002
1.677837e+003;3.008549e-002
1.679765e+003;2.993928e-002
1.681694e+003;2.773152e-002
1.683622e+003;2.362435e-002
1.685551e+003;2.458145e-002
1.687479e+003;2.796522e-002
1.689408e+003;2.858690e-002
1.691337e+003;2.891787e-002
1.693265e+003;2.725170e-002
1.695194e+003;2.354389e-002
1.697122e+003;2.351063e-002
1.699051e+003;2.244105e-002
1.700979e+003;2.251754e-002
1.702908e+003;2.553373e-002
1.704836e+003;2.545312e-002
1.706765e+003;2.570883e-002
1.708693e+003;2.629160e-002
1.710622e+003;2.634461e-002
1.712551e+003;2.532100e-002
1.714479e+003;2.332896e-002
1.716408e+003;2.064932e-002
1.718336e+003;2.125017e-002
1.720265e+003;2.413584e-002
1.722193e+003;2.508111e-002
1.724122e+003;2.514693e-002
1.726050e+003;2.528304e-002
1.727979e+003;2.471032e-002
1.729908e+003;2.381329e-002
1.731836e+003;2.131118e-002
1.733765e+003;1.842193e-002
1.735693e+003;2.062893e-002
1.737622e+003;2.249070e-002
1.739550e+003;2.179075e-002
1.741479e+003;2.211616e-002
1.743407e+003;2.197540e-002
1.745336e+003;2.154277e-002
1.747265e+003;2.084051e-002
1.749193e+003;1.972775e-002
1.751122e+003;1.935236e-002
1.753050e+003;2.069008e-002
1.754979e+003;2.086975e-002
1.756907e+003;2.062232e-002
1.758836e+003;2.103526e-002
1.760764e+003;2.023130e-002
1.762693e+003;1.996475e-002
1.764621e+003;2.070986e-002
1.766550e+003;1.996655e-002
1.768479e+003;1.920162e-002
1.770407e+003;1.850431e-002
1.772336e+003;1.742345e-002
1.774264e+003;1.853429e-002
1.776193e+003;1.977900e-002
1.778121e+003;1.998383e-002
1.780050e+003;1.982915e-002
1.781978e+003;2.030553e-002
1.783907e+003;2.080975e-002
1.785835e+003;2.185782e-002
1.787764e+003;2.385007e-002
1.789693e+003;2.563923e-002
1.791621e+003;2.757918e-002
1.793550e+003;3.086356e-002
1.795478e+003;3.368919e-002
1.797407e+003;3.407862e-002
1.799335e+003;3.290262e-002
1.801264e+003;3.065208e-002
1.803192e+003;2.792684e-002
1.805121e+003;2.502687e-002
1.807049e+003;2.244873e-002
1.808978e+003;2.063963e-002
1.810907e+003;1.973926e-002
1.812835e+003;1.943818e-002
1.814764e+003;1.920574e-002
1.816692e+003;1.877530e-002
1.818621e+003;1.855694e-002
1.820549e+003;1.830686e-002
1.822478e+003;1.792340e-002
1.824406e+003;1.739707e-002
1.826335e+003;1.759018e-002
1.828264e+003;1.725652e-002
1.830192e+003;1.700508e-002
1.832121e+003;1.779611e-002
1.834049e+003;1.797931e-002
1.835978e+003;1.777485e-002
1.837906e+003;1.775862e-002
1.839835e+003;1.772345e-002
1.841763e+003;1.674508e-002
1.843692e+003;1.532545e-002
1.845620e+003;1.594118e-002
1.847549e+003;1.687275e-002
1.849478e+003;1.691109e-002
1.851406e+003;1.692815e-002
1.853335e+003;1.685615e-002
1.855263e+003;1.666650e-002
1.857192e+003;1.645883e-002
1.859120e+003;1.636155e-002
1.861049e+003;1.644524e-002
1.862977e+003;1.659644e-002
1.864906e+003;1.651896e-002
1.866834e+003;1.566236e-002
1.868763e+003;1.498937e-002
1.870692e+003;1.558350e-002
1.872620e+003;1.609052e-002
1.874549e+003;1.585677e-002
1.876477e+003;1.571970e-002
1.878406e+003;1.592320e-002
1.880334e+003;1.622230e-002
1.882263e+003;1.610087e-002
1.884191e+003;1.609585e-002
1.886120e+003;1.595829e-002
1.888048e+003;1.567243e-002
1.889977e+003;1.576722e-002
1.891906e+003;1.618436e-002
1.893834e+003;1.627393e-002
1.895763e+003;1.623650e-002
1.897691e+003;1.603630e-002
1.899620e+003;1.579051e-002
1.901548e+003;1.588825e-002
1.903477e+003;1.625281e-002
1.905405e+003;1.628779e-002
1.907334e+003;1.587556e-002
1.909262e+003;1.553752e-002
1.911191e+003;1.564011e-002
1.913120e+003;1.564292e-002
1.915048e+003;1.530152e-002
1.916977e+003;1.475120e-002
1.918905e+003;1.510264e-002
1.920834e+003;1.545205e-002
1.922762e+003;1.518618e-002
1.924691e+003;1.517993e-002
1.926619e+003;1.538068e-002
1.928548e+003;1.538686e-002
1.930477e+003;1.511351e-002
1.932405e+003;1.500878e-002
1.934334e+003;1.507800e-002
1.936262e+003;1.507581e-002
1.938191e+003;1.498560e-002
1.940119e+003;1.478332e-002
1.942048e+003;1.455295e-002
1.943976e+003;1.437745e-002
1.945905e+003;1.440444e-002
1.947833e+003;1.455610e-002
1.949762e+003;1.463313e-002
1.951691e+003;1.456679e-002
1.953619e+003;1.446110e-002
1.955548e+003;1.461384e-002
1.957476e+003;1.478141e-002
1.959405e+003;1.458752e-002
1.961333e+003;1.424732e-002
1.963262e+003;1.400197e-002
1.965190e+003;1.398534e-002
1.967119e+003;1.397973e-002
1.969047e+003;1.404930e-002
1.970976e+003;1.417841e-002
1.972905e+003;1.429756e-002
1.974833e+003;1.414702e-002
1.976762e+003;1.402654e-002
1.978690e+003;1.416437e-002
1.980619e+003;1.432187e-002
1.982547e+003;1.430656e-002
1.984476e+003;1.405915e-002
1.986404e+003;1.385676e-002
1.988333e+003;1.380942e-002
1.990261e+003;1.364165e-002
1.992190e+003;1.369366e-002
1.994119e+003;1.411799e-002
1.996047e+003;1.436266e-002
1.997976e+003;1.406394e-002
1.999904e+003;1.388328e-002
2.001833e+003;1.386347e-002
2.003761e+003;1.379259e-002
2.005690e+003;1.375193e-002
2.007618e+003;1.394831e-002
2.009547e+003;1.400556e-002
2.011476e+003;1.389758e-002
2.013404e+003;1.376116e-002
2.015333e+003;1.370658e-002
2.017261e+003;1.374095e-002
2.019190e+003;1.402034e-002
2.021118e+003;1.399533e-002
2.023047e+003;1.367806e-002
2.024975e+003;1.349612e-002
2.026904e+003;1.361994e-002
2.028833e+003;1.363064e-002
2.030761e+003;1.364705e-002
2.032690e+003;1.382950e-002
2.034618e+003;1.377146e-002
2.036547e+003;1.340289e-002
2.038475e+003;1.340654e-002
2.040404e+003;1.335823e-002
2.042332e+003;1.335115e-002
2.044261e+003;1.352497e-002
2.046189e+003;1.366131e-002
2.048118e+003;1.358038e-002
2.050047e+003;1.346744e-002
2.051975e+003;1.339527e-002
2.053904e+003;1.349434e-002
2.055832e+003;1.348573e-002
2.057761e+003;1.329239e-002
2.059689e+003;1.341413e-002
2.061618e+003;1.346966e-002
2.063546e+003;1.328897e-002
2.065475e+003;1.321696e-002
2.067404e+003;1.334497e-002
2.069332e+003;1.351396e-002
2.071260e+003;1.349133e-002
2.073189e+003;1.338949e-002
2.075118e+003;1.336619e-002
2.077046e+003;1.352562e-002
2.078975e+003;1.377614e-002
2.080903e+003;1.394349e-002
2.082832e+003;1.391612e-002
2.084760e+003;1.387127e-002
2.086689e+003;1.408588e-002
2.088617e+003;1.420888e-002
2.090546e+003;1.406737e-002
2.092475e+003;1.383436e-002
2.094403e+003;1.380976e-002
2.096332e+003;1.403051e-002
2.098260e+003;1.413764e-002
2.100189e+003;1.416304e-002
2.102117e+003;1.419511e-002
2.104046e+003;1.412891e-002
2.105974e+003;1.401771e-002
2.107903e+003;1.394910e-002
2.109832e+003;1.379902e-002
2.111760e+003;1.387616e-002
2.113688e+003;1.403711e-002
2.115617e+003;1.423763e-002
2.117546e+003;1.457107e-002
2.119474e+003;1.487332e-002
2.121403e+003;1.514772e-002
2.123331e+003;1.532538e-002
2.125260e+003;1.548113e-002
2.127188e+003;1.566484e-002
2.129117e+003;1.595933e-002
2.131045e+003;1.611768e-002
2.132974e+003;1.621504e-002
2.134903e+003;1.618646e-002
2.136831e+003;1.595053e-002
2.138760e+003;1.578488e-002
2.140688e+003;1.577048e-002
2.142617e+003;1.583556e-002
2.144545e+003;1.568761e-002
2.146474e+003;1.558999e-002
2.148402e+003;1.558563e-002
2.150331e+003;1.562444e-002
2.152260e+003;1.574897e-002
2.154188e+003;1.549992e-002
2.156117e+003;1.553480e-002
2.158045e+003;1.582580e-002
2.159974e+003;1.596912e-002
2.161902e+003;1.608037e-002
2.163831e+003;1.624689e-002
2.165759e+003;1.625625e-002
2.167688e+003;1.608330e-002
2.169616e+003;1.632484e-002
2.171545e+003;1.662112e-002
2.173474e+003;1.641107e-002
2.175402e+003;1.626850e-002
2.177331e+003;1.637542e-002
2.179259e+003;1.652646e-002
2.181188e+003;1.662167e-002
2.183116e+003;1.646069e-002
2.185045e+003;1.621016e-002
2.186973e+003;1.623166e-002
2.188902e+003;1.626939e-002
2.190831e+003;1.629698e-002
2.192759e+003;1.622306e-002
2.194688e+003;1.601557e-002
2.196616e+003;1.583645e-002
2.198545e+003;1.560806e-002
2.200473e+003;1.538905e-002
2.202402e+003;1.558845e-002
2.204330e+003;1.564917e-002
2.206259e+003;1.545696e-002
2.208188e+003;1.541061e-002
2.210116e+003;1.546596e-002
2.212044e+003;1.545857e-002
2.213973e+003;1.532421e-002
2.215902e+003;1.525540e-002
2.217830e+003;1.548776e-002
2.219759e+003;1.547341e-002
2.221687e+003;1.528350e-002
2.223616e+003;1.523326e-002
2.225544e+003;1.520564e-002
2.227473e+003;1.516738e-002
2.229401e+003;1.519562e-002
2.231330e+003;1.515894e-002
2.233259e+003;1.524318e-002
2.235187e+003;1.522925e-002
2.237116e+003;1.505135e-002
2.239044e+003;1.510476e-002
2.240973e+003;1.497740e-002
2.242901e+003;1.501472e-002
2.244830e+003;1.511341e-002
2.246758e+003;1.506538e-002
2.248687e+003;1.540594e-002
2.250615e+003;1.578072e-002
2.252544e+003;1.584910e-002
2.254473e+003;1.607817e-002
2.256401e+003;1.640443e-002
2.258330e+003;1.621883e-002
2.260258e+003;1.590852e-002
2.262187e+003;1.594826e-002
2.264115e+003;1.584243e-002
2.266044e+003;1.552917e-002
2.267972e+003;1.553062e-002
2.269901e+003;1.550795e-002
2.271830e+003;1.509149e-002
2.273758e+003;1.484246e-002
2.275687e+003;1.454239e-002
2.277615e+003;1.429252e-002
2.279544e+003;1.443828e-002
2.281472e+003;1.438071e-002
2.283401e+003;1.413870e-002
2.285329e+003;1.419700e-002
2.287258e+003;1.438971e-002
2.289187e+003;1.434581e-002
2.291115e+003;1.431735e-002
2.293043e+003;1.432249e-002
2.294972e+003;1.441331e-002
2.296901e+003;1.447329e-002
2.298829e+003;1.426054e-002
2.300758e+003;1.407627e-002
2.302686e+003;1.380508e-002
2.304615e+003;1.356736e-002
2.306543e+003;1.369208e-002
2.308472e+003;1.363190e-002
2.310400e+003;1.320869e-002
2.312329e+003;1.287425e-002
2.314258e+003;1.246798e-002
2.316186e+003;1.205748e-002
2.318115e+003;1.153858e-002
2.320043e+003;1.092617e-002
2.321972e+003;1.038031e-002
2.323900e+003;1.012990e-002
2.325829e+003;9.965509e-003
2.327757e+003;9.408770e-003
2.329686e+003;8.779131e-003
2.331615e+003;8.432169e-003
2.333543e+003;8.584121e-003
2.335472e+003;8.405042e-003
2.337400e+003;8.184538e-003
2.339329e+003;8.454332e-003
2.341257e+003;9.128603e-003
2.343186e+003;1.027454e-002
2.345114e+003;1.167698e-002
2.347043e+003;1.322499e-002
2.348971e+003;1.378045e-002
2.350900e+003;1.264246e-002
2.352829e+003;1.095002e-002
2.354757e+003;9.469315e-003
2.356686e+003;8.143618e-003
2.358614e+003;7.067127e-003
2.360543e+003;6.581094e-003
2.362471e+003;6.264186e-003
2.364400e+003;6.477327e-003
2.366328e+003;7.595176e-003
2.368257e+003;8.932658e-003
2.370186e+003;1.037546e-002
2.372114e+003;1.180325e-002
2.374042e+003;1.295013e-002
2.375971e+003;1.412833e-002
2.377900e+003;1.514566e-002
2.379828e+003;1.581975e-002
2.381757e+003;1.630847e-002
2.383685e+003;1.632529e-002
2.385614e+003;1.623871e-002
2.387542e+003;1.666505e-002
2.389471e+003;1.712659e-002
2.391399e+003;1.697882e-002
2.393328e+003;1.691412e-002
2.395257e+003;1.697800e-002
2.397185e+003;1.696284e-002
2.399114e+003;1.699791e-002
2.401042e+003;1.689487e-002
2.402971e+003;1.686025e-002
2.404899e+003;1.712256e-002
2.406828e+003;1.724100e-002
2.408756e+003;1.729834e-002
2.410685e+003;1.728496e-002
2.412614e+003;1.721505e-002
2.414542e+003;1.714500e-002
2.416471e+003;1.704867e-002
2.418399e+003;1.724697e-002
2.420328e+003;1.747533e-002
2.422256e+003;1.743532e-002
2.424185e+003;1.744925e-002
2.426113e+003;1.752197e-002
2.428042e+003;1.759829e-002
2.429970e+003;1.773864e-002
2.431899e+003;1.776570e-002
2.433828e+003;1.759097e-002
2.435756e+003;1.745405e-002
2.437685e+003;1.727486e-002
2.439613e+003;1.698541e-002
2.441542e+003;1.668048e-002
2.443470e+003;1.637514e-002
2.445399e+003;1.653510e-002
2.447327e+003;1.669366e-002
2.449256e+003;1.675255e-002
2.451185e+003;1.671501e-002
2.453113e+003;1.674225e-002
2.455042e+003;1.689387e-002
2.456970e+003;1.690782e-002
2.458899e+003;1.679236e-002
2.460827e+003;1.661689e-002
2.462756e+003;1.638440e-002
2.464684e+003;1.624318e-002
2.466613e+003;1.651428e-002
2.468542e+003;1.691509e-002
2.470470e+003;1.710757e-002
2.472398e+003;1.716672e-002
2.474327e+003;1.746436e-002
2.476256e+003;1.784247e-002
2.478184e+003;1.818035e-002
2.480113e+003;1.844996e-002
2.482041e+003;1.875489e-002
2.483970e+003;1.902770e-002
2.485898e+003;1.912467e-002
2.487827e+003;1.947554e-002
2.489755e+003;2.005190e-002
2.491684e+003;2.056069e-002
2.493613e+003;2.091223e-002
2.495541e+003;2.153253e-002
2.497470e+003;2.240588e-002
2.499398e+003;2.339749e-002
2.501327e+003;2.421140e-002
2.503255e+003;2.505555e-002
2.505184e+003;2.590275e-002
2.507112e+003;2.671285e-002
2.509041e+003;2.762830e-002
2.510969e+003;2.850891e-002
2.512898e+003;2.899586e-002
2.514827e+003;2.906877e-002
2.516755e+003;2.906686e-002
2.518684e+003;2.911702e-002
2.520612e+003;2.928592e-002
2.522541e+003;2.930996e-002
2.524469e+003;2.900731e-002
2.526398e+003;2.846744e-002
2.528326e+003;2.775423e-002
2.530255e+003;2.725424e-002
2.532184e+003;2.674079e-002
2.534112e+003;2.613681e-002
2.536041e+003;2.564524e-002
2.537969e+003;2.513215e-002
2.539898e+003;2.479205e-002
2.541826e+003;2.463674e-002
2.543755e+003;2.451886e-002
2.545683e+003;2.456041e-002
2.547612e+003;2.470748e-002
2.549541e+003;2.499129e-002
2.551469e+003;2.506545e-002
2.553397e+003;2.517527e-002
2.555326e+003;2.565491e-002
2.557255e+003;2.611502e-002
2.559183e+003;2.650684e-002
2.561112e+003;2.667272e-002
2.563040e+003;2.682703e-002
2.564969e+003;2.706532e-002
2.566897e+003;2.735833e-002
2.568826e+003;2.770881e-002
2.570754e+003;2.817988e-002
2.572683e+003;2.889050e-002
2.574612e+003;2.956536e-002
2.576540e+003;3.005804e-002
2.578469e+003;3.060191e-002
2.580397e+003;3.096044e-002
2.582326e+003;3.088693e-002
2.584254e+003;3.045631e-002
2.586183e+003;2.989225e-002
2.588111e+003;2.941535e-002
2.590040e+003;2.888958e-002
2.591969e+003;2.846585e-002
2.593897e+003;2.820427e-002
2.595826e+003;2.814915e-002
2.597754e+003;2.814887e-002
2.599683e+003;2.805378e-002
2.601611e+003;2.808050e-002
2.603540e+003;2.795942e-002
2.605468e+003;2.806654e-002
2.607397e+003;2.877085e-002
2.609325e+003;2.933030e-002
2.611254e+003;2.972418e-002
2.613183e+003;2.968576e-002
2.615111e+003;2.940897e-002
2.617040e+003;2.931963e-002
2.618968e+003;2.915175e-002
2.620897e+003;2.895853e-002
2.622825e+003;2.879287e-002
2.624754e+003;2.857151e-002
2.626682e+003;2.789681e-002
2.628611e+003;2.726493e-002
2.630540e+003;2.727117e-002
2.632468e+003;2.751638e-002
2.634396e+003;2.758557e-002
2.636325e+003;2.732325e-002
2.638254e+003;2.705276e-002
2.640182e+003;2.738462e-002
2.642111e+003;2.790232e-002
2.644039e+003;2.815831e-002
2.645968e+003;2.840363e-002
2.647896e+003;2.866303e-002
2.649825e+003;2.916656e-002
2.651753e+003;2.964403e-002
2.653682e+003;2.984341e-002
2.655611e+003;3.009785e-002
2.657539e+003;3.045884e-002
2.659468e+003;3.070215e-002
2.661396e+003;3.081486e-002
2.663325e+003;3.105307e-002
2.665253e+003;3.108357e-002
2.667182e+003;3.078807e-002
2.669110e+003;3.076005e-002
2.671039e+003;3.103445e-002
2.672968e+003;3.136545e-002
2.674896e+003;3.165787e-002
2.676825e+003;3.191031e-002
2.678753e+003;3.207402e-002
2.680682e+003;3.211434e-002
2.682610e+003;3.199623e-002
2.684539e+003;3.181201e-002
2.686467e+003;3.201299e-002
2.688396e+003;3.222235e-002
2.690324e+003;3.213022e-002
2.692253e+003;3.200468e-002
2.694182e+003;3.183354e-002
2.696110e+003;3.177393e-002
2.698039e+003;3.212222e-002
2.699967e+003;3.293297e-002
2.701896e+003;3.352863e-002
2.703824e+003;3.414252e-002
2.705753e+003;3.480547e-002
2.707681e+003;3.556183e-002
2.709610e+003;3.665337e-002
2.711539e+003;3.774975e-002
2.713467e+003;3.887290e-002
2.715396e+003;4.053390e-002
2.717324e+003;4.238192e-002
2.719253e+003;4.400049e-002
2.721181e+003;4.530883e-002
2.723110e+003;4.583256e-002
2.725038e+003;4.536897e-002
2.726967e+003;4.415540e-002
2.728896e+003;4.269148e-002
2.730824e+003;4.138279e-002
2.732752e+003;4.055503e-002
2.734681e+003;3.949437e-002
2.736610e+003;3.830378e-002
2.738538e+003;3.732445e-002
2.740467e+003;3.645707e-002
2.742395e+003;3.559984e-002
2.744324e+003;3.471687e-002
2.746252e+003;3.410682e-002
2.748181e+003;3.390509e-002
2.750109e+003;3.376801e-002
2.752038e+003;3.348160e-002
2.753967e+003;3.356797e-002
2.755895e+003;3.396682e-002
2.757824e+003;3.415783e-002
2.759752e+003;3.445448e-002
2.761681e+003;3.492646e-002
2.763609e+003;3.534216e-002
2.765538e+003;3.564804e-002
2.767466e+003;3.593743e-002
2.769395e+003;3.618722e-002
2.771323e+003;3.667601e-002
2.773252e+003;3.735568e-002
2.775181e+003;3.818607e-002
2.777109e+003;3.915593e-002
2.779038e+003;3.998737e-002
2.780966e+003;4.120835e-002
2.782895e+003;4.264439e-002
2.784823e+003;4.403521e-002
2.786752e+003;4.533542e-002
2.788680e+003;4.691356e-002
2.790609e+003;4.904546e-002
2.792538e+003;5.105079e-002
2.794466e+003;5.221377e-002
2.796395e+003;5.327068e-002
2.798323e+003;5.468003e-002
2.800252e+003;5.619164e-002
2.802180e+003;5.798551e-002
2.804109e+003;6.038562e-002
2.806037e+003;6.303576e-002
2.807966e+003;6.498931e-002
2.809895e+003;6.666464e-002
2.811823e+003;6.857312e-002
2.813751e+003;7.048858e-002
2.815680e+003;7.248911e-002
2.817609e+003;7.464845e-002
2.819537e+003;7.725219e-002
2.821466e+003;8.055691e-002
2.823394e+003;8.428828e-002
2.825323e+003;8.902217e-002
2.827251e+003;9.534036e-002
2.829180e+003;1.033322e-001
2.831108e+003;1.128765e-001
2.833037e+003;1.224934e-001
2.834966e+003;1.303129e-001
2.836894e+003;1.344016e-001
2.838823e+003;1.344946e-001
2.840751e+003;1.312212e-001
2.842680e+003;1.256976e-001
2.844608e+003;1.193502e-001
2.846537e+003;1.138371e-001
2.848465e+003;1.093354e-001
2.850394e+003;1.060851e-001
2.852323e+003;1.043138e-001
2.854251e+003;1.034160e-001
2.856180e+003;1.042012e-001
2.858108e+003;1.074377e-001
2.860037e+003;1.137088e-001
2.861965e+003;1.224533e-001
2.863894e+003;1.313769e-001
2.865822e+003;1.380715e-001
2.867751e+003;1.414353e-001
2.869679e+003;1.427043e-001
2.871608e+003;1.433875e-001
2.873536e+003;1.436054e-001
2.875465e+003;1.434398e-001
2.877394e+003;1.424240e-001
2.879322e+003;1.410191e-001
2.881251e+003;1.396281e-001
2.883179e+003;1.389160e-001
2.885108e+003;1.390614e-001
2.887036e+003;1.396716e-001
2.888965e+003;1.408136e-001
2.890893e+003;1.430324e-001
2.892822e+003;1.462746e-001
2.894750e+003;1.501775e-001
2.896679e+003;1.543950e-001
2.898608e+003;1.596583e-001
2.900536e+003;1.651015e-001
2.902465e+003;1.701562e-001
2.904393e+003;1.757787e-001
2.906322e+003;1.813252e-001
2.908250e+003;1.862588e-001
2.910179e+003;1.899023e-001
2.912107e+003;1.924848e-001
2.914036e+003;1.945621e-001
2.915965e+003;1.953211e-001
2.917893e+003;1.938213e-001
2.919822e+003;1.909894e-001
2.921750e+003;1.865753e-001
2.923679e+003;1.802830e-001
2.925607e+003;1.735655e-001
2.927536e+003;1.661543e-001
2.929464e+003;1.573235e-001
2.931393e+003;1.481373e-001
2.933322e+003;1.399301e-001
2.935250e+003;1.327747e-001
2.937178e+003;1.278537e-001
2.939107e+003;1.265656e-001
2.941036e+003;1.288026e-001
2.942964e+003;1.349171e-001
2.944893e+003;1.436574e-001
2.946821e+003;1.528116e-001
2.948750e+003;1.605706e-001
2.950678e+003;1.648203e-001
2.952607e+003;1.651877e-001
2.954535e+003;1.624679e-001
2.956464e+003;1.578059e-001
2.958393e+003;1.522457e-001
2.960321e+003;1.462309e-001
2.962250e+003;1.397515e-001
2.964178e+003;1.321020e-001
2.966107e+003;1.239212e-001
2.968035e+003;1.164869e-001
2.969964e+003;1.094689e-001
2.971892e+003;1.022823e-001
2.973821e+003;9.588853e-002
2.975750e+003;9.053867e-002
2.977678e+003;8.614639e-002
2.979607e+003;8.228846e-002
2.981535e+003;7.838047e-002
2.983464e+003;7.485615e-002
2.985392e+003;7.164008e-002
2.987321e+003;6.860238e-002
2.989249e+003;6.603020e-002
2.991178e+003;6.396120e-002
2.993106e+003;6.183194e-002
2.995035e+003;5.913622e-002
2.996964e+003;5.655959e-002
2.998892e+003;5.444177e-002
3.000821e+003;5.235594e-002
3.002749e+003;5.050249e-002
3.004678e+003;4.867266e-002
3.006606e+003;4.670708e-002
3.008535e+003;4.494507e-002
3.010463e+003;4.334278e-002
3.012392e+003;4.178669e-002
3.014321e+003;4.015623e-002
3.016249e+003;3.842634e-002
3.018177e+003;3.724758e-002
3.020106e+003;3.666097e-002
3.022035e+003;3.556913e-002
3.023963e+003;3.461277e-002
3.025892e+003;3.394808e-002
3.027820e+003;3.315893e-002
3.029749e+003;3.188742e-002
3.031677e+003;3.108820e-002
3.033606e+003;3.086964e-002
3.035534e+003;3.030493e-002
3.037463e+003;2.984689e-002
3.039392e+003;2.953085e-002
3.041320e+003;2.915933e-002
3.043249e+003;2.879153e-002
3.045177e+003;2.831662e-002
3.047106e+003;2.787307e-002
3.049034e+003;2.779503e-002
3.050963e+003;2.781336e-002
3.052891e+003;2.713818e-002
3.054820e+003;2.634204e-002
3.056749e+003;2.609412e-002
3.058677e+003;2.606351e-002
3.060606e+003;2.613508e-002
3.062534e+003;2.615387e-002
3.064463e+003;2.575169e-002
3.066391e+003;2.524532e-002
3.068320e+003;2.518889e-002
3.070248e+003;2.515395e-002
3.072177e+003;2.515220e-002
3.074105e+003;2.546250e-002
3.076034e+003;2.550242e-002
3.077963e+003;2.514858e-002
3.079891e+003;2.467066e-002
3.081820e+003;2.426476e-002
3.083748e+003;2.420051e-002
3.085677e+003;2.409532e-002
3.087605e+003;2.404117e-002
3.089534e+003;2.405578e-002
3.091462e+003;2.384577e-002
3.093391e+003;2.368558e-002
3.095320e+003;2.359777e-002
3.097248e+003;2.358975e-002
3.099177e+003;2.365360e-002
3.101105e+003;2.366620e-002
3.103034e+003;2.346792e-002
3.104962e+003;2.334606e-002
3.106891e+003;2.323782e-002
3.108819e+003;2.331498e-002
3.110748e+003;2.334934e-002
3.112677e+003;2.342673e-002
3.114605e+003;2.354928e-002
3.116533e+003;2.317704e-002
3.118462e+003;2.315037e-002
3.120391e+003;2.365735e-002
3.122319e+003;2.367316e-002
3.124248e+003;2.362712e-002
3.126176e+003;2.384906e-002
3.128105e+003;2.376163e-002
3.130033e+003;2.399281e-002
3.131962e+003;2.443452e-002
3.133890e+003;2.427317e-002
3.135819e+003;2.411658e-002
3.137748e+003;2.417294e-002
3.139676e+003;2.431343e-002
3.141605e+003;2.452093e-002
3.143533e+003;2.449215e-002
3.145462e+003;2.449327e-002
3.147390e+003;2.476381e-002
3.149319e+003;2.494145e-002
3.151247e+003;2.508929e-002
3.153176e+003;2.493405e-002
3.155104e+003;2.454978e-002
3.157033e+003;2.412102e-002
3.158962e+003;2.394635e-002
3.160890e+003;2.424244e-002
3.162819e+003;2.452500e-002
3.164747e+003;2.438818e-002
3.166676e+003;2.444072e-002
3.168604e+003;2.419795e-002
3.170533e+003;2.355963e-002
3.172461e+003;2.338882e-002
3.174390e+003;2.372632e-002
3.176319e+003;2.381507e-002
3.178247e+003;2.362600e-002
3.180176e+003;2.358587e-002
3.182104e+003;2.361186e-002
3.184033e+003;2.417889e-002
3.185961e+003;2.466164e-002
3.187890e+003;2.496760e-002
3.189818e+003;2.489401e-002
3.191747e+003;2.488885e-002
3.193676e+003;2.469749e-002
3.195604e+003;2.434893e-002
3.197532e+003;2.430961e-002
3.199461e+003;2.417371e-002
3.201390e+003;2.380072e-002
3.203318e+003;2.352577e-002
3.205247e+003;2.377545e-002
3.207175e+003;2.419497e-002
3.209104e+003;2.365535e-002
3.211032e+003;2.303052e-002
3.212961e+003;2.307727e-002
3.214889e+003;2.281004e-002
3.216818e+003;2.237340e-002
3.218747e+003;2.211958e-002
3.220675e+003;2.174316e-002
3.222604e+003;2.154559e-002
3.224532e+003;2.150488e-002
3.226461e+003;2.159750e-002
3.228389e+003;2.171404e-002
3.230318e+003;2.130794e-002
3.232246e+003;2.099370e-002
3.234175e+003;2.062361e-002
3.236104e+003;2.035962e-002
3.238032e+003;2.010527e-002
3.239961e+003;1.967873e-002
3.241889e+003;1.974634e-002
3.243818e+003;1.975712e-002
3.245746e+003;1.927702e-002
3.247675e+003;1.919338e-002
3.249603e+003;1.938427e-002
3.251532e+003;1.924941e-002
3.253460e+003;1.912055e-002
3.255389e+003;1.914330e-002
3.257318e+003;1.895729e-002
3.259246e+003;1.911578e-002
3.261175e+003;1.942031e-002
3.263103e+003;1.941500e-002
3.265032e+003;1.920103e-002
3.266960e+003;1.885710e-002
3.268889e+003;1.914493e-002
3.270817e+003;1.901832e-002
3.272746e+003;1.860179e-002
3.274675e+003;1.877028e-002
3.276603e+003;1.893424e-002
3.278531e+003;1.885658e-002
3.280460e+003;1.859221e-002
3.282389e+003;1.864866e-002
3.284317e+003;1.880866e-002
3.286246e+003;1.861556e-002
3.288174e+003;1.855480e-002
3.290103e+003;1.873811e-002
3.292031e+003;1.880433e-002
3.293960e+003;1.896228e-002
3.295888e+003;1.883364e-002
3.297817e+003;1.885866e-002
3.299746e+003;1.891219e-002
3.301674e+003;1.894476e-002
3.303603e+003;1.897245e-002
3.305531e+003;1.857876e-002
3.307460e+003;1.852516e-002
3.309388e+003;1.872465e-002
3.311317e+003;1.867149e-002
3.313245e+003;1.857551e-002
3.315174e+003;1.837042e-002
3.317103e+003;1.830340e-002
3.319031e+003;1.798290e-002
3.320960e+003;1.729158e-002
3.322888e+003;1.721849e-002
3.324817e+003;1.778134e-002
3.326745e+003;1.813077e-002
3.328674e+003;1.826490e-002
3.330602e+003;1.827655e-002
3.332531e+003;1.827503e-002
3.334459e+003;1.834578e-002
3.336388e+003;1.830382e-002
3.338317e+003;1.854380e-002
3.340245e+003;1.886838e-002
3.342174e+003;1.857278e-002
3.344102e+003;1.849560e-002
3.346031e+003;1.900693e-002
3.347959e+003;1.902109e-002
3.349888e+003;1.840571e-002
3.351816e+003;1.842960e-002
3.353745e+003;1.886883e-002
3.355674e+003;1.840582e-002
3.357602e+003;1.800138e-002
3.359531e+003;1.786464e-002
3.361459e+003;1.800877e-002
3.363388e+003;1.813613e-002
3.365316e+003;1.779677e-002
3.367245e+003;1.765453e-002
3.369173e+003;1.775759e-002
3.371102e+003;1.786940e-002
3.373031e+003;1.797348e-002
3.374959e+003;1.819569e-002
3.376887e+003;1.843599e-002
3.378816e+003;1.846109e-002
3.380745e+003;1.824006e-002
3.382673e+003;1.778727e-002
3.384602e+003;1.730727e-002
3.386530e+003;1.730331e-002
3.388459e+003;1.762141e-002
3.390387e+003;1.747881e-002
3.392316e+003;1.695843e-002
3.394244e+003;1.709782e-002
3.396173e+003;1.766958e-002
3.398102e+003;1.775686e-002
3.400030e+003;1.758197e-002
3.401959e+003;1.755481e-002
3.403887e+003;1.725490e-002
3.405816e+003;1.699399e-002
3.407744e+003;1.687461e-002
3.409673e+003;1.747457e-002
3.411601e+003;1.783446e-002
3.413530e+003;1.764380e-002
3.415458e+003;1.749247e-002
3.417387e+003;1.704564e-002
3.419316e+003;1.677015e-002
3.421244e+003;1.693011e-002
3.423173e+003;1.700553e-002
3.425101e+003;1.689401e-002
3.427030e+003;1.706215e-002
3.428958e+003;1.710043e-002
3.430887e+003;1.716454e-002
3.432815e+003;1.718205e-002
3.434744e+003;1.694547e-002
3.436673e+003;1.657885e-002
3.438601e+003;1.642115e-002
3.440530e+003;1.634934e-002
3.442458e+003;1.635058e-002
3.444387e+003;1.621714e-002
3.446315e+003;1.597228e-002
3.448244e+003;1.600426e-002
3.450172e+003;1.592011e-002
3.452101e+003;1.568291e-002
3.454030e+003;1.588144e-002
3.455958e+003;1.580814e-002
3.457886e+003;1.555716e-002
3.459815e+003;1.534590e-002
3.461744e+003;1.531961e-002
3.463672e+003;1.533804e-002
3.465601e+003;1.492328e-002
3.467529e+003;1.473040e-002
3.469458e+003;1.462895e-002
3.471386e+003;1.448419e-002
3.473315e+003;1.448179e-002
3.475243e+003;1.436738e-002
3.477172e+003;1.456655e-002
3.479101e+003;1.478041e-002
3.481029e+003;1.475131e-002
3.482958e+003;1.471724e-002
3.484886e+003;1.474562e-002
3.486815e+003;1.424750e-002
3.488743e+003;1.380949e-002
3.490672e+003;1.416362e-002
3.492600e+003;1.438762e-002
3.494529e+003;1.417978e-002
3.496458e+003;1.401059e-002
3.498386e+003;1.399259e-002
3.500315e+003;1.387424e-002
3.502243e+003;1.336390e-002
3.504172e+003;1.348269e-002
3.506100e+003;1.409742e-002
3.508029e+003;1.398171e-002
3.509957e+003;1.377823e-002
3.511886e+003;1.378945e-002
3.513814e+003;1.363751e-002
3.515743e+003;1.346177e-002
3.517672e+003;1.373144e-002
3.519600e+003;1.402165e-002
3.521529e+003;1.342390e-002
3.523457e+003;1.280832e-002
3.525386e+003;1.303582e-002
3.527314e+003;1.302230e-002
3.529243e+003;1.258434e-002
3.531171e+003;1.253355e-002
3.533100e+003;1.282087e-002
3.535029e+003;1.301657e-002
3.536957e+003;1.318762e-002
3.538885e+003;1.332624e-002
3.540814e+003;1.290774e-002
3.542743e+003;1.216331e-002
3.544671e+003;1.194715e-002
3.546600e+003;1.228725e-002
3.548528e+003;1.262489e-002
3.550457e+003;1.261036e-002
3.552385e+003;1.229540e-002
3.554314e+003;1.210187e-002
3.556242e+003;1.219534e-002
3.558171e+003;1.173386e-002
3.560100e+003;1.138212e-002
3.562028e+003;1.130682e-002
3.563957e+003;1.104606e-002
3.565885e+003;1.049071e-002
3.567814e+003;1.031828e-002
3.569742e+003;1.081854e-002
3.571671e+003;1.116183e-002
3.573599e+003;1.155818e-002
3.575528e+003;1.223831e-002
3.577457e+003;1.237779e-002
3.579385e+003;1.191391e-002
3.581314e+003;1.143767e-002
3.583242e+003;1.134090e-002
3.585171e+003;1.078912e-002
3.587099e+003;9.508904e-003
3.589028e+003;9.412257e-003
3.590956e+003;1.029046e-002
3.592885e+003;1.057015e-002
3.594813e+003;1.067497e-002
3.596742e+003;1.086847e-002
3.598671e+003;1.097992e-002
3.600599e+003;1.084215e-002
3.602528e+003;1.077231e-002
3.604456e+003;1.081300e-002
3.606385e+003;1.026189e-002
3.608313e+003;9.601542e-003
3.610242e+003;9.920013e-003
3.612170e+003;1.000884e-002
3.614099e+003;1.052072e-002
3.616028e+003;1.069293e-002
3.617956e+003;1.012227e-002
3.619885e+003;1.050521e-002
3.621813e+003;1.155917e-002
3.623742e+003;1.135579e-002
3.625670e+003;9.997413e-003
3.627599e+003;7.706866e-003
3.629527e+003;7.690509e-003
3.631456e+003;9.860829e-003
3.633385e+003;1.068006e-002
3.635313e+003;1.102713e-002
3.637241e+003;1.124088e-002
3.639170e+003;1.114786e-002
3.641099e+003;1.120722e-002
3.643027e+003;1.156597e-002
3.644956e+003;1.085665e-002
3.646884e+003;8.548874e-003
3.648813e+003;7.031295e-003
3.650741e+003;8.382950e-003
3.652670e+003;1.019306e-002
3.654598e+003;9.657201e-003
3.656527e+003;9.522350e-003
3.658456e+003;1.069083e-002
3.660384e+003;1.120250e-002
3.662313e+003;1.184370e-002
3.664241e+003;1.248329e-002
3.666170e+003;1.190175e-002
3.668098e+003;9.424447e-003
3.670027e+003;7.829044e-003
3.671955e+003;9.173948e-003
3.673884e+003;7.741944e-003
3.675813e+003;7.195558e-003
3.677741e+003;1.027933e-002
3.679669e+003;1.135056e-002
3.681598e+003;1.178847e-002
3.683527e+003;1.212988e-002
3.685455e+003;1.117251e-002
3.687384e+003;9.039281e-003
3.689312e+003;1.009294e-002
3.691241e+003;1.285476e-002
3.693169e+003;1.431009e-002
3.695098e+003;1.458821e-002
3.697026e+003;1.456367e-002
3.698955e+003;1.406603e-002
3.700884e+003;1.301588e-002
3.702812e+003;1.245434e-002
3.704741e+003;1.248642e-002
3.706669e+003;1.208460e-002
3.708598e+003;1.068169e-002
3.710526e+003;8.664190e-003
3.712455e+003;8.890416e-003
3.714383e+003;1.102682e-002
3.716312e+003;1.180165e-002
3.718240e+003;1.152092e-002
3.720169e+003;1.083338e-002
3.722098e+003;1.028428e-002
3.724026e+003;1.008910e-002
3.725955e+003;1.025867e-002
3.727883e+003;1.093629e-002
3.729812e+003;1.053505e-002
3.731740e+003;9.007548e-003
3.733669e+003;8.668449e-003
3.735597e+003;8.391192e-003
3.737526e+003;9.290514e-003
3.739455e+003;1.049930e-002
3.741383e+003;9.438330e-003
3.743312e+003;5.231204e-003
3.745240e+003;6.104979e-003
3.747169e+003;8.520151e-003
3.749097e+003;7.210011e-003
3.751026e+003;6.889783e-003
3.752954e+003;8.703301e-003
3.754883e+003;1.106315e-002
3.756812e+003;1.143291e-002
3.758740e+003;1.142379e-002
3.760668e+003;1.162736e-002
3.762597e+003;1.219002e-002
3.764526e+003;1.176239e-002
3.766454e+003;1.121134e-002
3.768383e+003;1.056727e-002
3.770311e+003;1.088787e-002
3.772240e+003;1.203864e-002
3.774168e+003;1.231565e-002
3.776097e+003;1.223695e-002
3.778025e+003;1.180410e-002
3.779954e+003;1.171453e-002
3.781883e+003;1.231463e-002
3.783811e+003;1.230246e-002
3.785740e+003;1.204862e-002
3.787668e+003;1.231074e-002
3.789597e+003;1.276085e-002
3.791525e+003;1.263274e-002
3.793454e+003;1.251047e-002
3.795382e+003;1.203217e-002
3.797311e+003;1.168076e-002
3.799240e+003;9.929404e-003
3.801168e+003;8.385112e-003
3.803097e+003;1.051940e-002
3.805025e+003;1.069083e-002
3.806954e+003;9.917844e-003
3.808882e+003;1.176437e-002
3.810811e+003;1.299321e-002
3.812739e+003;1.212535e-002
3.814668e+003;9.238116e-003
3.816596e+003;9.410936e-003
3.818525e+003;1.064532e-002
3.820454e+003;9.315022e-003
3.822382e+003;1.041431e-002
3.824311e+003;1.226547e-002
3.826239e+003;1.225133e-002
3.828168e+003;1.230692e-002
3.830096e+003;1.209659e-002
3.832025e+003;1.150418e-002
3.833953e+003;1.097088e-002
3.835882e+003;9.140683e-003
3.837811e+003;8.332587e-003
3.839739e+003;1.009304e-002
3.841667e+003;1.074693e-002
3.843596e+003;1.119559e-002
3.845525e+003;1.220808e-002
3.847453e+003;1.253314e-002
3.849382e+003;1.075654e-002
3.851310e+003;6.501879e-003
3.853239e+003;3.961962e-003
3.855167e+003;7.836534e-003
3.857096e+003;1.169799e-002
3.859024e+003;1.251943e-002
3.860953e+003;1.188187e-002
3.862882e+003;1.144672e-002
3.864810e+003;1.153171e-002
3.866739e+003;1.205660e-002
3.868667e+003;1.079567e-002
3.870596e+003;1.067032e-002
3.872524e+003;1.190220e-002
3.874453e+003;1.185670e-002
3.876381e+003;1.235076e-002
3.878310e+003;1.239099e-002
3.880239e+003;1.214399e-002
3.882167e+003;1.257366e-002
3.884096e+003;1.213669e-002
3.886024e+003;1.195393e-002
3.887953e+003;1.342985e-002
3.889881e+003;1.312857e-002
3.891810e+003;1.261968e-002
3.893738e+003;1.343822e-002
3.895667e+003;1.350788e-002
3.897595e+003;1.220563e-002
3.899524e+003;1.128295e-002
3.901453e+003;1.101418e-002
3.903381e+003;1.078739e-002
3.905310e+003;1.206709e-002
3.907238e+003;1.363300e-002
3.909167e+003;1.428574e-002
3.911095e+003;1.463508e-002
3.913024e+003;1.469345e-002
3.914952e+003;1.416889e-002
3.916881e+003;1.382642e-002
3.918810e+003;1.420508e-002
3.920738e+003;1.444835e-002
3.922667e+003;1.445133e-002
3.924595e+003;1.484898e-002
3.926524e+003;1.574839e-002
3.928452e+003;1.558584e-002
3.930381e+003;1.473170e-002
3.932309e+003;1.412418e-002
3.934238e+003;1.442849e-002
3.936167e+003;1.467021e-002
3.938095e+003;1.477969e-002
3.940023e+003;1.464149e-002
3.941952e+003;1.427718e-002
3.943881e+003;1.435115e-002
3.945809e+003;1.444400e-002
3.947738e+003;1.412117e-002
3.949666e+003;1.387623e-002
3.951595e+003;1.403407e-002
3.953523e+003;1.454832e-002
3.955452e+003;1.506891e-002
3.957380e+003;1.540011e-002
3.959309e+003;1.525920e-002
3.961238e+003;1.476656e-002
3.963166e+003;1.468906e-002
3.965095e+003;1.468231e-002
3.967023e+003;1.441636e-002
3.968952e+003;1.475408e-002
3.970880e+003;1.523443e-002
3.972809e+003;1.491190e-002
3.974737e+003;1.479882e-002
3.976666e+003;1.508963e-002
3.978594e+003;1.544017e-002
3.980523e+003;1.553525e-002
3.982452e+003;1.571396e-002
3.984380e+003;1.574365e-002
3.986309e+003;1.586649e-002
3.988237e+003;1.645325e-002
3.990166e+003;1.695199e-002
3.992094e+003;1.677924e-002
3.994023e+003;1.654346e-002
3.995951e+003;1.633203e-002
3.997880e+003;1.620080e-002
3.999809e+003;1.649005e-002
4.001737e+003;0.000000e+000
