3.992094e+002;0.000000e+000
4.011380e+002;0.000000e+000
4.030665e+002;0.000000e+000
4.049951e+002;0.000000e+000
4.069236e+002;0.000000e+000
4.088522e+002;0.000000e+000
4.107807e+002;0.000000e+000
4.127093e+002;0.000000e+000
4.146378e+002;0.000000e+000
4.165664e+002;0.000000e+000
4.184949e+002;0.000000e+000
4.204235e+002;0.000000e+000
4.223520e+002;0.000000e+000
4.242806e+002;0.000000e+000
4.262091e+002;0.000000e+000
4.281377e+002;0.000000e+000
4.300662e+002;0.000000e+000
4.319948e+002;0.000000e+000
4.339233e+002;0.000000e+000
4.358519e+002;0.000000e+000
4.377804e+002;0.000000e+000
4.397090e+002;0.000000e+000
4.416375e+002;0.000000e+000
4.435660e+002;0.000000e+000
4.454946e+002;0.000000e+000
4.474232e+002;0.000000e+000
4.493517e+002;0.000000e+000
4.512802e+002;0.000000e+000
4.532088e+002;0.000000e+000
4.551373e+002;0.000000e+000
4.570659e+002;0.000000e+000
4.589944e+002;0.000000e+000
4.609230e+002;0.000000e+000
4.628515e+002;0.000000e+000
4.647801e+002;0.000000e+000
4.667086e+002;0.000000e+000
4.686372e+002;0.000000e+000
4.705657e+002;0.000000e+000
4.724943e+002;0.000000e+000
4.744228e+002;0.000000e+000
4.763513e+002;0.000000e+000
4.782799e+002;0.000000e+000
4.802085e+002;0.000000e+000
4.821370e+002;0.000000e+000
4.840656e+002;0.000000e+000
4.859941e+002;0.000000e+000
4.879226e+002;0.000000e+000
4.898512e+002;0.000000e+000
4.917798e+002;0.000000e+000
4.937083e+002;0.000000e+000
4.956368e+002;0.000000e+000
4.975654e+002;0.000000e+000
4.994939e+002;0.000000e+000
5.014225e+002;0.000000e+000
5.033510e+002;0.000000e+000
5.052796e+002;0.000000e+000
5.072081e+002;0.000000e+000
5.091367e+002;0.000000e+000
5.110652e+002;0.000000e+000
5.129938e+002;0.000000e+000
5.149223e+002;0.000000e+000
5.168509e+002;0.000000e+000
5.187794e+002;0.000000e+000
5.207079e+002;0.000000e+000
5.226365e+002;0.000000e+000
5.245651e+002;0.000000e+000
5.264936e+002;0.000000e+000
5.284222e+002;0.000000e+000
5.303507e+002;0.000000e+000
5.322792e+002;0.000000e+000
5.342078e+002;0.000000e+000
5.361364e+002;0.000000e+000
5.380649e+002;0.000000e+000
5.399935e+002;0.000000e+000
5.419220e+002;0.000000e+000
5.438505e+002;0.000000e+000
5.457791e+002;0.000000e+000
5.477076e+002;0.000000e+000
5.496362e+002;0.000000e+000
5.515648e+002;0.000000e+000
5.534933e+002;0.000000e+000
5.554218e+002;0.000000e+000
5.573504e+002;0.000000e+000
5.592789e+002;0.000000e+000
5.612075e+002;0.000000e+000
5.631360e+002;0.000000e+000
5.650646e+002;0.000000e+000
5.669931e+002;0.000000e+000
5.689217e+002;0.000000e+000
5.708502e+002;0.000000e+000
5.727787e+002;0.000000e+000
5.747073e+002;0.000000e+000
5.766359e+002;0.000000e+000
5.785644e+002;0.000000e+000
5.804930e+002;0.000000e+000
5.824215e+002;0.000000e+000
5.843500e+002;0.000000e+000
5.862786e+002;0.000000e+000
5.882072e+002;0.000000e+000
5.901357e+002;0.000000e+000
5.920643e+002;0.000000e+000
5.939928e+002;0.000000e+000
5.959213e+002;0.000000e+000
5.978499e+002;0.000000e+000
5.997784e+002;3.501032e-002
6.017070e+002;3.279534e-002
6.036355e+002;3.684647e-002
6.055641e+002;4.489205e-002
6.074926e+002;5.052605e-002
6.094211e+002;4.893215e-002
6.113497e+002;4.541969e-002
6.132783e+002;4.903745e-002
6.152068e+002;5.411644e-002
6.171354e+002;4.997406e-002
6.190639e+002;4.676700e-002
6.209924e+002;4.701849e-002
6.229210e+002;4.663318e-002
6.248495e+002;4.801658e-002
6.267781e+002;4.735709e-002
6.287067e+002;4.569093e-002
6.306352e+002;4.484219e-002
6.325637e+002;4.445246e-002
6.344923e+002;4.451777e-002
6.364208e+002;4.156819e-002
6.383494e+002;4.203396e-002
6.402780e+002;4.586475e-002
6.422065e+002;5.037589e-002
6.441350e+002;5.210467e-002
6.460636e+002;5.007337e-002
6.479921e+002;4.669989e-002
6.499207e+002;4.538155e-002
6.518492e+002;4.296296e-002
6.537778e+002;4.252039e-002
6.557063e+002;4.439025e-002
6.576349e+002;4.612407e-002
6.595634e+002;4.665130e-002
6.614919e+002;4.857965e-002
6.634205e+002;4.827823e-002
6.653491e+002;4.439271e-002
6.672776e+002;4.328530e-002
6.692062e+002;4.417697e-002
6.711347e+002;4.382504e-002
6.730632e+002;4.276851e-002
6.749918e+002;4.142029e-002
6.769203e+002;4.229684e-002
6.788489e+002;4.434717e-002
6.807775e+002;4.585359e-002
6.827060e+002;4.544769e-002
6.846345e+002;4.467738e-002
6.865631e+002;4.466853e-002
6.884916e+002;4.524999e-002
6.904202e+002;4.395547e-002
6.923488e+002;4.267166e-002
6.942773e+002;4.314029e-002
6.962058e+002;4.454152e-002
6.981344e+002;4.536235e-002
7.000629e+002;4.499251e-002
7.019915e+002;4.464407e-002
7.039200e+002;4.445511e-002
7.058486e+002;4.430321e-002
7.077771e+002;4.487783e-002
7.097057e+002;4.460331e-002
7.116342e+002;4.479109e-002
7.135627e+002;4.515005e-002
7.154913e+002;4.454640e-002
7.174199e+002;4.530217e-002
7.193484e+002;4.706531e-002
7.212770e+002;4.622397e-002
7.232055e+002;4.473331e-002
7.251340e+002;4.451652e-002
7.270626e+002;4.455514e-002
7.289911e+002;4.425184e-002
7.309197e+002;4.430820e-002
7.328483e+002;4.380330e-002
7.347768e+002;4.268482e-002
7.367053e+002;4.195413e-002
7.386339e+002;4.157031e-002
7.405624e+002;4.222026e-002
7.424910e+002;4.203669e-002
7.444196e+002;4.080793e-002
7.463481e+002;4.030829e-002
7.482766e+002;4.044482e-002
7.502052e+002;4.045417e-002
7.521337e+002;4.082555e-002
7.540623e+002;4.123578e-002
7.559908e+002;3.952768e-002
7.579194e+002;3.835789e-002
7.598479e+002;3.884460e-002
7.617765e+002;3.903284e-002
7.637050e+002;3.902519e-002
7.656335e+002;3.965374e-002
7.675621e+002;3.999602e-002
7.694907e+002;3.981350e-002
7.714192e+002;3.890950e-002
7.733478e+002;3.859223e-002
7.752763e+002;3.835264e-002
7.772048e+002;3.746652e-002
7.791334e+002;3.689004e-002
7.810620e+002;3.786626e-002
7.829905e+002;3.880391e-002
7.849191e+002;3.918820e-002
7.868476e+002;3.953404e-002
7.887761e+002;4.013988e-002
7.907047e+002;4.113017e-002
7.926332e+002;4.248743e-002
7.945618e+002;4.410497e-002
7.964903e+002;4.585558e-002
7.984189e+002;4.627756e-002
8.003474e+002;4.699441e-002
8.022759e+002;4.902410e-002
8.042045e+002;5.174593e-002
8.061331e+002;5.403677e-002
8.080616e+002;5.582841e-002
8.099902e+002;5.569858e-002
8.119187e+002;5.431859e-002
8.138472e+002;5.130726e-002
8.157758e+002;4.771060e-002
8.177043e+002;4.535275e-002
8.196329e+002;4.392800e-002
8.215615e+002;4.298421e-002
8.234900e+002;4.288684e-002
8.254185e+002;4.335585e-002
8.273471e+002;4.314121e-002
8.292756e+002;4.265653e-002
8.312042e+002;4.388706e-002
8.331328e+002;4.589056e-002
8.350613e+002;4.710360e-002
8.369898e+002;4.950914e-002
8.389184e+002;5.550204e-002
8.408469e+002;6.028987e-002
8.427755e+002;5.915042e-002
8.447040e+002;5.435186e-002
8.466326e+002;4.915420e-002
8.485611e+002;4.494988e-002
8.504897e+002;4.224433e-002
8.524182e+002;4.140061e-002
8.543467e+002;4.079373e-002
8.562753e+002;3.963919e-002
8.582039e+002;3.906942e-002
8.601324e+002;3.852003e-002
8.620610e+002;3.791890e-002
8.639895e+002;3.821089e-002
8.659180e+002;3.891791e-002
8.678466e+002;3.891363e-002
8.697751e+002;3.885229e-002
8.717037e+002;3.924053e-002
8.736323e+002;3.937166e-002
8.755608e+002;3.916130e-002
8.774893e+002;3.884953e-002
8.794179e+002;3.819885e-002
8.813464e+002;3.732922e-002
8.832750e+002;3.670658e-002
8.852036e+002;3.667100e-002
8.871321e+002;3.724376e-002
8.890606e+002;3.774737e-002
8.909892e+002;3.883573e-002
8.929177e+002;4.143808e-002
8.948463e+002;4.565298e-002
8.967748e+002;5.051216e-002
8.987034e+002;5.333189e-002
9.006319e+002;5.256397e-002
9.025605e+002;4.868416e-002
9.044890e+002;4.385924e-002
9.064175e+002;4.004972e-002
9.083461e+002;3.777903e-002
9.102747e+002;3.611995e-002
9.122032e+002;3.507874e-002
9.141318e+002;3.463882e-002
9.160603e+002;3.436220e-002
9.179888e+002;3.422677e-002
9.199174e+002;3.441929e-002
9.218459e+002;3.426646e-002
9.237745e+002;3.388775e-002
9.257031e+002;3.362073e-002
9.276316e+002;3.417654e-002
9.295601e+002;3.488581e-002
9.314887e+002;3.543767e-002
9.334172e+002;3.638086e-002
9.353458e+002;3.768037e-002
9.372744e+002;3.893759e-002
9.392029e+002;4.043799e-002
9.411314e+002;4.148634e-002
9.430600e+002;4.162347e-002
9.449885e+002;4.144358e-002
9.469171e+002;4.119942e-002
9.488456e+002;4.108763e-002
9.507742e+002;4.151219e-002
9.527027e+002;4.209327e-002
9.546313e+002;4.276950e-002
9.565598e+002;4.362258e-002
9.584883e+002;4.481126e-002
9.604169e+002;4.663787e-002
9.623455e+002;4.905244e-002
9.642740e+002;5.186875e-002
9.662026e+002;5.600407e-002
9.681311e+002;6.255114e-002
9.700596e+002;7.023763e-002
9.719882e+002;7.629111e-002
9.739167e+002;7.805511e-002
9.758453e+002;7.450112e-002
9.777739e+002;6.798703e-002
9.797024e+002;6.098041e-002
9.816309e+002;5.542061e-002
9.835595e+002;5.151013e-002
9.854880e+002;4.956552e-002
9.874166e+002;4.971834e-002
9.893452e+002;5.133717e-002
9.912737e+002;5.483429e-002
9.932022e+002;6.020757e-002
9.951307e+002;6.633320e-002
9.970593e+002;7.096373e-002
9.989879e+002;7.137717e-002
1.000916e+003;6.754777e-002
1.002845e+003;6.191022e-002
1.004773e+003;5.747975e-002
1.006702e+003;5.491707e-002
1.008631e+003;5.344193e-002
1.010559e+003;5.234529e-002
1.012488e+003;5.145230e-002
1.014416e+003;5.064588e-002
1.016345e+003;5.035728e-002
1.018273e+003;5.040525e-002
1.020202e+003;5.056216e-002
1.022130e+003;5.096013e-002
1.024059e+003;5.120581e-002
1.025988e+003;5.153728e-002
1.027916e+003;5.194362e-002
1.029845e+003;5.270341e-002
1.031773e+003;5.410571e-002
1.033702e+003;5.568341e-002
1.035630e+003;5.681862e-002
1.037559e+003;5.748240e-002
1.039487e+003;5.794507e-002
1.041416e+003;5.825869e-002
1.043344e+003;5.856188e-002
1.045273e+003;5.868460e-002
1.047202e+003;5.806356e-002
1.049130e+003;5.672969e-002
1.051059e+003;5.576692e-002
1.052987e+003;5.540232e-002
1.054916e+003;5.492046e-002
1.056844e+003;5.485083e-002
1.058773e+003;5.515677e-002
1.060701e+003;5.488576e-002
1.062630e+003;5.418535e-002
1.064558e+003;5.399422e-002
1.066487e+003;5.420048e-002
1.068416e+003;5.420315e-002
1.070344e+003;5.453718e-002
1.072273e+003;5.484974e-002
1.074201e+003;5.472660e-002
1.076130e+003;5.416381e-002
1.078058e+003;5.417446e-002
1.079987e+003;5.513514e-002
1.081915e+003;5.583689e-002
1.083844e+003;5.603313e-002
1.085773e+003;5.640438e-002
1.087701e+003;5.692350e-002
1.089630e+003;5.781453e-002
1.091558e+003;5.839618e-002
1.093487e+003;5.899777e-002
1.095415e+003;6.007347e-002
1.097344e+003;6.151931e-002
1.099272e+003;6.295386e-002
1.101201e+003;6.419284e-002
1.103129e+003;6.429664e-002
1.105058e+003;6.320589e-002
1.106987e+003;6.178705e-002
1.108915e+003;6.015654e-002
1.110844e+003;5.815140e-002
1.112772e+003;5.634979e-002
1.114701e+003;5.539189e-002
1.116629e+003;5.458147e-002
1.118558e+003;5.427962e-002
1.120486e+003;5.405894e-002
1.122415e+003;5.335470e-002
1.124344e+003;5.274819e-002
1.126272e+003;5.268212e-002
1.128201e+003;5.246207e-002
1.130129e+003;5.229558e-002
1.132058e+003;5.325562e-002
1.133986e+003;5.473614e-002
1.135915e+003;5.578241e-002
1.137843e+003;5.742257e-002
1.139772e+003;6.043768e-002
1.141700e+003;6.370056e-002
1.143629e+003;6.710824e-002
1.145557e+003;7.018575e-002
1.147486e+003;7.273333e-002
1.149415e+003;7.494736e-002
1.151343e+003;7.744145e-002
1.153272e+003;7.953441e-002
1.155200e+003;8.031490e-002
1.157129e+003;8.064124e-002
1.159057e+003;8.135010e-002
1.160986e+003;8.184946e-002
1.162914e+003;8.245148e-002
1.164843e+003;8.309827e-002
1.166771e+003;8.296011e-002
1.168700e+003;8.154304e-002
1.170629e+003;7.879378e-002
1.172557e+003;7.476022e-002
1.174486e+003;6.999695e-002
1.176414e+003;6.605975e-002
1.178343e+003;6.379642e-002
1.180271e+003;6.187320e-002
1.182200e+003;5.983394e-002
1.184128e+003;5.853220e-002
1.186057e+003;5.775473e-002
1.187986e+003;5.708060e-002
1.189914e+003;5.648279e-002
1.191843e+003;5.611973e-002
1.193771e+003;5.620069e-002
1.195700e+003;5.605108e-002
1.197628e+003;5.599009e-002
1.199557e+003;5.558978e-002
1.201485e+003;5.462059e-002
1.203414e+003;5.398893e-002
1.205343e+003;5.409069e-002
1.207271e+003;5.483361e-002
1.209200e+003;5.566548e-002
1.211128e+003;5.645781e-002
1.213057e+003;5.740759e-002
1.214985e+003;5.823600e-002
1.216914e+003;5.837234e-002
1.218842e+003;5.794442e-002
1.220771e+003;5.754250e-002
1.222699e+003;5.687863e-002
1.224628e+003;5.585252e-002
1.226557e+003;5.493208e-002
1.228485e+003;5.477696e-002
1.230414e+003;5.540081e-002
1.232342e+003;5.565602e-002
1.234271e+003;5.566318e-002
1.236199e+003;5.576730e-002
1.238128e+003;5.559825e-002
1.240056e+003;5.596608e-002
1.241985e+003;5.623259e-002
1.243913e+003;5.636975e-002
1.245842e+003;5.690696e-002
1.247771e+003;5.720298e-002
1.249699e+003;5.785133e-002
1.251628e+003;5.980370e-002
1.253556e+003;6.234937e-002
1.255485e+003;6.361674e-002
1.257413e+003;6.304679e-002
1.259342e+003;6.117365e-002
1.261270e+003;5.918964e-002
1.263199e+003;5.760356e-002
1.265127e+003;5.675363e-002
1.267056e+003;5.603287e-002
1.268985e+003;5.509157e-002
1.270913e+003;5.443651e-002
1.272842e+003;5.402919e-002
1.274770e+003;5.386652e-002
1.276699e+003;5.373735e-002
1.278627e+003;5.325300e-002
1.280556e+003;5.283885e-002
1.282484e+003;5.292900e-002
1.284413e+003;5.316925e-002
1.286342e+003;5.354214e-002
1.288270e+003;5.430361e-002
1.290199e+003;5.496867e-002
1.292127e+003;5.564450e-002
1.294056e+003;5.665815e-002
1.295984e+003;5.713702e-002
1.297913e+003;5.692479e-002
1.299841e+003;5.673003e-002
1.301770e+003;5.699464e-002
1.303698e+003;5.718230e-002
1.305627e+003;5.613904e-002
1.307556e+003;5.417338e-002
1.309484e+003;5.218321e-002
1.311413e+003;5.097771e-002
1.313341e+003;5.101516e-002
1.315270e+003;5.187666e-002
1.317198e+003;5.233433e-002
1.319127e+003;5.306545e-002
1.321055e+003;5.451118e-002
1.322984e+003;5.596913e-002
1.324912e+003;5.733956e-002
1.326841e+003;5.878186e-002
1.328770e+003;5.954406e-002
1.330698e+003;5.955033e-002
1.332627e+003;5.916481e-002
1.334555e+003;5.833668e-002
1.336484e+003;5.735726e-002
1.338412e+003;5.694802e-002
1.340341e+003;5.735075e-002
1.342269e+003;5.863340e-002
1.344198e+003;6.030890e-002
1.346126e+003;6.259328e-002
1.348055e+003;6.535382e-002
1.349984e+003;6.865892e-002
1.351912e+003;7.296295e-002
1.353841e+003;7.847355e-002
1.355769e+003;8.452559e-002
1.357698e+003;8.945636e-002
1.359626e+003;9.091857e-002
1.361555e+003;8.956145e-002
1.363483e+003;8.874036e-002
1.365412e+003;9.063590e-002
1.367341e+003;9.681419e-002
1.369269e+003;1.100896e-001
1.371198e+003;1.302962e-001
1.373126e+003;1.539370e-001
1.375055e+003;1.728588e-001
1.376983e+003;1.734340e-001
1.378912e+003;1.533724e-001
1.380840e+003;1.267274e-001
1.382769e+003;1.038598e-001
1.384698e+003;8.742547e-002
1.386626e+003;7.602099e-002
1.388555e+003;6.917974e-002
1.390483e+003;6.529879e-002
1.392412e+003;6.213026e-002
1.394340e+003;5.956865e-002
1.396269e+003;5.876100e-002
1.398197e+003;5.863651e-002
1.400126e+003;5.910835e-002
1.402054e+003;5.980199e-002
1.403983e+003;5.980945e-002
1.405911e+003;6.022531e-002
1.407840e+003;6.109904e-002
1.409769e+003;6.161671e-002
1.411697e+003;6.213221e-002
1.413626e+003;6.274639e-002
1.415554e+003;6.282335e-002
1.417483e+003;6.186418e-002
1.419411e+003;6.163691e-002
1.421340e+003;6.363864e-002
1.423268e+003;6.521465e-002
1.425197e+003;6.707766e-002
1.427125e+003;6.996183e-002
1.429054e+003;7.417862e-002
1.430983e+003;8.129641e-002
1.432911e+003;8.966966e-002
1.434840e+003;9.453880e-002
1.436768e+003;9.567834e-002
1.438697e+003;9.775285e-002
1.440625e+003;1.009306e-001
1.442554e+003;1.054948e-001
1.444482e+003;1.120307e-001
1.446411e+003;1.203663e-001
1.448340e+003;1.292601e-001
1.450268e+003;1.367329e-001
1.452197e+003;1.411417e-001
1.454125e+003;1.421506e-001
1.456054e+003;1.394150e-001
1.457982e+003;1.387079e-001
1.459911e+003;1.391034e-001
1.461839e+003;1.356152e-001
1.463768e+003;1.282316e-001
1.465697e+003;1.194951e-001
1.467625e+003;1.105387e-001
1.469554e+003;9.984773e-002
1.471482e+003;8.801872e-002
1.473411e+003;7.913261e-002
1.475339e+003;7.344647e-002
1.477268e+003;6.822672e-002
1.479196e+003;6.409855e-002
1.481125e+003;6.007130e-002
1.483053e+003;5.669850e-002
1.484982e+003;5.408807e-002
1.486911e+003;5.123813e-002
1.488839e+003;4.831322e-002
1.490768e+003;4.704570e-002
1.492696e+003;4.712705e-002
1.494625e+003;4.573868e-002
1.496553e+003;4.374782e-002
1.498482e+003;4.391323e-002
1.500410e+003;4.447856e-002
1.502339e+003;4.392540e-002
1.504267e+003;4.069358e-002
1.506196e+003;3.747801e-002
1.508125e+003;3.929798e-002
1.510053e+003;4.163879e-002
1.511982e+003;4.187484e-002
1.513910e+003;4.211766e-002
1.515839e+003;4.161078e-002
1.517767e+003;4.107645e-002
1.519696e+003;3.961399e-002
1.521624e+003;3.853535e-002
1.523553e+003;4.032177e-002
1.525481e+003;4.141194e-002
1.527410e+003;4.246956e-002
1.529339e+003;4.366944e-002
1.531267e+003;4.377856e-002
1.533196e+003;4.323618e-002
1.535124e+003;4.453238e-002
1.537053e+003;4.422620e-002
1.538981e+003;4.172657e-002
1.540910e+003;4.254381e-002
1.542838e+003;4.557695e-002
1.544767e+003;4.750618e-002
1.546695e+003;4.857728e-002
1.548624e+003;4.850699e-002
1.550553e+003;4.822176e-002
1.552481e+003;4.715069e-002
1.554410e+003;4.529684e-002
1.556338e+003;4.269330e-002
1.558267e+003;3.789392e-002
1.560195e+003;3.820898e-002
1.562124e+003;4.206958e-002
1.564052e+003;4.266311e-002
1.565981e+003;4.220262e-002
1.567910e+003;4.129350e-002
1.569838e+003;4.071552e-002
1.571767e+003;4.191271e-002
1.573695e+003;4.124621e-002
1.575624e+003;3.863250e-002
1.577552e+003;3.989122e-002
1.579481e+003;4.196964e-002
1.581409e+003;4.214552e-002
1.583338e+003;4.190151e-002
1.585266e+003;4.122343e-002
1.587195e+003;4.100252e-002
1.589124e+003;4.112129e-002
1.591052e+003;4.124179e-002
1.592981e+003;4.133956e-002
1.594909e+003;4.125389e-002
1.596838e+003;4.113305e-002
1.598766e+003;4.167446e-002
1.600695e+003;4.217235e-002
1.602623e+003;4.260711e-002
1.604552e+003;4.333447e-002
1.606480e+003;4.381430e-002
1.608409e+003;4.423970e-002
1.610338e+003;4.508168e-002
1.612266e+003;4.577097e-002
1.614195e+003;4.550063e-002
1.616123e+003;4.433242e-002
1.618052e+003;4.647927e-002
1.619980e+003;4.911751e-002
1.621909e+003;4.917621e-002
1.623837e+003;4.969827e-002
1.625766e+003;5.141493e-002
1.627694e+003;5.256834e-002
1.629623e+003;5.347341e-002
1.631552e+003;5.413659e-002
1.633480e+003;5.271482e-002
1.635409e+003;5.072814e-002
1.637337e+003;5.294914e-002
1.639266e+003;5.563218e-002
1.641194e+003;5.650166e-002
1.643123e+003;5.637461e-002
1.645051e+003;5.496765e-002
1.646980e+003;5.526724e-002
1.648909e+003;5.734282e-002
1.650837e+003;5.474528e-002
1.652766e+003;5.041842e-002
1.654694e+003;5.390568e-002
1.656623e+003;5.776378e-002
1.658551e+003;5.789521e-002
1.660480e+003;5.694530e-002
1.662408e+003;5.577819e-002
1.664337e+003;5.582867e-002
1.666266e+003;5.544425e-002
1.668194e+003;5.338658e-002
1.670123e+003;5.263854e-002
1.672051e+003;5.288899e-002
1.673980e+003;5.157605e-002
1.675908e+003;5.097250e-002
1.677837e+003;5.168845e-002
1.679765e+003;5.109745e-002
1.681694e+003;4.884961e-002
1.683622e+003;4.481104e-002
1.685551e+003;4.561890e-002
1.687479e+003;4.870506e-002
1.689408e+003;4.896545e-002
1.691337e+003;4.880853e-002
1.693265e+003;4.772310e-002
1.695194e+003;4.490608e-002
1.697122e+003;4.525234e-002
1.699051e+003;4.498248e-002
1.700979e+003;4.563587e-002
1.702908e+003;4.922898e-002
1.704836e+003;5.045102e-002
1.706765e+003;5.177553e-002
1.708693e+003;5.301427e-002
1.710622e+003;5.364032e-002
1.712551e+003;5.328637e-002
1.714479e+003;5.194366e-002
1.716408e+003;4.969854e-002
1.718336e+003;5.019200e-002
1.720265e+003;5.306115e-002
1.722193e+003;5.406983e-002
1.724122e+003;5.424166e-002
1.726050e+003;5.492602e-002
1.727979e+003;5.559396e-002
1.729908e+003;5.622739e-002
1.731836e+003;5.556232e-002
1.733765e+003;5.480880e-002
1.735693e+003;5.863560e-002
1.737622e+003;6.177116e-002
1.739550e+003;6.177326e-002
1.741479e+003;6.204352e-002
1.743407e+003;6.108089e-002
1.745336e+003;5.872777e-002
1.747265e+003;5.527766e-002
1.749193e+003;5.077815e-002
1.751122e+003;4.610801e-002
1.753050e+003;4.304947e-002
1.754979e+003;3.928645e-002
1.756907e+003;3.510349e-002
1.758836e+003;3.180342e-002
1.760764e+003;2.837933e-002
1.762693e+003;2.608913e-002
1.764621e+003;2.517421e-002
1.766550e+003;2.337427e-002
1.768479e+003;2.166207e-002
1.770407e+003;1.993141e-002
1.772336e+003;1.818457e-002
1.774264e+003;1.894268e-002
1.776193e+003;1.986990e-002
1.778121e+003;1.963875e-002
1.780050e+003;1.877025e-002
1.781978e+003;1.814148e-002
1.783907e+003;1.739493e-002
1.785835e+003;1.661968e-002
1.787764e+003;1.620404e-002
1.789693e+003;1.514926e-002
1.791621e+003;1.331401e-002
1.793550e+003;1.301377e-002
1.795478e+003;1.368271e-002
1.797407e+003;1.329348e-002
1.799335e+003;1.256599e-002
1.801264e+003;1.206392e-002
1.803192e+003;1.179205e-002
1.805121e+003;1.145597e-002
1.807049e+003;1.112580e-002
1.808978e+003;1.065167e-002
1.810907e+003;1.057300e-002
1.812835e+003;1.073233e-002
1.814764e+003;1.071056e-002
1.816692e+003;1.062196e-002
1.818621e+003;1.070808e-002
1.820549e+003;1.055379e-002
1.822478e+003;9.880963e-003
1.824406e+003;9.171885e-003
1.826335e+003;9.308049e-003
1.828264e+003;9.103903e-003
1.830192e+003;9.077206e-003
1.832121e+003;9.814734e-003
1.834049e+003;1.004017e-002
1.835978e+003;1.004482e-002
1.837906e+003;1.007896e-002
1.839835e+003;9.972493e-003
1.841763e+003;9.192663e-003
1.843692e+003;7.835049e-003
1.845620e+003;8.177583e-003
1.847549e+003;9.264754e-003
1.849478e+003;9.425056e-003
1.851406e+003;9.335842e-003
1.853335e+003;9.654220e-003
1.855263e+003;9.748651e-003
1.857192e+003;9.508125e-003
1.859120e+003;9.545787e-003
1.861049e+003;9.593175e-003
1.862977e+003;9.347014e-003
1.864906e+003;8.916525e-003
1.866834e+003;8.279393e-003
1.868763e+003;7.979030e-003
1.870692e+003;8.740791e-003
1.872620e+003;9.183796e-003
1.874549e+003;9.092703e-003
1.876477e+003;9.231381e-003
1.878406e+003;9.201496e-003
1.880334e+003;8.991446e-003
1.882263e+003;8.877937e-003
1.884191e+003;8.967023e-003
1.886120e+003;9.008022e-003
1.888048e+003;8.845168e-003
1.889977e+003;8.927619e-003
1.891906e+003;9.505822e-003
1.893834e+003;9.670245e-003
1.895763e+003;9.590601e-003
1.897691e+003;9.462001e-003
1.899620e+003;9.223393e-003
1.901548e+003;9.219739e-003
1.903477e+003;9.563231e-003
1.905405e+003;9.522384e-003
1.907334e+003;9.167721e-003
1.909262e+003;8.950619e-003
1.911191e+003;9.145421e-003
1.913120e+003;9.225526e-003
1.915048e+003;9.132664e-003
1.916977e+003;8.588616e-003
1.918905e+003;8.481767e-003
1.920834e+003;8.827179e-003
1.922762e+003;8.831811e-003
1.924691e+003;8.876551e-003
1.926619e+003;8.832995e-003
1.928548e+003;8.666826e-003
1.930477e+003;8.564757e-003
1.932405e+003;8.312794e-003
1.934334e+003;8.243022e-003
1.936262e+003;8.546644e-003
1.938191e+003;8.540628e-003
1.940119e+003;8.285337e-003
1.942048e+003;7.948421e-003
1.943976e+003;7.960300e-003
1.945905e+003;8.192575e-003
1.947833e+003;8.387915e-003
1.949762e+003;8.529511e-003
1.951691e+003;8.492579e-003
1.953619e+003;8.272267e-003
1.955548e+003;8.143416e-003
1.957476e+003;8.132747e-003
1.959405e+003;8.220431e-003
1.961333e+003;8.287127e-003
1.963262e+003;8.111141e-003
1.965190e+003;7.942515e-003
1.967119e+003;7.892642e-003
1.969047e+003;7.870002e-003
1.970976e+003;7.898143e-003
1.972905e+003;7.928208e-003
1.974833e+003;7.815954e-003
1.976762e+003;7.601549e-003
1.978690e+003;7.450210e-003
1.980619e+003;7.653445e-003
1.982547e+003;7.875941e-003
1.984476e+003;8.061147e-003
1.986404e+003;8.156043e-003
1.988333e+003;8.087747e-003
1.990261e+003;7.956958e-003
1.992190e+003;7.989256e-003
1.994119e+003;8.303743e-003
1.996047e+003;8.194972e-003
1.997976e+003;8.033064e-003
1.999904e+003;8.155941e-003
2.001833e+003;8.071949e-003
2.003761e+003;8.276725e-003
2.005690e+003;8.411494e-003
2.007618e+003;8.202738e-003
2.009547e+003;8.029723e-003
2.011476e+003;8.108541e-003
2.013404e+003;8.273314e-003
2.015333e+003;8.235255e-003
2.017261e+003;8.272200e-003
2.019190e+003;8.382037e-003
2.021118e+003;8.461900e-003
2.023047e+003;8.561547e-003
2.024975e+003;8.369742e-003
2.026904e+003;8.207330e-003
2.028833e+003;8.189806e-003
2.030761e+003;8.154084e-003
2.032690e+003;8.360284e-003
2.034618e+003;8.573476e-003
2.036547e+003;8.558674e-003
2.038475e+003;8.639955e-003
2.040404e+003;8.910134e-003
2.042332e+003;8.929851e-003
2.044261e+003;8.831067e-003
2.046189e+003;9.047502e-003
2.048118e+003;9.162172e-003
2.050047e+003;8.829884e-003
2.051975e+003;8.705193e-003
2.053904e+003;8.629849e-003
2.055832e+003;8.477408e-003
2.057761e+003;8.597674e-003
2.059689e+003;8.741941e-003
2.061618e+003;8.808210e-003
2.063546e+003;8.663345e-003
2.065475e+003;8.653813e-003
2.067404e+003;8.674635e-003
2.069332e+003;8.567291e-003
2.071260e+003;8.738696e-003
2.073189e+003;9.101466e-003
2.075118e+003;8.941283e-003
2.077046e+003;8.688156e-003
2.078975e+003;8.830492e-003
2.080903e+003;9.103564e-003
2.082832e+003;9.431490e-003
2.084760e+003;9.691183e-003
2.086689e+003;9.826630e-003
2.088617e+003;9.692200e-003
2.090546e+003;9.609706e-003
2.092475e+003;9.816565e-003
2.094403e+003;9.915234e-003
2.096332e+003;9.768746e-003
2.098260e+003;9.771287e-003
2.100189e+003;9.820665e-003
2.102117e+003;9.845814e-003
2.104046e+003;9.853745e-003
2.105974e+003;9.953236e-003
2.107903e+003;9.840120e-003
2.109832e+003;9.461831e-003
2.111760e+003;9.387980e-003
2.113688e+003;9.783318e-003
2.115617e+003;1.028343e-002
2.117546e+003;1.019506e-002
2.119474e+003;1.005102e-002
2.121403e+003;1.032096e-002
2.123331e+003;1.086334e-002
2.125260e+003;1.101571e-002
2.127188e+003;1.122840e-002
2.129117e+003;1.167344e-002
2.131045e+003;1.175660e-002
2.132974e+003;1.179712e-002
2.134903e+003;1.187948e-002
2.136831e+003;1.181755e-002
2.138760e+003;1.148724e-002
2.140688e+003;1.120814e-002
2.142617e+003;1.135906e-002
2.144545e+003;1.139801e-002
2.146474e+003;1.151932e-002
2.148402e+003;1.153065e-002
2.150331e+003;1.134566e-002
2.152260e+003;1.155352e-002
2.154188e+003;1.186174e-002
2.156117e+003;1.184485e-002
2.158045e+003;1.197920e-002
2.159974e+003;1.226776e-002
2.161902e+003;1.240520e-002
2.163831e+003;1.279856e-002
2.165759e+003;1.305112e-002
2.167688e+003;1.317925e-002
2.169616e+003;1.339445e-002
2.171545e+003;1.347650e-002
2.173474e+003;1.364558e-002
2.175402e+003;1.380559e-002
2.177331e+003;1.378736e-002
2.179259e+003;1.351762e-002
2.181188e+003;1.323786e-002
2.183116e+003;1.314069e-002
2.185045e+003;1.340060e-002
2.186973e+003;1.330742e-002
2.188902e+003;1.297853e-002
2.190831e+003;1.292951e-002
2.192759e+003;1.317683e-002
2.194688e+003;1.333321e-002
2.196616e+003;1.336906e-002
2.198545e+003;1.323387e-002
2.200473e+003;1.307523e-002
2.202402e+003;1.313574e-002
2.204330e+003;1.307676e-002
2.206259e+003;1.274096e-002
2.208188e+003;1.256803e-002
2.210116e+003;1.261869e-002
2.212044e+003;1.246095e-002
2.213973e+003;1.224976e-002
2.215902e+003;1.219956e-002
2.217830e+003;1.254999e-002
2.219759e+003;1.253168e-002
2.221687e+003;1.233750e-002
2.223616e+003;1.262493e-002
2.225544e+003;1.314387e-002
2.227473e+003;1.330451e-002
2.229401e+003;1.318362e-002
2.231330e+003;1.313663e-002
2.233259e+003;1.315142e-002
2.235187e+003;1.314537e-002
2.237116e+003;1.325518e-002
2.239044e+003;1.336297e-002
2.240973e+003;1.308919e-002
2.242901e+003;1.270991e-002
2.244830e+003;1.289992e-002
2.246758e+003;1.332259e-002
2.248687e+003;1.353088e-002
2.250615e+003;1.374817e-002
2.252544e+003;1.381161e-002
2.254473e+003;1.402698e-002
2.256401e+003;1.439783e-002
2.258330e+003;1.434327e-002
2.260258e+003;1.393073e-002
2.262187e+003;1.368018e-002
2.264115e+003;1.361799e-002
2.266044e+003;1.376150e-002
2.267972e+003;1.385030e-002
2.269901e+003;1.354831e-002
2.271830e+003;1.332197e-002
2.273758e+003;1.336971e-002
2.275687e+003;1.330684e-002
2.277615e+003;1.320036e-002
2.279544e+003;1.302411e-002
2.281472e+003;1.286814e-002
2.283401e+003;1.272792e-002
2.285329e+003;1.261603e-002
2.287258e+003;1.253413e-002
2.289187e+003;1.244322e-002
2.291115e+003;1.261626e-002
2.293043e+003;1.286077e-002
2.294972e+003;1.286340e-002
2.296901e+003;1.264127e-002
2.298829e+003;1.237445e-002
2.300758e+003;1.254208e-002
2.302686e+003;1.266975e-002
2.304615e+003;1.263209e-002
2.306543e+003;1.275307e-002
2.308472e+003;1.272359e-002
2.310400e+003;1.285988e-002
2.312329e+003;1.300704e-002
2.314258e+003;1.285927e-002
2.316186e+003;1.282261e-002
2.318115e+003;1.288244e-002
2.320043e+003;1.308759e-002
2.321972e+003;1.320828e-002
2.323900e+003;1.348884e-002
2.325829e+003;1.386371e-002
2.327757e+003;1.413370e-002
2.329686e+003;1.427643e-002
2.331615e+003;1.448268e-002
2.333543e+003;1.443674e-002
2.335472e+003;1.443143e-002
2.337400e+003;1.455689e-002
2.339329e+003;1.447052e-002
2.341257e+003;1.451807e-002
2.343186e+003;1.468752e-002
2.345114e+003;1.481771e-002
2.347043e+003;1.494640e-002
2.348971e+003;1.496632e-002
2.350900e+003;1.482721e-002
2.352829e+003;1.495741e-002
2.354757e+003;1.523237e-002
2.356686e+003;1.551070e-002
2.358614e+003;1.563849e-002
2.360543e+003;1.562403e-002
2.362471e+003;1.580106e-002
2.364400e+003;1.592884e-002
2.366328e+003;1.588148e-002
2.368257e+003;1.553693e-002
2.370186e+003;1.536138e-002
2.372114e+003;1.551887e-002
2.374042e+003;1.558920e-002
2.375971e+003;1.566961e-002
2.377900e+003;1.602089e-002
2.379828e+003;1.626230e-002
2.381757e+003;1.629543e-002
2.383685e+003;1.645432e-002
2.385614e+003;1.643997e-002
2.387542e+003;1.613102e-002
2.389471e+003;1.616363e-002
2.391399e+003;1.642741e-002
2.393328e+003;1.656897e-002
2.395257e+003;1.686982e-002
2.397185e+003;1.700443e-002
2.399114e+003;1.695691e-002
2.401042e+003;1.707104e-002
2.402971e+003;1.700863e-002
2.404899e+003;1.679257e-002
2.406828e+003;1.654591e-002
2.408756e+003;1.643268e-002
2.410685e+003;1.664608e-002
2.412614e+003;1.692942e-002
2.414542e+003;1.700832e-002
2.416471e+003;1.706121e-002
2.418399e+003;1.707972e-002
2.420328e+003;1.731599e-002
2.422256e+003;1.728138e-002
2.424185e+003;1.723987e-002
2.426113e+003;1.765143e-002
2.428042e+003;1.808051e-002
2.429970e+003;1.799596e-002
2.431899e+003;1.758024e-002
2.433828e+003;1.728138e-002
2.435756e+003;1.716837e-002
2.437685e+003;1.697231e-002
2.439613e+003;1.683838e-002
2.441542e+003;1.693693e-002
2.443470e+003;1.686455e-002
2.445399e+003;1.647053e-002
2.447327e+003;1.616572e-002
2.449256e+003;1.608691e-002
2.451185e+003;1.637542e-002
2.453113e+003;1.655007e-002
2.455042e+003;1.638812e-002
2.456970e+003;1.629350e-002
2.458899e+003;1.618550e-002
2.460827e+003;1.614423e-002
2.462756e+003;1.604128e-002
2.464684e+003;1.602199e-002
2.466613e+003;1.620146e-002
2.468542e+003;1.630231e-002
2.470470e+003;1.632151e-002
2.472398e+003;1.630169e-002
2.474327e+003;1.629526e-002
2.476256e+003;1.623172e-002
2.478184e+003;1.651607e-002
2.480113e+003;1.691684e-002
2.482041e+003;1.711508e-002
2.483970e+003;1.730555e-002
2.485898e+003;1.732624e-002
2.487827e+003;1.719181e-002
2.489755e+003;1.723301e-002
2.491684e+003;1.736710e-002
2.493613e+003;1.735793e-002
2.495541e+003;1.734803e-002
2.497470e+003;1.724876e-002
2.499398e+003;1.720298e-002
2.501327e+003;1.717199e-002
2.503255e+003;1.716792e-002
2.505184e+003;1.756240e-002
2.507112e+003;1.780294e-002
2.509041e+003;1.780757e-002
2.510969e+003;1.792927e-002
2.512898e+003;1.824306e-002
2.514827e+003;1.862206e-002
2.516755e+003;1.862158e-002
2.518684e+003;1.848882e-002
2.520612e+003;1.885160e-002
2.522541e+003;1.920477e-002
2.524469e+003;1.988777e-002
2.526398e+003;2.050361e-002
2.528326e+003;2.027681e-002
2.530255e+003;2.005738e-002
2.532184e+003;2.043092e-002
2.534112e+003;2.079039e-002
2.536041e+003;2.078298e-002
2.537969e+003;2.082991e-002
2.539898e+003;2.101763e-002
2.541826e+003;2.132019e-002
2.543755e+003;2.155934e-002
2.545683e+003;2.174368e-002
2.547612e+003;2.218645e-002
2.549541e+003;2.299485e-002
2.551469e+003;2.359969e-002
2.553397e+003;2.385007e-002
2.555326e+003;2.391743e-002
2.557255e+003;2.396599e-002
2.559183e+003;2.404656e-002
2.561112e+003;2.433884e-002
2.563040e+003;2.494243e-002
2.564969e+003;2.552189e-002
2.566897e+003;2.575225e-002
2.568826e+003;2.595210e-002
2.570754e+003;2.666444e-002
2.572683e+003;2.773996e-002
2.574612e+003;2.856475e-002
2.576540e+003;2.928600e-002
2.578469e+003;2.983472e-002
2.580397e+003;2.996041e-002
2.582326e+003;2.989690e-002
2.584254e+003;2.971804e-002
2.586183e+003;2.881100e-002
2.588111e+003;2.786989e-002
2.590040e+003;2.754628e-002
2.591969e+003;2.724302e-002
2.593897e+003;2.687454e-002
2.595826e+003;2.672257e-002
2.597754e+003;2.656309e-002
2.599683e+003;2.685417e-002
2.601611e+003;2.716474e-002
2.603540e+003;2.721677e-002
2.605468e+003;2.732413e-002
2.607397e+003;2.781682e-002
2.609325e+003;2.840674e-002
2.611254e+003;2.882371e-002
2.613183e+003;2.908096e-002
2.615111e+003;2.905261e-002
2.617040e+003;2.916007e-002
2.618968e+003;2.922907e-002
2.620897e+003;2.912531e-002
2.622825e+003;2.927763e-002
2.624754e+003;2.904404e-002
2.626682e+003;2.846914e-002
2.628611e+003;2.834084e-002
2.630540e+003;2.828787e-002
2.632468e+003;2.838124e-002
2.634396e+003;2.844866e-002
2.636325e+003;2.844119e-002
2.638254e+003;2.842620e-002
2.640182e+003;2.864006e-002
2.642111e+003;2.910643e-002
2.644039e+003;2.959895e-002
2.645968e+003;2.979142e-002
2.647896e+003;2.993151e-002
2.649825e+003;3.026873e-002
2.651753e+003;3.090372e-002
2.653682e+003;3.143917e-002
2.655611e+003;3.168532e-002
2.657539e+003;3.161942e-002
2.659468e+003;3.186399e-002
2.661396e+003;3.239492e-002
2.663325e+003;3.272752e-002
2.665253e+003;3.256503e-002
2.667182e+003;3.227299e-002
2.669110e+003;3.223841e-002
2.671039e+003;3.219679e-002
2.672968e+003;3.238935e-002
2.674896e+003;3.280899e-002
2.676825e+003;3.303582e-002
2.678753e+003;3.321859e-002
2.680682e+003;3.331732e-002
2.682610e+003;3.307990e-002
2.684539e+003;3.286467e-002
2.686467e+003;3.295238e-002
2.688396e+003;3.291542e-002
2.690324e+003;3.274889e-002
2.692253e+003;3.297283e-002
2.694182e+003;3.322914e-002
2.696110e+003;3.326130e-002
2.698039e+003;3.367326e-002
2.699967e+003;3.415288e-002
2.701896e+003;3.434990e-002
2.703824e+003;3.501531e-002
2.705753e+003;3.600027e-002
2.707681e+003;3.675504e-002
2.709610e+003;3.742903e-002
2.711539e+003;3.835459e-002
2.713467e+003;3.966547e-002
2.715396e+003;4.111327e-002
2.717324e+003;4.281421e-002
2.719253e+003;4.451160e-002
2.721181e+003;4.549522e-002
2.723110e+003;4.562284e-002
2.725038e+003;4.519590e-002
2.726967e+003;4.439062e-002
2.728896e+003;4.326038e-002
2.730824e+003;4.196746e-002
2.732752e+003;4.081262e-002
2.734681e+003;3.995537e-002
2.736610e+003;3.917134e-002
2.738538e+003;3.857775e-002
2.740467e+003;3.788224e-002
2.742395e+003;3.682100e-002
2.744324e+003;3.581831e-002
2.746252e+003;3.517078e-002
2.748181e+003;3.484416e-002
2.750109e+003;3.501868e-002
2.752038e+003;3.529454e-002
2.753967e+003;3.528940e-002
2.755895e+003;3.558125e-002
2.757824e+003;3.590313e-002
2.759752e+003;3.599624e-002
2.761681e+003;3.656098e-002
2.763609e+003;3.684780e-002
2.765538e+003;3.693160e-002
2.767466e+003;3.722527e-002
2.769395e+003;3.786619e-002
2.771323e+003;3.856015e-002
2.773252e+003;3.914484e-002
2.775181e+003;3.963697e-002
2.777109e+003;4.030240e-002
2.779038e+003;4.118052e-002
2.780966e+003;4.227361e-002
2.782895e+003;4.341663e-002
2.784823e+003;4.460129e-002
2.786752e+003;4.589951e-002
2.788680e+003;4.757312e-002
2.790609e+003;4.960723e-002
2.792538e+003;5.137849e-002
2.794466e+003;5.248335e-002
2.796395e+003;5.311593e-002
2.798323e+003;5.374226e-002
2.800252e+003;5.470450e-002
2.802180e+003;5.645373e-002
2.804109e+003;5.847442e-002
2.806037e+003;6.044883e-002
2.807966e+003;6.228844e-002
2.809895e+003;6.374492e-002
2.811823e+003;6.534281e-002
2.813751e+003;6.713473e-002
2.815680e+003;6.859834e-002
2.817609e+003;7.031818e-002
2.819537e+003;7.248057e-002
2.821466e+003;7.473680e-002
2.823394e+003;7.764026e-002
2.825323e+003;8.133780e-002
2.827251e+003;8.619536e-002
2.829180e+003;9.250572e-002
2.831108e+003;9.984761e-002
2.833037e+003;1.077516e-001
2.834966e+003;1.147133e-001
2.836894e+003;1.185663e-001
2.838823e+003;1.185093e-001
2.840751e+003;1.158488e-001
2.842680e+003;1.122601e-001
2.844608e+003;1.089050e-001
2.846537e+003;1.063619e-001
2.848465e+003;1.048631e-001
2.850394e+003;1.042219e-001
2.852323e+003;1.036590e-001
2.854251e+003;1.033153e-001
2.856180e+003;1.039701e-001
2.858108e+003;1.061904e-001
2.860037e+003;1.104899e-001
2.861965e+003;1.163388e-001
2.863894e+003;1.222149e-001
2.865822e+003;1.267156e-001
2.867751e+003;1.289225e-001
2.869679e+003;1.291379e-001
2.871608e+003;1.286538e-001
2.873536e+003;1.281872e-001
2.875465e+003;1.274672e-001
2.877394e+003;1.265129e-001
2.879322e+003;1.251847e-001
2.881251e+003;1.236960e-001
2.883179e+003;1.224164e-001
2.885108e+003;1.219283e-001
2.887036e+003;1.224496e-001
2.888965e+003;1.237448e-001
2.890893e+003;1.254191e-001
2.892822e+003;1.280396e-001
2.894750e+003;1.317808e-001
2.896679e+003;1.361392e-001
2.898608e+003;1.408098e-001
2.900536e+003;1.459356e-001
2.902465e+003;1.518707e-001
2.904393e+003;1.579835e-001
2.906322e+003;1.635106e-001
2.908250e+003;1.689584e-001
2.910179e+003;1.741253e-001
2.912107e+003;1.792594e-001
2.914036e+003;1.840120e-001
2.915965e+003;1.865930e-001
2.917893e+003;1.869568e-001
2.919822e+003;1.858448e-001
2.921750e+003;1.826460e-001
2.923679e+003;1.767170e-001
2.925607e+003;1.693581e-001
2.927536e+003;1.616340e-001
2.929464e+003;1.535453e-001
2.931393e+003;1.452603e-001
2.933322e+003;1.372315e-001
2.935250e+003;1.299785e-001
2.937178e+003;1.245346e-001
2.939107e+003;1.220169e-001
2.941036e+003;1.230040e-001
2.942964e+003;1.277819e-001
2.944893e+003;1.349756e-001
2.946821e+003;1.424818e-001
2.948750e+003;1.483875e-001
2.950678e+003;1.508017e-001
2.952607e+003;1.494159e-001
2.954535e+003;1.454143e-001
2.956464e+003;1.409723e-001
2.958393e+003;1.363143e-001
2.960321e+003;1.305035e-001
2.962250e+003;1.233794e-001
2.964178e+003;1.163094e-001
2.966107e+003;1.095714e-001
2.968035e+003;1.024597e-001
2.969964e+003;9.529129e-002
2.971892e+003;8.900573e-002
2.973821e+003;8.375631e-002
2.975750e+003;7.947493e-002
2.977678e+003;7.585011e-002
2.979607e+003;7.243108e-002
2.981535e+003;6.936244e-002
2.983464e+003;6.677491e-002
2.985392e+003;6.448014e-002
2.987321e+003;6.235086e-002
2.989249e+003;6.016978e-002
2.991178e+003;5.855555e-002
2.993106e+003;5.727537e-002
2.995035e+003;5.590525e-002
2.996964e+003;5.451460e-002
2.998892e+003;5.286433e-002
3.000821e+003;5.114482e-002
3.002749e+003;4.939345e-002
3.004678e+003;4.799678e-002
3.006606e+003;4.672756e-002
3.008535e+003;4.541697e-002
3.010463e+003;4.447331e-002
3.012392e+003;4.341769e-002
3.014321e+003;4.231313e-002
3.016249e+003;4.130414e-002
3.018177e+003;4.014802e-002
3.020106e+003;3.945405e-002
3.022035e+003;3.889983e-002
3.023963e+003;3.803867e-002
3.025892e+003;3.728531e-002
3.027820e+003;3.684369e-002
3.029749e+003;3.603994e-002
3.031677e+003;3.559520e-002
3.033606e+003;3.551663e-002
3.035534e+003;3.479139e-002
3.037463e+003;3.393923e-002
3.039392e+003;3.397377e-002
3.041320e+003;3.421383e-002
3.043249e+003;3.390867e-002
3.045177e+003;3.340652e-002
3.047106e+003;3.323869e-002
3.049034e+003;3.292414e-002
3.050963e+003;3.261675e-002
3.052891e+003;3.274414e-002
3.054820e+003;3.292232e-002
3.056749e+003;3.245779e-002
3.058677e+003;3.200332e-002
3.060606e+003;3.195571e-002
3.062534e+003;3.197986e-002
3.064463e+003;3.227713e-002
3.066391e+003;3.240195e-002
3.068320e+003;3.206600e-002
3.070248e+003;3.156522e-002
3.072177e+003;3.126043e-002
3.074105e+003;3.141082e-002
3.076034e+003;3.113618e-002
3.077963e+003;3.070460e-002
3.079891e+003;3.074810e-002
3.081820e+003;3.089127e-002
3.083748e+003;3.107261e-002
3.085677e+003;3.123305e-002
3.087605e+003;3.122272e-002
3.089534e+003;3.085263e-002
3.091462e+003;3.049185e-002
3.093391e+003;3.020000e-002
3.095320e+003;2.990368e-002
3.097248e+003;3.009128e-002
3.099177e+003;3.055076e-002
3.101105e+003;3.083371e-002
3.103034e+003;3.105150e-002
3.104962e+003;3.147498e-002
3.106891e+003;3.157196e-002
3.108819e+003;3.119164e-002
3.110748e+003;3.116572e-002
3.112677e+003;3.099584e-002
3.114605e+003;3.084808e-002
3.116533e+003;3.110197e-002
3.118462e+003;3.141364e-002
3.120391e+003;3.122824e-002
3.122319e+003;3.092631e-002
3.124248e+003;3.057902e-002
3.126176e+003;3.076659e-002
3.128105e+003;3.149596e-002
3.130033e+003;3.175123e-002
3.131962e+003;3.182730e-002
3.133890e+003;3.223037e-002
3.135819e+003;3.257614e-002
3.137748e+003;3.272384e-002
3.139676e+003;3.313047e-002
3.141605e+003;3.319466e-002
3.143533e+003;3.338329e-002
3.145462e+003;3.373767e-002
3.147390e+003;3.351682e-002
3.149319e+003;3.334147e-002
3.151247e+003;3.364637e-002
3.153176e+003;3.353711e-002
3.155104e+003;3.323125e-002
3.157033e+003;3.328208e-002
3.158962e+003;3.355386e-002
3.160890e+003;3.381288e-002
3.162819e+003;3.379150e-002
3.164747e+003;3.374036e-002
3.166676e+003;3.404956e-002
3.168604e+003;3.438224e-002
3.170533e+003;3.477528e-002
3.172461e+003;3.505223e-002
3.174390e+003;3.499056e-002
3.176319e+003;3.476005e-002
3.178247e+003;3.452070e-002
3.180176e+003;3.473130e-002
3.182104e+003;3.484104e-002
3.184033e+003;3.469412e-002
3.185961e+003;3.495016e-002
3.187890e+003;3.533350e-002
3.189818e+003;3.596518e-002
3.191747e+003;3.647855e-002
3.193676e+003;3.642136e-002
3.195604e+003;3.607314e-002
3.197532e+003;3.606839e-002
3.199461e+003;3.630345e-002
3.201390e+003;3.667907e-002
3.203318e+003;3.657568e-002
3.205247e+003;3.645365e-002
3.207175e+003;3.650147e-002
3.209104e+003;3.657388e-002
3.211032e+003;3.662647e-002
3.212961e+003;3.665243e-002
3.214889e+003;3.641632e-002
3.216818e+003;3.626915e-002
3.218747e+003;3.637024e-002
3.220675e+003;3.617850e-002
3.222604e+003;3.601230e-002
3.224532e+003;3.620746e-002
3.226461e+003;3.623688e-002
3.228389e+003;3.558574e-002
3.230318e+003;3.513205e-002
3.232246e+003;3.527409e-002
3.234175e+003;3.497634e-002
3.236104e+003;3.464549e-002
3.238032e+003;3.493052e-002
3.239961e+003;3.505557e-002
3.241889e+003;3.502939e-002
3.243818e+003;3.492233e-002
3.245746e+003;3.515964e-002
3.247675e+003;3.556661e-002
3.249603e+003;3.562829e-002
3.251532e+003;3.561491e-002
3.253460e+003;3.562631e-002
3.255389e+003;3.599027e-002
3.257318e+003;3.644042e-002
3.259246e+003;3.615469e-002
3.261175e+003;3.568127e-002
3.263103e+003;3.604336e-002
3.265032e+003;3.640929e-002
3.266960e+003;3.620500e-002
3.268889e+003;3.591950e-002
3.270817e+003;3.595478e-002
3.272746e+003;3.609726e-002
3.274675e+003;3.609644e-002
3.276603e+003;3.619020e-002
3.278531e+003;3.664774e-002
3.280460e+003;3.664616e-002
3.282389e+003;3.638854e-002
3.284317e+003;3.653243e-002
3.286246e+003;3.667096e-002
3.288174e+003;3.648846e-002
3.290103e+003;3.671549e-002
3.292031e+003;3.666995e-002
3.293960e+003;3.638097e-002
3.295888e+003;3.649412e-002
3.297817e+003;3.654616e-002
3.299746e+003;3.645347e-002
3.301674e+003;3.647048e-002
3.303603e+003;3.659205e-002
3.305531e+003;3.683273e-002
3.307460e+003;3.678152e-002
3.309388e+003;3.642209e-002
3.311317e+003;3.597990e-002
3.313245e+003;3.608660e-002
3.315174e+003;3.624113e-002
3.317103e+003;3.598127e-002
3.319031e+003;3.550156e-002
3.320960e+003;3.538864e-002
3.322888e+003;3.562969e-002
3.324817e+003;3.576862e-002
3.326745e+003;3.552993e-002
3.328674e+003;3.566623e-002
3.330602e+003;3.591828e-002
3.332531e+003;3.561297e-002
3.334459e+003;3.551425e-002
3.336388e+003;3.542509e-002
3.338317e+003;3.556780e-002
3.340245e+003;3.556697e-002
3.342174e+003;3.547053e-002
3.344102e+003;3.551537e-002
3.346031e+003;3.527556e-002
3.347959e+003;3.490499e-002
3.349888e+003;3.478967e-002
3.351816e+003;3.534845e-002
3.353745e+003;3.574646e-002
3.355674e+003;3.525404e-002
3.357602e+003;3.465131e-002
3.359531e+003;3.468490e-002
3.361459e+003;3.428148e-002
3.363388e+003;3.374111e-002
3.365316e+003;3.382886e-002
3.367245e+003;3.414321e-002
3.369173e+003;3.438354e-002
3.371102e+003;3.421974e-002
3.373031e+003;3.384544e-002
3.374959e+003;3.345071e-002
3.376887e+003;3.321312e-002
3.378816e+003;3.333499e-002
3.380745e+003;3.331085e-002
3.382673e+003;3.269251e-002
3.384602e+003;3.249082e-002
3.386530e+003;3.272213e-002
3.388459e+003;3.297057e-002
3.390387e+003;3.312585e-002
3.392316e+003;3.293233e-002
3.394244e+003;3.245722e-002
3.396173e+003;3.200547e-002
3.398102e+003;3.177907e-002
3.400030e+003;3.196395e-002
3.401959e+003;3.200332e-002
3.403887e+003;3.159263e-002
3.405816e+003;3.155920e-002
3.407744e+003;3.151823e-002
3.409673e+003;3.123547e-002
3.411601e+003;3.142557e-002
3.413530e+003;3.166917e-002
3.415458e+003;3.153465e-002
3.417387e+003;3.145032e-002
3.419316e+003;3.126078e-002
3.421244e+003;3.100221e-002
3.423173e+003;3.071986e-002
3.425101e+003;3.018259e-002
3.427030e+003;2.976176e-002
3.428958e+003;2.950808e-002
3.430887e+003;2.937884e-002
3.432815e+003;2.905662e-002
3.434744e+003;2.874112e-002
3.436673e+003;2.887102e-002
3.438601e+003;2.893183e-002
3.440530e+003;2.901014e-002
3.442458e+003;2.833016e-002
3.444387e+003;2.786483e-002
3.446315e+003;2.749925e-002
3.448244e+003;2.717335e-002
3.450172e+003;2.696680e-002
3.452101e+003;2.679341e-002
3.454030e+003;2.676024e-002
3.455958e+003;2.707960e-002
3.457886e+003;2.720608e-002
3.459815e+003;2.753978e-002
3.461744e+003;2.745199e-002
3.463672e+003;2.673322e-002
3.465601e+003;2.599551e-002
3.467529e+003;2.546591e-002
3.469458e+003;2.529157e-002
3.471386e+003;2.549451e-002
3.473315e+003;2.538037e-002
3.475243e+003;2.514279e-002
3.477172e+003;2.501870e-002
3.479101e+003;2.483268e-002
3.481029e+003;2.435927e-002
3.482958e+003;2.392275e-002
3.484886e+003;2.386292e-002
3.486815e+003;2.389698e-002
3.488743e+003;2.332595e-002
3.490672e+003;2.288782e-002
3.492600e+003;2.349562e-002
3.494529e+003;2.344222e-002
3.496458e+003;2.296051e-002
3.498386e+003;2.266776e-002
3.500315e+003;2.192211e-002
3.502243e+003;2.121677e-002
3.504172e+003;2.136477e-002
3.506100e+003;2.186614e-002
3.508029e+003;2.168861e-002
3.509957e+003;2.128720e-002
3.511886e+003;2.138628e-002
3.513814e+003;2.162850e-002
3.515743e+003;2.126347e-002
3.517672e+003;2.063459e-002
3.519600e+003;2.054513e-002
3.521529e+003;2.052515e-002
3.523457e+003;2.004815e-002
3.525386e+003;2.002081e-002
3.527314e+003;2.013588e-002
3.529243e+003;2.003587e-002
3.531171e+003;1.971305e-002
3.533100e+003;1.942713e-002
3.535029e+003;1.937190e-002
3.536957e+003;1.932888e-002
3.538885e+003;1.908562e-002
3.540814e+003;1.878146e-002
3.542743e+003;1.820136e-002
3.544671e+003;1.774592e-002
3.546600e+003;1.788073e-002
3.548528e+003;1.792800e-002
3.550457e+003;1.782625e-002
3.552385e+003;1.743301e-002
3.554314e+003;1.679088e-002
3.556242e+003;1.664312e-002
3.558171e+003;1.656532e-002
3.560100e+003;1.622828e-002
3.562028e+003;1.581089e-002
3.563957e+003;1.512717e-002
3.565885e+003;1.420360e-002
3.567814e+003;1.390521e-002
3.569742e+003;1.469225e-002
3.571671e+003;1.513643e-002
3.573599e+003;1.473269e-002
3.575528e+003;1.445079e-002
3.577457e+003;1.398777e-002
3.579385e+003;1.362216e-002
3.581314e+003;1.357276e-002
3.583242e+003;1.309531e-002
3.585171e+003;1.219155e-002
3.587099e+003;1.165180e-002
3.589028e+003;1.228241e-002
3.590956e+003;1.266733e-002
3.592885e+003;1.203077e-002
3.594813e+003;1.199470e-002
3.596742e+003;1.253236e-002
3.598671e+003;1.210163e-002
3.600599e+003;1.195461e-002
3.602528e+003;1.190809e-002
3.604456e+003;1.144855e-002
3.606385e+003;1.083311e-002
3.608313e+003;9.762850e-003
3.610242e+003;9.092804e-003
3.612170e+003;9.200514e-003
3.614099e+003;1.014995e-002
3.616028e+003;1.026908e-002
3.617956e+003;9.003489e-003
3.619885e+003;8.860386e-003
3.621813e+003;9.977240e-003
3.623742e+003;1.003132e-002
3.625670e+003;8.816899e-003
3.627599e+003;6.412556e-003
3.629527e+003;6.292357e-003
3.631456e+003;8.530356e-003
3.633385e+003;9.390452e-003
3.635313e+003;9.348368e-003
3.637241e+003;9.184846e-003
3.639170e+003;9.512833e-003
3.641099e+003;9.605268e-003
3.643027e+003;8.971794e-003
3.644956e+003;7.713275e-003
3.646884e+003;6.204993e-003
3.648813e+003;5.316828e-003
3.650741e+003;6.312192e-003
3.652670e+003;7.884072e-003
3.654598e+003;7.453986e-003
3.656527e+003;6.988766e-003
3.658456e+003;7.849016e-003
3.660384e+003;8.233668e-003
3.662313e+003;8.242313e-003
3.664241e+003;8.115260e-003
3.666170e+003;7.274327e-003
3.668098e+003;5.546486e-003
3.670027e+003;4.525586e-003
3.671955e+003;5.857664e-003
3.673884e+003;5.245255e-003
3.675813e+003;4.754958e-003
3.677741e+003;7.481391e-003
3.679669e+003;8.585777e-003
3.681598e+003;8.462576e-003
3.683527e+003;8.594969e-003
3.685455e+003;8.184843e-003
3.687384e+003;6.014159e-003
3.689312e+003;5.753398e-003
3.691241e+003;7.362445e-003
3.693169e+003;8.736194e-003
3.695098e+003;9.268444e-003
3.697026e+003;9.429391e-003
3.698955e+003;9.148568e-003
3.700884e+003;7.876446e-003
3.702812e+003;7.980986e-003
3.704741e+003;8.366837e-003
3.706669e+003;8.070700e-003
3.708598e+003;7.532700e-003
3.710526e+003;6.447295e-003
3.712455e+003;6.306813e-003
3.714383e+003;7.199500e-003
3.716312e+003;7.399585e-003
3.718240e+003;8.150438e-003
3.720169e+003;8.784203e-003
3.722098e+003;8.229076e-003
3.724026e+003;7.670409e-003
3.725955e+003;7.684033e-003
3.727883e+003;7.754391e-003
3.729812e+003;6.761340e-003
3.731740e+003;5.433940e-003
3.733669e+003;5.512927e-003
3.735597e+003;5.007211e-003
3.737526e+003;5.757897e-003
3.739455e+003;7.175953e-003
3.741383e+003;6.739365e-003
3.743312e+003;3.613414e-003
3.745240e+003;3.817234e-003
3.747169e+003;5.200821e-003
3.749097e+003;3.379634e-003
3.751026e+003;3.178522e-003
3.752954e+003;5.555211e-003
3.754883e+003;7.816832e-003
3.756812e+003;8.020576e-003
3.758740e+003;8.121134e-003
3.760668e+003;8.620825e-003
3.762597e+003;9.344170e-003
3.764526e+003;8.880980e-003
3.766454e+003;8.714490e-003
3.768383e+003;8.239105e-003
3.770311e+003;7.864232e-003
3.772240e+003;8.162626e-003
3.774168e+003;8.430278e-003
3.776097e+003;8.464266e-003
3.778025e+003;8.341403e-003
3.779954e+003;8.213138e-003
3.781883e+003;8.272808e-003
3.783811e+003;8.102938e-003
3.785740e+003;8.488558e-003
3.787668e+003;9.070609e-003
3.789597e+003;9.278362e-003
3.791525e+003;8.899717e-003
3.793454e+003;8.559113e-003
3.795382e+003;8.362648e-003
3.797311e+003;8.229684e-003
3.799240e+003;6.742730e-003
3.801168e+003;5.504202e-003
3.803097e+003;7.082619e-003
3.805025e+003;7.180265e-003
3.806954e+003;6.762855e-003
3.808882e+003;8.382882e-003
3.810811e+003;8.701306e-003
3.812739e+003;7.702752e-003
3.814668e+003;5.847522e-003
3.816596e+003;6.449682e-003
3.818525e+003;7.224295e-003
3.820454e+003;5.868277e-003
3.822382e+003;6.871234e-003
3.824311e+003;8.379876e-003
3.826239e+003;8.484368e-003
3.828168e+003;8.289052e-003
3.830096e+003;7.904317e-003
3.832025e+003;8.042177e-003
3.833953e+003;8.248932e-003
3.835882e+003;6.746802e-003
3.837811e+003;5.262896e-003
3.839739e+003;6.210976e-003
3.841667e+003;6.896886e-003
3.843596e+003;7.350347e-003
3.845525e+003;7.869631e-003
3.847453e+003;8.265851e-003
3.849382e+003;7.777396e-003
3.851310e+003;4.816634e-003
3.853239e+003;2.438874e-003
3.855167e+003;5.238447e-003
3.857096e+003;8.372512e-003
3.859024e+003;8.906920e-003
3.860953e+003;8.624441e-003
3.862882e+003;8.086329e-003
3.864810e+003;7.576833e-003
3.866739e+003;8.040456e-003
3.868667e+003;7.105757e-003
3.870596e+003;6.947184e-003
3.872524e+003;8.095680e-003
3.874453e+003;8.654456e-003
3.876381e+003;9.100688e-003
3.878310e+003;8.631269e-003
3.880239e+003;7.974709e-003
3.882167e+003;8.170054e-003
3.884096e+003;8.064489e-003
3.886024e+003;8.150573e-003
3.887953e+003;9.160412e-003
3.889881e+003;8.445717e-003
3.891810e+003;8.144293e-003
3.893738e+003;8.874420e-003
3.895667e+003;9.509853e-003
3.897595e+003;9.552698e-003
3.899524e+003;9.037251e-003
3.901453e+003;8.125016e-003
3.903381e+003;7.933741e-003
3.905310e+003;9.507279e-003
3.907238e+003;1.073674e-002
3.909167e+003;1.031092e-002
3.911095e+003;9.912623e-003
3.913024e+003;1.021775e-002
3.914952e+003;9.688947e-003
3.916881e+003;8.666421e-003
3.918810e+003;8.858357e-003
3.920738e+003;9.830799e-003
3.922667e+003;1.029575e-002
3.924595e+003;1.020608e-002
3.926524e+003;1.025907e-002
3.928452e+003;1.051994e-002
3.930381e+003;1.037050e-002
3.932309e+003;1.022657e-002
3.934238e+003;1.099504e-002
3.936167e+003;1.123446e-002
3.938095e+003;1.071351e-002
3.940023e+003;1.044459e-002
3.941952e+003;1.018214e-002
3.943881e+003;1.004251e-002
3.945809e+003;1.001884e-002
3.947738e+003;1.006679e-002
3.949666e+003;1.005289e-002
3.951595e+003;1.033993e-002
3.953523e+003;1.056876e-002
3.955452e+003;1.045267e-002
3.957380e+003;1.025493e-002
3.959309e+003;1.030535e-002
3.961238e+003;1.064709e-002
3.963166e+003;1.042073e-002
3.965095e+003;1.011074e-002
3.967023e+003;1.020117e-002
3.968952e+003;1.057317e-002
3.970880e+003;1.066176e-002
3.972809e+003;1.092644e-002
3.974737e+003;1.123276e-002
3.976666e+003;1.083715e-002
3.978594e+003;1.052666e-002
3.980523e+003;1.109541e-002
3.982452e+003;1.164298e-002
3.984380e+003;1.215199e-002
3.986309e+003;1.241502e-002
3.988237e+003;1.236975e-002
3.990166e+003;1.244994e-002
3.992094e+003;1.273792e-002
3.994023e+003;1.243013e-002
3.995951e+003;1.212221e-002
3.997880e+003;1.218246e-002
3.999809e+003;1.190635e-002
4.001737e+003;0.000000e+000
