3.992094e+002;0.000000e+000
4.011380e+002;0.000000e+000
4.030665e+002;0.000000e+000
4.049951e+002;0.000000e+000
4.069236e+002;0.000000e+000
4.088522e+002;0.000000e+000
4.107807e+002;0.000000e+000
4.127093e+002;0.000000e+000
4.146378e+002;0.000000e+000
4.165664e+002;0.000000e+000
4.184949e+002;0.000000e+000
4.204235e+002;0.000000e+000
4.223520e+002;0.000000e+000
4.242806e+002;0.000000e+000
4.262091e+002;0.000000e+000
4.281377e+002;0.000000e+000
4.300662e+002;0.000000e+000
4.319948e+002;0.000000e+000
4.339233e+002;0.000000e+000
4.358519e+002;0.000000e+000
4.377804e+002;0.000000e+000
4.397090e+002;0.000000e+000
4.416375e+002;0.000000e+000
4.435660e+002;0.000000e+000
4.454946e+002;0.000000e+000
4.474232e+002;0.000000e+000
4.493517e+002;0.000000e+000
4.512802e+002;0.000000e+000
4.532088e+002;0.000000e+000
4.551373e+002;0.000000e+000
4.570659e+002;0.000000e+000
4.589944e+002;0.000000e+000
4.609230e+002;0.000000e+000
4.628515e+002;0.000000e+000
4.647801e+002;0.000000e+000
4.667086e+002;0.000000e+000
4.686372e+002;0.000000e+000
4.705657e+002;0.000000e+000
4.724943e+002;0.000000e+000
4.744228e+002;0.000000e+000
4.763513e+002;0.000000e+000
4.782799e+002;0.000000e+000
4.802085e+002;0.000000e+000
4.821370e+002;0.000000e+000
4.840656e+002;0.000000e+000
4.859941e+002;0.000000e+000
4.879226e+002;0.000000e+000
4.898512e+002;0.000000e+000
4.917798e+002;0.000000e+000
4.937083e+002;0.000000e+000
4.956368e+002;0.000000e+000
4.975654e+002;0.000000e+000
4.994939e+002;0.000000e+000
5.014225e+002;0.000000e+000
5.033510e+002;0.000000e+000
5.052796e+002;0.000000e+000
5.072081e+002;0.000000e+000
5.091367e+002;0.000000e+000
5.110652e+002;0.000000e+000
5.129938e+002;0.000000e+000
5.149223e+002;0.000000e+000
5.168509e+002;0.000000e+000
5.187794e+002;0.000000e+000
5.207079e+002;0.000000e+000
5.226365e+002;0.000000e+000
5.245651e+002;0.000000e+000
5.264936e+002;0.000000e+000
5.284222e+002;0.000000e+000
5.303507e+002;0.000000e+000
5.322792e+002;0.000000e+000
5.342078e+002;0.000000e+000
5.361364e+002;0.000000e+000
5.380649e+002;0.000000e+000
5.399935e+002;0.000000e+000
5.419220e+002;0.000000e+000
5.438505e+002;0.000000e+000
5.457791e+002;0.000000e+000
5.477076e+002;0.000000e+000
5.496362e+002;0.000000e+000
5.515648e+002;0.000000e+000
5.534933e+002;0.000000e+000
5.554218e+002;0.000000e+000
5.573504e+002;0.000000e+000
5.592789e+002;0.000000e+000
5.612075e+002;0.000000e+000
5.631360e+002;0.000000e+000
5.650646e+002;0.000000e+000
5.669931e+002;0.000000e+000
5.689217e+002;0.000000e+000
5.708502e+002;0.000000e+000
5.727787e+002;0.000000e+000
5.747073e+002;0.000000e+000
5.766359e+002;0.000000e+000
5.785644e+002;0.000000e+000
5.804930e+002;0.000000e+000
5.824215e+002;0.000000e+000
5.843500e+002;0.000000e+000
5.862786e+002;0.000000e+000
5.882072e+002;0.000000e+000
5.901357e+002;0.000000e+000
5.920643e+002;0.000000e+000
5.939928e+002;0.000000e+000
5.959213e+002;0.000000e+000
5.978499e+002;0.000000e+000
5.997784e+002;4.821203e-002
6.017070e+002;4.236653e-002
6.036355e+002;4.101199e-002
6.055641e+002;4.048119e-002
6.074926e+002;4.470544e-002
6.094211e+002;4.131445e-002
6.113497e+002;3.574480e-002
6.132783e+002;3.768705e-002
6.152068e+002;3.973198e-002
6.171354e+002;4.310908e-002
6.190639e+002;4.574821e-002
6.209924e+002;4.116208e-002
6.229210e+002;3.974349e-002
6.248495e+002;4.333659e-002
6.267781e+002;4.303038e-002
6.287067e+002;3.958797e-002
6.306352e+002;3.967886e-002
6.325637e+002;4.089242e-002
6.344923e+002;3.980972e-002
6.364208e+002;3.837736e-002
6.383494e+002;3.769366e-002
6.402780e+002;3.786904e-002
6.422065e+002;3.817330e-002
6.441350e+002;3.769067e-002
6.460636e+002;3.688632e-002
6.479921e+002;3.917174e-002
6.499207e+002;4.279567e-002
6.518492e+002;4.248794e-002
6.537778e+002;4.125724e-002
6.557063e+002;4.218685e-002
6.576349e+002;4.247738e-002
6.595634e+002;4.468707e-002
6.614919e+002;4.721744e-002
6.634205e+002;4.594632e-002
6.653491e+002;4.299708e-002
6.672776e+002;4.204684e-002
6.692062e+002;4.183156e-002
6.711347e+002;4.261219e-002
6.730632e+002;4.259900e-002
6.749918e+002;4.305760e-002
6.769203e+002;4.444850e-002
6.788489e+002;4.457882e-002
6.807775e+002;4.415276e-002
6.827060e+002;4.167840e-002
6.846345e+002;3.950667e-002
6.865631e+002;4.058519e-002
6.884916e+002;4.088386e-002
6.904202e+002;4.023031e-002
6.923488e+002;4.041111e-002
6.942773e+002;4.078831e-002
6.962058e+002;4.156345e-002
6.981344e+002;4.236193e-002
7.000629e+002;4.264490e-002
7.019915e+002;4.273611e-002
7.039200e+002;4.201771e-002
7.058486e+002;4.155587e-002
7.077771e+002;4.329658e-002
7.097057e+002;4.405513e-002
7.116342e+002;4.426267e-002
7.135627e+002;4.572487e-002
7.154913e+002;4.687776e-002
7.174199e+002;4.649819e-002
7.193484e+002;4.595792e-002
7.212770e+002;4.605278e-002
7.232055e+002;4.606936e-002
7.251340e+002;4.629754e-002
7.270626e+002;4.615067e-002
7.289911e+002;4.607750e-002
7.309197e+002;4.578868e-002
7.328483e+002;4.488407e-002
7.347768e+002;4.457618e-002
7.367053e+002;4.512689e-002
7.386339e+002;4.562759e-002
7.405624e+002;4.582192e-002
7.424910e+002;4.647256e-002
7.444196e+002;4.589892e-002
7.463481e+002;4.576960e-002
7.482766e+002;4.622817e-002
7.502052e+002;4.602960e-002
7.521337e+002;4.625084e-002
7.540623e+002;4.669280e-002
7.559908e+002;4.681764e-002
7.579194e+002;4.650291e-002
7.598479e+002;4.562012e-002
7.617765e+002;4.577763e-002
7.637050e+002;4.669568e-002
7.656335e+002;4.778997e-002
7.675621e+002;4.792888e-002
7.694907e+002;4.760747e-002
7.714192e+002;4.762736e-002
7.733478e+002;4.745997e-002
7.752763e+002;4.700785e-002
7.772048e+002;4.656638e-002
7.791334e+002;4.680775e-002
7.810620e+002;4.694911e-002
7.829905e+002;4.752000e-002
7.849191e+002;4.867937e-002
7.868476e+002;4.925800e-002
7.887761e+002;4.997113e-002
7.907047e+002;5.095689e-002
7.926332e+002;5.175929e-002
7.945618e+002;5.338168e-002
7.964903e+002;5.543352e-002
7.984189e+002;5.691402e-002
8.003474e+002;5.768665e-002
8.022759e+002;5.870015e-002
8.042045e+002;6.109271e-002
8.061331e+002;6.300772e-002
8.080616e+002;6.444559e-002
8.099902e+002;6.495399e-002
8.119187e+002;6.451281e-002
8.138472e+002;6.250163e-002
8.157758e+002;6.007503e-002
8.177043e+002;5.857212e-002
8.196329e+002;5.719417e-002
8.215615e+002;5.638412e-002
8.234900e+002;5.667517e-002
8.254185e+002;5.646581e-002
8.273471e+002;5.559456e-002
8.292756e+002;5.533818e-002
8.312042e+002;5.556790e-002
8.331328e+002;5.613070e-002
8.350613e+002;5.783096e-002
8.369898e+002;6.063030e-002
8.389184e+002;6.395560e-002
8.408469e+002;6.764273e-002
8.427755e+002;6.820393e-002
8.447040e+002;6.543386e-002
8.466326e+002;6.138946e-002
8.485611e+002;5.853853e-002
8.504897e+002;5.660617e-002
8.524182e+002;5.547681e-002
8.543467e+002;5.497904e-002
8.562753e+002;5.371962e-002
8.582039e+002;5.253895e-002
8.601324e+002;5.179401e-002
8.620610e+002;5.153717e-002
8.639895e+002;5.202231e-002
8.659180e+002;5.234084e-002
8.678466e+002;5.182309e-002
8.697751e+002;5.131509e-002
8.717037e+002;5.139263e-002
8.736323e+002;5.223399e-002
8.755608e+002;5.245142e-002
8.774893e+002;5.159284e-002
8.794179e+002;5.056048e-002
8.813464e+002;5.021041e-002
8.832750e+002;5.059629e-002
8.852036e+002;5.146069e-002
8.871321e+002;5.149796e-002
8.890606e+002;5.145887e-002
8.909892e+002;5.248660e-002
8.929177e+002;5.452572e-002
8.948463e+002;5.767992e-002
8.967748e+002;6.153073e-002
8.987034e+002;6.384788e-002
9.006319e+002;6.389782e-002
9.025605e+002;6.122793e-002
9.044890e+002;5.639672e-002
9.064175e+002;5.174940e-002
9.083461e+002;4.877950e-002
9.102747e+002;4.734028e-002
9.122032e+002;4.613981e-002
9.141318e+002;4.512414e-002
9.160603e+002;4.503044e-002
9.179888e+002;4.495014e-002
9.199174e+002;4.494459e-002
9.218459e+002;4.491839e-002
9.237745e+002;4.479201e-002
9.257031e+002;4.495631e-002
9.276316e+002;4.531725e-002
9.295601e+002;4.552120e-002
9.314887e+002;4.555222e-002
9.334172e+002;4.593652e-002
9.353458e+002;4.730429e-002
9.372744e+002;4.892547e-002
9.392029e+002;5.014183e-002
9.411314e+002;5.113330e-002
9.430600e+002;5.193880e-002
9.449885e+002;5.254310e-002
9.469171e+002;5.255009e-002
9.488456e+002;5.214297e-002
9.507742e+002;5.263117e-002
9.527027e+002;5.385808e-002
9.546313e+002;5.479309e-002
9.565598e+002;5.546255e-002
9.584883e+002;5.643430e-002
9.604169e+002;5.788646e-002
9.623455e+002;5.972355e-002
9.642740e+002;6.238976e-002
9.662026e+002;6.662231e-002
9.681311e+002;7.249866e-002
9.700596e+002;7.930510e-002
9.719882e+002;8.484234e-002
9.739167e+002;8.691324e-002
9.758453e+002;8.408151e-002
9.777739e+002;7.674047e-002
9.797024e+002;6.809295e-002
9.816309e+002;6.060458e-002
9.835595e+002;5.577419e-002
9.854880e+002;5.346539e-002
9.874166e+002;5.310379e-002
9.893452e+002;5.441683e-002
9.912737e+002;5.714662e-002
9.932022e+002;6.174068e-002
9.951307e+002;6.739013e-002
9.970593e+002;7.165899e-002
9.989879e+002;7.194604e-002
1.000916e+003;6.838408e-002
1.002845e+003;6.331513e-002
1.004773e+003;5.869185e-002
1.006702e+003;5.586447e-002
1.008631e+003;5.429422e-002
1.010559e+003;5.309013e-002
1.012488e+003;5.186994e-002
1.014416e+003;5.060396e-002
1.016345e+003;4.998339e-002
1.018273e+003;5.040498e-002
1.020202e+003;5.114255e-002
1.022130e+003;5.097727e-002
1.024059e+003;5.036759e-002
1.025988e+003;5.037700e-002
1.027916e+003;5.107091e-002
1.029845e+003;5.188443e-002
1.031773e+003;5.222577e-002
1.033702e+003;5.268938e-002
1.035630e+003;5.417908e-002
1.037559e+003;5.585309e-002
1.039487e+003;5.674004e-002
1.041416e+003;5.690496e-002
1.043344e+003;5.685132e-002
1.045273e+003;5.637001e-002
1.047202e+003;5.545622e-002
1.049130e+003;5.460221e-002
1.051059e+003;5.401793e-002
1.052987e+003;5.387799e-002
1.054916e+003;5.361610e-002
1.056844e+003;5.321547e-002
1.058773e+003;5.296378e-002
1.060701e+003;5.265713e-002
1.062630e+003;5.234944e-002
1.064558e+003;5.260675e-002
1.066487e+003;5.326977e-002
1.068416e+003;5.328592e-002
1.070344e+003;5.303584e-002
1.072273e+003;5.375186e-002
1.074201e+003;5.368733e-002
1.076130e+003;5.297074e-002
1.078058e+003;5.314693e-002
1.079987e+003;5.348701e-002
1.081915e+003;5.370218e-002
1.083844e+003;5.438622e-002
1.085773e+003;5.485376e-002
1.087701e+003;5.484624e-002
1.089630e+003;5.520075e-002
1.091558e+003;5.548702e-002
1.093487e+003;5.561316e-002
1.095415e+003;5.648494e-002
1.097344e+003;5.843136e-002
1.099272e+003;6.030677e-002
1.101201e+003;6.110652e-002
1.103129e+003;6.132870e-002
1.105058e+003;6.106956e-002
1.106987e+003;5.972047e-002
1.108915e+003;5.823846e-002
1.110844e+003;5.723393e-002
1.112772e+003;5.622852e-002
1.114701e+003;5.534439e-002
1.116629e+003;5.435205e-002
1.118558e+003;5.316633e-002
1.120486e+003;5.285471e-002
1.122415e+003;5.257751e-002
1.124344e+003;5.255136e-002
1.126272e+003;5.241770e-002
1.128201e+003;5.229027e-002
1.130129e+003;5.277737e-002
1.132058e+003;5.339063e-002
1.133986e+003;5.458004e-002
1.135915e+003;5.626371e-002
1.137843e+003;5.776923e-002
1.139772e+003;5.989376e-002
1.141700e+003;6.277552e-002
1.143629e+003;6.583606e-002
1.145557e+003;6.914333e-002
1.147486e+003;7.250833e-002
1.149415e+003;7.578115e-002
1.151343e+003;7.875016e-002
1.153272e+003;8.063661e-002
1.155200e+003;8.155463e-002
1.157129e+003;8.129616e-002
1.159057e+003;8.069426e-002
1.160986e+003;8.082806e-002
1.162914e+003;8.114640e-002
1.164843e+003;8.120336e-002
1.166771e+003;8.055543e-002
1.168700e+003;7.884153e-002
1.170629e+003;7.585015e-002
1.172557e+003;7.183054e-002
1.174486e+003;6.754014e-002
1.176414e+003;6.370701e-002
1.178343e+003;6.060572e-002
1.180271e+003;5.837442e-002
1.182200e+003;5.683131e-002
1.184128e+003;5.564152e-002
1.186057e+003;5.496036e-002
1.187986e+003;5.509440e-002
1.189914e+003;5.538673e-002
1.191843e+003;5.550509e-002
1.193771e+003;5.547621e-002
1.195700e+003;5.562845e-002
1.197628e+003;5.590943e-002
1.199557e+003;5.593649e-002
1.201485e+003;5.570345e-002
1.203414e+003;5.571565e-002
1.205343e+003;5.599947e-002
1.207271e+003;5.627314e-002
1.209200e+003;5.697874e-002
1.211128e+003;5.793640e-002
1.213057e+003;5.875413e-002
1.214985e+003;5.923814e-002
1.216914e+003;5.953798e-002
1.218842e+003;5.962308e-002
1.220771e+003;5.931235e-002
1.222699e+003;5.855999e-002
1.224628e+003;5.809511e-002
1.226557e+003;5.796998e-002
1.228485e+003;5.775424e-002
1.230414e+003;5.750880e-002
1.232342e+003;5.749711e-002
1.234271e+003;5.757451e-002
1.236199e+003;5.760447e-002
1.238128e+003;5.760882e-002
1.240056e+003;5.781295e-002
1.241985e+003;5.785091e-002
1.243913e+003;5.795484e-002
1.245842e+003;5.868100e-002
1.247771e+003;5.953012e-002
1.249699e+003;6.046883e-002
1.251628e+003;6.259821e-002
1.253556e+003;6.514134e-002
1.255485e+003;6.627804e-002
1.257413e+003;6.601566e-002
1.259342e+003;6.477237e-002
1.261270e+003;6.283330e-002
1.263199e+003;6.081869e-002
1.265127e+003;5.954300e-002
1.267056e+003;5.852177e-002
1.268985e+003;5.777873e-002
1.270913e+003;5.742427e-002
1.272842e+003;5.703647e-002
1.274770e+003;5.691776e-002
1.276699e+003;5.699733e-002
1.278627e+003;5.657163e-002
1.280556e+003;5.653000e-002
1.282484e+003;5.722535e-002
1.284413e+003;5.769475e-002
1.286342e+003;5.826881e-002
1.288270e+003;5.915509e-002
1.290199e+003;5.997284e-002
1.292127e+003;6.074419e-002
1.294056e+003;6.140446e-002
1.295984e+003;6.168491e-002
1.297913e+003;6.179228e-002
1.299841e+003;6.166479e-002
1.301770e+003;6.176360e-002
1.303698e+003;6.179045e-002
1.305627e+003;6.051426e-002
1.307556e+003;5.820724e-002
1.309484e+003;5.621664e-002
1.311413e+003;5.537085e-002
1.313341e+003;5.528669e-002
1.315270e+003;5.553826e-002
1.317198e+003;5.611234e-002
1.319127e+003;5.704750e-002
1.321055e+003;5.827775e-002
1.322984e+003;5.955550e-002
1.324912e+003;6.090621e-002
1.326841e+003;6.231786e-002
1.328770e+003;6.345849e-002
1.330698e+003;6.364159e-002
1.332627e+003;6.291254e-002
1.334555e+003;6.212123e-002
1.336484e+003;6.181528e-002
1.338412e+003;6.176902e-002
1.340341e+003;6.218588e-002
1.342269e+003;6.324211e-002
1.344198e+003;6.479079e-002
1.346126e+003;6.690820e-002
1.348055e+003;6.975880e-002
1.349984e+003;7.310537e-002
1.351912e+003;7.718973e-002
1.353841e+003;8.276167e-002
1.355769e+003;8.950985e-002
1.357698e+003;9.516586e-002
1.359626e+003;9.745425e-002
1.361555e+003;9.728745e-002
1.363483e+003;9.745868e-002
1.365412e+003;9.998161e-002
1.367341e+003;1.073278e-001
1.369269e+003;1.220688e-001
1.371198e+003;1.441156e-001
1.373126e+003;1.698951e-001
1.375055e+003;1.902869e-001
1.376983e+003;1.928525e-001
1.378912e+003;1.751505e-001
1.380840e+003;1.483574e-001
1.382769e+003;1.223285e-001
1.384698e+003;1.010348e-001
1.386626e+003;8.565645e-002
1.388555e+003;7.553086e-002
1.390483e+003;6.906120e-002
1.392412e+003;6.472698e-002
1.394340e+003;6.200778e-002
1.396269e+003;6.064325e-002
1.398197e+003;5.992738e-002
1.400126e+003;5.945154e-002
1.402054e+003;5.932465e-002
1.403983e+003;5.927414e-002
1.405911e+003;5.939542e-002
1.407840e+003;5.973157e-002
1.409769e+003;6.000175e-002
1.411697e+003;6.072231e-002
1.413626e+003;6.143003e-002
1.415554e+003;6.170813e-002
1.417483e+003;6.169362e-002
1.419411e+003;6.215006e-002
1.421340e+003;6.371192e-002
1.423268e+003;6.576300e-002
1.425197e+003;6.828717e-002
1.427125e+003;7.230845e-002
1.429054e+003;7.825051e-002
1.430983e+003;8.647059e-002
1.432911e+003;9.624717e-002
1.434840e+003;1.033626e-001
1.436768e+003;1.064429e-001
1.438697e+003;1.087213e-001
1.440625e+003;1.118086e-001
1.442554e+003;1.168489e-001
1.444482e+003;1.246068e-001
1.446411e+003;1.337936e-001
1.448340e+003;1.435435e-001
1.450268e+003;1.522386e-001
1.452197e+003;1.582762e-001
1.454125e+003;1.611005e-001
1.456054e+003;1.611195e-001
1.457982e+003;1.597227e-001
1.459911e+003;1.574721e-001
1.461839e+003;1.530002e-001
1.463768e+003;1.455357e-001
1.465697e+003;1.361265e-001
1.467625e+003;1.258404e-001
1.469554e+003;1.150821e-001
1.471482e+003;1.048415e-001
1.473411e+003;9.568037e-002
1.475339e+003;8.752448e-002
1.477268e+003;8.066115e-002
1.479196e+003;7.494146e-002
1.481125e+003;6.986484e-002
1.483053e+003;6.545015e-002
1.484982e+003;6.157032e-002
1.486911e+003;5.845600e-002
1.488839e+003;5.593664e-002
1.490768e+003;5.380849e-002
1.492696e+003;5.234858e-002
1.494625e+003;5.084930e-002
1.496553e+003;4.946354e-002
1.498482e+003;4.864472e-002
1.500410e+003;4.794931e-002
1.502339e+003;4.707317e-002
1.504267e+003;4.579788e-002
1.506196e+003;4.472417e-002
1.508125e+003;4.423849e-002
1.510053e+003;4.405769e-002
1.511982e+003;4.381096e-002
1.513910e+003;4.342333e-002
1.515839e+003;4.280050e-002
1.517767e+003;4.214252e-002
1.519696e+003;4.162347e-002
1.521624e+003;4.141668e-002
1.523553e+003;4.151893e-002
1.525481e+003;4.148638e-002
1.527410e+003;4.170163e-002
1.529339e+003;4.191151e-002
1.531267e+003;4.203060e-002
1.533196e+003;4.238034e-002
1.535124e+003;4.310030e-002
1.537053e+003;4.350313e-002
1.538981e+003;4.320108e-002
1.540910e+003;4.353716e-002
1.542838e+003;4.469408e-002
1.544767e+003;4.580326e-002
1.546695e+003;4.625696e-002
1.548624e+003;4.619560e-002
1.550553e+003;4.613214e-002
1.552481e+003;4.609589e-002
1.554410e+003;4.558026e-002
1.556338e+003;4.457004e-002
1.558267e+003;4.342238e-002
1.560195e+003;4.328670e-002
1.562124e+003;4.354408e-002
1.564052e+003;4.332671e-002
1.565981e+003;4.331386e-002
1.567910e+003;4.307523e-002
1.569838e+003;4.252803e-002
1.571767e+003;4.240526e-002
1.573695e+003;4.226339e-002
1.575624e+003;4.214446e-002
1.577552e+003;4.268723e-002
1.579481e+003;4.296453e-002
1.581409e+003;4.270540e-002
1.583338e+003;4.259253e-002
1.585266e+003;4.234962e-002
1.587195e+003;4.203191e-002
1.589124e+003;4.167467e-002
1.591052e+003;4.165797e-002
1.592981e+003;4.186345e-002
1.594909e+003;4.193720e-002
1.596838e+003;4.188469e-002
1.598766e+003;4.205710e-002
1.600695e+003;4.249083e-002
1.602623e+003;4.288373e-002
1.604552e+003;4.313459e-002
1.606480e+003;4.337712e-002
1.608409e+003;4.368168e-002
1.610338e+003;4.383853e-002
1.612266e+003;4.409822e-002
1.614195e+003;4.450301e-002
1.616123e+003;4.475179e-002
1.618052e+003;4.526470e-002
1.619980e+003;4.573356e-002
1.621909e+003;4.591675e-002
1.623837e+003;4.632254e-002
1.625766e+003;4.690279e-002
1.627694e+003;4.721045e-002
1.629623e+003;4.742475e-002
1.631552e+003;4.757013e-002
1.633480e+003;4.723993e-002
1.635409e+003;4.698278e-002
1.637337e+003;4.760884e-002
1.639266e+003;4.806307e-002
1.641194e+003;4.830011e-002
1.643123e+003;4.870258e-002
1.645051e+003;4.883344e-002
1.646980e+003;4.900436e-002
1.648909e+003;4.946295e-002
1.650837e+003;4.901178e-002
1.652766e+003;4.829190e-002
1.654694e+003;4.883418e-002
1.656623e+003;4.952771e-002
1.658551e+003;4.972257e-002
1.660480e+003;4.933869e-002
1.662408e+003;4.879918e-002
1.664337e+003;4.866133e-002
1.666266e+003;4.846023e-002
1.668194e+003;4.798228e-002
1.670123e+003;4.769780e-002
1.672051e+003;4.763110e-002
1.673980e+003;4.716956e-002
1.675908e+003;4.672306e-002
1.677837e+003;4.646839e-002
1.679765e+003;4.610812e-002
1.681694e+003;4.576640e-002
1.683622e+003;4.490219e-002
1.685551e+003;4.451622e-002
1.687479e+003;4.480387e-002
1.689408e+003;4.497553e-002
1.691337e+003;4.512340e-002
1.693265e+003;4.497101e-002
1.695194e+003;4.434574e-002
1.697122e+003;4.448726e-002
1.699051e+003;4.447995e-002
1.700979e+003;4.475487e-002
1.702908e+003;4.572955e-002
1.704836e+003;4.611655e-002
1.706765e+003;4.633135e-002
1.708693e+003;4.660681e-002
1.710622e+003;4.674383e-002
1.712551e+003;4.667963e-002
1.714479e+003;4.632224e-002
1.716408e+003;4.536540e-002
1.718336e+003;4.498516e-002
1.720265e+003;4.506400e-002
1.722193e+003;4.510877e-002
1.724122e+003;4.514755e-002
1.726050e+003;4.510318e-002
1.727979e+003;4.488223e-002
1.729908e+003;4.487757e-002
1.731836e+003;4.488830e-002
1.733765e+003;4.503228e-002
1.735693e+003;4.613502e-002
1.737622e+003;4.673350e-002
1.739550e+003;4.659821e-002
1.741479e+003;4.634930e-002
1.743407e+003;4.541281e-002
1.745336e+003;4.358045e-002
1.747265e+003;4.170068e-002
1.749193e+003;4.004198e-002
1.751122e+003;3.832010e-002
1.753050e+003;3.694751e-002
1.754979e+003;3.554065e-002
1.756907e+003;3.380203e-002
1.758836e+003;3.242338e-002
1.760764e+003;3.125804e-002
1.762693e+003;3.010598e-002
1.764621e+003;2.907433e-002
1.766550e+003;2.837628e-002
1.768479e+003;2.798642e-002
1.770407e+003;2.727516e-002
1.772336e+003;2.661582e-002
1.774264e+003;2.654100e-002
1.776193e+003;2.646282e-002
1.778121e+003;2.608800e-002
1.780050e+003;2.563347e-002
1.781978e+003;2.534060e-002
1.783907e+003;2.481152e-002
1.785835e+003;2.424181e-002
1.787764e+003;2.390371e-002
1.789693e+003;2.353725e-002
1.791621e+003;2.288827e-002
1.793550e+003;2.259132e-002
1.795478e+003;2.250822e-002
1.797407e+003;2.214161e-002
1.799335e+003;2.161255e-002
1.801264e+003;2.117137e-002
1.803192e+003;2.079098e-002
1.805121e+003;2.044186e-002
1.807049e+003;2.045506e-002
1.808978e+003;2.032546e-002
1.810907e+003;2.023089e-002
1.812835e+003;2.022509e-002
1.814764e+003;1.992634e-002
1.816692e+003;1.964895e-002
1.818621e+003;1.962007e-002
1.820549e+003;1.953182e-002
1.822478e+003;1.956523e-002
1.824406e+003;1.968833e-002
1.826335e+003;1.964773e-002
1.828264e+003;1.947145e-002
1.830192e+003;1.949051e-002
1.832121e+003;1.952648e-002
1.834049e+003;1.954007e-002
1.835978e+003;1.974648e-002
1.837906e+003;1.968528e-002
1.839835e+003;1.917849e-002
1.841763e+003;1.891043e-002
1.843692e+003;1.885803e-002
1.845620e+003;1.897065e-002
1.847549e+003;1.892185e-002
1.849478e+003;1.869622e-002
1.851406e+003;1.851074e-002
1.853335e+003;1.848367e-002
1.855263e+003;1.848734e-002
1.857192e+003;1.846182e-002
1.859120e+003;1.845722e-002
1.861049e+003;1.839769e-002
1.862977e+003;1.838539e-002
1.864906e+003;1.817817e-002
1.866834e+003;1.816242e-002
1.868763e+003;1.826304e-002
1.870692e+003;1.814732e-002
1.872620e+003;1.812086e-002
1.874549e+003;1.809771e-002
1.876477e+003;1.792257e-002
1.878406e+003;1.798045e-002
1.880334e+003;1.810130e-002
1.882263e+003;1.811208e-002
1.884191e+003;1.802487e-002
1.886120e+003;1.790348e-002
1.888048e+003;1.776539e-002
1.889977e+003;1.788877e-002
1.891906e+003;1.813264e-002
1.893834e+003;1.799724e-002
1.895763e+003;1.792589e-002
1.897691e+003;1.807122e-002
1.899620e+003;1.829041e-002
1.901548e+003;1.832051e-002
1.903477e+003;1.825215e-002
1.905405e+003;1.782145e-002
1.907334e+003;1.726869e-002
1.909262e+003;1.716337e-002
1.911191e+003;1.740628e-002
1.913120e+003;1.756503e-002
1.915048e+003;1.740700e-002
1.916977e+003;1.727762e-002
1.918905e+003;1.750203e-002
1.920834e+003;1.729541e-002
1.922762e+003;1.706911e-002
1.924691e+003;1.722756e-002
1.926619e+003;1.731558e-002
1.928548e+003;1.738338e-002
1.930477e+003;1.705832e-002
1.932405e+003;1.661448e-002
1.934334e+003;1.651228e-002
1.936262e+003;1.643763e-002
1.938191e+003;1.619699e-002
1.940119e+003;1.610640e-002
1.942048e+003;1.625467e-002
1.943976e+003;1.636585e-002
1.945905e+003;1.617910e-002
1.947833e+003;1.607773e-002
1.949762e+003;1.603337e-002
1.951691e+003;1.623940e-002
1.953619e+003;1.636324e-002
1.955548e+003;1.635281e-002
1.957476e+003;1.646843e-002
1.959405e+003;1.644768e-002
1.961333e+003;1.620572e-002
1.963262e+003;1.598356e-002
1.965190e+003;1.592602e-002
1.967119e+003;1.583656e-002
1.969047e+003;1.578962e-002
1.970976e+003;1.564488e-002
1.972905e+003;1.561496e-002
1.974833e+003;1.586560e-002
1.976762e+003;1.594063e-002
1.978690e+003;1.598160e-002
1.980619e+003;1.594149e-002
1.982547e+003;1.574031e-002
1.984476e+003;1.575076e-002
1.986404e+003;1.585350e-002
1.988333e+003;1.586642e-002
1.990261e+003;1.571997e-002
1.992190e+003;1.551365e-002
1.994119e+003;1.549123e-002
1.996047e+003;1.557897e-002
1.997976e+003;1.551928e-002
1.999904e+003;1.553879e-002
2.001833e+003;1.560978e-002
2.003761e+003;1.574928e-002
2.005690e+003;1.579800e-002
2.007618e+003;1.586735e-002
2.009547e+003;1.603901e-002
2.011476e+003;1.609155e-002
2.013404e+003;1.589089e-002
2.015333e+003;1.572204e-002
2.017261e+003;1.566085e-002
2.019190e+003;1.577113e-002
2.021118e+003;1.581285e-002
2.023047e+003;1.554607e-002
2.024975e+003;1.538991e-002
2.026904e+003;1.541085e-002
2.028833e+003;1.528762e-002
2.030761e+003;1.518889e-002
2.032690e+003;1.526147e-002
2.034618e+003;1.533866e-002
2.036547e+003;1.534920e-002
2.038475e+003;1.525519e-002
2.040404e+003;1.538195e-002
2.042332e+003;1.580536e-002
2.044261e+003;1.585680e-002
2.046189e+003;1.576897e-002
2.048118e+003;1.566556e-002
2.050047e+003;1.564770e-002
2.051975e+003;1.576385e-002
2.053904e+003;1.561960e-002
2.055832e+003;1.558357e-002
2.057761e+003;1.553862e-002
2.059689e+003;1.562695e-002
2.061618e+003;1.565292e-002
2.063546e+003;1.540907e-002
2.065475e+003;1.520546e-002
2.067404e+003;1.536842e-002
2.069332e+003;1.548203e-002
2.071260e+003;1.552347e-002
2.073189e+003;1.566542e-002
2.075118e+003;1.576388e-002
2.077046e+003;1.570153e-002
2.078975e+003;1.570342e-002
2.080903e+003;1.584924e-002
2.082832e+003;1.578288e-002
2.084760e+003;1.570160e-002
2.086689e+003;1.591461e-002
2.088617e+003;1.576103e-002
2.090546e+003;1.564759e-002
2.092475e+003;1.568129e-002
2.094403e+003;1.564388e-002
2.096332e+003;1.558944e-002
2.098260e+003;1.564155e-002
2.100189e+003;1.584910e-002
2.102117e+003;1.607663e-002
2.104046e+003;1.596366e-002
2.105974e+003;1.584432e-002
2.107903e+003;1.583426e-002
2.109832e+003;1.575121e-002
2.111760e+003;1.575753e-002
2.113688e+003;1.586498e-002
2.115617e+003;1.601037e-002
2.117546e+003;1.584443e-002
2.119474e+003;1.574584e-002
2.121403e+003;1.598322e-002
2.123331e+003;1.624449e-002
2.125260e+003;1.647328e-002
2.127188e+003;1.683462e-002
2.129117e+003;1.714173e-002
2.131045e+003;1.721604e-002
2.132974e+003;1.715358e-002
2.134903e+003;1.709251e-002
2.136831e+003;1.700463e-002
2.138760e+003;1.695660e-002
2.140688e+003;1.693638e-002
2.142617e+003;1.678372e-002
2.144545e+003;1.657410e-002
2.146474e+003;1.674959e-002
2.148402e+003;1.683245e-002
2.150331e+003;1.681499e-002
2.152260e+003;1.707224e-002
2.154188e+003;1.703895e-002
2.156117e+003;1.681764e-002
2.158045e+003;1.671143e-002
2.159974e+003;1.687819e-002
2.161902e+003;1.718295e-002
2.163831e+003;1.730837e-002
2.165759e+003;1.750520e-002
2.167688e+003;1.771845e-002
2.169616e+003;1.768507e-002
2.171545e+003;1.771054e-002
2.173474e+003;1.801188e-002
2.175402e+003;1.817137e-002
2.177331e+003;1.812390e-002
2.179259e+003;1.821196e-002
2.181188e+003;1.816138e-002
2.183116e+003;1.816079e-002
2.185045e+003;1.811039e-002
2.186973e+003;1.781461e-002
2.188902e+003;1.755354e-002
2.190831e+003;1.772759e-002
2.192759e+003;1.803381e-002
2.194688e+003;1.784423e-002
2.196616e+003;1.779335e-002
2.198545e+003;1.803132e-002
2.200473e+003;1.800425e-002
2.202402e+003;1.778323e-002
2.204330e+003;1.754667e-002
2.206259e+003;1.736883e-002
2.208188e+003;1.725907e-002
2.210116e+003;1.752435e-002
2.212044e+003;1.767690e-002
2.213973e+003;1.742339e-002
2.215902e+003;1.727186e-002
2.217830e+003;1.763283e-002
2.219759e+003;1.799313e-002
2.221687e+003;1.805070e-002
2.223616e+003;1.797462e-002
2.225544e+003;1.805215e-002
2.227473e+003;1.794108e-002
2.229401e+003;1.794302e-002
2.231330e+003;1.790628e-002
2.233259e+003;1.774271e-002
2.235187e+003;1.767745e-002
2.237116e+003;1.776856e-002
2.239044e+003;1.795797e-002
2.240973e+003;1.803119e-002
2.242901e+003;1.793459e-002
2.244830e+003;1.777019e-002
2.246758e+003;1.780888e-002
2.248687e+003;1.803067e-002
2.250615e+003;1.827199e-002
2.252544e+003;1.849138e-002
2.254473e+003;1.853726e-002
2.256401e+003;1.852914e-002
2.258330e+003;1.860096e-002
2.260258e+003;1.862970e-002
2.262187e+003;1.850943e-002
2.264115e+003;1.844834e-002
2.266044e+003;1.846472e-002
2.267972e+003;1.829321e-002
2.269901e+003;1.803689e-002
2.271830e+003;1.782884e-002
2.273758e+003;1.783605e-002
2.275687e+003;1.780968e-002
2.277615e+003;1.781955e-002
2.279544e+003;1.786388e-002
2.281472e+003;1.800380e-002
2.283401e+003;1.806189e-002
2.285329e+003;1.791664e-002
2.287258e+003;1.768311e-002
2.289187e+003;1.762006e-002
2.291115e+003;1.747971e-002
2.293043e+003;1.738555e-002
2.294972e+003;1.766896e-002
2.296901e+003;1.778824e-002
2.298829e+003;1.773539e-002
2.300758e+003;1.782221e-002
2.302686e+003;1.784130e-002
2.304615e+003;1.784023e-002
2.306543e+003;1.782576e-002
2.308472e+003;1.795673e-002
2.310400e+003;1.810238e-002
2.312329e+003;1.785728e-002
2.314258e+003;1.799351e-002
2.316186e+003;1.839164e-002
2.318115e+003;1.820540e-002
2.320043e+003;1.795776e-002
2.321972e+003;1.791529e-002
2.323900e+003;1.825191e-002
2.325829e+003;1.862683e-002
2.327757e+003;1.865177e-002
2.329686e+003;1.857655e-002
2.331615e+003;1.890264e-002
2.333543e+003;1.928658e-002
2.335472e+003;1.943004e-002
2.337400e+003;1.932025e-002
2.339329e+003;1.925603e-002
2.341257e+003;1.942010e-002
2.343186e+003;1.954752e-002
2.345114e+003;1.946341e-002
2.347043e+003;1.953144e-002
2.348971e+003;1.980668e-002
2.350900e+003;1.976316e-002
2.352829e+003;1.954454e-002
2.354757e+003;1.971069e-002
2.356686e+003;1.989266e-002
2.358614e+003;1.982464e-002
2.360543e+003;1.982513e-002
2.362471e+003;2.015265e-002
2.364400e+003;2.031615e-002
2.366328e+003;2.017628e-002
2.368257e+003;2.010548e-002
2.370186e+003;2.022627e-002
2.372114e+003;2.024970e-002
2.374042e+003;2.028421e-002
2.375971e+003;2.029146e-002
2.377900e+003;2.027685e-002
2.379828e+003;2.035028e-002
2.381757e+003;2.039616e-002
2.383685e+003;2.046110e-002
2.385614e+003;2.037334e-002
2.387542e+003;1.995971e-002
2.389471e+003;1.988413e-002
2.391399e+003;2.013821e-002
2.393328e+003;2.039938e-002
2.395257e+003;2.078948e-002
2.397185e+003;2.076119e-002
2.399114e+003;2.082473e-002
2.401042e+003;2.103373e-002
2.402971e+003;2.107313e-002
2.404899e+003;2.116427e-002
2.406828e+003;2.132534e-002
2.408756e+003;2.115888e-002
2.410685e+003;2.097193e-002
2.412614e+003;2.101818e-002
2.414542e+003;2.100761e-002
2.416471e+003;2.112208e-002
2.418399e+003;2.119645e-002
2.420328e+003;2.132036e-002
2.422256e+003;2.167339e-002
2.424185e+003;2.206045e-002
2.426113e+003;2.192486e-002
2.428042e+003;2.154506e-002
2.429970e+003;2.154663e-002
2.431899e+003;2.165591e-002
2.433828e+003;2.156954e-002
2.435756e+003;2.132934e-002
2.437685e+003;2.109602e-002
2.439613e+003;2.101634e-002
2.441542e+003;2.091762e-002
2.443470e+003;2.079087e-002
2.445399e+003;2.088769e-002
2.447327e+003;2.096901e-002
2.449256e+003;2.084983e-002
2.451185e+003;2.060631e-002
2.453113e+003;2.055399e-002
2.455042e+003;2.065370e-002
2.456970e+003;2.059137e-002
2.458899e+003;2.068014e-002
2.460827e+003;2.056354e-002
2.462756e+003;2.010281e-002
2.464684e+003;1.997137e-002
2.466613e+003;2.036615e-002
2.468542e+003;2.057316e-002
2.470470e+003;2.049302e-002
2.472398e+003;2.058258e-002
2.474327e+003;2.058605e-002
2.476256e+003;2.063049e-002
2.478184e+003;2.106618e-002
2.480113e+003;2.124106e-002
2.482041e+003;2.097906e-002
2.483970e+003;2.097437e-002
2.485898e+003;2.090201e-002
2.487827e+003;2.095406e-002
2.489755e+003;2.136115e-002
2.491684e+003;2.131257e-002
2.493613e+003;2.096498e-002
2.495541e+003;2.086311e-002
2.497470e+003;2.093466e-002
2.499398e+003;2.120157e-002
2.501327e+003;2.128622e-002
2.503255e+003;2.118435e-002
2.505184e+003;2.112924e-002
2.507112e+003;2.098643e-002
2.509041e+003;2.109661e-002
2.510969e+003;2.128121e-002
2.512898e+003;2.151432e-002
2.514827e+003;2.204696e-002
2.516755e+003;2.250836e-002
2.518684e+003;2.265216e-002
2.520612e+003;2.269056e-002
2.522541e+003;2.305113e-002
2.524469e+003;2.335606e-002
2.526398e+003;2.353270e-002
2.528326e+003;2.396035e-002
2.530255e+003;2.409318e-002
2.532184e+003;2.418775e-002
2.534112e+003;2.433197e-002
2.536041e+003;2.425208e-002
2.537969e+003;2.460666e-002
2.539898e+003;2.495412e-002
2.541826e+003;2.509785e-002
2.543755e+003;2.540190e-002
2.545683e+003;2.582451e-002
2.547612e+003;2.620494e-002
2.549541e+003;2.635662e-002
2.551469e+003;2.648624e-002
2.553397e+003;2.669241e-002
2.555326e+003;2.710982e-002
2.557255e+003;2.753173e-002
2.559183e+003;2.776786e-002
2.561112e+003;2.824023e-002
2.563040e+003;2.874158e-002
2.564969e+003;2.886355e-002
2.566897e+003;2.923719e-002
2.568826e+003;3.001210e-002
2.570754e+003;3.051436e-002
2.572683e+003;3.077833e-002
2.574612e+003;3.120994e-002
2.576540e+003;3.189633e-002
2.578469e+003;3.232421e-002
2.580397e+003;3.265171e-002
2.582326e+003;3.303332e-002
2.584254e+003;3.273245e-002
2.586183e+003;3.196980e-002
2.588111e+003;3.143885e-002
2.590040e+003;3.106905e-002
2.591969e+003;3.083346e-002
2.593897e+003;3.060198e-002
2.595826e+003;3.049534e-002
2.597754e+003;3.052143e-002
2.599683e+003;3.053145e-002
2.601611e+003;3.064941e-002
2.603540e+003;3.085609e-002
2.605468e+003;3.106203e-002
2.607397e+003;3.123070e-002
2.609325e+003;3.148086e-002
2.611254e+003;3.177739e-002
2.613183e+003;3.197568e-002
2.615111e+003;3.220465e-002
2.617040e+003;3.232863e-002
2.618968e+003;3.214270e-002
2.620897e+003;3.198178e-002
2.622825e+003;3.211302e-002
2.624754e+003;3.203368e-002
2.626682e+003;3.175169e-002
2.628611e+003;3.153501e-002
2.630540e+003;3.131868e-002
2.632468e+003;3.130212e-002
2.634396e+003;3.154677e-002
2.636325e+003;3.181201e-002
2.638254e+003;3.178962e-002
2.640182e+003;3.174335e-002
2.642111e+003;3.214581e-002
2.644039e+003;3.263343e-002
2.645968e+003;3.289426e-002
2.647896e+003;3.335181e-002
2.649825e+003;3.394263e-002
2.651753e+003;3.414676e-002
2.653682e+003;3.444935e-002
2.655611e+003;3.486933e-002
2.657539e+003;3.499954e-002
2.659468e+003;3.510284e-002
2.661396e+003;3.521900e-002
2.663325e+003;3.557478e-002
2.665253e+003;3.595071e-002
2.667182e+003;3.602508e-002
2.669110e+003;3.600280e-002
2.671039e+003;3.600362e-002
2.672968e+003;3.596784e-002
2.674896e+003;3.600978e-002
2.676825e+003;3.648241e-002
2.678753e+003;3.672551e-002
2.680682e+003;3.659086e-002
2.682610e+003;3.642179e-002
2.684539e+003;3.641272e-002
2.686467e+003;3.656440e-002
2.688396e+003;3.679013e-002
2.690324e+003;3.684207e-002
2.692253e+003;3.664976e-002
2.694182e+003;3.662319e-002
2.696110e+003;3.673745e-002
2.698039e+003;3.687496e-002
2.699967e+003;3.722896e-002
2.701896e+003;3.785548e-002
2.703824e+003;3.880442e-002
2.705753e+003;3.967676e-002
2.707681e+003;4.030966e-002
2.709610e+003;4.106836e-002
2.711539e+003;4.187422e-002
2.713467e+003;4.284603e-002
2.715396e+003;4.424718e-002
2.717324e+003;4.615347e-002
2.719253e+003;4.773027e-002
2.721181e+003;4.897484e-002
2.723110e+003;4.969783e-002
2.725038e+003;4.918853e-002
2.726967e+003;4.810774e-002
2.728896e+003;4.701490e-002
2.730824e+003;4.580811e-002
2.732752e+003;4.445143e-002
2.734681e+003;4.317769e-002
2.736610e+003;4.218776e-002
2.738538e+003;4.146462e-002
2.740467e+003;4.094535e-002
2.742395e+003;4.031214e-002
2.744324e+003;3.945464e-002
2.746252e+003;3.892041e-002
2.748181e+003;3.865311e-002
2.750109e+003;3.886207e-002
2.752038e+003;3.908747e-002
2.753967e+003;3.908628e-002
2.755895e+003;3.922247e-002
2.757824e+003;3.928725e-002
2.759752e+003;3.959250e-002
2.761681e+003;4.012014e-002
2.763609e+003;4.063660e-002
2.765538e+003;4.071589e-002
2.767466e+003;4.101232e-002
2.769395e+003;4.139525e-002
2.771323e+003;4.151168e-002
2.773252e+003;4.199297e-002
2.775181e+003;4.251001e-002
2.777109e+003;4.310871e-002
2.779038e+003;4.421006e-002
2.780966e+003;4.547999e-002
2.782895e+003;4.683373e-002
2.784823e+003;4.809090e-002
2.786752e+003;4.931300e-002
2.788680e+003;5.060296e-002
2.790609e+003;5.188477e-002
2.792538e+003;5.343020e-002
2.794466e+003;5.499638e-002
2.796395e+003;5.633146e-002
2.798323e+003;5.789578e-002
2.800252e+003;5.953323e-002
2.802180e+003;6.130451e-002
2.804109e+003;6.350884e-002
2.806037e+003;6.581748e-002
2.807966e+003;6.763329e-002
2.809895e+003;6.914140e-002
2.811823e+003;7.100770e-002
2.813751e+003;7.310816e-002
2.815680e+003;7.520705e-002
2.817609e+003;7.724558e-002
2.819537e+003;7.972690e-002
2.821466e+003;8.281483e-002
2.823394e+003;8.648090e-002
2.825323e+003;9.116713e-002
2.827251e+003;9.737020e-002
2.829180e+003;1.049254e-001
2.831108e+003;1.136571e-001
2.833037e+003;1.227898e-001
2.834966e+003;1.297545e-001
2.836894e+003;1.334261e-001
2.838823e+003;1.336373e-001
2.840751e+003;1.312343e-001
2.842680e+003;1.274248e-001
2.844608e+003;1.229204e-001
2.846537e+003;1.181099e-001
2.848465e+003;1.142543e-001
2.850394e+003;1.118745e-001
2.852323e+003;1.101957e-001
2.854251e+003;1.097233e-001
2.856180e+003;1.110738e-001
2.858108e+003;1.140008e-001
2.860037e+003;1.188253e-001
2.861965e+003;1.256884e-001
2.863894e+003;1.332374e-001
2.865822e+003;1.393848e-001
2.867751e+003;1.429606e-001
2.869679e+003;1.443061e-001
2.871608e+003;1.443835e-001
2.873536e+003;1.447014e-001
2.875465e+003;1.449889e-001
2.877394e+003;1.442166e-001
2.879322e+003;1.425772e-001
2.881251e+003;1.407203e-001
2.883179e+003;1.399537e-001
2.885108e+003;1.405168e-001
2.887036e+003;1.415214e-001
2.888965e+003;1.429240e-001
2.890893e+003;1.452655e-001
2.892822e+003;1.484931e-001
2.894750e+003;1.523493e-001
2.896679e+003;1.568059e-001
2.898608e+003;1.617334e-001
2.900536e+003;1.666067e-001
2.902465e+003;1.711891e-001
2.904393e+003;1.762634e-001
2.906322e+003;1.811004e-001
2.908250e+003;1.855508e-001
2.910179e+003;1.896564e-001
2.912107e+003;1.923485e-001
2.914036e+003;1.938280e-001
2.915965e+003;1.945497e-001
2.917893e+003;1.939709e-001
2.919822e+003;1.912478e-001
2.921750e+003;1.867821e-001
2.923679e+003;1.816685e-001
2.925607e+003;1.759124e-001
2.927536e+003;1.692992e-001
2.929464e+003;1.621274e-001
2.931393e+003;1.545584e-001
2.933322e+003;1.465957e-001
2.935250e+003;1.390577e-001
2.937178e+003;1.332079e-001
2.939107e+003;1.304843e-001
2.941036e+003;1.311638e-001
2.942964e+003;1.353516e-001
2.944893e+003;1.420905e-001
2.946821e+003;1.495530e-001
2.948750e+003;1.561367e-001
2.950678e+003;1.602319e-001
2.952607e+003;1.609963e-001
2.954535e+003;1.591467e-001
2.956464e+003;1.555407e-001
2.958393e+003;1.505464e-001
2.960321e+003;1.449954e-001
2.962250e+003;1.391103e-001
2.964178e+003;1.323259e-001
2.966107e+003;1.253790e-001
2.968035e+003;1.185241e-001
2.969964e+003;1.120431e-001
2.971892e+003;1.062663e-001
2.973821e+003;1.008540e-001
2.975750e+003;9.580578e-002
2.977678e+003;9.071510e-002
2.979607e+003;8.599038e-002
2.981535e+003;8.239736e-002
2.983464e+003;7.917487e-002
2.985392e+003;7.615723e-002
2.987321e+003;7.346860e-002
2.989249e+003;7.115041e-002
2.991178e+003;6.906486e-002
2.993106e+003;6.653398e-002
2.995035e+003;6.401484e-002
2.996964e+003;6.187285e-002
2.998892e+003;5.979241e-002
3.000821e+003;5.775860e-002
3.002749e+003;5.568646e-002
3.004678e+003;5.393573e-002
3.006606e+003;5.223795e-002
3.008535e+003;5.036264e-002
3.010463e+003;4.884000e-002
3.012392e+003;4.729413e-002
3.014321e+003;4.569079e-002
3.016249e+003;4.450987e-002
3.018177e+003;4.319782e-002
3.020106e+003;4.203461e-002
3.022035e+003;4.095391e-002
3.023963e+003;3.972450e-002
3.025892e+003;3.870657e-002
3.027820e+003;3.807556e-002
3.029749e+003;3.768311e-002
3.031677e+003;3.719203e-002
3.033606e+003;3.645714e-002
3.035534e+003;3.584368e-002
3.037463e+003;3.545504e-002
3.039392e+003;3.520757e-002
3.041320e+003;3.475995e-002
3.043249e+003;3.390086e-002
3.045177e+003;3.341446e-002
3.047106e+003;3.356145e-002
3.049034e+003;3.338169e-002
3.050963e+003;3.281717e-002
3.052891e+003;3.240406e-002
3.054820e+003;3.207727e-002
3.056749e+003;3.197276e-002
3.058677e+003;3.231268e-002
3.060606e+003;3.244512e-002
3.062534e+003;3.205473e-002
3.064463e+003;3.177956e-002
3.066391e+003;3.127057e-002
3.068320e+003;3.105570e-002
3.070248e+003;3.135943e-002
3.072177e+003;3.146664e-002
3.074105e+003;3.101723e-002
3.076034e+003;3.084947e-002
3.077963e+003;3.076673e-002
3.079891e+003;3.063228e-002
3.081820e+003;3.063238e-002
3.083748e+003;3.068647e-002
3.085677e+003;3.059676e-002
3.087605e+003;3.047039e-002
3.089534e+003;3.041825e-002
3.091462e+003;3.026156e-002
3.093391e+003;3.014334e-002
3.095320e+003;3.013592e-002
3.097248e+003;3.004185e-002
3.099177e+003;2.989424e-002
3.101105e+003;2.976619e-002
3.103034e+003;2.987876e-002
3.104962e+003;3.010346e-002
3.106891e+003;3.020017e-002
3.108819e+003;2.997624e-002
3.110748e+003;2.980033e-002
3.112677e+003;2.998924e-002
3.114605e+003;3.013550e-002
3.116533e+003;3.022038e-002
3.118462e+003;3.018451e-002
3.120391e+003;3.006792e-002
3.122319e+003;3.025424e-002
3.124248e+003;3.047831e-002
3.126176e+003;3.025221e-002
3.128105e+003;3.018969e-002
3.130033e+003;3.058140e-002
3.131962e+003;3.047981e-002
3.133890e+003;3.058055e-002
3.135819e+003;3.083478e-002
3.137748e+003;3.049171e-002
3.139676e+003;3.032782e-002
3.141605e+003;3.058236e-002
3.143533e+003;3.066741e-002
3.145462e+003;3.089227e-002
3.147390e+003;3.102659e-002
3.149319e+003;3.095200e-002
3.151247e+003;3.119221e-002
3.153176e+003;3.179967e-002
3.155104e+003;3.205537e-002
3.157033e+003;3.180031e-002
3.158962e+003;3.155393e-002
3.160890e+003;3.149924e-002
3.162819e+003;3.124494e-002
3.164747e+003;3.147334e-002
3.166676e+003;3.174467e-002
3.168604e+003;3.181579e-002
3.170533e+003;3.194430e-002
3.172461e+003;3.175087e-002
3.174390e+003;3.162185e-002
3.176319e+003;3.175557e-002
3.178247e+003;3.178121e-002
3.180176e+003;3.176994e-002
3.182104e+003;3.195032e-002
3.184033e+003;3.186931e-002
3.185961e+003;3.186353e-002
3.187890e+003;3.229022e-002
3.189818e+003;3.271205e-002
3.191747e+003;3.253235e-002
3.193676e+003;3.223612e-002
3.195604e+003;3.217428e-002
3.197532e+003;3.237261e-002
3.199461e+003;3.253382e-002
3.201390e+003;3.242566e-002
3.203318e+003;3.237375e-002
3.205247e+003;3.215808e-002
3.207175e+003;3.204356e-002
3.209104e+003;3.256428e-002
3.211032e+003;3.262653e-002
3.212961e+003;3.198193e-002
3.214889e+003;3.172987e-002
3.216818e+003;3.190989e-002
3.218747e+003;3.204670e-002
3.220675e+003;3.187658e-002
3.222604e+003;3.157538e-002
3.224532e+003;3.142988e-002
3.226461e+003;3.135722e-002
3.228389e+003;3.147362e-002
3.230318e+003;3.142065e-002
3.232246e+003;3.099922e-002
3.234175e+003;3.060963e-002
3.236104e+003;3.031876e-002
3.238032e+003;3.045500e-002
3.239961e+003;3.086690e-002
3.241889e+003;3.089700e-002
3.243818e+003;3.080219e-002
3.245746e+003;3.064661e-002
3.247675e+003;3.037230e-002
3.249603e+003;3.019399e-002
3.251532e+003;3.023811e-002
3.253460e+003;3.037120e-002
3.255389e+003;3.036768e-002
3.257318e+003;3.027914e-002
3.259246e+003;3.051265e-002
3.261175e+003;3.073590e-002
3.263103e+003;3.065653e-002
3.265032e+003;3.093795e-002
3.266960e+003;3.110375e-002
3.268889e+003;3.092521e-002
3.270817e+003;3.084797e-002
3.272746e+003;3.075290e-002
3.274675e+003;3.075926e-002
3.276603e+003;3.061638e-002
3.278531e+003;3.091148e-002
3.280460e+003;3.139337e-002
3.282389e+003;3.151783e-002
3.284317e+003;3.127399e-002
3.286246e+003;3.088209e-002
3.288174e+003;3.072726e-002
3.290103e+003;3.029804e-002
3.292031e+003;2.967625e-002
3.293960e+003;2.979391e-002
3.295888e+003;3.046253e-002
3.297817e+003;3.086434e-002
3.299746e+003;3.041207e-002
3.301674e+003;3.010794e-002
3.303603e+003;3.022845e-002
3.305531e+003;3.066876e-002
3.307460e+003;3.070755e-002
3.309388e+003;3.030302e-002
3.311317e+003;3.031627e-002
3.313245e+003;3.058350e-002
3.315174e+003;3.071495e-002
3.317103e+003;3.054997e-002
3.319031e+003;3.030781e-002
3.320960e+003;3.013837e-002
3.322888e+003;2.996335e-002
3.324817e+003;3.017108e-002
3.326745e+003;3.065390e-002
3.328674e+003;3.067747e-002
3.330602e+003;3.009799e-002
3.332531e+003;2.999385e-002
3.334459e+003;3.056028e-002
3.336388e+003;3.083727e-002
3.338317e+003;3.048098e-002
3.340245e+003;3.005890e-002
3.342174e+003;2.964733e-002
3.344102e+003;2.927830e-002
3.346031e+003;2.932818e-002
3.347959e+003;2.961502e-002
3.349888e+003;3.016355e-002
3.351816e+003;3.044878e-002
3.353745e+003;3.035052e-002
3.355674e+003;3.012665e-002
3.357602e+003;2.963683e-002
3.359531e+003;2.934232e-002
3.361459e+003;2.957469e-002
3.363388e+003;2.978713e-002
3.365316e+003;2.999360e-002
3.367245e+003;2.962048e-002
3.369173e+003;2.905382e-002
3.371102e+003;2.892198e-002
3.373031e+003;2.871194e-002
3.374959e+003;2.885197e-002
3.376887e+003;2.932265e-002
3.378816e+003;2.883168e-002
3.380745e+003;2.814283e-002
3.382673e+003;2.769892e-002
3.384602e+003;2.743410e-002
3.386530e+003;2.764814e-002
3.388459e+003;2.774356e-002
3.390387e+003;2.758935e-002
3.392316e+003;2.776546e-002
3.394244e+003;2.802427e-002
3.396173e+003;2.787416e-002
3.398102e+003;2.771700e-002
3.400030e+003;2.735469e-002
3.401959e+003;2.737096e-002
3.403887e+003;2.769599e-002
3.405816e+003;2.747306e-002
3.407744e+003;2.716090e-002
3.409673e+003;2.742923e-002
3.411601e+003;2.740424e-002
3.413530e+003;2.704670e-002
3.415458e+003;2.678241e-002
3.417387e+003;2.681737e-002
3.419316e+003;2.721540e-002
3.421244e+003;2.731933e-002
3.423173e+003;2.716538e-002
3.425101e+003;2.684716e-002
3.427030e+003;2.663587e-002
3.428958e+003;2.657746e-002
3.430887e+003;2.664104e-002
3.432815e+003;2.624524e-002
3.434744e+003;2.604050e-002
3.436673e+003;2.597078e-002
3.438601e+003;2.539565e-002
3.440530e+003;2.478518e-002
3.442458e+003;2.460182e-002
3.444387e+003;2.470096e-002
3.446315e+003;2.481226e-002
3.448244e+003;2.486503e-002
3.450172e+003;2.473463e-002
3.452101e+003;2.471337e-002
3.454030e+003;2.486724e-002
3.455958e+003;2.437483e-002
3.457886e+003;2.368646e-002
3.459815e+003;2.338889e-002
3.461744e+003;2.340781e-002
3.463672e+003;2.349419e-002
3.465601e+003;2.359717e-002
3.467529e+003;2.334941e-002
3.469458e+003;2.309261e-002
3.471386e+003;2.295827e-002
3.473315e+003;2.318158e-002
3.475243e+003;2.295163e-002
3.477172e+003;2.245089e-002
3.479101e+003;2.248177e-002
3.481029e+003;2.285481e-002
3.482958e+003;2.260769e-002
3.484886e+003;2.199359e-002
3.486815e+003;2.170098e-002
3.488743e+003;2.165215e-002
3.490672e+003;2.146036e-002
3.492600e+003;2.098083e-002
3.494529e+003;2.103209e-002
3.496458e+003;2.134274e-002
3.498386e+003;2.127951e-002
3.500315e+003;2.071277e-002
3.502243e+003;2.049490e-002
3.504172e+003;2.109846e-002
3.506100e+003;2.152929e-002
3.508029e+003;2.113122e-002
3.509957e+003;2.033115e-002
3.511886e+003;1.996821e-002
3.513814e+003;1.987143e-002
3.515743e+003;2.006585e-002
3.517672e+003;2.035612e-002
3.519600e+003;2.041835e-002
3.521529e+003;2.028761e-002
3.523457e+003;2.004573e-002
3.525386e+003;1.975730e-002
3.527314e+003;1.953251e-002
3.529243e+003;1.924190e-002
3.531171e+003;1.891925e-002
3.533100e+003;1.876160e-002
3.535029e+003;1.892168e-002
3.536957e+003;1.896882e-002
3.538885e+003;1.881758e-002
3.540814e+003;1.886070e-002
3.542743e+003;1.863548e-002
3.544671e+003;1.816335e-002
3.546600e+003;1.817586e-002
3.548528e+003;1.829245e-002
3.550457e+003;1.803761e-002
3.552385e+003;1.785943e-002
3.554314e+003;1.767272e-002
3.556242e+003;1.765015e-002
3.558171e+003;1.756961e-002
3.560100e+003;1.713328e-002
3.562028e+003;1.685453e-002
3.563957e+003;1.697448e-002
3.565885e+003;1.633056e-002
3.567814e+003;1.580903e-002
3.569742e+003;1.601185e-002
3.571671e+003;1.589567e-002
3.573599e+003;1.584700e-002
3.575528e+003;1.605462e-002
3.577457e+003;1.588649e-002
3.579385e+003;1.548961e-002
3.581314e+003;1.533804e-002
3.583242e+003;1.527080e-002
3.585171e+003;1.532074e-002
3.587099e+003;1.500240e-002
3.589028e+003;1.445887e-002
3.590956e+003;1.453965e-002
3.592885e+003;1.470541e-002
3.594813e+003;1.489990e-002
3.596742e+003;1.480777e-002
3.598671e+003;1.434146e-002
3.600599e+003;1.404153e-002
3.602528e+003;1.417526e-002
3.604456e+003;1.421059e-002
3.606385e+003;1.381520e-002
3.608313e+003;1.370956e-002
3.610242e+003;1.372607e-002
3.612170e+003;1.392734e-002
3.614099e+003;1.421559e-002
3.616028e+003;1.373350e-002
3.617956e+003;1.345634e-002
3.619885e+003;1.347103e-002
3.621813e+003;1.341806e-002
3.623742e+003;1.343108e-002
3.625670e+003;1.296484e-002
3.627599e+003;1.243234e-002
3.629527e+003;1.281111e-002
3.631456e+003;1.319865e-002
3.633385e+003;1.315579e-002
3.635313e+003;1.359204e-002
3.637241e+003;1.392553e-002
3.639170e+003;1.334879e-002
3.641099e+003;1.275215e-002
3.643027e+003;1.280845e-002
3.644956e+003;1.300510e-002
3.646884e+003;1.241874e-002
3.648813e+003;1.204420e-002
3.650741e+003;1.233699e-002
3.652670e+003;1.299284e-002
3.654598e+003;1.313567e-002
3.656527e+003;1.265972e-002
3.658456e+003;1.234295e-002
3.660384e+003;1.209264e-002
3.662313e+003;1.182255e-002
3.664241e+003;1.193268e-002
3.666170e+003;1.220941e-002
3.668098e+003;1.199542e-002
3.670027e+003;1.185830e-002
3.671955e+003;1.223211e-002
3.673884e+003;1.256889e-002
3.675813e+003;1.276000e-002
3.677741e+003;1.295952e-002
3.679669e+003;1.283500e-002
3.681598e+003;1.267368e-002
3.683527e+003;1.273205e-002
3.685455e+003;1.250003e-002
3.687384e+003;1.236344e-002
3.689312e+003;1.296136e-002
3.691241e+003;1.354148e-002
3.693169e+003;1.329433e-002
3.695098e+003;1.272618e-002
3.697026e+003;1.283139e-002
3.698955e+003;1.289412e-002
3.700884e+003;1.276334e-002
3.702812e+003;1.328234e-002
3.704741e+003;1.345852e-002
3.706669e+003;1.318168e-002
3.708598e+003;1.287220e-002
3.710526e+003;1.285360e-002
3.712455e+003;1.291231e-002
3.714383e+003;1.308434e-002
3.716312e+003;1.353160e-002
3.718240e+003;1.333772e-002
3.720169e+003;1.234871e-002
3.722098e+003;1.216596e-002
3.724026e+003;1.306478e-002
3.725955e+003;1.346375e-002
3.727883e+003;1.309626e-002
3.729812e+003;1.309961e-002
3.731740e+003;1.276880e-002
3.733669e+003;1.226500e-002
3.735597e+003;1.266934e-002
3.737526e+003;1.354948e-002
3.739455e+003;1.398739e-002
3.741383e+003;1.393962e-002
3.743312e+003;1.338959e-002
3.745240e+003;1.322765e-002
3.747169e+003;1.306782e-002
3.749097e+003;1.255685e-002
3.751026e+003;1.230375e-002
3.752954e+003;1.250900e-002
3.754883e+003;1.338454e-002
3.756812e+003;1.360346e-002
3.758740e+003;1.338874e-002
3.760668e+003;1.385933e-002
3.762597e+003;1.445270e-002
3.764526e+003;1.420973e-002
3.766454e+003;1.397583e-002
3.768383e+003;1.336940e-002
3.770311e+003;1.320589e-002
3.772240e+003;1.374892e-002
3.774168e+003;1.372618e-002
3.776097e+003;1.350405e-002
3.778025e+003;1.369714e-002
3.779954e+003;1.318885e-002
3.781883e+003;1.311539e-002
3.783811e+003;1.355949e-002
3.785740e+003;1.374280e-002
3.787668e+003;1.394479e-002
3.789597e+003;1.409136e-002
3.791525e+003;1.365686e-002
3.793454e+003;1.348597e-002
3.795382e+003;1.380870e-002
3.797311e+003;1.425000e-002
3.799240e+003;1.412145e-002
3.801168e+003;1.360889e-002
3.803097e+003;1.338286e-002
3.805025e+003;1.310647e-002
3.806954e+003;1.293023e-002
3.808882e+003;1.311655e-002
3.810811e+003;1.336704e-002
3.812739e+003;1.340716e-002
3.814668e+003;1.269114e-002
3.816596e+003;1.248646e-002
3.818525e+003;1.325095e-002
3.820454e+003;1.392337e-002
3.822382e+003;1.457179e-002
3.824311e+003;1.490261e-002
3.826239e+003;1.446466e-002
3.828168e+003;1.361347e-002
3.830096e+003;1.325122e-002
3.832025e+003;1.355368e-002
3.833953e+003;1.383477e-002
3.835882e+003;1.374546e-002
3.837811e+003;1.357129e-002
3.839739e+003;1.383545e-002
3.841667e+003;1.397148e-002
3.843596e+003;1.378750e-002
3.845525e+003;1.362995e-002
3.847453e+003;1.376017e-002
3.849382e+003;1.422490e-002
3.851310e+003;1.370709e-002
3.853239e+003;1.294863e-002
3.855167e+003;1.369978e-002
3.857096e+003;1.472786e-002
3.859024e+003;1.438194e-002
3.860953e+003;1.399790e-002
3.862882e+003;1.428564e-002
3.864810e+003;1.433742e-002
3.866739e+003;1.473808e-002
3.868667e+003;1.490727e-002
3.870596e+003;1.465671e-002
3.872524e+003;1.440663e-002
3.874453e+003;1.405091e-002
3.876381e+003;1.427088e-002
3.878310e+003;1.452715e-002
3.880239e+003;1.468224e-002
3.882167e+003;1.486804e-002
3.884096e+003;1.490617e-002
3.886024e+003;1.486304e-002
3.887953e+003;1.489331e-002
3.889881e+003;1.509063e-002
3.891810e+003;1.539286e-002
3.893738e+003;1.541281e-002
3.895667e+003;1.530104e-002
3.897595e+003;1.490141e-002
3.899524e+003;1.458324e-002
3.901453e+003;1.426694e-002
3.903381e+003;1.442832e-002
3.905310e+003;1.471669e-002
3.907238e+003;1.472748e-002
3.909167e+003;1.521706e-002
3.911095e+003;1.564615e-002
3.913024e+003;1.532363e-002
3.914952e+003;1.519709e-002
3.916881e+003;1.518937e-002
3.918810e+003;1.521638e-002
3.920738e+003;1.534786e-002
3.922667e+003;1.514456e-002
3.924595e+003;1.506521e-002
3.926524e+003;1.538215e-002
3.928452e+003;1.589295e-002
3.930381e+003;1.607621e-002
3.932309e+003;1.567349e-002
3.934238e+003;1.525910e-002
3.936167e+003;1.509451e-002
3.938095e+003;1.496245e-002
3.940023e+003;1.506500e-002
3.941952e+003;1.555726e-002
3.943881e+003;1.583157e-002
3.945809e+003;1.561108e-002
3.947738e+003;1.525519e-002
3.949666e+003;1.521377e-002
3.951595e+003;1.544611e-002
3.953523e+003;1.529229e-002
3.955452e+003;1.547746e-002
3.957380e+003;1.605383e-002
3.959309e+003;1.597060e-002
3.961238e+003;1.599614e-002
3.963166e+003;1.621803e-002
3.965095e+003;1.642882e-002
3.967023e+003;1.622849e-002
3.968952e+003;1.556554e-002
3.970880e+003;1.504267e-002
3.972809e+003;1.543087e-002
3.974737e+003;1.603000e-002
3.976666e+003;1.625749e-002
3.978594e+003;1.577886e-002
3.980523e+003;1.564804e-002
3.982452e+003;1.651138e-002
3.984380e+003;1.644128e-002
3.986309e+003;1.587962e-002
3.988237e+003;1.641633e-002
3.990166e+003;1.710743e-002
3.992094e+003;1.707055e-002
3.994023e+003;1.740300e-002
3.995951e+003;1.749406e-002
3.997880e+003;1.756209e-002
3.999809e+003;1.758714e-002
4.001737e+003;0.000000e+000
