3.992094e+002;0.000000e+000
4.011380e+002;0.000000e+000
4.030665e+002;0.000000e+000
4.049951e+002;0.000000e+000
4.069236e+002;0.000000e+000
4.088522e+002;0.000000e+000
4.107807e+002;0.000000e+000
4.127093e+002;0.000000e+000
4.146378e+002;0.000000e+000
4.165664e+002;0.000000e+000
4.184949e+002;0.000000e+000
4.204235e+002;0.000000e+000
4.223520e+002;0.000000e+000
4.242806e+002;0.000000e+000
4.262091e+002;0.000000e+000
4.281377e+002;0.000000e+000
4.300662e+002;0.000000e+000
4.319948e+002;0.000000e+000
4.339233e+002;0.000000e+000
4.358519e+002;0.000000e+000
4.377804e+002;0.000000e+000
4.397090e+002;0.000000e+000
4.416375e+002;0.000000e+000
4.435660e+002;0.000000e+000
4.454946e+002;0.000000e+000
4.474232e+002;0.000000e+000
4.493517e+002;0.000000e+000
4.512802e+002;0.000000e+000
4.532088e+002;0.000000e+000
4.551373e+002;0.000000e+000
4.570659e+002;0.000000e+000
4.589944e+002;0.000000e+000
4.609230e+002;0.000000e+000
4.628515e+002;0.000000e+000
4.647801e+002;0.000000e+000
4.667086e+002;0.000000e+000
4.686372e+002;0.000000e+000
4.705657e+002;0.000000e+000
4.724943e+002;0.000000e+000
4.744228e+002;0.000000e+000
4.763513e+002;0.000000e+000
4.782799e+002;0.000000e+000
4.802085e+002;0.000000e+000
4.821370e+002;0.000000e+000
4.840656e+002;0.000000e+000
4.859941e+002;0.000000e+000
4.879226e+002;0.000000e+000
4.898512e+002;0.000000e+000
4.917798e+002;0.000000e+000
4.937083e+002;0.000000e+000
4.956368e+002;0.000000e+000
4.975654e+002;0.000000e+000
4.994939e+002;0.000000e+000
5.014225e+002;0.000000e+000
5.033510e+002;0.000000e+000
5.052796e+002;0.000000e+000
5.072081e+002;0.000000e+000
5.091367e+002;0.000000e+000
5.110652e+002;0.000000e+000
5.129938e+002;0.000000e+000
5.149223e+002;0.000000e+000
5.168509e+002;0.000000e+000
5.187794e+002;0.000000e+000
5.207079e+002;0.000000e+000
5.226365e+002;0.000000e+000
5.245651e+002;0.000000e+000
5.264936e+002;0.000000e+000
5.284222e+002;0.000000e+000
5.303507e+002;0.000000e+000
5.322792e+002;0.000000e+000
5.342078e+002;0.000000e+000
5.361364e+002;0.000000e+000
5.380649e+002;0.000000e+000
5.399935e+002;0.000000e+000
5.419220e+002;0.000000e+000
5.438505e+002;0.000000e+000
5.457791e+002;0.000000e+000
5.477076e+002;0.000000e+000
5.496362e+002;0.000000e+000
5.515648e+002;0.000000e+000
5.534933e+002;0.000000e+000
5.554218e+002;0.000000e+000
5.573504e+002;0.000000e+000
5.592789e+002;0.000000e+000
5.612075e+002;0.000000e+000
5.631360e+002;0.000000e+000
5.650646e+002;0.000000e+000
5.669931e+002;0.000000e+000
5.689217e+002;0.000000e+000
5.708502e+002;0.000000e+000
5.727787e+002;0.000000e+000
5.747073e+002;0.000000e+000
5.766359e+002;0.000000e+000
5.785644e+002;0.000000e+000
5.804930e+002;0.000000e+000
5.824215e+002;0.000000e+000
5.843500e+002;0.000000e+000
5.862786e+002;0.000000e+000
5.882072e+002;0.000000e+000
5.901357e+002;0.000000e+000
5.920643e+002;0.000000e+000
5.939928e+002;0.000000e+000
5.959213e+002;0.000000e+000
5.978499e+002;0.000000e+000
5.997784e+002;4.371927e-002
6.017070e+002;4.289127e-002
6.036355e+002;3.942202e-002
6.055641e+002;3.584011e-002
6.074926e+002;3.992540e-002
6.094211e+002;4.506422e-002
6.113497e+002;4.638384e-002
6.132783e+002;4.802883e-002
6.152068e+002;4.962097e-002
6.171354e+002;5.129831e-002
6.190639e+002;5.056674e-002
6.209924e+002;4.686373e-002
6.229210e+002;4.287280e-002
6.248495e+002;4.040017e-002
6.267781e+002;4.205275e-002
6.287067e+002;4.530920e-002
6.306352e+002;4.667554e-002
6.325637e+002;4.363610e-002
6.344923e+002;3.902327e-002
6.364208e+002;3.730990e-002
6.383494e+002;3.913207e-002
6.402780e+002;4.304139e-002
6.422065e+002;4.500405e-002
6.441350e+002;4.235389e-002
6.460636e+002;3.878171e-002
6.479921e+002;3.880091e-002
6.499207e+002;4.141030e-002
6.518492e+002;3.986391e-002
6.537778e+002;3.889769e-002
6.557063e+002;3.949089e-002
6.576349e+002;3.988232e-002
6.595634e+002;4.042202e-002
6.614919e+002;4.161505e-002
6.634205e+002;4.359097e-002
6.653491e+002;4.486272e-002
6.672776e+002;4.441914e-002
6.692062e+002;4.278957e-002
6.711347e+002;4.103034e-002
6.730632e+002;4.123152e-002
6.749918e+002;4.059585e-002
6.769203e+002;4.174616e-002
6.788489e+002;4.359353e-002
6.807775e+002;4.400463e-002
6.827060e+002;4.319380e-002
6.846345e+002;4.199037e-002
6.865631e+002;4.182106e-002
6.884916e+002;4.256080e-002
6.904202e+002;4.152670e-002
6.923488e+002;4.110129e-002
6.942773e+002;4.163434e-002
6.962058e+002;4.235824e-002
6.981344e+002;4.252645e-002
7.000629e+002;4.077630e-002
7.019915e+002;3.880297e-002
7.039200e+002;3.834562e-002
7.058486e+002;3.888838e-002
7.077771e+002;3.972421e-002
7.097057e+002;3.906706e-002
7.116342e+002;3.961784e-002
7.135627e+002;4.079268e-002
7.154913e+002;4.012759e-002
7.174199e+002;3.939760e-002
7.193484e+002;4.045217e-002
7.212770e+002;4.120700e-002
7.232055e+002;4.057104e-002
7.251340e+002;3.967999e-002
7.270626e+002;3.935287e-002
7.289911e+002;3.935080e-002
7.309197e+002;3.955418e-002
7.328483e+002;3.912123e-002
7.347768e+002;3.812479e-002
7.367053e+002;3.703507e-002
7.386339e+002;3.641189e-002
7.405624e+002;3.656501e-002
7.424910e+002;3.670608e-002
7.444196e+002;3.698250e-002
7.463481e+002;3.687551e-002
7.482766e+002;3.617987e-002
7.502052e+002;3.631061e-002
7.521337e+002;3.681891e-002
7.540623e+002;3.677066e-002
7.559908e+002;3.603127e-002
7.579194e+002;3.543030e-002
7.598479e+002;3.577175e-002
7.617765e+002;3.679767e-002
7.637050e+002;3.636112e-002
7.656335e+002;3.607710e-002
7.675621e+002;3.631746e-002
7.694907e+002;3.658430e-002
7.714192e+002;3.667979e-002
7.733478e+002;3.671062e-002
7.752763e+002;3.655049e-002
7.772048e+002;3.599851e-002
7.791334e+002;3.557995e-002
7.810620e+002;3.656613e-002
7.829905e+002;3.745464e-002
7.849191e+002;3.757908e-002
7.868476e+002;3.854389e-002
7.887761e+002;3.981066e-002
7.907047e+002;4.120922e-002
7.926332e+002;4.225693e-002
7.945618e+002;4.304801e-002
7.964903e+002;4.527783e-002
7.984189e+002;4.652139e-002
8.003474e+002;4.741075e-002
8.022759e+002;4.868571e-002
8.042045e+002;5.057276e-002
8.061331e+002;5.173551e-002
8.080616e+002;5.219685e-002
8.099902e+002;5.211599e-002
8.119187e+002;5.085712e-002
8.138472e+002;4.819240e-002
8.157758e+002;4.561003e-002
8.177043e+002;4.364332e-002
8.196329e+002;4.229166e-002
8.215615e+002;4.155831e-002
8.234900e+002;4.099797e-002
8.254185e+002;4.144912e-002
8.273471e+002;4.180935e-002
8.292756e+002;4.080454e-002
8.312042e+002;4.080920e-002
8.331328e+002;4.225700e-002
8.350613e+002;4.367450e-002
8.369898e+002;4.607242e-002
8.389184e+002;5.135887e-002
8.408469e+002;5.585294e-002
8.427755e+002;5.413487e-002
8.447040e+002;4.932436e-002
8.466326e+002;4.492199e-002
8.485611e+002;4.127768e-002
8.504897e+002;3.830932e-002
8.524182e+002;3.725636e-002
8.543467e+002;3.742517e-002
8.562753e+002;3.692056e-002
8.582039e+002;3.612884e-002
8.601324e+002;3.550433e-002
8.620610e+002;3.560739e-002
8.639895e+002;3.611044e-002
8.659180e+002;3.609633e-002
8.678466e+002;3.571433e-002
8.697751e+002;3.576876e-002
8.717037e+002;3.680481e-002
8.736323e+002;3.744492e-002
8.755608e+002;3.707910e-002
8.774893e+002;3.646562e-002
8.794179e+002;3.564951e-002
8.813464e+002;3.480281e-002
8.832750e+002;3.398523e-002
8.852036e+002;3.359564e-002
8.871321e+002;3.393489e-002
8.890606e+002;3.511269e-002
8.909892e+002;3.692885e-002
8.929177e+002;3.904401e-002
8.948463e+002;4.223761e-002
8.967748e+002;4.689090e-002
8.987034e+002;4.995986e-002
9.006319e+002;4.929233e-002
9.025605e+002;4.601428e-002
9.044890e+002;4.174127e-002
9.064175e+002;3.773186e-002
9.083461e+002;3.499997e-002
9.102747e+002;3.303260e-002
9.122032e+002;3.193242e-002
9.141318e+002;3.162883e-002
9.160603e+002;3.131106e-002
9.179888e+002;3.086356e-002
9.199174e+002;3.077324e-002
9.218459e+002;3.111012e-002
9.237745e+002;3.131153e-002
9.257031e+002;3.114287e-002
9.276316e+002;3.117131e-002
9.295601e+002;3.143152e-002
9.314887e+002;3.200839e-002
9.334172e+002;3.289061e-002
9.353458e+002;3.377993e-002
9.372744e+002;3.490761e-002
9.392029e+002;3.631296e-002
9.411314e+002;3.718557e-002
9.430600e+002;3.739949e-002
9.449885e+002;3.761052e-002
9.469171e+002;3.788238e-002
9.488456e+002;3.803679e-002
9.507742e+002;3.886138e-002
9.527027e+002;3.986442e-002
9.546313e+002;4.049720e-002
9.565598e+002;4.098111e-002
9.584883e+002;4.204523e-002
9.604169e+002;4.416472e-002
9.623455e+002;4.658372e-002
9.642740e+002;4.958439e-002
9.662026e+002;5.427245e-002
9.681311e+002;6.094388e-002
9.700596e+002;6.830594e-002
9.719882e+002;7.400693e-002
9.739167e+002;7.592075e-002
9.758453e+002;7.264245e-002
9.777739e+002;6.546263e-002
9.797024e+002;5.720736e-002
9.816309e+002;5.008924e-002
9.835595e+002;4.501048e-002
9.854880e+002;4.269392e-002
9.874166e+002;4.293976e-002
9.893452e+002;4.466184e-002
9.912737e+002;4.813857e-002
9.932022e+002;5.388272e-002
9.951307e+002;6.053148e-002
9.970593e+002;6.507083e-002
9.989879e+002;6.521145e-002
1.000916e+003;6.115583e-002
1.002845e+003;5.553295e-002
1.004773e+003;5.103033e-002
1.006702e+003;4.847838e-002
1.008631e+003;4.728711e-002
1.010559e+003;4.650114e-002
1.012488e+003;4.574887e-002
1.014416e+003;4.476618e-002
1.016345e+003;4.396977e-002
1.018273e+003;4.396478e-002
1.020202e+003;4.386191e-002
1.022130e+003;4.402521e-002
1.024059e+003;4.483238e-002
1.025988e+003;4.514079e-002
1.027916e+003;4.529122e-002
1.029845e+003;4.621067e-002
1.031773e+003;4.742797e-002
1.033702e+003;4.843960e-002
1.035630e+003;4.963876e-002
1.037559e+003;5.077249e-002
1.039487e+003;5.122989e-002
1.041416e+003;5.166841e-002
1.043344e+003;5.184773e-002
1.045273e+003;5.163172e-002
1.047202e+003;5.095685e-002
1.049130e+003;4.959854e-002
1.051059e+003;4.841170e-002
1.052987e+003;4.797336e-002
1.054916e+003;4.755612e-002
1.056844e+003;4.731186e-002
1.058773e+003;4.723154e-002
1.060701e+003;4.692899e-002
1.062630e+003;4.668531e-002
1.064558e+003;4.747779e-002
1.066487e+003;4.826220e-002
1.068416e+003;4.809375e-002
1.070344e+003;4.813598e-002
1.072273e+003;4.886700e-002
1.074201e+003;4.920842e-002
1.076130e+003;4.910037e-002
1.078058e+003;4.976898e-002
1.079987e+003;5.090431e-002
1.081915e+003;5.142298e-002
1.083844e+003;5.167759e-002
1.085773e+003;5.239201e-002
1.087701e+003;5.293436e-002
1.089630e+003;5.374793e-002
1.091558e+003;5.394571e-002
1.093487e+003;5.473370e-002
1.095415e+003;5.685314e-002
1.097344e+003;5.827139e-002
1.099272e+003;5.941111e-002
1.101201e+003;5.987623e-002
1.103129e+003;5.920825e-002
1.105058e+003;5.829344e-002
1.106987e+003;5.667970e-002
1.108915e+003;5.477493e-002
1.110844e+003;5.327869e-002
1.112772e+003;5.142977e-002
1.114701e+003;5.008352e-002
1.116629e+003;4.980822e-002
1.118558e+003;4.915398e-002
1.120486e+003;4.797018e-002
1.122415e+003;4.647912e-002
1.124344e+003;4.581290e-002
1.126272e+003;4.565236e-002
1.128201e+003;4.531012e-002
1.130129e+003;4.483679e-002
1.132058e+003;4.494775e-002
1.133986e+003;4.643100e-002
1.135915e+003;4.805355e-002
1.137843e+003;4.944004e-002
1.139772e+003;5.168800e-002
1.141700e+003;5.430308e-002
1.143629e+003;5.729302e-002
1.145557e+003;6.062184e-002
1.147486e+003;6.338912e-002
1.149415e+003;6.629020e-002
1.151343e+003;6.932050e-002
1.153272e+003;7.114933e-002
1.155200e+003;7.167705e-002
1.157129e+003;7.172269e-002
1.159057e+003;7.243598e-002
1.160986e+003;7.267480e-002
1.162914e+003;7.259264e-002
1.164843e+003;7.276256e-002
1.166771e+003;7.208993e-002
1.168700e+003;7.028975e-002
1.170629e+003;6.715268e-002
1.172557e+003;6.275699e-002
1.174486e+003;5.772813e-002
1.176414e+003;5.302902e-002
1.178343e+003;4.992395e-002
1.180271e+003;4.828212e-002
1.182200e+003;4.674383e-002
1.184128e+003;4.534837e-002
1.186057e+003;4.441473e-002
1.187986e+003;4.386085e-002
1.189914e+003;4.370458e-002
1.191843e+003;4.336753e-002
1.193771e+003;4.323548e-002
1.195700e+003;4.357987e-002
1.197628e+003;4.380356e-002
1.199557e+003;4.317846e-002
1.201485e+003;4.225795e-002
1.203414e+003;4.193278e-002
1.205343e+003;4.204983e-002
1.207271e+003;4.240314e-002
1.209200e+003;4.291833e-002
1.211128e+003;4.365669e-002
1.213057e+003;4.476255e-002
1.214985e+003;4.572738e-002
1.216914e+003;4.576043e-002
1.218842e+003;4.521314e-002
1.220771e+003;4.470477e-002
1.222699e+003;4.407156e-002
1.224628e+003;4.341909e-002
1.226557e+003;4.304530e-002
1.228485e+003;4.300459e-002
1.230414e+003;4.305372e-002
1.232342e+003;4.261636e-002
1.234271e+003;4.258745e-002
1.236199e+003;4.317209e-002
1.238128e+003;4.330156e-002
1.240056e+003;4.337357e-002
1.241985e+003;4.365174e-002
1.243913e+003;4.390645e-002
1.245842e+003;4.433322e-002
1.247771e+003;4.489172e-002
1.249699e+003;4.609187e-002
1.251628e+003;4.846316e-002
1.253556e+003;5.130525e-002
1.255485e+003;5.307036e-002
1.257413e+003;5.322089e-002
1.259342e+003;5.191229e-002
1.261270e+003;4.994659e-002
1.263199e+003;4.827841e-002
1.265127e+003;4.743199e-002
1.267056e+003;4.661515e-002
1.268985e+003;4.536952e-002
1.270913e+003;4.394491e-002
1.272842e+003;4.325071e-002
1.274770e+003;4.320163e-002
1.276699e+003;4.311036e-002
1.278627e+003;4.256548e-002
1.280556e+003;4.212179e-002
1.282484e+003;4.210423e-002
1.284413e+003;4.235901e-002
1.286342e+003;4.277136e-002
1.288270e+003;4.334113e-002
1.290199e+003;4.409803e-002
1.292127e+003;4.496432e-002
1.294056e+003;4.558865e-002
1.295984e+003;4.593384e-002
1.297913e+003;4.598183e-002
1.299841e+003;4.590463e-002
1.301770e+003;4.627605e-002
1.303698e+003;4.671583e-002
1.305627e+003;4.556712e-002
1.307556e+003;4.307223e-002
1.309484e+003;4.117247e-002
1.311413e+003;4.044617e-002
1.313341e+003;4.052731e-002
1.315270e+003;4.126125e-002
1.317198e+003;4.195110e-002
1.319127e+003;4.309049e-002
1.321055e+003;4.479208e-002
1.322984e+003;4.634646e-002
1.324912e+003;4.774925e-002
1.326841e+003;4.903300e-002
1.328770e+003;4.975976e-002
1.330698e+003;4.984505e-002
1.332627e+003;4.943551e-002
1.334555e+003;4.883948e-002
1.336484e+003;4.795408e-002
1.338412e+003;4.744877e-002
1.340341e+003;4.793236e-002
1.342269e+003;4.932425e-002
1.344198e+003;5.107430e-002
1.346126e+003;5.345186e-002
1.348055e+003;5.622226e-002
1.349984e+003;5.948942e-002
1.351912e+003;6.385966e-002
1.353841e+003;6.953168e-002
1.355769e+003;7.578442e-002
1.357698e+003;8.097920e-002
1.359626e+003;8.276343e-002
1.361555e+003;8.208811e-002
1.363483e+003;8.187810e-002
1.365412e+003;8.426572e-002
1.367341e+003;9.127333e-002
1.369269e+003;1.051512e-001
1.371198e+003;1.260072e-001
1.373126e+003;1.501546e-001
1.375055e+003;1.698040e-001
1.376983e+003;1.724800e-001
1.378912e+003;1.550426e-001
1.380840e+003;1.289994e-001
1.382769e+003;1.043502e-001
1.384698e+003;8.498786e-002
1.386626e+003;7.109761e-002
1.388555e+003;6.242304e-002
1.390483e+003;5.732017e-002
1.392412e+003;5.336017e-002
1.394340e+003;5.045496e-002
1.396269e+003;4.939419e-002
1.398197e+003;4.892537e-002
1.400126e+003;4.903816e-002
1.402054e+003;4.971035e-002
1.403983e+003;4.980763e-002
1.405911e+003;5.010884e-002
1.407840e+003;5.113573e-002
1.409769e+003;5.187734e-002
1.411697e+003;5.233512e-002
1.413626e+003;5.278179e-002
1.415554e+003;5.297467e-002
1.417483e+003;5.234746e-002
1.419411e+003;5.211771e-002
1.421340e+003;5.420355e-002
1.423268e+003;5.609764e-002
1.425197e+003;5.832523e-002
1.427125e+003;6.179236e-002
1.429054e+003;6.678840e-002
1.430983e+003;7.470421e-002
1.432911e+003;8.368933e-002
1.434840e+003;8.908444e-002
1.436768e+003;9.096187e-002
1.438697e+003;9.386267e-002
1.440625e+003;9.734984e-002
1.442554e+003;1.020953e-001
1.444482e+003;1.089369e-001
1.446411e+003;1.172990e-001
1.448340e+003;1.264018e-001
1.450268e+003;1.348954e-001
1.452197e+003;1.403504e-001
1.454125e+003;1.419110e-001
1.456054e+003;1.397616e-001
1.457982e+003;1.391019e-001
1.459911e+003;1.391372e-001
1.461839e+003;1.353434e-001
1.463768e+003;1.280486e-001
1.465697e+003;1.195228e-001
1.467625e+003;1.103453e-001
1.469554e+003;9.941399e-002
1.471482e+003;8.735071e-002
1.473411e+003;7.786103e-002
1.475339e+003;7.155838e-002
1.477268e+003;6.588411e-002
1.479196e+003;6.080974e-002
1.481125e+003;5.575200e-002
1.483053e+003;5.185718e-002
1.484982e+003;4.880938e-002
1.486911e+003;4.562821e-002
1.488839e+003;4.254359e-002
1.490768e+003;4.114667e-002
1.492696e+003;4.093665e-002
1.494625e+003;3.913791e-002
1.496553e+003;3.688182e-002
1.498482e+003;3.684935e-002
1.500410e+003;3.713785e-002
1.502339e+003;3.631908e-002
1.504267e+003;3.327711e-002
1.506196e+003;3.019566e-002
1.508125e+003;3.155963e-002
1.510053e+003;3.373166e-002
1.511982e+003;3.406113e-002
1.513910e+003;3.424269e-002
1.515839e+003;3.348095e-002
1.517767e+003;3.280134e-002
1.519696e+003;3.139127e-002
1.521624e+003;3.027129e-002
1.523553e+003;3.194376e-002
1.525481e+003;3.309982e-002
1.527410e+003;3.411199e-002
1.529339e+003;3.498891e-002
1.531267e+003;3.485569e-002
1.533196e+003;3.443102e-002
1.535124e+003;3.587290e-002
1.537053e+003;3.545417e-002
1.538981e+003;3.267401e-002
1.540910e+003;3.317156e-002
1.542838e+003;3.596305e-002
1.544767e+003;3.777064e-002
1.546695e+003;3.888374e-002
1.548624e+003;3.877913e-002
1.550553e+003;3.844813e-002
1.552481e+003;3.760821e-002
1.554410e+003;3.602151e-002
1.556338e+003;3.360953e-002
1.558267e+003;2.931751e-002
1.560195e+003;3.002172e-002
1.562124e+003;3.393712e-002
1.564052e+003;3.458352e-002
1.565981e+003;3.397596e-002
1.567910e+003;3.306714e-002
1.569838e+003;3.246222e-002
1.571767e+003;3.348647e-002
1.573695e+003;3.286463e-002
1.575624e+003;3.054016e-002
1.577552e+003;3.181789e-002
1.579481e+003;3.383688e-002
1.581409e+003;3.390455e-002
1.583338e+003;3.347111e-002
1.585266e+003;3.275561e-002
1.587195e+003;3.252999e-002
1.589124e+003;3.259235e-002
1.591052e+003;3.290413e-002
1.592981e+003;3.299163e-002
1.594909e+003;3.277597e-002
1.596838e+003;3.295588e-002
1.598766e+003;3.364841e-002
1.600695e+003;3.398695e-002
1.602623e+003;3.433293e-002
1.604552e+003;3.476993e-002
1.606480e+003;3.516550e-002
1.608409e+003;3.564800e-002
1.610338e+003;3.640205e-002
1.612266e+003;3.690963e-002
1.614195e+003;3.661015e-002
1.616123e+003;3.576830e-002
1.618052e+003;3.769067e-002
1.619980e+003;3.979367e-002
1.621909e+003;3.971357e-002
1.623837e+003;4.011429e-002
1.625766e+003;4.129529e-002
1.627694e+003;4.215559e-002
1.629623e+003;4.308658e-002
1.631552e+003;4.363507e-002
1.633480e+003;4.235839e-002
1.635409e+003;4.078871e-002
1.637337e+003;4.298220e-002
1.639266e+003;4.550093e-002
1.641194e+003;4.629743e-002
1.643123e+003;4.617359e-002
1.645051e+003;4.477838e-002
1.646980e+003;4.491777e-002
1.648909e+003;4.673841e-002
1.650837e+003;4.442494e-002
1.652766e+003;4.043788e-002
1.654694e+003;4.357426e-002
1.656623e+003;4.756362e-002
1.658551e+003;4.811114e-002
1.660480e+003;4.734615e-002
1.662408e+003;4.622235e-002
1.664337e+003;4.618204e-002
1.666266e+003;4.570415e-002
1.668194e+003;4.381591e-002
1.670123e+003;4.317605e-002
1.672051e+003;4.366534e-002
1.673980e+003;4.244183e-002
1.675908e+003;4.179333e-002
1.677837e+003;4.241607e-002
1.679765e+003;4.183091e-002
1.681694e+003;3.994106e-002
1.683622e+003;3.645905e-002
1.685551e+003;3.700148e-002
1.687479e+003;3.956768e-002
1.689408e+003;3.969607e-002
1.691337e+003;3.957802e-002
1.693265e+003;3.840668e-002
1.695194e+003;3.560743e-002
1.697122e+003;3.585782e-002
1.699051e+003;3.553137e-002
1.700979e+003;3.588010e-002
1.702908e+003;3.874990e-002
1.704836e+003;3.967534e-002
1.706765e+003;4.060527e-002
1.708693e+003;4.142343e-002
1.710622e+003;4.183310e-002
1.712551e+003;4.128552e-002
1.714479e+003;3.983536e-002
1.716408e+003;3.765456e-002
1.718336e+003;3.804138e-002
1.720265e+003;4.060866e-002
1.722193e+003;4.142069e-002
1.724122e+003;4.129652e-002
1.726050e+003;4.159055e-002
1.727979e+003;4.175090e-002
1.729908e+003;4.203461e-002
1.731836e+003;4.119483e-002
1.733765e+003;3.986768e-002
1.735693e+003;4.265869e-002
1.737622e+003;4.489657e-002
1.739550e+003;4.455591e-002
1.741479e+003;4.454431e-002
1.743407e+003;4.363229e-002
1.745336e+003;4.176845e-002
1.747265e+003;3.900555e-002
1.749193e+003;3.546578e-002
1.751122e+003;3.206068e-002
1.753050e+003;3.019818e-002
1.754979e+003;2.786491e-002
1.756907e+003;2.501027e-002
1.758836e+003;2.273102e-002
1.760764e+003;2.007956e-002
1.762693e+003;1.859394e-002
1.764621e+003;1.845988e-002
1.766550e+003;1.704523e-002
1.768479e+003;1.555493e-002
1.770407e+003;1.421983e-002
1.772336e+003;1.290152e-002
1.774264e+003;1.390284e-002
1.776193e+003;1.473996e-002
1.778121e+003;1.431988e-002
1.780050e+003;1.355936e-002
1.781978e+003;1.319377e-002
1.783907e+003;1.254085e-002
1.785835e+003;1.169908e-002
1.787764e+003;1.108589e-002
1.789693e+003;1.010016e-002
1.791621e+003;8.762970e-003
1.793550e+003;8.600580e-003
1.795478e+003;9.190938e-003
1.797407e+003;8.914632e-003
1.799335e+003;8.226239e-003
1.801264e+003;7.670679e-003
1.803192e+003;7.515742e-003
1.805121e+003;7.303541e-003
1.807049e+003;6.985803e-003
1.808978e+003;6.613457e-003
1.810907e+003;6.465219e-003
1.812835e+003;6.475376e-003
1.814764e+003;6.382865e-003
1.816692e+003;6.445277e-003
1.818621e+003;6.690101e-003
1.820549e+003;6.491722e-003
1.822478e+003;6.047690e-003
1.824406e+003;5.660336e-003
1.826335e+003;5.812026e-003
1.828264e+003;5.717305e-003
1.830192e+003;5.667553e-003
1.832121e+003;6.273162e-003
1.834049e+003;6.661602e-003
1.835978e+003;6.787390e-003
1.837906e+003;6.611707e-003
1.839835e+003;6.437979e-003
1.841763e+003;5.791072e-003
1.843692e+003;4.692554e-003
1.845620e+003;5.104290e-003
1.847549e+003;5.944957e-003
1.849478e+003;5.946267e-003
1.851406e+003;5.698069e-003
1.853335e+003;5.850309e-003
1.855263e+003;6.077694e-003
1.857192e+003;6.165570e-003
1.859120e+003;6.009758e-003
1.861049e+003;5.881240e-003
1.862977e+003;5.692630e-003
1.864906e+003;5.347152e-003
1.866834e+003;4.911258e-003
1.868763e+003;4.715867e-003
1.870692e+003;5.464741e-003
1.872620e+003;5.861157e-003
1.874549e+003;5.668963e-003
1.876477e+003;5.768273e-003
1.878406e+003;5.776062e-003
1.880334e+003;5.490108e-003
1.882263e+003;5.466352e-003
1.884191e+003;5.694174e-003
1.886120e+003;5.680007e-003
1.888048e+003;5.253707e-003
1.889977e+003;5.315319e-003
1.891906e+003;5.905188e-003
1.893834e+003;6.118085e-003
1.895763e+003;6.033848e-003
1.897691e+003;5.869351e-003
1.899620e+003;5.705286e-003
1.901548e+003;5.777942e-003
1.903477e+003;5.982748e-003
1.905405e+003;5.659463e-003
1.907334e+003;5.375095e-003
1.909262e+003;5.459104e-003
1.911191e+003;5.500142e-003
1.913120e+003;5.437832e-003
1.915048e+003;5.280739e-003
1.916977e+003;4.592251e-003
1.918905e+003;4.412735e-003
1.920834e+003;4.847894e-003
1.922762e+003;5.079918e-003
1.924691e+003;5.267491e-003
1.926619e+003;5.227414e-003
1.928548e+003;5.066944e-003
1.930477e+003;5.074018e-003
1.932405e+003;4.989446e-003
1.934334e+003;4.753250e-003
1.936262e+003;4.713053e-003
1.938191e+003;4.645464e-003
1.940119e+003;4.493914e-003
1.942048e+003;4.326251e-003
1.943976e+003;4.367483e-003
1.945905e+003;4.434895e-003
1.947833e+003;4.564593e-003
1.949762e+003;4.675205e-003
1.951691e+003;4.482062e-003
1.953619e+003;4.215092e-003
1.955548e+003;4.387297e-003
1.957476e+003;4.524380e-003
1.959405e+003;4.629188e-003
1.961333e+003;4.572160e-003
1.963262e+003;4.303161e-003
1.965190e+003;4.138716e-003
1.967119e+003;4.078909e-003
1.969047e+003;4.145741e-003
1.970976e+003;4.102590e-003
1.972905e+003;4.033290e-003
1.974833e+003;4.000250e-003
1.976762e+003;3.950326e-003
1.978690e+003;3.864067e-003
1.980619e+003;4.010817e-003
1.982547e+003;4.264076e-003
1.984476e+003;4.426694e-003
1.986404e+003;4.559938e-003
1.988333e+003;4.469140e-003
1.990261e+003;4.256213e-003
1.992190e+003;3.950560e-003
1.994119e+003;4.145340e-003
1.996047e+003;4.578121e-003
1.997976e+003;4.713790e-003
1.999904e+003;4.728126e-003
2.001833e+003;4.541020e-003
2.003761e+003;4.609598e-003
2.005690e+003;4.716771e-003
2.007618e+003;4.444703e-003
2.009547e+003;4.252700e-003
2.011476e+003;4.341545e-003
2.013404e+003;4.418894e-003
2.015333e+003;4.352991e-003
2.017261e+003;4.438208e-003
2.019190e+003;4.580364e-003
2.021118e+003;4.662344e-003
2.023047e+003;4.858985e-003
2.024975e+003;4.676712e-003
2.026904e+003;4.618740e-003
2.028833e+003;4.679659e-003
2.030761e+003;4.612377e-003
2.032690e+003;4.703742e-003
2.034618e+003;4.700258e-003
2.036547e+003;4.651928e-003
2.038475e+003;4.761289e-003
2.040404e+003;4.986798e-003
2.042332e+003;4.906232e-003
2.044261e+003;4.834525e-003
2.046189e+003;5.211486e-003
2.048118e+003;5.406764e-003
2.050047e+003;5.167759e-003
2.051975e+003;5.112404e-003
2.053904e+003;5.133861e-003
2.055832e+003;4.974699e-003
2.057761e+003;4.934415e-003
2.059689e+003;5.015557e-003
2.061618e+003;5.011903e-003
2.063546e+003;4.815931e-003
2.065475e+003;4.707024e-003
2.067404e+003;4.865619e-003
2.069332e+003;5.083605e-003
2.071260e+003;5.082030e-003
2.073189e+003;5.183619e-003
2.075118e+003;5.088265e-003
2.077046e+003;4.703708e-003
2.078975e+003;4.978218e-003
2.080903e+003;5.556285e-003
2.082832e+003;5.812160e-003
2.084760e+003;5.889167e-003
2.086689e+003;5.999882e-003
2.088617e+003;5.934746e-003
2.090546e+003;5.799534e-003
2.092475e+003;5.939751e-003
2.094403e+003;5.975324e-003
2.096332e+003;5.920269e-003
2.098260e+003;5.939650e-003
2.100189e+003;5.757528e-003
2.102117e+003;5.531115e-003
2.104046e+003;5.796142e-003
2.105974e+003;6.107970e-003
2.107903e+003;6.000923e-003
2.109832e+003;5.710994e-003
2.111760e+003;5.604716e-003
2.113688e+003;5.856791e-003
2.115617e+003;6.306510e-003
2.117546e+003;6.399611e-003
2.119474e+003;6.401830e-003
2.121403e+003;6.733779e-003
2.123331e+003;7.053892e-003
2.125260e+003;7.164197e-003
2.127188e+003;7.525047e-003
2.129117e+003;7.982303e-003
2.131045e+003;7.965260e-003
2.132974e+003;7.820711e-003
2.134903e+003;7.799626e-003
2.136831e+003;7.632437e-003
2.138760e+003;7.480952e-003
2.140688e+003;7.496290e-003
2.142617e+003;7.622657e-003
2.144545e+003;7.457120e-003
2.146474e+003;7.306236e-003
2.148402e+003;7.102456e-003
2.150331e+003;7.074064e-003
2.152260e+003;7.416403e-003
2.154188e+003;7.659415e-003
2.156117e+003;7.572181e-003
2.158045e+003;7.842134e-003
2.159974e+003;8.253491e-003
2.161902e+003;8.388388e-003
2.163831e+003;8.629545e-003
2.165759e+003;8.875367e-003
2.167688e+003;8.877667e-003
2.169616e+003;8.868874e-003
2.171545e+003;9.178551e-003
2.173474e+003;9.542333e-003
2.175402e+003;9.459935e-003
2.177331e+003;9.245191e-003
2.179259e+003;9.066786e-003
2.181188e+003;8.995268e-003
2.183116e+003;9.070745e-003
2.185045e+003;9.198823e-003
2.186973e+003;9.303750e-003
2.188902e+003;9.288517e-003
2.190831e+003;8.926232e-003
2.192759e+003;8.980520e-003
2.194688e+003;9.251181e-003
2.196616e+003;9.270915e-003
2.198545e+003;9.101060e-003
2.200473e+003;8.896166e-003
2.202402e+003;8.812639e-003
2.204330e+003;8.751407e-003
2.206259e+003;8.748838e-003
2.208188e+003;8.685925e-003
2.210116e+003;8.582600e-003
2.212044e+003;8.509372e-003
2.213973e+003;8.546272e-003
2.215902e+003;8.529815e-003
2.217830e+003;8.711177e-003
2.219759e+003;8.771895e-003
2.221687e+003;8.693734e-003
2.223616e+003;8.918115e-003
2.225544e+003;9.110771e-003
2.227473e+003;9.100959e-003
2.229401e+003;9.246544e-003
2.231330e+003;9.327210e-003
2.233259e+003;9.408837e-003
2.235187e+003;9.298434e-003
2.237116e+003;9.080929e-003
2.239044e+003;9.201564e-003
2.240973e+003;9.072944e-003
2.242901e+003;8.932455e-003
2.244830e+003;9.293188e-003
2.246758e+003;9.539691e-003
2.248687e+003;9.417099e-003
2.250615e+003;9.377687e-003
2.252544e+003;9.344373e-003
2.254473e+003;9.550462e-003
2.256401e+003;9.990158e-003
2.258330e+003;1.008921e-002
2.260258e+003;9.969781e-003
2.262187e+003;9.809040e-003
2.264115e+003;9.678716e-003
2.266044e+003;9.740992e-003
2.267972e+003;9.640567e-003
2.269901e+003;9.466335e-003
2.271830e+003;9.431592e-003
2.273758e+003;9.295862e-003
2.275687e+003;9.208028e-003
2.277615e+003;9.092093e-003
2.279544e+003;8.893528e-003
2.281472e+003;8.823764e-003
2.283401e+003;8.908003e-003
2.285329e+003;9.117538e-003
2.287258e+003;9.141902e-003
2.289187e+003;8.916222e-003
2.291115e+003;8.922986e-003
2.293043e+003;8.904925e-003
2.294972e+003;8.894509e-003
2.296901e+003;8.789646e-003
2.298829e+003;8.661250e-003
2.300758e+003;8.874555e-003
2.302686e+003;9.173576e-003
2.304615e+003;9.300737e-003
2.306543e+003;9.251893e-003
2.308472e+003;9.285301e-003
2.310400e+003;9.441175e-003
2.312329e+003;9.485300e-003
2.314258e+003;9.285741e-003
2.316186e+003;9.224206e-003
2.318115e+003;9.394820e-003
2.320043e+003;9.464980e-003
2.321972e+003;9.583183e-003
2.323900e+003;9.910928e-003
2.325829e+003;1.007917e-002
2.327757e+003;1.037518e-002
2.329686e+003;1.046068e-002
2.331615e+003;1.040556e-002
2.333543e+003;1.042293e-002
2.335472e+003;1.061276e-002
2.337400e+003;1.069626e-002
2.339329e+003;1.068675e-002
2.341257e+003;1.099803e-002
2.343186e+003;1.123633e-002
2.345114e+003;1.121225e-002
2.347043e+003;1.121208e-002
2.348971e+003;1.130196e-002
2.350900e+003;1.120345e-002
2.352829e+003;1.136260e-002
2.354757e+003;1.176910e-002
2.356686e+003;1.190237e-002
2.358614e+003;1.184274e-002
2.360543e+003;1.197678e-002
2.362471e+003;1.237418e-002
2.364400e+003;1.256299e-002
2.366328e+003;1.246283e-002
2.368257e+003;1.207622e-002
2.370186e+003;1.195322e-002
2.372114e+003;1.188326e-002
2.374042e+003;1.197549e-002
2.375971e+003;1.222901e-002
2.377900e+003;1.238925e-002
2.379828e+003;1.252005e-002
2.381757e+003;1.260156e-002
2.383685e+003;1.260920e-002
2.385614e+003;1.258471e-002
2.387542e+003;1.256220e-002
2.389471e+003;1.268650e-002
2.391399e+003;1.288732e-002
2.393328e+003;1.268234e-002
2.395257e+003;1.258826e-002
2.397185e+003;1.286835e-002
2.399114e+003;1.307229e-002
2.401042e+003;1.338867e-002
2.402971e+003;1.357929e-002
2.404899e+003;1.322731e-002
2.406828e+003;1.284012e-002
2.408756e+003;1.292108e-002
2.410685e+003;1.297229e-002
2.412614e+003;1.305792e-002
2.414542e+003;1.302019e-002
2.416471e+003;1.285429e-002
2.418399e+003;1.306874e-002
2.420328e+003;1.343720e-002
2.422256e+003;1.326666e-002
2.424185e+003;1.320019e-002
2.426113e+003;1.350764e-002
2.428042e+003;1.368189e-002
2.429970e+003;1.358954e-002
2.431899e+003;1.341379e-002
2.433828e+003;1.335843e-002
2.435756e+003;1.319049e-002
2.437685e+003;1.298144e-002
2.439613e+003;1.279542e-002
2.441542e+003;1.263810e-002
2.443470e+003;1.257840e-002
2.445399e+003;1.255446e-002
2.447327e+003;1.261558e-002
2.449256e+003;1.255084e-002
2.451185e+003;1.257448e-002
2.453113e+003;1.244878e-002
2.455042e+003;1.239972e-002
2.456970e+003;1.232506e-002
2.458899e+003;1.207642e-002
2.460827e+003;1.220450e-002
2.462756e+003;1.230488e-002
2.464684e+003;1.232018e-002
2.466613e+003;1.233866e-002
2.468542e+003;1.226128e-002
2.470470e+003;1.232410e-002
2.472398e+003;1.244285e-002
2.474327e+003;1.250596e-002
2.476256e+003;1.239106e-002
2.478184e+003;1.279443e-002
2.480113e+003;1.331685e-002
2.482041e+003;1.337155e-002
2.483970e+003;1.350859e-002
2.485898e+003;1.348371e-002
2.487827e+003;1.331644e-002
2.489755e+003;1.320046e-002
2.491684e+003;1.327325e-002
2.493613e+003;1.341707e-002
2.495541e+003;1.325201e-002
2.497470e+003;1.289125e-002
2.499398e+003;1.306929e-002
2.501327e+003;1.315859e-002
2.503255e+003;1.296689e-002
2.505184e+003;1.303606e-002
2.507112e+003;1.324046e-002
2.509041e+003;1.331917e-002
2.510969e+003;1.362373e-002
2.512898e+003;1.399899e-002
2.514827e+003;1.414708e-002
2.516755e+003;1.424082e-002
2.518684e+003;1.435026e-002
2.520612e+003;1.469012e-002
2.522541e+003;1.499836e-002
2.524469e+003;1.545641e-002
2.526398e+003;1.588244e-002
2.528326e+003;1.611472e-002
2.530255e+003;1.628470e-002
2.532184e+003;1.642160e-002
2.534112e+003;1.656054e-002
2.536041e+003;1.675696e-002
2.537969e+003;1.689762e-002
2.539898e+003;1.698237e-002
2.541826e+003;1.724835e-002
2.543755e+003;1.744998e-002
2.545683e+003;1.754933e-002
2.547612e+003;1.786529e-002
2.549541e+003;1.838373e-002
2.551469e+003;1.879807e-002
2.553397e+003;1.898688e-002
2.555326e+003;1.929371e-002
2.557255e+003;1.961761e-002
2.559183e+003;1.958329e-002
2.561112e+003;1.970882e-002
2.563040e+003;2.013266e-002
2.564969e+003;2.054523e-002
2.566897e+003;2.116274e-002
2.568826e+003;2.162857e-002
2.570754e+003;2.205689e-002
2.572683e+003;2.283344e-002
2.574612e+003;2.367271e-002
2.576540e+003;2.421354e-002
2.578469e+003;2.455897e-002
2.580397e+003;2.471871e-002
2.582326e+003;2.472568e-002
2.584254e+003;2.463766e-002
2.586183e+003;2.420117e-002
2.588111e+003;2.364185e-002
2.590040e+003;2.309358e-002
2.591969e+003;2.255464e-002
2.593897e+003;2.227706e-002
2.595826e+003;2.224815e-002
2.597754e+003;2.187165e-002
2.599683e+003;2.178789e-002
2.601611e+003;2.213718e-002
2.603540e+003;2.242929e-002
2.605468e+003;2.275337e-002
2.607397e+003;2.319032e-002
2.609325e+003;2.338714e-002
2.611254e+003;2.349615e-002
2.613183e+003;2.393514e-002
2.615111e+003;2.435696e-002
2.617040e+003;2.450778e-002
2.618968e+003;2.433137e-002
2.620897e+003;2.422261e-002
2.622825e+003;2.427955e-002
2.624754e+003;2.391596e-002
2.626682e+003;2.336976e-002
2.628611e+003;2.317354e-002
2.630540e+003;2.318316e-002
2.632468e+003;2.330907e-002
2.634396e+003;2.341344e-002
2.636325e+003;2.345309e-002
2.638254e+003;2.350391e-002
2.640182e+003;2.380720e-002
2.642111e+003;2.427513e-002
2.644039e+003;2.457089e-002
2.645968e+003;2.477374e-002
2.647896e+003;2.520778e-002
2.649825e+003;2.571217e-002
2.651753e+003;2.630547e-002
2.653682e+003;2.663868e-002
2.655611e+003;2.672466e-002
2.657539e+003;2.664929e-002
2.659468e+003;2.681959e-002
2.661396e+003;2.713384e-002
2.663325e+003;2.734880e-002
2.665253e+003;2.734199e-002
2.667182e+003;2.716792e-002
2.669110e+003;2.707195e-002
2.671039e+003;2.715899e-002
2.672968e+003;2.742037e-002
2.674896e+003;2.791366e-002
2.676825e+003;2.825501e-002
2.678753e+003;2.825607e-002
2.680682e+003;2.833480e-002
2.682610e+003;2.827089e-002
2.684539e+003;2.816234e-002
2.686467e+003;2.827139e-002
2.688396e+003;2.831640e-002
2.690324e+003;2.820618e-002
2.692253e+003;2.837954e-002
2.694182e+003;2.843451e-002
2.696110e+003;2.816743e-002
2.698039e+003;2.851036e-002
2.699967e+003;2.927529e-002
2.701896e+003;2.946989e-002
2.703824e+003;2.988210e-002
2.705753e+003;3.078779e-002
2.707681e+003;3.163685e-002
2.709610e+003;3.246204e-002
2.711539e+003;3.343973e-002
2.713467e+003;3.475887e-002
2.715396e+003;3.615761e-002
2.717324e+003;3.769168e-002
2.719253e+003;3.957853e-002
2.721181e+003;4.092278e-002
2.723110e+003;4.125845e-002
2.725038e+003;4.091437e-002
2.726967e+003;3.982003e-002
2.728896e+003;3.817048e-002
2.730824e+003;3.669238e-002
2.732752e+003;3.590640e-002
2.734681e+003;3.536534e-002
2.736610e+003;3.457713e-002
2.738538e+003;3.370681e-002
2.740467e+003;3.249761e-002
2.742395e+003;3.134140e-002
2.744324e+003;3.071900e-002
2.746252e+003;3.045052e-002
2.748181e+003;3.040503e-002
2.750109e+003;3.045137e-002
2.752038e+003;3.060878e-002
2.753967e+003;3.076862e-002
2.755895e+003;3.095958e-002
2.757824e+003;3.102997e-002
2.759752e+003;3.120531e-002
2.761681e+003;3.169965e-002
2.763609e+003;3.188396e-002
2.765538e+003;3.178670e-002
2.767466e+003;3.202512e-002
2.769395e+003;3.248222e-002
2.771323e+003;3.313687e-002
2.773252e+003;3.385619e-002
2.775181e+003;3.459626e-002
2.777109e+003;3.544062e-002
2.779038e+003;3.630546e-002
2.780966e+003;3.727853e-002
2.782895e+003;3.848245e-002
2.784823e+003;4.000205e-002
2.786752e+003;4.143873e-002
2.788680e+003;4.287389e-002
2.790609e+003;4.469460e-002
2.792538e+003;4.622291e-002
2.794466e+003;4.735657e-002
2.796395e+003;4.826301e-002
2.798323e+003;4.935035e-002
2.800252e+003;5.061156e-002
2.802180e+003;5.211528e-002
2.804109e+003;5.400821e-002
2.806037e+003;5.633817e-002
2.807966e+003;5.868419e-002
2.809895e+003;6.058637e-002
2.811823e+003;6.238716e-002
2.813751e+003;6.395767e-002
2.815680e+003;6.547257e-002
2.817609e+003;6.745584e-002
2.819537e+003;6.995782e-002
2.821466e+003;7.292666e-002
2.823394e+003;7.625948e-002
2.825323e+003;8.041821e-002
2.827251e+003;8.626264e-002
2.829180e+003;9.343021e-002
2.831108e+003;1.015716e-001
2.833037e+003;1.098597e-001
2.834966e+003;1.166605e-001
2.836894e+003;1.201096e-001
2.838823e+003;1.198929e-001
2.840751e+003;1.176759e-001
2.842680e+003;1.146947e-001
2.844608e+003;1.111523e-001
2.846537e+003;1.073573e-001
2.848465e+003;1.044699e-001
2.850394e+003;1.029877e-001
2.852323e+003;1.019548e-001
2.854251e+003;1.011442e-001
2.856180e+003;1.021668e-001
2.858108e+003;1.053091e-001
2.860037e+003;1.101008e-001
2.861965e+003;1.162184e-001
2.863894e+003;1.227707e-001
2.865822e+003;1.282400e-001
2.867751e+003;1.314581e-001
2.869679e+003;1.318988e-001
2.871608e+003;1.315170e-001
2.873536e+003;1.316832e-001
2.875465e+003;1.312163e-001
2.877394e+003;1.300960e-001
2.879322e+003;1.289771e-001
2.881251e+003;1.278860e-001
2.883179e+003;1.270306e-001
2.885108e+003;1.267574e-001
2.887036e+003;1.274080e-001
2.888965e+003;1.286706e-001
2.890893e+003;1.309336e-001
2.892822e+003;1.340924e-001
2.894750e+003;1.379455e-001
2.896679e+003;1.427081e-001
2.898608e+003;1.476026e-001
2.900536e+003;1.522104e-001
2.902465e+003;1.573078e-001
2.904393e+003;1.631886e-001
2.906322e+003;1.688777e-001
2.908250e+003;1.738053e-001
2.910179e+003;1.781122e-001
2.912107e+003;1.816283e-001
2.914036e+003;1.845472e-001
2.915965e+003;1.859428e-001
2.917893e+003;1.850473e-001
2.919822e+003;1.831910e-001
2.921750e+003;1.801634e-001
2.923679e+003;1.749766e-001
2.925607e+003;1.685760e-001
2.927536e+003;1.615018e-001
2.929464e+003;1.540506e-001
2.931393e+003;1.458519e-001
2.933322e+003;1.375521e-001
2.935250e+003;1.308299e-001
2.937178e+003;1.260895e-001
2.939107e+003;1.234886e-001
2.941036e+003;1.238466e-001
2.942964e+003;1.276762e-001
2.944893e+003;1.344173e-001
2.946821e+003;1.419495e-001
2.948750e+003;1.482645e-001
2.950678e+003;1.512089e-001
2.952607e+003;1.507136e-001
2.954535e+003;1.479378e-001
2.956464e+003;1.439637e-001
2.958393e+003;1.393442e-001
2.960321e+003;1.338653e-001
2.962250e+003;1.273854e-001
2.964178e+003;1.203843e-001
2.966107e+003;1.135694e-001
2.968035e+003;1.067699e-001
2.969964e+003;1.005822e-001
2.971892e+003;9.445004e-002
2.973821e+003;8.845524e-002
2.975750e+003;8.364398e-002
2.977678e+003;7.954349e-002
2.979607e+003;7.580324e-002
2.981535e+003;7.228763e-002
2.983464e+003;6.930666e-002
2.985392e+003;6.683268e-002
2.987321e+003;6.433645e-002
2.989249e+003;6.183133e-002
2.991178e+003;5.935166e-002
2.993106e+003;5.692630e-002
2.995035e+003;5.489474e-002
2.996964e+003;5.304359e-002
2.998892e+003;5.124570e-002
3.000821e+003;4.937503e-002
3.002749e+003;4.738883e-002
3.004678e+003;4.580823e-002
3.006606e+003;4.435693e-002
3.008535e+003;4.285210e-002
3.010463e+003;4.154978e-002
3.012392e+003;4.018167e-002
3.014321e+003;3.896166e-002
3.016249e+003;3.794041e-002
3.018177e+003;3.659735e-002
3.020106e+003;3.552152e-002
3.022035e+003;3.468167e-002
3.023963e+003;3.405120e-002
3.025892e+003;3.350060e-002
3.027820e+003;3.283479e-002
3.029749e+003;3.185708e-002
3.031677e+003;3.105915e-002
3.033606e+003;3.065006e-002
3.035534e+003;2.999445e-002
3.037463e+003;2.927359e-002
3.039392e+003;2.902346e-002
3.041320e+003;2.889588e-002
3.043249e+003;2.893122e-002
3.045177e+003;2.871251e-002
3.047106e+003;2.822439e-002
3.049034e+003;2.809790e-002
3.050963e+003;2.814710e-002
3.052891e+003;2.795536e-002
3.054820e+003;2.751708e-002
3.056749e+003;2.732092e-002
3.058677e+003;2.747539e-002
3.060606e+003;2.749604e-002
3.062534e+003;2.729301e-002
3.064463e+003;2.688632e-002
3.066391e+003;2.674344e-002
3.068320e+003;2.646352e-002
3.070248e+003;2.646856e-002
3.072177e+003;2.652512e-002
3.074105e+003;2.660575e-002
3.076034e+003;2.614550e-002
3.077963e+003;2.580928e-002
3.079891e+003;2.595203e-002
3.081820e+003;2.597556e-002
3.083748e+003;2.610193e-002
3.085677e+003;2.618593e-002
3.087605e+003;2.598147e-002
3.089534e+003;2.577314e-002
3.091462e+003;2.560886e-002
3.093391e+003;2.520912e-002
3.095320e+003;2.510477e-002
3.097248e+003;2.549718e-002
3.099177e+003;2.574448e-002
3.101105e+003;2.592512e-002
3.103034e+003;2.587071e-002
3.104962e+003;2.588668e-002
3.106891e+003;2.603245e-002
3.108819e+003;2.568869e-002
3.110748e+003;2.552621e-002
3.112677e+003;2.555692e-002
3.114605e+003;2.560482e-002
3.116533e+003;2.575826e-002
3.118462e+003;2.598295e-002
3.120391e+003;2.604353e-002
3.122319e+003;2.589695e-002
3.124248e+003;2.557938e-002
3.126176e+003;2.583228e-002
3.128105e+003;2.624499e-002
3.130033e+003;2.626182e-002
3.131962e+003;2.663182e-002
3.133890e+003;2.732590e-002
3.135819e+003;2.729460e-002
3.137748e+003;2.708362e-002
3.139676e+003;2.704042e-002
3.141605e+003;2.699737e-002
3.143533e+003;2.749304e-002
3.145462e+003;2.804286e-002
3.147390e+003;2.804576e-002
3.149319e+003;2.786307e-002
3.151247e+003;2.797274e-002
3.153176e+003;2.784413e-002
3.155104e+003;2.763882e-002
3.157033e+003;2.776062e-002
3.158962e+003;2.819303e-002
3.160890e+003;2.867474e-002
3.162819e+003;2.856170e-002
3.164747e+003;2.816626e-002
3.166676e+003;2.837724e-002
3.168604e+003;2.864126e-002
3.170533e+003;2.893480e-002
3.172461e+003;2.910884e-002
3.174390e+003;2.955936e-002
3.176319e+003;2.977730e-002
3.178247e+003;2.956532e-002
3.180176e+003;2.953723e-002
3.182104e+003;2.949443e-002
3.184033e+003;2.946776e-002
3.185961e+003;2.950031e-002
3.187890e+003;2.937104e-002
3.189818e+003;2.941663e-002
3.191747e+003;2.982641e-002
3.193676e+003;2.985371e-002
3.195604e+003;2.991642e-002
3.197532e+003;3.024394e-002
3.199461e+003;3.042422e-002
3.201390e+003;3.050085e-002
3.203318e+003;3.062730e-002
3.205247e+003;3.070393e-002
3.207175e+003;3.059242e-002
3.209104e+003;3.027076e-002
3.211032e+003;3.038684e-002
3.212961e+003;3.072146e-002
3.214889e+003;3.054507e-002
3.216818e+003;3.031748e-002
3.218747e+003;3.034789e-002
3.220675e+003;3.032387e-002
3.222604e+003;3.034274e-002
3.224532e+003;3.037465e-002
3.226461e+003;3.031012e-002
3.228389e+003;2.967891e-002
3.230318e+003;2.948996e-002
3.232246e+003;2.989470e-002
3.234175e+003;2.952376e-002
3.236104e+003;2.883487e-002
3.238032e+003;2.872809e-002
3.239961e+003;2.896728e-002
3.241889e+003;2.885941e-002
3.243818e+003;2.861726e-002
3.245746e+003;2.866809e-002
3.247675e+003;2.874250e-002
3.249603e+003;2.880725e-002
3.251532e+003;2.921525e-002
3.253460e+003;2.945010e-002
3.255389e+003;2.932580e-002
3.257318e+003;2.957575e-002
3.259246e+003;2.947790e-002
3.261175e+003;2.936969e-002
3.263103e+003;2.996147e-002
3.265032e+003;3.028731e-002
3.266960e+003;2.973873e-002
3.268889e+003;2.894893e-002
3.270817e+003;2.910820e-002
3.272746e+003;2.944312e-002
3.274675e+003;2.934899e-002
3.276603e+003;2.959437e-002
3.278531e+003;3.011426e-002
3.280460e+003;3.004725e-002
3.282389e+003;2.994078e-002
3.284317e+003;3.007438e-002
3.286246e+003;3.012946e-002
3.288174e+003;2.997830e-002
3.290103e+003;2.977669e-002
3.292031e+003;2.987358e-002
3.293960e+003;2.982389e-002
3.295888e+003;2.998224e-002
3.297817e+003;3.011156e-002
3.299746e+003;2.978656e-002
3.301674e+003;2.962133e-002
3.303603e+003;2.964184e-002
3.305531e+003;2.982961e-002
3.307460e+003;2.992952e-002
3.309388e+003;2.996445e-002
3.311317e+003;2.969863e-002
3.313245e+003;2.959451e-002
3.315174e+003;2.947280e-002
3.317103e+003;2.952684e-002
3.319031e+003;2.967202e-002
3.320960e+003;2.929195e-002
3.322888e+003;2.882145e-002
3.324817e+003;2.879868e-002
3.326745e+003;2.892825e-002
3.328674e+003;2.918470e-002
3.330602e+003;2.919030e-002
3.332531e+003;2.918938e-002
3.334459e+003;2.927823e-002
3.336388e+003;2.939025e-002
3.338317e+003;2.918431e-002
3.340245e+003;2.892715e-002
3.342174e+003;2.891497e-002
3.344102e+003;2.887417e-002
3.346031e+003;2.877255e-002
3.347959e+003;2.824101e-002
3.349888e+003;2.770422e-002
3.351816e+003;2.788543e-002
3.353745e+003;2.843575e-002
3.355674e+003;2.881511e-002
3.357602e+003;2.865011e-002
3.359531e+003;2.842846e-002
3.361459e+003;2.830544e-002
3.363388e+003;2.816934e-002
3.365316e+003;2.825431e-002
3.367245e+003;2.821223e-002
3.369173e+003;2.799639e-002
3.371102e+003;2.768254e-002
3.373031e+003;2.757117e-002
3.374959e+003;2.748108e-002
3.376887e+003;2.715091e-002
3.378816e+003;2.685124e-002
3.380745e+003;2.669453e-002
3.382673e+003;2.634567e-002
3.384602e+003;2.623436e-002
3.386530e+003;2.660416e-002
3.388459e+003;2.682858e-002
3.390387e+003;2.670859e-002
3.392316e+003;2.640641e-002
3.394244e+003;2.628860e-002
3.396173e+003;2.597869e-002
3.398102e+003;2.582482e-002
3.400030e+003;2.625689e-002
3.401959e+003;2.634268e-002
3.403887e+003;2.554887e-002
3.405816e+003;2.529607e-002
3.407744e+003;2.546303e-002
3.409673e+003;2.552603e-002
3.411601e+003;2.556746e-002
3.413530e+003;2.524118e-002
3.415458e+003;2.506127e-002
3.417387e+003;2.493970e-002
3.419316e+003;2.472968e-002
3.421244e+003;2.468591e-002
3.423173e+003;2.481117e-002
3.425101e+003;2.438727e-002
3.427030e+003;2.404362e-002
3.428958e+003;2.420832e-002
3.430887e+003;2.394260e-002
3.432815e+003;2.296348e-002
3.434744e+003;2.265977e-002
3.436673e+003;2.339473e-002
3.438601e+003;2.374924e-002
3.440530e+003;2.317938e-002
3.442458e+003;2.222628e-002
3.444387e+003;2.188346e-002
3.446315e+003;2.182534e-002
3.448244e+003;2.170634e-002
3.450172e+003;2.147936e-002
3.452101e+003;2.134511e-002
3.454030e+003;2.113063e-002
3.455958e+003;2.136582e-002
3.457886e+003;2.163619e-002
3.459815e+003;2.185053e-002
3.461744e+003;2.150227e-002
3.463672e+003;2.109373e-002
3.465601e+003;2.092099e-002
3.467529e+003;2.047885e-002
3.469458e+003;1.992589e-002
3.471386e+003;1.959920e-002
3.473315e+003;1.963574e-002
3.475243e+003;1.974571e-002
3.477172e+003;1.953820e-002
3.479101e+003;1.901555e-002
3.481029e+003;1.894881e-002
3.482958e+003;1.895933e-002
3.484886e+003;1.887644e-002
3.486815e+003;1.865558e-002
3.488743e+003;1.837387e-002
3.490672e+003;1.830330e-002
3.492600e+003;1.835524e-002
3.494529e+003;1.781548e-002
3.496458e+003;1.738976e-002
3.498386e+003;1.733203e-002
3.500315e+003;1.677321e-002
3.502243e+003;1.604482e-002
3.504172e+003;1.604572e-002
3.506100e+003;1.658463e-002
3.508029e+003;1.692897e-002
3.509957e+003;1.709668e-002
3.511886e+003;1.687881e-002
3.513814e+003;1.634576e-002
3.515743e+003;1.586993e-002
3.517672e+003;1.581443e-002
3.519600e+003;1.610345e-002
3.521529e+003;1.609984e-002
3.523457e+003;1.545775e-002
3.525386e+003;1.502185e-002
3.527314e+003;1.494372e-002
3.529243e+003;1.514895e-002
3.531171e+003;1.490833e-002
3.533100e+003;1.483602e-002
3.535029e+003;1.491447e-002
3.536957e+003;1.485470e-002
3.538885e+003;1.458875e-002
3.540814e+003;1.431023e-002
3.542743e+003;1.390274e-002
3.544671e+003;1.344366e-002
3.546600e+003;1.351345e-002
3.548528e+003;1.347582e-002
3.550457e+003;1.310316e-002
3.552385e+003;1.278944e-002
3.554314e+003;1.252503e-002
3.556242e+003;1.205734e-002
3.558171e+003;1.201258e-002
3.560100e+003;1.220382e-002
3.562028e+003;1.191330e-002
3.563957e+003;1.102974e-002
3.565885e+003;9.890826e-003
3.567814e+003;9.585113e-003
3.569742e+003;1.037708e-002
3.571671e+003;1.080362e-002
3.573599e+003;1.057803e-002
3.575528e+003;1.045996e-002
3.577457e+003;9.984224e-003
3.579385e+003;9.659201e-003
3.581314e+003;9.827443e-003
3.583242e+003;9.267462e-003
3.585171e+003;8.306749e-003
3.587099e+003;7.817742e-003
3.589028e+003;8.178427e-003
3.590956e+003;8.641915e-003
3.592885e+003;8.311004e-003
3.594813e+003;7.958309e-003
3.596742e+003;8.192440e-003
3.598671e+003;8.105773e-003
3.600599e+003;8.193993e-003
3.602528e+003;8.584324e-003
3.604456e+003;8.209188e-003
3.606385e+003;6.964220e-003
3.608313e+003;5.962895e-003
3.610242e+003;5.911469e-003
3.612170e+003;6.168158e-003
3.614099e+003;7.036178e-003
3.616028e+003;7.078510e-003
3.617956e+003;5.689374e-003
3.619885e+003;5.663928e-003
3.621813e+003;6.841276e-003
3.623742e+003;6.920048e-003
3.625670e+003;5.555580e-003
3.627599e+003;2.945209e-003
3.629527e+003;3.007496e-003
3.631456e+003;5.297106e-003
3.633385e+003;6.126352e-003
3.635313e+003;6.465320e-003
3.637241e+003;6.417264e-003
3.639170e+003;6.116841e-003
3.641099e+003;6.074939e-003
3.643027e+003;5.879158e-003
3.644956e+003;5.068587e-003
3.646884e+003;3.501969e-003
3.648813e+003;2.149414e-003
3.650741e+003;2.976668e-003
3.652670e+003;4.651158e-003
3.654598e+003;4.299212e-003
3.656527e+003;3.826560e-003
3.658456e+003;4.446711e-003
3.660384e+003;4.660334e-003
3.662313e+003;4.938168e-003
3.664241e+003;4.940012e-003
3.666170e+003;4.425756e-003
3.668098e+003;3.341534e-003
3.670027e+003;2.618909e-003
3.671955e+003;3.287479e-003
3.673884e+003;1.854889e-003
3.675813e+003;1.307048e-003
3.677741e+003;4.214590e-003
3.679669e+003;5.305089e-003
3.681598e+003;4.974632e-003
3.683527e+003;5.308242e-003
3.685455e+003;5.355471e-003
3.687384e+003;3.685988e-003
3.689312e+003;3.066988e-003
3.691241e+003;3.931000e-003
3.693169e+003;5.107509e-003
3.695098e+003;5.516987e-003
3.697026e+003;5.162662e-003
3.698955e+003;5.254847e-003
3.700884e+003;4.737908e-003
3.702812e+003;5.003490e-003
3.704741e+003;5.675945e-003
3.706669e+003;5.325415e-003
3.708598e+003;4.509582e-003
3.710526e+003;3.577498e-003
3.712455e+003;3.685353e-003
3.714383e+003;4.786984e-003
3.716312e+003;4.807219e-003
3.718240e+003;4.945910e-003
3.720169e+003;5.203940e-003
3.722098e+003;4.994038e-003
3.724026e+003;4.714494e-003
3.725955e+003;4.514738e-003
3.727883e+003;4.436903e-003
3.729812e+003;3.873796e-003
3.731740e+003;2.875327e-003
3.733669e+003;2.697485e-003
3.735597e+003;2.602542e-003
3.737526e+003;3.539481e-003
3.739455e+003;4.706220e-003
3.741383e+003;4.120920e-003
3.743312e+003;8.298391e-004
3.745240e+003;9.800502e-004
3.747169e+003;2.857316e-003
3.749097e+003;1.427039e-003
3.751026e+003;1.013758e-003
3.752954e+003;2.773242e-003
3.754883e+003;4.882741e-003
3.756812e+003;4.980162e-003
3.758740e+003;5.055848e-003
3.760668e+003;5.699445e-003
3.762597e+003;6.114725e-003
3.764526e+003;5.928834e-003
3.766454e+003;5.900452e-003
3.768383e+003;5.078644e-003
3.770311e+003;5.042339e-003
3.772240e+003;5.629219e-003
3.774168e+003;5.759576e-003
3.776097e+003;5.343160e-003
3.778025e+003;5.057524e-003
3.779954e+003;4.976810e-003
3.781883e+003;5.189421e-003
3.783811e+003;5.408878e-003
3.785740e+003;6.122487e-003
3.787668e+003;6.423519e-003
3.789597e+003;6.561146e-003
3.791525e+003;6.598890e-003
3.793454e+003;6.107802e-003
3.795382e+003;5.659866e-003
3.797311e+003;5.697028e-003
3.799240e+003;4.206995e-003
3.801168e+003;2.621209e-003
3.803097e+003;3.726223e-003
3.805025e+003;3.796744e-003
3.806954e+003;3.436839e-003
3.808882e+003;5.074587e-003
3.810811e+003;5.721938e-003
3.812739e+003;5.155990e-003
3.814668e+003;3.809412e-003
3.816596e+003;3.688828e-003
3.818525e+003;4.095834e-003
3.820454e+003;3.424750e-003
3.822382e+003;4.574471e-003
3.824311e+003;5.825592e-003
3.826239e+003;5.761188e-003
3.828168e+003;5.516987e-003
3.830096e+003;5.101407e-003
3.832025e+003;5.129804e-003
3.833953e+003;5.171481e-003
3.835882e+003;3.845180e-003
3.837811e+003;2.850745e-003
3.839739e+003;3.813791e-003
3.841667e+003;4.153569e-003
3.843596e+003;4.305570e-003
3.845525e+003;5.283589e-003
3.847453e+003;5.648419e-003
3.849382e+003;5.079314e-003
3.851310e+003;2.348351e-003
3.853239e+003;-5.592666e-005
3.855167e+003;2.873392e-003
3.857096e+003;6.020308e-003
3.859024e+003;6.224892e-003
3.860953e+003;5.804705e-003
3.862882e+003;5.233853e-003
3.864810e+003;4.664253e-003
3.866739e+003;5.343898e-003
3.868667e+003;4.623730e-003
3.870596e+003;4.515608e-003
3.872524e+003;5.675844e-003
3.874453e+003;6.062037e-003
3.876381e+003;6.349511e-003
3.878310e+003;5.427632e-003
3.880239e+003;5.014517e-003
3.882167e+003;5.890376e-003
3.884096e+003;5.727881e-003
3.886024e+003;5.666244e-003
3.887953e+003;6.199683e-003
3.889881e+003;5.357953e-003
3.891810e+003;5.730903e-003
3.893738e+003;7.175178e-003
3.895667e+003;7.632100e-003
3.897595e+003;6.721967e-003
3.899524e+003;5.851249e-003
3.901453e+003;5.301735e-003
3.903381e+003;5.204276e-003
3.905310e+003;6.340500e-003
3.907238e+003;7.086997e-003
3.909167e+003;7.110337e-003
3.911095e+003;7.253539e-003
3.913024e+003;7.538094e-003
3.914952e+003;6.975095e-003
3.916881e+003;6.177804e-003
3.918810e+003;6.230304e-003
3.920738e+003;6.811521e-003
3.922667e+003;7.209977e-003
3.924595e+003;6.981729e-003
3.926524e+003;7.430256e-003
3.928452e+003;7.649770e-003
3.930381e+003;7.190269e-003
3.932309e+003;7.263478e-003
3.934238e+003;7.749028e-003
3.936167e+003;8.185248e-003
3.938095e+003;8.616296e-003
3.940023e+003;8.703368e-003
3.941952e+003;8.097267e-003
3.943881e+003;8.003768e-003
3.945809e+003;8.261224e-003
3.947738e+003;7.878066e-003
3.949666e+003;7.283560e-003
3.951595e+003;7.463828e-003
3.953523e+003;7.743631e-003
3.955452e+003;7.784884e-003
3.957380e+003;7.792036e-003
3.959309e+003;7.382363e-003
3.961238e+003;7.467974e-003
3.963166e+003;7.339934e-003
3.965095e+003;7.214727e-003
3.967023e+003;7.869733e-003
3.968952e+003;8.407136e-003
3.970880e+003;8.178765e-003
3.972809e+003;7.833733e-003
3.974737e+003;8.097334e-003
3.976666e+003;8.342111e-003
3.978594e+003;8.056894e-003
3.980523e+003;8.101520e-003
3.982452e+003;8.424771e-003
3.984380e+003;9.074872e-003
3.986309e+003;9.214797e-003
3.988237e+003;8.983091e-003
3.990166e+003;9.217674e-003
3.992094e+003;9.546161e-003
3.994023e+003;9.499930e-003
3.995951e+003;9.518150e-003
3.997880e+003;9.647851e-003
3.999809e+003;8.817981e-003
4.001737e+003;0.000000e+000
