3.992094e+002;0.000000e+000
4.011380e+002;0.000000e+000
4.030665e+002;0.000000e+000
4.049951e+002;0.000000e+000
4.069236e+002;0.000000e+000
4.088522e+002;0.000000e+000
4.107807e+002;0.000000e+000
4.127093e+002;0.000000e+000
4.146378e+002;0.000000e+000
4.165664e+002;0.000000e+000
4.184949e+002;0.000000e+000
4.204235e+002;0.000000e+000
4.223520e+002;0.000000e+000
4.242806e+002;0.000000e+000
4.262091e+002;0.000000e+000
4.281377e+002;0.000000e+000
4.300662e+002;0.000000e+000
4.319948e+002;0.000000e+000
4.339233e+002;0.000000e+000
4.358519e+002;0.000000e+000
4.377804e+002;0.000000e+000
4.397090e+002;0.000000e+000
4.416375e+002;0.000000e+000
4.435660e+002;0.000000e+000
4.454946e+002;0.000000e+000
4.474232e+002;0.000000e+000
4.493517e+002;0.000000e+000
4.512802e+002;0.000000e+000
4.532088e+002;0.000000e+000
4.551373e+002;0.000000e+000
4.570659e+002;0.000000e+000
4.589944e+002;0.000000e+000
4.609230e+002;0.000000e+000
4.628515e+002;0.000000e+000
4.647801e+002;0.000000e+000
4.667086e+002;0.000000e+000
4.686372e+002;0.000000e+000
4.705657e+002;0.000000e+000
4.724943e+002;0.000000e+000
4.744228e+002;0.000000e+000
4.763513e+002;0.000000e+000
4.782799e+002;0.000000e+000
4.802085e+002;0.000000e+000
4.821370e+002;0.000000e+000
4.840656e+002;0.000000e+000
4.859941e+002;0.000000e+000
4.879226e+002;0.000000e+000
4.898512e+002;0.000000e+000
4.917798e+002;0.000000e+000
4.937083e+002;0.000000e+000
4.956368e+002;0.000000e+000
4.975654e+002;0.000000e+000
4.994939e+002;0.000000e+000
5.014225e+002;0.000000e+000
5.033510e+002;0.000000e+000
5.052796e+002;0.000000e+000
5.072081e+002;0.000000e+000
5.091367e+002;0.000000e+000
5.110652e+002;0.000000e+000
5.129938e+002;0.000000e+000
5.149223e+002;0.000000e+000
5.168509e+002;0.000000e+000
5.187794e+002;0.000000e+000
5.207079e+002;0.000000e+000
5.226365e+002;0.000000e+000
5.245651e+002;0.000000e+000
5.264936e+002;0.000000e+000
5.284222e+002;0.000000e+000
5.303507e+002;0.000000e+000
5.322792e+002;0.000000e+000
5.342078e+002;0.000000e+000
5.361364e+002;0.000000e+000
5.380649e+002;0.000000e+000
5.399935e+002;0.000000e+000
5.419220e+002;0.000000e+000
5.438505e+002;0.000000e+000
5.457791e+002;0.000000e+000
5.477076e+002;0.000000e+000
5.496362e+002;0.000000e+000
5.515648e+002;0.000000e+000
5.534933e+002;0.000000e+000
5.554218e+002;0.000000e+000
5.573504e+002;0.000000e+000
5.592789e+002;0.000000e+000
5.612075e+002;0.000000e+000
5.631360e+002;0.000000e+000
5.650646e+002;0.000000e+000
5.669931e+002;0.000000e+000
5.689217e+002;0.000000e+000
5.708502e+002;0.000000e+000
5.727787e+002;0.000000e+000
5.747073e+002;0.000000e+000
5.766359e+002;0.000000e+000
5.785644e+002;0.000000e+000
5.804930e+002;0.000000e+000
5.824215e+002;0.000000e+000
5.843500e+002;0.000000e+000
5.862786e+002;0.000000e+000
5.882072e+002;0.000000e+000
5.901357e+002;0.000000e+000
5.920643e+002;0.000000e+000
5.939928e+002;0.000000e+000
5.959213e+002;0.000000e+000
5.978499e+002;0.000000e+000
5.997784e+002;5.432899e-002
6.017070e+002;4.993845e-002
6.036355e+002;5.003541e-002
6.055641e+002;5.098308e-002
6.074926e+002;4.772750e-002
6.094211e+002;4.606637e-002
6.113497e+002;4.395928e-002
6.132783e+002;4.422829e-002
6.152068e+002;4.665650e-002
6.171354e+002;4.748256e-002
6.190639e+002;4.669860e-002
6.209924e+002;4.540299e-002
6.229210e+002;4.724921e-002
6.248495e+002;4.890464e-002
6.267781e+002;4.934730e-002
6.287067e+002;4.773512e-002
6.306352e+002;4.514972e-002
6.325637e+002;4.538761e-002
6.344923e+002;4.786047e-002
6.364208e+002;4.655237e-002
6.383494e+002;4.716173e-002
6.402780e+002;4.977162e-002
6.422065e+002;4.643303e-002
6.441350e+002;4.468748e-002
6.460636e+002;4.596010e-002
6.479921e+002;4.627992e-002
6.499207e+002;4.819677e-002
6.518492e+002;4.762122e-002
6.537778e+002;4.780846e-002
6.557063e+002;5.046043e-002
6.576349e+002;5.035542e-002
6.595634e+002;5.245287e-002
6.614919e+002;5.540021e-002
6.634205e+002;5.468841e-002
6.653491e+002;5.289846e-002
6.672776e+002;5.138983e-002
6.692062e+002;4.987835e-002
6.711347e+002;5.138878e-002
6.730632e+002;5.212578e-002
6.749918e+002;5.172387e-002
6.769203e+002;5.329435e-002
6.788489e+002;5.370702e-002
6.807775e+002;5.204931e-002
6.827060e+002;4.997217e-002
6.846345e+002;4.974476e-002
6.865631e+002;5.010107e-002
6.884916e+002;4.889270e-002
6.904202e+002;4.839096e-002
6.923488e+002;4.984196e-002
6.942773e+002;5.160273e-002
6.962058e+002;5.282504e-002
6.981344e+002;5.287193e-002
7.000629e+002;5.186614e-002
7.019915e+002;5.120924e-002
7.039200e+002;5.076650e-002
7.058486e+002;5.040930e-002
7.077771e+002;5.189164e-002
7.097057e+002;5.314982e-002
7.116342e+002;5.319842e-002
7.135627e+002;5.359361e-002
7.154913e+002;5.406619e-002
7.174199e+002;5.419560e-002
7.193484e+002;5.382758e-002
7.212770e+002;5.324715e-002
7.232055e+002;5.352557e-002
7.251340e+002;5.409399e-002
7.270626e+002;5.389390e-002
7.289911e+002;5.325726e-002
7.309197e+002;5.275605e-002
7.328483e+002;5.174107e-002
7.347768e+002;5.075912e-002
7.367053e+002;5.050811e-002
7.386339e+002;5.108575e-002
7.405624e+002;5.090458e-002
7.424910e+002;5.074717e-002
7.444196e+002;5.063241e-002
7.463481e+002;5.109816e-002
7.482766e+002;5.095733e-002
7.502052e+002;5.108213e-002
7.521337e+002;5.199549e-002
7.540623e+002;5.171043e-002
7.559908e+002;5.099567e-002
7.579194e+002;5.113107e-002
7.598479e+002;5.099817e-002
7.617765e+002;5.091825e-002
7.637050e+002;5.136726e-002
7.656335e+002;5.201596e-002
7.675621e+002;5.249935e-002
7.694907e+002;5.223178e-002
7.714192e+002;5.179087e-002
7.733478e+002;5.150427e-002
7.752763e+002;5.105187e-002
7.772048e+002;5.058445e-002
7.791334e+002;5.033931e-002
7.810620e+002;5.050201e-002
7.829905e+002;5.179722e-002
7.849191e+002;5.287133e-002
7.868476e+002;5.258895e-002
7.887761e+002;5.272200e-002
7.907047e+002;5.399849e-002
7.926332e+002;5.576873e-002
7.945618e+002;5.739386e-002
7.964903e+002;5.901626e-002
7.984189e+002;6.067320e-002
8.003474e+002;6.128883e-002
8.022759e+002;6.208526e-002
8.042045e+002;6.447103e-002
8.061331e+002;6.694254e-002
8.080616e+002;6.941628e-002
8.099902e+002;7.036599e-002
8.119187e+002;6.855004e-002
8.138472e+002;6.552424e-002
8.157758e+002;6.313967e-002
8.177043e+002;6.106956e-002
8.196329e+002;5.902472e-002
8.215615e+002;5.840012e-002
8.234900e+002;5.818795e-002
8.254185e+002;5.776011e-002
8.273471e+002;5.718105e-002
8.292756e+002;5.773782e-002
8.312042e+002;5.872375e-002
8.331328e+002;5.934786e-002
8.350613e+002;6.076122e-002
8.369898e+002;6.364090e-002
8.389184e+002;6.864821e-002
8.408469e+002;7.359537e-002
8.427755e+002;7.385302e-002
8.447040e+002;6.953448e-002
8.466326e+002;6.499404e-002
8.485611e+002;6.184095e-002
8.504897e+002;5.920859e-002
8.524182e+002;5.709432e-002
8.543467e+002;5.615110e-002
8.562753e+002;5.558639e-002
8.582039e+002;5.487895e-002
8.601324e+002;5.429009e-002
8.620610e+002;5.421418e-002
8.639895e+002;5.519676e-002
8.659180e+002;5.612784e-002
8.678466e+002;5.658103e-002
8.697751e+002;5.720483e-002
8.717037e+002;5.768627e-002
8.736323e+002;5.784542e-002
8.755608e+002;5.693760e-002
8.774893e+002;5.612456e-002
8.794179e+002;5.546642e-002
8.813464e+002;5.436613e-002
8.832750e+002;5.376094e-002
8.852036e+002;5.358034e-002
8.871321e+002;5.318820e-002
8.890606e+002;5.329562e-002
8.909892e+002;5.469623e-002
8.929177e+002;5.711352e-002
8.948463e+002;6.071359e-002
8.967748e+002;6.511194e-002
8.987034e+002;6.796011e-002
9.006319e+002;6.787340e-002
9.025605e+002;6.427786e-002
9.044890e+002;5.863030e-002
9.064175e+002;5.410923e-002
9.083461e+002;5.147095e-002
9.102747e+002;5.045124e-002
9.122032e+002;4.989931e-002
9.141318e+002;4.919643e-002
9.160603e+002;4.910478e-002
9.179888e+002;4.896961e-002
9.199174e+002;4.838330e-002
9.218459e+002;4.812299e-002
9.237745e+002;4.817189e-002
9.257031e+002;4.807013e-002
9.276316e+002;4.848257e-002
9.295601e+002;4.876534e-002
9.314887e+002;4.885717e-002
9.334172e+002;4.913135e-002
9.353458e+002;5.049177e-002
9.372744e+002;5.242020e-002
9.392029e+002;5.379544e-002
9.411314e+002;5.437443e-002
9.430600e+002;5.473479e-002
9.449885e+002;5.487906e-002
9.469171e+002;5.473520e-002
9.488456e+002;5.452050e-002
9.507742e+002;5.497292e-002
9.527027e+002;5.609816e-002
9.546313e+002;5.681325e-002
9.565598e+002;5.709428e-002
9.584883e+002;5.784043e-002
9.604169e+002;5.945222e-002
9.623455e+002;6.183167e-002
9.642740e+002;6.522882e-002
9.662026e+002;7.008673e-002
9.681311e+002;7.690644e-002
9.700596e+002;8.458799e-002
9.719882e+002;9.093728e-002
9.739167e+002;9.313211e-002
9.758453e+002;8.975484e-002
9.777739e+002;8.199854e-002
9.797024e+002;7.314878e-002
9.816309e+002;6.555938e-002
9.835595e+002;6.078641e-002
9.854880e+002;5.856594e-002
9.874166e+002;5.836514e-002
9.893452e+002;6.004413e-002
9.912737e+002;6.367658e-002
9.932022e+002;6.892209e-002
9.951307e+002;7.517651e-002
9.970593e+002;8.018891e-002
9.989879e+002;8.026806e-002
1.000916e+003;7.579709e-002
1.002845e+003;7.013068e-002
1.004773e+003;6.539426e-002
1.006702e+003;6.239650e-002
1.008631e+003;6.053418e-002
1.010559e+003;5.968158e-002
1.012488e+003;5.853474e-002
1.014416e+003;5.724059e-002
1.016345e+003;5.695274e-002
1.018273e+003;5.733136e-002
1.020202e+003;5.775757e-002
1.022130e+003;5.768136e-002
1.024059e+003;5.690115e-002
1.025988e+003;5.642276e-002
1.027916e+003;5.697205e-002
1.029845e+003;5.766399e-002
1.031773e+003;5.844072e-002
1.033702e+003;5.949573e-002
1.035630e+003;6.097198e-002
1.037559e+003;6.237339e-002
1.039487e+003;6.305166e-002
1.041416e+003;6.319845e-002
1.043344e+003;6.345741e-002
1.045273e+003;6.290852e-002
1.047202e+003;6.138824e-002
1.049130e+003;5.986478e-002
1.051059e+003;5.897306e-002
1.052987e+003;5.852484e-002
1.054916e+003;5.809094e-002
1.056844e+003;5.785803e-002
1.058773e+003;5.723832e-002
1.060701e+003;5.624376e-002
1.062630e+003;5.581059e-002
1.064558e+003;5.610540e-002
1.066487e+003;5.667309e-002
1.068416e+003;5.671829e-002
1.070344e+003;5.647313e-002
1.072273e+003;5.658774e-002
1.074201e+003;5.650328e-002
1.076130e+003;5.633942e-002
1.078058e+003;5.689340e-002
1.079987e+003;5.733374e-002
1.081915e+003;5.735503e-002
1.083844e+003;5.723840e-002
1.085773e+003;5.751145e-002
1.087701e+003;5.821997e-002
1.089630e+003;5.905209e-002
1.091558e+003;5.946472e-002
1.093487e+003;5.963384e-002
1.095415e+003;6.046925e-002
1.097344e+003;6.201871e-002
1.099272e+003;6.370858e-002
1.101201e+003;6.485726e-002
1.103129e+003;6.490189e-002
1.105058e+003;6.425481e-002
1.106987e+003;6.340139e-002
1.108915e+003;6.169802e-002
1.110844e+003;5.942996e-002
1.112772e+003;5.776109e-002
1.114701e+003;5.750464e-002
1.116629e+003;5.722702e-002
1.118558e+003;5.610167e-002
1.120486e+003;5.533678e-002
1.122415e+003;5.496186e-002
1.124344e+003;5.471829e-002
1.126272e+003;5.462303e-002
1.128201e+003;5.475501e-002
1.130129e+003;5.546578e-002
1.132058e+003;5.636843e-002
1.133986e+003;5.716257e-002
1.135915e+003;5.832402e-002
1.137843e+003;6.003005e-002
1.139772e+003;6.218080e-002
1.141700e+003;6.505124e-002
1.143629e+003;6.823526e-002
1.145557e+003;7.131626e-002
1.147486e+003;7.451548e-002
1.149415e+003;7.772791e-002
1.151343e+003;8.085197e-002
1.153272e+003;8.294752e-002
1.155200e+003;8.359003e-002
1.157129e+003;8.308944e-002
1.159057e+003;8.293064e-002
1.160986e+003;8.354838e-002
1.162914e+003;8.441942e-002
1.164843e+003;8.499464e-002
1.166771e+003;8.482023e-002
1.168700e+003;8.342429e-002
1.170629e+003;7.995790e-002
1.172557e+003;7.546763e-002
1.174486e+003;7.091656e-002
1.176414e+003;6.699275e-002
1.178343e+003;6.358137e-002
1.180271e+003;6.112296e-002
1.182200e+003;5.998052e-002
1.184128e+003;5.934851e-002
1.186057e+003;5.921284e-002
1.187986e+003;5.932686e-002
1.189914e+003;5.949713e-002
1.191843e+003;5.946301e-002
1.193771e+003;5.909920e-002
1.195700e+003;5.921030e-002
1.197628e+003;5.988394e-002
1.199557e+003;6.030681e-002
1.201485e+003;5.999821e-002
1.203414e+003;5.983048e-002
1.205343e+003;6.007613e-002
1.207271e+003;6.062309e-002
1.209200e+003;6.157700e-002
1.211128e+003;6.287355e-002
1.213057e+003;6.420241e-002
1.214985e+003;6.486364e-002
1.216914e+003;6.492232e-002
1.218842e+003;6.471021e-002
1.220771e+003;6.438886e-002
1.222699e+003;6.347076e-002
1.224628e+003;6.259680e-002
1.226557e+003;6.228324e-002
1.228485e+003;6.234635e-002
1.230414e+003;6.218967e-002
1.232342e+003;6.223556e-002
1.234271e+003;6.257495e-002
1.236199e+003;6.257047e-002
1.238128e+003;6.273413e-002
1.240056e+003;6.343337e-002
1.241985e+003;6.365203e-002
1.243913e+003;6.373026e-002
1.245842e+003;6.445589e-002
1.247771e+003;6.529197e-002
1.249699e+003;6.645578e-002
1.251628e+003;6.865702e-002
1.253556e+003;7.138315e-002
1.255485e+003;7.316247e-002
1.257413e+003;7.353115e-002
1.259342e+003;7.232086e-002
1.261270e+003;6.999184e-002
1.263199e+003;6.764141e-002
1.265127e+003;6.626499e-002
1.267056e+003;6.560678e-002
1.268985e+003;6.459616e-002
1.270913e+003;6.374131e-002
1.272842e+003;6.367505e-002
1.274770e+003;6.381833e-002
1.276699e+003;6.357162e-002
1.278627e+003;6.329294e-002
1.280556e+003;6.328734e-002
1.282484e+003;6.354443e-002
1.284413e+003;6.397142e-002
1.286342e+003;6.475686e-002
1.288270e+003;6.573790e-002
1.290199e+003;6.670513e-002
1.292127e+003;6.741416e-002
1.294056e+003;6.815027e-002
1.295984e+003;6.872288e-002
1.297913e+003;6.893001e-002
1.299841e+003;6.894489e-002
1.301770e+003;6.921879e-002
1.303698e+003;6.959161e-002
1.305627e+003;6.854720e-002
1.307556e+003;6.590343e-002
1.309484e+003;6.338410e-002
1.311413e+003;6.219885e-002
1.313341e+003;6.194641e-002
1.315270e+003;6.242408e-002
1.317198e+003;6.336198e-002
1.319127e+003;6.444348e-002
1.321055e+003;6.559160e-002
1.322984e+003;6.695084e-002
1.324912e+003;6.846616e-002
1.326841e+003;6.997772e-002
1.328770e+003;7.112356e-002
1.330698e+003;7.123579e-002
1.332627e+003;7.052019e-002
1.334555e+003;6.965964e-002
1.336484e+003;6.914784e-002
1.338412e+003;6.900038e-002
1.340341e+003;6.963393e-002
1.342269e+003;7.087494e-002
1.344198e+003;7.253397e-002
1.346126e+003;7.468411e-002
1.348055e+003;7.757100e-002
1.349984e+003;8.142983e-002
1.351912e+003;8.595556e-002
1.353841e+003;9.190356e-002
1.355769e+003;9.900673e-002
1.357698e+003;1.045897e-001
1.359626e+003;1.064573e-001
1.361555e+003;1.057426e-001
1.363483e+003;1.052338e-001
1.365412e+003;1.071941e-001
1.367341e+003;1.143055e-001
1.369269e+003;1.287339e-001
1.371198e+003;1.507013e-001
1.373126e+003;1.766452e-001
1.375055e+003;1.971803e-001
1.376983e+003;1.992644e-001
1.378912e+003;1.798104e-001
1.380840e+003;1.515816e-001
1.382769e+003;1.260615e-001
1.384698e+003;1.061976e-001
1.386626e+003;9.221217e-002
1.388555e+003;8.351705e-002
1.390483e+003;7.818053e-002
1.392412e+003;7.440602e-002
1.394340e+003;7.219654e-002
1.396269e+003;7.129958e-002
1.398197e+003;7.080726e-002
1.400126e+003;7.076436e-002
1.402054e+003;7.086588e-002
1.403983e+003;7.100657e-002
1.405911e+003;7.132821e-002
1.407840e+003;7.137600e-002
1.409769e+003;7.137335e-002
1.411697e+003;7.203802e-002
1.413626e+003;7.267959e-002
1.415554e+003;7.272307e-002
1.417483e+003;7.270449e-002
1.419411e+003;7.324808e-002
1.421340e+003;7.441106e-002
1.423268e+003;7.583283e-002
1.425197e+003;7.769196e-002
1.427125e+003;8.087756e-002
1.429054e+003;8.641952e-002
1.430983e+003;9.447665e-002
1.432911e+003;1.036401e-001
1.434840e+003;1.105044e-001
1.436768e+003;1.134498e-001
1.438697e+003;1.149823e-001
1.440625e+003;1.173642e-001
1.442554e+003;1.220096e-001
1.444482e+003;1.294377e-001
1.446411e+003;1.385739e-001
1.448340e+003;1.482680e-001
1.450268e+003;1.567291e-001
1.452197e+003;1.625327e-001
1.454125e+003;1.653480e-001
1.456054e+003;1.649069e-001
1.457982e+003;1.630994e-001
1.459911e+003;1.608313e-001
1.461839e+003;1.561221e-001
1.463768e+003;1.482676e-001
1.465697e+003;1.384780e-001
1.467625e+003;1.281608e-001
1.469554e+003;1.175342e-001
1.471482e+003;1.074769e-001
1.473411e+003;9.872507e-002
1.475339e+003;9.136672e-002
1.477268e+003;8.511603e-002
1.479196e+003;7.970671e-002
1.481125e+003;7.511667e-002
1.483053e+003;7.127874e-002
1.484982e+003;6.773423e-002
1.486911e+003;6.483129e-002
1.488839e+003;6.291717e-002
1.490768e+003;6.153160e-002
1.492696e+003;6.033079e-002
1.494625e+003;5.902909e-002
1.496553e+003;5.785031e-002
1.498482e+003;5.711019e-002
1.500410e+003;5.639287e-002
1.502339e+003;5.571203e-002
1.504267e+003;5.466485e-002
1.506196e+003;5.320494e-002
1.508125e+003;5.254048e-002
1.510053e+003;5.250014e-002
1.511982e+003;5.250238e-002
1.513910e+003;5.232058e-002
1.515839e+003;5.195624e-002
1.517767e+003;5.148487e-002
1.519696e+003;5.093837e-002
1.521624e+003;5.078351e-002
1.523553e+003;5.108407e-002
1.525481e+003;5.118881e-002
1.527410e+003;5.125923e-002
1.529339e+003;5.128220e-002
1.531267e+003;5.141888e-002
1.533196e+003;5.175615e-002
1.535124e+003;5.220155e-002
1.537053e+003;5.223395e-002
1.538981e+003;5.204352e-002
1.540910e+003;5.272724e-002
1.542838e+003;5.384412e-002
1.544767e+003;5.465478e-002
1.546695e+003;5.509380e-002
1.548624e+003;5.505923e-002
1.550553e+003;5.478587e-002
1.552481e+003;5.442070e-002
1.554410e+003;5.388295e-002
1.556338e+003;5.308672e-002
1.558267e+003;5.173966e-002
1.560195e+003;5.151434e-002
1.562124e+003;5.173324e-002
1.564052e+003;5.133829e-002
1.565981e+003;5.099135e-002
1.567910e+003;5.044484e-002
1.569838e+003;4.999540e-002
1.571767e+003;4.990198e-002
1.573695e+003;4.967000e-002
1.575624e+003;4.932043e-002
1.577552e+003;4.956800e-002
1.579481e+003;4.996410e-002
1.581409e+003;4.991176e-002
1.583338e+003;4.970860e-002
1.585266e+003;4.952437e-002
1.587195e+003;4.932982e-002
1.589124e+003;4.890890e-002
1.591052e+003;4.860377e-002
1.592981e+003;4.882810e-002
1.594909e+003;4.919409e-002
1.596838e+003;4.942467e-002
1.598766e+003;4.970084e-002
1.600695e+003;4.997101e-002
1.602623e+003;5.031047e-002
1.604552e+003;5.061308e-002
1.606480e+003;5.083160e-002
1.608409e+003;5.099787e-002
1.610338e+003;5.125715e-002
1.612266e+003;5.183918e-002
1.614195e+003;5.222850e-002
1.616123e+003;5.233680e-002
1.618052e+003;5.305654e-002
1.619980e+003;5.382031e-002
1.621909e+003;5.404941e-002
1.623837e+003;5.415262e-002
1.625766e+003;5.463716e-002
1.627694e+003;5.495851e-002
1.629623e+003;5.510579e-002
1.631552e+003;5.543800e-002
1.633480e+003;5.544922e-002
1.635409e+003;5.534555e-002
1.637337e+003;5.593909e-002
1.639266e+003;5.670560e-002
1.641194e+003;5.715944e-002
1.643123e+003;5.718706e-002
1.645051e+003;5.703488e-002
1.646980e+003;5.726119e-002
1.648909e+003;5.780553e-002
1.650837e+003;5.753604e-002
1.652766e+003;5.689944e-002
1.654694e+003;5.754825e-002
1.656623e+003;5.828219e-002
1.658551e+003;5.822061e-002
1.660480e+003;5.792182e-002
1.662408e+003;5.734376e-002
1.664337e+003;5.695909e-002
1.666266e+003;5.650981e-002
1.668194e+003;5.569260e-002
1.670123e+003;5.520553e-002
1.672051e+003;5.524571e-002
1.673980e+003;5.491486e-002
1.675908e+003;5.437225e-002
1.677837e+003;5.390290e-002
1.679765e+003;5.321524e-002
1.681694e+003;5.253917e-002
1.683622e+003;5.186076e-002
1.685551e+003;5.171902e-002
1.687479e+003;5.171047e-002
1.689408e+003;5.127680e-002
1.691337e+003;5.103502e-002
1.693265e+003;5.094608e-002
1.695194e+003;5.034753e-002
1.697122e+003;5.025813e-002
1.699051e+003;5.001726e-002
1.700979e+003;4.986846e-002
1.702908e+003;5.049854e-002
1.704836e+003;5.076914e-002
1.706765e+003;5.099411e-002
1.708693e+003;5.110218e-002
1.710622e+003;5.088200e-002
1.712551e+003;5.075987e-002
1.714479e+003;5.023020e-002
1.716408e+003;4.906984e-002
1.718336e+003;4.875114e-002
1.720265e+003;4.919398e-002
1.722193e+003;4.927106e-002
1.724122e+003;4.926531e-002
1.726050e+003;4.914081e-002
1.727979e+003;4.879474e-002
1.729908e+003;4.881909e-002
1.731836e+003;4.850161e-002
1.733765e+003;4.806510e-002
1.735693e+003;4.861982e-002
1.737622e+003;4.909246e-002
1.739550e+003;4.881101e-002
1.741479e+003;4.835096e-002
1.743407e+003;4.763480e-002
1.745336e+003;4.638842e-002
1.747265e+003;4.475204e-002
1.749193e+003;4.300437e-002
1.751122e+003;4.139175e-002
1.753050e+003;4.008649e-002
1.754979e+003;3.863189e-002
1.756907e+003;3.723675e-002
1.758836e+003;3.607440e-002
1.760764e+003;3.474763e-002
1.762693e+003;3.349452e-002
1.764621e+003;3.255332e-002
1.766550e+003;3.171604e-002
1.768479e+003;3.131918e-002
1.770407e+003;3.086530e-002
1.772336e+003;3.018863e-002
1.774264e+003;3.007825e-002
1.776193e+003;2.999307e-002
1.778121e+003;2.955007e-002
1.780050e+003;2.910668e-002
1.781978e+003;2.870681e-002
1.783907e+003;2.827849e-002
1.785835e+003;2.799660e-002
1.787764e+003;2.775942e-002
1.789693e+003;2.720121e-002
1.791621e+003;2.634289e-002
1.793550e+003;2.609817e-002
1.795478e+003;2.619846e-002
1.797407e+003;2.571664e-002
1.799335e+003;2.524423e-002
1.801264e+003;2.500796e-002
1.803192e+003;2.466056e-002
1.805121e+003;2.426932e-002
1.807049e+003;2.405581e-002
1.808978e+003;2.389135e-002
1.810907e+003;2.377370e-002
1.812835e+003;2.378784e-002
1.814764e+003;2.381441e-002
1.816692e+003;2.354005e-002
1.818621e+003;2.333326e-002
1.820549e+003;2.318288e-002
1.822478e+003;2.319175e-002
1.824406e+003;2.338340e-002
1.826335e+003;2.333235e-002
1.828264e+003;2.322901e-002
1.830192e+003;2.342862e-002
1.832121e+003;2.334029e-002
1.834049e+003;2.305372e-002
1.835978e+003;2.312346e-002
1.837906e+003;2.305159e-002
1.839835e+003;2.278584e-002
1.841763e+003;2.251695e-002
1.843692e+003;2.229865e-002
1.845620e+003;2.257453e-002
1.847549e+003;2.276562e-002
1.849478e+003;2.260053e-002
1.851406e+003;2.247493e-002
1.853335e+003;2.234947e-002
1.855263e+003;2.245270e-002
1.857192e+003;2.228836e-002
1.859120e+003;2.193720e-002
1.861049e+003;2.180587e-002
1.862977e+003;2.178461e-002
1.864906e+003;2.173473e-002
1.866834e+003;2.167903e-002
1.868763e+003;2.155871e-002
1.870692e+003;2.151341e-002
1.872620e+003;2.158532e-002
1.874549e+003;2.169063e-002
1.876477e+003;2.159984e-002
1.878406e+003;2.151345e-002
1.880334e+003;2.144570e-002
1.882263e+003;2.139063e-002
1.884191e+003;2.160708e-002
1.886120e+003;2.175065e-002
1.888048e+003;2.160053e-002
1.889977e+003;2.182653e-002
1.891906e+003;2.205435e-002
1.893834e+003;2.193288e-002
1.895763e+003;2.174243e-002
1.897691e+003;2.159656e-002
1.899620e+003;2.167862e-002
1.901548e+003;2.176155e-002
1.903477e+003;2.164250e-002
1.905405e+003;2.134880e-002
1.907334e+003;2.115860e-002
1.909262e+003;2.125672e-002
1.911191e+003;2.137486e-002
1.913120e+003;2.140828e-002
1.915048e+003;2.132064e-002
1.916977e+003;2.128873e-002
1.918905e+003;2.132436e-002
1.920834e+003;2.101491e-002
1.922762e+003;2.097245e-002
1.924691e+003;2.116243e-002
1.926619e+003;2.101384e-002
1.928548e+003;2.075365e-002
1.930477e+003;2.050480e-002
1.932405e+003;2.029730e-002
1.934334e+003;2.015254e-002
1.936262e+003;2.003396e-002
1.938191e+003;1.995076e-002
1.940119e+003;2.001078e-002
1.942048e+003;1.992804e-002
1.943976e+003;1.987365e-002
1.945905e+003;1.970476e-002
1.947833e+003;1.979197e-002
1.949762e+003;2.000305e-002
1.951691e+003;1.996710e-002
1.953619e+003;1.984382e-002
1.955548e+003;1.973344e-002
1.957476e+003;1.963071e-002
1.959405e+003;1.966254e-002
1.961333e+003;1.979440e-002
1.963262e+003;1.970407e-002
1.965190e+003;1.963955e-002
1.967119e+003;1.943430e-002
1.969047e+003;1.924224e-002
1.970976e+003;1.923019e-002
1.972905e+003;1.927331e-002
1.974833e+003;1.937426e-002
1.976762e+003;1.956794e-002
1.978690e+003;1.960191e-002
1.980619e+003;1.934266e-002
1.982547e+003;1.927363e-002
1.984476e+003;1.929347e-002
1.986404e+003;1.934228e-002
1.988333e+003;1.943157e-002
1.990261e+003;1.948407e-002
1.992190e+003;1.961473e-002
1.994119e+003;1.955632e-002
1.996047e+003;1.936452e-002
1.997976e+003;1.933625e-002
1.999904e+003;1.946133e-002
2.001833e+003;1.937790e-002
2.003761e+003;1.929236e-002
2.005690e+003;1.914902e-002
2.007618e+003;1.916259e-002
2.009547e+003;1.932787e-002
2.011476e+003;1.947848e-002
2.013404e+003;1.933456e-002
2.015333e+003;1.922382e-002
2.017261e+003;1.921284e-002
2.019190e+003;1.909483e-002
2.021118e+003;1.913880e-002
2.023047e+003;1.897491e-002
2.024975e+003;1.868432e-002
2.026904e+003;1.868605e-002
2.028833e+003;1.876084e-002
2.030761e+003;1.865309e-002
2.032690e+003;1.861608e-002
2.034618e+003;1.875804e-002
2.036547e+003;1.878866e-002
2.038475e+003;1.870777e-002
2.040404e+003;1.877278e-002
2.042332e+003;1.893867e-002
2.044261e+003;1.885232e-002
2.046189e+003;1.883654e-002
2.048118e+003;1.877783e-002
2.050047e+003;1.865703e-002
2.051975e+003;1.876472e-002
2.053904e+003;1.887707e-002
2.055832e+003;1.882153e-002
2.057761e+003;1.863700e-002
2.059689e+003;1.859000e-002
2.061618e+003;1.868882e-002
2.063546e+003;1.848592e-002
2.065475e+003;1.823218e-002
2.067404e+003;1.826867e-002
2.069332e+003;1.843717e-002
2.071260e+003;1.856766e-002
2.073189e+003;1.865997e-002
2.075118e+003;1.873880e-002
2.077046e+003;1.872019e-002
2.078975e+003;1.893808e-002
2.080903e+003;1.902251e-002
2.082832e+003;1.901132e-002
2.084760e+003;1.900174e-002
2.086689e+003;1.903884e-002
2.088617e+003;1.907953e-002
2.090546e+003;1.910265e-002
2.092475e+003;1.913641e-002
2.094403e+003;1.904286e-002
2.096332e+003;1.890223e-002
2.098260e+003;1.888091e-002
2.100189e+003;1.904885e-002
2.102117e+003;1.923369e-002
2.104046e+003;1.930781e-002
2.105974e+003;1.940056e-002
2.107903e+003;1.930670e-002
2.109832e+003;1.908953e-002
2.111760e+003;1.917918e-002
2.113688e+003;1.943881e-002
2.115617e+003;1.940884e-002
2.117546e+003;1.931166e-002
2.119474e+003;1.938126e-002
2.121403e+003;1.959470e-002
2.123331e+003;1.993494e-002
2.125260e+003;2.017920e-002
2.127188e+003;2.054645e-002
2.129117e+003;2.100591e-002
2.131045e+003;2.117544e-002
2.132974e+003;2.102378e-002
2.134903e+003;2.101370e-002
2.136831e+003;2.100333e-002
2.138760e+003;2.088212e-002
2.140688e+003;2.064686e-002
2.142617e+003;2.051483e-002
2.144545e+003;2.037890e-002
2.146474e+003;2.029827e-002
2.148402e+003;2.030278e-002
2.150331e+003;2.041678e-002
2.152260e+003;2.054440e-002
2.154188e+003;2.059748e-002
2.156117e+003;2.068073e-002
2.158045e+003;2.056448e-002
2.159974e+003;2.049576e-002
2.161902e+003;2.082292e-002
2.163831e+003;2.115126e-002
2.165759e+003;2.112538e-002
2.167688e+003;2.125344e-002
2.169616e+003;2.151341e-002
2.171545e+003;2.174243e-002
2.173474e+003;2.162798e-002
2.175402e+003;2.132409e-002
2.177331e+003;2.134841e-002
2.179259e+003;2.144076e-002
2.181188e+003;2.161499e-002
2.183116e+003;2.187311e-002
2.185045e+003;2.183538e-002
2.186973e+003;2.157550e-002
2.188902e+003;2.138196e-002
2.190831e+003;2.154482e-002
2.192759e+003;2.192800e-002
2.194688e+003;2.192518e-002
2.196616e+003;2.165904e-002
2.198545e+003;2.150405e-002
2.200473e+003;2.129642e-002
2.202402e+003;2.114333e-002
2.204330e+003;2.118678e-002
2.206259e+003;2.087743e-002
2.208188e+003;2.070968e-002
2.210116e+003;2.099228e-002
2.212044e+003;2.107174e-002
2.213973e+003;2.072240e-002
2.215902e+003;2.065283e-002
2.217830e+003;2.077280e-002
2.219759e+003;2.090705e-002
2.221687e+003;2.095562e-002
2.223616e+003;2.081506e-002
2.225544e+003;2.094982e-002
2.227473e+003;2.121628e-002
2.229401e+003;2.153340e-002
2.231330e+003;2.175072e-002
2.233259e+003;2.169063e-002
2.235187e+003;2.135551e-002
2.237116e+003;2.106590e-002
2.239044e+003;2.106587e-002
2.240973e+003;2.109731e-002
2.242901e+003;2.093706e-002
2.244830e+003;2.085723e-002
2.246758e+003;2.106684e-002
2.248687e+003;2.146955e-002
2.250615e+003;2.171265e-002
2.252544e+003;2.188726e-002
2.254473e+003;2.198798e-002
2.256401e+003;2.204208e-002
2.258330e+003;2.215810e-002
2.260258e+003;2.183196e-002
2.262187e+003;2.140334e-002
2.264115e+003;2.155784e-002
2.266044e+003;2.172780e-002
2.267972e+003;2.147717e-002
2.269901e+003;2.121896e-002
2.271830e+003;2.115422e-002
2.273758e+003;2.124022e-002
2.275687e+003;2.115495e-002
2.277615e+003;2.092993e-002
2.279544e+003;2.105355e-002
2.281472e+003;2.112395e-002
2.283401e+003;2.102580e-002
2.285329e+003;2.100222e-002
2.287258e+003;2.090069e-002
2.289187e+003;2.085448e-002
2.291115e+003;2.058942e-002
2.293043e+003;2.035771e-002
2.294972e+003;2.054811e-002
2.296901e+003;2.052609e-002
2.298829e+003;2.042158e-002
2.300758e+003;2.063254e-002
2.302686e+003;2.066242e-002
2.304615e+003;2.074760e-002
2.306543e+003;2.088091e-002
2.308472e+003;2.076206e-002
2.310400e+003;2.065610e-002
2.312329e+003;2.053283e-002
2.314258e+003;2.072612e-002
2.316186e+003;2.106392e-002
2.318115e+003;2.113088e-002
2.320043e+003;2.106931e-002
2.321972e+003;2.094255e-002
2.323900e+003;2.119607e-002
2.325829e+003;2.162491e-002
2.327757e+003;2.183325e-002
2.329686e+003;2.192431e-002
2.331615e+003;2.210835e-002
2.333543e+003;2.225474e-002
2.335472e+003;2.234103e-002
2.337400e+003;2.240885e-002
2.339329e+003;2.252417e-002
2.341257e+003;2.264758e-002
2.343186e+003;2.276318e-002
2.345114e+003;2.271109e-002
2.347043e+003;2.274733e-002
2.348971e+003;2.306769e-002
2.350900e+003;2.316327e-002
2.352829e+003;2.296879e-002
2.354757e+003;2.317714e-002
2.356686e+003;2.347201e-002
2.358614e+003;2.340431e-002
2.360543e+003;2.338379e-002
2.362471e+003;2.346145e-002
2.364400e+003;2.337302e-002
2.366328e+003;2.314845e-002
2.368257e+003;2.303985e-002
2.370186e+003;2.337134e-002
2.372114e+003;2.349912e-002
2.374042e+003;2.339197e-002
2.375971e+003;2.331267e-002
2.377900e+003;2.332760e-002
2.379828e+003;2.358839e-002
2.381757e+003;2.374346e-002
2.383685e+003;2.375176e-002
2.385614e+003;2.348884e-002
2.387542e+003;2.315114e-002
2.389471e+003;2.305284e-002
2.391399e+003;2.345722e-002
2.393328e+003;2.386558e-002
2.395257e+003;2.416737e-002
2.397185e+003;2.416530e-002
2.399114e+003;2.386569e-002
2.401042e+003;2.389208e-002
2.402971e+003;2.413244e-002
2.404899e+003;2.437287e-002
2.406828e+003;2.445601e-002
2.408756e+003;2.427776e-002
2.410685e+003;2.412123e-002
2.412614e+003;2.428631e-002
2.414542e+003;2.426259e-002
2.416471e+003;2.406733e-002
2.418399e+003;2.412771e-002
2.420328e+003;2.435997e-002
2.422256e+003;2.485369e-002
2.424185e+003;2.522179e-002
2.426113e+003;2.506103e-002
2.428042e+003;2.472870e-002
2.429970e+003;2.465393e-002
2.431899e+003;2.482605e-002
2.433828e+003;2.490538e-002
2.435756e+003;2.457615e-002
2.437685e+003;2.417749e-002
2.439613e+003;2.414046e-002
2.441542e+003;2.402240e-002
2.443470e+003;2.398851e-002
2.445399e+003;2.383684e-002
2.447327e+003;2.361662e-002
2.449256e+003;2.374626e-002
2.451185e+003;2.381605e-002
2.453113e+003;2.365399e-002
2.455042e+003;2.342959e-002
2.456970e+003;2.336546e-002
2.458899e+003;2.351640e-002
2.460827e+003;2.358465e-002
2.462756e+003;2.349769e-002
2.464684e+003;2.328299e-002
2.466613e+003;2.347765e-002
2.468542e+003;2.375519e-002
2.470470e+003;2.367904e-002
2.472398e+003;2.389859e-002
2.474327e+003;2.390644e-002
2.476256e+003;2.383488e-002
2.478184e+003;2.421585e-002
2.480113e+003;2.448500e-002
2.482041e+003;2.437918e-002
2.483970e+003;2.465863e-002
2.485898e+003;2.464614e-002
2.487827e+003;2.434795e-002
2.489755e+003;2.452903e-002
2.491684e+003;2.473365e-002
2.493613e+003;2.468525e-002
2.495541e+003;2.442288e-002
2.497470e+003;2.425846e-002
2.499398e+003;2.444858e-002
2.501327e+003;2.449835e-002
2.503255e+003;2.437805e-002
2.505184e+003;2.419143e-002
2.507112e+003;2.419532e-002
2.509041e+003;2.463973e-002
2.510969e+003;2.498714e-002
2.512898e+003;2.502986e-002
2.514827e+003;2.543577e-002
2.516755e+003;2.600634e-002
2.518684e+003;2.620740e-002
2.520612e+003;2.648391e-002
2.522541e+003;2.694801e-002
2.524469e+003;2.717105e-002
2.526398e+003;2.722852e-002
2.528326e+003;2.736634e-002
2.530255e+003;2.736612e-002
2.532184e+003;2.738059e-002
2.534112e+003;2.773767e-002
2.536041e+003;2.792529e-002
2.537969e+003;2.801749e-002
2.539898e+003;2.822885e-002
2.541826e+003;2.831969e-002
2.543755e+003;2.838460e-002
2.545683e+003;2.878845e-002
2.547612e+003;2.954883e-002
2.549541e+003;3.007186e-002
2.551469e+003;3.027392e-002
2.553397e+003;3.043321e-002
2.555326e+003;3.084036e-002
2.557255e+003;3.124391e-002
2.559183e+003;3.128663e-002
2.561112e+003;3.168432e-002
2.563040e+003;3.213963e-002
2.564969e+003;3.224165e-002
2.566897e+003;3.277236e-002
2.568826e+003;3.371372e-002
2.570754e+003;3.421483e-002
2.572683e+003;3.455216e-002
2.574612e+003;3.503377e-002
2.576540e+003;3.572789e-002
2.578469e+003;3.636310e-002
2.580397e+003;3.698019e-002
2.582326e+003;3.723650e-002
2.584254e+003;3.670799e-002
2.586183e+003;3.597972e-002
2.588111e+003;3.547592e-002
2.590040e+003;3.500443e-002
2.591969e+003;3.470503e-002
2.593897e+003;3.438612e-002
2.595826e+003;3.418583e-002
2.597754e+003;3.408005e-002
2.599683e+003;3.400164e-002
2.601611e+003;3.415855e-002
2.603540e+003;3.427219e-002
2.605468e+003;3.450481e-002
2.607397e+003;3.495907e-002
2.609325e+003;3.543897e-002
2.611254e+003;3.590892e-002
2.613183e+003;3.611746e-002
2.615111e+003;3.612700e-002
2.617040e+003;3.618757e-002
2.618968e+003;3.630020e-002
2.620897e+003;3.615326e-002
2.622825e+003;3.587448e-002
2.624754e+003;3.574743e-002
2.626682e+003;3.549502e-002
2.628611e+003;3.541610e-002
2.630540e+003;3.549351e-002
2.632468e+003;3.530029e-002
2.634396e+003;3.516579e-002
2.636325e+003;3.541261e-002
2.638254e+003;3.553025e-002
2.640182e+003;3.550918e-002
2.642111e+003;3.599887e-002
2.644039e+003;3.677560e-002
2.645968e+003;3.722982e-002
2.647896e+003;3.751846e-002
2.649825e+003;3.769106e-002
2.651753e+003;3.777809e-002
2.653682e+003;3.823828e-002
2.655611e+003;3.874986e-002
2.657539e+003;3.916750e-002
2.659468e+003;3.949760e-002
2.661396e+003;3.948769e-002
2.663325e+003;3.955000e-002
2.665253e+003;3.982091e-002
2.667182e+003;3.989540e-002
2.669110e+003;3.989921e-002
2.671039e+003;3.986427e-002
2.672968e+003;4.002094e-002
2.674896e+003;4.053463e-002
2.676825e+003;4.082842e-002
2.678753e+003;4.071687e-002
2.680682e+003;4.065872e-002
2.682610e+003;4.052793e-002
2.684539e+003;4.053637e-002
2.686467e+003;4.067673e-002
2.688396e+003;4.095577e-002
2.690324e+003;4.110089e-002
2.692253e+003;4.082183e-002
2.694182e+003;4.078136e-002
2.696110e+003;4.097943e-002
2.698039e+003;4.120467e-002
2.699967e+003;4.150708e-002
2.701896e+003;4.213003e-002
2.703824e+003;4.318073e-002
2.705753e+003;4.394678e-002
2.707681e+003;4.458337e-002
2.709610e+003;4.538383e-002
2.711539e+003;4.601406e-002
2.713467e+003;4.715390e-002
2.715396e+003;4.890137e-002
2.717324e+003;5.069399e-002
2.719253e+003;5.226998e-002
2.721181e+003;5.375899e-002
2.723110e+003;5.436556e-002
2.725038e+003;5.377504e-002
2.726967e+003;5.257855e-002
2.728896e+003;5.138091e-002
2.730824e+003;5.027208e-002
2.732752e+003;4.903489e-002
2.734681e+003;4.765569e-002
2.736610e+003;4.672409e-002
2.738538e+003;4.603985e-002
2.740467e+003;4.546766e-002
2.742395e+003;4.459567e-002
2.744324e+003;4.365079e-002
2.746252e+003;4.309162e-002
2.748181e+003;4.285780e-002
2.750109e+003;4.309561e-002
2.752038e+003;4.315940e-002
2.753967e+003;4.293406e-002
2.755895e+003;4.291167e-002
2.757824e+003;4.304454e-002
2.759752e+003;4.367897e-002
2.761681e+003;4.443881e-002
2.763609e+003;4.500438e-002
2.765538e+003;4.537761e-002
2.767466e+003;4.565953e-002
2.769395e+003;4.583783e-002
2.771323e+003;4.598680e-002
2.773252e+003;4.649826e-002
2.775181e+003;4.703599e-002
2.777109e+003;4.739061e-002
2.779038e+003;4.844056e-002
2.780966e+003;4.994009e-002
2.782895e+003;5.115806e-002
2.784823e+003;5.232880e-002
2.786752e+003;5.366064e-002
2.788680e+003;5.548066e-002
2.790609e+003;5.727926e-002
2.792538e+003;5.851267e-002
2.794466e+003;5.982720e-002
2.796395e+003;6.105015e-002
2.798323e+003;6.212230e-002
2.800252e+003;6.387874e-002
2.802180e+003;6.569123e-002
2.804109e+003;6.779306e-002
2.806037e+003;7.014451e-002
2.807966e+003;7.176416e-002
2.809895e+003;7.314079e-002
2.811823e+003;7.519231e-002
2.813751e+003;7.756625e-002
2.815680e+003;7.969051e-002
2.817609e+003;8.136609e-002
2.819537e+003;8.347248e-002
2.821466e+003;8.635468e-002
2.823394e+003;8.997278e-002
2.825323e+003;9.439539e-002
2.827251e+003;1.001515e-001
2.829180e+003;1.078459e-001
2.831108e+003;1.167119e-001
2.833037e+003;1.257566e-001
2.834966e+003;1.326514e-001
2.836894e+003;1.360890e-001
2.838823e+003;1.358327e-001
2.840751e+003;1.327205e-001
2.842680e+003;1.280955e-001
2.844608e+003;1.230852e-001
2.846537e+003;1.182340e-001
2.848465e+003;1.143390e-001
2.850394e+003;1.118219e-001
2.852323e+003;1.099867e-001
2.854251e+003;1.093553e-001
2.856180e+003;1.105551e-001
2.858108e+003;1.135824e-001
2.860037e+003;1.186375e-001
2.861965e+003;1.264420e-001
2.863894e+003;1.346777e-001
2.865822e+003;1.408945e-001
2.867751e+003;1.442410e-001
2.869679e+003;1.449430e-001
2.871608e+003;1.445870e-001
2.873536e+003;1.446778e-001
2.875465e+003;1.447139e-001
2.877394e+003;1.440175e-001
2.879322e+003;1.426571e-001
2.881251e+003;1.407695e-001
2.883179e+003;1.399693e-001
2.885108e+003;1.402395e-001
2.887036e+003;1.411389e-001
2.888965e+003;1.424391e-001
2.890893e+003;1.443418e-001
2.892822e+003;1.473845e-001
2.894750e+003;1.516576e-001
2.896679e+003;1.564284e-001
2.898608e+003;1.615323e-001
2.900536e+003;1.666221e-001
2.902465e+003;1.714198e-001
2.904393e+003;1.765687e-001
2.906322e+003;1.816499e-001
2.908250e+003;1.859096e-001
2.910179e+003;1.894656e-001
2.912107e+003;1.921709e-001
2.914036e+003;1.941550e-001
2.915965e+003;1.956410e-001
2.917893e+003;1.951720e-001
2.919822e+003;1.920042e-001
2.921750e+003;1.867912e-001
2.923679e+003;1.810993e-001
2.925607e+003;1.750587e-001
2.927536e+003;1.677339e-001
2.929464e+003;1.599407e-001
2.931393e+003;1.523159e-001
2.933322e+003;1.445957e-001
2.935250e+003;1.376666e-001
2.937178e+003;1.329510e-001
2.939107e+003;1.306954e-001
2.941036e+003;1.320129e-001
2.942964e+003;1.375106e-001
2.944893e+003;1.457600e-001
2.946821e+003;1.544900e-001
2.948750e+003;1.615045e-001
2.950678e+003;1.649624e-001
2.952607e+003;1.648778e-001
2.954535e+003;1.619989e-001
2.956464e+003;1.577528e-001
2.958393e+003;1.523345e-001
2.960321e+003;1.462044e-001
2.962250e+003;1.404194e-001
2.964178e+003;1.337838e-001
2.966107e+003;1.261025e-001
2.968035e+003;1.186780e-001
2.969964e+003;1.117821e-001
2.971892e+003;1.052606e-001
2.973821e+003;9.959494e-002
2.975750e+003;9.471621e-002
2.977678e+003;9.018063e-002
2.979607e+003;8.584811e-002
2.981535e+003;8.224109e-002
2.983464e+003;7.906789e-002
2.985392e+003;7.619586e-002
2.987321e+003;7.387269e-002
2.989249e+003;7.148877e-002
2.991178e+003;6.915965e-002
2.993106e+003;6.710345e-002
2.995035e+003;6.515863e-002
2.996964e+003;6.312127e-002
2.998892e+003;6.098193e-002
3.000821e+003;5.920650e-002
3.002749e+003;5.751746e-002
3.004678e+003;5.579830e-002
3.006606e+003;5.423111e-002
3.008535e+003;5.281486e-002
3.010463e+003;5.152732e-002
3.012392e+003;4.978440e-002
3.014321e+003;4.824439e-002
3.016249e+003;4.751331e-002
3.018177e+003;4.641780e-002
3.020106e+003;4.545917e-002
3.022035e+003;4.464025e-002
3.023963e+003;4.371861e-002
3.025892e+003;4.276624e-002
3.027820e+003;4.196472e-002
3.029749e+003;4.135305e-002
3.031677e+003;4.073805e-002
3.033606e+003;4.015085e-002
3.035534e+003;3.979516e-002
3.037463e+003;3.949589e-002
3.039392e+003;3.913070e-002
3.041320e+003;3.864460e-002
3.043249e+003;3.804887e-002
3.045177e+003;3.791843e-002
3.047106e+003;3.803874e-002
3.049034e+003;3.803049e-002
3.050963e+003;3.765912e-002
3.052891e+003;3.743755e-002
3.054820e+003;3.719271e-002
3.056749e+003;3.690858e-002
3.058677e+003;3.704020e-002
3.060606e+003;3.696753e-002
3.062534e+003;3.635817e-002
3.064463e+003;3.615275e-002
3.066391e+003;3.616301e-002
3.068320e+003;3.606468e-002
3.070248e+003;3.600193e-002
3.072177e+003;3.599693e-002
3.074105e+003;3.587599e-002
3.076034e+003;3.578755e-002
3.077963e+003;3.557532e-002
3.079891e+003;3.525971e-002
3.081820e+003;3.515673e-002
3.083748e+003;3.531412e-002
3.085677e+003;3.562139e-002
3.087605e+003;3.567706e-002
3.089534e+003;3.516672e-002
3.091462e+003;3.506570e-002
3.093391e+003;3.525436e-002
3.095320e+003;3.482553e-002
3.097248e+003;3.476375e-002
3.099177e+003;3.525910e-002
3.101105e+003;3.537365e-002
3.103034e+003;3.535808e-002
3.104962e+003;3.544874e-002
3.106891e+003;3.547557e-002
3.108819e+003;3.552278e-002
3.110748e+003;3.560901e-002
3.112677e+003;3.574084e-002
3.114605e+003;3.568681e-002
3.116533e+003;3.558790e-002
3.118462e+003;3.525637e-002
3.120391e+003;3.530108e-002
3.122319e+003;3.592731e-002
3.124248e+003;3.621051e-002
3.126176e+003;3.590158e-002
3.128105e+003;3.590018e-002
3.130033e+003;3.634340e-002
3.131962e+003;3.631112e-002
3.133890e+003;3.634840e-002
3.135819e+003;3.657604e-002
3.137748e+003;3.638043e-002
3.139676e+003;3.643347e-002
3.141605e+003;3.697279e-002
3.143533e+003;3.692835e-002
3.145462e+003;3.681693e-002
3.147390e+003;3.678177e-002
3.149319e+003;3.679248e-002
3.151247e+003;3.703897e-002
3.153176e+003;3.732846e-002
3.155104e+003;3.765044e-002
3.157033e+003;3.782978e-002
3.158962e+003;3.766436e-002
3.160890e+003;3.749148e-002
3.162819e+003;3.722166e-002
3.164747e+003;3.717293e-002
3.166676e+003;3.749618e-002
3.168604e+003;3.771170e-002
3.170533e+003;3.757818e-002
3.172461e+003;3.736142e-002
3.174390e+003;3.747295e-002
3.176319e+003;3.762425e-002
3.178247e+003;3.748538e-002
3.180176e+003;3.738519e-002
3.182104e+003;3.785241e-002
3.184033e+003;3.817479e-002
3.185961e+003;3.784771e-002
3.187890e+003;3.776139e-002
3.189818e+003;3.846876e-002
3.191747e+003;3.878971e-002
3.193676e+003;3.870650e-002
3.195604e+003;3.867510e-002
3.197532e+003;3.856221e-002
3.199461e+003;3.840614e-002
3.201390e+003;3.851413e-002
3.203318e+003;3.885768e-002
3.205247e+003;3.884736e-002
3.207175e+003;3.852325e-002
3.209104e+003;3.861211e-002
3.211032e+003;3.845403e-002
3.212961e+003;3.825507e-002
3.214889e+003;3.793199e-002
3.216818e+003;3.758226e-002
3.218747e+003;3.756593e-002
3.220675e+003;3.766230e-002
3.222604e+003;3.744279e-002
3.224532e+003;3.714251e-002
3.226461e+003;3.711352e-002
3.228389e+003;3.714778e-002
3.230318e+003;3.710151e-002
3.232246e+003;3.716171e-002
3.234175e+003;3.712118e-002
3.236104e+003;3.647578e-002
3.238032e+003;3.640918e-002
3.239961e+003;3.675764e-002
3.241889e+003;3.673666e-002
3.243818e+003;3.668322e-002
3.245746e+003;3.677762e-002
3.247675e+003;3.663101e-002
3.249603e+003;3.648727e-002
3.251532e+003;3.662759e-002
3.253460e+003;3.639600e-002
3.255389e+003;3.593264e-002
3.257318e+003;3.584656e-002
3.259246e+003;3.610140e-002
3.261175e+003;3.674138e-002
3.263103e+003;3.696515e-002
3.265032e+003;3.687099e-002
3.266960e+003;3.653030e-002
3.268889e+003;3.630064e-002
3.270817e+003;3.638576e-002
3.272746e+003;3.662878e-002
3.274675e+003;3.678386e-002
3.276603e+003;3.671376e-002
3.278531e+003;3.679933e-002
3.280460e+003;3.724102e-002
3.282389e+003;3.746114e-002
3.284317e+003;3.715286e-002
3.286246e+003;3.688120e-002
3.288174e+003;3.695667e-002
3.290103e+003;3.670929e-002
3.292031e+003;3.662327e-002
3.293960e+003;3.654458e-002
3.295888e+003;3.665928e-002
3.297817e+003;3.713218e-002
3.299746e+003;3.691771e-002
3.301674e+003;3.591634e-002
3.303603e+003;3.599441e-002
3.305531e+003;3.681769e-002
3.307460e+003;3.654447e-002
3.309388e+003;3.635301e-002
3.311317e+003;3.648774e-002
3.313245e+003;3.681650e-002
3.315174e+003;3.697795e-002
3.317103e+003;3.706455e-002
3.319031e+003;3.706134e-002
3.320960e+003;3.661627e-002
3.322888e+003;3.598282e-002
3.324817e+003;3.598480e-002
3.326745e+003;3.608794e-002
3.328674e+003;3.591522e-002
3.330602e+003;3.564624e-002
3.332531e+003;3.536836e-002
3.334459e+003;3.558502e-002
3.336388e+003;3.613010e-002
3.338317e+003;3.613327e-002
3.340245e+003;3.586577e-002
3.342174e+003;3.572487e-002
3.344102e+003;3.584256e-002
3.346031e+003;3.600348e-002
3.347959e+003;3.560401e-002
3.349888e+003;3.538821e-002
3.351816e+003;3.562469e-002
3.353745e+003;3.582468e-002
3.355674e+003;3.545457e-002
3.357602e+003;3.482686e-002
3.359531e+003;3.455959e-002
3.361459e+003;3.457907e-002
3.363388e+003;3.486000e-002
3.365316e+003;3.538990e-002
3.367245e+003;3.519582e-002
3.369173e+003;3.473809e-002
3.371102e+003;3.479886e-002
3.373031e+003;3.479847e-002
3.374959e+003;3.465579e-002
3.376887e+003;3.480374e-002
3.378816e+003;3.459723e-002
3.380745e+003;3.415073e-002
3.382673e+003;3.367276e-002
3.384602e+003;3.318561e-002
3.386530e+003;3.334637e-002
3.388459e+003;3.328731e-002
3.390387e+003;3.317377e-002
3.392316e+003;3.345755e-002
3.394244e+003;3.335560e-002
3.396173e+003;3.328019e-002
3.398102e+003;3.316687e-002
3.400030e+003;3.272777e-002
3.401959e+003;3.262621e-002
3.403887e+003;3.301941e-002
3.405816e+003;3.328212e-002
3.407744e+003;3.302956e-002
3.409673e+003;3.284762e-002
3.411601e+003;3.287682e-002
3.413530e+003;3.259706e-002
3.415458e+003;3.254803e-002
3.417387e+003;3.264439e-002
3.419316e+003;3.246829e-002
3.421244e+003;3.195389e-002
3.423173e+003;3.228459e-002
3.425101e+003;3.276911e-002
3.427030e+003;3.216950e-002
3.428958e+003;3.146675e-002
3.430887e+003;3.134635e-002
3.432815e+003;3.099043e-002
3.434744e+003;3.124241e-002
3.436673e+003;3.126064e-002
3.438601e+003;3.069376e-002
3.440530e+003;3.039696e-002
3.442458e+003;3.037013e-002
3.444387e+003;3.033442e-002
3.446315e+003;3.012683e-002
3.448244e+003;3.007871e-002
3.450172e+003;2.991671e-002
3.452101e+003;2.966596e-002
3.454030e+003;2.971527e-002
3.455958e+003;2.944397e-002
3.457886e+003;2.918857e-002
3.459815e+003;2.881330e-002
3.461744e+003;2.841962e-002
3.463672e+003;2.835619e-002
3.465601e+003;2.818002e-002
3.467529e+003;2.829950e-002
3.469458e+003;2.812897e-002
3.471386e+003;2.771164e-002
3.473315e+003;2.767343e-002
3.475243e+003;2.742870e-002
3.477172e+003;2.687017e-002
3.479101e+003;2.672388e-002
3.481029e+003;2.679637e-002
3.482958e+003;2.699864e-002
3.484886e+003;2.679654e-002
3.486815e+003;2.635510e-002
3.488743e+003;2.631339e-002
3.490672e+003;2.645810e-002
3.492600e+003;2.629388e-002
3.494529e+003;2.595555e-002
3.496458e+003;2.584473e-002
3.498386e+003;2.581160e-002
3.500315e+003;2.562092e-002
3.502243e+003;2.556030e-002
3.504172e+003;2.579525e-002
3.506100e+003;2.599350e-002
3.508029e+003;2.551640e-002
3.509957e+003;2.464095e-002
3.511886e+003;2.420576e-002
3.513814e+003;2.453450e-002
3.515743e+003;2.482292e-002
3.517672e+003;2.481286e-002
3.519600e+003;2.461574e-002
3.521529e+003;2.441861e-002
3.523457e+003;2.455262e-002
3.525386e+003;2.460094e-002
3.527314e+003;2.410011e-002
3.529243e+003;2.393998e-002
3.531171e+003;2.416050e-002
3.533100e+003;2.384909e-002
3.535029e+003;2.337225e-002
3.536957e+003;2.316907e-002
3.538885e+003;2.314891e-002
3.540814e+003;2.310973e-002
3.542743e+003;2.270613e-002
3.544671e+003;2.266909e-002
3.546600e+003;2.272104e-002
3.548528e+003;2.219838e-002
3.550457e+003;2.162693e-002
3.552385e+003;2.146520e-002
3.554314e+003;2.165573e-002
3.556242e+003;2.195299e-002
3.558171e+003;2.209479e-002
3.560100e+003;2.149743e-002
3.562028e+003;2.102455e-002
3.563957e+003;2.120320e-002
3.565885e+003;2.060099e-002
3.567814e+003;2.031365e-002
3.569742e+003;2.064706e-002
3.571671e+003;2.082254e-002
3.573599e+003;2.061294e-002
3.575528e+003;2.041776e-002
3.577457e+003;2.024585e-002
3.579385e+003;1.989457e-002
3.581314e+003;1.937318e-002
3.583242e+003;1.893936e-002
3.585171e+003;1.881440e-002
3.587099e+003;1.865163e-002
3.589028e+003;1.827133e-002
3.590956e+003;1.805588e-002
3.592885e+003;1.843866e-002
3.594813e+003;1.870047e-002
3.596742e+003;1.869051e-002
3.598671e+003;1.860010e-002
3.600599e+003;1.841304e-002
3.602528e+003;1.841304e-002
3.604456e+003;1.806348e-002
3.606385e+003;1.775486e-002
3.608313e+003;1.764308e-002
3.610242e+003;1.763089e-002
3.612170e+003;1.802017e-002
3.614099e+003;1.833886e-002
3.616028e+003;1.794954e-002
3.617956e+003;1.793742e-002
3.619885e+003;1.821252e-002
3.621813e+003;1.817966e-002
3.623742e+003;1.773532e-002
3.625670e+003;1.702834e-002
3.627599e+003;1.657200e-002
3.629527e+003;1.682126e-002
3.631456e+003;1.745757e-002
3.633385e+003;1.768307e-002
3.635313e+003;1.794554e-002
3.637241e+003;1.819054e-002
3.639170e+003;1.780453e-002
3.641099e+003;1.740169e-002
3.643027e+003;1.748464e-002
3.644956e+003;1.747823e-002
3.646884e+003;1.660966e-002
3.648813e+003;1.607642e-002
3.650741e+003;1.636885e-002
3.652670e+003;1.674738e-002
3.654598e+003;1.627420e-002
3.656527e+003;1.600312e-002
3.658456e+003;1.647583e-002
3.660384e+003;1.678909e-002
3.662313e+003;1.625783e-002
3.664241e+003;1.578769e-002
3.666170e+003;1.589313e-002
3.668098e+003;1.587137e-002
3.670027e+003;1.574172e-002
3.671955e+003;1.582979e-002
3.673884e+003;1.607639e-002
3.675813e+003;1.653500e-002
3.677741e+003;1.709161e-002
3.679669e+003;1.720915e-002
3.681598e+003;1.719126e-002
3.683527e+003;1.748081e-002
3.685455e+003;1.739731e-002
3.687384e+003;1.688274e-002
3.689312e+003;1.700653e-002
3.691241e+003;1.716086e-002
3.693169e+003;1.725497e-002
3.695098e+003;1.742380e-002
3.697026e+003;1.733855e-002
3.698955e+003;1.686734e-002
3.700884e+003;1.641767e-002
3.702812e+003;1.694875e-002
3.704741e+003;1.727765e-002
3.706669e+003;1.685580e-002
3.708598e+003;1.652309e-002
3.710526e+003;1.660570e-002
3.712455e+003;1.643808e-002
3.714383e+003;1.653524e-002
3.716312e+003;1.680290e-002
3.718240e+003;1.670158e-002
3.720169e+003;1.605861e-002
3.722098e+003;1.587158e-002
3.724026e+003;1.655792e-002
3.725955e+003;1.692542e-002
3.727883e+003;1.697452e-002
3.729812e+003;1.707500e-002
3.731740e+003;1.655816e-002
3.733669e+003;1.602275e-002
3.735597e+003;1.616590e-002
3.737526e+003;1.683968e-002
3.739455e+003;1.717661e-002
3.741383e+003;1.746253e-002
3.743312e+003;1.742490e-002
3.745240e+003;1.703902e-002
3.747169e+003;1.640016e-002
3.749097e+003;1.613075e-002
3.751026e+003;1.604726e-002
3.752954e+003;1.636358e-002
3.754883e+003;1.711002e-002
3.756812e+003;1.723114e-002
3.758740e+003;1.730124e-002
3.760668e+003;1.770678e-002
3.762597e+003;1.805191e-002
3.764526e+003;1.798746e-002
3.766454e+003;1.815558e-002
3.768383e+003;1.773529e-002
3.770311e+003;1.734441e-002
3.772240e+003;1.754319e-002
3.774168e+003;1.767717e-002
3.776097e+003;1.785287e-002
3.778025e+003;1.778596e-002
3.779954e+003;1.736045e-002
3.781883e+003;1.722542e-002
3.783811e+003;1.716882e-002
3.785740e+003;1.711057e-002
3.787668e+003;1.690196e-002
3.789597e+003;1.704436e-002
3.791525e+003;1.721194e-002
3.793454e+003;1.747406e-002
3.795382e+003;1.818716e-002
3.797311e+003;1.828712e-002
3.799240e+003;1.744163e-002
3.801168e+003;1.690779e-002
3.803097e+003;1.742463e-002
3.805025e+003;1.711091e-002
3.806954e+003;1.684055e-002
3.808882e+003;1.746981e-002
3.810811e+003;1.756465e-002
3.812739e+003;1.703210e-002
3.814668e+003;1.638932e-002
3.816596e+003;1.657331e-002
3.818525e+003;1.716313e-002
3.820454e+003;1.742007e-002
3.822382e+003;1.822309e-002
3.824311e+003;1.888305e-002
3.826239e+003;1.867076e-002
3.828168e+003;1.785870e-002
3.830096e+003;1.702279e-002
3.832025e+003;1.712494e-002
3.833953e+003;1.754957e-002
3.835882e+003;1.762103e-002
3.837811e+003;1.748661e-002
3.839739e+003;1.778838e-002
3.841667e+003;1.803250e-002
3.843596e+003;1.763573e-002
3.845525e+003;1.753473e-002
3.847453e+003;1.795966e-002
3.849382e+003;1.812835e-002
3.851310e+003;1.726059e-002
3.853239e+003;1.661334e-002
3.855167e+003;1.755267e-002
3.857096e+003;1.826494e-002
3.859024e+003;1.783636e-002
3.860953e+003;1.768093e-002
3.862882e+003;1.830402e-002
3.864810e+003;1.863583e-002
3.866739e+003;1.875416e-002
3.868667e+003;1.845674e-002
3.870596e+003;1.878502e-002
3.872524e+003;1.897591e-002
3.874453e+003;1.834342e-002
3.876381e+003;1.830496e-002
3.878310e+003;1.820160e-002
3.880239e+003;1.801250e-002
3.882167e+003;1.819161e-002
3.884096e+003;1.828353e-002
3.886024e+003;1.867688e-002
3.887953e+003;1.878617e-002
3.889881e+003;1.879149e-002
3.891810e+003;1.911200e-002
3.893738e+003;1.886738e-002
3.895667e+003;1.885845e-002
3.897595e+003;1.877039e-002
3.899524e+003;1.838725e-002
3.901453e+003;1.845221e-002
3.903381e+003;1.861940e-002
3.905310e+003;1.846203e-002
3.907238e+003;1.868463e-002
3.909167e+003;1.881077e-002
3.911095e+003;1.855238e-002
3.913024e+003;1.860556e-002
3.914952e+003;1.903241e-002
3.916881e+003;1.884395e-002
3.918810e+003;1.886689e-002
3.920738e+003;1.920172e-002
3.922667e+003;1.943500e-002
3.924595e+003;1.941701e-002
3.926524e+003;1.932777e-002
3.928452e+003;1.954118e-002
3.930381e+003;1.947239e-002
3.932309e+003;1.937710e-002
3.934238e+003;1.919514e-002
3.936167e+003;1.887098e-002
3.938095e+003;1.892624e-002
3.940023e+003;1.955411e-002
3.941952e+003;2.019742e-002
3.943881e+003;2.030837e-002
3.945809e+003;1.958953e-002
3.947738e+003;1.891628e-002
3.949666e+003;1.897643e-002
3.951595e+003;1.947256e-002
3.953523e+003;1.924373e-002
3.955452e+003;1.901229e-002
3.957380e+003;1.944979e-002
3.959309e+003;1.977158e-002
3.961238e+003;1.994369e-002
3.963166e+003;1.976118e-002
3.965095e+003;1.957282e-002
3.967023e+003;1.954409e-002
3.968952e+003;1.939151e-002
3.970880e+003;1.911449e-002
3.972809e+003;1.931571e-002
3.974737e+003;1.992315e-002
3.976666e+003;2.018020e-002
3.978594e+003;1.997106e-002
3.980523e+003;2.015980e-002
3.982452e+003;2.075406e-002
3.984380e+003;2.036174e-002
3.986309e+003;1.999444e-002
3.988237e+003;2.043870e-002
3.990166e+003;2.083815e-002
3.992094e+003;2.123288e-002
3.994023e+003;2.157550e-002
3.995951e+003;2.128448e-002
3.997880e+003;2.096773e-002
3.999809e+003;2.113001e-002
4.001737e+003;0.000000e+000
