3.992094e+002;0.000000e+000
4.011380e+002;0.000000e+000
4.030665e+002;0.000000e+000
4.049951e+002;0.000000e+000
4.069236e+002;0.000000e+000
4.088522e+002;0.000000e+000
4.107807e+002;0.000000e+000
4.127093e+002;0.000000e+000
4.146378e+002;0.000000e+000
4.165664e+002;0.000000e+000
4.184949e+002;0.000000e+000
4.204235e+002;0.000000e+000
4.223520e+002;0.000000e+000
4.242806e+002;0.000000e+000
4.262091e+002;0.000000e+000
4.281377e+002;0.000000e+000
4.300662e+002;0.000000e+000
4.319948e+002;0.000000e+000
4.339233e+002;0.000000e+000
4.358519e+002;0.000000e+000
4.377804e+002;0.000000e+000
4.397090e+002;0.000000e+000
4.416375e+002;0.000000e+000
4.435660e+002;0.000000e+000
4.454946e+002;0.000000e+000
4.474232e+002;0.000000e+000
4.493517e+002;0.000000e+000
4.512802e+002;0.000000e+000
4.532088e+002;0.000000e+000
4.551373e+002;0.000000e+000
4.570659e+002;0.000000e+000
4.589944e+002;0.000000e+000
4.609230e+002;0.000000e+000
4.628515e+002;0.000000e+000
4.647801e+002;0.000000e+000
4.667086e+002;0.000000e+000
4.686372e+002;0.000000e+000
4.705657e+002;0.000000e+000
4.724943e+002;0.000000e+000
4.744228e+002;0.000000e+000
4.763513e+002;0.000000e+000
4.782799e+002;0.000000e+000
4.802085e+002;0.000000e+000
4.821370e+002;0.000000e+000
4.840656e+002;0.000000e+000
4.859941e+002;0.000000e+000
4.879226e+002;0.000000e+000
4.898512e+002;0.000000e+000
4.917798e+002;0.000000e+000
4.937083e+002;0.000000e+000
4.956368e+002;0.000000e+000
4.975654e+002;0.000000e+000
4.994939e+002;0.000000e+000
5.014225e+002;0.000000e+000
5.033510e+002;0.000000e+000
5.052796e+002;0.000000e+000
5.072081e+002;0.000000e+000
5.091367e+002;0.000000e+000
5.110652e+002;0.000000e+000
5.129938e+002;0.000000e+000
5.149223e+002;0.000000e+000
5.168509e+002;0.000000e+000
5.187794e+002;0.000000e+000
5.207079e+002;0.000000e+000
5.226365e+002;0.000000e+000
5.245651e+002;0.000000e+000
5.264936e+002;0.000000e+000
5.284222e+002;0.000000e+000
5.303507e+002;0.000000e+000
5.322792e+002;0.000000e+000
5.342078e+002;0.000000e+000
5.361364e+002;0.000000e+000
5.380649e+002;0.000000e+000
5.399935e+002;0.000000e+000
5.419220e+002;0.000000e+000
5.438505e+002;0.000000e+000
5.457791e+002;0.000000e+000
5.477076e+002;0.000000e+000
5.496362e+002;0.000000e+000
5.515648e+002;0.000000e+000
5.534933e+002;0.000000e+000
5.554218e+002;0.000000e+000
5.573504e+002;0.000000e+000
5.592789e+002;0.000000e+000
5.612075e+002;0.000000e+000
5.631360e+002;0.000000e+000
5.650646e+002;0.000000e+000
5.669931e+002;0.000000e+000
5.689217e+002;0.000000e+000
5.708502e+002;0.000000e+000
5.727787e+002;0.000000e+000
5.747073e+002;0.000000e+000
5.766359e+002;0.000000e+000
5.785644e+002;0.000000e+000
5.804930e+002;0.000000e+000
5.824215e+002;0.000000e+000
5.843500e+002;0.000000e+000
5.862786e+002;0.000000e+000
5.882072e+002;0.000000e+000
5.901357e+002;0.000000e+000
5.920643e+002;0.000000e+000
5.939928e+002;0.000000e+000
5.959213e+002;0.000000e+000
5.978499e+002;0.000000e+000
5.997784e+002;3.806319e-002
6.017070e+002;4.226017e-002
6.036355e+002;4.248063e-002
6.055641e+002;4.032094e-002
6.074926e+002;4.024052e-002
6.094211e+002;4.202428e-002
6.113497e+002;4.189016e-002
6.132783e+002;3.739064e-002
6.152068e+002;3.692161e-002
6.171354e+002;4.149352e-002
6.190639e+002;4.661931e-002
6.209924e+002;4.562361e-002
6.229210e+002;4.463764e-002
6.248495e+002;4.479263e-002
6.267781e+002;4.654042e-002
6.287067e+002;4.727067e-002
6.306352e+002;4.652607e-002
6.325637e+002;4.445419e-002
6.344923e+002;4.090713e-002
6.364208e+002;3.940090e-002
6.383494e+002;3.972552e-002
6.402780e+002;4.108763e-002
6.422065e+002;3.861367e-002
6.441350e+002;3.672562e-002
6.460636e+002;3.815373e-002
6.479921e+002;4.189203e-002
6.499207e+002;4.463305e-002
6.518492e+002;4.146939e-002
6.537778e+002;4.113706e-002
6.557063e+002;4.262345e-002
6.576349e+002;4.228724e-002
6.595634e+002;4.367047e-002
6.614919e+002;4.634410e-002
6.634205e+002;4.634838e-002
6.653491e+002;4.431066e-002
6.672776e+002;4.142583e-002
6.692062e+002;4.062910e-002
6.711347e+002;4.132834e-002
6.730632e+002;4.281864e-002
6.749918e+002;4.354181e-002
6.769203e+002;4.457342e-002
6.788489e+002;4.514002e-002
6.807775e+002;4.447342e-002
6.827060e+002;4.345882e-002
6.846345e+002;4.268277e-002
6.865631e+002;4.307099e-002
6.884916e+002;4.312244e-002
6.904202e+002;4.289975e-002
6.923488e+002;4.358573e-002
6.942773e+002;4.383743e-002
6.962058e+002;4.444240e-002
6.981344e+002;4.563694e-002
7.000629e+002;4.586847e-002
7.019915e+002;4.512969e-002
7.039200e+002;4.418775e-002
7.058486e+002;4.417363e-002
7.077771e+002;4.611165e-002
7.097057e+002;4.736865e-002
7.116342e+002;4.752126e-002
7.135627e+002;4.822691e-002
7.154913e+002;4.905262e-002
7.174199e+002;4.941539e-002
7.193484e+002;4.934797e-002
7.212770e+002;4.864676e-002
7.232055e+002;4.889299e-002
7.251340e+002;5.002473e-002
7.270626e+002;5.005158e-002
7.289911e+002;4.906423e-002
7.309197e+002;4.924482e-002
7.328483e+002;4.953763e-002
7.347768e+002;4.967584e-002
7.367053e+002;4.923937e-002
7.386339e+002;4.893085e-002
7.405624e+002;4.925807e-002
7.424910e+002;4.969913e-002
7.444196e+002;4.937132e-002
7.463481e+002;4.884523e-002
7.482766e+002;4.807735e-002
7.502052e+002;4.838422e-002
7.521337e+002;4.988567e-002
7.540623e+002;5.102396e-002
7.559908e+002;5.100324e-002
7.579194e+002;5.005485e-002
7.598479e+002;4.853455e-002
7.617765e+002;4.858558e-002
7.637050e+002;4.966016e-002
7.656335e+002;5.066357e-002
7.675621e+002;5.095886e-002
7.694907e+002;5.129950e-002
7.714192e+002;5.126315e-002
7.733478e+002;5.107009e-002
7.752763e+002;5.055631e-002
7.772048e+002;5.018073e-002
7.791334e+002;5.000574e-002
7.810620e+002;4.971313e-002
7.829905e+002;5.068468e-002
7.849191e+002;5.218336e-002
7.868476e+002;5.277947e-002
7.887761e+002;5.312345e-002
7.907047e+002;5.376199e-002
7.926332e+002;5.513856e-002
7.945618e+002;5.679985e-002
7.964903e+002;5.885247e-002
7.984189e+002;6.055163e-002
8.003474e+002;6.146450e-002
8.022759e+002;6.286876e-002
8.042045e+002;6.521353e-002
8.061331e+002;6.783300e-002
8.080616e+002;7.066091e-002
8.099902e+002;7.132110e-002
8.119187e+002;6.940314e-002
8.138472e+002;6.608611e-002
8.157758e+002;6.378613e-002
8.177043e+002;6.164871e-002
8.196329e+002;5.959948e-002
8.215615e+002;5.868749e-002
8.234900e+002;5.792269e-002
8.254185e+002;5.785451e-002
8.273471e+002;5.790274e-002
8.292756e+002;5.759596e-002
8.312042e+002;5.761257e-002
8.331328e+002;5.831394e-002
8.350613e+002;5.956162e-002
8.369898e+002;6.221643e-002
8.389184e+002;6.719956e-002
8.408469e+002;7.198350e-002
8.427755e+002;7.179606e-002
8.447040e+002;6.727328e-002
8.466326e+002;6.199957e-002
8.485611e+002;5.870027e-002
8.504897e+002;5.689540e-002
8.524182e+002;5.604764e-002
8.543467e+002;5.508018e-002
8.562753e+002;5.361501e-002
8.582039e+002;5.267617e-002
8.601324e+002;5.193903e-002
8.620610e+002;5.170853e-002
8.639895e+002;5.226168e-002
8.659180e+002;5.249329e-002
8.678466e+002;5.182847e-002
8.697751e+002;5.165404e-002
8.717037e+002;5.247404e-002
8.736323e+002;5.354608e-002
8.755608e+002;5.339115e-002
8.774893e+002;5.277299e-002
8.794179e+002;5.189130e-002
8.813464e+002;5.131591e-002
8.832750e+002;5.141720e-002
8.852036e+002;5.137875e-002
8.871321e+002;5.098807e-002
8.890606e+002;5.173219e-002
8.909892e+002;5.346617e-002
8.929177e+002;5.552121e-002
8.948463e+002;5.914446e-002
8.967748e+002;6.365041e-002
8.987034e+002;6.650679e-002
9.006319e+002;6.644087e-002
9.025605e+002;6.293203e-002
9.044890e+002;5.779697e-002
9.064175e+002;5.349421e-002
9.083461e+002;5.100514e-002
9.102747e+002;4.980513e-002
9.122032e+002;4.843871e-002
9.141318e+002;4.780809e-002
9.160603e+002;4.799671e-002
9.179888e+002;4.745070e-002
9.199174e+002;4.703052e-002
9.218459e+002;4.691740e-002
9.237745e+002;4.694011e-002
9.257031e+002;4.700774e-002
9.276316e+002;4.740638e-002
9.295601e+002;4.758100e-002
9.314887e+002;4.766264e-002
9.334172e+002;4.809153e-002
9.353458e+002;4.895277e-002
9.372744e+002;5.033604e-002
9.392029e+002;5.181279e-002
9.411314e+002;5.251958e-002
9.430600e+002;5.282740e-002
9.449885e+002;5.310439e-002
9.469171e+002;5.320348e-002
9.488456e+002;5.276663e-002
9.507742e+002;5.276169e-002
9.527027e+002;5.376206e-002
9.546313e+002;5.467541e-002
9.565598e+002;5.535587e-002
9.584883e+002;5.626217e-002
9.604169e+002;5.788449e-002
9.623455e+002;6.038082e-002
9.642740e+002;6.362107e-002
9.662026e+002;6.771510e-002
9.681311e+002;7.390019e-002
9.700596e+002;8.187066e-002
9.719882e+002;8.822235e-002
9.739167e+002;8.985381e-002
9.758453e+002;8.619262e-002
9.777739e+002;7.881559e-002
9.797024e+002;7.059429e-002
9.816309e+002;6.336612e-002
9.835595e+002;5.892809e-002
9.854880e+002;5.719217e-002
9.874166e+002;5.705098e-002
9.893452e+002;5.847995e-002
9.912737e+002;6.182479e-002
9.932022e+002;6.728581e-002
9.951307e+002;7.374895e-002
9.970593e+002;7.841854e-002
9.989879e+002;7.863753e-002
1.000916e+003;7.450651e-002
1.002845e+003;6.889126e-002
1.004773e+003;6.427836e-002
1.006702e+003;6.120623e-002
1.008631e+003;5.946837e-002
1.010559e+003;5.871787e-002
1.012488e+003;5.805261e-002
1.014416e+003;5.721874e-002
1.016345e+003;5.654789e-002
1.018273e+003;5.621615e-002
1.020202e+003;5.624572e-002
1.022130e+003;5.625059e-002
1.024059e+003;5.589503e-002
1.025988e+003;5.569561e-002
1.027916e+003;5.598243e-002
1.029845e+003;5.646487e-002
1.031773e+003;5.699132e-002
1.033702e+003;5.755987e-002
1.035630e+003;5.850566e-002
1.037559e+003;5.978876e-002
1.039487e+003;6.064405e-002
1.041416e+003;6.073336e-002
1.043344e+003;6.086047e-002
1.045273e+003;6.027811e-002
1.047202e+003;5.945196e-002
1.049130e+003;5.859157e-002
1.051059e+003;5.768552e-002
1.052987e+003;5.687198e-002
1.054916e+003;5.661054e-002
1.056844e+003;5.620771e-002
1.058773e+003;5.596939e-002
1.060701e+003;5.593295e-002
1.062630e+003;5.581986e-002
1.064558e+003;5.608557e-002
1.066487e+003;5.674264e-002
1.068416e+003;5.729442e-002
1.070344e+003;5.728712e-002
1.072273e+003;5.765381e-002
1.074201e+003;5.777676e-002
1.076130e+003;5.708257e-002
1.078058e+003;5.647970e-002
1.079987e+003;5.689506e-002
1.081915e+003;5.765445e-002
1.083844e+003;5.765755e-002
1.085773e+003;5.778550e-002
1.087701e+003;5.865324e-002
1.089630e+003;5.920274e-002
1.091558e+003;5.885899e-002
1.093487e+003;5.906621e-002
1.095415e+003;6.023604e-002
1.097344e+003;6.189536e-002
1.099272e+003;6.374603e-002
1.101201e+003;6.415147e-002
1.103129e+003;6.367175e-002
1.105058e+003;6.340553e-002
1.106987e+003;6.215201e-002
1.108915e+003;6.038966e-002
1.110844e+003;5.878941e-002
1.112772e+003;5.715554e-002
1.114701e+003;5.646109e-002
1.116629e+003;5.599660e-002
1.118558e+003;5.475046e-002
1.120486e+003;5.412717e-002
1.122415e+003;5.446269e-002
1.124344e+003;5.424004e-002
1.126272e+003;5.365070e-002
1.128201e+003;5.346985e-002
1.130129e+003;5.413348e-002
1.132058e+003;5.481722e-002
1.133986e+003;5.513769e-002
1.135915e+003;5.629264e-002
1.137843e+003;5.800213e-002
1.139772e+003;6.027350e-002
1.141700e+003;6.324840e-002
1.143629e+003;6.663772e-002
1.145557e+003;6.983344e-002
1.147486e+003;7.268844e-002
1.149415e+003;7.550476e-002
1.151343e+003;7.805246e-002
1.153272e+003;7.964378e-002
1.155200e+003;8.016512e-002
1.157129e+003;8.006682e-002
1.159057e+003;8.029278e-002
1.160986e+003;8.082762e-002
1.162914e+003;8.159297e-002
1.164843e+003;8.233007e-002
1.166771e+003;8.248685e-002
1.168700e+003;8.122397e-002
1.170629e+003;7.820676e-002
1.172557e+003;7.421384e-002
1.174486e+003;6.987578e-002
1.176414e+003;6.583471e-002
1.178343e+003;6.234394e-002
1.180271e+003;5.984565e-002
1.182200e+003;5.822789e-002
1.184128e+003;5.723643e-002
1.186057e+003;5.677183e-002
1.187986e+003;5.669118e-002
1.189914e+003;5.677602e-002
1.191843e+003;5.690897e-002
1.193771e+003;5.664429e-002
1.195700e+003;5.649592e-002
1.197628e+003;5.658382e-002
1.199557e+003;5.655902e-002
1.201485e+003;5.634843e-002
1.203414e+003;5.656159e-002
1.205343e+003;5.688339e-002
1.207271e+003;5.694685e-002
1.209200e+003;5.741073e-002
1.211128e+003;5.842556e-002
1.213057e+003;5.936123e-002
1.214985e+003;6.007693e-002
1.216914e+003;6.054805e-002
1.218842e+003;6.096134e-002
1.220771e+003;6.082552e-002
1.222699e+003;5.968500e-002
1.224628e+003;5.854778e-002
1.226557e+003;5.794000e-002
1.228485e+003;5.760561e-002
1.230414e+003;5.749053e-002
1.232342e+003;5.785591e-002
1.234271e+003;5.841043e-002
1.236199e+003;5.862024e-002
1.238128e+003;5.862688e-002
1.240056e+003;5.870861e-002
1.241985e+003;5.873228e-002
1.243913e+003;5.922955e-002
1.245842e+003;6.012480e-002
1.247771e+003;6.087187e-002
1.249699e+003;6.179453e-002
1.251628e+003;6.379047e-002
1.253556e+003;6.643558e-002
1.255485e+003;6.820901e-002
1.257413e+003;6.876733e-002
1.259342e+003;6.766260e-002
1.261270e+003;6.532501e-002
1.263199e+003;6.295003e-002
1.265127e+003;6.136866e-002
1.267056e+003;6.040938e-002
1.268985e+003;5.959477e-002
1.270913e+003;5.868244e-002
1.272842e+003;5.807436e-002
1.274770e+003;5.815204e-002
1.276699e+003;5.818057e-002
1.278627e+003;5.795049e-002
1.280556e+003;5.804462e-002
1.282484e+003;5.827680e-002
1.284413e+003;5.866670e-002
1.286342e+003;5.938642e-002
1.288270e+003;6.009291e-002
1.290199e+003;6.081416e-002
1.292127e+003;6.167136e-002
1.294056e+003;6.244202e-002
1.295984e+003;6.257273e-002
1.297913e+003;6.255119e-002
1.299841e+003;6.243651e-002
1.301770e+003;6.261168e-002
1.303698e+003;6.286589e-002
1.305627e+003;6.170821e-002
1.307556e+003;5.922135e-002
1.309484e+003;5.699540e-002
1.311413e+003;5.588569e-002
1.313341e+003;5.556839e-002
1.315270e+003;5.600132e-002
1.317198e+003;5.646592e-002
1.319127e+003;5.718937e-002
1.321055e+003;5.834926e-002
1.322984e+003;5.977290e-002
1.324912e+003;6.151023e-002
1.326841e+003;6.297332e-002
1.328770e+003;6.385491e-002
1.330698e+003;6.385855e-002
1.332627e+003;6.289775e-002
1.334555e+003;6.184764e-002
1.336484e+003;6.148538e-002
1.338412e+003;6.138751e-002
1.340341e+003;6.178277e-002
1.342269e+003;6.285229e-002
1.344198e+003;6.450263e-002
1.346126e+003;6.634590e-002
1.348055e+003;6.875949e-002
1.349984e+003;7.236493e-002
1.351912e+003;7.678645e-002
1.353841e+003;8.270053e-002
1.355769e+003;9.024678e-002
1.357698e+003;9.644746e-002
1.359626e+003;9.853579e-002
1.361555e+003;9.745134e-002
1.363483e+003;9.654441e-002
1.365412e+003;9.840515e-002
1.367341e+003;1.056710e-001
1.369269e+003;1.207607e-001
1.371198e+003;1.440232e-001
1.373126e+003;1.712390e-001
1.375055e+003;1.923134e-001
1.376983e+003;1.933676e-001
1.378912e+003;1.724982e-001
1.380840e+003;1.437857e-001
1.382769e+003;1.179306e-001
1.384698e+003;9.782668e-002
1.386626e+003;8.354914e-002
1.388555e+003;7.449161e-002
1.390483e+003;6.899712e-002
1.392412e+003;6.512352e-002
1.394340e+003;6.257453e-002
1.396269e+003;6.164230e-002
1.398197e+003;6.129222e-002
1.400126e+003;6.102250e-002
1.402054e+003;6.093359e-002
1.403983e+003;6.078218e-002
1.405911e+003;6.102979e-002
1.407840e+003;6.129562e-002
1.409769e+003;6.154344e-002
1.411697e+003;6.225120e-002
1.413626e+003;6.281553e-002
1.415554e+003;6.291966e-002
1.417483e+003;6.274788e-002
1.419411e+003;6.326664e-002
1.421340e+003;6.456487e-002
1.423268e+003;6.596000e-002
1.425197e+003;6.784563e-002
1.427125e+003;7.112037e-002
1.429054e+003;7.669888e-002
1.430983e+003;8.489322e-002
1.432911e+003;9.458794e-002
1.434840e+003;1.018755e-001
1.436768e+003;1.047508e-001
1.438697e+003;1.063056e-001
1.440625e+003;1.090327e-001
1.442554e+003;1.142645e-001
1.444482e+003;1.225156e-001
1.446411e+003;1.327797e-001
1.448340e+003;1.431192e-001
1.450268e+003;1.511251e-001
1.452197e+003;1.558369e-001
1.454125e+003;1.579669e-001
1.456054e+003;1.579154e-001
1.457982e+003;1.567921e-001
1.459911e+003;1.548275e-001
1.461839e+003;1.502606e-001
1.463768e+003;1.424908e-001
1.465697e+003;1.329143e-001
1.467625e+003;1.223170e-001
1.469554e+003;1.112752e-001
1.471482e+003;1.008848e-001
1.473411e+003;9.160924e-002
1.475339e+003;8.388230e-002
1.477268e+003;7.726806e-002
1.479196e+003;7.152658e-002
1.481125e+003;6.687315e-002
1.483053e+003;6.318508e-002
1.484982e+003;5.977412e-002
1.486911e+003;5.683037e-002
1.488839e+003;5.471408e-002
1.490768e+003;5.313169e-002
1.492696e+003;5.207087e-002
1.494625e+003;5.061699e-002
1.496553e+003;4.904542e-002
1.498482e+003;4.818685e-002
1.500410e+003;4.758336e-002
1.502339e+003;4.698256e-002
1.504267e+003;4.623046e-002
1.506196e+003;4.529784e-002
1.508125e+003;4.491295e-002
1.510053e+003;4.496804e-002
1.511982e+003;4.473353e-002
1.513910e+003;4.434555e-002
1.515839e+003;4.399484e-002
1.517767e+003;4.365801e-002
1.519696e+003;4.319211e-002
1.521624e+003;4.266103e-002
1.523553e+003;4.293033e-002
1.525481e+003;4.342051e-002
1.527410e+003;4.387357e-002
1.529339e+003;4.393105e-002
1.531267e+003;4.389362e-002
1.533196e+003;4.407944e-002
1.535124e+003;4.463720e-002
1.537053e+003;4.482702e-002
1.538981e+003;4.442772e-002
1.540910e+003;4.476079e-002
1.542838e+003;4.588751e-002
1.544767e+003;4.690312e-002
1.546695e+003;4.735993e-002
1.548624e+003;4.743721e-002
1.550553e+003;4.722674e-002
1.552481e+003;4.685074e-002
1.554410e+003;4.646677e-002
1.556338e+003;4.573216e-002
1.558267e+003;4.456156e-002
1.560195e+003;4.453869e-002
1.562124e+003;4.512428e-002
1.564052e+003;4.526915e-002
1.565981e+003;4.513406e-002
1.567910e+003;4.478569e-002
1.569838e+003;4.447595e-002
1.571767e+003;4.449196e-002
1.573695e+003;4.420929e-002
1.575624e+003;4.366416e-002
1.577552e+003;4.397629e-002
1.579481e+003;4.447331e-002
1.581409e+003;4.457309e-002
1.583338e+003;4.469405e-002
1.585266e+003;4.492552e-002
1.587195e+003;4.484193e-002
1.589124e+003;4.446428e-002
1.591052e+003;4.427191e-002
1.592981e+003;4.430791e-002
1.594909e+003;4.434625e-002
1.596838e+003;4.444765e-002
1.598766e+003;4.478899e-002
1.600695e+003;4.512961e-002
1.602623e+003;4.523572e-002
1.604552e+003;4.574277e-002
1.606480e+003;4.631933e-002
1.608409e+003;4.667587e-002
1.610338e+003;4.703152e-002
1.612266e+003;4.704961e-002
1.614195e+003;4.703924e-002
1.616123e+003;4.733680e-002
1.618052e+003;4.809542e-002
1.619980e+003;4.882083e-002
1.621909e+003;4.902554e-002
1.623837e+003;4.918085e-002
1.625766e+003;4.966272e-002
1.627694e+003;5.008188e-002
1.629623e+003;5.033842e-002
1.631552e+003;5.056651e-002
1.633480e+003;5.035192e-002
1.635409e+003;5.001087e-002
1.637337e+003;5.063021e-002
1.639266e+003;5.121148e-002
1.641194e+003;5.135071e-002
1.643123e+003;5.156086e-002
1.645051e+003;5.152714e-002
1.646980e+003;5.171125e-002
1.648909e+003;5.222016e-002
1.650837e+003;5.180185e-002
1.652766e+003;5.105057e-002
1.654694e+003;5.174902e-002
1.656623e+003;5.255260e-002
1.658551e+003;5.267041e-002
1.660480e+003;5.239579e-002
1.662408e+003;5.197110e-002
1.664337e+003;5.183754e-002
1.666266e+003;5.146629e-002
1.668194e+003;5.090770e-002
1.670123e+003;5.052378e-002
1.672051e+003;5.051421e-002
1.673980e+003;5.029556e-002
1.675908e+003;4.996488e-002
1.677837e+003;4.969107e-002
1.679765e+003;4.926557e-002
1.681694e+003;4.876311e-002
1.683622e+003;4.793454e-002
1.685551e+003;4.789507e-002
1.687479e+003;4.859073e-002
1.689408e+003;4.883678e-002
1.691337e+003;4.878476e-002
1.693265e+003;4.860181e-002
1.695194e+003;4.820266e-002
1.697122e+003;4.839856e-002
1.699051e+003;4.833752e-002
1.700979e+003;4.857535e-002
1.702908e+003;4.966670e-002
1.704836e+003;5.024772e-002
1.706765e+003;5.081220e-002
1.708693e+003;5.121271e-002
1.710622e+003;5.106454e-002
1.712551e+003;5.075041e-002
1.714479e+003;5.027409e-002
1.716408e+003;4.956648e-002
1.718336e+003;4.958000e-002
1.720265e+003;5.020345e-002
1.722193e+003;5.053550e-002
1.724122e+003;5.053476e-002
1.726050e+003;5.051485e-002
1.727979e+003;5.062935e-002
1.729908e+003;5.096776e-002
1.731836e+003;5.112514e-002
1.733765e+003;5.137305e-002
1.735693e+003;5.251023e-002
1.737622e+003;5.325363e-002
1.739550e+003;5.325760e-002
1.741479e+003;5.316685e-002
1.743407e+003;5.252511e-002
1.745336e+003;5.110725e-002
1.747265e+003;4.909020e-002
1.749193e+003;4.676269e-002
1.751122e+003;4.448120e-002
1.753050e+003;4.249324e-002
1.754979e+003;4.038395e-002
1.756907e+003;3.812606e-002
1.758836e+003;3.634970e-002
1.760764e+003;3.451945e-002
1.762693e+003;3.301261e-002
1.764621e+003;3.185593e-002
1.766550e+003;3.060415e-002
1.768479e+003;2.991525e-002
1.770407e+003;2.944680e-002
1.772336e+003;2.897461e-002
1.774264e+003;2.890162e-002
1.776193e+003;2.862583e-002
1.778121e+003;2.804947e-002
1.780050e+003;2.754059e-002
1.781978e+003;2.723720e-002
1.783907e+003;2.694314e-002
1.785835e+003;2.650402e-002
1.787764e+003;2.600061e-002
1.789693e+003;2.551300e-002
1.791621e+003;2.469815e-002
1.793550e+003;2.428771e-002
1.795478e+003;2.431532e-002
1.797407e+003;2.401652e-002
1.799335e+003;2.349902e-002
1.801264e+003;2.295160e-002
1.803192e+003;2.253792e-002
1.805121e+003;2.230412e-002
1.807049e+003;2.219214e-002
1.808978e+003;2.188991e-002
1.810907e+003;2.159817e-002
1.812835e+003;2.162453e-002
1.814764e+003;2.149785e-002
1.816692e+003;2.130202e-002
1.818621e+003;2.129618e-002
1.820549e+003;2.123358e-002
1.822478e+003;2.129771e-002
1.824406e+003;2.149580e-002
1.826335e+003;2.129886e-002
1.828264e+003;2.115216e-002
1.830192e+003;2.127714e-002
1.832121e+003;2.117102e-002
1.834049e+003;2.104997e-002
1.835978e+003;2.108176e-002
1.837906e+003;2.096049e-002
1.839835e+003;2.065130e-002
1.841763e+003;2.036851e-002
1.843692e+003;2.014328e-002
1.845620e+003;2.014980e-002
1.847549e+003;2.025706e-002
1.849478e+003;2.017601e-002
1.851406e+003;1.995226e-002
1.853335e+003;1.981972e-002
1.855263e+003;1.989269e-002
1.857192e+003;1.991670e-002
1.859120e+003;1.970092e-002
1.861049e+003;1.966351e-002
1.862977e+003;1.972640e-002
1.864906e+003;1.939629e-002
1.866834e+003;1.918091e-002
1.868763e+003;1.931907e-002
1.870692e+003;1.917101e-002
1.872620e+003;1.908995e-002
1.874549e+003;1.929420e-002
1.876477e+003;1.923646e-002
1.878406e+003;1.916075e-002
1.880334e+003;1.922697e-002
1.882263e+003;1.921578e-002
1.884191e+003;1.917676e-002
1.886120e+003;1.921519e-002
1.888048e+003;1.907035e-002
1.889977e+003;1.927331e-002
1.891906e+003;1.958450e-002
1.893834e+003;1.962603e-002
1.895763e+003;1.943257e-002
1.897691e+003;1.928928e-002
1.899620e+003;1.925253e-002
1.901548e+003;1.933573e-002
1.903477e+003;1.929087e-002
1.905405e+003;1.892780e-002
1.907334e+003;1.862327e-002
1.909262e+003;1.866920e-002
1.911191e+003;1.864752e-002
1.913120e+003;1.859910e-002
1.915048e+003;1.850034e-002
1.916977e+003;1.837986e-002
1.918905e+003;1.847700e-002
1.920834e+003;1.838380e-002
1.922762e+003;1.843613e-002
1.924691e+003;1.870826e-002
1.926619e+003;1.858841e-002
1.928548e+003;1.824023e-002
1.930477e+003;1.795296e-002
1.932405e+003;1.773788e-002
1.934334e+003;1.771569e-002
1.936262e+003;1.771527e-002
1.938191e+003;1.762296e-002
1.940119e+003;1.753822e-002
1.942048e+003;1.754132e-002
1.943976e+003;1.755951e-002
1.945905e+003;1.742007e-002
1.947833e+003;1.740100e-002
1.949762e+003;1.752269e-002
1.951691e+003;1.768093e-002
1.953619e+003;1.735579e-002
1.955548e+003;1.720394e-002
1.957476e+003;1.749779e-002
1.959405e+003;1.769398e-002
1.961333e+003;1.769056e-002
1.963262e+003;1.742070e-002
1.965190e+003;1.732969e-002
1.967119e+003;1.705736e-002
1.969047e+003;1.681557e-002
1.970976e+003;1.677366e-002
1.972905e+003;1.690069e-002
1.974833e+003;1.718536e-002
1.976762e+003;1.727948e-002
1.978690e+003;1.709340e-002
1.980619e+003;1.673079e-002
1.982547e+003;1.665348e-002
1.984476e+003;1.683083e-002
1.986404e+003;1.698020e-002
1.988333e+003;1.690448e-002
1.990261e+003;1.676980e-002
1.992190e+003;1.672025e-002
1.994119e+003;1.670672e-002
1.996047e+003;1.677738e-002
1.997976e+003;1.684130e-002
1.999904e+003;1.696012e-002
2.001833e+003;1.686986e-002
2.003761e+003;1.689876e-002
2.005690e+003;1.688801e-002
2.007618e+003;1.683514e-002
2.009547e+003;1.679181e-002
2.011476e+003;1.681919e-002
2.013404e+003;1.683920e-002
2.015333e+003;1.675703e-002
2.017261e+003;1.663296e-002
2.019190e+003;1.670858e-002
2.021118e+003;1.680565e-002
2.023047e+003;1.676061e-002
2.024975e+003;1.665448e-002
2.026904e+003;1.653351e-002
2.028833e+003;1.641468e-002
2.030761e+003;1.643305e-002
2.032690e+003;1.648829e-002
2.034618e+003;1.644107e-002
2.036547e+003;1.642934e-002
2.038475e+003;1.648812e-002
2.040404e+003;1.658739e-002
2.042332e+003;1.669673e-002
2.044261e+003;1.667338e-002
2.046189e+003;1.672731e-002
2.048118e+003;1.667318e-002
2.050047e+003;1.645880e-002
2.051975e+003;1.643223e-002
2.053904e+003;1.644104e-002
2.055832e+003;1.653052e-002
2.057761e+003;1.662887e-002
2.059689e+003;1.652353e-002
2.061618e+003;1.640381e-002
2.063546e+003;1.636176e-002
2.065475e+003;1.620940e-002
2.067404e+003;1.625250e-002
2.069332e+003;1.618767e-002
2.071260e+003;1.616500e-002
2.073189e+003;1.638161e-002
2.075118e+003;1.654047e-002
2.077046e+003;1.659011e-002
2.078975e+003;1.657379e-002
2.080903e+003;1.648781e-002
2.082832e+003;1.646482e-002
2.084760e+003;1.655193e-002
2.086689e+003;1.651837e-002
2.088617e+003;1.630568e-002
2.090546e+003;1.634813e-002
2.092475e+003;1.661028e-002
2.094403e+003;1.669477e-002
2.096332e+003;1.646540e-002
2.098260e+003;1.650877e-002
2.100189e+003;1.687713e-002
2.102117e+003;1.695939e-002
2.104046e+003;1.673733e-002
2.105974e+003;1.676608e-002
2.107903e+003;1.685763e-002
2.109832e+003;1.675809e-002
2.111760e+003;1.679353e-002
2.113688e+003;1.681816e-002
2.115617e+003;1.686727e-002
2.117546e+003;1.681933e-002
2.119474e+003;1.678489e-002
2.121403e+003;1.708741e-002
2.123331e+003;1.731334e-002
2.125260e+003;1.734296e-002
2.127188e+003;1.758259e-002
2.129117e+003;1.791166e-002
2.131045e+003;1.801074e-002
2.132974e+003;1.799140e-002
2.134903e+003;1.809554e-002
2.136831e+003;1.813115e-002
2.138760e+003;1.791270e-002
2.140688e+003;1.751528e-002
2.142617e+003;1.741600e-002
2.144545e+003;1.756737e-002
2.146474e+003;1.767117e-002
2.148402e+003;1.753553e-002
2.150331e+003;1.757124e-002
2.152260e+003;1.785069e-002
2.154188e+003;1.783281e-002
2.156117e+003;1.758800e-002
2.158045e+003;1.740600e-002
2.159974e+003;1.747474e-002
2.161902e+003;1.779549e-002
2.163831e+003;1.797089e-002
2.165759e+003;1.800590e-002
2.167688e+003;1.823097e-002
2.169616e+003;1.851057e-002
2.171545e+003;1.872524e-002
2.173474e+003;1.872151e-002
2.175402e+003;1.852004e-002
2.177331e+003;1.860919e-002
2.179259e+003;1.860868e-002
2.181188e+003;1.850974e-002
2.183116e+003;1.867162e-002
2.185045e+003;1.879755e-002
2.186973e+003;1.872462e-002
2.188902e+003;1.855490e-002
2.190831e+003;1.855068e-002
2.192759e+003;1.863880e-002
2.194688e+003;1.866616e-002
2.196616e+003;1.868671e-002
2.198545e+003;1.882734e-002
2.200473e+003;1.884644e-002
2.202402e+003;1.851382e-002
2.204330e+003;1.821590e-002
2.206259e+003;1.808161e-002
2.208188e+003;1.795811e-002
2.210116e+003;1.796111e-002
2.212044e+003;1.813243e-002
2.213973e+003;1.815997e-002
2.215902e+003;1.803740e-002
2.217830e+003;1.804687e-002
2.219759e+003;1.817679e-002
2.221687e+003;1.823322e-002
2.223616e+003;1.823114e-002
2.225544e+003;1.822596e-002
2.227473e+003;1.821646e-002
2.229401e+003;1.838466e-002
2.231330e+003;1.844035e-002
2.233259e+003;1.845045e-002
2.235187e+003;1.851759e-002
2.237116e+003;1.842918e-002
2.239044e+003;1.834526e-002
2.240973e+003;1.825813e-002
2.242901e+003;1.820547e-002
2.244830e+003;1.802407e-002
2.246758e+003;1.808041e-002
2.248687e+003;1.849463e-002
2.250615e+003;1.882769e-002
2.252544e+003;1.900101e-002
2.254473e+003;1.914576e-002
2.256401e+003;1.925922e-002
2.258330e+003;1.928308e-002
2.260258e+003;1.901870e-002
2.262187e+003;1.886142e-002
2.264115e+003;1.894767e-002
2.266044e+003;1.887610e-002
2.267972e+003;1.888285e-002
2.269901e+003;1.870276e-002
2.271830e+003;1.825077e-002
2.273758e+003;1.826020e-002
2.275687e+003;1.849242e-002
2.277615e+003;1.833053e-002
2.279544e+003;1.804414e-002
2.281472e+003;1.804949e-002
2.283401e+003;1.826041e-002
2.285329e+003;1.838881e-002
2.287258e+003;1.802621e-002
2.289187e+003;1.783405e-002
2.291115e+003;1.775600e-002
2.293043e+003;1.790925e-002
2.294972e+003;1.821048e-002
2.296901e+003;1.802949e-002
2.298829e+003;1.793573e-002
2.300758e+003;1.817161e-002
2.302686e+003;1.817427e-002
2.304615e+003;1.818204e-002
2.306543e+003;1.823594e-002
2.308472e+003;1.813440e-002
2.310400e+003;1.816536e-002
2.312329e+003;1.816031e-002
2.314258e+003;1.816698e-002
2.316186e+003;1.839254e-002
2.318115e+003;1.868494e-002
2.320043e+003;1.879277e-002
2.321972e+003;1.862943e-002
2.323900e+003;1.864108e-002
2.325829e+003;1.879724e-002
2.327757e+003;1.890402e-002
2.329686e+003;1.909396e-002
2.331615e+003;1.944744e-002
2.333543e+003;1.976701e-002
2.335472e+003;1.989856e-002
2.337400e+003;1.956801e-002
2.339329e+003;1.955154e-002
2.341257e+003;1.974849e-002
2.343186e+003;1.963491e-002
2.345114e+003;1.955594e-002
2.347043e+003;1.969797e-002
2.348971e+003;2.006030e-002
2.350900e+003;2.002286e-002
2.352829e+003;1.995187e-002
2.354757e+003;2.030924e-002
2.356686e+003;2.047322e-002
2.358614e+003;2.040845e-002
2.360543e+003;2.045318e-002
2.362471e+003;2.051362e-002
2.364400e+003;2.031105e-002
2.366328e+003;2.032883e-002
2.368257e+003;2.072025e-002
2.370186e+003;2.096418e-002
2.372114e+003;2.080863e-002
2.374042e+003;2.053679e-002
2.375971e+003;2.052105e-002
2.377900e+003;2.050806e-002
2.379828e+003;2.055489e-002
2.381757e+003;2.080019e-002
2.383685e+003;2.096933e-002
2.385614e+003;2.081058e-002
2.387542e+003;2.041703e-002
2.389471e+003;2.035171e-002
2.391399e+003;2.078183e-002
2.393328e+003;2.102034e-002
2.395257e+003;2.088097e-002
2.397185e+003;2.080008e-002
2.399114e+003;2.097579e-002
2.401042e+003;2.134796e-002
2.402971e+003;2.152974e-002
2.404899e+003;2.136028e-002
2.406828e+003;2.119892e-002
2.408756e+003;2.124669e-002
2.410685e+003;2.133133e-002
2.412614e+003;2.162240e-002
2.414542e+003;2.178538e-002
2.416471e+003;2.165779e-002
2.418399e+003;2.172188e-002
2.420328e+003;2.189033e-002
2.422256e+003;2.220909e-002
2.424185e+003;2.249625e-002
2.426113e+003;2.239552e-002
2.428042e+003;2.225637e-002
2.429970e+003;2.209486e-002
2.431899e+003;2.205470e-002
2.433828e+003;2.210542e-002
2.435756e+003;2.179629e-002
2.437685e+003;2.136672e-002
2.439613e+003;2.137810e-002
2.441542e+003;2.146979e-002
2.443470e+003;2.156070e-002
2.445399e+003;2.160799e-002
2.447327e+003;2.149694e-002
2.449256e+003;2.137894e-002
2.451185e+003;2.123385e-002
2.453113e+003;2.097489e-002
2.455042e+003;2.090170e-002
2.456970e+003;2.100932e-002
2.458899e+003;2.109773e-002
2.460827e+003;2.091560e-002
2.462756e+003;2.063914e-002
2.464684e+003;2.044026e-002
2.466613e+003;2.043995e-002
2.468542e+003;2.067872e-002
2.470470e+003;2.086025e-002
2.472398e+003;2.103251e-002
2.474327e+003;2.108875e-002
2.476256e+003;2.117283e-002
2.478184e+003;2.150725e-002
2.480113e+003;2.174114e-002
2.482041e+003;2.173173e-002
2.483970e+003;2.183311e-002
2.485898e+003;2.170056e-002
2.487827e+003;2.140964e-002
2.489755e+003;2.186653e-002
2.491684e+003;2.217631e-002
2.493613e+003;2.192998e-002
2.495541e+003;2.170355e-002
2.497470e+003;2.174417e-002
2.499398e+003;2.202970e-002
2.501327e+003;2.201674e-002
2.503255e+003;2.173351e-002
2.505184e+003;2.154792e-002
2.507112e+003;2.157602e-002
2.509041e+003;2.182214e-002
2.510969e+003;2.210709e-002
2.512898e+003;2.213987e-002
2.514827e+003;2.250040e-002
2.516755e+003;2.296068e-002
2.518684e+003;2.311361e-002
2.520612e+003;2.342361e-002
2.522541e+003;2.401225e-002
2.524469e+003;2.426322e-002
2.526398e+003;2.414008e-002
2.528326e+003;2.422591e-002
2.530255e+003;2.437770e-002
2.532184e+003;2.442930e-002
2.534112e+003;2.483313e-002
2.536041e+003;2.493770e-002
2.537969e+003;2.476599e-002
2.539898e+003;2.496307e-002
2.541826e+003;2.538493e-002
2.543755e+003;2.573327e-002
2.545683e+003;2.600874e-002
2.547612e+003;2.636380e-002
2.549541e+003;2.679154e-002
2.551469e+003;2.716382e-002
2.553397e+003;2.732653e-002
2.555326e+003;2.750713e-002
2.557255e+003;2.785688e-002
2.559183e+003;2.800229e-002
2.561112e+003;2.848736e-002
2.563040e+003;2.894242e-002
2.564969e+003;2.914849e-002
2.566897e+003;2.965443e-002
2.568826e+003;3.032288e-002
2.570754e+003;3.069219e-002
2.572683e+003;3.103581e-002
2.574612e+003;3.156187e-002
2.576540e+003;3.228323e-002
2.578469e+003;3.289805e-002
2.580397e+003;3.319087e-002
2.582326e+003;3.338898e-002
2.584254e+003;3.326377e-002
2.586183e+003;3.266690e-002
2.588111e+003;3.208608e-002
2.590040e+003;3.155015e-002
2.591969e+003;3.126637e-002
2.593897e+003;3.101317e-002
2.595826e+003;3.090326e-002
2.597754e+003;3.095933e-002
2.599683e+003;3.108464e-002
2.601611e+003;3.108190e-002
2.603540e+003;3.111735e-002
2.605468e+003;3.149511e-002
2.607397e+003;3.178894e-002
2.609325e+003;3.219087e-002
2.611254e+003;3.269033e-002
2.613183e+003;3.287921e-002
2.615111e+003;3.300665e-002
2.617040e+003;3.299510e-002
2.618968e+003;3.301926e-002
2.620897e+003;3.289540e-002
2.622825e+003;3.270791e-002
2.624754e+003;3.256778e-002
2.626682e+003;3.217852e-002
2.628611e+003;3.207666e-002
2.630540e+003;3.248511e-002
2.632468e+003;3.241874e-002
2.634396e+003;3.217303e-002
2.636325e+003;3.238575e-002
2.638254e+003;3.259378e-002
2.640182e+003;3.267118e-002
2.642111e+003;3.300522e-002
2.644039e+003;3.360781e-002
2.645968e+003;3.385533e-002
2.647896e+003;3.420210e-002
2.649825e+003;3.468802e-002
2.651753e+003;3.455432e-002
2.653682e+003;3.479491e-002
2.655611e+003;3.541775e-002
2.657539e+003;3.578222e-002
2.659468e+003;3.604790e-002
2.661396e+003;3.602421e-002
2.663325e+003;3.615592e-002
2.665253e+003;3.651866e-002
2.667182e+003;3.643689e-002
2.669110e+003;3.633691e-002
2.671039e+003;3.653153e-002
2.672968e+003;3.691832e-002
2.674896e+003;3.727997e-002
2.676825e+003;3.746258e-002
2.678753e+003;3.724267e-002
2.680682e+003;3.705654e-002
2.682610e+003;3.690920e-002
2.684539e+003;3.683687e-002
2.686467e+003;3.695775e-002
2.688396e+003;3.725289e-002
2.690324e+003;3.743600e-002
2.692253e+003;3.750961e-002
2.694182e+003;3.759494e-002
2.696110e+003;3.776360e-002
2.698039e+003;3.814613e-002
2.699967e+003;3.842033e-002
2.701896e+003;3.891215e-002
2.703824e+003;3.952975e-002
2.705753e+003;4.004787e-002
2.707681e+003;4.076225e-002
2.709610e+003;4.170852e-002
2.711539e+003;4.247873e-002
2.713467e+003;4.354485e-002
2.715396e+003;4.496605e-002
2.717324e+003;4.667764e-002
2.719253e+003;4.837530e-002
2.721181e+003;4.967238e-002
2.723110e+003;5.051916e-002
2.725038e+003;5.005533e-002
2.726967e+003;4.858984e-002
2.728896e+003;4.731005e-002
2.730824e+003;4.609297e-002
2.732752e+003;4.499666e-002
2.734681e+003;4.409646e-002
2.736610e+003;4.331053e-002
2.738538e+003;4.257528e-002
2.740467e+003;4.199183e-002
2.742395e+003;4.135487e-002
2.744324e+003;4.046163e-002
2.746252e+003;3.968634e-002
2.748181e+003;3.941189e-002
2.750109e+003;3.923361e-002
2.752038e+003;3.957526e-002
2.753967e+003;3.970813e-002
2.755895e+003;3.959410e-002
2.757824e+003;3.988624e-002
2.759752e+003;4.040460e-002
2.761681e+003;4.090523e-002
2.763609e+003;4.142142e-002
2.765538e+003;4.184444e-002
2.767466e+003;4.211595e-002
2.769395e+003;4.234403e-002
2.771323e+003;4.246123e-002
2.773252e+003;4.300111e-002
2.775181e+003;4.342088e-002
2.777109e+003;4.387793e-002
2.779038e+003;4.484810e-002
2.780966e+003;4.609611e-002
2.782895e+003;4.737778e-002
2.784823e+003;4.842515e-002
2.786752e+003;4.979886e-002
2.788680e+003;5.134791e-002
2.790609e+003;5.305684e-002
2.792538e+003;5.468060e-002
2.794466e+003;5.595575e-002
2.796395e+003;5.722974e-002
2.798323e+003;5.855127e-002
2.800252e+003;5.986896e-002
2.802180e+003;6.150191e-002
2.804109e+003;6.378467e-002
2.806037e+003;6.626032e-002
2.807966e+003;6.833642e-002
2.809895e+003;6.960079e-002
2.811823e+003;7.097220e-002
2.813751e+003;7.289245e-002
2.815680e+003;7.496123e-002
2.817609e+003;7.709293e-002
2.819537e+003;7.976118e-002
2.821466e+003;8.284017e-002
2.823394e+003;8.651268e-002
2.825323e+003;9.102234e-002
2.827251e+003;9.666021e-002
2.829180e+003;1.042850e-001
2.831108e+003;1.133951e-001
2.833037e+003;1.228233e-001
2.834966e+003;1.304050e-001
2.836894e+003;1.342388e-001
2.838823e+003;1.343204e-001
2.840751e+003;1.317047e-001
2.842680e+003;1.273725e-001
2.844608e+003;1.221987e-001
2.846537e+003;1.173786e-001
2.848465e+003;1.130635e-001
2.850394e+003;1.097615e-001
2.852323e+003;1.082312e-001
2.854251e+003;1.085347e-001
2.856180e+003;1.097867e-001
2.858108e+003;1.124481e-001
2.860037e+003;1.176571e-001
2.861965e+003;1.251770e-001
2.863894e+003;1.334797e-001
2.865822e+003;1.398274e-001
2.867751e+003;1.429663e-001
2.869679e+003;1.437055e-001
2.871608e+003;1.432167e-001
2.873536e+003;1.428254e-001
2.875465e+003;1.426993e-001
2.877394e+003;1.418176e-001
2.879322e+003;1.402891e-001
2.881251e+003;1.385496e-001
2.883179e+003;1.372822e-001
2.885108e+003;1.373379e-001
2.887036e+003;1.382452e-001
2.888965e+003;1.394170e-001
2.890893e+003;1.409678e-001
2.892822e+003;1.435411e-001
2.894750e+003;1.475366e-001
2.896679e+003;1.522203e-001
2.898608e+003;1.573034e-001
2.900536e+003;1.624923e-001
2.902465e+003;1.676373e-001
2.904393e+003;1.731194e-001
2.906322e+003;1.783683e-001
2.908250e+003;1.830965e-001
2.910179e+003;1.874855e-001
2.912107e+003;1.908508e-001
2.914036e+003;1.935157e-001
2.915965e+003;1.961918e-001
2.917893e+003;1.970432e-001
2.919822e+003;1.942092e-001
2.921750e+003;1.897433e-001
2.923679e+003;1.847021e-001
2.925607e+003;1.783476e-001
2.927536e+003;1.702446e-001
2.929464e+003;1.614212e-001
2.931393e+003;1.530891e-001
2.933322e+003;1.448842e-001
2.935250e+003;1.375448e-001
2.937178e+003;1.323358e-001
2.939107e+003;1.300287e-001
2.941036e+003;1.313459e-001
2.942964e+003;1.361374e-001
2.944893e+003;1.436180e-001
2.946821e+003;1.523192e-001
2.948750e+003;1.600456e-001
2.950678e+003;1.644513e-001
2.952607e+003;1.644790e-001
2.954535e+003;1.611366e-001
2.956464e+003;1.565069e-001
2.958393e+003;1.510528e-001
2.960321e+003;1.449097e-001
2.962250e+003;1.387335e-001
2.964178e+003;1.317099e-001
2.966107e+003;1.238650e-001
2.968035e+003;1.164670e-001
2.969964e+003;1.095719e-001
2.971892e+003;1.031830e-001
2.973821e+003;9.730030e-002
2.975750e+003;9.229769e-002
2.977678e+003;8.789036e-002
2.979607e+003;8.381989e-002
2.981535e+003;8.025268e-002
2.983464e+003;7.719563e-002
2.985392e+003;7.435466e-002
2.987321e+003;7.159671e-002
2.989249e+003;6.883977e-002
2.991178e+003;6.659936e-002
2.993106e+003;6.452669e-002
2.995035e+003;6.209478e-002
2.996964e+003;5.999205e-002
2.998892e+003;5.807390e-002
3.000821e+003;5.607973e-002
3.002749e+003;5.412578e-002
3.004678e+003;5.268818e-002
3.006606e+003;5.120939e-002
3.008535e+003;4.963501e-002
3.010463e+003;4.837719e-002
3.012392e+003;4.687141e-002
3.014321e+003;4.532983e-002
3.016249e+003;4.426204e-002
3.018177e+003;4.328633e-002
3.020106e+003;4.259534e-002
3.022035e+003;4.182967e-002
3.023963e+003;4.067535e-002
3.025892e+003;3.965839e-002
3.027820e+003;3.891740e-002
3.029749e+003;3.840255e-002
3.031677e+003;3.799079e-002
3.033606e+003;3.758736e-002
3.035534e+003;3.718134e-002
3.037463e+003;3.666000e-002
3.039392e+003;3.637877e-002
3.041320e+003;3.610403e-002
3.043249e+003;3.516722e-002
3.045177e+003;3.473856e-002
3.047106e+003;3.517003e-002
3.049034e+003;3.521519e-002
3.050963e+003;3.478540e-002
3.052891e+003;3.444146e-002
3.054820e+003;3.412858e-002
3.056749e+003;3.395360e-002
3.058677e+003;3.390043e-002
3.060606e+003;3.381024e-002
3.062534e+003;3.369431e-002
3.064463e+003;3.378423e-002
3.066391e+003;3.367483e-002
3.068320e+003;3.327321e-002
3.070248e+003;3.315618e-002
3.072177e+003;3.320854e-002
3.074105e+003;3.291860e-002
3.076034e+003;3.242680e-002
3.077963e+003;3.207677e-002
3.079891e+003;3.211937e-002
3.081820e+003;3.234562e-002
3.083748e+003;3.294366e-002
3.085677e+003;3.297283e-002
3.087605e+003;3.247001e-002
3.089534e+003;3.214359e-002
3.091462e+003;3.228523e-002
3.093391e+003;3.227267e-002
3.095320e+003;3.208676e-002
3.097248e+003;3.219544e-002
3.099177e+003;3.222470e-002
3.101105e+003;3.186563e-002
3.103034e+003;3.184406e-002
3.104962e+003;3.181771e-002
3.106891e+003;3.181130e-002
3.108819e+003;3.237075e-002
3.110748e+003;3.286906e-002
3.112677e+003;3.284294e-002
3.114605e+003;3.251700e-002
3.116533e+003;3.231810e-002
3.118462e+003;3.221953e-002
3.120391e+003;3.188696e-002
3.122319e+003;3.190586e-002
3.124248e+003;3.228188e-002
3.126176e+003;3.256574e-002
3.128105e+003;3.290026e-002
3.130033e+003;3.317342e-002
3.131962e+003;3.277447e-002
3.133890e+003;3.285841e-002
3.135819e+003;3.321390e-002
3.137748e+003;3.302563e-002
3.139676e+003;3.286227e-002
3.141605e+003;3.311105e-002
3.143533e+003;3.331993e-002
3.145462e+003;3.363480e-002
3.147390e+003;3.382950e-002
3.149319e+003;3.379014e-002
3.151247e+003;3.385909e-002
3.153176e+003;3.383910e-002
3.155104e+003;3.382506e-002
3.157033e+003;3.397495e-002
3.158962e+003;3.404307e-002
3.160890e+003;3.391243e-002
3.162819e+003;3.388825e-002
3.164747e+003;3.429923e-002
3.166676e+003;3.443543e-002
3.168604e+003;3.427710e-002
3.170533e+003;3.396456e-002
3.172461e+003;3.370455e-002
3.174390e+003;3.395836e-002
3.176319e+003;3.446097e-002
3.178247e+003;3.445100e-002
3.180176e+003;3.410019e-002
3.182104e+003;3.415711e-002
3.184033e+003;3.419590e-002
3.185961e+003;3.432408e-002
3.187890e+003;3.470011e-002
3.189818e+003;3.517459e-002
3.191747e+003;3.496068e-002
3.193676e+003;3.482424e-002
3.195604e+003;3.527812e-002
3.197532e+003;3.528570e-002
3.199461e+003;3.479563e-002
3.201390e+003;3.461201e-002
3.203318e+003;3.464836e-002
3.205247e+003;3.460013e-002
3.207175e+003;3.471946e-002
3.209104e+003;3.521214e-002
3.211032e+003;3.500636e-002
3.212961e+003;3.441890e-002
3.214889e+003;3.413909e-002
3.216818e+003;3.402787e-002
3.218747e+003;3.412360e-002
3.220675e+003;3.435456e-002
3.222604e+003;3.441807e-002
3.224532e+003;3.440176e-002
3.226461e+003;3.451184e-002
3.228389e+003;3.417719e-002
3.230318e+003;3.364651e-002
3.232246e+003;3.356750e-002
3.234175e+003;3.386762e-002
3.236104e+003;3.339568e-002
3.238032e+003;3.269162e-002
3.239961e+003;3.275389e-002
3.241889e+003;3.324202e-002
3.243818e+003;3.341432e-002
3.245746e+003;3.328863e-002
3.247675e+003;3.305716e-002
3.249603e+003;3.287832e-002
3.251532e+003;3.309163e-002
3.253460e+003;3.320840e-002
3.255389e+003;3.283039e-002
3.257318e+003;3.289304e-002
3.259246e+003;3.323916e-002
3.261175e+003;3.330244e-002
3.263103e+003;3.324924e-002
3.265032e+003;3.343622e-002
3.266960e+003;3.335911e-002
3.268889e+003;3.300790e-002
3.270817e+003;3.323637e-002
3.272746e+003;3.367104e-002
3.274675e+003;3.362356e-002
3.276603e+003;3.321537e-002
3.278531e+003;3.334101e-002
3.280460e+003;3.366825e-002
3.282389e+003;3.360520e-002
3.284317e+003;3.346964e-002
3.286246e+003;3.333496e-002
3.288174e+003;3.314516e-002
3.290103e+003;3.286209e-002
3.292031e+003;3.239085e-002
3.293960e+003;3.232795e-002
3.295888e+003;3.292989e-002
3.297817e+003;3.382524e-002
3.299746e+003;3.417005e-002
3.301674e+003;3.350547e-002
3.303603e+003;3.338322e-002
3.305531e+003;3.355247e-002
3.307460e+003;3.320045e-002
3.309388e+003;3.317499e-002
3.311317e+003;3.314427e-002
3.313245e+003;3.314402e-002
3.315174e+003;3.308591e-002
3.317103e+003;3.300146e-002
3.319031e+003;3.310958e-002
3.320960e+003;3.319541e-002
3.322888e+003;3.306553e-002
3.324817e+003;3.297125e-002
3.326745e+003;3.292114e-002
3.328674e+003;3.284108e-002
3.330602e+003;3.247375e-002
3.332531e+003;3.234294e-002
3.334459e+003;3.261296e-002
3.336388e+003;3.314538e-002
3.338317e+003;3.313730e-002
3.340245e+003;3.275593e-002
3.342174e+003;3.246929e-002
3.344102e+003;3.228705e-002
3.346031e+003;3.257499e-002
3.347959e+003;3.250585e-002
3.349888e+003;3.240749e-002
3.351816e+003;3.243262e-002
3.353745e+003;3.237786e-002
3.355674e+003;3.234266e-002
3.357602e+003;3.208637e-002
3.359531e+003;3.149026e-002
3.361459e+003;3.119709e-002
3.363388e+003;3.167612e-002
3.365316e+003;3.223651e-002
3.367245e+003;3.254681e-002
3.369173e+003;3.229893e-002
3.371102e+003;3.180010e-002
3.373031e+003;3.161878e-002
3.374959e+003;3.164690e-002
3.376887e+003;3.161949e-002
3.378816e+003;3.135056e-002
3.380745e+003;3.139184e-002
3.382673e+003;3.110499e-002
3.384602e+003;3.075709e-002
3.386530e+003;3.105655e-002
3.388459e+003;3.070517e-002
3.390387e+003;3.049623e-002
3.392316e+003;3.093026e-002
3.394244e+003;3.084082e-002
3.396173e+003;3.056107e-002
3.398102e+003;3.021946e-002
3.400030e+003;2.965585e-002
3.401959e+003;2.959207e-002
3.403887e+003;3.015922e-002
3.405816e+003;3.049189e-002
3.407744e+003;3.046403e-002
3.409673e+003;3.051318e-002
3.411601e+003;3.034817e-002
3.413530e+003;2.997692e-002
3.415458e+003;2.973990e-002
3.417387e+003;2.970314e-002
3.419316e+003;2.967011e-002
3.421244e+003;2.941266e-002
3.423173e+003;2.977045e-002
3.425101e+003;3.010492e-002
3.427030e+003;2.975473e-002
3.428958e+003;2.923641e-002
3.430887e+003;2.896526e-002
3.432815e+003;2.874770e-002
3.434744e+003;2.875060e-002
3.436673e+003;2.852901e-002
3.438601e+003;2.837880e-002
3.440530e+003;2.793564e-002
3.442458e+003;2.756531e-002
3.444387e+003;2.760690e-002
3.446315e+003;2.755659e-002
3.448244e+003;2.727738e-002
3.450172e+003;2.740134e-002
3.452101e+003;2.779704e-002
3.454030e+003;2.763278e-002
3.455958e+003;2.692915e-002
3.457886e+003;2.682692e-002
3.459815e+003;2.647405e-002
3.461744e+003;2.595534e-002
3.463672e+003;2.614455e-002
3.465601e+003;2.638352e-002
3.467529e+003;2.607621e-002
3.469458e+003;2.574504e-002
3.471386e+003;2.555594e-002
3.473315e+003;2.577183e-002
3.475243e+003;2.621257e-002
3.477172e+003;2.588784e-002
3.479101e+003;2.507030e-002
3.481029e+003;2.515427e-002
3.482958e+003;2.551236e-002
3.484886e+003;2.514286e-002
3.486815e+003;2.464264e-002
3.488743e+003;2.450863e-002
3.490672e+003;2.451841e-002
3.492600e+003;2.403315e-002
3.494529e+003;2.390973e-002
3.496458e+003;2.392944e-002
3.498386e+003;2.335130e-002
3.500315e+003;2.300218e-002
3.502243e+003;2.341763e-002
3.504172e+003;2.401431e-002
3.506100e+003;2.392156e-002
3.508029e+003;2.324272e-002
3.509957e+003;2.269607e-002
3.511886e+003;2.239897e-002
3.513814e+003;2.247866e-002
3.515743e+003;2.269597e-002
3.517672e+003;2.278724e-002
3.519600e+003;2.262601e-002
3.521529e+003;2.257865e-002
3.523457e+003;2.248076e-002
3.525386e+003;2.219001e-002
3.527314e+003;2.156620e-002
3.529243e+003;2.107338e-002
3.531171e+003;2.101363e-002
3.533100e+003;2.110628e-002
3.535029e+003;2.113516e-002
3.536957e+003;2.134563e-002
3.538885e+003;2.126569e-002
3.540814e+003;2.056920e-002
3.542743e+003;1.992312e-002
3.544671e+003;1.995382e-002
3.546600e+003;2.018836e-002
3.548528e+003;2.029459e-002
3.550457e+003;1.997592e-002
3.552385e+003;1.944456e-002
3.554314e+003;1.934817e-002
3.556242e+003;1.979464e-002
3.558171e+003;2.005398e-002
3.560100e+003;1.963972e-002
3.562028e+003;1.926677e-002
3.563957e+003;1.915490e-002
3.565885e+003;1.873057e-002
3.567814e+003;1.847610e-002
3.569742e+003;1.849038e-002
3.571671e+003;1.831204e-002
3.573599e+003;1.790041e-002
3.575528e+003;1.779746e-002
3.577457e+003;1.782625e-002
3.579385e+003;1.770323e-002
3.581314e+003;1.732810e-002
3.583242e+003;1.705822e-002
3.585171e+003;1.690193e-002
3.587099e+003;1.665421e-002
3.589028e+003;1.636513e-002
3.590956e+003;1.640566e-002
3.592885e+003;1.635612e-002
3.594813e+003;1.671643e-002
3.596742e+003;1.719705e-002
3.598671e+003;1.708692e-002
3.600599e+003;1.682164e-002
3.602528e+003;1.643089e-002
3.604456e+003;1.601735e-002
3.606385e+003;1.584326e-002
3.608313e+003;1.552577e-002
3.610242e+003;1.564258e-002
3.612170e+003;1.613725e-002
3.614099e+003;1.618560e-002
3.616028e+003;1.564182e-002
3.617956e+003;1.521689e-002
3.619885e+003;1.511756e-002
3.621813e+003;1.521137e-002
3.623742e+003;1.528158e-002
3.625670e+003;1.528742e-002
3.627599e+003;1.465712e-002
3.629527e+003;1.443760e-002
3.631456e+003;1.485714e-002
3.633385e+003;1.516707e-002
3.635313e+003;1.564395e-002
3.637241e+003;1.547159e-002
3.639170e+003;1.477575e-002
3.641099e+003;1.471686e-002
3.643027e+003;1.512799e-002
3.644956e+003;1.493268e-002
3.646884e+003;1.408972e-002
3.648813e+003;1.374625e-002
3.650741e+003;1.383932e-002
3.652670e+003;1.394667e-002
3.654598e+003;1.340736e-002
3.656527e+003;1.322608e-002
3.658456e+003;1.394619e-002
3.660384e+003;1.411546e-002
3.662313e+003;1.400091e-002
3.664241e+003;1.367752e-002
3.666170e+003;1.348467e-002
3.668098e+003;1.340025e-002
3.670027e+003;1.312881e-002
3.671955e+003;1.360513e-002
3.673884e+003;1.409085e-002
3.675813e+003;1.412199e-002
3.677741e+003;1.452985e-002
3.679669e+003;1.452879e-002
3.681598e+003;1.452787e-002
3.683527e+003;1.461308e-002
3.685455e+003;1.461637e-002
3.687384e+003;1.444164e-002
3.689312e+003;1.448676e-002
3.691241e+003;1.487271e-002
3.693169e+003;1.496005e-002
3.695098e+003;1.482961e-002
3.697026e+003;1.512130e-002
3.698955e+003;1.502977e-002
3.700884e+003;1.452143e-002
3.702812e+003;1.474219e-002
3.704741e+003;1.489815e-002
3.706669e+003;1.462076e-002
3.708598e+003;1.426486e-002
3.710526e+003;1.426801e-002
3.712455e+003;1.418036e-002
3.714383e+003;1.404800e-002
3.716312e+003;1.417594e-002
3.718240e+003;1.430701e-002
3.720169e+003;1.402674e-002
3.722098e+003;1.393976e-002
3.724026e+003;1.406596e-002
3.725955e+003;1.418607e-002
3.727883e+003;1.452852e-002
3.729812e+003;1.459047e-002
3.731740e+003;1.416595e-002
3.733669e+003;1.368227e-002
3.735597e+003;1.370101e-002
3.737526e+003;1.467621e-002
3.739455e+003;1.520262e-002
3.741383e+003;1.522554e-002
3.743312e+003;1.465064e-002
3.745240e+003;1.404591e-002
3.747169e+003;1.406141e-002
3.749097e+003;1.385844e-002
3.751026e+003;1.333885e-002
3.752954e+003;1.333219e-002
3.754883e+003;1.408790e-002
3.756812e+003;1.486338e-002
3.758740e+003;1.514422e-002
3.760668e+003;1.522650e-002
3.762597e+003;1.541861e-002
3.764526e+003;1.533852e-002
3.766454e+003;1.517002e-002
3.768383e+003;1.466826e-002
3.770311e+003;1.477044e-002
3.772240e+003;1.529318e-002
3.774168e+003;1.512137e-002
3.776097e+003;1.485395e-002
3.778025e+003;1.470623e-002
3.779954e+003;1.436581e-002
3.781883e+003;1.478665e-002
3.783811e+003;1.538806e-002
3.785740e+003;1.544539e-002
3.787668e+003;1.522629e-002
3.789597e+003;1.517760e-002
3.791525e+003;1.501215e-002
3.793454e+003;1.523745e-002
3.795382e+003;1.560322e-002
3.797311e+003;1.554078e-002
3.799240e+003;1.486256e-002
3.801168e+003;1.421832e-002
3.803097e+003;1.477191e-002
3.805025e+003;1.471247e-002
3.806954e+003;1.424109e-002
3.808882e+003;1.481757e-002
3.810811e+003;1.524108e-002
3.812739e+003;1.473002e-002
3.814668e+003;1.386576e-002
3.816596e+003;1.402962e-002
3.818525e+003;1.460232e-002
3.820454e+003;1.474716e-002
3.822382e+003;1.548467e-002
3.824311e+003;1.637838e-002
3.826239e+003;1.643343e-002
3.828168e+003;1.568586e-002
3.830096e+003;1.505876e-002
3.832025e+003;1.512723e-002
3.833953e+003;1.498460e-002
3.835882e+003;1.465832e-002
3.837811e+003;1.488814e-002
3.839739e+003;1.557612e-002
3.841667e+003;1.579635e-002
3.843596e+003;1.570785e-002
3.845525e+003;1.572843e-002
3.847453e+003;1.575924e-002
3.849382e+003;1.568634e-002
3.851310e+003;1.489499e-002
3.853239e+003;1.436615e-002
3.855167e+003;1.525114e-002
3.857096e+003;1.646386e-002
3.859024e+003;1.646182e-002
3.860953e+003;1.612594e-002
3.862882e+003;1.607776e-002
3.864810e+003;1.590976e-002
3.866739e+003;1.570524e-002
3.868667e+003;1.529874e-002
3.870596e+003;1.563049e-002
3.872524e+003;1.606274e-002
3.874453e+003;1.571929e-002
3.876381e+003;1.586745e-002
3.878310e+003;1.578264e-002
3.880239e+003;1.576646e-002
3.882167e+003;1.620018e-002
3.884096e+003;1.595836e-002
3.886024e+003;1.612614e-002
3.887953e+003;1.664009e-002
3.889881e+003;1.657434e-002
3.891810e+003;1.655300e-002
3.893738e+003;1.666736e-002
3.895667e+003;1.688532e-002
3.897595e+003;1.630967e-002
3.899524e+003;1.563186e-002
3.901453e+003;1.560724e-002
3.903381e+003;1.601973e-002
3.905310e+003;1.662226e-002
3.907238e+003;1.664436e-002
3.909167e+003;1.620723e-002
3.911095e+003;1.599463e-002
3.913024e+003;1.635206e-002
3.914952e+003;1.666347e-002
3.916881e+003;1.607236e-002
3.918810e+003;1.575100e-002
3.920738e+003;1.595413e-002
3.922667e+003;1.622546e-002
3.924595e+003;1.661768e-002
3.926524e+003;1.700987e-002
3.928452e+003;1.698368e-002
3.930381e+003;1.663878e-002
3.932309e+003;1.674163e-002
3.934238e+003;1.690675e-002
3.936167e+003;1.696149e-002
3.938095e+003;1.676398e-002
3.940023e+003;1.665982e-002
3.941952e+003;1.683779e-002
3.943881e+003;1.669043e-002
3.945809e+003;1.621360e-002
3.947738e+003;1.576423e-002
3.949666e+003;1.596458e-002
3.951595e+003;1.666932e-002
3.953523e+003;1.668606e-002
3.955452e+003;1.675065e-002
3.957380e+003;1.698733e-002
3.959309e+003;1.680669e-002
3.961238e+003;1.682632e-002
3.963166e+003;1.667786e-002
3.965095e+003;1.669959e-002
3.967023e+003;1.701428e-002
3.968952e+003;1.679212e-002
3.970880e+003;1.640408e-002
3.972809e+003;1.696098e-002
3.974737e+003;1.690389e-002
3.976666e+003;1.673895e-002
3.978594e+003;1.701146e-002
3.980523e+003;1.721366e-002
3.982452e+003;1.774416e-002
3.984380e+003;1.773919e-002
3.986309e+003;1.747957e-002
3.988237e+003;1.790148e-002
3.990166e+003;1.837464e-002
3.992094e+003;1.820682e-002
3.994023e+003;1.877471e-002
3.995951e+003;1.890790e-002
3.997880e+003;1.862742e-002
3.999809e+003;1.861933e-002
4.001737e+003;0.000000e+000
