3.992094e+002;0.000000e+000
4.011380e+002;0.000000e+000
4.030665e+002;0.000000e+000
4.049951e+002;0.000000e+000
4.069236e+002;0.000000e+000
4.088522e+002;0.000000e+000
4.107807e+002;0.000000e+000
4.127093e+002;0.000000e+000
4.146378e+002;0.000000e+000
4.165664e+002;0.000000e+000
4.184949e+002;0.000000e+000
4.204235e+002;0.000000e+000
4.223520e+002;0.000000e+000
4.242806e+002;0.000000e+000
4.262091e+002;0.000000e+000
4.281377e+002;0.000000e+000
4.300662e+002;0.000000e+000
4.319948e+002;0.000000e+000
4.339233e+002;0.000000e+000
4.358519e+002;0.000000e+000
4.377804e+002;0.000000e+000
4.397090e+002;0.000000e+000
4.416375e+002;0.000000e+000
4.435660e+002;0.000000e+000
4.454946e+002;0.000000e+000
4.474232e+002;0.000000e+000
4.493517e+002;0.000000e+000
4.512802e+002;0.000000e+000
4.532088e+002;0.000000e+000
4.551373e+002;0.000000e+000
4.570659e+002;0.000000e+000
4.589944e+002;0.000000e+000
4.609230e+002;0.000000e+000
4.628515e+002;0.000000e+000
4.647801e+002;0.000000e+000
4.667086e+002;0.000000e+000
4.686372e+002;0.000000e+000
4.705657e+002;0.000000e+000
4.724943e+002;0.000000e+000
4.744228e+002;0.000000e+000
4.763513e+002;0.000000e+000
4.782799e+002;0.000000e+000
4.802085e+002;0.000000e+000
4.821370e+002;0.000000e+000
4.840656e+002;0.000000e+000
4.859941e+002;0.000000e+000
4.879226e+002;0.000000e+000
4.898512e+002;0.000000e+000
4.917798e+002;0.000000e+000
4.937083e+002;0.000000e+000
4.956368e+002;0.000000e+000
4.975654e+002;0.000000e+000
4.994939e+002;0.000000e+000
5.014225e+002;0.000000e+000
5.033510e+002;0.000000e+000
5.052796e+002;0.000000e+000
5.072081e+002;0.000000e+000
5.091367e+002;0.000000e+000
5.110652e+002;0.000000e+000
5.129938e+002;0.000000e+000
5.149223e+002;0.000000e+000
5.168509e+002;0.000000e+000
5.187794e+002;0.000000e+000
5.207079e+002;0.000000e+000
5.226365e+002;0.000000e+000
5.245651e+002;0.000000e+000
5.264936e+002;0.000000e+000
5.284222e+002;0.000000e+000
5.303507e+002;0.000000e+000
5.322792e+002;0.000000e+000
5.342078e+002;0.000000e+000
5.361364e+002;0.000000e+000
5.380649e+002;0.000000e+000
5.399935e+002;0.000000e+000
5.419220e+002;0.000000e+000
5.438505e+002;0.000000e+000
5.457791e+002;0.000000e+000
5.477076e+002;0.000000e+000
5.496362e+002;0.000000e+000
5.515648e+002;0.000000e+000
5.534933e+002;0.000000e+000
5.554218e+002;0.000000e+000
5.573504e+002;0.000000e+000
5.592789e+002;0.000000e+000
5.612075e+002;0.000000e+000
5.631360e+002;0.000000e+000
5.650646e+002;0.000000e+000
5.669931e+002;0.000000e+000
5.689217e+002;0.000000e+000
5.708502e+002;0.000000e+000
5.727787e+002;0.000000e+000
5.747073e+002;0.000000e+000
5.766359e+002;0.000000e+000
5.785644e+002;0.000000e+000
5.804930e+002;0.000000e+000
5.824215e+002;0.000000e+000
5.843500e+002;0.000000e+000
5.862786e+002;0.000000e+000
5.882072e+002;0.000000e+000
5.901357e+002;0.000000e+000
5.920643e+002;0.000000e+000
5.939928e+002;0.000000e+000
5.959213e+002;0.000000e+000
5.978499e+002;0.000000e+000
5.997784e+002;2.428796e-002
6.017070e+002;2.840119e-002
6.036355e+002;3.021520e-002
6.055641e+002;3.126886e-002
6.074926e+002;3.415482e-002
6.094211e+002;3.411163e-002
6.113497e+002;3.462156e-002
6.132783e+002;3.363427e-002
6.152068e+002;2.916050e-002
6.171354e+002;2.606313e-002
6.190639e+002;2.645458e-002
6.209924e+002;2.790628e-002
6.229210e+002;3.082645e-002
6.248495e+002;3.065727e-002
6.267781e+002;2.849472e-002
6.287067e+002;2.866876e-002
6.306352e+002;3.048755e-002
6.325637e+002;2.972351e-002
6.344923e+002;3.267987e-002
6.364208e+002;3.389581e-002
6.383494e+002;3.320635e-002
6.402780e+002;3.257839e-002
6.422065e+002;3.026777e-002
6.441350e+002;3.358082e-002
6.460636e+002;3.586865e-002
6.479921e+002;3.379748e-002
6.499207e+002;3.388388e-002
6.518492e+002;3.619229e-002
6.537778e+002;3.321058e-002
6.557063e+002;2.854207e-002
6.576349e+002;2.890279e-002
6.595634e+002;2.898570e-002
6.614919e+002;3.024326e-002
6.634205e+002;2.998462e-002
6.653491e+002;2.806439e-002
6.672776e+002;2.747222e-002
6.692062e+002;2.717649e-002
6.711347e+002;2.829985e-002
6.730632e+002;2.917344e-002
6.749918e+002;2.895329e-002
6.769203e+002;2.820211e-002
6.788489e+002;2.829649e-002
6.807775e+002;2.835927e-002
6.827060e+002;2.667434e-002
6.846345e+002;2.661839e-002
6.865631e+002;2.674643e-002
6.884916e+002;2.551405e-002
6.904202e+002;2.567674e-002
6.923488e+002;2.741479e-002
6.942773e+002;2.827291e-002
6.962058e+002;2.925413e-002
6.981344e+002;2.890112e-002
7.000629e+002;2.755503e-002
7.019915e+002;2.797713e-002
7.039200e+002;2.920324e-002
7.058486e+002;3.033524e-002
7.077771e+002;3.380740e-002
7.097057e+002;3.807346e-002
7.116342e+002;4.151237e-002
7.135627e+002;4.339968e-002
7.154913e+002;4.403283e-002
7.174199e+002;4.254929e-002
7.193484e+002;3.943580e-002
7.212770e+002;3.610738e-002
7.232055e+002;3.369829e-002
7.251340e+002;3.275864e-002
7.270626e+002;3.200193e-002
7.289911e+002;3.121660e-002
7.309197e+002;3.079707e-002
7.328483e+002;2.993059e-002
7.347768e+002;2.957558e-002
7.367053e+002;2.930163e-002
7.386339e+002;2.911688e-002
7.405624e+002;2.879160e-002
7.424910e+002;2.902399e-002
7.444196e+002;2.953649e-002
7.463481e+002;2.949961e-002
7.482766e+002;2.894408e-002
7.502052e+002;2.817429e-002
7.521337e+002;2.730441e-002
7.540623e+002;2.705407e-002
7.559908e+002;2.711360e-002
7.579194e+002;2.757346e-002
7.598479e+002;2.862148e-002
7.617765e+002;2.893795e-002
7.637050e+002;2.908903e-002
7.656335e+002;2.957001e-002
7.675621e+002;2.938695e-002
7.694907e+002;2.896108e-002
7.714192e+002;2.900288e-002
7.733478e+002;2.894539e-002
7.752763e+002;2.876604e-002
7.772048e+002;2.891139e-002
7.791334e+002;2.882701e-002
7.810620e+002;2.916358e-002
7.829905e+002;3.002570e-002
7.849191e+002;3.047177e-002
7.868476e+002;3.140530e-002
7.887761e+002;3.201809e-002
7.907047e+002;3.191481e-002
7.926332e+002;3.242262e-002
7.945618e+002;3.327911e-002
7.964903e+002;3.391673e-002
7.984189e+002;3.448777e-002
8.003474e+002;3.569800e-002
8.022759e+002;3.741592e-002
8.042045e+002;4.035922e-002
8.061331e+002;4.417293e-002
8.080616e+002;4.803161e-002
8.099902e+002;5.058404e-002
8.119187e+002;5.004593e-002
8.138472e+002;4.719697e-002
8.157758e+002;4.376834e-002
8.177043e+002;4.115006e-002
8.196329e+002;3.946476e-002
8.215615e+002;3.810023e-002
8.234900e+002;3.778825e-002
8.254185e+002;3.789612e-002
8.273471e+002;3.759202e-002
8.292756e+002;3.844335e-002
8.312042e+002;3.959221e-002
8.331328e+002;4.106942e-002
8.350613e+002;4.375881e-002
8.369898e+002;4.874784e-002
8.389184e+002;5.533810e-002
8.408469e+002;5.827578e-002
8.427755e+002;5.567241e-002
8.447040e+002;5.131125e-002
8.466326e+002;4.780347e-002
8.485611e+002;4.429961e-002
8.504897e+002;4.094881e-002
8.524182e+002;3.882670e-002
8.543467e+002;3.770223e-002
8.562753e+002;3.705492e-002
8.582039e+002;3.762428e-002
8.601324e+002;3.877863e-002
8.620610e+002;4.009140e-002
8.639895e+002;4.230426e-002
8.659180e+002;4.575050e-002
8.678466e+002;5.235613e-002
8.697751e+002;6.298087e-002
8.717037e+002;7.605400e-002
8.736323e+002;8.749907e-002
8.755608e+002;9.172320e-002
8.774893e+002;8.621205e-002
8.794179e+002;7.515051e-002
8.813464e+002;6.449936e-002
8.832750e+002;5.560175e-002
8.852036e+002;4.663628e-002
8.871321e+002;3.885239e-002
8.890606e+002;3.502712e-002
8.909892e+002;3.509232e-002
8.929177e+002;3.743149e-002
8.948463e+002;4.127630e-002
8.967748e+002;4.574347e-002
8.987034e+002;4.849228e-002
9.006319e+002;4.830800e-002
9.025605e+002;4.483407e-002
9.044890e+002;3.997041e-002
9.064175e+002;3.564016e-002
9.083461e+002;3.223534e-002
9.102747e+002;3.016256e-002
9.122032e+002;2.913393e-002
9.141318e+002;2.851323e-002
9.160603e+002;2.813473e-002
9.179888e+002;2.804346e-002
9.199174e+002;2.778069e-002
9.218459e+002;2.768208e-002
9.237745e+002;2.772040e-002
9.257031e+002;2.770754e-002
9.276316e+002;2.758123e-002
9.295601e+002;2.785537e-002
9.314887e+002;2.829939e-002
9.334172e+002;2.909020e-002
9.353458e+002;3.022511e-002
9.372744e+002;3.165709e-002
9.392029e+002;3.347312e-002
9.411314e+002;3.447453e-002
9.430600e+002;3.444644e-002
9.449885e+002;3.384773e-002
9.469171e+002;3.323264e-002
9.488456e+002;3.346338e-002
9.507742e+002;3.414622e-002
9.527027e+002;3.467916e-002
9.546313e+002;3.556247e-002
9.565598e+002;3.658203e-002
9.584883e+002;3.737334e-002
9.604169e+002;3.889794e-002
9.623455e+002;4.104276e-002
9.642740e+002;4.385059e-002
9.662026e+002;4.789288e-002
9.681311e+002;5.359346e-002
9.700596e+002;6.006681e-002
9.719882e+002;6.451523e-002
9.739167e+002;6.430855e-002
9.758453e+002;5.974952e-002
9.777739e+002;5.323505e-002
9.797024e+002;4.632954e-002
9.816309e+002;4.071916e-002
9.835595e+002;3.728744e-002
9.854880e+002;3.567386e-002
9.874166e+002;3.565818e-002
9.893452e+002;3.718448e-002
9.912737e+002;4.069303e-002
9.932022e+002;4.550887e-002
9.951307e+002;5.093013e-002
9.970593e+002;5.501060e-002
9.989879e+002;5.469965e-002
1.000916e+003;5.056179e-002
1.002845e+003;4.506800e-002
1.004773e+003;4.045672e-002
1.006702e+003;3.733980e-002
1.008631e+003;3.524933e-002
1.010559e+003;3.369291e-002
1.012488e+003;3.252267e-002
1.014416e+003;3.157741e-002
1.016345e+003;3.133671e-002
1.018273e+003;3.135202e-002
1.020202e+003;3.117064e-002
1.022130e+003;3.096414e-002
1.024059e+003;3.088455e-002
1.025988e+003;3.038463e-002
1.027916e+003;2.994532e-002
1.029845e+003;3.035699e-002
1.031773e+003;3.087081e-002
1.033702e+003;3.136612e-002
1.035630e+003;3.215002e-002
1.037559e+003;3.245726e-002
1.039487e+003;3.248293e-002
1.041416e+003;3.301490e-002
1.043344e+003;3.368933e-002
1.045273e+003;3.361107e-002
1.047202e+003;3.379279e-002
1.049130e+003;3.388872e-002
1.051059e+003;3.306914e-002
1.052987e+003;3.179076e-002
1.054916e+003;3.075048e-002
1.056844e+003;3.007871e-002
1.058773e+003;2.950124e-002
1.060701e+003;2.926983e-002
1.062630e+003;2.875025e-002
1.064558e+003;2.875428e-002
1.066487e+003;2.898194e-002
1.068416e+003;2.861688e-002
1.070344e+003;2.861097e-002
1.072273e+003;2.855038e-002
1.074201e+003;2.793698e-002
1.076130e+003;2.799610e-002
1.078058e+003;2.858768e-002
1.079987e+003;2.861277e-002
1.081915e+003;2.830148e-002
1.083844e+003;2.863167e-002
1.085773e+003;2.923882e-002
1.087701e+003;2.945521e-002
1.089630e+003;2.938625e-002
1.091558e+003;2.927922e-002
1.093487e+003;2.976917e-002
1.095415e+003;3.123511e-002
1.097344e+003;3.338419e-002
1.099272e+003;3.518971e-002
1.101201e+003;3.612711e-002
1.103129e+003;3.605597e-002
1.105058e+003;3.488151e-002
1.106987e+003;3.296900e-002
1.108915e+003;3.038826e-002
1.110844e+003;2.818603e-002
1.112772e+003;2.704271e-002
1.114701e+003;2.658116e-002
1.116629e+003;2.615831e-002
1.118558e+003;2.569083e-002
1.120486e+003;2.533730e-002
1.122415e+003;2.523335e-002
1.124344e+003;2.503028e-002
1.126272e+003;2.485390e-002
1.128201e+003;2.511646e-002
1.130129e+003;2.526456e-002
1.132058e+003;2.529248e-002
1.133986e+003;2.627129e-002
1.135915e+003;2.798522e-002
1.137843e+003;2.962229e-002
1.139772e+003;3.147562e-002
1.141700e+003;3.350382e-002
1.143629e+003;3.655409e-002
1.145557e+003;4.005873e-002
1.147486e+003;4.348420e-002
1.149415e+003;4.709936e-002
1.151343e+003;5.056253e-002
1.153272e+003;5.234783e-002
1.155200e+003;5.284667e-002
1.157129e+003;5.270674e-002
1.159057e+003;5.258880e-002
1.160986e+003;5.333619e-002
1.162914e+003;5.396533e-002
1.164843e+003;5.350571e-002
1.166771e+003;5.182929e-002
1.168700e+003;4.876051e-002
1.170629e+003;4.497028e-002
1.172557e+003;4.069809e-002
1.174486e+003;3.608441e-002
1.176414e+003;3.196206e-002
1.178343e+003;2.844173e-002
1.180271e+003;2.580770e-002
1.182200e+003;2.404590e-002
1.184128e+003;2.278305e-002
1.186057e+003;2.191883e-002
1.187986e+003;2.159942e-002
1.189914e+003;2.176894e-002
1.191843e+003;2.209315e-002
1.193771e+003;2.234061e-002
1.195700e+003;2.246610e-002
1.197628e+003;2.235575e-002
1.199557e+003;2.223339e-002
1.201485e+003;2.233754e-002
1.203414e+003;2.280414e-002
1.205343e+003;2.328694e-002
1.207271e+003;2.350906e-002
1.209200e+003;2.389523e-002
1.211128e+003;2.496037e-002
1.213057e+003;2.699370e-002
1.214985e+003;2.874720e-002
1.216914e+003;2.967004e-002
1.218842e+003;2.970027e-002
1.220771e+003;2.892662e-002
1.222699e+003;2.764221e-002
1.224628e+003;2.649155e-002
1.226557e+003;2.547944e-002
1.228485e+003;2.479184e-002
1.230414e+003;2.440445e-002
1.232342e+003;2.442926e-002
1.234271e+003;2.455126e-002
1.236199e+003;2.461388e-002
1.238128e+003;2.467869e-002
1.240056e+003;2.492892e-002
1.241985e+003;2.504930e-002
1.243913e+003;2.485836e-002
1.245842e+003;2.504271e-002
1.247771e+003;2.589551e-002
1.249699e+003;2.751772e-002
1.251628e+003;2.989591e-002
1.253556e+003;3.283393e-002
1.255485e+003;3.501305e-002
1.257413e+003;3.414249e-002
1.259342e+003;3.146557e-002
1.261270e+003;2.938571e-002
1.263199e+003;2.763207e-002
1.265127e+003;2.637053e-002
1.267056e+003;2.593923e-002
1.268985e+003;2.560567e-002
1.270913e+003;2.535750e-002
1.272842e+003;2.536934e-002
1.274770e+003;2.530295e-002
1.276699e+003;2.552891e-002
1.278627e+003;2.574845e-002
1.280556e+003;2.602242e-002
1.282484e+003;2.707219e-002
1.284413e+003;2.813247e-002
1.286342e+003;2.916415e-002
1.288270e+003;3.071218e-002
1.290199e+003;3.256574e-002
1.292127e+003;3.446069e-002
1.294056e+003;3.574315e-002
1.295984e+003;3.635294e-002
1.297913e+003;3.628929e-002
1.299841e+003;3.634862e-002
1.301770e+003;3.746916e-002
1.303698e+003;3.883112e-002
1.305627e+003;3.862483e-002
1.307556e+003;3.622791e-002
1.309484e+003;3.328952e-002
1.311413e+003;3.149543e-002
1.313341e+003;3.105421e-002
1.315270e+003;3.131292e-002
1.317198e+003;3.206179e-002
1.319127e+003;3.332154e-002
1.321055e+003;3.518656e-002
1.322984e+003;3.765243e-002
1.324912e+003;4.052131e-002
1.326841e+003;4.306279e-002
1.328770e+003;4.432233e-002
1.330698e+003;4.429495e-002
1.332627e+003;4.320566e-002
1.334555e+003;4.188089e-002
1.336484e+003;4.091863e-002
1.338412e+003;4.047592e-002
1.340341e+003;4.135829e-002
1.342269e+003;4.330013e-002
1.344198e+003;4.545777e-002
1.346126e+003;4.812155e-002
1.348055e+003;5.125114e-002
1.349984e+003;5.499052e-002
1.351912e+003;6.020426e-002
1.353841e+003;6.739578e-002
1.355769e+003;7.580474e-002
1.357698e+003;8.245905e-002
1.359626e+003;8.466610e-002
1.361555e+003;8.345079e-002
1.363483e+003;8.322519e-002
1.365412e+003;8.705424e-002
1.367341e+003;9.601652e-002
1.369269e+003;1.126303e-001
1.371198e+003;1.371706e-001
1.373126e+003;1.655550e-001
1.375055e+003;1.885340e-001
1.376983e+003;1.934385e-001
1.378912e+003;1.768888e-001
1.380840e+003;1.498695e-001
1.382769e+003;1.225391e-001
1.384698e+003;1.000971e-001
1.386626e+003;8.424685e-002
1.388555e+003;7.598512e-002
1.390483e+003;7.260028e-002
1.392412e+003;7.039849e-002
1.394340e+003;6.956019e-002
1.396269e+003;7.135171e-002
1.398197e+003;7.369669e-002
1.400126e+003;7.661463e-002
1.402054e+003;7.929815e-002
1.403983e+003;8.078716e-002
1.405911e+003;8.271765e-002
1.407840e+003;8.537927e-002
1.409769e+003;8.781742e-002
1.411697e+003;9.006996e-002
1.413626e+003;9.224635e-002
1.415554e+003;9.394057e-002
1.417483e+003;9.398463e-002
1.419411e+003;9.480873e-002
1.421340e+003;9.857820e-002
1.423268e+003;1.014724e-001
1.425197e+003;1.039730e-001
1.427125e+003;1.070147e-001
1.429054e+003;1.110515e-001
1.430983e+003;1.172227e-001
1.432911e+003;1.241171e-001
1.434840e+003;1.266980e-001
1.436768e+003;1.259857e-001
1.438697e+003;1.282735e-001
1.440625e+003;1.313439e-001
1.442554e+003;1.355201e-001
1.444482e+003;1.423219e-001
1.446411e+003;1.502839e-001
1.448340e+003;1.583852e-001
1.450268e+003;1.650766e-001
1.452197e+003;1.680864e-001
1.454125e+003;1.668340e-001
1.456054e+003;1.612798e-001
1.457982e+003;1.594257e-001
1.459911e+003;1.603104e-001
1.461839e+003;1.566804e-001
1.463768e+003;1.484263e-001
1.465697e+003;1.397216e-001
1.467625e+003;1.313142e-001
1.469554e+003;1.204862e-001
1.471482e+003;1.080310e-001
1.473411e+003;9.892280e-002
1.475339e+003;9.329592e-002
1.477268e+003;8.813025e-002
1.479196e+003;8.384046e-002
1.481125e+003;7.976201e-002
1.483053e+003;7.629558e-002
1.484982e+003;7.247575e-002
1.486911e+003;6.807628e-002
1.488839e+003;6.434817e-002
1.490768e+003;6.288523e-002
1.492696e+003;6.238357e-002
1.494625e+003;5.916276e-002
1.496553e+003;5.588467e-002
1.498482e+003;5.558322e-002
1.500410e+003;5.551138e-002
1.502339e+003;5.408281e-002
1.504267e+003;4.858094e-002
1.506196e+003;4.261917e-002
1.508125e+003;4.395257e-002
1.510053e+003;4.670490e-002
1.511982e+003;4.638945e-002
1.513910e+003;4.529434e-002
1.515839e+003;4.296442e-002
1.517767e+003;4.120186e-002
1.519696e+003;3.804243e-002
1.521624e+003;3.594074e-002
1.523553e+003;3.771719e-002
1.525481e+003;3.800630e-002
1.527410e+003;3.822866e-002
1.529339e+003;3.887787e-002
1.531267e+003;3.798493e-002
1.533196e+003;3.592138e-002
1.535124e+003;3.616827e-002
1.537053e+003;3.359804e-002
1.538981e+003;2.743837e-002
1.540910e+003;2.720284e-002
1.542838e+003;3.071780e-002
1.544767e+003;3.260685e-002
1.546695e+003;3.382653e-002
1.548624e+003;3.350533e-002
1.550553e+003;3.275843e-002
1.552481e+003;3.112699e-002
1.554410e+003;2.869835e-002
1.556338e+003;2.557523e-002
1.558267e+003;1.984011e-002
1.560195e+003;2.133171e-002
1.562124e+003;2.760760e-002
1.564052e+003;2.946166e-002
1.565981e+003;2.940245e-002
1.567910e+003;2.797628e-002
1.569838e+003;2.686224e-002
1.571767e+003;2.854154e-002
1.573695e+003;2.747366e-002
1.575624e+003;2.416572e-002
1.577552e+003;2.603392e-002
1.579481e+003;2.884521e-002
1.581409e+003;2.881129e-002
1.583338e+003;2.840600e-002
1.585266e+003;2.811921e-002
1.587195e+003;2.767470e-002
1.589124e+003;2.703101e-002
1.591052e+003;2.678823e-002
1.592981e+003;2.645134e-002
1.594909e+003;2.621293e-002
1.596838e+003;2.627678e-002
1.598766e+003;2.623278e-002
1.600695e+003;2.595439e-002
1.602623e+003;2.589368e-002
1.604552e+003;2.603276e-002
1.606480e+003;2.598496e-002
1.608409e+003;2.577788e-002
1.610338e+003;2.577370e-002
1.612266e+003;2.562528e-002
1.614195e+003;2.388330e-002
1.616123e+003;2.074941e-002
1.618052e+003;2.231637e-002
1.619980e+003;2.501842e-002
1.621909e+003;2.417539e-002
1.623837e+003;2.336134e-002
1.625766e+003;2.420373e-002
1.627694e+003;2.465736e-002
1.629623e+003;2.532336e-002
1.631552e+003;2.559723e-002
1.633480e+003;2.277781e-002
1.635409e+003;1.968840e-002
1.637337e+003;2.208618e-002
1.639266e+003;2.519054e-002
1.641194e+003;2.589252e-002
1.643123e+003;2.478833e-002
1.645051e+003;2.169471e-002
1.646980e+003;2.092005e-002
1.648909e+003;2.301626e-002
1.650837e+003;1.922569e-002
1.652766e+003;1.336636e-002
1.654694e+003;1.830682e-002
1.656623e+003;2.398311e-002
1.658551e+003;2.482749e-002
1.660480e+003;2.379173e-002
1.662408e+003;2.245626e-002
1.664337e+003;2.333204e-002
1.666266e+003;2.356317e-002
1.668194e+003;2.098807e-002
1.670123e+003;1.990827e-002
1.672051e+003;2.103498e-002
1.673980e+003;2.013304e-002
1.675908e+003;2.009722e-002
1.677837e+003;2.190775e-002
1.679765e+003;2.148580e-002
1.681694e+003;1.876942e-002
1.683622e+003;1.357361e-002
1.685551e+003;1.485666e-002
1.687479e+003;1.948538e-002
1.689408e+003;2.019756e-002
1.691337e+003;2.008004e-002
1.693265e+003;1.786481e-002
1.695194e+003;1.328022e-002
1.697122e+003;1.321901e-002
1.699051e+003;1.171964e-002
1.700979e+003;1.170282e-002
1.702908e+003;1.576323e-002
1.704836e+003;1.589914e-002
1.706765e+003;1.610802e-002
1.708693e+003;1.645639e-002
1.710622e+003;1.635285e-002
1.712551e+003;1.544498e-002
1.714479e+003;1.339704e-002
1.716408e+003;9.987378e-003
1.718336e+003;1.012797e-002
1.720265e+003;1.383918e-002
1.722193e+003;1.511454e-002
1.724122e+003;1.485752e-002
1.726050e+003;1.496173e-002
1.727979e+003;1.459382e-002
1.729908e+003;1.371216e-002
1.731836e+003;1.080923e-002
1.733765e+003;7.954293e-003
1.735693e+003;1.114021e-002
1.737622e+003;1.349089e-002
1.739550e+003;1.254812e-002
1.741479e+003;1.274017e-002
1.743407e+003;1.266617e-002
1.745336e+003;1.202805e-002
1.747265e+003;1.062179e-002
1.749193e+003;8.778185e-003
1.751122e+003;7.726328e-003
1.753050e+003;8.895286e-003
1.754979e+003;8.962221e-003
1.756907e+003;8.184978e-003
1.758836e+003;8.065839e-003
1.760764e+003;6.814921e-003
1.762693e+003;6.411279e-003
1.764621e+003;7.115793e-003
1.766550e+003;6.115329e-003
1.768479e+003;5.259945e-003
1.770407e+003;3.865405e-003
1.772336e+003;2.237397e-003
1.774264e+003;3.858886e-003
1.776193e+003;5.592096e-003
1.778121e+003;5.789359e-003
1.780050e+003;5.255350e-003
1.781978e+003;5.162796e-003
1.783907e+003;5.093931e-003
1.785835e+003;5.640564e-003
1.787764e+003;6.264220e-003
1.789693e+003;5.675777e-003
1.791621e+003;4.778542e-003
1.793550e+003;6.352167e-003
1.795478e+003;8.777610e-003
1.797407e+003;9.005992e-003
1.799335e+003;8.129540e-003
1.801264e+003;7.660224e-003
1.803192e+003;7.775271e-003
1.805121e+003;7.187237e-003
1.807049e+003;6.442116e-003
1.808978e+003;5.432497e-003
1.810907e+003;4.346666e-003
1.812835e+003;4.037203e-003
1.814764e+003;4.037838e-003
1.816692e+003;3.845079e-003
1.818621e+003;3.858852e-003
1.820549e+003;3.631924e-003
1.822478e+003;3.407351e-003
1.824406e+003;2.929531e-003
1.826335e+003;3.096321e-003
1.828264e+003;2.632076e-003
1.830192e+003;2.080059e-003
1.832121e+003;2.899576e-003
1.834049e+003;3.471040e-003
1.835978e+003;3.521577e-003
1.837906e+003;3.346109e-003
1.839835e+003;3.075664e-003
1.841763e+003;2.021234e-003
1.843692e+003;4.284024e-004
1.845620e+003;1.197689e-003
1.847549e+003;2.338124e-003
1.849478e+003;2.522950e-003
1.851406e+003;2.605976e-003
1.853335e+003;2.449870e-003
1.855263e+003;2.244491e-003
1.857192e+003;2.170626e-003
1.859120e+003;2.008085e-003
1.861049e+003;1.995802e-003
1.862977e+003;2.009317e-003
1.864906e+003;1.531768e-003
1.866834e+003;5.928411e-004
1.868763e+003;-3.697601e-005
1.870692e+003;7.972736e-004
1.872620e+003;1.699186e-003
1.874549e+003;1.786147e-003
1.876477e+003;1.689706e-003
1.878406e+003;1.615535e-003
1.880334e+003;1.577657e-003
1.882263e+003;1.405299e-003
1.884191e+003;1.546831e-003
1.886120e+003;1.769778e-003
1.888048e+003;1.528908e-003
1.889977e+003;1.441999e-003
1.891906e+003;1.790871e-003
1.893834e+003;1.908633e-003
1.895763e+003;1.993738e-003
1.897691e+003;2.089148e-003
1.899620e+003;2.236698e-003
1.901548e+003;2.104663e-003
1.903477e+003;1.856287e-003
1.905405e+003;1.606523e-003
1.907334e+003;1.488211e-003
1.909262e+003;1.458754e-003
1.911191e+003;1.569908e-003
1.913120e+003;1.645202e-003
1.915048e+003;1.530338e-003
1.916977e+003;6.828327e-004
1.918905e+003;5.694503e-004
1.920834e+003;1.090218e-003
1.922762e+003;8.848175e-004
1.924691e+003;9.892159e-004
1.926619e+003;1.387914e-003
1.928548e+003;1.462511e-003
1.930477e+003;1.294021e-003
1.932405e+003;1.038635e-003
1.934334e+003;7.586365e-004
1.936262e+003;7.280346e-004
1.938191e+003;6.019986e-004
1.940119e+003;2.118113e-004
1.942048e+003;-2.750117e-006
1.943976e+003;4.287009e-004
1.945905e+003;8.299055e-004
1.947833e+003;1.022925e-003
1.949762e+003;1.010902e-003
1.951691e+003;6.603994e-004
1.953619e+003;2.771884e-004
1.955548e+003;2.713863e-004
1.957476e+003;4.809749e-004
1.959405e+003;5.801668e-004
1.961333e+003;8.186849e-004
1.963262e+003;1.111777e-003
1.965190e+003;8.476997e-004
1.967119e+003;4.276728e-004
1.969047e+003;5.183599e-004
1.970976e+003;7.249480e-004
1.972905e+003;7.764942e-004
1.974833e+003;6.810074e-004
1.976762e+003;7.441982e-004
1.978690e+003;8.219714e-004
1.980619e+003;7.807761e-004
1.982547e+003;6.603662e-004
1.984476e+003;8.819622e-004
1.986404e+003;9.700544e-004
1.988333e+003;9.872898e-004
1.990261e+003;9.178875e-004
1.992190e+003;6.981982e-004
1.994119e+003;9.552771e-004
1.996047e+003;1.139416e-003
1.997976e+003;1.033254e-003
1.999904e+003;1.115597e-003
2.001833e+003;1.277471e-003
2.003761e+003;1.142140e-003
2.005690e+003;9.217393e-004
2.007618e+003;7.700215e-004
2.009547e+003;7.622545e-004
2.011476e+003;8.746911e-004
2.013404e+003;1.000142e-003
2.015333e+003;1.095699e-003
2.017261e+003;1.275245e-003
2.019190e+003;1.502508e-003
2.021118e+003;1.531169e-003
2.023047e+003;1.329582e-003
2.024975e+003;1.212973e-003
2.026904e+003;1.552450e-003
2.028833e+003;1.723203e-003
2.030761e+003;1.540313e-003
2.032690e+003;1.542342e-003
2.034618e+003;1.858949e-003
2.036547e+003;1.833394e-003
2.038475e+003;1.628473e-003
2.040404e+003;1.585206e-003
2.042332e+003;1.655812e-003
2.044261e+003;1.682322e-003
2.046189e+003;1.690105e-003
2.048118e+003;1.744161e-003
2.050047e+003;1.707336e-003
2.051975e+003;1.786047e-003
2.053904e+003;1.891394e-003
2.055832e+003;1.739138e-003
2.057761e+003;1.527711e-003
2.059689e+003;1.558802e-003
2.061618e+003;1.688908e-003
2.063546e+003;1.619393e-003
2.065475e+003;1.420524e-003
2.067404e+003;1.282622e-003
2.069332e+003;1.396191e-003
2.071260e+003;1.558037e-003
2.073189e+003;1.732817e-003
2.075118e+003;1.840315e-003
2.077046e+003;2.018171e-003
2.078975e+003;2.188541e-003
2.080903e+003;2.174855e-003
2.082832e+003;2.109058e-003
2.084760e+003;2.012845e-003
2.086689e+003;2.006620e-003
2.088617e+003;2.153643e-003
2.090546e+003;2.346685e-003
2.092475e+003;2.426778e-003
2.094403e+003;2.294653e-003
2.096332e+003;2.166130e-003
2.098260e+003;2.175454e-003
2.100189e+003;2.272969e-003
2.102117e+003;2.557711e-003
2.104046e+003;2.772808e-003
2.105974e+003;2.467364e-003
2.107903e+003;2.186976e-003
2.109832e+003;2.174022e-003
2.111760e+003;2.198698e-003
2.113688e+003;2.135296e-003
2.115617e+003;2.234899e-003
2.117546e+003;2.321135e-003
2.119474e+003;2.436208e-003
2.121403e+003;2.792550e-003
2.123331e+003;3.075398e-003
2.125260e+003;3.244380e-003
2.127188e+003;3.401907e-003
2.129117e+003;3.474280e-003
2.131045e+003;3.769103e-003
2.132974e+003;4.044761e-003
2.134903e+003;4.075063e-003
2.136831e+003;3.863633e-003
2.138760e+003;3.684184e-003
2.140688e+003;3.672956e-003
2.142617e+003;3.862998e-003
2.144545e+003;3.780834e-003
2.146474e+003;3.455442e-003
2.148402e+003;3.354289e-003
2.150331e+003;3.575060e-003
2.152260e+003;3.893687e-003
2.154188e+003;3.991522e-003
2.156117e+003;3.788121e-003
2.158045e+003;3.822115e-003
2.159974e+003;3.938924e-003
2.161902e+003;4.074294e-003
2.163831e+003;4.307109e-003
2.165759e+003;4.335956e-003
2.167688e+003;4.339838e-003
2.169616e+003;4.354062e-003
2.171545e+003;4.256949e-003
2.173474e+003;4.554581e-003
2.175402e+003;4.687229e-003
2.177331e+003;4.665693e-003
2.179259e+003;4.672860e-003
2.181188e+003;4.751273e-003
2.183116e+003;4.618673e-003
2.185045e+003;4.539146e-003
2.186973e+003;4.714627e-003
2.188902e+003;4.495286e-003
2.190831e+003;4.158353e-003
2.192759e+003;4.198966e-003
2.194688e+003;4.183677e-003
2.196616e+003;4.147547e-003
2.198545e+003;4.092756e-003
2.200473e+003;4.119750e-003
2.202402e+003;4.280472e-003
2.204330e+003;4.443364e-003
2.206259e+003;4.304432e-003
2.208188e+003;4.095499e-003
2.210116e+003;4.087037e-003
2.212044e+003;4.053825e-003
2.213973e+003;4.065899e-003
2.215902e+003;4.315174e-003
2.217830e+003;4.361124e-003
2.219759e+003;4.383314e-003
2.221687e+003;4.361392e-003
2.223616e+003;4.396401e-003
2.225544e+003;4.523476e-003
2.227473e+003;4.604173e-003
2.229401e+003;4.511423e-003
2.231330e+003;4.462980e-003
2.233259e+003;4.275587e-003
2.235187e+003;4.132461e-003
2.237116e+003;4.031952e-003
2.239044e+003;3.810883e-003
2.240973e+003;3.627012e-003
2.242901e+003;3.932070e-003
2.244830e+003;4.362329e-003
2.246758e+003;4.442058e-003
2.248687e+003;4.345193e-003
2.250615e+003;4.547215e-003
2.252544e+003;4.611406e-003
2.254473e+003;4.736132e-003
2.256401e+003;4.986228e-003
2.258330e+003;5.170811e-003
2.260258e+003;5.134732e-003
2.262187e+003;5.077605e-003
2.264115e+003;4.899228e-003
2.266044e+003;4.539681e-003
2.267972e+003;4.178090e-003
2.269901e+003;4.155275e-003
2.271830e+003;4.294694e-003
2.273758e+003;4.242227e-003
2.275687e+003;4.143834e-003
2.277615e+003;4.080581e-003
2.279544e+003;3.764858e-003
2.281472e+003;3.649699e-003
2.283401e+003;3.731270e-003
2.285329e+003;3.820711e-003
2.287258e+003;4.158955e-003
2.289187e+003;4.173607e-003
2.291115e+003;3.958819e-003
2.293043e+003;4.016803e-003
2.294972e+003;4.061584e-003
2.296901e+003;3.903684e-003
2.298829e+003;3.785514e-003
2.300758e+003;3.981925e-003
2.302686e+003;4.215293e-003
2.304615e+003;4.189298e-003
2.306543e+003;4.199903e-003
2.308472e+003;4.381640e-003
2.310400e+003;4.056032e-003
2.312329e+003;3.439478e-003
2.314258e+003;3.434268e-003
2.316186e+003;3.651704e-003
2.318115e+003;3.719038e-003
2.320043e+003;3.980119e-003
2.321972e+003;4.342717e-003
2.323900e+003;4.289909e-003
2.325829e+003;4.181937e-003
2.327757e+003;4.092322e-003
2.329686e+003;3.933808e-003
2.331615e+003;3.973599e-003
2.333543e+003;3.923577e-003
2.335472e+003;3.811485e-003
2.337400e+003;4.185550e-003
2.339329e+003;4.594160e-003
2.341257e+003;4.751575e-003
2.343186e+003;4.792512e-003
2.345114e+003;4.985022e-003
2.347043e+003;5.316393e-003
2.348971e+003;5.483129e-003
2.350900e+003;5.386837e-003
2.352829e+003;5.166049e-003
2.354757e+003;4.998697e-003
2.356686e+003;5.136275e-003
2.358614e+003;5.292478e-003
2.360543e+003;5.499471e-003
2.362471e+003;5.757326e-003
2.364400e+003;5.827271e-003
2.366328e+003;5.599346e-003
2.368257e+003;5.660571e-003
2.370186e+003;5.946973e-003
2.372114e+003;6.252824e-003
2.374042e+003;6.306510e-003
2.375971e+003;6.235547e-003
2.377900e+003;6.105349e-003
2.379828e+003;6.153135e-003
2.381757e+003;6.237900e-003
2.383685e+003;6.200994e-003
2.385614e+003;6.329372e-003
2.387542e+003;6.614533e-003
2.389471e+003;6.701171e-003
2.391399e+003;6.716347e-003
2.393328e+003;6.705109e-003
2.395257e+003;6.600605e-003
2.397185e+003;6.554452e-003
2.399114e+003;6.656319e-003
2.401042e+003;6.751985e-003
2.402971e+003;6.699758e-003
2.404899e+003;6.757638e-003
2.406828e+003;6.887123e-003
2.408756e+003;6.944119e-003
2.410685e+003;6.964995e-003
2.412614e+003;6.960752e-003
2.414542e+003;7.028904e-003
2.416471e+003;7.232077e-003
2.418399e+003;7.421054e-003
2.420328e+003;7.336126e-003
2.422256e+003;7.324871e-003
2.424185e+003;7.474918e-003
2.426113e+003;7.783737e-003
2.428042e+003;7.866088e-003
2.429970e+003;7.727711e-003
2.431899e+003;7.832147e-003
2.433828e+003;7.934315e-003
2.435756e+003;7.729869e-003
2.437685e+003;7.462884e-003
2.439613e+003;7.137586e-003
2.441542e+003;7.099560e-003
2.443470e+003;7.251888e-003
2.445399e+003;6.911699e-003
2.447327e+003;6.673715e-003
2.449256e+003;6.703157e-003
2.451185e+003;6.677079e-003
2.453113e+003;6.754408e-003
2.455042e+003;6.714766e-003
2.456970e+003;6.684347e-003
2.458899e+003;6.796207e-003
2.460827e+003;6.795299e-003
2.462756e+003;6.749831e-003
2.464684e+003;6.550012e-003
2.466613e+003;6.594853e-003
2.468542e+003;6.708944e-003
2.470470e+003;6.676675e-003
2.472398e+003;6.874399e-003
2.474327e+003;7.103062e-003
2.476256e+003;7.355031e-003
2.478184e+003;7.553367e-003
2.480113e+003;7.763464e-003
2.482041e+003;7.994959e-003
2.483970e+003;8.058717e-003
2.485898e+003;8.154084e-003
2.487827e+003;8.264871e-003
2.489755e+003;8.627652e-003
2.491684e+003;8.831913e-003
2.493613e+003;8.832014e-003
2.495541e+003;8.914327e-003
2.497470e+003;9.095985e-003
2.499398e+003;9.411377e-003
2.501327e+003;9.611840e-003
2.503255e+003;9.955677e-003
2.505184e+003;1.047894e-002
2.507112e+003;1.089494e-002
2.509041e+003;1.129254e-002
2.510969e+003;1.142382e-002
2.512898e+003;1.157087e-002
2.514827e+003;1.186413e-002
2.516755e+003;1.222096e-002
2.518684e+003;1.272779e-002
2.520612e+003;1.300400e-002
2.522541e+003;1.311166e-002
2.524469e+003;1.329611e-002
2.526398e+003;1.328330e-002
2.528326e+003;1.316173e-002
2.530255e+003;1.328450e-002
2.532184e+003;1.325307e-002
2.534112e+003;1.311781e-002
2.536041e+003;1.295983e-002
2.537969e+003;1.287459e-002
2.539898e+003;1.293545e-002
2.541826e+003;1.293992e-002
2.543755e+003;1.267037e-002
2.545683e+003;1.267989e-002
2.547612e+003;1.278784e-002
2.549541e+003;1.293303e-002
2.551469e+003;1.342387e-002
2.553397e+003;1.395584e-002
2.555326e+003;1.409400e-002
2.557255e+003;1.419285e-002
2.559183e+003;1.438108e-002
2.561112e+003;1.432115e-002
2.563040e+003;1.450964e-002
2.564969e+003;1.490370e-002
2.566897e+003;1.542713e-002
2.568826e+003;1.619331e-002
2.570754e+003;1.668048e-002
2.572683e+003;1.726500e-002
2.574612e+003;1.802442e-002
2.576540e+003;1.891960e-002
2.578469e+003;1.958693e-002
2.580397e+003;1.975653e-002
2.582326e+003;1.967037e-002
2.584254e+003;1.925735e-002
2.586183e+003;1.867460e-002
2.588111e+003;1.784886e-002
2.590040e+003;1.700005e-002
2.591969e+003;1.652013e-002
2.593897e+003;1.637528e-002
2.595826e+003;1.631545e-002
2.597754e+003;1.590784e-002
2.599683e+003;1.565910e-002
2.601611e+003;1.599930e-002
2.603540e+003;1.648220e-002
2.605468e+003;1.681909e-002
2.607397e+003;1.704137e-002
2.609325e+003;1.754864e-002
2.611254e+003;1.821780e-002
2.613183e+003;1.841964e-002
2.615111e+003;1.844802e-002
2.617040e+003;1.843033e-002
2.618968e+003;1.827679e-002
2.620897e+003;1.824106e-002
2.622825e+003;1.824949e-002
2.624754e+003;1.797082e-002
2.626682e+003;1.765084e-002
2.628611e+003;1.745074e-002
2.630540e+003;1.703368e-002
2.632468e+003;1.677759e-002
2.634396e+003;1.682715e-002
2.636325e+003;1.677207e-002
2.638254e+003;1.681740e-002
2.640182e+003;1.720026e-002
2.642111e+003;1.759442e-002
2.644039e+003;1.812939e-002
2.645968e+003;1.877928e-002
2.647896e+003;1.900772e-002
2.649825e+003;1.893739e-002
2.651753e+003;1.908780e-002
2.653682e+003;1.948715e-002
2.655611e+003;1.978324e-002
2.657539e+003;2.011582e-002
2.659468e+003;2.055232e-002
2.661396e+003;2.069783e-002
2.663325e+003;2.065711e-002
2.665253e+003;2.067257e-002
2.667182e+003;2.054353e-002
2.669110e+003;2.044814e-002
2.671039e+003;2.056427e-002
2.672968e+003;2.073759e-002
2.674896e+003;2.135144e-002
2.676825e+003;2.195250e-002
2.678753e+003;2.179427e-002
2.680682e+003;2.134921e-002
2.682610e+003;2.121799e-002
2.684539e+003;2.133811e-002
2.686467e+003;2.160381e-002
2.688396e+003;2.176545e-002
2.690324e+003;2.147808e-002
2.692253e+003;2.142774e-002
2.694182e+003;2.123754e-002
2.696110e+003;2.077238e-002
2.698039e+003;2.090559e-002
2.699967e+003;2.163309e-002
2.701896e+003;2.243351e-002
2.703824e+003;2.319298e-002
2.705753e+003;2.380146e-002
2.707681e+003;2.436680e-002
2.709610e+003;2.528448e-002
2.711539e+003;2.665362e-002
2.713467e+003;2.799925e-002
2.715396e+003;2.903171e-002
2.717324e+003;3.039664e-002
2.719253e+003;3.213164e-002
2.721181e+003;3.370147e-002
2.723110e+003;3.441216e-002
2.725038e+003;3.415238e-002
2.726967e+003;3.324914e-002
2.728896e+003;3.193963e-002
2.730824e+003;3.077662e-002
2.732752e+003;2.954954e-002
2.734681e+003;2.834682e-002
2.736610e+003;2.757184e-002
2.738538e+003;2.669322e-002
2.740467e+003;2.594422e-002
2.742395e+003;2.548049e-002
2.744324e+003;2.471176e-002
2.746252e+003;2.397107e-002
2.748181e+003;2.369391e-002
2.750109e+003;2.375260e-002
2.752038e+003;2.394148e-002
2.753967e+003;2.374857e-002
2.755895e+003;2.389922e-002
2.757824e+003;2.458323e-002
2.759752e+003;2.500813e-002
2.761681e+003;2.532044e-002
2.763609e+003;2.574220e-002
2.765538e+003;2.612544e-002
2.767466e+003;2.668089e-002
2.769395e+003;2.716647e-002
2.771323e+003;2.748058e-002
2.773252e+003;2.791967e-002
2.775181e+003;2.846260e-002
2.777109e+003;2.912397e-002
2.779038e+003;3.020049e-002
2.780966e+003;3.126673e-002
2.782895e+003;3.248914e-002
2.784823e+003;3.397316e-002
2.786752e+003;3.531887e-002
2.788680e+003;3.670334e-002
2.790609e+003;3.835586e-002
2.792538e+003;4.029021e-002
2.794466e+003;4.190516e-002
2.796395e+003;4.334677e-002
2.798323e+003;4.476883e-002
2.800252e+003;4.604910e-002
2.802180e+003;4.789547e-002
2.804109e+003;5.035665e-002
2.806037e+003;5.266005e-002
2.807966e+003;5.468086e-002
2.809895e+003;5.633553e-002
2.811823e+003;5.807678e-002
2.813751e+003;6.016342e-002
2.815680e+003;6.232673e-002
2.817609e+003;6.466407e-002
2.819537e+003;6.748382e-002
2.821466e+003;7.076947e-002
2.823394e+003;7.469599e-002
2.825323e+003;7.963180e-002
2.827251e+003;8.599349e-002
2.829180e+003;9.401050e-002
2.831108e+003;1.036610e-001
2.833037e+003;1.132763e-001
2.834966e+003;1.206534e-001
2.836894e+003;1.242549e-001
2.838823e+003;1.240398e-001
2.840751e+003;1.213328e-001
2.842680e+003;1.173796e-001
2.844608e+003;1.128831e-001
2.846537e+003;1.084739e-001
2.848465e+003;1.053358e-001
2.850394e+003;1.036166e-001
2.852323e+003;1.025608e-001
2.854251e+003;1.018300e-001
2.856180e+003;1.020878e-001
2.858108e+003;1.047775e-001
2.860037e+003;1.099533e-001
2.861965e+003;1.170702e-001
2.863894e+003;1.243787e-001
2.865822e+003;1.300623e-001
2.867751e+003;1.339697e-001
2.869679e+003;1.359378e-001
2.871608e+003;1.372369e-001
2.873536e+003;1.381827e-001
2.875465e+003;1.377443e-001
2.877394e+003;1.361400e-001
2.879322e+003;1.343884e-001
2.881251e+003;1.331039e-001
2.883179e+003;1.323663e-001
2.885108e+003;1.323918e-001
2.887036e+003;1.326627e-001
2.888965e+003;1.337254e-001
2.890893e+003;1.364176e-001
2.892822e+003;1.397413e-001
2.894750e+003;1.433941e-001
2.896679e+003;1.481151e-001
2.898608e+003;1.536890e-001
2.900536e+003;1.592701e-001
2.902465e+003;1.645373e-001
2.904393e+003;1.701255e-001
2.906322e+003;1.754615e-001
2.908250e+003;1.800288e-001
2.910179e+003;1.843037e-001
2.912107e+003;1.880590e-001
2.914036e+003;1.907429e-001
2.915965e+003;1.918369e-001
2.917893e+003;1.910889e-001
2.919822e+003;1.883160e-001
2.921750e+003;1.840235e-001
2.923679e+003;1.788915e-001
2.925607e+003;1.727316e-001
2.927536e+003;1.656402e-001
2.929464e+003;1.581748e-001
2.931393e+003;1.499959e-001
2.933322e+003;1.413553e-001
2.935250e+003;1.339751e-001
2.937178e+003;1.283839e-001
2.939107e+003;1.250671e-001
2.941036e+003;1.247678e-001
2.942964e+003;1.276916e-001
2.944893e+003;1.334401e-001
2.946821e+003;1.400246e-001
2.948750e+003;1.457377e-001
2.950678e+003;1.496463e-001
2.952607e+003;1.510472e-001
2.954535e+003;1.497255e-001
2.956464e+003;1.469078e-001
2.958393e+003;1.430044e-001
2.960321e+003;1.380043e-001
2.962250e+003;1.316100e-001
2.964178e+003;1.241410e-001
2.966107e+003;1.168413e-001
2.968035e+003;1.095955e-001
2.969964e+003;1.027880e-001
2.971892e+003;9.653369e-002
2.973821e+003;9.087568e-002
2.975750e+003;8.565447e-002
2.977678e+003;8.047359e-002
2.979607e+003;7.591219e-002
2.981535e+003;7.220197e-002
2.983464e+003;6.914963e-002
2.985392e+003;6.600278e-002
2.987321e+003;6.248016e-002
2.989249e+003;5.941252e-002
2.991178e+003;5.655661e-002
2.993106e+003;5.374264e-002
2.995035e+003;5.127676e-002
2.996964e+003;4.932915e-002
2.998892e+003;4.726029e-002
3.000821e+003;4.489293e-002
3.002749e+003;4.256183e-002
3.004678e+003;4.034359e-002
3.006606e+003;3.833947e-002
3.008535e+003;3.650158e-002
3.010463e+003;3.492161e-002
3.012392e+003;3.343275e-002
3.014321e+003;3.206343e-002
3.016249e+003;3.092030e-002
3.018177e+003;2.973184e-002
3.020106e+003;2.851351e-002
3.022035e+003;2.719942e-002
3.023963e+003;2.591643e-002
3.025892e+003;2.506156e-002
3.027820e+003;2.429150e-002
3.029749e+003;2.342872e-002
3.031677e+003;2.256713e-002
3.033606e+003;2.200168e-002
3.035534e+003;2.154168e-002
3.037463e+003;2.090942e-002
3.039392e+003;2.040341e-002
3.041320e+003;2.011180e-002
3.043249e+003;1.979849e-002
3.045177e+003;1.902039e-002
3.047106e+003;1.856472e-002
3.049034e+003;1.838981e-002
3.050963e+003;1.806307e-002
3.052891e+003;1.777864e-002
3.054820e+003;1.775289e-002
3.056749e+003;1.771310e-002
3.058677e+003;1.770205e-002
3.060606e+003;1.759087e-002
3.062534e+003;1.740449e-002
3.064463e+003;1.710629e-002
3.066391e+003;1.650612e-002
3.068320e+003;1.597641e-002
3.070248e+003;1.611727e-002
3.072177e+003;1.631452e-002
3.074105e+003;1.634573e-002
3.076034e+003;1.586694e-002
3.077963e+003;1.555390e-002
3.079891e+003;1.570548e-002
3.081820e+003;1.554967e-002
3.083748e+003;1.542194e-002
3.085677e+003;1.543705e-002
3.087605e+003;1.539753e-002
3.089534e+003;1.521614e-002
3.091462e+003;1.529504e-002
3.093391e+003;1.560569e-002
3.095320e+003;1.570194e-002
3.097248e+003;1.580388e-002
3.099177e+003;1.575151e-002
3.101105e+003;1.555565e-002
3.103034e+003;1.551211e-002
3.104962e+003;1.535980e-002
3.106891e+003;1.531807e-002
3.108819e+003;1.519167e-002
3.110748e+003;1.527310e-002
3.112677e+003;1.560933e-002
3.114605e+003;1.578979e-002
3.116533e+003;1.566566e-002
3.118462e+003;1.563159e-002
3.120391e+003;1.576419e-002
3.122319e+003;1.559673e-002
3.124248e+003;1.552897e-002
3.126176e+003;1.582913e-002
3.128105e+003;1.597947e-002
3.130033e+003;1.600938e-002
3.131962e+003;1.628250e-002
3.133890e+003;1.609547e-002
3.135819e+003;1.571661e-002
3.137748e+003;1.563688e-002
3.139676e+003;1.608264e-002
3.141605e+003;1.665490e-002
3.143533e+003;1.699485e-002
3.145462e+003;1.686714e-002
3.147390e+003;1.678148e-002
3.149319e+003;1.697796e-002
3.151247e+003;1.686104e-002
3.153176e+003;1.667032e-002
3.155104e+003;1.709165e-002
3.157033e+003;1.700480e-002
3.158962e+003;1.686262e-002
3.160890e+003;1.709016e-002
3.162819e+003;1.703179e-002
3.164747e+003;1.677249e-002
3.166676e+003;1.639066e-002
3.168604e+003;1.649266e-002
3.170533e+003;1.690678e-002
3.172461e+003;1.681230e-002
3.174390e+003;1.655021e-002
3.176319e+003;1.634662e-002
3.178247e+003;1.629271e-002
3.180176e+003;1.673716e-002
3.182104e+003;1.697524e-002
3.184033e+003;1.680920e-002
3.185961e+003;1.714141e-002
3.187890e+003;1.720108e-002
3.189818e+003;1.710716e-002
3.191747e+003;1.708734e-002
3.193676e+003;1.712301e-002
3.195604e+003;1.698082e-002
3.197532e+003;1.709854e-002
3.199461e+003;1.739755e-002
3.201390e+003;1.771465e-002
3.203318e+003;1.780491e-002
3.205247e+003;1.740110e-002
3.207175e+003;1.725211e-002
3.209104e+003;1.721125e-002
3.211032e+003;1.728893e-002
3.212961e+003;1.733703e-002
3.214889e+003;1.713583e-002
3.216818e+003;1.687223e-002
3.218747e+003;1.655627e-002
3.220675e+003;1.614285e-002
3.222604e+003;1.599999e-002
3.224532e+003;1.610042e-002
3.226461e+003;1.607952e-002
3.228389e+003;1.607016e-002
3.230318e+003;1.591966e-002
3.232246e+003;1.547894e-002
3.234175e+003;1.480455e-002
3.236104e+003;1.460767e-002
3.238032e+003;1.475933e-002
3.239961e+003;1.503218e-002
3.241889e+003;1.500559e-002
3.243818e+003;1.442325e-002
3.245746e+003;1.435122e-002
3.247675e+003;1.473811e-002
3.249603e+003;1.467357e-002
3.251532e+003;1.455432e-002
3.253460e+003;1.455507e-002
3.255389e+003;1.418926e-002
3.257318e+003;1.426379e-002
3.259246e+003;1.461439e-002
3.261175e+003;1.436680e-002
3.263103e+003;1.405385e-002
3.265032e+003;1.384674e-002
3.266960e+003;1.362240e-002
3.268889e+003;1.348539e-002
3.270817e+003;1.400341e-002
3.272746e+003;1.458940e-002
3.274675e+003;1.440095e-002
3.276603e+003;1.422254e-002
3.278531e+003;1.440225e-002
3.280460e+003;1.454599e-002
3.282389e+003;1.473379e-002
3.284317e+003;1.483177e-002
3.286246e+003;1.478830e-002
3.288174e+003;1.479111e-002
3.290103e+003;1.503070e-002
3.292031e+003;1.517064e-002
3.293960e+003;1.477026e-002
3.295888e+003;1.415763e-002
3.297817e+003;1.418330e-002
3.299746e+003;1.447151e-002
3.301674e+003;1.457937e-002
3.303603e+003;1.444870e-002
3.305531e+003;1.411409e-002
3.307460e+003;1.383939e-002
3.309388e+003;1.398527e-002
3.311317e+003;1.417173e-002
3.313245e+003;1.399471e-002
3.315174e+003;1.403041e-002
3.317103e+003;1.425599e-002
3.319031e+003;1.409995e-002
3.320960e+003;1.396758e-002
3.322888e+003;1.425941e-002
3.324817e+003;1.399208e-002
3.326745e+003;1.370207e-002
3.328674e+003;1.401901e-002
3.330602e+003;1.395831e-002
3.332531e+003;1.371848e-002
3.334459e+003;1.402414e-002
3.336388e+003;1.441691e-002
3.338317e+003;1.432461e-002
3.340245e+003;1.424609e-002
3.342174e+003;1.424958e-002
3.344102e+003;1.455997e-002
3.346031e+003;1.501064e-002
3.347959e+003;1.525406e-002
3.349888e+003;1.515801e-002
3.351816e+003;1.491142e-002
3.353745e+003;1.470181e-002
3.355674e+003;1.439793e-002
3.357602e+003;1.435807e-002
3.359531e+003;1.420312e-002
3.361459e+003;1.406915e-002
3.363388e+003;1.409208e-002
3.365316e+003;1.410950e-002
3.367245e+003;1.425804e-002
3.369173e+003;1.434389e-002
3.371102e+003;1.395577e-002
3.373031e+003;1.348515e-002
3.374959e+003;1.370737e-002
3.376887e+003;1.416571e-002
3.378816e+003;1.394794e-002
3.380745e+003;1.338826e-002
3.382673e+003;1.339445e-002
3.384602e+003;1.338683e-002
3.386530e+003;1.339643e-002
3.388459e+003;1.353680e-002
3.390387e+003;1.372580e-002
3.392316e+003;1.415800e-002
3.394244e+003;1.453544e-002
3.396173e+003;1.456011e-002
3.398102e+003;1.409293e-002
3.400030e+003;1.360845e-002
3.401959e+003;1.349711e-002
3.403887e+003;1.334640e-002
3.405816e+003;1.330451e-002
3.407744e+003;1.338495e-002
3.409673e+003;1.334442e-002
3.411601e+003;1.320972e-002
3.413530e+003;1.324473e-002
3.415458e+003;1.337411e-002
3.417387e+003;1.340897e-002
3.419316e+003;1.340436e-002
3.421244e+003;1.358770e-002
3.423173e+003;1.350921e-002
3.425101e+003;1.312167e-002
3.427030e+003;1.287026e-002
3.428958e+003;1.261903e-002
3.430887e+003;1.239596e-002
3.432815e+003;1.237452e-002
3.434744e+003;1.236705e-002
3.436673e+003;1.240848e-002
3.438601e+003;1.260903e-002
3.440530e+003;1.231357e-002
3.442458e+003;1.209046e-002
3.444387e+003;1.222856e-002
3.446315e+003;1.173165e-002
3.448244e+003;1.138117e-002
3.450172e+003;1.125472e-002
3.452101e+003;1.112029e-002
3.454030e+003;1.067694e-002
3.455958e+003;1.025073e-002
3.457886e+003;1.062325e-002
3.459815e+003;1.082149e-002
3.461744e+003;1.045732e-002
3.463672e+003;1.020334e-002
3.465601e+003;1.024462e-002
3.467529e+003;1.062672e-002
3.469458e+003;1.073212e-002
3.471386e+003;1.067870e-002
3.473315e+003;1.042063e-002
3.475243e+003;1.016541e-002
3.477172e+003;1.022807e-002
3.479101e+003;9.944998e-003
3.481029e+003;9.716053e-003
3.482958e+003;9.638229e-003
3.484886e+003;9.279174e-003
3.486815e+003;9.041445e-003
3.488743e+003;9.093346e-003
3.490672e+003;9.019422e-003
3.492600e+003;8.830932e-003
3.494529e+003;8.970339e-003
3.496458e+003;8.815615e-003
3.498386e+003;8.972030e-003
3.500315e+003;8.863565e-003
3.502243e+003;8.415278e-003
3.504172e+003;8.619912e-003
3.506100e+003;8.651447e-003
3.508029e+003;8.042819e-003
3.509957e+003;7.777902e-003
3.511886e+003;8.050211e-003
3.513814e+003;8.342010e-003
3.515743e+003;8.237214e-003
3.517672e+003;7.944203e-003
3.519600e+003;7.689733e-003
3.521529e+003;7.388362e-003
3.523457e+003;7.457120e-003
3.525386e+003;7.597132e-003
3.527314e+003;7.305091e-003
3.529243e+003;7.202431e-003
3.531171e+003;7.286760e-003
3.533100e+003;7.362647e-003
3.535029e+003;7.083966e-003
3.536957e+003;6.565956e-003
3.538885e+003;6.418811e-003
3.540814e+003;6.622204e-003
3.542743e+003;6.230572e-003
3.544671e+003;5.915835e-003
3.546600e+003;6.105248e-003
3.548528e+003;6.302308e-003
3.550457e+003;6.121109e-003
3.552385e+003;6.088783e-003
3.554314e+003;6.328498e-003
3.556242e+003;5.957285e-003
3.558171e+003;5.293987e-003
3.560100e+003;5.120551e-003
3.562028e+003;5.519504e-003
3.563957e+003;4.990452e-003
3.565885e+003;3.174883e-003
3.567814e+003;2.888535e-003
3.569742e+003;3.957013e-003
3.571671e+003;4.453272e-003
3.573599e+003;4.425120e-003
3.575528e+003;4.191204e-003
3.577457e+003;4.146878e-003
3.579385e+003;4.080448e-003
3.581314e+003;3.965306e-003
3.583242e+003;4.121723e-003
3.585171e+003;3.437574e-003
3.587099e+003;2.071702e-003
3.589028e+003;1.972202e-003
3.590956e+003;2.614242e-003
3.592885e+003;2.861452e-003
3.594813e+003;2.948812e-003
3.596742e+003;3.158662e-003
3.598671e+003;3.089380e-003
3.600599e+003;2.903512e-003
3.602528e+003;3.118847e-003
3.604456e+003;2.953483e-003
3.606385e+003;1.671911e-003
3.608313e+003;4.797144e-004
3.610242e+003;5.748251e-004
3.612170e+003;5.435394e-004
3.614099e+003;5.192888e-004
3.616028e+003;4.570263e-004
3.617956e+003;-3.776301e-004
3.619885e+003;-1.031671e-004
3.621813e+003;1.037804e-003
3.623742e+003;1.373189e-003
3.625670e+003;5.430086e-004
3.627599e+003;-2.958709e-003
3.629527e+003;-3.115064e-003
3.631456e+003;1.656687e-004
3.633385e+003;9.148328e-004
3.635313e+003;7.509692e-004
3.637241e+003;3.641963e-004
3.639170e+003;1.932144e-004
3.641099e+003;4.213380e-004
3.643027e+003;2.138666e-004
3.644956e+003;-8.575233e-004
3.646884e+003;-3.486940e-003
3.648813e+003;-5.240608e-003
3.650741e+003;-3.657201e-003
3.652670e+003;-1.202359e-003
3.654598e+003;-1.818493e-003
3.656527e+003;-2.228402e-003
3.658456e+003;-7.875774e-004
3.660384e+003;-7.056977e-005
3.662313e+003;7.638067e-005
3.664241e+003;1.244361e-004
3.666170e+003;-2.551234e-004
3.668098e+003;-2.652711e-003
3.670027e+003;-4.618527e-003
3.671955e+003;-3.180032e-003
3.673884e+003;-4.701101e-003
3.675813e+003;-5.356807e-003
3.677741e+003;-2.027932e-003
3.679669e+003;-7.445791e-004
3.681598e+003;-2.203848e-004
3.683527e+003;6.686964e-005
3.685455e+003;-1.035198e-003
3.687384e+003;-4.414598e-003
3.689312e+003;-4.929499e-003
3.691241e+003;-2.612005e-003
3.693169e+003;-3.736906e-004
3.695098e+003;7.579063e-004
3.697026e+003;3.694360e-004
3.698955e+003;-2.992960e-004
3.700884e+003;-1.140036e-003
3.702812e+003;-1.158608e-003
3.704741e+003;-3.296248e-004
3.706669e+003;-2.043889e-004
3.708598e+003;-1.505285e-003
3.710526e+003;-3.545443e-003
3.712455e+003;-3.596150e-003
3.714383e+003;-1.306166e-003
3.716312e+003;-3.733264e-004
3.718240e+003;-7.693863e-004
3.720169e+003;-1.500332e-003
3.722098e+003;-1.862903e-003
3.724026e+003;-1.876496e-003
3.725955e+003;-1.708670e-003
3.727883e+003;-8.061315e-004
3.729812e+003;-1.753949e-003
3.731740e+003;-4.226587e-003
3.733669e+003;-5.420426e-003
3.735597e+003;-5.573412e-003
3.737526e+003;-2.850852e-003
3.739455e+003;-8.823241e-004
3.741383e+003;-2.498561e-003
3.743312e+003;-7.691121e-003
3.745240e+003;-7.106607e-003
3.747169e+003;-4.935166e-003
3.749097e+003;-7.616537e-003
3.751026e+003;-7.750590e-003
3.752954e+003;-4.266420e-003
3.754883e+003;-1.060022e-003
3.756812e+003;-1.255157e-003
3.758740e+003;-1.554118e-003
3.760668e+003;-8.318612e-004
3.762597e+003;8.092087e-005
3.764526e+003;-4.971898e-004
3.766454e+003;-4.063645e-004
3.768383e+003;-9.352939e-004
3.770311e+003;-1.142184e-003
3.772240e+003;-3.485561e-005
3.774168e+003;6.599680e-004
3.776097e+003;9.440914e-005
3.778025e+003;-6.161541e-004
3.779954e+003;-4.259280e-004
3.781883e+003;4.031633e-004
3.783811e+003;4.497955e-004
3.785740e+003;3.851883e-004
3.787668e+003;3.333569e-004
3.789597e+003;4.578886e-004
3.791525e+003;-5.062586e-005
3.793454e+003;-3.705786e-004
3.795382e+003;-9.357898e-004
3.797311e+003;-1.150876e-003
3.799240e+003;-3.362184e-003
3.801168e+003;-5.467054e-003
3.803097e+003;-2.439422e-003
3.805025e+003;-1.688570e-003
3.806954e+003;-2.306521e-003
3.808882e+003;-8.226403e-005
3.810811e+003;8.383045e-004
3.812739e+003;1.923857e-004
3.814668e+003;-2.682645e-003
3.816596e+003;-3.228282e-003
3.818525e+003;-2.342938e-003
3.820454e+003;-3.934255e-003
3.822382e+003;-2.582033e-003
3.824311e+003;-2.756871e-004
3.826239e+003;-6.427956e-006
3.828168e+003;1.140292e-004
3.830096e+003;-3.623021e-004
3.832025e+003;-8.330848e-004
3.833953e+003;-1.598786e-003
3.835882e+003;-3.696233e-003
3.837811e+003;-4.964714e-003
3.839739e+003;-2.977466e-003
3.841667e+003;-1.439208e-003
3.843596e+003;-1.052089e-003
3.845525e+003;5.102672e-006
3.847453e+003;6.609967e-004
3.849382e+003;-1.311022e-003
3.851310e+003;-6.593076e-003
3.853239e+003;-1.046059e-002
3.855167e+003;-5.771795e-003
3.857096e+003;-2.833030e-004
3.859024e+003;5.554828e-004
3.860953e+003;-2.518451e-004
3.862882e+003;-1.307454e-003
3.864810e+003;-1.664839e-003
3.866739e+003;-1.354559e-003
3.868667e+003;-2.678891e-003
3.870596e+003;-2.606241e-003
3.872524e+003;-1.581091e-003
3.874453e+003;-8.017328e-004
3.876381e+003;7.881452e-004
3.878310e+003;2.919759e-004
3.880239e+003;-6.435824e-004
3.882167e+003;-2.911837e-004
3.884096e+003;-1.720320e-003
3.886024e+003;-1.444162e-003
3.887953e+003;9.570702e-004
3.889881e+003;2.620982e-005
3.891810e+003;-3.878926e-004
3.893738e+003;9.783898e-004
3.895667e+003;1.035214e-003
3.897595e+003;9.608882e-007
3.899524e+003;-9.221677e-004
3.901453e+003;-1.261236e-003
3.903381e+003;-1.427551e-003
3.905310e+003;-3.771004e-004
3.907238e+003;9.711835e-004
3.909167e+003;1.888532e-003
3.911095e+003;2.237730e-003
3.913024e+003;1.991042e-003
3.914952e+003;1.523588e-003
3.916881e+003;1.164365e-003
3.918810e+003;1.230850e-003
3.920738e+003;1.584607e-003
3.922667e+003;1.678496e-003
3.924595e+003;1.373987e-003
3.926524e+003;1.366309e-003
3.928452e+003;1.698488e-003
3.930381e+003;1.662098e-003
3.932309e+003;1.502774e-003
3.934238e+003;2.092644e-003
3.936167e+003;2.346319e-003
3.938095e+003;2.045469e-003
3.940023e+003;1.331875e-003
3.941952e+003;1.102708e-003
3.943881e+003;1.344471e-003
3.945809e+003;1.523123e-003
3.947738e+003;1.775301e-003
3.949666e+003;2.019103e-003
3.951595e+003;2.447171e-003
3.953523e+003;2.683749e-003
3.955452e+003;2.598442e-003
3.957380e+003;2.744665e-003
3.959309e+003;2.376735e-003
3.961238e+003;1.319711e-003
3.963166e+003;1.257499e-003
3.965095e+003;1.652087e-003
3.967023e+003;1.768447e-003
3.968952e+003;1.926871e-003
3.970880e+003;2.003125e-003
3.972809e+003;1.792302e-003
3.974737e+003;2.179384e-003
3.976666e+003;2.432343e-003
3.978594e+003;2.213085e-003
3.980523e+003;2.231702e-003
3.982452e+003;2.273435e-003
3.984380e+003;2.378135e-003
3.986309e+003;3.131295e-003
3.988237e+003;3.547064e-003
3.990166e+003;3.576730e-003
3.992094e+003;3.533836e-003
3.994023e+003;2.953916e-003
3.995951e+003;2.717757e-003
3.997880e+003;3.194476e-003
3.999809e+003;3.881017e-003
4.001737e+003;0.000000e+000
