3.992094e+002;0.000000e+000
4.011380e+002;0.000000e+000
4.030665e+002;0.000000e+000
4.049951e+002;0.000000e+000
4.069236e+002;0.000000e+000
4.088522e+002;0.000000e+000
4.107807e+002;0.000000e+000
4.127093e+002;0.000000e+000
4.146378e+002;0.000000e+000
4.165664e+002;0.000000e+000
4.184949e+002;0.000000e+000
4.204235e+002;0.000000e+000
4.223520e+002;0.000000e+000
4.242806e+002;0.000000e+000
4.262091e+002;0.000000e+000
4.281377e+002;0.000000e+000
4.300662e+002;0.000000e+000
4.319948e+002;0.000000e+000
4.339233e+002;0.000000e+000
4.358519e+002;0.000000e+000
4.377804e+002;0.000000e+000
4.397090e+002;0.000000e+000
4.416375e+002;0.000000e+000
4.435660e+002;0.000000e+000
4.454946e+002;0.000000e+000
4.474232e+002;0.000000e+000
4.493517e+002;0.000000e+000
4.512802e+002;0.000000e+000
4.532088e+002;0.000000e+000
4.551373e+002;0.000000e+000
4.570659e+002;0.000000e+000
4.589944e+002;0.000000e+000
4.609230e+002;0.000000e+000
4.628515e+002;0.000000e+000
4.647801e+002;0.000000e+000
4.667086e+002;0.000000e+000
4.686372e+002;0.000000e+000
4.705657e+002;0.000000e+000
4.724943e+002;0.000000e+000
4.744228e+002;0.000000e+000
4.763513e+002;0.000000e+000
4.782799e+002;0.000000e+000
4.802085e+002;0.000000e+000
4.821370e+002;0.000000e+000
4.840656e+002;0.000000e+000
4.859941e+002;0.000000e+000
4.879226e+002;0.000000e+000
4.898512e+002;0.000000e+000
4.917798e+002;0.000000e+000
4.937083e+002;0.000000e+000
4.956368e+002;0.000000e+000
4.975654e+002;0.000000e+000
4.994939e+002;0.000000e+000
5.014225e+002;0.000000e+000
5.033510e+002;0.000000e+000
5.052796e+002;0.000000e+000
5.072081e+002;0.000000e+000
5.091367e+002;0.000000e+000
5.110652e+002;0.000000e+000
5.129938e+002;0.000000e+000
5.149223e+002;0.000000e+000
5.168509e+002;0.000000e+000
5.187794e+002;0.000000e+000
5.207079e+002;0.000000e+000
5.226365e+002;0.000000e+000
5.245651e+002;0.000000e+000
5.264936e+002;0.000000e+000
5.284222e+002;0.000000e+000
5.303507e+002;0.000000e+000
5.322792e+002;0.000000e+000
5.342078e+002;0.000000e+000
5.361364e+002;0.000000e+000
5.380649e+002;0.000000e+000
5.399935e+002;0.000000e+000
5.419220e+002;0.000000e+000
5.438505e+002;0.000000e+000
5.457791e+002;0.000000e+000
5.477076e+002;0.000000e+000
5.496362e+002;0.000000e+000
5.515648e+002;0.000000e+000
5.534933e+002;0.000000e+000
5.554218e+002;0.000000e+000
5.573504e+002;0.000000e+000
5.592789e+002;0.000000e+000
5.612075e+002;0.000000e+000
5.631360e+002;0.000000e+000
5.650646e+002;0.000000e+000
5.669931e+002;0.000000e+000
5.689217e+002;0.000000e+000
5.708502e+002;0.000000e+000
5.727787e+002;0.000000e+000
5.747073e+002;0.000000e+000
5.766359e+002;0.000000e+000
5.785644e+002;0.000000e+000
5.804930e+002;0.000000e+000
5.824215e+002;0.000000e+000
5.843500e+002;0.000000e+000
5.862786e+002;0.000000e+000
5.882072e+002;0.000000e+000
5.901357e+002;0.000000e+000
5.920643e+002;0.000000e+000
5.939928e+002;0.000000e+000
5.959213e+002;0.000000e+000
5.978499e+002;0.000000e+000
5.997784e+002;1.243360e-001
6.017070e+002;1.221613e-001
6.036355e+002;1.169635e-001
6.055641e+002;1.136356e-001
6.074926e+002;1.148563e-001
6.094211e+002;1.182933e-001
6.113497e+002;1.178665e-001
6.132783e+002;1.133169e-001
6.152068e+002;1.146405e-001
6.171354e+002;1.173654e-001
6.190639e+002;1.160149e-001
6.209924e+002;1.161194e-001
6.229210e+002;1.191357e-001
6.248495e+002;1.198227e-001
6.267781e+002;1.209568e-001
6.287067e+002;1.242431e-001
6.306352e+002;1.235184e-001
6.325637e+002;1.215895e-001
6.344923e+002;1.201653e-001
6.364208e+002;1.204805e-001
6.383494e+002;1.231051e-001
6.402780e+002;1.233590e-001
6.422065e+002;1.229289e-001
6.441350e+002;1.245762e-001
6.460636e+002;1.262858e-001
6.479921e+002;1.266837e-001
6.499207e+002;1.278246e-001
6.518492e+002;1.292119e-001
6.537778e+002;1.300153e-001
6.557063e+002;1.345255e-001
6.576349e+002;1.408848e-001
6.595634e+002;1.433315e-001
6.614919e+002;1.439140e-001
6.634205e+002;1.452397e-001
6.653491e+002;1.475013e-001
6.672776e+002;1.498249e-001
6.692062e+002;1.521242e-001
6.711347e+002;1.538230e-001
6.730632e+002;1.550307e-001
6.749918e+002;1.549977e-001
6.769203e+002;1.568218e-001
6.788489e+002;1.578258e-001
6.807775e+002;1.579292e-001
6.827060e+002;1.600546e-001
6.846345e+002;1.603125e-001
6.865631e+002;1.587607e-001
6.884916e+002;1.565703e-001
6.904202e+002;1.559686e-001
6.923488e+002;1.553636e-001
6.942773e+002;1.522775e-001
6.962058e+002;1.497834e-001
6.981344e+002;1.476771e-001
7.000629e+002;1.445304e-001
7.019915e+002;1.409587e-001
7.039200e+002;1.391691e-001
7.058486e+002;1.377216e-001
7.077771e+002;1.367595e-001
7.097057e+002;1.369210e-001
7.116342e+002;1.351911e-001
7.135627e+002;1.323259e-001
7.154913e+002;1.313661e-001
7.174199e+002;1.302213e-001
7.193484e+002;1.289118e-001
7.212770e+002;1.291563e-001
7.232055e+002;1.301589e-001
7.251340e+002;1.310367e-001
7.270626e+002;1.311777e-001
7.289911e+002;1.296491e-001
7.309197e+002;1.258951e-001
7.328483e+002;1.214489e-001
7.347768e+002;1.146120e-001
7.367053e+002;1.077323e-001
7.386339e+002;1.025909e-001
7.405624e+002;9.909252e-002
7.424910e+002;9.750883e-002
7.444196e+002;9.659527e-002
7.463481e+002;9.354141e-002
7.482766e+002;9.073143e-002
7.502052e+002;9.011135e-002
7.521337e+002;8.903360e-002
7.540623e+002;8.731587e-002
7.559908e+002;8.530975e-002
7.579194e+002;8.427995e-002
7.598479e+002;8.401432e-002
7.617765e+002;8.250035e-002
7.637050e+002;8.076477e-002
7.656335e+002;7.999658e-002
7.675621e+002;7.937738e-002
7.694907e+002;7.896745e-002
7.714192e+002;7.858030e-002
7.733478e+002;7.745800e-002
7.752763e+002;7.566790e-002
7.772048e+002;7.439273e-002
7.791334e+002;7.385722e-002
7.810620e+002;7.299572e-002
7.829905e+002;7.166360e-002
7.849191e+002;7.037312e-002
7.868476e+002;6.929220e-002
7.887761e+002;6.800347e-002
7.907047e+002;6.670988e-002
7.926332e+002;6.634061e-002
7.945618e+002;6.533260e-002
7.964903e+002;6.402586e-002
7.984189e+002;6.307691e-002
8.003474e+002;6.217262e-002
8.022759e+002;6.081606e-002
8.042045e+002;5.949098e-002
8.061331e+002;5.918546e-002
8.080616e+002;5.807072e-002
8.099902e+002;5.691146e-002
8.119187e+002;5.651822e-002
8.138472e+002;5.578320e-002
8.157758e+002;5.563587e-002
8.177043e+002;5.535903e-002
8.196329e+002;5.453335e-002
8.215615e+002;5.432253e-002
8.234900e+002;5.505302e-002
8.254185e+002;5.571203e-002
8.273471e+002;5.609194e-002
8.292756e+002;5.697583e-002
8.312042e+002;5.808375e-002
8.331328e+002;5.836203e-002
8.350613e+002;5.710229e-002
8.369898e+002;5.527864e-002
8.389184e+002;5.291830e-002
8.408469e+002;5.115664e-002
8.427755e+002;5.052556e-002
8.447040e+002;4.956325e-002
8.466326e+002;4.856723e-002
8.485611e+002;4.767229e-002
8.504897e+002;4.665111e-002
8.524182e+002;4.650110e-002
8.543467e+002;4.673062e-002
8.562753e+002;4.664141e-002
8.582039e+002;4.653902e-002
8.601324e+002;4.649081e-002
8.620610e+002;4.637964e-002
8.639895e+002;4.639631e-002
8.659180e+002;4.651228e-002
8.678466e+002;4.649137e-002
8.697751e+002;4.604106e-002
8.717037e+002;4.620304e-002
8.736323e+002;4.656244e-002
8.755608e+002;4.671394e-002
8.774893e+002;4.683402e-002
8.794179e+002;4.663879e-002
8.813464e+002;4.681852e-002
8.832750e+002;4.714493e-002
8.852036e+002;4.746615e-002
8.871321e+002;4.798746e-002
8.890606e+002;4.825775e-002
8.909892e+002;4.826238e-002
8.929177e+002;4.837559e-002
8.948463e+002;4.883374e-002
8.967748e+002;4.928992e-002
8.987034e+002;4.946507e-002
9.006319e+002;4.968323e-002
9.025605e+002;4.976073e-002
9.044890e+002;5.012762e-002
9.064175e+002;5.078858e-002
9.083461e+002;5.109219e-002
9.102747e+002;5.155862e-002
9.122032e+002;5.227913e-002
9.141318e+002;5.281860e-002
9.160603e+002;5.320269e-002
9.179888e+002;5.357352e-002
9.199174e+002;5.430958e-002
9.218459e+002;5.542332e-002
9.237745e+002;5.682734e-002
9.257031e+002;5.875405e-002
9.276316e+002;6.043471e-002
9.295601e+002;6.048593e-002
9.314887e+002;5.918725e-002
9.334172e+002;5.734199e-002
9.353458e+002;5.601594e-002
9.372744e+002;5.567151e-002
9.392029e+002;5.525339e-002
9.411314e+002;5.489572e-002
9.430600e+002;5.544941e-002
9.449885e+002;5.665841e-002
9.469171e+002;5.847514e-002
9.488456e+002;6.025686e-002
9.507742e+002;6.150901e-002
9.527027e+002;6.212509e-002
9.546313e+002;6.306978e-002
9.565598e+002;6.464937e-002
9.584883e+002;6.568617e-002
9.604169e+002;6.530248e-002
9.623455e+002;6.422003e-002
9.642740e+002;6.317975e-002
9.662026e+002;6.277514e-002
9.681311e+002;6.306093e-002
9.700596e+002;6.332321e-002
9.719882e+002;6.331421e-002
9.739167e+002;6.288615e-002
9.758453e+002;6.234512e-002
9.777739e+002;6.168274e-002
9.797024e+002;6.062256e-002
9.816309e+002;5.938167e-002
9.835595e+002;5.856867e-002
9.854880e+002;5.795616e-002
9.874166e+002;5.708253e-002
9.893452e+002;5.616204e-002
9.912737e+002;5.506062e-002
9.932022e+002;5.414661e-002
9.951307e+002;5.384574e-002
9.970593e+002;5.368103e-002
9.989879e+002;5.364006e-002
1.000916e+003;5.331241e-002
1.002845e+003;5.299028e-002
1.004773e+003;5.301985e-002
1.006702e+003;5.291561e-002
1.008631e+003;5.273397e-002
1.010559e+003;5.262141e-002
1.012488e+003;5.247942e-002
1.014416e+003;5.224553e-002
1.016345e+003;5.230174e-002
1.018273e+003;5.293301e-002
1.020202e+003;5.404502e-002
1.022130e+003;5.557102e-002
1.024059e+003;5.701379e-002
1.025988e+003;5.828188e-002
1.027916e+003;5.875963e-002
1.029845e+003;5.822372e-002
1.031773e+003;5.750176e-002
1.033702e+003;5.705068e-002
1.035630e+003;5.602876e-002
1.037559e+003;5.485041e-002
1.039487e+003;5.453312e-002
1.041416e+003;5.402502e-002
1.043344e+003;5.311132e-002
1.045273e+003;5.304613e-002
1.047202e+003;5.339123e-002
1.049130e+003;5.393288e-002
1.051059e+003;5.488545e-002
1.052987e+003;5.584390e-002
1.054916e+003;5.741478e-002
1.056844e+003;5.908910e-002
1.058773e+003;6.022390e-002
1.060701e+003;6.131225e-002
1.062630e+003;6.218768e-002
1.064558e+003;6.355076e-002
1.066487e+003;6.523744e-002
1.068416e+003;6.599417e-002
1.070344e+003;6.627082e-002
1.072273e+003;6.718227e-002
1.074201e+003;6.779318e-002
1.076130e+003;6.775166e-002
1.078058e+003;6.723147e-002
1.079987e+003;6.615968e-002
1.081915e+003;6.572515e-002
1.083844e+003;6.542461e-002
1.085773e+003;6.465049e-002
1.087701e+003;6.419633e-002
1.089630e+003;6.397033e-002
1.091558e+003;6.378233e-002
1.093487e+003;6.355728e-002
1.095415e+003;6.384458e-002
1.097344e+003;6.454138e-002
1.099272e+003;6.597462e-002
1.101201e+003;6.749872e-002
1.103129e+003;6.909415e-002
1.105058e+003;7.104973e-002
1.106987e+003;7.270845e-002
1.108915e+003;7.360267e-002
1.110844e+003;7.439419e-002
1.112772e+003;7.515516e-002
1.114701e+003;7.571775e-002
1.116629e+003;7.622915e-002
1.118558e+003;7.624364e-002
1.120486e+003;7.583974e-002
1.122415e+003;7.495989e-002
1.124344e+003;7.298212e-002
1.126272e+003;7.023993e-002
1.128201e+003;6.710519e-002
1.130129e+003;6.466910e-002
1.132058e+003;6.310124e-002
1.133986e+003;6.198550e-002
1.135915e+003;6.137980e-002
1.137843e+003;6.174637e-002
1.139772e+003;6.232252e-002
1.141700e+003;6.351314e-002
1.143629e+003;6.561877e-002
1.145557e+003;6.760231e-002
1.147486e+003;6.944462e-002
1.149415e+003;7.183254e-002
1.151343e+003;7.423726e-002
1.153272e+003;7.710706e-002
1.155200e+003;8.042359e-002
1.157129e+003;8.402143e-002
1.159057e+003;8.840346e-002
1.160986e+003;9.405004e-002
1.162914e+003;1.003154e-001
1.164843e+003;1.058942e-001
1.166771e+003;1.102676e-001
1.168700e+003;1.126952e-001
1.170629e+003;1.118859e-001
1.172557e+003;1.084094e-001
1.174486e+003;1.034195e-001
1.176414e+003;9.829225e-002
1.178343e+003;9.427916e-002
1.180271e+003;9.110329e-002
1.182200e+003;8.899923e-002
1.184128e+003;8.915339e-002
1.186057e+003;9.112691e-002
1.187986e+003;9.395867e-002
1.189914e+003;9.692716e-002
1.191843e+003;1.002243e-001
1.193771e+003;1.038823e-001
1.195700e+003;1.077055e-001
1.197628e+003;1.114565e-001
1.199557e+003;1.138547e-001
1.201485e+003;1.130526e-001
1.203414e+003;1.100701e-001
1.205343e+003;1.076752e-001
1.207271e+003;1.066350e-001
1.209200e+003;1.057525e-001
1.211128e+003;1.053286e-001
1.213057e+003;1.046870e-001
1.214985e+003;1.030093e-001
1.216914e+003;1.004619e-001
1.218842e+003;9.738898e-002
1.220771e+003;9.524087e-002
1.222699e+003;9.532207e-002
1.224628e+003;9.693971e-002
1.226557e+003;9.956028e-002
1.228485e+003;1.031101e-001
1.230414e+003;1.071341e-001
1.232342e+003;1.114306e-001
1.234271e+003;1.150001e-001
1.236199e+003;1.169029e-001
1.238128e+003;1.172627e-001
1.240056e+003;1.169727e-001
1.241985e+003;1.163186e-001
1.243913e+003;1.158691e-001
1.245842e+003;1.159889e-001
1.247771e+003;1.168553e-001
1.249699e+003;1.184094e-001
1.251628e+003;1.204984e-001
1.253556e+003;1.230965e-001
1.255485e+003;1.259487e-001
1.257413e+003;1.283404e-001
1.259342e+003;1.301074e-001
1.261270e+003;1.313398e-001
1.263199e+003;1.310594e-001
1.265127e+003;1.283207e-001
1.267056e+003;1.235598e-001
1.268985e+003;1.185578e-001
1.270913e+003;1.147374e-001
1.272842e+003;1.121764e-001
1.274770e+003;1.108518e-001
1.276699e+003;1.104556e-001
1.278627e+003;1.102390e-001
1.280556e+003;1.092275e-001
1.282484e+003;1.075175e-001
1.284413e+003;1.057588e-001
1.286342e+003;1.040295e-001
1.288270e+003;1.027205e-001
1.290199e+003;1.020494e-001
1.292127e+003;1.017708e-001
1.294056e+003;1.013506e-001
1.295984e+003;1.008657e-001
1.297913e+003;1.004930e-001
1.299841e+003;1.003386e-001
1.301770e+003;9.984136e-002
1.303698e+003;9.909306e-002
1.305627e+003;9.841749e-002
1.307556e+003;9.767132e-002
1.309484e+003;9.693619e-002
1.311413e+003;9.611189e-002
1.313341e+003;9.506683e-002
1.315270e+003;9.416889e-002
1.317198e+003;9.323842e-002
1.319127e+003;9.234355e-002
1.321055e+003;9.158473e-002
1.322984e+003;9.099619e-002
1.324912e+003;9.063835e-002
1.326841e+003;9.059916e-002
1.328770e+003;9.090979e-002
1.330698e+003;9.155163e-002
1.332627e+003;9.172463e-002
1.334555e+003;9.183478e-002
1.336484e+003;9.205040e-002
1.338412e+003;9.224712e-002
1.340341e+003;9.283523e-002
1.342269e+003;9.387270e-002
1.344198e+003;9.461270e-002
1.346126e+003;9.513794e-002
1.348055e+003;9.596349e-002
1.349984e+003;9.693991e-002
1.351912e+003;9.807574e-002
1.353841e+003;9.911808e-002
1.355769e+003;1.004495e-001
1.357698e+003;1.022575e-001
1.359626e+003;1.037715e-001
1.361555e+003;1.051934e-001
1.363483e+003;1.068353e-001
1.365412e+003;1.085694e-001
1.367341e+003;1.099801e-001
1.369269e+003;1.109319e-001
1.371198e+003;1.114532e-001
1.373126e+003;1.112328e-001
1.375055e+003;1.100876e-001
1.376983e+003;1.079743e-001
1.378912e+003;1.051672e-001
1.380840e+003;1.024255e-001
1.382769e+003;9.968793e-002
1.384698e+003;9.659320e-002
1.386626e+003;9.334385e-002
1.388555e+003;9.115679e-002
1.390483e+003;8.967777e-002
1.392412e+003;8.837080e-002
1.394340e+003;8.736035e-002
1.396269e+003;8.721974e-002
1.398197e+003;8.796670e-002
1.400126e+003;8.967153e-002
1.402054e+003;9.183597e-002
1.403983e+003;9.459705e-002
1.405911e+003;9.855076e-002
1.407840e+003;1.036009e-001
1.409769e+003;1.096681e-001
1.411697e+003;1.161336e-001
1.413626e+003;1.213220e-001
1.415554e+003;1.241709e-001
1.417483e+003;1.240434e-001
1.419411e+003;1.217116e-001
1.421340e+003;1.189625e-001
1.423268e+003;1.159698e-001
1.425197e+003;1.139300e-001
1.427125e+003;1.135921e-001
1.429054e+003;1.148332e-001
1.430983e+003;1.170933e-001
1.432911e+003;1.188086e-001
1.434840e+003;1.192449e-001
1.436768e+003;1.188863e-001
1.438697e+003;1.188413e-001
1.440625e+003;1.181938e-001
1.442554e+003;1.172883e-001
1.444482e+003;1.168637e-001
1.446411e+003;1.168104e-001
1.448340e+003;1.174167e-001
1.450268e+003;1.189493e-001
1.452197e+003;1.210695e-001
1.454125e+003;1.230694e-001
1.456054e+003;1.249460e-001
1.457982e+003;1.296557e-001
1.459911e+003;1.360970e-001
1.461839e+003;1.397387e-001
1.463768e+003;1.380557e-001
1.465697e+003;1.319982e-001
1.467625e+003;1.247861e-001
1.469554e+003;1.192074e-001
1.471482e+003;1.162282e-001
1.473411e+003;1.160522e-001
1.475339e+003;1.169831e-001
1.477268e+003;1.165358e-001
1.479196e+003;1.139093e-001
1.481125e+003;1.088236e-001
1.483053e+003;1.028701e-001
1.484982e+003;9.772940e-002
1.486911e+003;9.467121e-002
1.488839e+003;9.378222e-002
1.490768e+003;9.479126e-002
1.492696e+003;9.679042e-002
1.494625e+003;9.877186e-002
1.496553e+003;1.016248e-001
1.498482e+003;1.056425e-001
1.500410e+003;1.100707e-001
1.502339e+003;1.146187e-001
1.504267e+003;1.182798e-001
1.506196e+003;1.219834e-001
1.508125e+003;1.280553e-001
1.510053e+003;1.350367e-001
1.511982e+003;1.414807e-001
1.513910e+003;1.478109e-001
1.515839e+003;1.541547e-001
1.517767e+003;1.610296e-001
1.519696e+003;1.681937e-001
1.521624e+003;1.762816e-001
1.523553e+003;1.854776e-001
1.525481e+003;1.944308e-001
1.527410e+003;2.035387e-001
1.529339e+003;2.121898e-001
1.531267e+003;2.198436e-001
1.533196e+003;2.266278e-001
1.535124e+003;2.326787e-001
1.537053e+003;2.360041e-001
1.538981e+003;2.359373e-001
1.540910e+003;2.348030e-001
1.542838e+003;2.320222e-001
1.544767e+003;2.260491e-001
1.546695e+003;2.181213e-001
1.548624e+003;2.090213e-001
1.550553e+003;1.995595e-001
1.552481e+003;1.901151e-001
1.554410e+003;1.807734e-001
1.556338e+003;1.720961e-001
1.558267e+003;1.632091e-001
1.560195e+003;1.562850e-001
1.562124e+003;1.510387e-001
1.564052e+003;1.444749e-001
1.565981e+003;1.372263e-001
1.567910e+003;1.299116e-001
1.569838e+003;1.226364e-001
1.571767e+003;1.165823e-001
1.573695e+003;1.104587e-001
1.575624e+003;1.041111e-001
1.577552e+003;9.977806e-002
1.579481e+003;9.673663e-002
1.581409e+003;9.419869e-002
1.583338e+003;9.194630e-002
1.585266e+003;9.045088e-002
1.587195e+003;9.017043e-002
1.589124e+003;9.038784e-002
1.591052e+003;9.120433e-002
1.592981e+003;9.303588e-002
1.594909e+003;9.563246e-002
1.596838e+003;9.875485e-002
1.598766e+003;1.027592e-001
1.600695e+003;1.074163e-001
1.602623e+003;1.132342e-001
1.604552e+003;1.200500e-001
1.606480e+003;1.273809e-001
1.608409e+003;1.356827e-001
1.610338e+003;1.445841e-001
1.612266e+003;1.538322e-001
1.614195e+003;1.639579e-001
1.616123e+003;1.755553e-001
1.618052e+003;1.902002e-001
1.619980e+003;2.062034e-001
1.621909e+003;2.219580e-001
1.623837e+003;2.380313e-001
1.625766e+003;2.544264e-001
1.627694e+003;2.707271e-001
1.629623e+003;2.873952e-001
1.631552e+003;3.026306e-001
1.633480e+003;3.130542e-001
1.635409e+003;3.169833e-001
1.637337e+003;3.138244e-001
1.639266e+003;3.026500e-001
1.641194e+003;2.852305e-001
1.643123e+003;2.644835e-001
1.645051e+003;2.427732e-001
1.646980e+003;2.225734e-001
1.648909e+003;2.049334e-001
1.650837e+003;1.880260e-001
1.652766e+003;1.725050e-001
1.654694e+003;1.623144e-001
1.656623e+003;1.544345e-001
1.658551e+003;1.461526e-001
1.660480e+003;1.375811e-001
1.662408e+003;1.288181e-001
1.664337e+003;1.211231e-001
1.666266e+003;1.133966e-001
1.668194e+003;1.051040e-001
1.670123e+003;9.776588e-002
1.672051e+003;9.155168e-002
1.673980e+003;8.522672e-002
1.675908e+003;7.924426e-002
1.677837e+003;7.394167e-002
1.679765e+003;6.802009e-002
1.681694e+003;6.151576e-002
1.683622e+003;5.489023e-002
1.685551e+003;5.065445e-002
1.687479e+003;4.802321e-002
1.689408e+003;4.499582e-002
1.691337e+003;4.236098e-002
1.693265e+003;3.969905e-002
1.695194e+003;3.698885e-002
1.697122e+003;3.590572e-002
1.699051e+003;3.452379e-002
1.700979e+003;3.364669e-002
1.702908e+003;3.431551e-002
1.704836e+003;3.407443e-002
1.706765e+003;3.402236e-002
1.708693e+003;3.409267e-002
1.710622e+003;3.401694e-002
1.712551e+003;3.374283e-002
1.714479e+003;3.317882e-002
1.716408e+003;3.245165e-002
1.718336e+003;3.296514e-002
1.720265e+003;3.411697e-002
1.722193e+003;3.438454e-002
1.724122e+003;3.430045e-002
1.726050e+003;3.438142e-002
1.727979e+003;3.422935e-002
1.729908e+003;3.386891e-002
1.731836e+003;3.284390e-002
1.733765e+003;3.152154e-002
1.735693e+003;3.192740e-002
1.737622e+003;3.227934e-002
1.739550e+003;3.170011e-002
1.741479e+003;3.128578e-002
1.743407e+003;3.057703e-002
1.745336e+003;2.974263e-002
1.747265e+003;2.854723e-002
1.749193e+003;2.716351e-002
1.751122e+003;2.628618e-002
1.753050e+003;2.600561e-002
1.754979e+003;2.524381e-002
1.756907e+003;2.446561e-002
1.758836e+003;2.394222e-002
1.760764e+003;2.306287e-002
1.762693e+003;2.224996e-002
1.764621e+003;2.171693e-002
1.766550e+003;2.091724e-002
1.768479e+003;2.037733e-002
1.770407e+003;1.970536e-002
1.772336e+003;1.892607e-002
1.774264e+003;1.904947e-002
1.776193e+003;1.915120e-002
1.778121e+003;1.881769e-002
1.780050e+003;1.837858e-002
1.781978e+003;1.804866e-002
1.783907e+003;1.760067e-002
1.785835e+003;1.729631e-002
1.787764e+003;1.729269e-002
1.789693e+003;1.693603e-002
1.791621e+003;1.607339e-002
1.793550e+003;1.593987e-002
1.795478e+003;1.622715e-002
1.797407e+003;1.594630e-002
1.799335e+003;1.561359e-002
1.801264e+003;1.539475e-002
1.803192e+003;1.543155e-002
1.805121e+003;1.549185e-002
1.807049e+003;1.543626e-002
1.808978e+003;1.508548e-002
1.810907e+003;1.485008e-002
1.812835e+003;1.490027e-002
1.814764e+003;1.491204e-002
1.816692e+003;1.474970e-002
1.818621e+003;1.467028e-002
1.820549e+003;1.464996e-002
1.822478e+003;1.449786e-002
1.824406e+003;1.412052e-002
1.826335e+003;1.400282e-002
1.828264e+003;1.380788e-002
1.830192e+003;1.366185e-002
1.832121e+003;1.391530e-002
1.834049e+003;1.401056e-002
1.835978e+003;1.394992e-002
1.837906e+003;1.380364e-002
1.839835e+003;1.370374e-002
1.841763e+003;1.348494e-002
1.843692e+003;1.289852e-002
1.845620e+003;1.293402e-002
1.847549e+003;1.310524e-002
1.849478e+003;1.296242e-002
1.851406e+003;1.303381e-002
1.853335e+003;1.304207e-002
1.855263e+003;1.270742e-002
1.857192e+003;1.258045e-002
1.859120e+003;1.250075e-002
1.861049e+003;1.232659e-002
1.862977e+003;1.230726e-002
1.864906e+003;1.222168e-002
1.866834e+003;1.192866e-002
1.868763e+003;1.180182e-002
1.870692e+003;1.201531e-002
1.872620e+003;1.231190e-002
1.874549e+003;1.254089e-002
1.876477e+003;1.258338e-002
1.878406e+003;1.231814e-002
1.880334e+003;1.215775e-002
1.882263e+003;1.211976e-002
1.884191e+003;1.213284e-002
1.886120e+003;1.215080e-002
1.888048e+003;1.221650e-002
1.889977e+003;1.226207e-002
1.891906e+003;1.229121e-002
1.893834e+003;1.232911e-002
1.895763e+003;1.238986e-002
1.897691e+003;1.235748e-002
1.899620e+003;1.227536e-002
1.901548e+003;1.236685e-002
1.903477e+003;1.245635e-002
1.905405e+003;1.221521e-002
1.907334e+003;1.194705e-002
1.909262e+003;1.208756e-002
1.911191e+003;1.206940e-002
1.913120e+003;1.195587e-002
1.915048e+003;1.176951e-002
1.916977e+003;1.148751e-002
1.918905e+003;1.163257e-002
1.920834e+003;1.172059e-002
1.922762e+003;1.171644e-002
1.924691e+003;1.172488e-002
1.926619e+003;1.174513e-002
1.928548e+003;1.190428e-002
1.930477e+003;1.179923e-002
1.932405e+003;1.157846e-002
1.934334e+003;1.160609e-002
1.936262e+003;1.155113e-002
1.938191e+003;1.151003e-002
1.940119e+003;1.140631e-002
1.942048e+003;1.121888e-002
1.943976e+003;1.123752e-002
1.945905e+003;1.145651e-002
1.947833e+003;1.153477e-002
1.949762e+003;1.143702e-002
1.951691e+003;1.110109e-002
1.953619e+003;1.110221e-002
1.955548e+003;1.127853e-002
1.957476e+003;1.133763e-002
1.959405e+003;1.135780e-002
1.961333e+003;1.163298e-002
1.963262e+003;1.181632e-002
1.965190e+003;1.168754e-002
1.967119e+003;1.158931e-002
1.969047e+003;1.169482e-002
1.970976e+003;1.179439e-002
1.972905e+003;1.169652e-002
1.974833e+003;1.157999e-002
1.976762e+003;1.171664e-002
1.978690e+003;1.180451e-002
1.980619e+003;1.173101e-002
1.982547e+003;1.180767e-002
1.984476e+003;1.189913e-002
1.986404e+003;1.167852e-002
1.988333e+003;1.148577e-002
1.990261e+003;1.156890e-002
1.992190e+003;1.152184e-002
1.994119e+003;1.136161e-002
1.996047e+003;1.140624e-002
1.997976e+003;1.139593e-002
1.999904e+003;1.137430e-002
2.001833e+003;1.147387e-002
2.003761e+003;1.170806e-002
2.005690e+003;1.179242e-002
2.007618e+003;1.163379e-002
2.009547e+003;1.162420e-002
2.011476e+003;1.171358e-002
2.013404e+003;1.182167e-002
2.015333e+003;1.192706e-002
2.017261e+003;1.185967e-002
2.019190e+003;1.188238e-002
2.021118e+003;1.203214e-002
2.023047e+003;1.215870e-002
2.024975e+003;1.210576e-002
2.026904e+003;1.190458e-002
2.028833e+003;1.194143e-002
2.030761e+003;1.203915e-002
2.032690e+003;1.208753e-002
2.034618e+003;1.216831e-002
2.036547e+003;1.216927e-002
2.038475e+003;1.218556e-002
2.040404e+003;1.233481e-002
2.042332e+003;1.256343e-002
2.044261e+003;1.261872e-002
2.046189e+003;1.253904e-002
2.048118e+003;1.260460e-002
2.050047e+003;1.276068e-002
2.051975e+003;1.272079e-002
2.053904e+003;1.266566e-002
2.055832e+003;1.277716e-002
2.057761e+003;1.285681e-002
2.059689e+003;1.262104e-002
2.061618e+003;1.257888e-002
2.063546e+003;1.275188e-002
2.065475e+003;1.295969e-002
2.067404e+003;1.299441e-002
2.069332e+003;1.285060e-002
2.071260e+003;1.281128e-002
2.073189e+003;1.274921e-002
2.075118e+003;1.252121e-002
2.077046e+003;1.246365e-002
2.078975e+003;1.249972e-002
2.080903e+003;1.252612e-002
2.082832e+003;1.252076e-002
2.084760e+003;1.249021e-002
2.086689e+003;1.238437e-002
2.088617e+003;1.226663e-002
2.090546e+003;1.230651e-002
2.092475e+003;1.235758e-002
2.094403e+003;1.216463e-002
2.096332e+003;1.192985e-002
2.098260e+003;1.192771e-002
2.100189e+003;1.217649e-002
2.102117e+003;1.228852e-002
2.104046e+003;1.222516e-002
2.105974e+003;1.226285e-002
2.107903e+003;1.231814e-002
2.109832e+003;1.214855e-002
2.111760e+003;1.217884e-002
2.113688e+003;1.244885e-002
2.115617e+003;1.257973e-002
2.117546e+003;1.247844e-002
2.119474e+003;1.263707e-002
2.121403e+003;1.277460e-002
2.123331e+003;1.256203e-002
2.125260e+003;1.239579e-002
2.127188e+003;1.249996e-002
2.129117e+003;1.278985e-002
2.131045e+003;1.286138e-002
2.132974e+003;1.267992e-002
2.134903e+003;1.252912e-002
2.136831e+003;1.249208e-002
2.138760e+003;1.257792e-002
2.140688e+003;1.285937e-002
2.142617e+003;1.302182e-002
2.144545e+003;1.309643e-002
2.146474e+003;1.306679e-002
2.148402e+003;1.291084e-002
2.150331e+003;1.278074e-002
2.152260e+003;1.279238e-002
2.154188e+003;1.270012e-002
2.156117e+003;1.272277e-002
2.158045e+003;1.304153e-002
2.159974e+003;1.322482e-002
2.161902e+003;1.329109e-002
2.163831e+003;1.339561e-002
2.165759e+003;1.330100e-002
2.167688e+003;1.323991e-002
2.169616e+003;1.345124e-002
2.171545e+003;1.367317e-002
2.173474e+003;1.354972e-002
2.175402e+003;1.329696e-002
2.177331e+003;1.346577e-002
2.179259e+003;1.378541e-002
2.181188e+003;1.368562e-002
2.183116e+003;1.362373e-002
2.185045e+003;1.371664e-002
2.186973e+003;1.381760e-002
2.188902e+003;1.382204e-002
2.190831e+003;1.402941e-002
2.192759e+003;1.413308e-002
2.194688e+003;1.409102e-002
2.196616e+003;1.386610e-002
2.198545e+003;1.374430e-002
2.200473e+003;1.377614e-002
2.202402e+003;1.376578e-002
2.204330e+003;1.372604e-002
2.206259e+003;1.376178e-002
2.208188e+003;1.369622e-002
2.210116e+003;1.366770e-002
2.212044e+003;1.367427e-002
2.213973e+003;1.350162e-002
2.215902e+003;1.321139e-002
2.217830e+003;1.301954e-002
2.219759e+003;1.310668e-002
2.221687e+003;1.304945e-002
2.223616e+003;1.289555e-002
2.225544e+003;1.275553e-002
2.227473e+003;1.272096e-002
2.229401e+003;1.259232e-002
2.231330e+003;1.240947e-002
2.233259e+003;1.232308e-002
2.235187e+003;1.230682e-002
2.237116e+003;1.240681e-002
2.239044e+003;1.263922e-002
2.240973e+003;1.259508e-002
2.242901e+003;1.242784e-002
2.244830e+003;1.233692e-002
2.246758e+003;1.234084e-002
2.248687e+003;1.237888e-002
2.250615e+003;1.261152e-002
2.252544e+003;1.278747e-002
2.254473e+003;1.296211e-002
2.256401e+003;1.323008e-002
2.258330e+003;1.318434e-002
2.260258e+003;1.285097e-002
2.262187e+003;1.295389e-002
2.264115e+003;1.319455e-002
2.266044e+003;1.317266e-002
2.267972e+003;1.329133e-002
2.269901e+003;1.344930e-002
2.271830e+003;1.343474e-002
2.273758e+003;1.338683e-002
2.275687e+003;1.351735e-002
2.277615e+003;1.377625e-002
2.279544e+003;1.379807e-002
2.281472e+003;1.373216e-002
2.283401e+003;1.356725e-002
2.285329e+003;1.360691e-002
2.287258e+003;1.389535e-002
2.289187e+003;1.398753e-002
2.291115e+003;1.380785e-002
2.293043e+003;1.390791e-002
2.294972e+003;1.405097e-002
2.296901e+003;1.392272e-002
2.298829e+003;1.377419e-002
2.300758e+003;1.402798e-002
2.302686e+003;1.435423e-002
2.304615e+003;1.435831e-002
2.306543e+003;1.418334e-002
2.308472e+003;1.413613e-002
2.310400e+003;1.417950e-002
2.312329e+003;1.429461e-002
2.314258e+003;1.454058e-002
2.316186e+003;1.452458e-002
2.318115e+003;1.429324e-002
2.320043e+003;1.432348e-002
2.321972e+003;1.436577e-002
2.323900e+003;1.411580e-002
2.325829e+003;1.401535e-002
2.327757e+003;1.388297e-002
2.329686e+003;1.374796e-002
2.331615e+003;1.402907e-002
2.333543e+003;1.435916e-002
2.335472e+003;1.424198e-002
2.337400e+003;1.407726e-002
2.339329e+003;1.396440e-002
2.341257e+003;1.385752e-002
2.343186e+003;1.375008e-002
2.345114e+003;1.357204e-002
2.347043e+003;1.367321e-002
2.348971e+003;1.383289e-002
2.350900e+003;1.391386e-002
2.352829e+003;1.383692e-002
2.354757e+003;1.365190e-002
2.356686e+003;1.361471e-002
2.358614e+003;1.386018e-002
2.360543e+003;1.410666e-002
2.362471e+003;1.407065e-002
2.364400e+003;1.396659e-002
2.366328e+003;1.426455e-002
2.368257e+003;1.448597e-002
2.370186e+003;1.446928e-002
2.372114e+003;1.469108e-002
2.374042e+003;1.494554e-002
2.375971e+003;1.491471e-002
2.377900e+003;1.488313e-002
2.379828e+003;1.489249e-002
2.381757e+003;1.493467e-002
2.383685e+003;1.496547e-002
2.385614e+003;1.507519e-002
2.387542e+003;1.510998e-002
2.389471e+003;1.520310e-002
2.391399e+003;1.550040e-002
2.393328e+003;1.552035e-002
2.395257e+003;1.535606e-002
2.397185e+003;1.543973e-002
2.399114e+003;1.559532e-002
2.401042e+003;1.542946e-002
2.402971e+003;1.513430e-002
2.404899e+003;1.511770e-002
2.406828e+003;1.519002e-002
2.408756e+003;1.513080e-002
2.410685e+003;1.514600e-002
2.412614e+003;1.524503e-002
2.414542e+003;1.521991e-002
2.416471e+003;1.526027e-002
2.418399e+003;1.528862e-002
2.420328e+003;1.540248e-002
2.422256e+003;1.554061e-002
2.424185e+003;1.547571e-002
2.426113e+003;1.525272e-002
2.428042e+003;1.507262e-002
2.429970e+003;1.528827e-002
2.431899e+003;1.548848e-002
2.433828e+003;1.546929e-002
2.435756e+003;1.569771e-002
2.437685e+003;1.575505e-002
2.439613e+003;1.586233e-002
2.441542e+003;1.622368e-002
2.443470e+003;1.638340e-002
2.445399e+003;1.645443e-002
2.447327e+003;1.654845e-002
2.449256e+003;1.670709e-002
2.451185e+003;1.679181e-002
2.453113e+003;1.670124e-002
2.455042e+003;1.667820e-002
2.456970e+003;1.694451e-002
2.458899e+003;1.708637e-002
2.460827e+003;1.714507e-002
2.462756e+003;1.725014e-002
2.464684e+003;1.744805e-002
2.466613e+003;1.770319e-002
2.468542e+003;1.781282e-002
2.470470e+003;1.784945e-002
2.472398e+003;1.787534e-002
2.474327e+003;1.802473e-002
2.476256e+003;1.818090e-002
2.478184e+003;1.805305e-002
2.480113e+003;1.795320e-002
2.482041e+003;1.802487e-002
2.483970e+003;1.800300e-002
2.485898e+003;1.796325e-002
2.487827e+003;1.796609e-002
2.489755e+003;1.813616e-002
2.491684e+003;1.817071e-002
2.493613e+003;1.823000e-002
2.495541e+003;1.822527e-002
2.497470e+003;1.804680e-002
2.499398e+003;1.780857e-002
2.501327e+003;1.790503e-002
2.503255e+003;1.815686e-002
2.505184e+003;1.818470e-002
2.507112e+003;1.826819e-002
2.509041e+003;1.851870e-002
2.510969e+003;1.866384e-002
2.512898e+003;1.877250e-002
2.514827e+003;1.901198e-002
2.516755e+003;1.907198e-002
2.518684e+003;1.911238e-002
2.520612e+003;1.920948e-002
2.522541e+003;1.938129e-002
2.524469e+003;1.951539e-002
2.526398e+003;1.982742e-002
2.528326e+003;2.033841e-002
2.530255e+003;2.063143e-002
2.532184e+003;2.064647e-002
2.534112e+003;2.067549e-002
2.536041e+003;2.076018e-002
2.537969e+003;2.085174e-002
2.539898e+003;2.109466e-002
2.541826e+003;2.131417e-002
2.543755e+003;2.134786e-002
2.545683e+003;2.135906e-002
2.547612e+003;2.150561e-002
2.549541e+003;2.146481e-002
2.551469e+003;2.128417e-002
2.553397e+003;2.136749e-002
2.555326e+003;2.147132e-002
2.557255e+003;2.133561e-002
2.559183e+003;2.138983e-002
2.561112e+003;2.161554e-002
2.563040e+003;2.170063e-002
2.564969e+003;2.177935e-002
2.566897e+003;2.195790e-002
2.568826e+003;2.207359e-002
2.570754e+003;2.200464e-002
2.572683e+003;2.207011e-002
2.574612e+003;2.226740e-002
2.576540e+003;2.235020e-002
2.578469e+003;2.253090e-002
2.580397e+003;2.285485e-002
2.582326e+003;2.301948e-002
2.584254e+003;2.332564e-002
2.586183e+003;2.353714e-002
2.588111e+003;2.341746e-002
2.590040e+003;2.321895e-002
2.591969e+003;2.315460e-002
2.593897e+003;2.338316e-002
2.595826e+003;2.363555e-002
2.597754e+003;2.385736e-002
2.599683e+003;2.395069e-002
2.601611e+003;2.411335e-002
2.603540e+003;2.426862e-002
2.605468e+003;2.413679e-002
2.607397e+003;2.398287e-002
2.609325e+003;2.400500e-002
2.611254e+003;2.394561e-002
2.613183e+003;2.388764e-002
2.615111e+003;2.394271e-002
2.617040e+003;2.424693e-002
2.618968e+003;2.437742e-002
2.620897e+003;2.441955e-002
2.622825e+003;2.465389e-002
2.624754e+003;2.474224e-002
2.626682e+003;2.461598e-002
2.628611e+003;2.478518e-002
2.630540e+003;2.511070e-002
2.632468e+003;2.530291e-002
2.634396e+003;2.536358e-002
2.636325e+003;2.518949e-002
2.638254e+003;2.522871e-002
2.640182e+003;2.528890e-002
2.642111e+003;2.504176e-002
2.644039e+003;2.499357e-002
2.645968e+003;2.517727e-002
2.647896e+003;2.551995e-002
2.649825e+003;2.584177e-002
2.651753e+003;2.582574e-002
2.653682e+003;2.569435e-002
2.655611e+003;2.558247e-002
2.657539e+003;2.563828e-002
2.659468e+003;2.607192e-002
2.661396e+003;2.645563e-002
2.663325e+003;2.641845e-002
2.665253e+003;2.634303e-002
2.667182e+003;2.655953e-002
2.669110e+003;2.678597e-002
2.671039e+003;2.693838e-002
2.672968e+003;2.680243e-002
2.674896e+003;2.676169e-002
2.676825e+003;2.706349e-002
2.678753e+003;2.745178e-002
2.680682e+003;2.735871e-002
2.682610e+003;2.731905e-002
2.684539e+003;2.738391e-002
2.686467e+003;2.748743e-002
2.688396e+003;2.786173e-002
2.690324e+003;2.822966e-002
2.692253e+003;2.856492e-002
2.694182e+003;2.861695e-002
2.696110e+003;2.849738e-002
2.698039e+003;2.890201e-002
2.699967e+003;2.949517e-002
2.701896e+003;2.976637e-002
2.703824e+003;2.990982e-002
2.705753e+003;3.020746e-002
2.707681e+003;3.020444e-002
2.709610e+003;2.991912e-002
2.711539e+003;3.023196e-002
2.713467e+003;3.077502e-002
2.715396e+003;3.121592e-002
2.717324e+003;3.158022e-002
2.719253e+003;3.194277e-002
2.721181e+003;3.205972e-002
2.723110e+003;3.225889e-002
2.725038e+003;3.269508e-002
2.726967e+003;3.330119e-002
2.728896e+003;3.386507e-002
2.730824e+003;3.432193e-002
2.732752e+003;3.476192e-002
2.734681e+003;3.511190e-002
2.736610e+003;3.529903e-002
2.738538e+003;3.548344e-002
2.740467e+003;3.574124e-002
2.742395e+003;3.615030e-002
2.744324e+003;3.642731e-002
2.746252e+003;3.622427e-002
2.748181e+003;3.597659e-002
2.750109e+003;3.606875e-002
2.752038e+003;3.619409e-002
2.753967e+003;3.640861e-002
2.755895e+003;3.662492e-002
2.757824e+003;3.678433e-002
2.759752e+003;3.682432e-002
2.761681e+003;3.677841e-002
2.763609e+003;3.689011e-002
2.765538e+003;3.732987e-002
2.767466e+003;3.746006e-002
2.769395e+003;3.763104e-002
2.771323e+003;3.802062e-002
2.773252e+003;3.823604e-002
2.775181e+003;3.857021e-002
2.777109e+003;3.896930e-002
2.779038e+003;3.930223e-002
2.780966e+003;3.938878e-002
2.782895e+003;3.949045e-002
2.784823e+003;3.999289e-002
2.786752e+003;4.038777e-002
2.788680e+003;4.060025e-002
2.790609e+003;4.107955e-002
2.792538e+003;4.159751e-002
2.794466e+003;4.198986e-002
2.796395e+003;4.245093e-002
2.798323e+003;4.278284e-002
2.800252e+003;4.296453e-002
2.802180e+003;4.353676e-002
2.804109e+003;4.422110e-002
2.806037e+003;4.490009e-002
2.807966e+003;4.567967e-002
2.809895e+003;4.618701e-002
2.811823e+003;4.659272e-002
2.813751e+003;4.746012e-002
2.815680e+003;4.817541e-002
2.817609e+003;4.854330e-002
2.819537e+003;4.914979e-002
2.821466e+003;4.985215e-002
2.823394e+003;5.036673e-002
2.825323e+003;5.086397e-002
2.827251e+003;5.125137e-002
2.829180e+003;5.193574e-002
2.831108e+003;5.303932e-002
2.833037e+003;5.418254e-002
2.834966e+003;5.554173e-002
2.836894e+003;5.760069e-002
2.838823e+003;5.993046e-002
2.840751e+003;6.286505e-002
2.842680e+003;6.694763e-002
2.844608e+003;7.131212e-002
2.846537e+003;7.574619e-002
2.848465e+003;8.034296e-002
2.850394e+003;8.479884e-002
2.852323e+003;8.826754e-002
2.854251e+003;9.084039e-002
2.856180e+003;9.318811e-002
2.858108e+003;9.479216e-002
2.860037e+003;9.549683e-002
2.861965e+003;9.530161e-002
2.863894e+003;9.447887e-002
2.865822e+003;9.336222e-002
2.867751e+003;9.190544e-002
2.869679e+003;8.994979e-002
2.871608e+003;8.759914e-002
2.873536e+003;8.524209e-002
2.875465e+003;8.225065e-002
2.877394e+003;7.907791e-002
2.879322e+003;7.693338e-002
2.881251e+003;7.570099e-002
2.883179e+003;7.487209e-002
2.885108e+003;7.439124e-002
2.887036e+003;7.453948e-002
2.888965e+003;7.517738e-002
2.890893e+003;7.635707e-002
2.892822e+003;7.821925e-002
2.894750e+003;8.014017e-002
2.896679e+003;8.178589e-002
2.898608e+003;8.318651e-002
2.900536e+003;8.417372e-002
2.902465e+003;8.511703e-002
2.904393e+003;8.650241e-002
2.906322e+003;8.800586e-002
2.908250e+003;8.958564e-002
2.910179e+003;9.142230e-002
2.912107e+003;9.377573e-002
2.914036e+003;9.650849e-002
2.915965e+003;9.974296e-002
2.917893e+003;1.033468e-001
2.919822e+003;1.066827e-001
2.921750e+003;1.096679e-001
2.923679e+003;1.125160e-001
2.925607e+003;1.150912e-001
2.927536e+003;1.168883e-001
2.929464e+003;1.185485e-001
2.931393e+003;1.199327e-001
2.933322e+003;1.202174e-001
2.935250e+003;1.194591e-001
2.937178e+003;1.179224e-001
2.939107e+003;1.159304e-001
2.941036e+003;1.135081e-001
2.942964e+003;1.105064e-001
2.944893e+003;1.066561e-001
2.946821e+003;1.018981e-001
2.948750e+003;9.659158e-002
2.950678e+003;9.114620e-002
2.952607e+003;8.543546e-002
2.954535e+003;8.020186e-002
2.956464e+003;7.578186e-002
2.958393e+003;7.183868e-002
2.960321e+003;6.868593e-002
2.962250e+003;6.606654e-002
2.964178e+003;6.347892e-002
2.966107e+003;6.064740e-002
2.968035e+003;5.800558e-002
2.969964e+003;5.619394e-002
2.971892e+003;5.459909e-002
2.973821e+003;5.250705e-002
2.975750e+003;5.024418e-002
2.977678e+003;4.874917e-002
2.979607e+003;4.740797e-002
2.981535e+003;4.607975e-002
2.983464e+003;4.493610e-002
2.985392e+003;4.378022e-002
2.987321e+003;4.293527e-002
2.989249e+003;4.237457e-002
2.991178e+003;4.167055e-002
2.993106e+003;4.108424e-002
2.995035e+003;4.076666e-002
2.996964e+003;4.052375e-002
2.998892e+003;4.016325e-002
3.000821e+003;3.980148e-002
3.002749e+003;3.975275e-002
3.004678e+003;3.998407e-002
3.006606e+003;4.000350e-002
3.008535e+003;3.982937e-002
3.010463e+003;3.992151e-002
3.012392e+003;4.026855e-002
3.014321e+003;4.050276e-002
3.016249e+003;4.069351e-002
3.018177e+003;4.110821e-002
3.020106e+003;4.143636e-002
3.022035e+003;4.163452e-002
3.023963e+003;4.212638e-002
3.025892e+003;4.244088e-002
3.027820e+003;4.243207e-002
3.029749e+003;4.285846e-002
3.031677e+003;4.377215e-002
3.033606e+003;4.456443e-002
3.035534e+003;4.515957e-002
3.037463e+003;4.585057e-002
3.039392e+003;4.662407e-002
3.041320e+003;4.712535e-002
3.043249e+003;4.762414e-002
3.045177e+003;4.832833e-002
3.047106e+003;4.904390e-002
3.049034e+003;4.982918e-002
3.050963e+003;5.079115e-002
3.052891e+003;5.181159e-002
3.054820e+003;5.270172e-002
3.056749e+003;5.313615e-002
3.058677e+003;5.326614e-002
3.060606e+003;5.354432e-002
3.062534e+003;5.406450e-002
3.064463e+003;5.461048e-002
3.066391e+003;5.498375e-002
3.068320e+003;5.520673e-002
3.070248e+003;5.521512e-002
3.072177e+003;5.519209e-002
3.074105e+003;5.520542e-002
3.076034e+003;5.502094e-002
3.077963e+003;5.501936e-002
3.079891e+003;5.522573e-002
3.081820e+003;5.508447e-002
3.083748e+003;5.489850e-002
3.085677e+003;5.489279e-002
3.087605e+003;5.457648e-002
3.089534e+003;5.379447e-002
3.091462e+003;5.302311e-002
3.093391e+003;5.264307e-002
3.095320e+003;5.228578e-002
3.097248e+003;5.183041e-002
3.099177e+003;5.131852e-002
3.101105e+003;5.086591e-002
3.103034e+003;5.052385e-002
3.104962e+003;4.993860e-002
3.106891e+003;4.917554e-002
3.108819e+003;4.837944e-002
3.110748e+003;4.795608e-002
3.112677e+003;4.752311e-002
3.114605e+003;4.692431e-002
3.116533e+003;4.641939e-002
3.118462e+003;4.607429e-002
3.120391e+003;4.576379e-002
3.122319e+003;4.530133e-002
3.124248e+003;4.509403e-002
3.126176e+003;4.518781e-002
3.128105e+003;4.508649e-002
3.130033e+003;4.476887e-002
3.131962e+003;4.459332e-002
3.133890e+003;4.469636e-002
3.135819e+003;4.478084e-002
3.137748e+003;4.483113e-002
3.139676e+003;4.465839e-002
3.141605e+003;4.445668e-002
3.143533e+003;4.423060e-002
3.145462e+003;4.441286e-002
3.147390e+003;4.513491e-002
3.149319e+003;4.545398e-002
3.151247e+003;4.563561e-002
3.153176e+003;4.586622e-002
3.155104e+003;4.616317e-002
3.157033e+003;4.638407e-002
3.158962e+003;4.647673e-002
3.160890e+003;4.697817e-002
3.162819e+003;4.758632e-002
3.164747e+003;4.802543e-002
3.166676e+003;4.837811e-002
3.168604e+003;4.869732e-002
3.170533e+003;4.918853e-002
3.172461e+003;5.004258e-002
3.174390e+003;5.097663e-002
3.176319e+003;5.132803e-002
3.178247e+003;5.174093e-002
3.180176e+003;5.225529e-002
3.182104e+003;5.273277e-002
3.184033e+003;5.340749e-002
3.185961e+003;5.426163e-002
3.187890e+003;5.496374e-002
3.189818e+003;5.534063e-002
3.191747e+003;5.566152e-002
3.193676e+003;5.604821e-002
3.195604e+003;5.630746e-002
3.197532e+003;5.660081e-002
3.199461e+003;5.691905e-002
3.201390e+003;5.713974e-002
3.203318e+003;5.735631e-002
3.205247e+003;5.777283e-002
3.207175e+003;5.803220e-002
3.209104e+003;5.856352e-002
3.211032e+003;5.899531e-002
3.212961e+003;5.916424e-002
3.214889e+003;5.970819e-002
3.216818e+003;6.025477e-002
3.218747e+003;6.054074e-002
3.220675e+003;6.121374e-002
3.222604e+003;6.210640e-002
3.224532e+003;6.249520e-002
3.226461e+003;6.279666e-002
3.228389e+003;6.363066e-002
3.230318e+003;6.464284e-002
3.232246e+003;6.576315e-002
3.234175e+003;6.687246e-002
3.236104e+003;6.815202e-002
3.238032e+003;6.963089e-002
3.239961e+003;7.089631e-002
3.241889e+003;7.216527e-002
3.243818e+003;7.357386e-002
3.245746e+003;7.506102e-002
3.247675e+003;7.659207e-002
3.249603e+003;7.819037e-002
3.251532e+003;8.036940e-002
3.253460e+003;8.259833e-002
3.255389e+003;8.417787e-002
3.257318e+003;8.581884e-002
3.259246e+003;8.783726e-002
3.261175e+003;8.992268e-002
3.263103e+003;9.188768e-002
3.265032e+003;9.367298e-002
3.266960e+003;9.570366e-002
3.268889e+003;9.796567e-002
3.270817e+003;1.005032e-001
3.272746e+003;1.028279e-001
3.274675e+003;1.051578e-001
3.276603e+003;1.075794e-001
3.278531e+003;1.095580e-001
3.280460e+003;1.111734e-001
3.282389e+003;1.130937e-001
3.284317e+003;1.156725e-001
3.286246e+003;1.181177e-001
3.288174e+003;1.199869e-001
3.290103e+003;1.215592e-001
3.292031e+003;1.222862e-001
3.293960e+003;1.225091e-001
3.295888e+003;1.218538e-001
3.297817e+003;1.203563e-001
3.299746e+003;1.187093e-001
3.301674e+003;1.164234e-001
3.303603e+003;1.132604e-001
3.305531e+003;1.097463e-001
3.307460e+003;1.064917e-001
3.309388e+003;1.032552e-001
3.311317e+003;1.000211e-001
3.313245e+003;9.737232e-002
3.315174e+003;9.469029e-002
3.317103e+003;9.162929e-002
3.319031e+003;8.846028e-002
3.320960e+003;8.536468e-002
3.322888e+003;8.252160e-002
3.324817e+003;7.990138e-002
3.326745e+003;7.719729e-002
3.328674e+003;7.520062e-002
3.330602e+003;7.342826e-002
3.332531e+003;7.125805e-002
3.334459e+003;6.895440e-002
3.336388e+003;6.706838e-002
3.338317e+003;6.557225e-002
3.340245e+003;6.384366e-002
3.342174e+003;6.190923e-002
3.344102e+003;6.022561e-002
3.346031e+003;5.844682e-002
3.347959e+003;5.704232e-002
3.349888e+003;5.598481e-002
3.351816e+003;5.492305e-002
3.353745e+003;5.390121e-002
3.355674e+003;5.283006e-002
3.357602e+003;5.151717e-002
3.359531e+003;5.030743e-002
3.361459e+003;4.949288e-002
3.363388e+003;4.887456e-002
3.365316e+003;4.818696e-002
3.367245e+003;4.763065e-002
3.369173e+003;4.681255e-002
3.371102e+003;4.584372e-002
3.373031e+003;4.489583e-002
3.374959e+003;4.425852e-002
3.376887e+003;4.397086e-002
3.378816e+003;4.375350e-002
3.380745e+003;4.350943e-002
3.382673e+003;4.317696e-002
3.384602e+003;4.245115e-002
3.386530e+003;4.165378e-002
3.388459e+003;4.116113e-002
3.390387e+003;4.102321e-002
3.392316e+003;4.091138e-002
3.394244e+003;4.033006e-002
3.396173e+003;3.958724e-002
3.398102e+003;3.946469e-002
3.400030e+003;3.924699e-002
3.401959e+003;3.876055e-002
3.403887e+003;3.847463e-002
3.405816e+003;3.843597e-002
3.407744e+003;3.822406e-002
3.409673e+003;3.774831e-002
3.411601e+003;3.728058e-002
3.413530e+003;3.713096e-002
3.415458e+003;3.694870e-002
3.417387e+003;3.663303e-002
3.419316e+003;3.622510e-002
3.421244e+003;3.617922e-002
3.423173e+003;3.595010e-002
3.425101e+003;3.549549e-002
3.427030e+003;3.589244e-002
3.428958e+003;3.614205e-002
3.430887e+003;3.556352e-002
3.432815e+003;3.526025e-002
3.434744e+003;3.533727e-002
3.436673e+003;3.544687e-002
3.438601e+003;3.526421e-002
3.440530e+003;3.484111e-002
3.442458e+003;3.450771e-002
3.444387e+003;3.429493e-002
3.446315e+003;3.440473e-002
3.448244e+003;3.442245e-002
3.450172e+003;3.460150e-002
3.452101e+003;3.474699e-002
3.454030e+003;3.422816e-002
3.455958e+003;3.360219e-002
3.457886e+003;3.317831e-002
3.459815e+003;3.292032e-002
3.461744e+003;3.254292e-002
3.463672e+003;3.219523e-002
3.465601e+003;3.217613e-002
3.467529e+003;3.244387e-002
3.469458e+003;3.230340e-002
3.471386e+003;3.206325e-002
3.473315e+003;3.164797e-002
3.475243e+003;3.153711e-002
3.477172e+003;3.157641e-002
3.479101e+003;3.139052e-002
3.481029e+003;3.131480e-002
3.482958e+003;3.134450e-002
3.484886e+003;3.132933e-002
3.486815e+003;3.155375e-002
3.488743e+003;3.152379e-002
3.490672e+003;3.108268e-002
3.492600e+003;3.108798e-002
3.494529e+003;3.122269e-002
3.496458e+003;3.086999e-002
3.498386e+003;3.021062e-002
3.500315e+003;2.996051e-002
3.502243e+003;3.029584e-002
3.504172e+003;3.027268e-002
3.506100e+003;3.000138e-002
3.508029e+003;2.952085e-002
3.509957e+003;2.880792e-002
3.511886e+003;2.863687e-002
3.513814e+003;2.883561e-002
3.515743e+003;2.885547e-002
3.517672e+003;2.892432e-002
3.519600e+003;2.876108e-002
3.521529e+003;2.818306e-002
3.523457e+003;2.755560e-002
3.525386e+003;2.712238e-002
3.527314e+003;2.682639e-002
3.529243e+003;2.675574e-002
3.531171e+003;2.710704e-002
3.533100e+003;2.697403e-002
3.535029e+003;2.654164e-002
3.536957e+003;2.614997e-002
3.538885e+003;2.571274e-002
3.540814e+003;2.521498e-002
3.542743e+003;2.500676e-002
3.544671e+003;2.508174e-002
3.546600e+003;2.490447e-002
3.548528e+003;2.454326e-002
3.550457e+003;2.407150e-002
3.552385e+003;2.334469e-002
3.554314e+003;2.304110e-002
3.556242e+003;2.275930e-002
3.558171e+003;2.235170e-002
3.560100e+003;2.222523e-002
3.562028e+003;2.192249e-002
3.563957e+003;2.159528e-002
3.565885e+003;2.092308e-002
3.567814e+003;2.045394e-002
3.569742e+003;2.051563e-002
3.571671e+003;2.023609e-002
3.573599e+003;1.990182e-002
3.575528e+003;1.995430e-002
3.577457e+003;1.965196e-002
3.579385e+003;1.906727e-002
3.581314e+003;1.880274e-002
3.583242e+003;1.881129e-002
3.585171e+003;1.824296e-002
3.587099e+003;1.780377e-002
3.589028e+003;1.776943e-002
3.590956e+003;1.739807e-002
3.592885e+003;1.682425e-002
3.594813e+003;1.643643e-002
3.596742e+003;1.621312e-002
3.598671e+003;1.627565e-002
3.600599e+003;1.616765e-002
3.602528e+003;1.588477e-002
3.604456e+003;1.579618e-002
3.606385e+003;1.498618e-002
3.608313e+003;1.399666e-002
3.610242e+003;1.396549e-002
3.612170e+003;1.415588e-002
3.614099e+003;1.413414e-002
3.616028e+003;1.333055e-002
3.617956e+003;1.262940e-002
3.619885e+003;1.282941e-002
3.621813e+003;1.333209e-002
3.623742e+003;1.358927e-002
3.625670e+003;1.319828e-002
3.627599e+003;1.184063e-002
3.629527e+003;1.124411e-002
3.631456e+003;1.181836e-002
3.633385e+003;1.207942e-002
3.635313e+003;1.181649e-002
3.637241e+003;1.144338e-002
3.639170e+003;1.119233e-002
3.641099e+003;1.115126e-002
3.643027e+003;1.093126e-002
3.644956e+003;1.018003e-002
3.646884e+003;9.348605e-003
3.648813e+003;8.752929e-003
3.650741e+003;8.931103e-003
3.652670e+003;9.463253e-003
3.654598e+003;9.456379e-003
3.656527e+003;9.399594e-003
3.658456e+003;9.470771e-003
3.660384e+003;9.299925e-003
3.662313e+003;9.319931e-003
3.664241e+003;9.407483e-003
3.666170e+003;9.122750e-003
3.668098e+003;8.010619e-003
3.670027e+003;7.274192e-003
3.671955e+003;7.946058e-003
3.673884e+003;7.630312e-003
3.675813e+003;7.152508e-003
3.677741e+003;7.976667e-003
3.679669e+003;8.239139e-003
3.681598e+003;8.127211e-003
3.683527e+003;7.805428e-003
3.685455e+003;7.422841e-003
3.687384e+003;6.453550e-003
3.689312e+003;6.194574e-003
3.691241e+003;6.720217e-003
3.693169e+003;7.021092e-003
3.695098e+003;6.889581e-003
3.697026e+003;6.539517e-003
3.698955e+003;6.262170e-003
3.700884e+003;6.151925e-003
3.702812e+003;6.518091e-003
3.704741e+003;6.535111e-003
3.706669e+003;6.177333e-003
3.708598e+003;5.864683e-003
3.710526e+003;5.413810e-003
3.712455e+003;5.326455e-003
3.714383e+003;5.628346e-003
3.716312e+003;5.662618e-003
3.718240e+003;5.639926e-003
3.720169e+003;5.518497e-003
3.722098e+003;5.687863e-003
3.724026e+003;5.934242e-003
3.725955e+003;5.433538e-003
3.727883e+003;5.164708e-003
3.729812e+003;5.443268e-003
3.731740e+003;5.212190e-003
3.733669e+003;4.909046e-003
3.735597e+003;4.496223e-003
3.737526e+003;4.859185e-003
3.739455e+003;5.444408e-003
3.741383e+003;5.128765e-003
3.743312e+003;4.096436e-003
3.745240e+003;4.455716e-003
3.747169e+003;5.175371e-003
3.749097e+003;4.425488e-003
3.751026e+003;4.050012e-003
3.752954e+003;4.657186e-003
3.754883e+003;5.655703e-003
3.756812e+003;5.722173e-003
3.758740e+003;5.519705e-003
3.760668e+003;5.832779e-003
3.762597e+003;6.315218e-003
3.764526e+003;6.325707e-003
3.766454e+003;6.314243e-003
3.768383e+003;5.902031e-003
3.770311e+003;5.853566e-003
3.772240e+003;6.179484e-003
3.774168e+003;6.402435e-003
3.776097e+003;6.346418e-003
3.778025e+003;5.985738e-003
3.779954e+003;5.975727e-003
3.781883e+003;6.119295e-003
3.783811e+003;6.095806e-003
3.785740e+003;5.928565e-003
3.787668e+003;5.816525e-003
3.789597e+003;5.849100e-003
3.791525e+003;5.988594e-003
3.793454e+003;5.780898e-003
3.795382e+003;5.034763e-003
3.797311e+003;4.965348e-003
3.799240e+003;4.876107e-003
3.801168e+003;4.765209e-003
3.803097e+003;5.628144e-003
3.805025e+003;5.582899e-003
3.806954e+003;5.587934e-003
3.808882e+003;6.270708e-003
3.810811e+003;6.283986e-003
3.812739e+003;6.002871e-003
3.814668e+003;5.442932e-003
3.816596e+003;5.777708e-003
3.818525e+003;6.099099e-003
3.820454e+003;5.445817e-003
3.822382e+003;5.929338e-003
3.824311e+003;6.577023e-003
3.826239e+003;6.203885e-003
3.828168e+003;6.419618e-003
3.830096e+003;6.299451e-003
3.832025e+003;6.045002e-003
3.833953e+003;5.956580e-003
3.835882e+003;5.160215e-003
3.837811e+003;5.026652e-003
3.839739e+003;6.035057e-003
3.841667e+003;6.602489e-003
3.843596e+003;7.020721e-003
3.845525e+003;7.070057e-003
3.847453e+003;6.913651e-003
3.849382e+003;6.457384e-003
3.851310e+003;5.471787e-003
3.853239e+003;4.626107e-003
3.855167e+003;5.651440e-003
3.857096e+003;6.646596e-003
3.859024e+003;6.694744e-003
3.860953e+003;6.727991e-003
3.862882e+003;6.680982e-003
3.864810e+003;6.414474e-003
3.866739e+003;6.535480e-003
3.868667e+003;6.409194e-003
3.870596e+003;6.545672e-003
3.872524e+003;6.956745e-003
3.874453e+003;6.923616e-003
3.876381e+003;7.090298e-003
3.878310e+003;6.716886e-003
3.880239e+003;6.308931e-003
3.882167e+003;6.716819e-003
3.884096e+003;6.685760e-003
3.886024e+003;6.554048e-003
3.887953e+003;7.411179e-003
3.889881e+003;7.578722e-003
3.891810e+003;7.772235e-003
3.893738e+003;8.397003e-003
3.895667e+003;8.258016e-003
3.897595e+003;7.476132e-003
3.899524e+003;7.133847e-003
3.901453e+003;7.354391e-003
3.903381e+003;6.977082e-003
3.905310e+003;7.011057e-003
3.907238e+003;7.829111e-003
3.909167e+003;8.259671e-003
3.911095e+003;7.884207e-003
3.913024e+003;7.751186e-003
3.914952e+003;7.538904e-003
3.916881e+003;7.590759e-003
3.918810e+003;7.692667e-003
3.920738e+003;7.058101e-003
3.922667e+003;7.006040e-003
3.924595e+003;7.709396e-003
3.926524e+003;8.310059e-003
3.928452e+003;8.693565e-003
3.930381e+003;8.792689e-003
3.932309e+003;8.748195e-003
3.934238e+003;9.112057e-003
3.936167e+003;9.231754e-003
3.938095e+003;8.793501e-003
3.940023e+003;8.926705e-003
3.941952e+003;9.090537e-003
3.943881e+003;8.735213e-003
3.945809e+003;9.215305e-003
3.947738e+003;9.597952e-003
3.949666e+003;8.857274e-003
3.951595e+003;8.713678e-003
3.953523e+003;9.106847e-003
3.955452e+003;9.202647e-003
3.957380e+003;9.261336e-003
3.959309e+003;9.795383e-003
3.961238e+003;9.869303e-003
3.963166e+003;9.657472e-003
3.965095e+003;1.008622e-002
3.967023e+003;1.027536e-002
3.968952e+003;1.017060e-002
3.970880e+003;1.021202e-002
3.972809e+003;1.017237e-002
3.974737e+003;9.994056e-003
3.976666e+003;9.955474e-003
3.978594e+003;9.895403e-003
3.980523e+003;9.848016e-003
3.982452e+003;9.699213e-003
3.984380e+003;9.848457e-003
3.986309e+003;1.032615e-002
3.988237e+003;1.046784e-002
3.990166e+003;1.044411e-002
3.992094e+003;1.066954e-002
3.994023e+003;1.098393e-002
3.995951e+003;1.122252e-002
3.997880e+003;1.146369e-002
3.999809e+003;1.148326e-002
4.001737e+003;0.000000e+000
