3.992094e+002;0.000000e+000
4.011380e+002;0.000000e+000
4.030665e+002;0.000000e+000
4.049951e+002;0.000000e+000
4.069236e+002;0.000000e+000
4.088522e+002;0.000000e+000
4.107807e+002;0.000000e+000
4.127093e+002;0.000000e+000
4.146378e+002;0.000000e+000
4.165664e+002;0.000000e+000
4.184949e+002;0.000000e+000
4.204235e+002;0.000000e+000
4.223520e+002;0.000000e+000
4.242806e+002;0.000000e+000
4.262091e+002;0.000000e+000
4.281377e+002;0.000000e+000
4.300662e+002;0.000000e+000
4.319948e+002;0.000000e+000
4.339233e+002;0.000000e+000
4.358519e+002;0.000000e+000
4.377804e+002;0.000000e+000
4.397090e+002;0.000000e+000
4.416375e+002;0.000000e+000
4.435660e+002;0.000000e+000
4.454946e+002;0.000000e+000
4.474232e+002;0.000000e+000
4.493517e+002;0.000000e+000
4.512802e+002;0.000000e+000
4.532088e+002;0.000000e+000
4.551373e+002;0.000000e+000
4.570659e+002;0.000000e+000
4.589944e+002;0.000000e+000
4.609230e+002;0.000000e+000
4.628515e+002;0.000000e+000
4.647801e+002;0.000000e+000
4.667086e+002;0.000000e+000
4.686372e+002;0.000000e+000
4.705657e+002;0.000000e+000
4.724943e+002;0.000000e+000
4.744228e+002;0.000000e+000
4.763513e+002;0.000000e+000
4.782799e+002;0.000000e+000
4.802085e+002;0.000000e+000
4.821370e+002;0.000000e+000
4.840656e+002;0.000000e+000
4.859941e+002;0.000000e+000
4.879226e+002;0.000000e+000
4.898512e+002;0.000000e+000
4.917798e+002;0.000000e+000
4.937083e+002;0.000000e+000
4.956368e+002;0.000000e+000
4.975654e+002;0.000000e+000
4.994939e+002;0.000000e+000
5.014225e+002;0.000000e+000
5.033510e+002;0.000000e+000
5.052796e+002;0.000000e+000
5.072081e+002;0.000000e+000
5.091367e+002;0.000000e+000
5.110652e+002;0.000000e+000
5.129938e+002;0.000000e+000
5.149223e+002;0.000000e+000
5.168509e+002;0.000000e+000
5.187794e+002;0.000000e+000
5.207079e+002;0.000000e+000
5.226365e+002;0.000000e+000
5.245651e+002;0.000000e+000
5.264936e+002;0.000000e+000
5.284222e+002;0.000000e+000
5.303507e+002;0.000000e+000
5.322792e+002;0.000000e+000
5.342078e+002;0.000000e+000
5.361364e+002;0.000000e+000
5.380649e+002;0.000000e+000
5.399935e+002;0.000000e+000
5.419220e+002;0.000000e+000
5.438505e+002;0.000000e+000
5.457791e+002;0.000000e+000
5.477076e+002;0.000000e+000
5.496362e+002;0.000000e+000
5.515648e+002;0.000000e+000
5.534933e+002;0.000000e+000
5.554218e+002;0.000000e+000
5.573504e+002;0.000000e+000
5.592789e+002;0.000000e+000
5.612075e+002;0.000000e+000
5.631360e+002;0.000000e+000
5.650646e+002;0.000000e+000
5.669931e+002;0.000000e+000
5.689217e+002;0.000000e+000
5.708502e+002;0.000000e+000
5.727787e+002;0.000000e+000
5.747073e+002;0.000000e+000
5.766359e+002;0.000000e+000
5.785644e+002;0.000000e+000
5.804930e+002;0.000000e+000
5.824215e+002;0.000000e+000
5.843500e+002;0.000000e+000
5.862786e+002;0.000000e+000
5.882072e+002;0.000000e+000
5.901357e+002;0.000000e+000
5.920643e+002;0.000000e+000
5.939928e+002;0.000000e+000
5.959213e+002;0.000000e+000
5.978499e+002;0.000000e+000
5.997784e+002;1.538110e-001
6.017070e+002;1.487148e-001
6.036355e+002;1.493125e-001
6.055641e+002;1.493632e-001
6.074926e+002;1.518591e-001
6.094211e+002;1.523517e-001
6.113497e+002;1.501237e-001
6.132783e+002;1.492261e-001
6.152068e+002;1.492724e-001
6.171354e+002;1.493731e-001
6.190639e+002;1.496513e-001
6.209924e+002;1.523430e-001
6.229210e+002;1.556808e-001
6.248495e+002;1.584568e-001
6.267781e+002;1.590908e-001
6.287067e+002;1.583936e-001
6.306352e+002;1.540461e-001
6.325637e+002;1.504740e-001
6.344923e+002;1.523276e-001
6.364208e+002;1.545697e-001
6.383494e+002;1.574529e-001
6.402780e+002;1.609516e-001
6.422065e+002;1.636764e-001
6.441350e+002;1.647025e-001
6.460636e+002;1.656388e-001
6.479921e+002;1.683031e-001
6.499207e+002;1.722082e-001
6.518492e+002;1.739263e-001
6.537778e+002;1.763487e-001
6.557063e+002;1.795558e-001
6.576349e+002;1.819028e-001
6.595634e+002;1.861891e-001
6.614919e+002;1.874268e-001
6.634205e+002;1.884323e-001
6.653491e+002;1.904392e-001
6.672776e+002;1.935927e-001
6.692062e+002;1.971344e-001
6.711347e+002;1.993346e-001
6.730632e+002;1.996142e-001
6.749918e+002;2.007122e-001
6.769203e+002;2.029351e-001
6.788489e+002;2.042149e-001
6.807775e+002;2.043494e-001
6.827060e+002;2.051014e-001
6.846345e+002;2.046592e-001
6.865631e+002;2.028729e-001
6.884916e+002;2.020433e-001
6.904202e+002;2.007525e-001
6.923488e+002;1.969540e-001
6.942773e+002;1.938153e-001
6.962058e+002;1.905169e-001
6.981344e+002;1.859147e-001
7.000629e+002;1.815386e-001
7.019915e+002;1.785962e-001
7.039200e+002;1.774869e-001
7.058486e+002;1.761479e-001
7.077771e+002;1.735148e-001
7.097057e+002;1.706826e-001
7.116342e+002;1.693760e-001
7.135627e+002;1.685110e-001
7.154913e+002;1.657706e-001
7.174199e+002;1.626000e-001
7.193484e+002;1.610114e-001
7.212770e+002;1.617223e-001
7.232055e+002;1.627858e-001
7.251340e+002;1.636753e-001
7.270626e+002;1.641596e-001
7.289911e+002;1.617629e-001
7.309197e+002;1.560285e-001
7.328483e+002;1.483861e-001
7.347768e+002;1.421400e-001
7.367053e+002;1.363160e-001
7.386339e+002;1.306788e-001
7.405624e+002;1.260494e-001
7.424910e+002;1.224620e-001
7.444196e+002;1.202401e-001
7.463481e+002;1.188498e-001
7.482766e+002;1.164544e-001
7.502052e+002;1.142189e-001
7.521337e+002;1.122627e-001
7.540623e+002;1.096953e-001
7.559908e+002;1.080417e-001
7.579194e+002;1.071492e-001
7.598479e+002;1.056353e-001
7.617765e+002;1.034914e-001
7.637050e+002;1.020386e-001
7.656335e+002;1.008354e-001
7.675621e+002;9.984452e-002
7.694907e+002;9.844667e-002
7.714192e+002;9.657168e-002
7.733478e+002;9.508345e-002
7.752763e+002;9.433260e-002
7.772048e+002;9.385172e-002
7.791334e+002;9.197120e-002
7.810620e+002;9.025595e-002
7.829905e+002;8.975065e-002
7.849191e+002;8.822089e-002
7.868476e+002;8.686827e-002
7.887761e+002;8.658203e-002
7.907047e+002;8.524536e-002
7.926332e+002;8.331357e-002
7.945618e+002;8.214824e-002
7.964903e+002;8.103390e-002
7.984189e+002;7.939103e-002
8.003474e+002;7.876717e-002
8.022759e+002;7.842267e-002
8.042045e+002;7.692368e-002
8.061331e+002;7.461245e-002
8.080616e+002;7.311620e-002
8.099902e+002;7.313114e-002
8.119187e+002;7.314067e-002
8.138472e+002;7.224169e-002
8.157758e+002;7.123825e-002
8.177043e+002;7.110850e-002
8.196329e+002;7.143549e-002
8.215615e+002;7.131345e-002
8.234900e+002;7.085758e-002
8.254185e+002;7.144373e-002
8.273471e+002;7.290593e-002
8.292756e+002;7.472759e-002
8.312042e+002;7.641357e-002
8.331328e+002;7.636739e-002
8.350613e+002;7.416014e-002
8.369898e+002;7.092245e-002
8.389184e+002;6.885212e-002
8.408469e+002;6.734312e-002
8.427755e+002;6.555449e-002
8.447040e+002;6.444263e-002
8.466326e+002;6.339234e-002
8.485611e+002;6.278632e-002
8.504897e+002;6.284701e-002
8.524182e+002;6.233541e-002
8.543467e+002;6.148285e-002
8.562753e+002;6.139094e-002
8.582039e+002;6.184114e-002
8.601324e+002;6.176592e-002
8.620610e+002;6.162446e-002
8.639895e+002;6.146862e-002
8.659180e+002;6.137870e-002
8.678466e+002;6.214654e-002
8.697751e+002;6.260468e-002
8.717037e+002;6.186429e-002
8.736323e+002;6.123404e-002
8.755608e+002;6.120466e-002
8.774893e+002;6.133408e-002
8.794179e+002;6.141682e-002
8.813464e+002;6.157647e-002
8.832750e+002;6.174339e-002
8.852036e+002;6.174282e-002
8.871321e+002;6.193369e-002
8.890606e+002;6.250190e-002
8.909892e+002;6.261303e-002
8.929177e+002;6.198978e-002
8.948463e+002;6.149877e-002
8.967748e+002;6.176592e-002
8.987034e+002;6.215488e-002
9.006319e+002;6.226944e-002
9.025605e+002;6.296700e-002
9.044890e+002;6.390458e-002
9.064175e+002;6.410792e-002
9.083461e+002;6.420898e-002
9.102747e+002;6.453127e-002
9.122032e+002;6.506740e-002
9.141318e+002;6.551203e-002
9.160603e+002;6.589267e-002
9.179888e+002;6.666797e-002
9.199174e+002;6.766918e-002
9.218459e+002;6.866129e-002
9.237745e+002;7.006671e-002
9.257031e+002;7.183613e-002
9.276316e+002;7.292847e-002
9.295601e+002;7.341523e-002
9.314887e+002;7.314204e-002
9.334172e+002;7.192230e-002
9.353458e+002;7.065538e-002
9.372744e+002;6.963728e-002
9.392029e+002;6.936174e-002
9.411314e+002;6.942717e-002
9.430600e+002;7.005678e-002
9.449885e+002;7.133707e-002
9.469171e+002;7.306550e-002
9.488456e+002;7.473448e-002
9.507742e+002;7.602151e-002
9.527027e+002;7.653883e-002
9.546313e+002;7.701989e-002
9.565598e+002;7.835031e-002
9.584883e+002;7.884594e-002
9.604169e+002;7.826706e-002
9.623455e+002;7.704601e-002
9.642740e+002;7.572612e-002
9.662026e+002;7.498486e-002
9.681311e+002;7.438085e-002
9.700596e+002;7.397935e-002
9.719882e+002;7.354198e-002
9.739167e+002;7.288798e-002
9.758453e+002;7.229283e-002
9.777739e+002;7.208840e-002
9.797024e+002;7.158632e-002
9.816309e+002;7.103302e-002
9.835595e+002;7.098363e-002
9.854880e+002;7.088547e-002
9.874166e+002;7.018381e-002
9.893452e+002;6.942145e-002
9.912737e+002;6.916253e-002
9.932022e+002;6.873623e-002
9.951307e+002;6.819761e-002
9.970593e+002;6.785368e-002
9.989879e+002;6.777187e-002
1.000916e+003;6.757866e-002
1.002845e+003;6.708229e-002
1.004773e+003;6.690125e-002
1.006702e+003;6.693055e-002
1.008631e+003;6.708010e-002
1.010559e+003;6.719229e-002
1.012488e+003;6.704143e-002
1.014416e+003;6.714281e-002
1.016345e+003;6.734064e-002
1.018273e+003;6.770972e-002
1.020202e+003;6.796851e-002
1.022130e+003;6.866851e-002
1.024059e+003;6.933033e-002
1.025988e+003;7.005865e-002
1.027916e+003;7.112298e-002
1.029845e+003;7.126980e-002
1.031773e+003;7.016601e-002
1.033702e+003;6.925648e-002
1.035630e+003;6.840976e-002
1.037559e+003;6.786472e-002
1.039487e+003;6.841496e-002
1.041416e+003;6.887075e-002
1.043344e+003;6.871617e-002
1.045273e+003;6.846426e-002
1.047202e+003;6.844669e-002
1.049130e+003;6.885899e-002
1.051059e+003;6.965295e-002
1.052987e+003;7.063152e-002
1.054916e+003;7.169839e-002
1.056844e+003;7.264042e-002
1.058773e+003;7.375766e-002
1.060701e+003;7.528006e-002
1.062630e+003;7.667365e-002
1.064558e+003;7.729253e-002
1.066487e+003;7.808244e-002
1.068416e+003;7.917674e-002
1.070344e+003;7.964541e-002
1.072273e+003;7.976300e-002
1.074201e+003;7.972889e-002
1.076130e+003;7.931931e-002
1.078058e+003;7.888174e-002
1.079987e+003;7.853548e-002
1.081915e+003;7.779397e-002
1.083844e+003;7.742549e-002
1.085773e+003;7.702322e-002
1.087701e+003;7.643538e-002
1.089630e+003;7.655705e-002
1.091558e+003;7.708217e-002
1.093487e+003;7.788394e-002
1.095415e+003;7.820326e-002
1.097344e+003;7.840952e-002
1.099272e+003;7.948045e-002
1.101201e+003;8.087784e-002
1.103129e+003;8.267544e-002
1.105058e+003;8.467520e-002
1.106987e+003;8.637922e-002
1.108915e+003;8.748221e-002
1.110844e+003;8.823624e-002
1.112772e+003;8.869317e-002
1.114701e+003;8.873418e-002
1.116629e+003;8.857728e-002
1.118558e+003;8.826750e-002
1.120486e+003;8.773720e-002
1.122415e+003;8.675222e-002
1.124344e+003;8.481398e-002
1.126272e+003;8.192519e-002
1.128201e+003;7.872287e-002
1.130129e+003;7.651247e-002
1.132058e+003;7.492642e-002
1.133986e+003;7.380538e-002
1.135915e+003;7.353339e-002
1.137843e+003;7.363623e-002
1.139772e+003;7.401832e-002
1.141700e+003;7.486083e-002
1.143629e+003;7.662077e-002
1.145557e+003;7.874623e-002
1.147486e+003;8.028516e-002
1.149415e+003;8.170865e-002
1.151343e+003;8.368174e-002
1.153272e+003;8.631559e-002
1.155200e+003;8.947162e-002
1.157129e+003;9.299750e-002
1.159057e+003;9.707990e-002
1.160986e+003;1.022553e-001
1.162914e+003;1.083984e-001
1.164843e+003;1.141610e-001
1.166771e+003;1.187868e-001
1.168700e+003;1.211065e-001
1.170629e+003;1.202611e-001
1.172557e+003;1.171955e-001
1.174486e+003;1.130050e-001
1.176414e+003;1.084878e-001
1.178343e+003;1.043246e-001
1.180271e+003;1.015031e-001
1.182200e+003;1.003202e-001
1.184128e+003;1.006443e-001
1.186057e+003;1.024622e-001
1.187986e+003;1.059601e-001
1.189914e+003;1.102578e-001
1.191843e+003;1.152810e-001
1.193771e+003;1.208054e-001
1.195700e+003;1.265860e-001
1.197628e+003;1.318542e-001
1.199557e+003;1.343762e-001
1.201485e+003;1.323439e-001
1.203414e+003;1.276026e-001
1.205343e+003;1.230464e-001
1.207271e+003;1.200691e-001
1.209200e+003;1.186372e-001
1.211128e+003;1.180456e-001
1.213057e+003;1.171659e-001
1.214985e+003;1.150092e-001
1.216914e+003;1.115041e-001
1.218842e+003;1.081514e-001
1.220771e+003;1.061102e-001
1.222699e+003;1.061928e-001
1.224628e+003;1.079829e-001
1.226557e+003;1.112185e-001
1.228485e+003;1.155174e-001
1.230414e+003;1.199799e-001
1.232342e+003;1.244813e-001
1.234271e+003;1.286726e-001
1.236199e+003;1.314472e-001
1.238128e+003;1.328663e-001
1.240056e+003;1.331029e-001
1.241985e+003;1.329273e-001
1.243913e+003;1.330191e-001
1.245842e+003;1.333720e-001
1.247771e+003;1.347159e-001
1.249699e+003;1.373310e-001
1.251628e+003;1.406533e-001
1.253556e+003;1.443605e-001
1.255485e+003;1.483003e-001
1.257413e+003;1.520351e-001
1.259342e+003;1.549853e-001
1.261270e+003;1.564138e-001
1.263199e+003;1.551604e-001
1.265127e+003;1.508396e-001
1.267056e+003;1.436210e-001
1.268985e+003;1.358100e-001
1.270913e+003;1.301412e-001
1.272842e+003;1.269538e-001
1.274770e+003;1.254788e-001
1.276699e+003;1.250858e-001
1.278627e+003;1.246428e-001
1.280556e+003;1.236173e-001
1.282484e+003;1.223490e-001
1.284413e+003;1.207949e-001
1.286342e+003;1.191500e-001
1.288270e+003;1.180739e-001
1.290199e+003;1.175255e-001
1.292127e+003;1.168395e-001
1.294056e+003;1.157791e-001
1.295984e+003;1.147806e-001
1.297913e+003;1.142463e-001
1.299841e+003;1.139570e-001
1.301770e+003;1.135541e-001
1.303698e+003;1.126972e-001
1.305627e+003;1.113360e-001
1.307556e+003;1.097814e-001
1.309484e+003;1.083756e-001
1.311413e+003;1.072783e-001
1.313341e+003;1.065816e-001
1.315270e+003;1.056151e-001
1.317198e+003;1.047438e-001
1.319127e+003;1.036700e-001
1.321055e+003;1.025301e-001
1.322984e+003;1.021195e-001
1.324912e+003;1.021037e-001
1.326841e+003;1.022073e-001
1.328770e+003;1.025543e-001
1.330698e+003;1.030297e-001
1.332627e+003;1.035481e-001
1.334555e+003;1.040419e-001
1.336484e+003;1.040104e-001
1.338412e+003;1.038626e-001
1.340341e+003;1.044338e-001
1.342269e+003;1.056687e-001
1.344198e+003;1.070885e-001
1.346126e+003;1.082413e-001
1.348055e+003;1.093166e-001
1.349984e+003;1.105642e-001
1.351912e+003;1.119315e-001
1.353841e+003;1.135698e-001
1.355769e+003;1.153520e-001
1.357698e+003;1.170420e-001
1.359626e+003;1.185532e-001
1.361555e+003;1.201504e-001
1.363483e+003;1.221952e-001
1.365412e+003;1.246919e-001
1.367341e+003;1.269176e-001
1.369269e+003;1.287541e-001
1.371198e+003;1.297303e-001
1.373126e+003;1.295697e-001
1.375055e+003;1.284260e-001
1.376983e+003;1.260889e-001
1.378912e+003;1.226783e-001
1.380840e+003;1.189411e-001
1.382769e+003;1.151407e-001
1.384698e+003;1.115763e-001
1.386626e+003;1.079623e-001
1.388555e+003;1.052553e-001
1.390483e+003;1.034667e-001
1.392412e+003;1.016686e-001
1.394340e+003;1.001348e-001
1.396269e+003;9.974933e-002
1.398197e+003;1.004307e-001
1.400126e+003;1.024245e-001
1.402054e+003;1.050646e-001
1.403983e+003;1.081770e-001
1.405911e+003;1.131105e-001
1.407840e+003;1.199147e-001
1.409769e+003;1.274753e-001
1.411697e+003;1.347934e-001
1.413626e+003;1.412834e-001
1.415554e+003;1.451667e-001
1.417483e+003;1.448322e-001
1.419411e+003;1.420884e-001
1.421340e+003;1.390341e-001
1.423268e+003;1.353032e-001
1.425197e+003;1.325970e-001
1.427125e+003;1.318893e-001
1.429054e+003;1.326912e-001
1.430983e+003;1.348395e-001
1.432911e+003;1.372262e-001
1.434840e+003;1.378171e-001
1.436768e+003;1.371518e-001
1.438697e+003;1.376587e-001
1.440625e+003;1.376044e-001
1.442554e+003;1.366733e-001
1.444482e+003;1.361581e-001
1.446411e+003;1.365166e-001
1.448340e+003;1.376999e-001
1.450268e+003;1.399876e-001
1.452197e+003;1.424377e-001
1.454125e+003;1.439751e-001
1.456054e+003;1.449974e-001
1.457982e+003;1.500190e-001
1.459911e+003;1.577876e-001
1.461839e+003;1.629365e-001
1.463768e+003;1.620900e-001
1.465697e+003;1.561208e-001
1.467625e+003;1.484062e-001
1.469554e+003;1.417513e-001
1.471482e+003;1.381197e-001
1.473411e+003;1.386732e-001
1.475339e+003;1.408738e-001
1.477268e+003;1.409126e-001
1.479196e+003;1.378643e-001
1.481125e+003;1.321926e-001
1.483053e+003;1.255167e-001
1.484982e+003;1.188781e-001
1.486911e+003;1.140315e-001
1.488839e+003;1.120691e-001
1.490768e+003;1.131499e-001
1.492696e+003;1.162536e-001
1.494625e+003;1.189372e-001
1.496553e+003;1.223232e-001
1.498482e+003;1.279708e-001
1.500410e+003;1.341123e-001
1.502339e+003;1.397274e-001
1.504267e+003;1.441914e-001
1.506196e+003;1.491146e-001
1.508125e+003;1.575220e-001
1.510053e+003;1.668996e-001
1.511982e+003;1.755498e-001
1.513910e+003;1.842771e-001
1.515839e+003;1.925587e-001
1.517767e+003;2.014938e-001
1.519696e+003;2.104155e-001
1.521624e+003;2.204586e-001
1.523553e+003;2.324640e-001
1.525481e+003;2.438931e-001
1.527410e+003;2.558059e-001
1.529339e+003;2.677726e-001
1.531267e+003;2.781288e-001
1.533196e+003;2.869580e-001
1.535124e+003;2.948286e-001
1.537053e+003;2.983806e-001
1.538981e+003;2.962395e-001
1.540910e+003;2.935044e-001
1.542838e+003;2.891096e-001
1.544767e+003;2.804114e-001
1.546695e+003;2.692589e-001
1.548624e+003;2.561733e-001
1.550553e+003;2.420233e-001
1.552481e+003;2.277615e-001
1.554410e+003;2.141575e-001
1.556338e+003;2.015610e-001
1.558267e+003;1.884395e-001
1.560195e+003;1.791200e-001
1.562124e+003;1.725618e-001
1.564052e+003;1.644536e-001
1.565981e+003;1.561019e-001
1.567910e+003;1.473541e-001
1.569838e+003;1.390352e-001
1.571767e+003;1.328750e-001
1.573695e+003;1.260993e-001
1.575624e+003;1.188027e-001
1.577552e+003;1.150392e-001
1.579481e+003;1.128553e-001
1.581409e+003;1.100080e-001
1.583338e+003;1.076686e-001
1.585266e+003;1.060788e-001
1.587195e+003;1.056160e-001
1.589124e+003;1.058254e-001
1.591052e+003;1.066372e-001
1.592981e+003;1.081011e-001
1.594909e+003;1.106582e-001
1.596838e+003;1.140875e-001
1.598766e+003;1.181900e-001
1.600695e+003;1.233777e-001
1.602623e+003;1.297213e-001
1.604552e+003;1.373680e-001
1.606480e+003;1.458686e-001
1.608409e+003;1.547526e-001
1.610338e+003;1.645798e-001
1.612266e+003;1.756191e-001
1.614195e+003;1.873033e-001
1.616123e+003;2.000546e-001
1.618052e+003;2.174383e-001
1.619980e+003;2.366162e-001
1.621909e+003;2.548825e-001
1.623837e+003;2.741767e-001
1.625766e+003;2.943596e-001
1.627694e+003;3.146780e-001
1.629623e+003;3.360479e-001
1.631552e+003;3.571084e-001
1.633480e+003;3.732570e-001
1.635409e+003;3.812252e-001
1.637337e+003;3.803872e-001
1.639266e+003;3.683670e-001
1.641194e+003;3.476640e-001
1.643123e+003;3.230676e-001
1.645051e+003;2.969504e-001
1.646980e+003;2.731384e-001
1.648909e+003;2.535100e-001
1.650837e+003;2.336759e-001
1.652766e+003;2.149593e-001
1.654694e+003;2.043451e-001
1.656623e+003;1.963858e-001
1.658551e+003;1.864170e-001
1.660480e+003;1.761578e-001
1.662408e+003;1.658219e-001
1.664337e+003;1.561239e-001
1.666266e+003;1.462988e-001
1.668194e+003;1.358286e-001
1.670123e+003;1.263127e-001
1.672051e+003;1.183965e-001
1.673980e+003;1.104747e-001
1.675908e+003;1.029463e-001
1.677837e+003;9.622113e-002
1.679765e+003;8.877962e-002
1.681694e+003;8.035070e-002
1.683622e+003;7.111681e-002
1.685551e+003;6.582191e-002
1.687479e+003;6.308039e-002
1.689408e+003;5.930775e-002
1.691337e+003;5.609387e-002
1.693265e+003;5.272155e-002
1.695194e+003;4.888609e-002
1.697122e+003;4.770919e-002
1.699051e+003;4.617857e-002
1.700979e+003;4.560142e-002
1.702908e+003;4.730806e-002
1.704836e+003;4.713363e-002
1.706765e+003;4.714234e-002
1.708693e+003;4.735942e-002
1.710622e+003;4.729169e-002
1.712551e+003;4.666432e-002
1.714479e+003;4.544736e-002
1.716408e+003;4.392610e-002
1.718336e+003;4.438746e-002
1.720265e+003;4.644579e-002
1.722193e+003;4.721754e-002
1.724122e+003;4.695942e-002
1.726050e+003;4.702037e-002
1.727979e+003;4.692719e-002
1.729908e+003;4.645412e-002
1.731836e+003;4.488275e-002
1.733765e+003;4.291299e-002
1.735693e+003;4.403386e-002
1.737622e+003;4.481379e-002
1.739550e+003;4.361404e-002
1.741479e+003;4.318278e-002
1.743407e+003;4.284742e-002
1.745336e+003;4.218791e-002
1.747265e+003;4.120460e-002
1.749193e+003;3.975097e-002
1.751122e+003;3.863116e-002
1.753050e+003;3.895698e-002
1.754979e+003;3.882406e-002
1.756907e+003;3.801375e-002
1.758836e+003;3.752500e-002
1.760764e+003;3.665438e-002
1.762693e+003;3.620396e-002
1.764621e+003;3.630183e-002
1.766550e+003;3.560441e-002
1.768479e+003;3.489824e-002
1.770407e+003;3.386067e-002
1.772336e+003;3.263286e-002
1.774264e+003;3.301158e-002
1.776193e+003;3.328219e-002
1.778121e+003;3.309549e-002
1.780050e+003;3.301505e-002
1.781978e+003;3.269737e-002
1.783907e+003;3.212829e-002
1.785835e+003;3.198528e-002
1.787764e+003;3.201288e-002
1.789693e+003;3.135608e-002
1.791621e+003;3.043815e-002
1.793550e+003;3.035340e-002
1.795478e+003;3.080287e-002
1.797407e+003;3.071225e-002
1.799335e+003;3.032128e-002
1.801264e+003;3.012307e-002
1.803192e+003;3.040453e-002
1.805121e+003;3.049769e-002
1.807049e+003;3.019541e-002
1.808978e+003;2.966603e-002
1.810907e+003;2.945836e-002
1.812835e+003;2.950978e-002
1.814764e+003;2.964801e-002
1.816692e+003;2.948510e-002
1.818621e+003;2.920770e-002
1.820549e+003;2.911869e-002
1.822478e+003;2.917255e-002
1.824406e+003;2.892403e-002
1.826335e+003;2.875014e-002
1.828264e+003;2.844703e-002
1.830192e+003;2.829059e-002
1.832121e+003;2.857682e-002
1.834049e+003;2.863422e-002
1.835978e+003;2.854238e-002
1.837906e+003;2.860644e-002
1.839835e+003;2.863082e-002
1.841763e+003;2.805813e-002
1.843692e+003;2.717000e-002
1.845620e+003;2.734485e-002
1.847549e+003;2.774681e-002
1.849478e+003;2.789903e-002
1.851406e+003;2.798720e-002
1.853335e+003;2.783774e-002
1.855263e+003;2.774674e-002
1.857192e+003;2.765167e-002
1.859120e+003;2.758713e-002
1.861049e+003;2.751486e-002
1.862977e+003;2.749315e-002
1.864906e+003;2.732261e-002
1.866834e+003;2.684952e-002
1.868763e+003;2.673463e-002
1.870692e+003;2.726256e-002
1.872620e+003;2.756174e-002
1.874549e+003;2.757639e-002
1.876477e+003;2.745139e-002
1.878406e+003;2.744864e-002
1.880334e+003;2.755344e-002
1.882263e+003;2.759214e-002
1.884191e+003;2.771464e-002
1.886120e+003;2.774967e-002
1.888048e+003;2.765923e-002
1.889977e+003;2.769228e-002
1.891906e+003;2.785678e-002
1.893834e+003;2.803116e-002
1.895763e+003;2.816807e-002
1.897691e+003;2.817256e-002
1.899620e+003;2.843500e-002
1.901548e+003;2.850958e-002
1.903477e+003;2.825480e-002
1.905405e+003;2.802476e-002
1.907334e+003;2.788808e-002
1.909262e+003;2.755020e-002
1.911191e+003;2.728684e-002
1.913120e+003;2.737350e-002
1.915048e+003;2.759009e-002
1.916977e+003;2.720608e-002
1.918905e+003;2.704159e-002
1.920834e+003;2.735003e-002
1.922762e+003;2.744116e-002
1.924691e+003;2.741871e-002
1.926619e+003;2.747846e-002
1.928548e+003;2.748273e-002
1.930477e+003;2.742026e-002
1.932405e+003;2.739354e-002
1.934334e+003;2.729474e-002
1.936262e+003;2.727114e-002
1.938191e+003;2.728260e-002
1.940119e+003;2.729389e-002
1.942048e+003;2.725067e-002
1.943976e+003;2.723064e-002
1.945905e+003;2.719247e-002
1.947833e+003;2.717409e-002
1.949762e+003;2.718763e-002
1.951691e+003;2.725237e-002
1.953619e+003;2.729615e-002
1.955548e+003;2.725145e-002
1.957476e+003;2.714841e-002
1.959405e+003;2.740879e-002
1.961333e+003;2.778962e-002
1.963262e+003;2.781562e-002
1.965190e+003;2.759613e-002
1.967119e+003;2.754501e-002
1.969047e+003;2.765683e-002
1.970976e+003;2.767858e-002
1.972905e+003;2.773795e-002
1.974833e+003;2.782368e-002
1.976762e+003;2.809383e-002
1.978690e+003;2.816528e-002
1.980619e+003;2.799041e-002
1.982547e+003;2.806301e-002
1.984476e+003;2.815615e-002
1.986404e+003;2.801483e-002
1.988333e+003;2.797504e-002
1.990261e+003;2.786664e-002
1.992190e+003;2.782724e-002
1.994119e+003;2.811006e-002
1.996047e+003;2.833752e-002
1.997976e+003;2.834618e-002
1.999904e+003;2.841141e-002
2.001833e+003;2.839309e-002
2.003761e+003;2.843122e-002
2.005690e+003;2.853124e-002
2.007618e+003;2.857816e-002
2.009547e+003;2.866459e-002
2.011476e+003;2.876253e-002
2.013404e+003;2.880215e-002
2.015333e+003;2.881412e-002
2.017261e+003;2.883540e-002
2.019190e+003;2.887828e-002
2.021118e+003;2.901265e-002
2.023047e+003;2.920423e-002
2.024975e+003;2.936519e-002
2.026904e+003;2.937302e-002
2.028833e+003;2.936923e-002
2.030761e+003;2.940532e-002
2.032690e+003;2.960246e-002
2.034618e+003;2.975150e-002
2.036547e+003;2.978305e-002
2.038475e+003;2.992125e-002
2.040404e+003;2.998867e-002
2.042332e+003;2.998497e-002
2.044261e+003;2.990066e-002
2.046189e+003;2.981743e-002
2.048118e+003;3.003539e-002
2.050047e+003;3.046406e-002
2.051975e+003;3.027584e-002
2.053904e+003;3.005378e-002
2.055832e+003;3.027165e-002
2.057761e+003;3.033542e-002
2.059689e+003;3.043641e-002
2.061618e+003;3.074340e-002
2.063546e+003;3.091443e-002
2.065475e+003;3.099093e-002
2.067404e+003;3.107670e-002
2.069332e+003;3.113767e-002
2.071260e+003;3.115365e-002
2.073189e+003;3.097321e-002
2.075118e+003;3.095435e-002
2.077046e+003;3.126207e-002
2.078975e+003;3.135127e-002
2.080903e+003;3.119267e-002
2.082832e+003;3.107439e-002
2.084760e+003;3.098759e-002
2.086689e+003;3.090315e-002
2.088617e+003;3.068853e-002
2.090546e+003;3.064099e-002
2.092475e+003;3.072324e-002
2.094403e+003;3.055882e-002
2.096332e+003;3.025694e-002
2.098260e+003;3.019364e-002
2.100189e+003;3.032679e-002
2.102117e+003;3.036964e-002
2.104046e+003;3.034562e-002
2.105974e+003;3.020728e-002
2.107903e+003;3.010339e-002
2.109832e+003;3.013649e-002
2.111760e+003;3.026894e-002
2.113688e+003;3.046417e-002
2.115617e+003;3.061965e-002
2.117546e+003;3.044199e-002
2.119474e+003;3.026291e-002
2.121403e+003;3.039931e-002
2.123331e+003;3.059182e-002
2.125260e+003;3.056352e-002
2.127188e+003;3.029971e-002
2.129117e+003;3.016021e-002
2.131045e+003;3.026887e-002
2.132974e+003;3.048866e-002
2.134903e+003;3.049221e-002
2.136831e+003;3.043403e-002
2.138760e+003;3.018476e-002
2.140688e+003;2.984451e-002
2.142617e+003;3.001313e-002
2.144545e+003;3.012094e-002
2.146474e+003;3.000070e-002
2.148402e+003;3.000340e-002
2.150331e+003;3.028323e-002
2.152260e+003;3.055957e-002
2.154188e+003;3.036257e-002
2.156117e+003;3.019850e-002
2.158045e+003;3.057984e-002
2.159974e+003;3.083289e-002
2.161902e+003;3.088490e-002
2.163831e+003;3.094560e-002
2.165759e+003;3.096513e-002
2.167688e+003;3.118320e-002
2.169616e+003;3.139319e-002
2.171545e+003;3.137242e-002
2.173474e+003;3.113116e-002
2.175402e+003;3.119392e-002
2.177331e+003;3.161112e-002
2.179259e+003;3.143604e-002
2.181188e+003;3.108866e-002
2.183116e+003;3.121500e-002
2.185045e+003;3.149037e-002
2.186973e+003;3.147309e-002
2.188902e+003;3.144544e-002
2.190831e+003;3.165250e-002
2.192759e+003;3.185080e-002
2.194688e+003;3.181144e-002
2.196616e+003;3.166105e-002
2.198545e+003;3.163311e-002
2.200473e+003;3.166657e-002
2.202402e+003;3.161294e-002
2.204330e+003;3.162534e-002
2.206259e+003;3.158699e-002
2.208188e+003;3.148720e-002
2.210116e+003;3.147206e-002
2.212044e+003;3.139707e-002
2.213973e+003;3.118847e-002
2.215902e+003;3.115252e-002
2.217830e+003;3.118452e-002
2.219759e+003;3.108852e-002
2.221687e+003;3.114055e-002
2.223616e+003;3.102442e-002
2.225544e+003;3.078487e-002
2.227473e+003;3.077274e-002
2.229401e+003;3.066933e-002
2.231330e+003;3.051784e-002
2.233259e+003;3.037440e-002
2.235187e+003;3.047209e-002
2.237116e+003;3.062755e-002
2.239044e+003;3.070510e-002
2.240973e+003;3.078004e-002
2.242901e+003;3.085324e-002
2.244830e+003;3.079323e-002
2.246758e+003;3.081568e-002
2.248687e+003;3.094574e-002
2.250615e+003;3.098083e-002
2.252544e+003;3.096264e-002
2.254473e+003;3.102406e-002
2.256401e+003;3.101993e-002
2.258330e+003;3.103061e-002
2.260258e+003;3.104299e-002
2.262187e+003;3.103759e-002
2.264115e+003;3.106495e-002
2.266044e+003;3.090436e-002
2.267972e+003;3.086167e-002
2.269901e+003;3.112422e-002
2.271830e+003;3.120503e-002
2.273758e+003;3.094972e-002
2.275687e+003;3.087846e-002
2.277615e+003;3.117053e-002
2.279544e+003;3.127838e-002
2.281472e+003;3.126385e-002
2.283401e+003;3.132940e-002
2.285329e+003;3.136424e-002
2.287258e+003;3.148909e-002
2.289187e+003;3.165805e-002
2.291115e+003;3.167331e-002
2.293043e+003;3.168846e-002
2.294972e+003;3.165403e-002
2.296901e+003;3.173062e-002
2.298829e+003;3.165121e-002
2.300758e+003;3.150782e-002
2.302686e+003;3.165531e-002
2.304615e+003;3.192037e-002
2.306543e+003;3.191623e-002
2.308472e+003;3.189605e-002
2.310400e+003;3.201171e-002
2.312329e+003;3.214124e-002
2.314258e+003;3.212090e-002
2.316186e+003;3.201124e-002
2.318115e+003;3.191844e-002
2.320043e+003;3.161589e-002
2.321972e+003;3.156939e-002
2.323900e+003;3.178224e-002
2.325829e+003;3.151794e-002
2.327757e+003;3.101502e-002
2.329686e+003;3.089689e-002
2.331615e+003;3.097371e-002
2.333543e+003;3.090319e-002
2.335472e+003;3.077420e-002
2.337400e+003;3.062158e-002
2.339329e+003;3.065450e-002
2.341257e+003;3.072644e-002
2.343186e+003;3.076389e-002
2.345114e+003;3.099339e-002
2.347043e+003;3.124537e-002
2.348971e+003;3.149952e-002
2.350900e+003;3.145531e-002
2.352829e+003;3.090120e-002
2.354757e+003;3.069109e-002
2.356686e+003;3.080628e-002
2.358614e+003;3.070489e-002
2.360543e+003;3.069543e-002
2.362471e+003;3.065276e-002
2.364400e+003;3.074049e-002
2.366328e+003;3.064056e-002
2.368257e+003;3.075457e-002
2.370186e+003;3.138892e-002
2.372114e+003;3.167580e-002
2.374042e+003;3.161725e-002
2.375971e+003;3.169901e-002
2.377900e+003;3.187847e-002
2.379828e+003;3.210852e-002
2.381757e+003;3.247108e-002
2.383685e+003;3.255856e-002
2.385614e+003;3.238203e-002
2.387542e+003;3.264939e-002
2.389471e+003;3.282632e-002
2.391399e+003;3.266404e-002
2.393328e+003;3.252450e-002
2.395257e+003;3.237493e-002
2.397185e+003;3.230803e-002
2.399114e+003;3.232421e-002
2.401042e+003;3.238303e-002
2.402971e+003;3.248579e-002
2.404899e+003;3.254442e-002
2.406828e+003;3.270527e-002
2.408756e+003;3.281978e-002
2.410685e+003;3.263293e-002
2.412614e+003;3.244262e-002
2.414542e+003;3.218955e-002
2.416471e+003;3.240731e-002
2.418399e+003;3.293240e-002
2.420328e+003;3.296636e-002
2.422256e+003;3.270998e-002
2.424185e+003;3.258828e-002
2.426113e+003;3.266115e-002
2.428042e+003;3.291799e-002
2.429970e+003;3.313576e-002
2.431899e+003;3.311491e-002
2.433828e+003;3.297611e-002
2.435756e+003;3.310089e-002
2.437685e+003;3.330476e-002
2.439613e+003;3.338845e-002
2.441542e+003;3.348661e-002
2.443470e+003;3.353138e-002
2.445399e+003;3.373320e-002
2.447327e+003;3.395324e-002
2.449256e+003;3.390387e-002
2.451185e+003;3.376643e-002
2.453113e+003;3.384781e-002
2.455042e+003;3.402816e-002
2.456970e+003;3.395514e-002
2.458899e+003;3.390079e-002
2.460827e+003;3.406980e-002
2.462756e+003;3.425839e-002
2.464684e+003;3.436894e-002
2.466613e+003;3.438849e-002
2.468542e+003;3.432895e-002
2.470470e+003;3.430493e-002
2.472398e+003;3.445979e-002
2.474327e+003;3.486424e-002
2.476256e+003;3.506527e-002
2.478184e+003;3.492481e-002
2.480113e+003;3.490704e-002
2.482041e+003;3.494409e-002
2.483970e+003;3.503847e-002
2.485898e+003;3.531262e-002
2.487827e+003;3.528361e-002
2.489755e+003;3.511980e-002
2.491684e+003;3.503625e-002
2.493613e+003;3.490585e-002
2.495541e+003;3.481670e-002
2.497470e+003;3.491748e-002
2.499398e+003;3.504943e-002
2.501327e+003;3.529245e-002
2.503255e+003;3.545734e-002
2.505184e+003;3.516349e-002
2.507112e+003;3.516446e-002
2.509041e+003;3.544015e-002
2.510969e+003;3.555305e-002
2.512898e+003;3.573638e-002
2.514827e+003;3.608257e-002
2.516755e+003;3.636217e-002
2.518684e+003;3.645718e-002
2.520612e+003;3.650043e-002
2.522541e+003;3.656062e-002
2.524469e+003;3.655092e-002
2.526398e+003;3.667182e-002
2.528326e+003;3.679814e-002
2.530255e+003;3.696933e-002
2.532184e+003;3.719044e-002
2.534112e+003;3.744915e-002
2.536041e+003;3.768466e-002
2.537969e+003;3.807393e-002
2.539898e+003;3.828478e-002
2.541826e+003;3.809857e-002
2.543755e+003;3.800728e-002
2.545683e+003;3.792920e-002
2.547612e+003;3.800655e-002
2.549541e+003;3.830168e-002
2.551469e+003;3.842720e-002
2.553397e+003;3.841164e-002
2.555326e+003;3.857561e-002
2.557255e+003;3.866593e-002
2.559183e+003;3.871266e-002
2.561112e+003;3.877192e-002
2.563040e+003;3.865355e-002
2.564969e+003;3.870219e-002
2.566897e+003;3.898804e-002
2.568826e+003;3.897122e-002
2.570754e+003;3.893944e-002
2.572683e+003;3.910767e-002
2.574612e+003;3.954402e-002
2.576540e+003;3.967313e-002
2.578469e+003;3.982857e-002
2.580397e+003;4.022449e-002
2.582326e+003;4.013068e-002
2.584254e+003;3.993364e-002
2.586183e+003;4.009369e-002
2.588111e+003;4.038860e-002
2.590040e+003;4.047152e-002
2.591969e+003;4.064780e-002
2.593897e+003;4.084313e-002
2.595826e+003;4.081248e-002
2.597754e+003;4.086133e-002
2.599683e+003;4.103588e-002
2.601611e+003;4.099349e-002
2.603540e+003;4.095620e-002
2.605468e+003;4.105445e-002
2.607397e+003;4.117738e-002
2.609325e+003;4.120817e-002
2.611254e+003;4.110446e-002
2.613183e+003;4.121017e-002
2.615111e+003;4.150453e-002
2.617040e+003;4.154230e-002
2.618968e+003;4.127900e-002
2.620897e+003;4.119891e-002
2.622825e+003;4.137006e-002
2.624754e+003;4.154905e-002
2.626682e+003;4.166556e-002
2.628611e+003;4.181234e-002
2.630540e+003;4.188411e-002
2.632468e+003;4.177757e-002
2.634396e+003;4.196399e-002
2.636325e+003;4.222625e-002
2.638254e+003;4.229009e-002
2.640182e+003;4.241085e-002
2.642111e+003;4.254958e-002
2.644039e+003;4.254107e-002
2.645968e+003;4.249850e-002
2.647896e+003;4.260916e-002
2.649825e+003;4.293654e-002
2.651753e+003;4.315094e-002
2.653682e+003;4.324478e-002
2.655611e+003;4.329702e-002
2.657539e+003;4.321462e-002
2.659468e+003;4.317264e-002
2.661396e+003;4.329468e-002
2.663325e+003;4.359291e-002
2.665253e+003;4.404233e-002
2.667182e+003;4.432339e-002
2.669110e+003;4.440189e-002
2.671039e+003;4.447985e-002
2.672968e+003;4.446256e-002
2.674896e+003;4.454699e-002
2.676825e+003;4.483837e-002
2.678753e+003;4.490435e-002
2.680682e+003;4.492019e-002
2.682610e+003;4.518649e-002
2.684539e+003;4.553702e-002
2.686467e+003;4.602732e-002
2.688396e+003;4.646507e-002
2.690324e+003;4.693793e-002
2.692253e+003;4.721474e-002
2.694182e+003;4.715320e-002
2.696110e+003;4.713784e-002
2.698039e+003;4.740021e-002
2.699967e+003;4.767270e-002
2.701896e+003;4.766663e-002
2.703824e+003;4.775509e-002
2.705753e+003;4.814635e-002
2.707681e+003;4.841115e-002
2.709610e+003;4.862945e-002
2.711539e+003;4.891824e-002
2.713467e+003;4.909232e-002
2.715396e+003;4.953087e-002
2.717324e+003;4.982962e-002
2.719253e+003;5.014908e-002
2.721181e+003;5.044822e-002
2.723110e+003;5.057329e-002
2.725038e+003;5.093226e-002
2.726967e+003;5.135522e-002
2.728896e+003;5.164240e-002
2.730824e+003;5.187865e-002
2.732752e+003;5.220664e-002
2.734681e+003;5.272020e-002
2.736610e+003;5.308560e-002
2.738538e+003;5.319475e-002
2.740467e+003;5.330615e-002
2.742395e+003;5.362037e-002
2.744324e+003;5.354526e-002
2.746252e+003;5.335725e-002
2.748181e+003;5.348397e-002
2.750109e+003;5.347539e-002
2.752038e+003;5.355901e-002
2.753967e+003;5.368130e-002
2.755895e+003;5.359466e-002
2.757824e+003;5.366971e-002
2.759752e+003;5.404953e-002
2.761681e+003;5.440357e-002
2.763609e+003;5.442738e-002
2.765538e+003;5.418092e-002
2.767466e+003;5.431071e-002
2.769395e+003;5.474155e-002
2.771323e+003;5.501782e-002
2.773252e+003;5.519962e-002
2.775181e+003;5.553205e-002
2.777109e+003;5.611528e-002
2.779038e+003;5.646702e-002
2.780966e+003;5.664342e-002
2.782895e+003;5.693408e-002
2.784823e+003;5.724520e-002
2.786752e+003;5.784955e-002
2.788680e+003;5.832459e-002
2.790609e+003;5.848337e-002
2.792538e+003;5.871195e-002
2.794466e+003;5.902886e-002
2.796395e+003;5.943095e-002
2.798323e+003;5.989501e-002
2.800252e+003;6.027175e-002
2.802180e+003;6.045519e-002
2.804109e+003;6.070372e-002
2.806037e+003;6.122378e-002
2.807966e+003;6.188195e-002
2.809895e+003;6.253817e-002
2.811823e+003;6.297930e-002
2.813751e+003;6.335377e-002
2.815680e+003;6.402159e-002
2.817609e+003;6.444970e-002
2.819537e+003;6.491043e-002
2.821466e+003;6.554212e-002
2.823394e+003;6.625697e-002
2.825323e+003;6.673168e-002
2.827251e+003;6.727077e-002
2.829180e+003;6.802738e-002
2.831108e+003;6.915262e-002
2.833037e+003;7.037023e-002
2.834966e+003;7.157666e-002
2.836894e+003;7.338110e-002
2.838823e+003;7.584482e-002
2.840751e+003;7.868228e-002
2.842680e+003;8.227376e-002
2.844608e+003;8.673786e-002
2.846537e+003;9.140128e-002
2.848465e+003;9.596643e-002
2.850394e+003;1.003226e-001
2.852323e+003;1.044983e-001
2.854251e+003;1.082347e-001
2.856180e+003;1.111887e-001
2.858108e+003;1.133653e-001
2.860037e+003;1.150730e-001
2.861965e+003;1.160183e-001
2.863894e+003;1.160501e-001
2.865822e+003;1.151447e-001
2.867751e+003;1.136451e-001
2.869679e+003;1.119397e-001
2.871608e+003;1.097909e-001
2.873536e+003;1.071239e-001
2.875465e+003;1.041361e-001
2.877394e+003;1.010460e-001
2.879322e+003;9.808878e-002
2.881251e+003;9.591646e-002
2.883179e+003;9.476216e-002
2.885108e+003;9.420556e-002
2.887036e+003;9.445638e-002
2.888965e+003;9.529381e-002
2.890893e+003;9.692712e-002
2.892822e+003;9.894668e-002
2.894750e+003;1.009675e-001
2.896679e+003;1.031520e-001
2.898608e+003;1.052613e-001
2.900536e+003;1.068943e-001
2.902465e+003;1.081237e-001
2.904393e+003;1.089087e-001
2.906322e+003;1.097281e-001
2.908250e+003;1.114620e-001
2.910179e+003;1.140482e-001
2.912107e+003;1.161435e-001
2.914036e+003;1.179196e-001
2.915965e+003;1.209934e-001
2.917893e+003;1.246981e-001
2.919822e+003;1.276802e-001
2.921750e+003;1.309609e-001
2.923679e+003;1.348012e-001
2.925607e+003;1.383259e-001
2.927536e+003;1.415763e-001
2.929464e+003;1.447653e-001
2.931393e+003;1.475998e-001
2.933322e+003;1.491028e-001
2.935250e+003;1.493344e-001
2.937178e+003;1.488123e-001
2.939107e+003;1.470937e-001
2.941036e+003;1.445328e-001
2.942964e+003;1.409863e-001
2.944893e+003;1.364431e-001
2.946821e+003;1.312567e-001
2.948750e+003;1.250169e-001
2.950678e+003;1.178838e-001
2.952607e+003;1.106300e-001
2.954535e+003;1.037661e-001
2.956464e+003;9.789928e-002
2.958393e+003;9.287778e-002
2.960321e+003;8.827996e-002
2.962250e+003;8.428181e-002
2.964178e+003;8.064594e-002
2.966107e+003;7.753623e-002
2.968035e+003;7.480820e-002
2.969964e+003;7.232469e-002
2.971892e+003;6.992345e-002
2.973821e+003;6.772502e-002
2.975750e+003;6.571531e-002
2.977678e+003;6.368022e-002
2.979607e+003;6.202563e-002
2.981535e+003;6.060991e-002
2.983464e+003;5.940200e-002
2.985392e+003;5.854714e-002
2.987321e+003;5.774656e-002
2.989249e+003;5.677198e-002
2.991178e+003;5.608953e-002
2.993106e+003;5.592563e-002
2.995035e+003;5.585776e-002
2.996964e+003;5.558993e-002
2.998892e+003;5.528940e-002
3.000821e+003;5.504369e-002
3.002749e+003;5.477456e-002
3.004678e+003;5.469597e-002
3.006606e+003;5.464971e-002
3.008535e+003;5.467526e-002
3.010463e+003;5.480726e-002
3.012392e+003;5.498138e-002
3.014321e+003;5.525392e-002
3.016249e+003;5.555216e-002
3.018177e+003;5.591022e-002
3.020106e+003;5.626058e-002
3.022035e+003;5.663044e-002
3.023963e+003;5.716201e-002
3.025892e+003;5.765517e-002
3.027820e+003;5.781847e-002
3.029749e+003;5.810538e-002
3.031677e+003;5.848845e-002
3.033606e+003;5.913360e-002
3.035534e+003;6.031039e-002
3.037463e+003;6.117617e-002
3.039392e+003;6.167510e-002
3.041320e+003;6.225716e-002
3.043249e+003;6.295398e-002
3.045177e+003;6.348126e-002
3.047106e+003;6.430129e-002
3.049034e+003;6.524364e-002
3.050963e+003;6.615092e-002
3.052891e+003;6.682882e-002
3.054820e+003;6.734091e-002
3.056749e+003;6.801870e-002
3.058677e+003;6.901339e-002
3.060606e+003;7.003000e-002
3.062534e+003;7.048480e-002
3.064463e+003;7.024515e-002
3.066391e+003;7.017165e-002
3.068320e+003;7.040893e-002
3.070248e+003;7.077228e-002
3.072177e+003;7.085649e-002
3.074105e+003;7.049420e-002
3.076034e+003;7.035325e-002
3.077963e+003;7.049716e-002
3.079891e+003;7.037690e-002
3.081820e+003;7.022209e-002
3.083748e+003;6.988325e-002
3.085677e+003;6.920946e-002
3.087605e+003;6.863195e-002
3.089534e+003;6.822134e-002
3.091462e+003;6.753328e-002
3.093391e+003;6.714649e-002
3.095320e+003;6.691339e-002
3.097248e+003;6.632965e-002
3.099177e+003;6.579188e-002
3.101105e+003;6.504619e-002
3.103034e+003;6.413189e-002
3.104962e+003;6.314588e-002
3.106891e+003;6.261988e-002
3.108819e+003;6.200565e-002
3.110748e+003;6.184802e-002
3.112677e+003;6.158586e-002
3.114605e+003;6.085304e-002
3.116533e+003;6.030285e-002
3.118462e+003;5.995804e-002
3.120391e+003;5.976477e-002
3.122319e+003;5.976933e-002
3.124248e+003;5.952119e-002
3.126176e+003;5.907479e-002
3.128105e+003;5.884499e-002
3.130033e+003;5.887520e-002
3.131962e+003;5.876229e-002
3.133890e+003;5.886681e-002
3.135819e+003;5.938448e-002
3.137748e+003;5.957481e-002
3.139676e+003;5.944686e-002
3.141605e+003;5.937210e-002
3.143533e+003;5.965459e-002
3.145462e+003;5.967714e-002
3.147390e+003;5.957048e-002
3.149319e+003;5.990217e-002
3.151247e+003;6.015673e-002
3.153176e+003;6.031435e-002
3.155104e+003;6.069065e-002
3.157033e+003;6.104504e-002
3.158962e+003;6.138014e-002
3.160890e+003;6.208977e-002
3.162819e+003;6.289365e-002
3.164747e+003;6.327745e-002
3.166676e+003;6.339131e-002
3.168604e+003;6.411299e-002
3.170533e+003;6.508880e-002
3.172461e+003;6.552663e-002
3.174390e+003;6.570761e-002
3.176319e+003;6.627885e-002
3.178247e+003;6.717000e-002
3.180176e+003;6.799324e-002
3.182104e+003;6.838769e-002
3.184033e+003;6.876294e-002
3.185961e+003;6.926286e-002
3.187890e+003;6.990667e-002
3.189818e+003;7.049716e-002
3.191747e+003;7.052463e-002
3.193676e+003;7.083507e-002
3.195604e+003;7.160898e-002
3.197532e+003;7.225703e-002
3.199461e+003;7.243801e-002
3.201390e+003;7.249180e-002
3.203318e+003;7.293352e-002
3.205247e+003;7.336415e-002
3.207175e+003;7.361491e-002
3.209104e+003;7.414977e-002
3.211032e+003;7.498840e-002
3.212961e+003;7.553986e-002
3.214889e+003;7.581121e-002
3.216818e+003;7.640748e-002
3.218747e+003;7.689912e-002
3.220675e+003;7.702681e-002
3.222604e+003;7.773389e-002
3.224532e+003;7.894826e-002
3.226461e+003;8.002566e-002
3.228389e+003;8.054359e-002
3.230318e+003;8.115327e-002
3.232246e+003;8.226800e-002
3.234175e+003;8.367154e-002
3.236104e+003;8.504831e-002
3.238032e+003;8.670606e-002
3.239961e+003;8.865558e-002
3.241889e+003;9.001216e-002
3.243818e+003;9.138038e-002
3.245746e+003;9.328709e-002
3.247675e+003;9.537151e-002
3.249603e+003;9.715991e-002
3.251532e+003;9.937679e-002
3.253460e+003;1.017636e-001
3.255389e+003;1.035634e-001
3.257318e+003;1.053319e-001
3.259246e+003;1.075521e-001
3.261175e+003;1.100943e-001
3.263103e+003;1.127740e-001
3.265032e+003;1.155276e-001
3.266960e+003;1.181090e-001
3.268889e+003;1.200661e-001
3.270817e+003;1.223290e-001
3.272746e+003;1.251950e-001
3.274675e+003;1.278238e-001
3.276603e+003;1.300994e-001
3.278531e+003;1.327928e-001
3.280460e+003;1.353899e-001
3.282389e+003;1.381790e-001
3.284317e+003;1.410474e-001
3.286246e+003;1.430912e-001
3.288174e+003;1.445558e-001
3.290103e+003;1.460509e-001
3.292031e+003;1.470417e-001
3.293960e+003;1.469003e-001
3.295888e+003;1.456489e-001
3.297817e+003;1.434492e-001
3.299746e+003;1.410604e-001
3.301674e+003;1.388489e-001
3.303603e+003;1.363424e-001
3.305531e+003;1.331766e-001
3.307460e+003;1.293054e-001
3.309388e+003;1.255602e-001
3.311317e+003;1.218348e-001
3.313245e+003;1.183124e-001
3.315174e+003;1.150837e-001
3.317103e+003;1.118349e-001
3.319031e+003;1.087823e-001
3.320960e+003;1.058604e-001
3.322888e+003;1.027431e-001
3.324817e+003;9.982021e-002
3.326745e+003;9.707261e-002
3.328674e+003;9.451367e-002
3.330602e+003;9.205503e-002
3.332531e+003;8.955970e-002
3.334459e+003;8.715142e-002
3.336388e+003;8.493758e-002
3.338317e+003;8.294535e-002
3.340245e+003;8.091987e-002
3.342174e+003;7.913850e-002
3.344102e+003;7.753361e-002
3.346031e+003;7.566956e-002
3.347959e+003;7.419969e-002
3.349888e+003;7.285581e-002
3.351816e+003;7.155345e-002
3.353745e+003;7.023907e-002
3.355674e+003;6.859788e-002
3.357602e+003;6.707004e-002
3.359531e+003;6.621239e-002
3.361459e+003;6.535428e-002
3.363388e+003;6.430679e-002
3.365316e+003;6.318431e-002
3.367245e+003;6.215962e-002
3.369173e+003;6.152779e-002
3.371102e+003;6.087709e-002
3.373031e+003;6.003394e-002
3.374959e+003;5.960210e-002
3.376887e+003;5.921622e-002
3.378816e+003;5.825896e-002
3.380745e+003;5.770909e-002
3.382673e+003;5.740479e-002
3.384602e+003;5.707913e-002
3.386530e+003;5.675065e-002
3.388459e+003;5.618557e-002
3.390387e+003;5.556903e-002
3.392316e+003;5.497826e-002
3.394244e+003;5.455882e-002
3.396173e+003;5.436827e-002
3.398102e+003;5.430218e-002
3.400030e+003;5.396596e-002
3.401959e+003;5.383718e-002
3.403887e+003;5.331581e-002
3.405816e+003;5.255626e-002
3.407744e+003;5.248387e-002
3.409673e+003;5.235295e-002
3.411601e+003;5.201416e-002
3.413530e+003;5.191248e-002
3.415458e+003;5.186416e-002
3.417387e+003;5.151979e-002
3.419316e+003;5.118586e-002
3.421244e+003;5.109443e-002
3.423173e+003;5.097030e-002
3.425101e+003;5.083860e-002
3.427030e+003;5.089433e-002
3.428958e+003;5.069477e-002
3.430887e+003;5.058527e-002
3.432815e+003;5.041685e-002
3.434744e+003;5.020930e-002
3.436673e+003;4.974583e-002
3.438601e+003;4.949640e-002
3.440530e+003;4.958212e-002
3.442458e+003;4.948397e-002
3.444387e+003;4.968498e-002
3.446315e+003;4.984676e-002
3.448244e+003;4.978934e-002
3.450172e+003;4.903007e-002
3.452101e+003;4.840485e-002
3.454030e+003;4.838611e-002
3.455958e+003;4.800108e-002
3.457886e+003;4.733218e-002
3.459815e+003;4.753113e-002
3.461744e+003;4.770531e-002
3.463672e+003;4.733680e-002
3.465601e+003;4.681140e-002
3.467529e+003;4.656332e-002
3.469458e+003;4.672439e-002
3.471386e+003;4.696994e-002
3.473315e+003;4.665001e-002
3.475243e+003;4.627867e-002
3.477172e+003;4.628342e-002
3.479101e+003;4.621959e-002
3.481029e+003;4.593929e-002
3.482958e+003;4.585944e-002
3.484886e+003;4.565339e-002
3.486815e+003;4.554460e-002
3.488743e+003;4.564426e-002
3.490672e+003;4.571136e-002
3.492600e+003;4.567257e-002
3.494529e+003;4.561198e-002
3.496458e+003;4.551325e-002
3.498386e+003;4.554269e-002
3.500315e+003;4.529816e-002
3.502243e+003;4.486600e-002
3.504172e+003;4.461389e-002
3.506100e+003;4.441653e-002
3.508029e+003;4.423603e-002
3.509957e+003;4.420085e-002
3.511886e+003;4.429748e-002
3.513814e+003;4.404794e-002
3.515743e+003;4.407137e-002
3.517672e+003;4.391510e-002
3.519600e+003;4.359481e-002
3.521529e+003;4.291438e-002
3.523457e+003;4.217159e-002
3.525386e+003;4.216410e-002
3.527314e+003;4.199209e-002
3.529243e+003;4.196906e-002
3.531171e+003;4.198381e-002
3.533100e+003;4.180241e-002
3.535029e+003;4.153220e-002
3.536957e+003;4.112172e-002
3.538885e+003;4.091084e-002
3.540814e+003;4.109273e-002
3.542743e+003;4.061550e-002
3.544671e+003;3.993986e-002
3.546600e+003;3.996739e-002
3.548528e+003;4.008991e-002
3.550457e+003;3.962851e-002
3.552385e+003;3.884761e-002
3.554314e+003;3.847408e-002
3.556242e+003;3.852821e-002
3.558171e+003;3.835253e-002
3.560100e+003;3.794309e-002
3.562028e+003;3.772001e-002
3.563957e+003;3.696197e-002
3.565885e+003;3.589413e-002
3.567814e+003;3.583630e-002
3.569742e+003;3.644850e-002
3.571671e+003;3.670835e-002
3.573599e+003;3.643081e-002
3.575528e+003;3.582828e-002
3.577457e+003;3.529702e-002
3.579385e+003;3.489957e-002
3.581314e+003;3.512742e-002
3.583242e+003;3.504030e-002
3.585171e+003;3.411070e-002
3.587099e+003;3.337782e-002
3.589028e+003;3.353636e-002
3.590956e+003;3.385021e-002
3.592885e+003;3.369166e-002
3.594813e+003;3.326423e-002
3.596742e+003;3.282932e-002
3.598671e+003;3.271062e-002
3.600599e+003;3.241331e-002
3.602528e+003;3.229651e-002
3.604456e+003;3.175818e-002
3.606385e+003;3.076723e-002
3.608313e+003;3.037884e-002
3.610242e+003;3.037340e-002
3.612170e+003;3.035514e-002
3.614099e+003;3.053184e-002
3.616028e+003;2.984746e-002
3.617956e+003;2.863185e-002
3.619885e+003;2.873641e-002
3.621813e+003;3.001050e-002
3.623742e+003;3.011632e-002
3.625670e+003;2.901836e-002
3.627599e+003;2.722690e-002
3.629527e+003;2.733101e-002
3.631456e+003;2.856581e-002
3.633385e+003;2.834010e-002
3.635313e+003;2.820862e-002
3.637241e+003;2.820403e-002
3.639170e+003;2.775441e-002
3.641099e+003;2.751800e-002
3.643027e+003;2.741317e-002
3.644956e+003;2.694311e-002
3.646884e+003;2.616612e-002
3.648813e+003;2.575401e-002
3.650741e+003;2.599034e-002
3.652670e+003;2.658327e-002
3.654598e+003;2.619139e-002
3.656527e+003;2.572546e-002
3.658456e+003;2.592579e-002
3.660384e+003;2.609782e-002
3.662313e+003;2.606379e-002
3.664241e+003;2.609940e-002
3.666170e+003;2.601598e-002
3.668098e+003;2.475715e-002
3.670027e+003;2.394215e-002
3.671955e+003;2.459067e-002
3.673884e+003;2.348408e-002
3.675813e+003;2.297434e-002
3.677741e+003;2.460301e-002
3.679669e+003;2.487443e-002
3.681598e+003;2.475413e-002
3.683527e+003;2.456581e-002
3.685455e+003;2.371466e-002
3.687384e+003;2.249367e-002
3.689312e+003;2.213168e-002
3.691241e+003;2.246499e-002
3.693169e+003;2.336906e-002
3.695098e+003;2.386047e-002
3.697026e+003;2.360277e-002
3.698955e+003;2.308031e-002
3.700884e+003;2.280770e-002
3.702812e+003;2.309415e-002
3.704741e+003;2.354781e-002
3.706669e+003;2.338246e-002
3.708598e+003;2.261603e-002
3.710526e+003;2.175689e-002
3.712455e+003;2.153859e-002
3.714383e+003;2.218785e-002
3.716312e+003;2.261243e-002
3.718240e+003;2.256071e-002
3.720169e+003;2.237661e-002
3.722098e+003;2.210079e-002
3.724026e+003;2.200555e-002
3.725955e+003;2.228288e-002
3.727883e+003;2.245937e-002
3.729812e+003;2.176831e-002
3.731740e+003;2.083394e-002
3.733669e+003;2.070819e-002
3.735597e+003;2.072032e-002
3.737526e+003;2.149496e-002
3.739455e+003;2.203103e-002
3.741383e+003;2.146721e-002
3.743312e+003;1.919005e-002
3.745240e+003;1.922510e-002
3.747169e+003;2.059182e-002
3.749097e+003;1.958589e-002
3.751026e+003;1.905082e-002
3.752954e+003;2.053731e-002
3.754883e+003;2.234162e-002
3.756812e+003;2.234713e-002
3.758740e+003;2.236367e-002
3.760668e+003;2.277268e-002
3.762597e+003;2.293431e-002
3.764526e+003;2.236751e-002
3.766454e+003;2.241049e-002
3.768383e+003;2.215131e-002
3.770311e+003;2.202684e-002
3.772240e+003;2.246628e-002
3.774168e+003;2.296260e-002
3.776097e+003;2.305920e-002
3.778025e+003;2.301752e-002
3.779954e+003;2.280812e-002
3.781883e+003;2.281751e-002
3.783811e+003;2.254040e-002
3.785740e+003;2.247388e-002
3.787668e+003;2.263561e-002
3.789597e+003;2.314880e-002
3.791525e+003;2.356628e-002
3.793454e+003;2.334620e-002
3.795382e+003;2.256308e-002
3.797311e+003;2.241077e-002
3.799240e+003;2.163811e-002
3.801168e+003;2.094196e-002
3.803097e+003;2.216783e-002
3.805025e+003;2.240766e-002
3.806954e+003;2.205818e-002
3.808882e+003;2.292114e-002
3.810811e+003;2.382697e-002
3.812739e+003;2.361834e-002
3.814668e+003;2.164762e-002
3.816596e+003;2.126360e-002
3.818525e+003;2.183252e-002
3.820454e+003;2.124589e-002
3.822382e+003;2.205982e-002
3.824311e+003;2.303925e-002
3.826239e+003;2.334980e-002
3.828168e+003;2.373947e-002
3.830096e+003;2.361473e-002
3.832025e+003;2.364647e-002
3.833953e+003;2.321877e-002
3.835882e+003;2.201593e-002
3.837811e+003;2.166716e-002
3.839739e+003;2.254724e-002
3.841667e+003;2.282394e-002
3.843596e+003;2.308384e-002
3.845525e+003;2.378294e-002
3.847453e+003;2.447034e-002
3.849382e+003;2.417542e-002
3.851310e+003;2.195449e-002
3.853239e+003;1.988347e-002
3.855167e+003;2.152285e-002
3.857096e+003;2.376733e-002
3.859024e+003;2.418394e-002
3.860953e+003;2.402401e-002
3.862882e+003;2.370767e-002
3.864810e+003;2.375113e-002
3.866739e+003;2.399159e-002
3.868667e+003;2.302964e-002
3.870596e+003;2.284908e-002
3.872524e+003;2.351801e-002
3.874453e+003;2.409230e-002
3.876381e+003;2.485204e-002
3.878310e+003;2.452005e-002
3.880239e+003;2.371725e-002
3.882167e+003;2.346331e-002
3.884096e+003;2.310816e-002
3.886024e+003;2.331634e-002
3.887953e+003;2.427061e-002
3.889881e+003;2.422479e-002
3.891810e+003;2.421452e-002
3.893738e+003;2.456069e-002
3.895667e+003;2.482429e-002
3.897595e+003;2.428750e-002
3.899524e+003;2.395335e-002
3.901453e+003;2.384006e-002
3.903381e+003;2.349545e-002
3.905310e+003;2.387395e-002
3.907238e+003;2.454459e-002
3.909167e+003;2.493580e-002
3.911095e+003;2.535701e-002
3.913024e+003;2.570764e-002
3.914952e+003;2.572613e-002
3.916881e+003;2.519314e-002
3.918810e+003;2.473203e-002
3.920738e+003;2.485338e-002
3.922667e+003;2.529080e-002
3.924595e+003;2.584930e-002
3.926524e+003;2.644433e-002
3.928452e+003;2.655918e-002
3.930381e+003;2.630740e-002
3.932309e+003;2.614497e-002
3.934238e+003;2.647585e-002
3.936167e+003;2.683722e-002
3.938095e+003;2.687631e-002
3.940023e+003;2.639714e-002
3.941952e+003;2.604634e-002
3.943881e+003;2.602309e-002
3.945809e+003;2.581048e-002
3.947738e+003;2.612924e-002
3.949666e+003;2.662745e-002
3.951595e+003;2.693560e-002
3.953523e+003;2.709875e-002
3.955452e+003;2.712778e-002
3.957380e+003;2.702590e-002
3.959309e+003;2.725300e-002
3.961238e+003;2.743833e-002
3.963166e+003;2.729428e-002
3.965095e+003;2.740971e-002
3.967023e+003;2.767159e-002
3.968952e+003;2.817910e-002
3.970880e+003;2.846992e-002
3.972809e+003;2.828108e-002
3.974737e+003;2.805619e-002
3.976666e+003;2.817333e-002
3.978594e+003;2.855293e-002
3.980523e+003;2.900883e-002
3.982452e+003;2.887038e-002
3.984380e+003;2.852904e-002
3.986309e+003;2.860389e-002
3.988237e+003;2.850017e-002
3.990166e+003;2.863850e-002
3.992094e+003;2.900575e-002
3.994023e+003;2.921259e-002
3.995951e+003;2.896696e-002
3.997880e+003;2.889733e-002
3.999809e+003;2.907855e-002
4.001737e+003;0.000000e+000
