3.992094e+002;0.000000e+000
4.011380e+002;0.000000e+000
4.030665e+002;0.000000e+000
4.049951e+002;0.000000e+000
4.069236e+002;0.000000e+000
4.088522e+002;0.000000e+000
4.107807e+002;0.000000e+000
4.127093e+002;0.000000e+000
4.146378e+002;0.000000e+000
4.165664e+002;0.000000e+000
4.184949e+002;0.000000e+000
4.204235e+002;0.000000e+000
4.223520e+002;0.000000e+000
4.242806e+002;0.000000e+000
4.262091e+002;0.000000e+000
4.281377e+002;0.000000e+000
4.300662e+002;0.000000e+000
4.319948e+002;0.000000e+000
4.339233e+002;0.000000e+000
4.358519e+002;0.000000e+000
4.377804e+002;0.000000e+000
4.397090e+002;0.000000e+000
4.416375e+002;0.000000e+000
4.435660e+002;0.000000e+000
4.454946e+002;0.000000e+000
4.474232e+002;0.000000e+000
4.493517e+002;0.000000e+000
4.512802e+002;0.000000e+000
4.532088e+002;0.000000e+000
4.551373e+002;0.000000e+000
4.570659e+002;0.000000e+000
4.589944e+002;0.000000e+000
4.609230e+002;0.000000e+000
4.628515e+002;0.000000e+000
4.647801e+002;0.000000e+000
4.667086e+002;0.000000e+000
4.686372e+002;0.000000e+000
4.705657e+002;0.000000e+000
4.724943e+002;0.000000e+000
4.744228e+002;0.000000e+000
4.763513e+002;0.000000e+000
4.782799e+002;0.000000e+000
4.802085e+002;0.000000e+000
4.821370e+002;0.000000e+000
4.840656e+002;0.000000e+000
4.859941e+002;0.000000e+000
4.879226e+002;0.000000e+000
4.898512e+002;0.000000e+000
4.917798e+002;0.000000e+000
4.937083e+002;0.000000e+000
4.956368e+002;0.000000e+000
4.975654e+002;0.000000e+000
4.994939e+002;0.000000e+000
5.014225e+002;0.000000e+000
5.033510e+002;0.000000e+000
5.052796e+002;0.000000e+000
5.072081e+002;0.000000e+000
5.091367e+002;0.000000e+000
5.110652e+002;0.000000e+000
5.129938e+002;0.000000e+000
5.149223e+002;0.000000e+000
5.168509e+002;0.000000e+000
5.187794e+002;0.000000e+000
5.207079e+002;0.000000e+000
5.226365e+002;0.000000e+000
5.245651e+002;0.000000e+000
5.264936e+002;0.000000e+000
5.284222e+002;0.000000e+000
5.303507e+002;0.000000e+000
5.322792e+002;0.000000e+000
5.342078e+002;0.000000e+000
5.361364e+002;0.000000e+000
5.380649e+002;0.000000e+000
5.399935e+002;0.000000e+000
5.419220e+002;0.000000e+000
5.438505e+002;0.000000e+000
5.457791e+002;0.000000e+000
5.477076e+002;0.000000e+000
5.496362e+002;0.000000e+000
5.515648e+002;0.000000e+000
5.534933e+002;0.000000e+000
5.554218e+002;0.000000e+000
5.573504e+002;0.000000e+000
5.592789e+002;0.000000e+000
5.612075e+002;0.000000e+000
5.631360e+002;0.000000e+000
5.650646e+002;0.000000e+000
5.669931e+002;0.000000e+000
5.689217e+002;0.000000e+000
5.708502e+002;0.000000e+000
5.727787e+002;0.000000e+000
5.747073e+002;0.000000e+000
5.766359e+002;0.000000e+000
5.785644e+002;0.000000e+000
5.804930e+002;0.000000e+000
5.824215e+002;0.000000e+000
5.843500e+002;0.000000e+000
5.862786e+002;0.000000e+000
5.882072e+002;0.000000e+000
5.901357e+002;0.000000e+000
5.920643e+002;0.000000e+000
5.939928e+002;0.000000e+000
5.959213e+002;0.000000e+000
5.978499e+002;0.000000e+000
5.997784e+002;1.399283e-001
6.017070e+002;1.424546e-001
6.036355e+002;1.375929e-001
6.055641e+002;1.357340e-001
6.074926e+002;1.323751e-001
6.094211e+002;1.313957e-001
6.113497e+002;1.337602e-001
6.132783e+002;1.294762e-001
6.152068e+002;1.275683e-001
6.171354e+002;1.282346e-001
6.190639e+002;1.332203e-001
6.209924e+002;1.384846e-001
6.229210e+002;1.400156e-001
6.248495e+002;1.372509e-001
6.267781e+002;1.362102e-001
6.287067e+002;1.378429e-001
6.306352e+002;1.344810e-001
6.325637e+002;1.325034e-001
6.344923e+002;1.346194e-001
6.364208e+002;1.379963e-001
6.383494e+002;1.405614e-001
6.402780e+002;1.382646e-001
6.422065e+002;1.368781e-001
6.441350e+002;1.379591e-001
6.460636e+002;1.403964e-001
6.479921e+002;1.446186e-001
6.499207e+002;1.522373e-001
6.518492e+002;1.555286e-001
6.537778e+002;1.530644e-001
6.557063e+002;1.558879e-001
6.576349e+002;1.589792e-001
6.595634e+002;1.616970e-001
6.614919e+002;1.684096e-001
6.634205e+002;1.715350e-001
6.653491e+002;1.706457e-001
6.672776e+002;1.712504e-001
6.692062e+002;1.736717e-001
6.711347e+002;1.749373e-001
6.730632e+002;1.756721e-001
6.749918e+002;1.768301e-001
6.769203e+002;1.795702e-001
6.788489e+002;1.824996e-001
6.807775e+002;1.832052e-001
6.827060e+002;1.831630e-001
6.846345e+002;1.833956e-001
6.865631e+002;1.823773e-001
6.884916e+002;1.794528e-001
6.904202e+002;1.784075e-001
6.923488e+002;1.770467e-001
6.942773e+002;1.737507e-001
6.962058e+002;1.714790e-001
6.981344e+002;1.697606e-001
7.000629e+002;1.671280e-001
7.019915e+002;1.635103e-001
7.039200e+002;1.608352e-001
7.058486e+002;1.593477e-001
7.077771e+002;1.582406e-001
7.097057e+002;1.575582e-001
7.116342e+002;1.559321e-001
7.135627e+002;1.534982e-001
7.154913e+002;1.513635e-001
7.174199e+002;1.488424e-001
7.193484e+002;1.474974e-001
7.212770e+002;1.485237e-001
7.232055e+002;1.490891e-001
7.251340e+002;1.500371e-001
7.270626e+002;1.504724e-001
7.289911e+002;1.480798e-001
7.309197e+002;1.428944e-001
7.328483e+002;1.363142e-001
7.347768e+002;1.298323e-001
7.367053e+002;1.235574e-001
7.386339e+002;1.173475e-001
7.405624e+002;1.126335e-001
7.424910e+002;1.103883e-001
7.444196e+002;1.088326e-001
7.463481e+002;1.061266e-001
7.482766e+002;1.039227e-001
7.502052e+002;1.026013e-001
7.521337e+002;1.014502e-001
7.540623e+002;9.993569e-002
7.559908e+002;9.706001e-002
7.579194e+002;9.513451e-002
7.598479e+002;9.472770e-002
7.617765e+002;9.340207e-002
7.637050e+002;9.131966e-002
7.656335e+002;8.994722e-002
7.675621e+002;8.914875e-002
7.694907e+002;8.830469e-002
7.714192e+002;8.756542e-002
7.733478e+002;8.669797e-002
7.752763e+002;8.543841e-002
7.772048e+002;8.460558e-002
7.791334e+002;8.373875e-002
7.810620e+002;8.253926e-002
7.829905e+002;8.133201e-002
7.849191e+002;7.963725e-002
7.868476e+002;7.865754e-002
7.887761e+002;7.748747e-002
7.907047e+002;7.608064e-002
7.926332e+002;7.530563e-002
7.945618e+002;7.443835e-002
7.964903e+002;7.355765e-002
7.984189e+002;7.211887e-002
8.003474e+002;7.105593e-002
8.022759e+002;6.983515e-002
8.042045e+002;6.856792e-002
8.061331e+002;6.809469e-002
8.080616e+002;6.713245e-002
8.099902e+002;6.664212e-002
8.119187e+002;6.648447e-002
8.138472e+002;6.580074e-002
8.157758e+002;6.562420e-002
8.177043e+002;6.548437e-002
8.196329e+002;6.470848e-002
8.215615e+002;6.445692e-002
8.234900e+002;6.525400e-002
8.254185e+002;6.625658e-002
8.273471e+002;6.683238e-002
8.292756e+002;6.761459e-002
8.312042e+002;6.905997e-002
8.331328e+002;6.954327e-002
8.350613e+002;6.779306e-002
8.369898e+002;6.537689e-002
8.389184e+002;6.339200e-002
8.408469e+002;6.193743e-002
8.427755e+002;6.108787e-002
8.447040e+002;6.002983e-002
8.466326e+002;5.941465e-002
8.485611e+002;5.878342e-002
8.504897e+002;5.806489e-002
8.524182e+002;5.769842e-002
8.543467e+002;5.762146e-002
8.562753e+002;5.735216e-002
8.582039e+002;5.733782e-002
8.601324e+002;5.791629e-002
8.620610e+002;5.793182e-002
8.639895e+002;5.767141e-002
8.659180e+002;5.773377e-002
8.678466e+002;5.792947e-002
8.697751e+002;5.759191e-002
8.717037e+002;5.717878e-002
8.736323e+002;5.766671e-002
8.755608e+002;5.822008e-002
8.774893e+002;5.870391e-002
8.794179e+002;5.905456e-002
8.813464e+002;5.868074e-002
8.832750e+002;5.855536e-002
8.852036e+002;5.883570e-002
8.871321e+002;5.915942e-002
8.890606e+002;5.947433e-002
8.909892e+002;5.961662e-002
8.929177e+002;5.953228e-002
8.948463e+002;5.946434e-002
8.967748e+002;5.992460e-002
8.987034e+002;6.029375e-002
9.006319e+002;6.046704e-002
9.025605e+002;6.058934e-002
9.044890e+002;6.097240e-002
9.064175e+002;6.178556e-002
9.083461e+002;6.230550e-002
9.102747e+002;6.271136e-002
9.122032e+002;6.333940e-002
9.141318e+002;6.372600e-002
9.160603e+002;6.385425e-002
9.179888e+002;6.369124e-002
9.199174e+002;6.428169e-002
9.218459e+002;6.565712e-002
9.237745e+002;6.709034e-002
9.257031e+002;6.860059e-002
9.276316e+002;6.954436e-002
9.295601e+002;6.951056e-002
9.314887e+002;6.858376e-002
9.334172e+002;6.699437e-002
9.353458e+002;6.561568e-002
9.372744e+002;6.506159e-002
9.392029e+002;6.471536e-002
9.411314e+002;6.488462e-002
9.430600e+002;6.581073e-002
9.449885e+002;6.702349e-002
9.469171e+002;6.855609e-002
9.488456e+002;7.011176e-002
9.507742e+002;7.105425e-002
9.527027e+002;7.178281e-002
9.546313e+002;7.259706e-002
9.565598e+002;7.339314e-002
9.584883e+002;7.396037e-002
9.604169e+002;7.381850e-002
9.623455e+002;7.305037e-002
9.642740e+002;7.220424e-002
9.662026e+002;7.168154e-002
9.681311e+002;7.179915e-002
9.700596e+002;7.225847e-002
9.719882e+002;7.255320e-002
9.739167e+002;7.214665e-002
9.758453e+002;7.117157e-002
9.777739e+002;7.006177e-002
9.797024e+002;6.912103e-002
9.816309e+002;6.821068e-002
9.835595e+002;6.764409e-002
9.854880e+002;6.723174e-002
9.874166e+002;6.651200e-002
9.893452e+002;6.575070e-002
9.912737e+002;6.502052e-002
9.932022e+002;6.420048e-002
9.951307e+002;6.364670e-002
9.970593e+002;6.344295e-002
9.989879e+002;6.344169e-002
1.000916e+003;6.315458e-002
1.002845e+003;6.286003e-002
1.004773e+003;6.319803e-002
1.006702e+003;6.322475e-002
1.008631e+003;6.286711e-002
1.010559e+003;6.269379e-002
1.012488e+003;6.268131e-002
1.014416e+003;6.259155e-002
1.016345e+003;6.244256e-002
1.018273e+003;6.308656e-002
1.020202e+003;6.419519e-002
1.022130e+003;6.548721e-002
1.024059e+003;6.683462e-002
1.025988e+003;6.765036e-002
1.027916e+003;6.757239e-002
1.029845e+003;6.715202e-002
1.031773e+003;6.646921e-002
1.033702e+003;6.595923e-002
1.035630e+003;6.536707e-002
1.037559e+003;6.457224e-002
1.039487e+003;6.404406e-002
1.041416e+003;6.326082e-002
1.043344e+003;6.253032e-002
1.045273e+003;6.266657e-002
1.047202e+003;6.322237e-002
1.049130e+003;6.409809e-002
1.051059e+003;6.487542e-002
1.052987e+003;6.550914e-002
1.054916e+003;6.666113e-002
1.056844e+003;6.807830e-002
1.058773e+003;6.939494e-002
1.060701e+003;7.014023e-002
1.062630e+003;7.090626e-002
1.064558e+003;7.249055e-002
1.066487e+003;7.386480e-002
1.068416e+003;7.460403e-002
1.070344e+003;7.485095e-002
1.072273e+003;7.486201e-002
1.074201e+003;7.483497e-002
1.076130e+003;7.478635e-002
1.078058e+003;7.424073e-002
1.079987e+003;7.389705e-002
1.081915e+003;7.366402e-002
1.083844e+003;7.301881e-002
1.085773e+003;7.205167e-002
1.087701e+003;7.125027e-002
1.089630e+003;7.110565e-002
1.091558e+003;7.173712e-002
1.093487e+003;7.230540e-002
1.095415e+003;7.238282e-002
1.097344e+003;7.262067e-002
1.099272e+003;7.381916e-002
1.101201e+003;7.533996e-002
1.103129e+003;7.706045e-002
1.105058e+003;7.879922e-002
1.106987e+003;7.996005e-002
1.108915e+003;8.080491e-002
1.110844e+003;8.203652e-002
1.112772e+003;8.279823e-002
1.114701e+003;8.333830e-002
1.116629e+003;8.399040e-002
1.118558e+003;8.443387e-002
1.120486e+003;8.391462e-002
1.122415e+003;8.250660e-002
1.124344e+003;8.030980e-002
1.126272e+003;7.754704e-002
1.128201e+003;7.439383e-002
1.130129e+003;7.207056e-002
1.132058e+003;7.074861e-002
1.133986e+003;6.981008e-002
1.135915e+003;6.940539e-002
1.137843e+003;7.029711e-002
1.139772e+003;7.136574e-002
1.141700e+003;7.219963e-002
1.143629e+003;7.406135e-002
1.145557e+003;7.640239e-002
1.147486e+003;7.843671e-002
1.149415e+003;8.077367e-002
1.151343e+003;8.362233e-002
1.153272e+003;8.640970e-002
1.155200e+003;8.898523e-002
1.157129e+003;9.240450e-002
1.159057e+003;9.712999e-002
1.160986e+003;1.030900e-001
1.162914e+003;1.098718e-001
1.164843e+003;1.163634e-001
1.166771e+003;1.215537e-001
1.168700e+003;1.240622e-001
1.170629e+003;1.233126e-001
1.172557e+003;1.193163e-001
1.174486e+003;1.134477e-001
1.176414e+003;1.075873e-001
1.178343e+003;1.029507e-001
1.180271e+003;9.955423e-002
1.182200e+003;9.816732e-002
1.184128e+003;9.894623e-002
1.186057e+003;1.008614e-001
1.187986e+003;1.033219e-001
1.189914e+003;1.066515e-001
1.191843e+003;1.108774e-001
1.193771e+003;1.155234e-001
1.195700e+003;1.199641e-001
1.197628e+003;1.240398e-001
1.199557e+003;1.261120e-001
1.201485e+003;1.242886e-001
1.203414e+003;1.203644e-001
1.205343e+003;1.173521e-001
1.207271e+003;1.159038e-001
1.209200e+003;1.153790e-001
1.211128e+003;1.153561e-001
1.213057e+003;1.145714e-001
1.214985e+003;1.125346e-001
1.216914e+003;1.097813e-001
1.218842e+003;1.068336e-001
1.220771e+003;1.045774e-001
1.222699e+003;1.041431e-001
1.224628e+003;1.060943e-001
1.226557e+003;1.096894e-001
1.228485e+003;1.142119e-001
1.230414e+003;1.190715e-001
1.232342e+003;1.237039e-001
1.234271e+003;1.271858e-001
1.236199e+003;1.291063e-001
1.238128e+003;1.293686e-001
1.240056e+003;1.288036e-001
1.241985e+003;1.287533e-001
1.243913e+003;1.288255e-001
1.245842e+003;1.291275e-001
1.247771e+003;1.298370e-001
1.249699e+003;1.315537e-001
1.251628e+003;1.342084e-001
1.253556e+003;1.373132e-001
1.255485e+003;1.403425e-001
1.257413e+003;1.429885e-001
1.259342e+003;1.447171e-001
1.261270e+003;1.454584e-001
1.263199e+003;1.445122e-001
1.265127e+003;1.405492e-001
1.267056e+003;1.344276e-001
1.268985e+003;1.283035e-001
1.270913e+003;1.237390e-001
1.272842e+003;1.212336e-001
1.274770e+003;1.201854e-001
1.276699e+003;1.197787e-001
1.278627e+003;1.192281e-001
1.280556e+003;1.179284e-001
1.282484e+003;1.160038e-001
1.284413e+003;1.140497e-001
1.286342e+003;1.123275e-001
1.288270e+003;1.112622e-001
1.290199e+003;1.106326e-001
1.292127e+003;1.101248e-001
1.294056e+003;1.095069e-001
1.295984e+003;1.091526e-001
1.297913e+003;1.087462e-001
1.299841e+003;1.082531e-001
1.301770e+003;1.078163e-001
1.303698e+003;1.072775e-001
1.305627e+003;1.067933e-001
1.307556e+003;1.057963e-001
1.309484e+003;1.046773e-001
1.311413e+003;1.038430e-001
1.313341e+003;1.026725e-001
1.315270e+003;1.014618e-001
1.317198e+003;1.004355e-001
1.319127e+003;9.949465e-002
1.321055e+003;9.879158e-002
1.322984e+003;9.825888e-002
1.324912e+003;9.774829e-002
1.326841e+003;9.758037e-002
1.328770e+003;9.801997e-002
1.330698e+003;9.883618e-002
1.332627e+003;9.924619e-002
1.334555e+003;9.958040e-002
1.336484e+003;9.985186e-002
1.338412e+003;1.004021e-001
1.340341e+003;1.012296e-001
1.342269e+003;1.022447e-001
1.344198e+003;1.031369e-001
1.346126e+003;1.038407e-001
1.348055e+003;1.048192e-001
1.349984e+003;1.059892e-001
1.351912e+003;1.073184e-001
1.353841e+003;1.090527e-001
1.355769e+003;1.108470e-001
1.357698e+003;1.127677e-001
1.359626e+003;1.148425e-001
1.361555e+003;1.166691e-001
1.363483e+003;1.184283e-001
1.365412e+003;1.204587e-001
1.367341e+003;1.223984e-001
1.369269e+003;1.237434e-001
1.371198e+003;1.241876e-001
1.373126e+003;1.235016e-001
1.375055e+003;1.220164e-001
1.376983e+003;1.197249e-001
1.378912e+003;1.164390e-001
1.380840e+003;1.128543e-001
1.382769e+003;1.093897e-001
1.384698e+003;1.059696e-001
1.386626e+003;1.025665e-001
1.388555e+003;1.001748e-001
1.390483e+003;9.833155e-002
1.392412e+003;9.670397e-002
1.394340e+003;9.555500e-002
1.396269e+003;9.515493e-002
1.398197e+003;9.571618e-002
1.400126e+003;9.738877e-002
1.402054e+003;9.975809e-002
1.403983e+003;1.029951e-001
1.405911e+003;1.074350e-001
1.407840e+003;1.131597e-001
1.409769e+003;1.200332e-001
1.411697e+003;1.274181e-001
1.413626e+003;1.335911e-001
1.415554e+003;1.373268e-001
1.417483e+003;1.379518e-001
1.419411e+003;1.361226e-001
1.421340e+003;1.333112e-001
1.423268e+003;1.298732e-001
1.425197e+003;1.272780e-001
1.427125e+003;1.269936e-001
1.429054e+003;1.285829e-001
1.430983e+003;1.311025e-001
1.432911e+003;1.336682e-001
1.434840e+003;1.347277e-001
1.436768e+003;1.341563e-001
1.438697e+003;1.338993e-001
1.440625e+003;1.334434e-001
1.442554e+003;1.325564e-001
1.444482e+003;1.317379e-001
1.446411e+003;1.316433e-001
1.448340e+003;1.324290e-001
1.450268e+003;1.340402e-001
1.452197e+003;1.364260e-001
1.454125e+003;1.385789e-001
1.456054e+003;1.405647e-001
1.457982e+003;1.459832e-001
1.459911e+003;1.536572e-001
1.461839e+003;1.585776e-001
1.463768e+003;1.574325e-001
1.465697e+003;1.510649e-001
1.467625e+003;1.430360e-001
1.469554e+003;1.365342e-001
1.471482e+003;1.330566e-001
1.473411e+003;1.330412e-001
1.475339e+003;1.341056e-001
1.477268e+003;1.332600e-001
1.479196e+003;1.301650e-001
1.481125e+003;1.247647e-001
1.483053e+003;1.180343e-001
1.484982e+003;1.119877e-001
1.486911e+003;1.084858e-001
1.488839e+003;1.075176e-001
1.490768e+003;1.087327e-001
1.492696e+003;1.111988e-001
1.494625e+003;1.138003e-001
1.496553e+003;1.170614e-001
1.498482e+003;1.217076e-001
1.500410e+003;1.270100e-001
1.502339e+003;1.326522e-001
1.504267e+003;1.374203e-001
1.506196e+003;1.423150e-001
1.508125e+003;1.496735e-001
1.510053e+003;1.578960e-001
1.511982e+003;1.655206e-001
1.513910e+003;1.732108e-001
1.515839e+003;1.809812e-001
1.517767e+003;1.894426e-001
1.519696e+003;1.983411e-001
1.521624e+003;2.080135e-001
1.523553e+003;2.185953e-001
1.525481e+003;2.289175e-001
1.527410e+003;2.392085e-001
1.529339e+003;2.491021e-001
1.531267e+003;2.581693e-001
1.533196e+003;2.658633e-001
1.535124e+003;2.718995e-001
1.537053e+003;2.744696e-001
1.538981e+003;2.732111e-001
1.540910e+003;2.703698e-001
1.542838e+003;2.651924e-001
1.544767e+003;2.570121e-001
1.546695e+003;2.467993e-001
1.548624e+003;2.354811e-001
1.550553e+003;2.238093e-001
1.552481e+003;2.128714e-001
1.554410e+003;2.026893e-001
1.556338e+003;1.929961e-001
1.558267e+003;1.831443e-001
1.560195e+003;1.750536e-001
1.562124e+003;1.684505e-001
1.564052e+003;1.610554e-001
1.565981e+003;1.531448e-001
1.567910e+003;1.451592e-001
1.569838e+003;1.370013e-001
1.571767e+003;1.298921e-001
1.573695e+003;1.228361e-001
1.575624e+003;1.157381e-001
1.577552e+003;1.107467e-001
1.579481e+003;1.070409e-001
1.581409e+003;1.038019e-001
1.583338e+003;1.011668e-001
1.585266e+003;9.935372e-002
1.587195e+003;9.845070e-002
1.589124e+003;9.840914e-002
1.591052e+003;9.952290e-002
1.592981e+003;1.013772e-001
1.594909e+003;1.036773e-001
1.596838e+003;1.066447e-001
1.598766e+003;1.107818e-001
1.600695e+003;1.159350e-001
1.602623e+003;1.221084e-001
1.604552e+003;1.294094e-001
1.606480e+003;1.374136e-001
1.608409e+003;1.461765e-001
1.610338e+003;1.556902e-001
1.612266e+003;1.658795e-001
1.614195e+003;1.769011e-001
1.616123e+003;1.896006e-001
1.618052e+003;2.062380e-001
1.619980e+003;2.244202e-001
1.621909e+003;2.423879e-001
1.623837e+003;2.614124e-001
1.625766e+003;2.814755e-001
1.627694e+003;3.023342e-001
1.629623e+003;3.241009e-001
1.631552e+003;3.449482e-001
1.633480e+003;3.610524e-001
1.635409e+003;3.699167e-001
1.637337e+003;3.693379e-001
1.639266e+003;3.578188e-001
1.641194e+003;3.378791e-001
1.643123e+003;3.134839e-001
1.645051e+003;2.875190e-001
1.646980e+003;2.628041e-001
1.648909e+003;2.414736e-001
1.650837e+003;2.214484e-001
1.652766e+003;2.032061e-001
1.654694e+003;1.907771e-001
1.656623e+003;1.809148e-001
1.658551e+003;1.705888e-001
1.660480e+003;1.603200e-001
1.662408e+003;1.502831e-001
1.664337e+003;1.406556e-001
1.666266e+003;1.310743e-001
1.668194e+003;1.216326e-001
1.670123e+003;1.131923e-001
1.672051e+003;1.058543e-001
1.673980e+003;9.838657e-002
1.675908e+003;9.135159e-002
1.677837e+003;8.522124e-002
1.679765e+003;7.835678e-002
1.681694e+003;7.086471e-002
1.683622e+003;6.331367e-002
1.685551e+003;5.825074e-002
1.687479e+003;5.498232e-002
1.689408e+003;5.163113e-002
1.691337e+003;4.901979e-002
1.693265e+003;4.644476e-002
1.695194e+003;4.374716e-002
1.697122e+003;4.268372e-002
1.699051e+003;4.170714e-002
1.700979e+003;4.131230e-002
1.702908e+003;4.216001e-002
1.704836e+003;4.191304e-002
1.706765e+003;4.161417e-002
1.708693e+003;4.152422e-002
1.710622e+003;4.185845e-002
1.712551e+003;4.191925e-002
1.714479e+003;4.139160e-002
1.716408e+003;4.062623e-002
1.718336e+003;4.094972e-002
1.720265e+003;4.227398e-002
1.722193e+003;4.293922e-002
1.724122e+003;4.297389e-002
1.726050e+003;4.325690e-002
1.727979e+003;4.346076e-002
1.729908e+003;4.330720e-002
1.731836e+003;4.246996e-002
1.733765e+003;4.156961e-002
1.735693e+003;4.213387e-002
1.737622e+003;4.255017e-002
1.739550e+003;4.233998e-002
1.741479e+003;4.211222e-002
1.743407e+003;4.127670e-002
1.745336e+003;4.045541e-002
1.747265e+003;3.964358e-002
1.749193e+003;3.865423e-002
1.751122e+003;3.771545e-002
1.753050e+003;3.729286e-002
1.754979e+003;3.672393e-002
1.756907e+003;3.601215e-002
1.758836e+003;3.550149e-002
1.760764e+003;3.480180e-002
1.762693e+003;3.424459e-002
1.764621e+003;3.389989e-002
1.766550e+003;3.323215e-002
1.768479e+003;3.276239e-002
1.770407e+003;3.222499e-002
1.772336e+003;3.151367e-002
1.774264e+003;3.169833e-002
1.776193e+003;3.188011e-002
1.778121e+003;3.161116e-002
1.780050e+003;3.117366e-002
1.781978e+003;3.086992e-002
1.783907e+003;3.067655e-002
1.785835e+003;3.057770e-002
1.787764e+003;3.061990e-002
1.789693e+003;3.029427e-002
1.791621e+003;2.955255e-002
1.793550e+003;2.945443e-002
1.795478e+003;2.975956e-002
1.797407e+003;2.959491e-002
1.799335e+003;2.940766e-002
1.801264e+003;2.927401e-002
1.803192e+003;2.923914e-002
1.805121e+003;2.933863e-002
1.807049e+003;2.933013e-002
1.808978e+003;2.883965e-002
1.810907e+003;2.860152e-002
1.812835e+003;2.882216e-002
1.814764e+003;2.896239e-002
1.816692e+003;2.873828e-002
1.818621e+003;2.866823e-002
1.820549e+003;2.880236e-002
1.822478e+003;2.874947e-002
1.824406e+003;2.829126e-002
1.826335e+003;2.801247e-002
1.828264e+003;2.794115e-002
1.830192e+003;2.811384e-002
1.832121e+003;2.844756e-002
1.834049e+003;2.843578e-002
1.835978e+003;2.819059e-002
1.837906e+003;2.796250e-002
1.839835e+003;2.800218e-002
1.841763e+003;2.780594e-002
1.843692e+003;2.743053e-002
1.845620e+003;2.757869e-002
1.847549e+003;2.758081e-002
1.849478e+003;2.749453e-002
1.851406e+003;2.760259e-002
1.853335e+003;2.753078e-002
1.855263e+003;2.730159e-002
1.857192e+003;2.735833e-002
1.859120e+003;2.732745e-002
1.861049e+003;2.731429e-002
1.862977e+003;2.740632e-002
1.864906e+003;2.720033e-002
1.866834e+003;2.687944e-002
1.868763e+003;2.674625e-002
1.870692e+003;2.685170e-002
1.872620e+003;2.702494e-002
1.874549e+003;2.712048e-002
1.876477e+003;2.721864e-002
1.878406e+003;2.727766e-002
1.880334e+003;2.718351e-002
1.882263e+003;2.707921e-002
1.884191e+003;2.711839e-002
1.886120e+003;2.723212e-002
1.888048e+003;2.734587e-002
1.889977e+003;2.746487e-002
1.891906e+003;2.758497e-002
1.893834e+003;2.763854e-002
1.895763e+003;2.768434e-002
1.897691e+003;2.767862e-002
1.899620e+003;2.773735e-002
1.901548e+003;2.781771e-002
1.903477e+003;2.769415e-002
1.905405e+003;2.753502e-002
1.907334e+003;2.752294e-002
1.909262e+003;2.747606e-002
1.911191e+003;2.725325e-002
1.913120e+003;2.728027e-002
1.915048e+003;2.723056e-002
1.916977e+003;2.687853e-002
1.918905e+003;2.687278e-002
1.920834e+003;2.699307e-002
1.922762e+003;2.712908e-002
1.924691e+003;2.718432e-002
1.926619e+003;2.712778e-002
1.928548e+003;2.714658e-002
1.930477e+003;2.708704e-002
1.932405e+003;2.703379e-002
1.934334e+003;2.710351e-002
1.936262e+003;2.707798e-002
1.938191e+003;2.709671e-002
1.940119e+003;2.703781e-002
1.942048e+003;2.671764e-002
1.943976e+003;2.671571e-002
1.945905e+003;2.700943e-002
1.947833e+003;2.722951e-002
1.949762e+003;2.722954e-002
1.951691e+003;2.701486e-002
1.953619e+003;2.706384e-002
1.955548e+003;2.712725e-002
1.957476e+003;2.726087e-002
1.959405e+003;2.727064e-002
1.961333e+003;2.731418e-002
1.963262e+003;2.747260e-002
1.965190e+003;2.754299e-002
1.967119e+003;2.751172e-002
1.969047e+003;2.746907e-002
1.970976e+003;2.746519e-002
1.972905e+003;2.747437e-002
1.974833e+003;2.755793e-002
1.976762e+003;2.779941e-002
1.978690e+003;2.783127e-002
1.980619e+003;2.774307e-002
1.982547e+003;2.783484e-002
1.984476e+003;2.792129e-002
1.986404e+003;2.779256e-002
1.988333e+003;2.765962e-002
1.990261e+003;2.757865e-002
1.992190e+003;2.751765e-002
1.994119e+003;2.759941e-002
1.996047e+003;2.760538e-002
1.997976e+003;2.742453e-002
1.999904e+003;2.744874e-002
2.001833e+003;2.761700e-002
2.003761e+003;2.789010e-002
2.005690e+003;2.802561e-002
2.007618e+003;2.788889e-002
2.009547e+003;2.779913e-002
2.011476e+003;2.784381e-002
2.013404e+003;2.821792e-002
2.015333e+003;2.847548e-002
2.017261e+003;2.827623e-002
2.019190e+003;2.810164e-002
2.021118e+003;2.820247e-002
2.023047e+003;2.832426e-002
2.024975e+003;2.832284e-002
2.026904e+003;2.830197e-002
2.028833e+003;2.843426e-002
2.030761e+003;2.852020e-002
2.032690e+003;2.857795e-002
2.034618e+003;2.868115e-002
2.036547e+003;2.875213e-002
2.038475e+003;2.891667e-002
2.040404e+003;2.896902e-002
2.042332e+003;2.886546e-002
2.044261e+003;2.898368e-002
2.046189e+003;2.910735e-002
2.048118e+003;2.908213e-002
2.050047e+003;2.905726e-002
2.051975e+003;2.897436e-002
2.053904e+003;2.887070e-002
2.055832e+003;2.897281e-002
2.057761e+003;2.923666e-002
2.059689e+003;2.915267e-002
2.061618e+003;2.902870e-002
2.063546e+003;2.914034e-002
2.065475e+003;2.935122e-002
2.067404e+003;2.929085e-002
2.069332e+003;2.921380e-002
2.071260e+003;2.938394e-002
2.073189e+003;2.933059e-002
2.075118e+003;2.905364e-002
2.077046e+003;2.897475e-002
2.078975e+003;2.895063e-002
2.080903e+003;2.884892e-002
2.082832e+003;2.898042e-002
2.084760e+003;2.905594e-002
2.086689e+003;2.895527e-002
2.088617e+003;2.889599e-002
2.090546e+003;2.885795e-002
2.092475e+003;2.877082e-002
2.094403e+003;2.853630e-002
2.096332e+003;2.855155e-002
2.098260e+003;2.873446e-002
2.100189e+003;2.860208e-002
2.102117e+003;2.854288e-002
2.104046e+003;2.860180e-002
2.105974e+003;2.868954e-002
2.107903e+003;2.878848e-002
2.109832e+003;2.873106e-002
2.111760e+003;2.882747e-002
2.113688e+003;2.906423e-002
2.115617e+003;2.928692e-002
2.117546e+003;2.935480e-002
2.119474e+003;2.938114e-002
2.121403e+003;2.934636e-002
2.123331e+003;2.942294e-002
2.125260e+003;2.953589e-002
2.127188e+003;2.948517e-002
2.129117e+003;2.952858e-002
2.131045e+003;2.969838e-002
2.132974e+003;2.957096e-002
2.134903e+003;2.931481e-002
2.136831e+003;2.930187e-002
2.138760e+003;2.940000e-002
2.140688e+003;2.958388e-002
2.142617e+003;2.966873e-002
2.144545e+003;2.964290e-002
2.146474e+003;2.954607e-002
2.148402e+003;2.956415e-002
2.150331e+003;2.959529e-002
2.152260e+003;2.964535e-002
2.154188e+003;2.949776e-002
2.156117e+003;2.934108e-002
2.158045e+003;2.954472e-002
2.159974e+003;2.975902e-002
2.161902e+003;2.996154e-002
2.163831e+003;3.011657e-002
2.165759e+003;3.010609e-002
2.167688e+003;2.997972e-002
2.169616e+003;2.994919e-002
2.171545e+003;3.008610e-002
2.173474e+003;3.024170e-002
2.175402e+003;3.013447e-002
2.177331e+003;3.011671e-002
2.179259e+003;3.032366e-002
2.181188e+003;3.025644e-002
2.183116e+003;3.027484e-002
2.185045e+003;3.038321e-002
2.186973e+003;3.018834e-002
2.188902e+003;3.019776e-002
2.190831e+003;3.047241e-002
2.192759e+003;3.066310e-002
2.194688e+003;3.077626e-002
2.196616e+003;3.059683e-002
2.198545e+003;3.031897e-002
2.200473e+003;3.035233e-002
2.202402e+003;3.048283e-002
2.204330e+003;3.030060e-002
2.206259e+003;3.004246e-002
2.208188e+003;2.996360e-002
2.210116e+003;2.992842e-002
2.212044e+003;3.001011e-002
2.213973e+003;3.005045e-002
2.215902e+003;2.982975e-002
2.217830e+003;2.953209e-002
2.219759e+003;2.948588e-002
2.221687e+003;2.966724e-002
2.223616e+003;2.966543e-002
2.225544e+003;2.952493e-002
2.227473e+003;2.951741e-002
2.229401e+003;2.942539e-002
2.231330e+003;2.932800e-002
2.233259e+003;2.915037e-002
2.235187e+003;2.899838e-002
2.237116e+003;2.899232e-002
2.239044e+003;2.909920e-002
2.240973e+003;2.905984e-002
2.242901e+003;2.902381e-002
2.244830e+003;2.902945e-002
2.246758e+003;2.894259e-002
2.248687e+003;2.907100e-002
2.250615e+003;2.930907e-002
2.252544e+003;2.951181e-002
2.254473e+003;2.970488e-002
2.256401e+003;2.969995e-002
2.258330e+003;2.952837e-002
2.260258e+003;2.917450e-002
2.262187e+003;2.915933e-002
2.264115e+003;2.951702e-002
2.266044e+003;2.954887e-002
2.267972e+003;2.958880e-002
2.269901e+003;2.975469e-002
2.271830e+003;2.983266e-002
2.273758e+003;3.004235e-002
2.275687e+003;2.999754e-002
2.277615e+003;2.989378e-002
2.279544e+003;2.981804e-002
2.281472e+003;2.992150e-002
2.283401e+003;3.015943e-002
2.285329e+003;3.016469e-002
2.287258e+003;3.045262e-002
2.289187e+003;3.059875e-002
2.291115e+003;3.014011e-002
2.293043e+003;2.997375e-002
2.294972e+003;3.011131e-002
2.296901e+003;3.014221e-002
2.298829e+003;3.020351e-002
2.300758e+003;3.044316e-002
2.302686e+003;3.059743e-002
2.304615e+003;3.057273e-002
2.306543e+003;3.047813e-002
2.308472e+003;3.053170e-002
2.310400e+003;3.060739e-002
2.312329e+003;3.074785e-002
2.314258e+003;3.086231e-002
2.316186e+003;3.059583e-002
2.318115e+003;3.029850e-002
2.320043e+003;3.035329e-002
2.321972e+003;3.041722e-002
2.323900e+003;3.033851e-002
2.325829e+003;3.019019e-002
2.327757e+003;3.022280e-002
2.329686e+003;3.039934e-002
2.331615e+003;3.049324e-002
2.333543e+003;3.059302e-002
2.335472e+003;3.046658e-002
2.337400e+003;3.022997e-002
2.339329e+003;3.018739e-002
2.341257e+003;3.030049e-002
2.343186e+003;3.040755e-002
2.345114e+003;3.024489e-002
2.347043e+003;3.031719e-002
2.348971e+003;3.037511e-002
2.350900e+003;3.037586e-002
2.352829e+003;3.031911e-002
2.354757e+003;3.013706e-002
2.356686e+003;3.008098e-002
2.358614e+003;3.028205e-002
2.360543e+003;3.041807e-002
2.362471e+003;3.046267e-002
2.364400e+003;3.042280e-002
2.366328e+003;3.058225e-002
2.368257e+003;3.050419e-002
2.370186e+003;3.047060e-002
2.372114e+003;3.084467e-002
2.374042e+003;3.102623e-002
2.375971e+003;3.103271e-002
2.377900e+003;3.105374e-002
2.379828e+003;3.097752e-002
2.381757e+003;3.106972e-002
2.383685e+003;3.120848e-002
2.385614e+003;3.120033e-002
2.387542e+003;3.114974e-002
2.389471e+003;3.124195e-002
2.391399e+003;3.129938e-002
2.393328e+003;3.127282e-002
2.395257e+003;3.126894e-002
2.397185e+003;3.142988e-002
2.399114e+003;3.149942e-002
2.401042e+003;3.123582e-002
2.402971e+003;3.108613e-002
2.404899e+003;3.119378e-002
2.406828e+003;3.123999e-002
2.408756e+003;3.132563e-002
2.410685e+003;3.135932e-002
2.412614e+003;3.122767e-002
2.414542e+003;3.118929e-002
2.416471e+003;3.134714e-002
2.418399e+003;3.164740e-002
2.420328e+003;3.193153e-002
2.422256e+003;3.193317e-002
2.424185e+003;3.191926e-002
2.426113e+003;3.183140e-002
2.428042e+003;3.157930e-002
2.429970e+003;3.154167e-002
2.431899e+003;3.179689e-002
2.433828e+003;3.181026e-002
2.435756e+003;3.171102e-002
2.437685e+003;3.176324e-002
2.439613e+003;3.194822e-002
2.441542e+003;3.228566e-002
2.443470e+003;3.257096e-002
2.445399e+003;3.260124e-002
2.447327e+003;3.267158e-002
2.449256e+003;3.297533e-002
2.451185e+003;3.315965e-002
2.453113e+003;3.303982e-002
2.455042e+003;3.284998e-002
2.456970e+003;3.278791e-002
2.458899e+003;3.282879e-002
2.460827e+003;3.305691e-002
2.462756e+003;3.314259e-002
2.464684e+003;3.324391e-002
2.466613e+003;3.360509e-002
2.468542e+003;3.381274e-002
2.470470e+003;3.391286e-002
2.472398e+003;3.390802e-002
2.474327e+003;3.386027e-002
2.476256e+003;3.400960e-002
2.478184e+003;3.392873e-002
2.480113e+003;3.378344e-002
2.482041e+003;3.392748e-002
2.483970e+003;3.414020e-002
2.485898e+003;3.418210e-002
2.487827e+003;3.385157e-002
2.489755e+003;3.367648e-002
2.491684e+003;3.373288e-002
2.493613e+003;3.374290e-002
2.495541e+003;3.387611e-002
2.497470e+003;3.401645e-002
2.499398e+003;3.394908e-002
2.501327e+003;3.393149e-002
2.503255e+003;3.390129e-002
2.505184e+003;3.383001e-002
2.507112e+003;3.404952e-002
2.509041e+003;3.443723e-002
2.510969e+003;3.466354e-002
2.512898e+003;3.456397e-002
2.514827e+003;3.440832e-002
2.516755e+003;3.440057e-002
2.518684e+003;3.456544e-002
2.520612e+003;3.472129e-002
2.522541e+003;3.480650e-002
2.524469e+003;3.492086e-002
2.526398e+003;3.519554e-002
2.528326e+003;3.563106e-002
2.530255e+003;3.586131e-002
2.532184e+003;3.592245e-002
2.534112e+003;3.593638e-002
2.536041e+003;3.599617e-002
2.537969e+003;3.616679e-002
2.539898e+003;3.627124e-002
2.541826e+003;3.632578e-002
2.543755e+003;3.642828e-002
2.545683e+003;3.656606e-002
2.547612e+003;3.653679e-002
2.549541e+003;3.659334e-002
2.551469e+003;3.657759e-002
2.553397e+003;3.660560e-002
2.555326e+003;3.669389e-002
2.557255e+003;3.656638e-002
2.559183e+003;3.658963e-002
2.561112e+003;3.674344e-002
2.563040e+003;3.688499e-002
2.564969e+003;3.680442e-002
2.566897e+003;3.679861e-002
2.568826e+003;3.675097e-002
2.570754e+003;3.664143e-002
2.572683e+003;3.704998e-002
2.574612e+003;3.740530e-002
2.576540e+003;3.728394e-002
2.578469e+003;3.731091e-002
2.580397e+003;3.756720e-002
2.582326e+003;3.756629e-002
2.584254e+003;3.762591e-002
2.586183e+003;3.784746e-002
2.588111e+003;3.795206e-002
2.590040e+003;3.791120e-002
2.591969e+003;3.768083e-002
2.593897e+003;3.796789e-002
2.595826e+003;3.855360e-002
2.597754e+003;3.870839e-002
2.599683e+003;3.862265e-002
2.601611e+003;3.879819e-002
2.603540e+003;3.894575e-002
2.605468e+003;3.872418e-002
2.607397e+003;3.842366e-002
2.609325e+003;3.835394e-002
2.611254e+003;3.846836e-002
2.613183e+003;3.863308e-002
2.615111e+003;3.853201e-002
2.617040e+003;3.844129e-002
2.618968e+003;3.850106e-002
2.620897e+003;3.859444e-002
2.622825e+003;3.877909e-002
2.624754e+003;3.884996e-002
2.626682e+003;3.887674e-002
2.628611e+003;3.925526e-002
2.630540e+003;3.960779e-002
2.632468e+003;3.971760e-002
2.634396e+003;3.964924e-002
2.636325e+003;3.950885e-002
2.638254e+003;3.956924e-002
2.640182e+003;3.965385e-002
2.642111e+003;3.952917e-002
2.644039e+003;3.938356e-002
2.645968e+003;3.958550e-002
2.647896e+003;3.988893e-002
2.649825e+003;4.004663e-002
2.651753e+003;4.004358e-002
2.653682e+003;3.995530e-002
2.655611e+003;3.990629e-002
2.657539e+003;4.019792e-002
2.659468e+003;4.039028e-002
2.661396e+003;4.044864e-002
2.663325e+003;4.044522e-002
2.665253e+003;4.052004e-002
2.667182e+003;4.064817e-002
2.669110e+003;4.078725e-002
2.671039e+003;4.094368e-002
2.672968e+003;4.083854e-002
2.674896e+003;4.072928e-002
2.676825e+003;4.089307e-002
2.678753e+003;4.118824e-002
2.680682e+003;4.118576e-002
2.682610e+003;4.105696e-002
2.684539e+003;4.096134e-002
2.686467e+003;4.107230e-002
2.688396e+003;4.165476e-002
2.690324e+003;4.221953e-002
2.692253e+003;4.237863e-002
2.694182e+003;4.220971e-002
2.696110e+003;4.196147e-002
2.698039e+003;4.215286e-002
2.699967e+003;4.277172e-002
2.701896e+003;4.305749e-002
2.703824e+003;4.303681e-002
2.705753e+003;4.307885e-002
2.707681e+003;4.315178e-002
2.709610e+003;4.324277e-002
2.711539e+003;4.360511e-002
2.713467e+003;4.391338e-002
2.715396e+003;4.413530e-002
2.717324e+003;4.443172e-002
2.719253e+003;4.469225e-002
2.721181e+003;4.469971e-002
2.723110e+003;4.484590e-002
2.725038e+003;4.491905e-002
2.726967e+003;4.530603e-002
2.728896e+003;4.582483e-002
2.730824e+003;4.619047e-002
2.732752e+003;4.666949e-002
2.734681e+003;4.676833e-002
2.736610e+003;4.673855e-002
2.738538e+003;4.689644e-002
2.740467e+003;4.692253e-002
2.742395e+003;4.710490e-002
2.744324e+003;4.740254e-002
2.746252e+003;4.740949e-002
2.748181e+003;4.731445e-002
2.750109e+003;4.719594e-002
2.752038e+003;4.720798e-002
2.753967e+003;4.739252e-002
2.755895e+003;4.763146e-002
2.757824e+003;4.788985e-002
2.759752e+003;4.794690e-002
2.761681e+003;4.789806e-002
2.763609e+003;4.804645e-002
2.765538e+003;4.826094e-002
2.767466e+003;4.828204e-002
2.769395e+003;4.854126e-002
2.771323e+003;4.894313e-002
2.773252e+003;4.921862e-002
2.775181e+003;4.924156e-002
2.777109e+003;4.927165e-002
2.779038e+003;4.963553e-002
2.780966e+003;4.997737e-002
2.782895e+003;5.011535e-002
2.784823e+003;5.035133e-002
2.786752e+003;5.045507e-002
2.788680e+003;5.052787e-002
2.790609e+003;5.086304e-002
2.792538e+003;5.132867e-002
2.794466e+003;5.161933e-002
2.796395e+003;5.199934e-002
2.798323e+003;5.236046e-002
2.800252e+003;5.251120e-002
2.802180e+003;5.267655e-002
2.804109e+003;5.323337e-002
2.806037e+003;5.402029e-002
2.807966e+003;5.445138e-002
2.809895e+003;5.485132e-002
2.811823e+003;5.531590e-002
2.813751e+003;5.572737e-002
2.815680e+003;5.618085e-002
2.817609e+003;5.686840e-002
2.819537e+003;5.795783e-002
2.821466e+003;5.865585e-002
2.823394e+003;5.872170e-002
2.825323e+003;5.894802e-002
2.827251e+003;5.946046e-002
2.829180e+003;6.037481e-002
2.831108e+003;6.147503e-002
2.833037e+003;6.248051e-002
2.834966e+003;6.376633e-002
2.836894e+003;6.590489e-002
2.838823e+003;6.856276e-002
2.840751e+003;7.181650e-002
2.842680e+003;7.613970e-002
2.844608e+003;8.099329e-002
2.846537e+003;8.613617e-002
2.848465e+003;9.170290e-002
2.850394e+003;9.719423e-002
2.852323e+003;1.015887e-001
2.854251e+003;1.047244e-001
2.856180e+003;1.069298e-001
2.858108e+003;1.081856e-001
2.860037e+003;1.086701e-001
2.861965e+003;1.086110e-001
2.863894e+003;1.077386e-001
2.865822e+003;1.063761e-001
2.867751e+003;1.047086e-001
2.869679e+003;1.023662e-001
2.871608e+003;9.936976e-002
2.873536e+003;9.624395e-002
2.875465e+003;9.329284e-002
2.877394e+003;9.039404e-002
2.879322e+003;8.793413e-002
2.881251e+003;8.616170e-002
2.883179e+003;8.507157e-002
2.885108e+003;8.456412e-002
2.887036e+003;8.476239e-002
2.888965e+003;8.567667e-002
2.890893e+003;8.706412e-002
2.892822e+003;8.905515e-002
2.894750e+003;9.139498e-002
2.896679e+003;9.351236e-002
2.898608e+003;9.530276e-002
2.900536e+003;9.681129e-002
2.902465e+003;9.820732e-002
2.904393e+003;9.967130e-002
2.906322e+003;1.012054e-001
2.908250e+003;1.030997e-001
2.910179e+003;1.057495e-001
2.912107e+003;1.088372e-001
2.914036e+003;1.123507e-001
2.915965e+003;1.162532e-001
2.917893e+003;1.202179e-001
2.919822e+003;1.239497e-001
2.921750e+003;1.273651e-001
2.923679e+003;1.307176e-001
2.925607e+003;1.337250e-001
2.927536e+003;1.360388e-001
2.929464e+003;1.379358e-001
2.931393e+003;1.390983e-001
2.933322e+003;1.392621e-001
2.935250e+003;1.384887e-001
2.937178e+003;1.365123e-001
2.939107e+003;1.341146e-001
2.941036e+003;1.309722e-001
2.942964e+003;1.271393e-001
2.944893e+003;1.229412e-001
2.946821e+003;1.176098e-001
2.948750e+003;1.113795e-001
2.950678e+003;1.046983e-001
2.952607e+003;9.798592e-002
2.954535e+003;9.188300e-002
2.956464e+003;8.624252e-002
2.958393e+003;8.139526e-002
2.960321e+003;7.779627e-002
2.962250e+003;7.450002e-002
2.964178e+003;7.113945e-002
2.966107e+003;6.830148e-002
2.968035e+003;6.573478e-002
2.969964e+003;6.328584e-002
2.971892e+003;6.086424e-002
2.973821e+003;5.868036e-002
2.975750e+003;5.674234e-002
2.977678e+003;5.515421e-002
2.979607e+003;5.380069e-002
2.981535e+003;5.249744e-002
2.983464e+003;5.145812e-002
2.985392e+003;5.049530e-002
2.987321e+003;4.973346e-002
2.989249e+003;4.912348e-002
2.991178e+003;4.868297e-002
2.993106e+003;4.832489e-002
2.995035e+003;4.792141e-002
2.996964e+003;4.801802e-002
2.998892e+003;4.799416e-002
3.000821e+003;4.742073e-002
3.002749e+003;4.714955e-002
3.004678e+003;4.751061e-002
3.006606e+003;4.764511e-002
3.008535e+003;4.754835e-002
3.010463e+003;4.776064e-002
3.012392e+003;4.797972e-002
3.014321e+003;4.800707e-002
3.016249e+003;4.817430e-002
3.018177e+003;4.851851e-002
3.020106e+003;4.883048e-002
3.022035e+003;4.886066e-002
3.023963e+003;4.915354e-002
3.025892e+003;4.960786e-002
3.027820e+003;4.990581e-002
3.029749e+003;5.027807e-002
3.031677e+003;5.073387e-002
3.033606e+003;5.117744e-002
3.035534e+003;5.139595e-002
3.037463e+003;5.201077e-002
3.039392e+003;5.315349e-002
3.041320e+003;5.401594e-002
3.043249e+003;5.448027e-002
3.045177e+003;5.489907e-002
3.047106e+003;5.589319e-002
3.049034e+003;5.678475e-002
3.050963e+003;5.734788e-002
3.052891e+003;5.796498e-002
3.054820e+003;5.892486e-002
3.056749e+003;5.968546e-002
3.058677e+003;6.005433e-002
3.060606e+003;6.042138e-002
3.062534e+003;6.068120e-002
3.064463e+003;6.077223e-002
3.066391e+003;6.119715e-002
3.068320e+003;6.186090e-002
3.070248e+003;6.216880e-002
3.072177e+003;6.222523e-002
3.074105e+003;6.227915e-002
3.076034e+003;6.224488e-002
3.077963e+003;6.217193e-002
3.079891e+003;6.216826e-002
3.081820e+003;6.198741e-002
3.083748e+003;6.168484e-002
3.085677e+003;6.120241e-002
3.087605e+003;6.090728e-002
3.089534e+003;6.052455e-002
3.091462e+003;6.023056e-002
3.093391e+003;5.992715e-002
3.095320e+003;5.926669e-002
3.097248e+003;5.859836e-002
3.099177e+003;5.793469e-002
3.101105e+003;5.728614e-002
3.103034e+003;5.672844e-002
3.104962e+003;5.619307e-002
3.106891e+003;5.543187e-002
3.108819e+003;5.474550e-002
3.110748e+003;5.423543e-002
3.112677e+003;5.377482e-002
3.114605e+003;5.349039e-002
3.116533e+003;5.319078e-002
3.118462e+003;5.278542e-002
3.120391e+003;5.255099e-002
3.122319e+003;5.220697e-002
3.124248e+003;5.176429e-002
3.126176e+003;5.179871e-002
3.128105e+003;5.196442e-002
3.130033e+003;5.179740e-002
3.131962e+003;5.135671e-002
3.133890e+003;5.126725e-002
3.135819e+003;5.164225e-002
3.137748e+003;5.187834e-002
3.139676e+003;5.196744e-002
3.141605e+003;5.167972e-002
3.143533e+003;5.101416e-002
3.145462e+003;5.115194e-002
3.147390e+003;5.188973e-002
3.149319e+003;5.219737e-002
3.151247e+003;5.228915e-002
3.153176e+003;5.237082e-002
3.155104e+003;5.256737e-002
3.157033e+003;5.278665e-002
3.158962e+003;5.297389e-002
3.160890e+003;5.375696e-002
3.162819e+003;5.483094e-002
3.164747e+003;5.513367e-002
3.166676e+003;5.493456e-002
3.168604e+003;5.530175e-002
3.170533e+003;5.611698e-002
3.172461e+003;5.678074e-002
3.174390e+003;5.748943e-002
3.176319e+003;5.798642e-002
3.178247e+003;5.840134e-002
3.180176e+003;5.888297e-002
3.182104e+003;5.936036e-002
3.184033e+003;5.988748e-002
3.185961e+003;6.051880e-002
3.187890e+003;6.092165e-002
3.189818e+003;6.145117e-002
3.191747e+003;6.215480e-002
3.193676e+003;6.234314e-002
3.195604e+003;6.254476e-002
3.197532e+003;6.290576e-002
3.199461e+003;6.337608e-002
3.201390e+003;6.379201e-002
3.203318e+003;6.404249e-002
3.205247e+003;6.447300e-002
3.207175e+003;6.493355e-002
3.209104e+003;6.524549e-002
3.211032e+003;6.557156e-002
3.212961e+003;6.577391e-002
3.214889e+003;6.619395e-002
3.216818e+003;6.678542e-002
3.218747e+003;6.728090e-002
3.220675e+003;6.783509e-002
3.222604e+003;6.848083e-002
3.224532e+003;6.940042e-002
3.226461e+003;7.032886e-002
3.228389e+003;7.094710e-002
3.230318e+003;7.188050e-002
3.232246e+003;7.305100e-002
3.234175e+003;7.409047e-002
3.236104e+003;7.560819e-002
3.238032e+003;7.703786e-002
3.239961e+003;7.846529e-002
3.241889e+003;8.009005e-002
3.243818e+003;8.163428e-002
3.245746e+003;8.317567e-002
3.247675e+003;8.509765e-002
3.249603e+003;8.705141e-002
3.251532e+003;8.887382e-002
3.253460e+003;9.104212e-002
3.255389e+003;9.326877e-002
3.257318e+003;9.524607e-002
3.259246e+003;9.727294e-002
3.261175e+003;9.978949e-002
3.263103e+003;1.022830e-001
3.265032e+003;1.044931e-001
3.266960e+003;1.070212e-001
3.268889e+003;1.096844e-001
3.270817e+003;1.118634e-001
3.272746e+003;1.140233e-001
3.274675e+003;1.167723e-001
3.276603e+003;1.195719e-001
3.278531e+003;1.224504e-001
3.280460e+003;1.249716e-001
3.282389e+003;1.270851e-001
3.284317e+003;1.299156e-001
3.286246e+003;1.329375e-001
3.288174e+003;1.354500e-001
3.290103e+003;1.372728e-001
3.292031e+003;1.385136e-001
3.293960e+003;1.390857e-001
3.295888e+003;1.384513e-001
3.297817e+003;1.372135e-001
3.299746e+003;1.355931e-001
3.301674e+003;1.328651e-001
3.303603e+003;1.290559e-001
3.305531e+003;1.253983e-001
3.307460e+003;1.222636e-001
3.309388e+003;1.188650e-001
3.311317e+003;1.150585e-001
3.313245e+003;1.112750e-001
3.315174e+003;1.076267e-001
3.317103e+003;1.042817e-001
3.319031e+003;1.009694e-001
3.320960e+003;9.742037e-002
3.322888e+003;9.428842e-002
3.324817e+003;9.165090e-002
3.326745e+003;8.883560e-002
3.328674e+003;8.589026e-002
3.330602e+003;8.296918e-002
3.332531e+003;8.026097e-002
3.334459e+003;7.793176e-002
3.336388e+003;7.603047e-002
3.338317e+003;7.413829e-002
3.340245e+003;7.215459e-002
3.342174e+003;7.017547e-002
3.344102e+003;6.821781e-002
3.346031e+003;6.642628e-002
3.347959e+003;6.486195e-002
3.349888e+003;6.365199e-002
3.351816e+003;6.248280e-002
3.353745e+003;6.100210e-002
3.355674e+003;5.949710e-002
3.357602e+003;5.853068e-002
3.359531e+003;5.754447e-002
3.361459e+003;5.616023e-002
3.363388e+003;5.513036e-002
3.365316e+003;5.407895e-002
3.367245e+003;5.305497e-002
3.369173e+003;5.229946e-002
3.371102e+003;5.177336e-002
3.373031e+003;5.081674e-002
3.374959e+003;4.989225e-002
3.376887e+003;4.970270e-002
3.378816e+003;4.968483e-002
3.380745e+003;4.914307e-002
3.382673e+003;4.852999e-002
3.384602e+003;4.819696e-002
3.386530e+003;4.775509e-002
3.388459e+003;4.715885e-002
3.390387e+003;4.682694e-002
3.392316e+003;4.662854e-002
3.394244e+003;4.606394e-002
3.396173e+003;4.554236e-002
3.398102e+003;4.558968e-002
3.400030e+003;4.534381e-002
3.401959e+003;4.475421e-002
3.403887e+003;4.473669e-002
3.405816e+003;4.475344e-002
3.407744e+003;4.437924e-002
3.409673e+003;4.424304e-002
3.411601e+003;4.393123e-002
3.413530e+003;4.337269e-002
3.415458e+003;4.311786e-002
3.417387e+003;4.325807e-002
3.419316e+003;4.324043e-002
3.421244e+003;4.311084e-002
3.423173e+003;4.285901e-002
3.425101e+003;4.277787e-002
3.427030e+003;4.293029e-002
3.428958e+003;4.284994e-002
3.430887e+003;4.246715e-002
3.432815e+003;4.223571e-002
3.434744e+003;4.191074e-002
3.436673e+003;4.179286e-002
3.438601e+003;4.185703e-002
3.440530e+003;4.177487e-002
3.442458e+003;4.165961e-002
3.444387e+003;4.164550e-002
3.446315e+003;4.147836e-002
3.448244e+003;4.121017e-002
3.450172e+003;4.136518e-002
3.452101e+003;4.165075e-002
3.454030e+003;4.137506e-002
3.455958e+003;4.092861e-002
3.457886e+003;4.064387e-002
3.459815e+003;4.066956e-002
3.461744e+003;4.048487e-002
3.463672e+003;4.012112e-002
3.465601e+003;4.000412e-002
3.467529e+003;4.014671e-002
3.469458e+003;4.002592e-002
3.471386e+003;3.968271e-002
3.473315e+003;3.956242e-002
3.475243e+003;3.963864e-002
3.477172e+003;3.979930e-002
3.479101e+003;3.984291e-002
3.481029e+003;3.981201e-002
3.482958e+003;3.988664e-002
3.484886e+003;3.970882e-002
3.486815e+003;3.964216e-002
3.488743e+003;3.958387e-002
3.490672e+003;3.936012e-002
3.492600e+003;3.961494e-002
3.494529e+003;3.979636e-002
3.496458e+003;3.929432e-002
3.498386e+003;3.898416e-002
3.500315e+003;3.915571e-002
3.502243e+003;3.946701e-002
3.504172e+003;3.966906e-002
3.506100e+003;3.929769e-002
3.508029e+003;3.860248e-002
3.509957e+003;3.809119e-002
3.511886e+003;3.811770e-002
3.513814e+003;3.829940e-002
3.515743e+003;3.816361e-002
3.517672e+003;3.803621e-002
3.519600e+003;3.797126e-002
3.521529e+003;3.771665e-002
3.523457e+003;3.750333e-002
3.525386e+003;3.753042e-002
3.527314e+003;3.749072e-002
3.529243e+003;3.720228e-002
3.531171e+003;3.713626e-002
3.533100e+003;3.721845e-002
3.535029e+003;3.705427e-002
3.536957e+003;3.670619e-002
3.538885e+003;3.655571e-002
3.540814e+003;3.623097e-002
3.542743e+003;3.570329e-002
3.544671e+003;3.557366e-002
3.546600e+003;3.560434e-002
3.548528e+003;3.572178e-002
3.550457e+003;3.573872e-002
3.552385e+003;3.526744e-002
3.554314e+003;3.497031e-002
3.556242e+003;3.469136e-002
3.558171e+003;3.445792e-002
3.560100e+003;3.446876e-002
3.562028e+003;3.435130e-002
3.563957e+003;3.393970e-002
3.565885e+003;3.324824e-002
3.567814e+003;3.284587e-002
3.569742e+003;3.297072e-002
3.571671e+003;3.273385e-002
3.573599e+003;3.243459e-002
3.575528e+003;3.260718e-002
3.577457e+003;3.274878e-002
3.579385e+003;3.247808e-002
3.581314e+003;3.196466e-002
3.583242e+003;3.156177e-002
3.585171e+003;3.121240e-002
3.587099e+003;3.075944e-002
3.589028e+003;3.085957e-002
3.590956e+003;3.100168e-002
3.592885e+003;3.058403e-002
3.594813e+003;3.012474e-002
3.596742e+003;2.972677e-002
3.598671e+003;2.980913e-002
3.600599e+003;3.003351e-002
3.602528e+003;2.984100e-002
3.604456e+003;2.936391e-002
3.606385e+003;2.855824e-002
3.608313e+003;2.805141e-002
3.610242e+003;2.836295e-002
3.612170e+003;2.816927e-002
3.614099e+003;2.817231e-002
3.616028e+003;2.763020e-002
3.617956e+003;2.682174e-002
3.619885e+003;2.706525e-002
3.621813e+003;2.774628e-002
3.623742e+003;2.784583e-002
3.625670e+003;2.747140e-002
3.627599e+003;2.617819e-002
3.629527e+003;2.576515e-002
3.631456e+003;2.651955e-002
3.633385e+003;2.645884e-002
3.635313e+003;2.631163e-002
3.637241e+003;2.633430e-002
3.639170e+003;2.623580e-002
3.641099e+003;2.638566e-002
3.643027e+003;2.611175e-002
3.644956e+003;2.530102e-002
3.646884e+003;2.426813e-002
3.648813e+003;2.358195e-002
3.650741e+003;2.384854e-002
3.652670e+003;2.428628e-002
3.654598e+003;2.418394e-002
3.656527e+003;2.429139e-002
3.658456e+003;2.455911e-002
3.660384e+003;2.408243e-002
3.662313e+003;2.409528e-002
3.664241e+003;2.422563e-002
3.666170e+003;2.409462e-002
3.668098e+003;2.346796e-002
3.670027e+003;2.281591e-002
3.671955e+003;2.316152e-002
3.673884e+003;2.258416e-002
3.675813e+003;2.191970e-002
3.677741e+003;2.278413e-002
3.679669e+003;2.298995e-002
3.681598e+003;2.267090e-002
3.683527e+003;2.244855e-002
3.685455e+003;2.209639e-002
3.687384e+003;2.110896e-002
3.689312e+003;2.065036e-002
3.691241e+003;2.115213e-002
3.693169e+003;2.164821e-002
3.695098e+003;2.152079e-002
3.697026e+003;2.114556e-002
3.698955e+003;2.096272e-002
3.700884e+003;2.100156e-002
3.702812e+003;2.093768e-002
3.704741e+003;2.077520e-002
3.706669e+003;2.080686e-002
3.708598e+003;2.064866e-002
3.710526e+003;2.012724e-002
3.712455e+003;2.023168e-002
3.714383e+003;2.073849e-002
3.716312e+003;2.076119e-002
3.718240e+003;2.046721e-002
3.720169e+003;2.017614e-002
3.722098e+003;2.023057e-002
3.724026e+003;2.038324e-002
3.725955e+003;2.056944e-002
3.727883e+003;2.059463e-002
3.729812e+003;2.013793e-002
3.731740e+003;1.952524e-002
3.733669e+003;1.919823e-002
3.735597e+003;1.903030e-002
3.737526e+003;1.981594e-002
3.739455e+003;2.051477e-002
3.741383e+003;2.036515e-002
3.743312e+003;1.917765e-002
3.745240e+003;1.926396e-002
3.747169e+003;1.983120e-002
3.749097e+003;1.903705e-002
3.751026e+003;1.871735e-002
3.752954e+003;1.935770e-002
3.754883e+003;2.034021e-002
3.756812e+003;2.050302e-002
3.758740e+003;2.038230e-002
3.760668e+003;2.052341e-002
3.762597e+003;2.097451e-002
3.764526e+003;2.127537e-002
3.766454e+003;2.119350e-002
3.768383e+003;2.051904e-002
3.770311e+003;2.053467e-002
3.772240e+003;2.117297e-002
3.774168e+003;2.118337e-002
3.776097e+003;2.097190e-002
3.778025e+003;2.089853e-002
3.779954e+003;2.076452e-002
3.781883e+003;2.096679e-002
3.783811e+003;2.121207e-002
3.785740e+003;2.092711e-002
3.787668e+003;2.066127e-002
3.789597e+003;2.088310e-002
3.791525e+003;2.094109e-002
3.793454e+003;2.089373e-002
3.795382e+003;2.041890e-002
3.797311e+003;2.029855e-002
3.799240e+003;2.009753e-002
3.801168e+003;1.983408e-002
3.803097e+003;2.080620e-002
3.805025e+003;2.082379e-002
3.806954e+003;2.051223e-002
3.808882e+003;2.118341e-002
3.810811e+003;2.136112e-002
3.812739e+003;2.099137e-002
3.814668e+003;2.027688e-002
3.816596e+003;2.035625e-002
3.818525e+003;2.048267e-002
3.820454e+003;1.976541e-002
3.822382e+003;2.042071e-002
3.824311e+003;2.126952e-002
3.826239e+003;2.111720e-002
3.828168e+003;2.123431e-002
3.830096e+003;2.138270e-002
3.832025e+003;2.156787e-002
3.833953e+003;2.153514e-002
3.835882e+003;2.067517e-002
3.837811e+003;2.032094e-002
3.839739e+003;2.107310e-002
3.841667e+003;2.153820e-002
3.843596e+003;2.198530e-002
3.845525e+003;2.216776e-002
3.847453e+003;2.208220e-002
3.849382e+003;2.164097e-002
3.851310e+003;2.048958e-002
3.853239e+003;1.991822e-002
3.855167e+003;2.120783e-002
3.857096e+003;2.217390e-002
3.859024e+003;2.235174e-002
3.860953e+003;2.235913e-002
3.862882e+003;2.209448e-002
3.864810e+003;2.170387e-002
3.866739e+003;2.155857e-002
3.868667e+003;2.118696e-002
3.870596e+003;2.118570e-002
3.872524e+003;2.186719e-002
3.874453e+003;2.199743e-002
3.876381e+003;2.182740e-002
3.878310e+003;2.162122e-002
3.880239e+003;2.139345e-002
3.882167e+003;2.169502e-002
3.884096e+003;2.209043e-002
3.886024e+003;2.225278e-002
3.887953e+003;2.270215e-002
3.889881e+003;2.269806e-002
3.891810e+003;2.253017e-002
3.893738e+003;2.290259e-002
3.895667e+003;2.301686e-002
3.897595e+003;2.251736e-002
3.899524e+003;2.245487e-002
3.901453e+003;2.256915e-002
3.903381e+003;2.243135e-002
3.905310e+003;2.280372e-002
3.907238e+003;2.347761e-002
3.909167e+003;2.354792e-002
3.911095e+003;2.314359e-002
3.913024e+003;2.304498e-002
3.914952e+003;2.309614e-002
3.916881e+003;2.293514e-002
3.918810e+003;2.309338e-002
3.920738e+003;2.317201e-002
3.922667e+003;2.304711e-002
3.924595e+003;2.321447e-002
3.926524e+003;2.374084e-002
3.928452e+003;2.407991e-002
3.930381e+003;2.395286e-002
3.932309e+003;2.392047e-002
3.934238e+003;2.416779e-002
3.936167e+003;2.432980e-002
3.938095e+003;2.402464e-002
3.940023e+003;2.377640e-002
3.941952e+003;2.372845e-002
3.943881e+003;2.387073e-002
3.945809e+003;2.444787e-002
3.947738e+003;2.451732e-002
3.949666e+003;2.393935e-002
3.951595e+003;2.412383e-002
3.953523e+003;2.448945e-002
3.955452e+003;2.443003e-002
3.957380e+003;2.447045e-002
3.959309e+003;2.461272e-002
3.961238e+003;2.486425e-002
3.963166e+003;2.485103e-002
3.965095e+003;2.487264e-002
3.967023e+003;2.486583e-002
3.968952e+003;2.505436e-002
3.970880e+003;2.537176e-002
3.972809e+003;2.536544e-002
3.974737e+003;2.545723e-002
3.976666e+003;2.551918e-002
3.978594e+003;2.539024e-002
3.980523e+003;2.538704e-002
3.982452e+003;2.530439e-002
3.984380e+003;2.539280e-002
3.986309e+003;2.578207e-002
3.988237e+003;2.606228e-002
3.990166e+003;2.619547e-002
3.992094e+003;2.625386e-002
3.994023e+003;2.639165e-002
3.995951e+003;2.652343e-002
3.997880e+003;2.655661e-002
3.999809e+003;2.672194e-002
4.001737e+003;0.000000e+000
