3.992094e+002;0.000000e+000
4.011380e+002;0.000000e+000
4.030665e+002;0.000000e+000
4.049951e+002;0.000000e+000
4.069236e+002;0.000000e+000
4.088522e+002;0.000000e+000
4.107807e+002;0.000000e+000
4.127093e+002;0.000000e+000
4.146378e+002;0.000000e+000
4.165664e+002;0.000000e+000
4.184949e+002;0.000000e+000
4.204235e+002;0.000000e+000
4.223520e+002;0.000000e+000
4.242806e+002;0.000000e+000
4.262091e+002;0.000000e+000
4.281377e+002;0.000000e+000
4.300662e+002;0.000000e+000
4.319948e+002;0.000000e+000
4.339233e+002;0.000000e+000
4.358519e+002;0.000000e+000
4.377804e+002;0.000000e+000
4.397090e+002;0.000000e+000
4.416375e+002;0.000000e+000
4.435660e+002;0.000000e+000
4.454946e+002;0.000000e+000
4.474232e+002;0.000000e+000
4.493517e+002;0.000000e+000
4.512802e+002;0.000000e+000
4.532088e+002;0.000000e+000
4.551373e+002;0.000000e+000
4.570659e+002;0.000000e+000
4.589944e+002;0.000000e+000
4.609230e+002;0.000000e+000
4.628515e+002;0.000000e+000
4.647801e+002;0.000000e+000
4.667086e+002;0.000000e+000
4.686372e+002;0.000000e+000
4.705657e+002;0.000000e+000
4.724943e+002;0.000000e+000
4.744228e+002;0.000000e+000
4.763513e+002;0.000000e+000
4.782799e+002;0.000000e+000
4.802085e+002;0.000000e+000
4.821370e+002;0.000000e+000
4.840656e+002;0.000000e+000
4.859941e+002;0.000000e+000
4.879226e+002;0.000000e+000
4.898512e+002;0.000000e+000
4.917798e+002;0.000000e+000
4.937083e+002;0.000000e+000
4.956368e+002;0.000000e+000
4.975654e+002;0.000000e+000
4.994939e+002;0.000000e+000
5.014225e+002;0.000000e+000
5.033510e+002;0.000000e+000
5.052796e+002;0.000000e+000
5.072081e+002;0.000000e+000
5.091367e+002;0.000000e+000
5.110652e+002;0.000000e+000
5.129938e+002;0.000000e+000
5.149223e+002;0.000000e+000
5.168509e+002;0.000000e+000
5.187794e+002;0.000000e+000
5.207079e+002;0.000000e+000
5.226365e+002;0.000000e+000
5.245651e+002;0.000000e+000
5.264936e+002;0.000000e+000
5.284222e+002;0.000000e+000
5.303507e+002;0.000000e+000
5.322792e+002;0.000000e+000
5.342078e+002;0.000000e+000
5.361364e+002;0.000000e+000
5.380649e+002;0.000000e+000
5.399935e+002;0.000000e+000
5.419220e+002;0.000000e+000
5.438505e+002;0.000000e+000
5.457791e+002;0.000000e+000
5.477076e+002;0.000000e+000
5.496362e+002;0.000000e+000
5.515648e+002;0.000000e+000
5.534933e+002;0.000000e+000
5.554218e+002;0.000000e+000
5.573504e+002;0.000000e+000
5.592789e+002;0.000000e+000
5.612075e+002;0.000000e+000
5.631360e+002;0.000000e+000
5.650646e+002;0.000000e+000
5.669931e+002;0.000000e+000
5.689217e+002;0.000000e+000
5.708502e+002;0.000000e+000
5.727787e+002;0.000000e+000
5.747073e+002;0.000000e+000
5.766359e+002;0.000000e+000
5.785644e+002;0.000000e+000
5.804930e+002;0.000000e+000
5.824215e+002;0.000000e+000
5.843500e+002;0.000000e+000
5.862786e+002;0.000000e+000
5.882072e+002;0.000000e+000
5.901357e+002;0.000000e+000
5.920643e+002;0.000000e+000
5.939928e+002;0.000000e+000
5.959213e+002;0.000000e+000
5.978499e+002;0.000000e+000
5.997784e+002;1.406056e-001
6.017070e+002;1.433691e-001
6.036355e+002;1.395148e-001
6.055641e+002;1.381028e-001
6.074926e+002;1.365760e-001
6.094211e+002;1.380404e-001
6.113497e+002;1.422772e-001
6.132783e+002;1.437423e-001
6.152068e+002;1.405343e-001
6.171354e+002;1.400556e-001
6.190639e+002;1.432998e-001
6.209924e+002;1.443476e-001
6.229210e+002;1.456627e-001
6.248495e+002;1.478516e-001
6.267781e+002;1.459408e-001
6.287067e+002;1.456549e-001
6.306352e+002;1.474929e-001
6.325637e+002;1.447845e-001
6.344923e+002;1.421455e-001
6.364208e+002;1.457166e-001
6.383494e+002;1.461897e-001
6.402780e+002;1.432379e-001
6.422065e+002;1.434955e-001
6.441350e+002;1.468477e-001
6.460636e+002;1.500762e-001
6.479921e+002;1.537367e-001
6.499207e+002;1.578508e-001
6.518492e+002;1.599726e-001
6.537778e+002;1.609353e-001
6.557063e+002;1.627177e-001
6.576349e+002;1.637918e-001
6.595634e+002;1.669042e-001
6.614919e+002;1.716546e-001
6.634205e+002;1.769444e-001
6.653491e+002;1.792323e-001
6.672776e+002;1.792679e-001
6.692062e+002;1.803062e-001
6.711347e+002;1.820537e-001
6.730632e+002;1.847545e-001
6.749918e+002;1.878302e-001
6.769203e+002;1.894874e-001
6.788489e+002;1.908199e-001
6.807775e+002;1.914269e-001
6.827060e+002;1.926092e-001
6.846345e+002;1.931783e-001
6.865631e+002;1.909034e-001
6.884916e+002;1.895173e-001
6.904202e+002;1.887465e-001
6.923488e+002;1.869284e-001
6.942773e+002;1.846689e-001
6.962058e+002;1.803585e-001
6.981344e+002;1.771135e-001
7.000629e+002;1.753001e-001
7.019915e+002;1.723597e-001
7.039200e+002;1.699347e-001
7.058486e+002;1.681149e-001
7.077771e+002;1.669367e-001
7.097057e+002;1.658089e-001
7.116342e+002;1.644605e-001
7.135627e+002;1.632680e-001
7.154913e+002;1.610093e-001
7.174199e+002;1.583014e-001
7.193484e+002;1.565579e-001
7.212770e+002;1.557702e-001
7.232055e+002;1.563805e-001
7.251340e+002;1.565506e-001
7.270626e+002;1.556633e-001
7.289911e+002;1.549761e-001
7.309197e+002;1.515741e-001
7.328483e+002;1.455326e-001
7.347768e+002;1.380495e-001
7.367053e+002;1.307713e-001
7.386339e+002;1.249219e-001
7.405624e+002;1.207454e-001
7.424910e+002;1.175617e-001
7.444196e+002;1.154811e-001
7.463481e+002;1.136059e-001
7.482766e+002;1.111474e-001
7.502052e+002;1.088960e-001
7.521337e+002;1.068651e-001
7.540623e+002;1.049673e-001
7.559908e+002;1.032308e-001
7.579194e+002;1.015574e-001
7.598479e+002;9.982029e-002
7.617765e+002;9.828838e-002
7.637050e+002;9.694725e-002
7.656335e+002;9.593052e-002
7.675621e+002;9.516042e-002
7.694907e+002;9.412115e-002
7.714192e+002;9.323230e-002
7.733478e+002;9.241548e-002
7.752763e+002;9.165233e-002
7.772048e+002;9.031661e-002
7.791334e+002;8.917935e-002
7.810620e+002;8.855493e-002
7.829905e+002;8.713777e-002
7.849191e+002;8.502365e-002
7.868476e+002;8.334798e-002
7.887761e+002;8.235799e-002
7.907047e+002;8.100364e-002
7.926332e+002;7.924143e-002
7.945618e+002;7.823230e-002
7.964903e+002;7.826404e-002
7.984189e+002;7.767976e-002
8.003474e+002;7.525645e-002
8.022759e+002;7.370246e-002
8.042045e+002;7.361774e-002
8.061331e+002;7.288359e-002
8.080616e+002;7.188527e-002
8.099902e+002;7.131279e-002
8.119187e+002;7.033654e-002
8.138472e+002;6.931926e-002
8.157758e+002;6.908875e-002
8.177043e+002;6.937908e-002
8.196329e+002;6.991255e-002
8.215615e+002;6.992392e-002
8.234900e+002;6.933344e-002
8.254185e+002;6.906762e-002
8.273471e+002;7.046185e-002
8.292756e+002;7.230888e-002
8.312042e+002;7.330770e-002
8.331328e+002;7.356334e-002
8.350613e+002;7.277909e-002
8.369898e+002;7.097180e-002
8.389184e+002;6.876256e-002
8.408469e+002;6.641798e-002
8.427755e+002;6.443798e-002
8.447040e+002;6.333384e-002
8.466326e+002;6.285555e-002
8.485611e+002;6.272694e-002
8.504897e+002;6.259477e-002
8.524182e+002;6.242779e-002
8.543467e+002;6.225636e-002
8.562753e+002;6.222060e-002
8.582039e+002;6.205208e-002
8.601324e+002;6.172162e-002
8.620610e+002;6.124537e-002
8.639895e+002;6.167170e-002
8.659180e+002;6.250106e-002
8.678466e+002;6.235014e-002
8.697751e+002;6.184752e-002
8.717037e+002;6.216635e-002
8.736323e+002;6.275757e-002
8.755608e+002;6.288780e-002
8.774893e+002;6.300186e-002
8.794179e+002;6.299489e-002
8.813464e+002;6.306557e-002
8.832750e+002;6.352080e-002
8.852036e+002;6.394404e-002
8.871321e+002;6.427904e-002
8.890606e+002;6.470806e-002
8.909892e+002;6.455879e-002
8.929177e+002;6.415746e-002
8.948463e+002;6.432657e-002
8.967748e+002;6.485795e-002
8.987034e+002;6.503242e-002
9.006319e+002;6.484903e-002
9.025605e+002;6.516891e-002
9.044890e+002;6.545539e-002
9.064175e+002;6.594473e-002
9.083461e+002;6.673758e-002
9.102747e+002;6.712224e-002
9.122032e+002;6.740449e-002
9.141318e+002;6.807841e-002
9.160603e+002;6.856098e-002
9.179888e+002;6.908261e-002
9.199174e+002;7.018248e-002
9.218459e+002;7.121202e-002
9.237745e+002;7.244388e-002
9.257031e+002;7.419949e-002
9.276316e+002;7.534989e-002
9.295601e+002;7.548553e-002
9.314887e+002;7.456256e-002
9.334172e+002;7.313788e-002
9.353458e+002;7.175545e-002
9.372744e+002;7.090544e-002
9.392029e+002;7.099326e-002
9.411314e+002;7.145201e-002
9.430600e+002;7.208981e-002
9.449885e+002;7.270642e-002
9.469171e+002;7.385211e-002
9.488456e+002;7.573192e-002
9.507742e+002;7.739076e-002
9.527027e+002;7.830456e-002
9.546313e+002;7.900215e-002
9.565598e+002;7.980003e-002
9.584883e+002;8.031367e-002
9.604169e+002;8.052081e-002
9.623455e+002;7.984475e-002
9.642740e+002;7.892445e-002
9.662026e+002;7.880820e-002
9.681311e+002;7.873499e-002
9.700596e+002;7.863006e-002
9.719882e+002;7.856955e-002
9.739167e+002;7.809823e-002
9.758453e+002;7.745206e-002
9.777739e+002;7.684656e-002
9.797024e+002;7.594182e-002
9.816309e+002;7.515146e-002
9.835595e+002;7.441062e-002
9.854880e+002;7.359925e-002
9.874166e+002;7.303316e-002
9.893452e+002;7.249521e-002
9.912737e+002;7.159069e-002
9.932022e+002;7.084221e-002
9.951307e+002;7.028168e-002
9.970593e+002;6.978674e-002
9.989879e+002;6.950096e-002
1.000916e+003;6.950159e-002
1.002845e+003;6.949069e-002
1.004773e+003;6.943945e-002
1.006702e+003;6.949723e-002
1.008631e+003;6.954809e-002
1.010559e+003;6.933220e-002
1.012488e+003;6.887367e-002
1.014416e+003;6.845068e-002
1.016345e+003;6.850080e-002
1.018273e+003;6.873340e-002
1.020202e+003;6.895918e-002
1.022130e+003;6.955719e-002
1.024059e+003;7.064696e-002
1.025988e+003;7.210213e-002
1.027916e+003;7.319050e-002
1.029845e+003;7.359446e-002
1.031773e+003;7.310157e-002
1.033702e+003;7.246029e-002
1.035630e+003;7.194107e-002
1.037559e+003;7.135054e-002
1.039487e+003;7.106967e-002
1.041416e+003;7.059164e-002
1.043344e+003;6.958909e-002
1.045273e+003;6.929232e-002
1.047202e+003;6.995724e-002
1.049130e+003;7.064902e-002
1.051059e+003;7.141694e-002
1.052987e+003;7.245265e-002
1.054916e+003;7.359807e-002
1.056844e+003;7.457012e-002
1.058773e+003;7.563008e-002
1.060701e+003;7.667769e-002
1.062630e+003;7.740070e-002
1.064558e+003;7.857959e-002
1.066487e+003;7.996933e-002
1.068416e+003;8.126760e-002
1.070344e+003;8.175185e-002
1.072273e+003;8.224200e-002
1.074201e+003;8.270883e-002
1.076130e+003;8.185825e-002
1.078058e+003;8.112323e-002
1.079987e+003;8.074170e-002
1.081915e+003;7.983882e-002
1.083844e+003;7.905620e-002
1.085773e+003;7.879703e-002
1.087701e+003;7.852694e-002
1.089630e+003;7.761391e-002
1.091558e+003;7.751499e-002
1.093487e+003;7.760864e-002
1.095415e+003;7.787166e-002
1.097344e+003;7.931580e-002
1.099272e+003;8.086650e-002
1.101201e+003;8.202799e-002
1.103129e+003;8.337692e-002
1.105058e+003;8.501901e-002
1.106987e+003;8.694275e-002
1.108915e+003;8.864851e-002
1.110844e+003;8.967455e-002
1.112772e+003;9.043803e-002
1.114701e+003;9.118413e-002
1.116629e+003;9.164623e-002
1.118558e+003;9.160694e-002
1.120486e+003;9.111793e-002
1.122415e+003;8.970852e-002
1.124344e+003;8.736964e-002
1.126272e+003;8.475953e-002
1.128201e+003;8.215116e-002
1.130129e+003;7.996738e-002
1.132058e+003;7.848566e-002
1.133986e+003;7.778493e-002
1.135915e+003;7.732670e-002
1.137843e+003;7.740078e-002
1.139772e+003;7.808764e-002
1.141700e+003;7.935288e-002
1.143629e+003;8.125581e-002
1.145557e+003;8.392189e-002
1.147486e+003;8.593230e-002
1.149415e+003;8.743961e-002
1.151343e+003;9.020322e-002
1.153272e+003;9.383503e-002
1.155200e+003;9.711035e-002
1.157129e+003;1.009633e-001
1.159057e+003;1.059222e-001
1.160986e+003;1.116705e-001
1.162914e+003;1.177489e-001
1.164843e+003;1.237713e-001
1.166771e+003;1.289665e-001
1.168700e+003;1.317369e-001
1.170629e+003;1.310228e-001
1.172557e+003;1.270763e-001
1.174486e+003;1.214717e-001
1.176414e+003;1.159059e-001
1.178343e+003;1.110756e-001
1.180271e+003;1.076970e-001
1.182200e+003;1.064609e-001
1.184128e+003;1.072937e-001
1.186057e+003;1.096266e-001
1.187986e+003;1.125806e-001
1.189914e+003;1.158271e-001
1.191843e+003;1.199196e-001
1.193771e+003;1.245688e-001
1.195700e+003;1.297438e-001
1.197628e+003;1.345339e-001
1.199557e+003;1.365415e-001
1.201485e+003;1.343923e-001
1.203414e+003;1.299794e-001
1.205343e+003;1.265710e-001
1.207271e+003;1.248830e-001
1.209200e+003;1.239845e-001
1.211128e+003;1.233632e-001
1.213057e+003;1.229051e-001
1.214985e+003;1.217549e-001
1.216914e+003;1.191201e-001
1.218842e+003;1.154949e-001
1.220771e+003;1.131946e-001
1.222699e+003;1.132273e-001
1.224628e+003;1.152383e-001
1.226557e+003;1.184443e-001
1.228485e+003;1.227495e-001
1.230414e+003;1.276348e-001
1.232342e+003;1.322804e-001
1.234271e+003;1.360858e-001
1.236199e+003;1.381356e-001
1.238128e+003;1.383660e-001
1.240056e+003;1.376519e-001
1.241985e+003;1.369947e-001
1.243913e+003;1.370659e-001
1.245842e+003;1.377451e-001
1.247771e+003;1.391790e-001
1.249699e+003;1.412514e-001
1.251628e+003;1.437683e-001
1.253556e+003;1.472538e-001
1.255485e+003;1.506744e-001
1.257413e+003;1.531088e-001
1.259342e+003;1.550553e-001
1.261270e+003;1.559435e-001
1.263199e+003;1.546685e-001
1.265127e+003;1.507338e-001
1.267056e+003;1.448275e-001
1.268985e+003;1.382674e-001
1.270913e+003;1.332000e-001
1.272842e+003;1.305358e-001
1.274770e+003;1.295637e-001
1.276699e+003;1.290495e-001
1.278627e+003;1.280832e-001
1.280556e+003;1.266336e-001
1.282484e+003;1.249462e-001
1.284413e+003;1.233326e-001
1.286342e+003;1.218090e-001
1.288270e+003;1.206484e-001
1.290199e+003;1.202889e-001
1.292127e+003;1.201008e-001
1.294056e+003;1.195475e-001
1.295984e+003;1.187977e-001
1.297913e+003;1.185024e-001
1.299841e+003;1.183514e-001
1.301770e+003;1.175815e-001
1.303698e+003;1.164924e-001
1.305627e+003;1.154373e-001
1.307556e+003;1.144708e-001
1.309484e+003;1.130149e-001
1.311413e+003;1.115934e-001
1.313341e+003;1.108106e-001
1.315270e+003;1.102028e-001
1.317198e+003;1.091895e-001
1.319127e+003;1.080688e-001
1.321055e+003;1.073101e-001
1.322984e+003;1.065966e-001
1.324912e+003;1.061092e-001
1.326841e+003;1.062520e-001
1.328770e+003;1.065756e-001
1.330698e+003;1.069785e-001
1.332627e+003;1.076062e-001
1.334555e+003;1.080644e-001
1.336484e+003;1.083358e-001
1.338412e+003;1.089036e-001
1.340341e+003;1.096734e-001
1.342269e+003;1.104861e-001
1.344198e+003;1.114823e-001
1.346126e+003;1.125950e-001
1.348055e+003;1.137248e-001
1.349984e+003;1.151109e-001
1.351912e+003;1.165496e-001
1.353841e+003;1.178553e-001
1.355769e+003;1.196441e-001
1.357698e+003;1.218875e-001
1.359626e+003;1.239714e-001
1.361555e+003;1.258685e-001
1.363483e+003;1.276588e-001
1.365412e+003;1.293636e-001
1.367341e+003;1.310817e-001
1.369269e+003;1.325402e-001
1.371198e+003;1.330699e-001
1.373126e+003;1.323665e-001
1.375055e+003;1.306417e-001
1.376983e+003;1.281093e-001
1.378912e+003;1.248881e-001
1.380840e+003;1.214361e-001
1.382769e+003;1.181322e-001
1.384698e+003;1.147935e-001
1.386626e+003;1.114442e-001
1.388555e+003;1.087006e-001
1.390483e+003;1.067566e-001
1.392412e+003;1.054518e-001
1.394340e+003;1.046922e-001
1.396269e+003;1.045526e-001
1.398197e+003;1.050476e-001
1.400126e+003;1.062829e-001
1.402054e+003;1.085050e-001
1.403983e+003;1.117117e-001
1.405911e+003;1.163941e-001
1.407840e+003;1.224007e-001
1.409769e+003;1.291434e-001
1.411697e+003;1.362445e-001
1.413626e+003;1.427469e-001
1.415554e+003;1.468764e-001
1.417483e+003;1.480841e-001
1.419411e+003;1.464251e-001
1.421340e+003;1.432730e-001
1.423268e+003;1.401056e-001
1.425197e+003;1.378628e-001
1.427125e+003;1.375654e-001
1.429054e+003;1.393039e-001
1.430983e+003;1.419142e-001
1.432911e+003;1.441651e-001
1.434840e+003;1.453295e-001
1.436768e+003;1.452075e-001
1.438697e+003;1.446449e-001
1.440625e+003;1.439065e-001
1.442554e+003;1.430293e-001
1.444482e+003;1.425175e-001
1.446411e+003;1.424688e-001
1.448340e+003;1.433245e-001
1.450268e+003;1.451901e-001
1.452197e+003;1.471589e-001
1.454125e+003;1.492533e-001
1.456054e+003;1.521047e-001
1.457982e+003;1.570636e-001
1.459911e+003;1.634704e-001
1.461839e+003;1.677393e-001
1.463768e+003;1.667610e-001
1.465697e+003;1.608231e-001
1.467625e+003;1.531957e-001
1.469554e+003;1.471810e-001
1.471482e+003;1.442706e-001
1.473411e+003;1.443470e-001
1.475339e+003;1.452263e-001
1.477268e+003;1.445479e-001
1.479196e+003;1.415506e-001
1.481125e+003;1.363149e-001
1.483053e+003;1.300341e-001
1.484982e+003;1.244278e-001
1.486911e+003;1.209442e-001
1.488839e+003;1.198463e-001
1.490768e+003;1.210208e-001
1.492696e+003;1.237429e-001
1.494625e+003;1.267984e-001
1.496553e+003;1.304313e-001
1.498482e+003;1.351074e-001
1.500410e+003;1.404748e-001
1.502339e+003;1.460724e-001
1.504267e+003;1.520189e-001
1.506196e+003;1.584083e-001
1.508125e+003;1.653011e-001
1.510053e+003;1.725975e-001
1.511982e+003;1.804772e-001
1.513910e+003;1.887711e-001
1.515839e+003;1.971586e-001
1.517767e+003;2.060074e-001
1.519696e+003;2.149966e-001
1.521624e+003;2.247421e-001
1.523553e+003;2.351073e-001
1.525481e+003;2.449780e-001
1.527410e+003;2.549883e-001
1.529339e+003;2.647864e-001
1.531267e+003;2.736062e-001
1.533196e+003;2.810488e-001
1.535124e+003;2.865102e-001
1.537053e+003;2.893812e-001
1.538981e+003;2.891340e-001
1.540910e+003;2.859575e-001
1.542838e+003;2.796876e-001
1.544767e+003;2.706852e-001
1.546695e+003;2.599208e-001
1.548624e+003;2.481024e-001
1.550553e+003;2.361854e-001
1.552481e+003;2.248919e-001
1.554410e+003;2.143524e-001
1.556338e+003;2.044506e-001
1.558267e+003;1.949167e-001
1.560195e+003;1.865146e-001
1.562124e+003;1.788402e-001
1.564052e+003;1.709439e-001
1.565981e+003;1.628787e-001
1.567910e+003;1.547097e-001
1.569838e+003;1.464951e-001
1.571767e+003;1.391151e-001
1.573695e+003;1.322493e-001
1.575624e+003;1.255970e-001
1.577552e+003;1.198372e-001
1.579481e+003;1.155618e-001
1.581409e+003;1.121594e-001
1.583338e+003;1.094452e-001
1.585266e+003;1.076906e-001
1.587195e+003;1.068589e-001
1.589124e+003;1.065954e-001
1.591052e+003;1.072049e-001
1.592981e+003;1.088029e-001
1.594909e+003;1.113171e-001
1.596838e+003;1.148681e-001
1.598766e+003;1.192253e-001
1.600695e+003;1.242601e-001
1.602623e+003;1.305081e-001
1.604552e+003;1.379342e-001
1.606480e+003;1.461424e-001
1.608409e+003;1.549158e-001
1.610338e+003;1.641967e-001
1.612266e+003;1.745860e-001
1.614195e+003;1.861584e-001
1.616123e+003;1.993010e-001
1.618052e+003;2.151672e-001
1.619980e+003;2.323128e-001
1.621909e+003;2.501678e-001
1.623837e+003;2.688377e-001
1.625766e+003;2.876937e-001
1.627694e+003;3.073645e-001
1.629623e+003;3.281691e-001
1.631552e+003;3.482771e-001
1.633480e+003;3.648562e-001
1.635409e+003;3.741519e-001
1.637337e+003;3.736658e-001
1.639266e+003;3.627134e-001
1.641194e+003;3.439664e-001
1.643123e+003;3.207743e-001
1.645051e+003;2.955657e-001
1.646980e+003;2.714685e-001
1.648909e+003;2.504908e-001
1.650837e+003;2.317778e-001
1.652766e+003;2.148406e-001
1.654694e+003;2.014306e-001
1.656623e+003;1.903065e-001
1.658551e+003;1.796460e-001
1.660480e+003;1.694266e-001
1.662408e+003;1.594972e-001
1.664337e+003;1.498554e-001
1.666266e+003;1.401265e-001
1.668194e+003;1.306785e-001
1.670123e+003;1.220307e-001
1.672051e+003;1.144042e-001
1.673980e+003;1.072238e-001
1.675908e+003;1.000319e-001
1.677837e+003;9.294972e-002
1.679765e+003;8.578525e-002
1.681694e+003;7.881741e-002
1.683622e+003;7.204072e-002
1.685551e+003;6.636292e-002
1.687479e+003;6.208048e-002
1.689408e+003;5.824160e-002
1.691337e+003;5.521298e-002
1.693265e+003;5.300596e-002
1.695194e+003;5.101121e-002
1.697122e+003;4.976690e-002
1.699051e+003;4.880085e-002
1.700979e+003;4.812395e-002
1.702908e+003;4.826368e-002
1.704836e+003;4.794490e-002
1.706765e+003;4.743732e-002
1.708693e+003;4.739955e-002
1.710622e+003;4.745654e-002
1.712551e+003;4.729649e-002
1.714479e+003;4.738739e-002
1.716408e+003;4.728581e-002
1.718336e+003;4.723468e-002
1.720265e+003;4.779211e-002
1.722193e+003;4.832682e-002
1.724122e+003;4.842304e-002
1.726050e+003;4.823861e-002
1.727979e+003;4.780251e-002
1.729908e+003;4.735605e-002
1.731836e+003;4.682229e-002
1.733765e+003;4.621819e-002
1.735693e+003;4.591642e-002
1.737622e+003;4.545825e-002
1.739550e+003;4.478470e-002
1.741479e+003;4.428662e-002
1.743407e+003;4.382090e-002
1.745336e+003;4.341074e-002
1.747265e+003;4.296376e-002
1.749193e+003;4.252952e-002
1.751122e+003;4.227058e-002
1.753050e+003;4.230243e-002
1.754979e+003;4.226748e-002
1.756907e+003;4.190921e-002
1.758836e+003;4.132185e-002
1.760764e+003;4.082722e-002
1.762693e+003;4.053157e-002
1.764621e+003;4.021013e-002
1.766550e+003;4.002479e-002
1.768479e+003;3.995108e-002
1.770407e+003;3.949495e-002
1.772336e+003;3.887131e-002
1.774264e+003;3.870038e-002
1.776193e+003;3.855544e-002
1.778121e+003;3.822985e-002
1.780050e+003;3.791825e-002
1.781978e+003;3.765485e-002
1.783907e+003;3.752150e-002
1.785835e+003;3.752186e-002
1.787764e+003;3.730755e-002
1.789693e+003;3.694823e-002
1.791621e+003;3.657031e-002
1.793550e+003;3.653809e-002
1.795478e+003;3.675984e-002
1.797407e+003;3.671026e-002
1.799335e+003;3.642154e-002
1.801264e+003;3.609647e-002
1.803192e+003;3.600863e-002
1.805121e+003;3.598958e-002
1.807049e+003;3.599642e-002
1.808978e+003;3.607559e-002
1.810907e+003;3.613053e-002
1.812835e+003;3.611473e-002
1.814764e+003;3.601892e-002
1.816692e+003;3.573344e-002
1.818621e+003;3.559858e-002
1.820549e+003;3.568591e-002
1.822478e+003;3.560509e-002
1.824406e+003;3.546388e-002
1.826335e+003;3.543397e-002
1.828264e+003;3.538188e-002
1.830192e+003;3.544332e-002
1.832121e+003;3.540672e-002
1.834049e+003;3.530378e-002
1.835978e+003;3.533508e-002
1.837906e+003;3.541305e-002
1.839835e+003;3.525587e-002
1.841763e+003;3.507098e-002
1.843692e+003;3.497659e-002
1.845620e+003;3.493953e-002
1.847549e+003;3.479617e-002
1.849478e+003;3.465206e-002
1.851406e+003;3.443680e-002
1.853335e+003;3.444182e-002
1.855263e+003;3.453254e-002
1.857192e+003;3.452827e-002
1.859120e+003;3.454284e-002
1.861049e+003;3.457857e-002
1.862977e+003;3.450327e-002
1.864906e+003;3.443421e-002
1.866834e+003;3.426861e-002
1.868763e+003;3.424932e-002
1.870692e+003;3.422006e-002
1.872620e+003;3.409188e-002
1.874549e+003;3.426251e-002
1.876477e+003;3.441517e-002
1.878406e+003;3.449075e-002
1.880334e+003;3.450201e-002
1.882263e+003;3.431145e-002
1.884191e+003;3.423082e-002
1.886120e+003;3.432508e-002
1.888048e+003;3.437152e-002
1.889977e+003;3.424824e-002
1.891906e+003;3.406188e-002
1.893834e+003;3.414618e-002
1.895763e+003;3.447729e-002
1.897691e+003;3.461801e-002
1.899620e+003;3.454944e-002
1.901548e+003;3.458345e-002
1.903477e+003;3.485996e-002
1.905405e+003;3.496941e-002
1.907334e+003;3.480521e-002
1.909262e+003;3.479107e-002
1.911191e+003;3.485587e-002
1.913120e+003;3.466211e-002
1.915048e+003;3.449369e-002
1.916977e+003;3.426326e-002
1.918905e+003;3.421827e-002
1.920834e+003;3.429693e-002
1.922762e+003;3.425943e-002
1.924691e+003;3.430242e-002
1.926619e+003;3.430145e-002
1.928548e+003;3.429392e-002
1.930477e+003;3.427750e-002
1.932405e+003;3.415586e-002
1.934334e+003;3.419508e-002
1.936262e+003;3.416546e-002
1.938191e+003;3.415751e-002
1.940119e+003;3.429274e-002
1.942048e+003;3.419321e-002
1.943976e+003;3.408116e-002
1.945905e+003;3.415912e-002
1.947833e+003;3.436252e-002
1.949762e+003;3.438354e-002
1.951691e+003;3.438465e-002
1.953619e+003;3.447708e-002
1.955548e+003;3.445868e-002
1.957476e+003;3.451378e-002
1.959405e+003;3.469398e-002
1.961333e+003;3.468009e-002
1.963262e+003;3.459590e-002
1.965190e+003;3.465195e-002
1.967119e+003;3.466605e-002
1.969047e+003;3.465052e-002
1.970976e+003;3.464926e-002
1.972905e+003;3.463584e-002
1.974833e+003;3.475934e-002
1.976762e+003;3.489016e-002
1.978690e+003;3.499204e-002
1.980619e+003;3.494790e-002
1.982547e+003;3.491702e-002
1.984476e+003;3.506954e-002
1.986404e+003;3.505791e-002
1.988333e+003;3.500209e-002
1.990261e+003;3.475507e-002
1.992190e+003;3.469627e-002
1.994119e+003;3.487921e-002
1.996047e+003;3.502041e-002
1.997976e+003;3.494503e-002
1.999904e+003;3.489824e-002
2.001833e+003;3.517161e-002
2.003761e+003;3.523449e-002
2.005690e+003;3.506947e-002
2.007618e+003;3.499002e-002
2.009547e+003;3.484420e-002
2.011476e+003;3.487784e-002
2.013404e+003;3.513449e-002
2.015333e+003;3.525267e-002
2.017261e+003;3.544651e-002
2.019190e+003;3.568793e-002
2.021118e+003;3.569933e-002
2.023047e+003;3.570095e-002
2.024975e+003;3.570526e-002
2.026904e+003;3.582594e-002
2.028833e+003;3.592015e-002
2.030761e+003;3.593397e-002
2.032690e+003;3.605615e-002
2.034618e+003;3.630932e-002
2.036547e+003;3.647441e-002
2.038475e+003;3.658217e-002
2.040404e+003;3.663437e-002
2.042332e+003;3.652101e-002
2.044261e+003;3.642371e-002
2.046189e+003;3.637683e-002
2.048118e+003;3.633234e-002
2.050047e+003;3.631544e-002
2.051975e+003;3.623555e-002
2.053904e+003;3.617958e-002
2.055832e+003;3.639776e-002
2.057761e+003;3.666570e-002
2.059689e+003;3.680827e-002
2.061618e+003;3.698409e-002
2.063546e+003;3.687781e-002
2.065475e+003;3.670875e-002
2.067404e+003;3.686793e-002
2.069332e+003;3.697911e-002
2.071260e+003;3.698045e-002
2.073189e+003;3.700548e-002
2.075118e+003;3.695238e-002
2.077046e+003;3.701368e-002
2.078975e+003;3.701613e-002
2.080903e+003;3.692092e-002
2.082832e+003;3.676767e-002
2.084760e+003;3.654303e-002
2.086689e+003;3.649758e-002
2.088617e+003;3.663001e-002
2.090546e+003;3.657662e-002
2.092475e+003;3.622827e-002
2.094403e+003;3.622327e-002
2.096332e+003;3.654735e-002
2.098260e+003;3.659569e-002
2.100189e+003;3.653175e-002
2.102117e+003;3.644082e-002
2.104046e+003;3.646940e-002
2.105974e+003;3.644277e-002
2.107903e+003;3.641437e-002
2.109832e+003;3.651391e-002
2.111760e+003;3.671516e-002
2.113688e+003;3.676010e-002
2.115617e+003;3.678613e-002
2.117546e+003;3.706672e-002
2.119474e+003;3.721033e-002
2.121403e+003;3.721885e-002
2.123331e+003;3.699733e-002
2.125260e+003;3.678696e-002
2.127188e+003;3.686696e-002
2.129117e+003;3.705441e-002
2.131045e+003;3.713088e-002
2.132974e+003;3.731456e-002
2.134903e+003;3.720102e-002
2.136831e+003;3.706820e-002
2.138760e+003;3.712330e-002
2.140688e+003;3.721748e-002
2.142617e+003;3.722405e-002
2.144545e+003;3.729751e-002
2.146474e+003;3.744402e-002
2.148402e+003;3.732492e-002
2.150331e+003;3.719495e-002
2.152260e+003;3.744528e-002
2.154188e+003;3.771434e-002
2.156117e+003;3.764878e-002
2.158045e+003;3.746446e-002
2.159974e+003;3.739071e-002
2.161902e+003;3.739873e-002
2.163831e+003;3.760513e-002
2.165759e+003;3.813655e-002
2.167688e+003;3.846876e-002
2.169616e+003;3.821473e-002
2.171545e+003;3.808312e-002
2.173474e+003;3.815518e-002
2.175402e+003;3.820724e-002
2.177331e+003;3.840100e-002
2.179259e+003;3.855255e-002
2.181188e+003;3.857489e-002
2.183116e+003;3.847745e-002
2.185045e+003;3.846341e-002
2.186973e+003;3.838898e-002
2.188902e+003;3.835651e-002
2.190831e+003;3.858513e-002
2.192759e+003;3.868636e-002
2.194688e+003;3.849610e-002
2.196616e+003;3.821480e-002
2.198545e+003;3.809459e-002
2.200473e+003;3.820449e-002
2.202402e+003;3.835047e-002
2.204330e+003;3.826289e-002
2.206259e+003;3.818651e-002
2.208188e+003;3.817186e-002
2.210116e+003;3.798160e-002
2.212044e+003;3.775200e-002
2.213973e+003;3.774101e-002
2.215902e+003;3.769973e-002
2.217830e+003;3.753819e-002
2.219759e+003;3.746099e-002
2.221687e+003;3.752879e-002
2.223616e+003;3.757645e-002
2.225544e+003;3.741664e-002
2.227473e+003;3.733102e-002
2.229401e+003;3.718943e-002
2.231330e+003;3.697258e-002
2.233259e+003;3.721964e-002
2.235187e+003;3.733730e-002
2.237116e+003;3.731770e-002
2.239044e+003;3.733535e-002
2.240973e+003;3.715225e-002
2.242901e+003;3.700758e-002
2.244830e+003;3.700624e-002
2.246758e+003;3.698575e-002
2.248687e+003;3.705398e-002
2.250615e+003;3.714380e-002
2.252544e+003;3.717463e-002
2.254473e+003;3.720701e-002
2.256401e+003;3.728835e-002
2.258330e+003;3.735659e-002
2.260258e+003;3.746916e-002
2.262187e+003;3.771401e-002
2.264115e+003;3.779616e-002
2.266044e+003;3.775004e-002
2.267972e+003;3.763176e-002
2.269901e+003;3.758100e-002
2.271830e+003;3.769977e-002
2.273758e+003;3.764683e-002
2.275687e+003;3.758306e-002
2.277615e+003;3.761749e-002
2.279544e+003;3.749997e-002
2.281472e+003;3.761359e-002
2.283401e+003;3.775355e-002
2.285329e+003;3.801831e-002
2.287258e+003;3.816929e-002
2.289187e+003;3.797600e-002
2.291115e+003;3.776295e-002
2.293043e+003;3.785425e-002
2.294972e+003;3.808207e-002
2.296901e+003;3.819711e-002
2.298829e+003;3.812877e-002
2.300758e+003;3.809828e-002
2.302686e+003;3.817978e-002
2.304615e+003;3.817276e-002
2.306543e+003;3.812128e-002
2.308472e+003;3.823293e-002
2.310400e+003;3.832054e-002
2.312329e+003;3.825283e-002
2.314258e+003;3.806073e-002
2.316186e+003;3.796287e-002
2.318115e+003;3.810906e-002
2.320043e+003;3.814009e-002
2.321972e+003;3.819465e-002
2.323900e+003;3.828221e-002
2.325829e+003;3.822085e-002
2.327757e+003;3.805827e-002
2.329686e+003;3.794262e-002
2.331615e+003;3.805379e-002
2.333543e+003;3.815637e-002
2.335472e+003;3.790653e-002
2.337400e+003;3.773992e-002
2.339329e+003;3.781991e-002
2.341257e+003;3.790657e-002
2.343186e+003;3.773960e-002
2.345114e+003;3.763231e-002
2.347043e+003;3.774440e-002
2.348971e+003;3.800229e-002
2.350900e+003;3.812928e-002
2.352829e+003;3.807719e-002
2.354757e+003;3.777943e-002
2.356686e+003;3.758729e-002
2.358614e+003;3.758552e-002
2.360543e+003;3.757370e-002
2.362471e+003;3.751817e-002
2.364400e+003;3.758779e-002
2.366328e+003;3.764036e-002
2.368257e+003;3.769135e-002
2.370186e+003;3.797158e-002
2.372114e+003;3.826694e-002
2.374042e+003;3.818861e-002
2.375971e+003;3.807892e-002
2.377900e+003;3.818955e-002
2.379828e+003;3.839010e-002
2.381757e+003;3.845493e-002
2.383685e+003;3.834956e-002
2.385614e+003;3.853531e-002
2.387542e+003;3.873099e-002
2.389471e+003;3.859256e-002
2.391399e+003;3.835810e-002
2.393328e+003;3.840530e-002
2.395257e+003;3.851594e-002
2.397185e+003;3.840816e-002
2.399114e+003;3.839126e-002
2.401042e+003;3.841692e-002
2.402971e+003;3.845323e-002
2.404899e+003;3.863004e-002
2.406828e+003;3.867676e-002
2.408756e+003;3.849349e-002
2.410685e+003;3.847955e-002
2.412614e+003;3.871346e-002
2.414542e+003;3.877373e-002
2.416471e+003;3.892817e-002
2.418399e+003;3.919092e-002
2.420328e+003;3.896593e-002
2.422256e+003;3.876580e-002
2.424185e+003;3.875968e-002
2.426113e+003;3.886069e-002
2.428042e+003;3.889889e-002
2.429970e+003;3.906659e-002
2.431899e+003;3.934677e-002
2.433828e+003;3.943069e-002
2.435756e+003;3.920035e-002
2.437685e+003;3.907921e-002
2.439613e+003;3.915582e-002
2.441542e+003;3.962750e-002
2.443470e+003;3.993975e-002
2.445399e+003;3.992129e-002
2.447327e+003;3.995014e-002
2.449256e+003;3.997531e-002
2.451185e+003;4.010441e-002
2.453113e+003;4.035570e-002
2.455042e+003;4.048567e-002
2.456970e+003;4.027487e-002
2.458899e+003;4.035410e-002
2.460827e+003;4.047072e-002
2.462756e+003;4.047512e-002
2.464684e+003;4.060993e-002
2.466613e+003;4.068219e-002
2.468542e+003;4.082518e-002
2.470470e+003;4.082256e-002
2.472398e+003;4.093166e-002
2.474327e+003;4.109015e-002
2.476256e+003;4.119975e-002
2.478184e+003;4.118554e-002
2.480113e+003;4.091572e-002
2.482041e+003;4.087567e-002
2.483970e+003;4.129554e-002
2.485898e+003;4.148572e-002
2.487827e+003;4.121884e-002
2.489755e+003;4.097313e-002
2.491684e+003;4.097842e-002
2.493613e+003;4.088801e-002
2.495541e+003;4.097481e-002
2.497470e+003;4.119797e-002
2.499398e+003;4.129394e-002
2.501327e+003;4.132265e-002
2.503255e+003;4.136387e-002
2.505184e+003;4.135461e-002
2.507112e+003;4.132866e-002
2.509041e+003;4.135330e-002
2.510969e+003;4.160218e-002
2.512898e+003;4.177308e-002
2.514827e+003;4.177644e-002
2.516755e+003;4.167734e-002
2.518684e+003;4.171476e-002
2.520612e+003;4.208805e-002
2.522541e+003;4.244413e-002
2.524469e+003;4.250186e-002
2.526398e+003;4.249254e-002
2.528326e+003;4.241410e-002
2.530255e+003;4.275238e-002
2.532184e+003;4.333912e-002
2.534112e+003;4.361222e-002
2.536041e+003;4.348460e-002
2.537969e+003;4.338148e-002
2.539898e+003;4.347592e-002
2.541826e+003;4.353503e-002
2.543755e+003;4.359353e-002
2.545683e+003;4.373631e-002
2.547612e+003;4.376248e-002
2.549541e+003;4.389014e-002
2.551469e+003;4.406429e-002
2.553397e+003;4.401604e-002
2.555326e+003;4.388380e-002
2.557255e+003;4.378388e-002
2.559183e+003;4.382599e-002
2.561112e+003;4.420995e-002
2.563040e+003;4.435392e-002
2.564969e+003;4.420914e-002
2.566897e+003;4.435616e-002
2.568826e+003;4.436614e-002
2.570754e+003;4.422865e-002
2.572683e+003;4.458727e-002
2.574612e+003;4.496550e-002
2.576540e+003;4.516847e-002
2.578469e+003;4.523870e-002
2.580397e+003;4.517630e-002
2.582326e+003;4.527863e-002
2.584254e+003;4.533432e-002
2.586183e+003;4.521462e-002
2.588111e+003;4.522605e-002
2.590040e+003;4.536610e-002
2.591969e+003;4.525525e-002
2.593897e+003;4.526165e-002
2.595826e+003;4.545295e-002
2.597754e+003;4.561401e-002
2.599683e+003;4.589822e-002
2.601611e+003;4.586361e-002
2.603540e+003;4.573905e-002
2.605468e+003;4.577800e-002
2.607397e+003;4.572178e-002
2.609325e+003;4.597255e-002
2.611254e+003;4.620212e-002
2.613183e+003;4.612289e-002
2.615111e+003;4.624107e-002
2.617040e+003;4.655049e-002
2.618968e+003;4.660902e-002
2.620897e+003;4.657852e-002
2.622825e+003;4.660803e-002
2.624754e+003;4.666196e-002
2.626682e+003;4.662393e-002
2.628611e+003;4.652533e-002
2.630540e+003;4.663654e-002
2.632468e+003;4.697163e-002
2.634396e+003;4.714859e-002
2.636325e+003;4.695458e-002
2.638254e+003;4.704899e-002
2.640182e+003;4.729860e-002
2.642111e+003;4.733359e-002
2.644039e+003;4.737176e-002
2.645968e+003;4.724063e-002
2.647896e+003;4.724008e-002
2.649825e+003;4.743214e-002
2.651753e+003;4.757904e-002
2.653682e+003;4.767099e-002
2.655611e+003;4.774943e-002
2.657539e+003;4.775350e-002
2.659468e+003;4.784479e-002
2.661396e+003;4.781878e-002
2.663325e+003;4.774532e-002
2.665253e+003;4.805744e-002
2.667182e+003;4.851580e-002
2.669110e+003;4.845253e-002
2.671039e+003;4.834022e-002
2.672968e+003;4.856382e-002
2.674896e+003;4.886473e-002
2.676825e+003;4.896750e-002
2.678753e+003;4.881457e-002
2.680682e+003;4.882425e-002
2.682610e+003;4.897910e-002
2.684539e+003;4.896831e-002
2.686467e+003;4.905044e-002
2.688396e+003;4.915398e-002
2.690324e+003;4.922786e-002
2.692253e+003;4.960266e-002
2.694182e+003;5.006701e-002
2.696110e+003;5.035951e-002
2.698039e+003;5.050543e-002
2.699967e+003;5.055557e-002
2.701896e+003;5.068926e-002
2.703824e+003;5.088472e-002
2.705753e+003;5.094086e-002
2.707681e+003;5.099884e-002
2.709610e+003;5.109245e-002
2.711539e+003;5.131125e-002
2.713467e+003;5.150278e-002
2.715396e+003;5.173999e-002
2.717324e+003;5.212963e-002
2.719253e+003;5.250937e-002
2.721181e+003;5.282553e-002
2.723110e+003;5.285651e-002
2.725038e+003;5.313581e-002
2.726967e+003;5.335298e-002
2.728896e+003;5.344684e-002
2.730824e+003;5.365007e-002
2.732752e+003;5.411404e-002
2.734681e+003;5.439216e-002
2.736610e+003;5.437965e-002
2.738538e+003;5.461063e-002
2.740467e+003;5.493264e-002
2.742395e+003;5.508180e-002
2.744324e+003;5.518465e-002
2.746252e+003;5.527984e-002
2.748181e+003;5.531654e-002
2.750109e+003;5.538993e-002
2.752038e+003;5.526505e-002
2.753967e+003;5.523077e-002
2.755895e+003;5.517152e-002
2.757824e+003;5.530585e-002
2.759752e+003;5.565610e-002
2.761681e+003;5.587762e-002
2.763609e+003;5.601477e-002
2.765538e+003;5.610834e-002
2.767466e+003;5.632120e-002
2.769395e+003;5.648241e-002
2.771323e+003;5.666192e-002
2.773252e+003;5.684483e-002
2.775181e+003;5.722902e-002
2.777109e+003;5.763727e-002
2.779038e+003;5.792307e-002
2.780966e+003;5.795491e-002
2.782895e+003;5.816318e-002
2.784823e+003;5.861315e-002
2.786752e+003;5.899610e-002
2.788680e+003;5.924425e-002
2.790609e+003;5.932970e-002
2.792538e+003;5.958048e-002
2.794466e+003;5.999414e-002
2.796395e+003;6.022040e-002
2.798323e+003;6.062397e-002
2.800252e+003;6.096901e-002
2.802180e+003;6.118864e-002
2.804109e+003;6.172647e-002
2.806037e+003;6.224676e-002
2.807966e+003;6.258666e-002
2.809895e+003;6.302074e-002
2.811823e+003;6.361715e-002
2.813751e+003;6.396032e-002
2.815680e+003;6.433529e-002
2.817609e+003;6.506813e-002
2.819537e+003;6.566262e-002
2.821466e+003;6.604660e-002
2.823394e+003;6.677032e-002
2.825323e+003;6.754056e-002
2.827251e+003;6.794240e-002
2.829180e+003;6.841232e-002
2.831108e+003;6.930751e-002
2.833037e+003;7.047261e-002
2.834966e+003;7.171921e-002
2.836894e+003;7.323161e-002
2.838823e+003;7.549227e-002
2.840751e+003;7.813936e-002
2.842680e+003;8.129988e-002
2.844608e+003;8.544022e-002
2.846537e+003;8.982329e-002
2.848465e+003;9.442031e-002
2.850394e+003;9.956656e-002
2.852323e+003;1.043793e-001
2.854251e+003;1.081394e-001
2.856180e+003;1.109760e-001
2.858108e+003;1.129045e-001
2.860037e+003;1.140588e-001
2.861965e+003;1.146291e-001
2.863894e+003;1.141415e-001
2.865822e+003;1.127482e-001
2.867751e+003;1.109210e-001
2.869679e+003;1.088063e-001
2.871608e+003;1.067012e-001
2.873536e+003;1.043312e-001
2.875465e+003;1.016430e-001
2.877394e+003;9.872948e-002
2.879322e+003;9.607521e-002
2.881251e+003;9.397389e-002
2.883179e+003;9.243778e-002
2.885108e+003;9.151191e-002
2.887036e+003;9.144704e-002
2.888965e+003;9.244389e-002
2.890893e+003;9.381574e-002
2.892822e+003;9.557527e-002
2.894750e+003;9.768555e-002
2.896679e+003;9.966075e-002
2.898608e+003;1.011697e-001
2.900536e+003;1.025733e-001
2.902465e+003;1.037806e-001
2.904393e+003;1.047451e-001
2.906322e+003;1.057101e-001
2.908250e+003;1.073169e-001
2.910179e+003;1.092604e-001
2.912107e+003;1.112428e-001
2.914036e+003;1.134834e-001
2.915965e+003;1.160226e-001
2.917893e+003;1.190094e-001
2.919822e+003;1.229847e-001
2.921750e+003;1.268729e-001
2.923679e+003;1.302356e-001
2.925607e+003;1.335073e-001
2.927536e+003;1.365172e-001
2.929464e+003;1.388560e-001
2.931393e+003;1.407886e-001
2.933322e+003;1.421047e-001
2.935250e+003;1.421704e-001
2.937178e+003;1.409560e-001
2.939107e+003;1.387401e-001
2.941036e+003;1.360550e-001
2.942964e+003;1.327086e-001
2.944893e+003;1.286207e-001
2.946821e+003;1.239798e-001
2.948750e+003;1.181317e-001
2.950678e+003;1.114387e-001
2.952607e+003;1.048769e-001
2.954535e+003;9.889496e-002
2.956464e+003;9.360598e-002
2.958393e+003;8.886268e-002
2.960321e+003;8.471458e-002
2.962250e+003;8.135822e-002
2.964178e+003;7.852599e-002
2.966107e+003;7.575558e-002
2.968035e+003;7.308146e-002
2.969964e+003;7.070080e-002
2.971892e+003;6.841457e-002
2.973821e+003;6.630243e-002
2.975750e+003;6.419054e-002
2.977678e+003;6.235476e-002
2.979607e+003;6.081957e-002
2.981535e+003;5.962213e-002
2.983464e+003;5.865195e-002
2.985392e+003;5.756183e-002
2.987321e+003;5.717054e-002
2.989249e+003;5.678206e-002
2.991178e+003;5.611958e-002
2.993106e+003;5.563704e-002
2.995035e+003;5.524236e-002
2.996964e+003;5.506156e-002
2.998892e+003;5.493603e-002
3.000821e+003;5.479812e-002
3.002749e+003;5.496096e-002
3.004678e+003;5.511452e-002
3.006606e+003;5.519330e-002
3.008535e+003;5.527623e-002
3.010463e+003;5.520165e-002
3.012392e+003;5.518845e-002
3.014321e+003;5.546258e-002
3.016249e+003;5.557954e-002
3.018177e+003;5.570194e-002
3.020106e+003;5.609108e-002
3.022035e+003;5.667095e-002
3.023963e+003;5.722460e-002
3.025892e+003;5.741750e-002
3.027820e+003;5.766243e-002
3.029749e+003;5.816447e-002
3.031677e+003;5.859108e-002
3.033606e+003;5.900874e-002
3.035534e+003;5.939991e-002
3.037463e+003;5.984717e-002
3.039392e+003;6.055498e-002
3.041320e+003;6.153562e-002
3.043249e+003;6.242144e-002
3.045177e+003;6.304745e-002
3.047106e+003;6.391613e-002
3.049034e+003;6.483591e-002
3.050963e+003;6.560169e-002
3.052891e+003;6.658553e-002
3.054820e+003;6.731360e-002
3.056749e+003;6.794395e-002
3.058677e+003;6.860366e-002
3.060606e+003;6.889063e-002
3.062534e+003;6.916521e-002
3.064463e+003;6.983429e-002
3.066391e+003;7.056412e-002
3.068320e+003;7.091890e-002
3.070248e+003;7.080223e-002
3.072177e+003;7.059729e-002
3.074105e+003;7.036743e-002
3.076034e+003;7.031519e-002
3.077963e+003;7.047682e-002
3.079891e+003;7.047853e-002
3.081820e+003;7.027452e-002
3.083748e+003;7.007103e-002
3.085677e+003;7.005242e-002
3.087605e+003;6.970033e-002
3.089534e+003;6.907041e-002
3.091462e+003;6.857441e-002
3.093391e+003;6.818482e-002
3.095320e+003;6.771398e-002
3.097248e+003;6.700941e-002
3.099177e+003;6.634038e-002
3.101105e+003;6.589394e-002
3.103034e+003;6.520037e-002
3.104962e+003;6.444540e-002
3.106891e+003;6.382923e-002
3.108819e+003;6.317328e-002
3.110748e+003;6.254441e-002
3.112677e+003;6.189796e-002
3.114605e+003;6.161190e-002
3.116533e+003;6.135969e-002
3.118462e+003;6.106163e-002
3.120391e+003;6.062515e-002
3.122319e+003;6.025271e-002
3.124248e+003;5.999905e-002
3.126176e+003;5.975564e-002
3.128105e+003;5.992784e-002
3.130033e+003;5.976412e-002
3.131962e+003;5.927600e-002
3.133890e+003;5.907297e-002
3.135819e+003;5.926396e-002
3.137748e+003;5.950356e-002
3.139676e+003;5.931064e-002
3.141605e+003;5.907403e-002
3.143533e+003;5.889428e-002
3.145462e+003;5.913056e-002
3.147390e+003;5.963714e-002
3.149319e+003;5.997965e-002
3.151247e+003;6.040017e-002
3.153176e+003;6.077265e-002
3.155104e+003;6.084427e-002
3.157033e+003;6.125327e-002
3.158962e+003;6.188401e-002
3.160890e+003;6.213347e-002
3.162819e+003;6.231399e-002
3.164747e+003;6.246318e-002
3.166676e+003;6.250098e-002
3.168604e+003;6.294988e-002
3.170533e+003;6.422411e-002
3.172461e+003;6.524456e-002
3.174390e+003;6.553399e-002
3.176319e+003;6.606188e-002
3.178247e+003;6.635308e-002
3.180176e+003;6.660940e-002
3.182104e+003;6.750619e-002
3.184033e+003;6.846143e-002
3.185961e+003;6.897568e-002
3.187890e+003;6.938028e-002
3.189818e+003;6.966793e-002
3.191747e+003;7.028118e-002
3.193676e+003;7.104040e-002
3.195604e+003;7.132012e-002
3.197532e+003;7.176374e-002
3.199461e+003;7.214063e-002
3.201390e+003;7.255696e-002
3.203318e+003;7.290205e-002
3.205247e+003;7.284331e-002
3.207175e+003;7.310663e-002
3.209104e+003;7.379093e-002
3.211032e+003;7.444216e-002
3.212961e+003;7.475058e-002
3.214889e+003;7.514744e-002
3.216818e+003;7.566889e-002
3.218747e+003;7.656708e-002
3.220675e+003;7.747226e-002
3.222604e+003;7.804857e-002
3.224532e+003;7.879290e-002
3.226461e+003;7.977137e-002
3.228389e+003;8.073201e-002
3.230318e+003;8.127131e-002
3.232246e+003;8.180965e-002
3.234175e+003;8.306016e-002
3.236104e+003;8.474201e-002
3.238032e+003;8.649117e-002
3.239961e+003;8.786326e-002
3.241889e+003;8.932637e-002
3.243818e+003;9.104486e-002
3.245746e+003;9.285365e-002
3.247675e+003;9.497879e-002
3.249603e+003;9.690082e-002
3.251532e+003;9.865932e-002
3.253460e+003;1.002727e-001
3.255389e+003;1.018107e-001
3.257318e+003;1.042795e-001
3.259246e+003;1.070008e-001
3.261175e+003;1.092171e-001
3.263103e+003;1.117782e-001
3.265032e+003;1.145153e-001
3.266960e+003;1.168885e-001
3.268889e+003;1.190707e-001
3.270817e+003;1.213109e-001
3.272746e+003;1.239585e-001
3.274675e+003;1.266591e-001
3.276603e+003;1.291044e-001
3.278531e+003;1.319755e-001
3.280460e+003;1.347224e-001
3.282389e+003;1.372899e-001
3.284317e+003;1.399462e-001
3.286246e+003;1.427248e-001
3.288174e+003;1.450746e-001
3.290103e+003;1.459676e-001
3.292031e+003;1.464674e-001
3.293960e+003;1.467462e-001
3.295888e+003;1.458551e-001
3.297817e+003;1.438214e-001
3.299746e+003;1.414064e-001
3.301674e+003;1.385533e-001
3.303603e+003;1.354336e-001
3.305531e+003;1.320308e-001
3.307460e+003;1.281375e-001
3.309388e+003;1.246436e-001
3.311317e+003;1.211611e-001
3.313245e+003;1.174498e-001
3.315174e+003;1.138749e-001
3.317103e+003;1.105598e-001
3.319031e+003;1.076915e-001
3.320960e+003;1.048176e-001
3.322888e+003;1.017247e-001
3.324817e+003;9.885643e-002
3.326745e+003;9.576748e-002
3.328674e+003;9.303050e-002
3.330602e+003;9.071645e-002
3.332531e+003;8.815594e-002
3.334459e+003;8.561121e-002
3.336388e+003;8.353934e-002
3.338317e+003;8.165191e-002
3.340245e+003;7.968593e-002
3.342174e+003;7.785826e-002
3.344102e+003;7.602139e-002
3.346031e+003;7.458232e-002
3.347959e+003;7.303982e-002
3.349888e+003;7.130341e-002
3.351816e+003;6.987792e-002
3.353745e+003;6.842888e-002
3.355674e+003;6.708879e-002
3.357602e+003;6.572996e-002
3.359531e+003;6.450651e-002
3.361459e+003;6.371295e-002
3.363388e+003;6.272874e-002
3.365316e+003;6.164210e-002
3.367245e+003;6.079274e-002
3.369173e+003;6.008264e-002
3.371102e+003;5.964592e-002
3.373031e+003;5.872359e-002
3.374959e+003;5.774728e-002
3.376887e+003;5.727744e-002
3.378816e+003;5.692702e-002
3.380745e+003;5.663999e-002
3.382673e+003;5.614522e-002
3.384602e+003;5.572337e-002
3.386530e+003;5.538522e-002
3.388459e+003;5.496626e-002
3.390387e+003;5.446212e-002
3.392316e+003;5.414173e-002
3.394244e+003;5.390493e-002
3.396173e+003;5.356107e-002
3.398102e+003;5.309151e-002
3.400030e+003;5.266170e-002
3.401959e+003;5.235497e-002
3.403887e+003;5.217532e-002
3.405816e+003;5.194888e-002
3.407744e+003;5.157732e-002
3.409673e+003;5.123452e-002
3.411601e+003;5.153449e-002
3.413530e+003;5.161594e-002
3.415458e+003;5.145271e-002
3.417387e+003;5.108183e-002
3.419316e+003;5.060739e-002
3.421244e+003;5.032190e-002
3.423173e+003;4.995295e-002
3.425101e+003;4.981041e-002
3.427030e+003;5.008757e-002
3.428958e+003;5.006601e-002
3.430887e+003;5.009858e-002
3.432815e+003;5.008240e-002
3.434744e+003;4.985140e-002
3.436673e+003;4.987891e-002
3.438601e+003;4.988073e-002
3.440530e+003;4.951891e-002
3.442458e+003;4.946852e-002
3.444387e+003;4.944891e-002
3.446315e+003;4.937559e-002
3.448244e+003;4.943239e-002
3.450172e+003;4.909009e-002
3.452101e+003;4.858531e-002
3.454030e+003;4.848994e-002
3.455958e+003;4.840189e-002
3.457886e+003;4.836941e-002
3.459815e+003;4.850562e-002
3.461744e+003;4.845308e-002
3.463672e+003;4.819914e-002
3.465601e+003;4.761139e-002
3.467529e+003;4.745321e-002
3.469458e+003;4.779289e-002
3.471386e+003;4.757516e-002
3.473315e+003;4.701402e-002
3.475243e+003;4.674963e-002
3.477172e+003;4.678981e-002
3.479101e+003;4.677848e-002
3.481029e+003;4.670612e-002
3.482958e+003;4.659497e-002
3.484886e+003;4.691460e-002
3.486815e+003;4.709034e-002
3.488743e+003;4.665381e-002
3.490672e+003;4.617584e-002
3.492600e+003;4.605606e-002
3.494529e+003;4.599446e-002
3.496458e+003;4.595380e-002
3.498386e+003;4.586250e-002
3.500315e+003;4.619434e-002
3.502243e+003;4.646928e-002
3.504172e+003;4.583065e-002
3.506100e+003;4.554144e-002
3.508029e+003;4.560705e-002
3.509957e+003;4.541222e-002
3.511886e+003;4.533928e-002
3.513814e+003;4.534583e-002
3.515743e+003;4.515230e-002
3.517672e+003;4.483723e-002
3.519600e+003;4.443587e-002
3.521529e+003;4.432801e-002
3.523457e+003;4.448704e-002
3.525386e+003;4.445591e-002
3.527314e+003;4.424557e-002
3.529243e+003;4.413082e-002
3.531171e+003;4.420371e-002
3.533100e+003;4.425221e-002
3.535029e+003;4.370682e-002
3.536957e+003;4.348247e-002
3.538885e+003;4.362504e-002
3.540814e+003;4.346398e-002
3.542743e+003;4.273271e-002
3.544671e+003;4.222468e-002
3.546600e+003;4.190210e-002
3.548528e+003;4.195118e-002
3.550457e+003;4.188031e-002
3.552385e+003;4.170491e-002
3.554314e+003;4.180541e-002
3.556242e+003;4.177323e-002
3.558171e+003;4.150264e-002
3.560100e+003;4.111415e-002
3.562028e+003;4.079545e-002
3.563957e+003;4.023885e-002
3.565885e+003;3.979632e-002
3.567814e+003;3.989013e-002
3.569742e+003;3.989696e-002
3.571671e+003;3.978499e-002
3.573599e+003;3.970094e-002
3.575528e+003;3.965091e-002
3.577457e+003;3.931050e-002
3.579385e+003;3.896035e-002
3.581314e+003;3.869016e-002
3.583242e+003;3.800504e-002
3.585171e+003;3.757941e-002
3.587099e+003;3.773208e-002
3.589028e+003;3.797589e-002
3.590956e+003;3.768243e-002
3.592885e+003;3.720513e-002
3.594813e+003;3.702125e-002
3.596742e+003;3.694848e-002
3.598671e+003;3.706524e-002
3.600599e+003;3.674354e-002
3.602528e+003;3.645127e-002
3.604456e+003;3.623205e-002
3.606385e+003;3.597976e-002
3.608313e+003;3.544982e-002
3.610242e+003;3.509631e-002
3.612170e+003;3.494696e-002
3.614099e+003;3.468999e-002
3.616028e+003;3.516794e-002
3.617956e+003;3.534665e-002
3.619885e+003;3.462271e-002
3.621813e+003;3.397001e-002
3.623742e+003;3.387260e-002
3.625670e+003;3.370802e-002
3.627599e+003;3.337997e-002
3.629527e+003;3.307200e-002
3.631456e+003;3.288987e-002
3.633385e+003;3.277358e-002
3.635313e+003;3.267858e-002
3.637241e+003;3.226863e-002
3.639170e+003;3.212811e-002
3.641099e+003;3.252121e-002
3.643027e+003;3.270630e-002
3.644956e+003;3.210881e-002
3.646884e+003;3.166151e-002
3.648813e+003;3.132086e-002
3.650741e+003;3.136623e-002
3.652670e+003;3.168304e-002
3.654598e+003;3.175764e-002
3.656527e+003;3.115074e-002
3.658456e+003;3.051265e-002
3.660384e+003;3.071620e-002
3.662313e+003;3.090664e-002
3.664241e+003;3.089294e-002
3.666170e+003;3.078174e-002
3.668098e+003;3.068095e-002
3.670027e+003;3.036377e-002
3.671955e+003;3.007949e-002
3.673884e+003;2.981754e-002
3.675813e+003;2.982049e-002
3.677741e+003;2.987582e-002
3.679669e+003;2.969140e-002
3.681598e+003;2.954192e-002
3.683527e+003;2.942429e-002
3.685455e+003;2.949322e-002
3.687384e+003;2.914909e-002
3.689312e+003;2.883706e-002
3.691241e+003;2.885264e-002
3.693169e+003;2.874292e-002
3.695098e+003;2.851422e-002
3.697026e+003;2.832627e-002
3.698955e+003;2.824525e-002
3.700884e+003;2.827623e-002
3.702812e+003;2.802413e-002
3.704741e+003;2.785738e-002
3.706669e+003;2.767614e-002
3.708598e+003;2.740505e-002
3.710526e+003;2.761799e-002
3.712455e+003;2.775434e-002
3.714383e+003;2.750353e-002
3.716312e+003;2.761216e-002
3.718240e+003;2.778242e-002
3.720169e+003;2.772294e-002
3.722098e+003;2.773933e-002
3.724026e+003;2.752870e-002
3.725955e+003;2.752746e-002
3.727883e+003;2.773212e-002
3.729812e+003;2.763207e-002
3.731740e+003;2.766269e-002
3.733669e+003;2.759387e-002
3.735597e+003;2.732353e-002
3.737526e+003;2.750473e-002
3.739455e+003;2.776596e-002
3.741383e+003;2.721896e-002
3.743312e+003;2.632451e-002
3.745240e+003;2.682918e-002
3.747169e+003;2.763610e-002
3.749097e+003;2.760464e-002
3.751026e+003;2.734887e-002
3.752954e+003;2.714439e-002
3.754883e+003;2.751920e-002
3.756812e+003;2.780676e-002
3.758740e+003;2.754571e-002
3.760668e+003;2.744479e-002
3.762597e+003;2.763942e-002
3.764526e+003;2.762971e-002
3.766454e+003;2.777641e-002
3.768383e+003;2.779008e-002
3.770311e+003;2.766629e-002
3.772240e+003;2.772170e-002
3.774168e+003;2.796582e-002
3.776097e+003;2.800886e-002
3.778025e+003;2.776112e-002
3.779954e+003;2.773975e-002
3.781883e+003;2.772930e-002
3.783811e+003;2.771524e-002
3.785740e+003;2.786229e-002
3.787668e+003;2.788554e-002
3.789597e+003;2.785628e-002
3.791525e+003;2.783873e-002
3.793454e+003;2.753265e-002
3.795382e+003;2.734439e-002
3.797311e+003;2.769172e-002
3.799240e+003;2.771573e-002
3.801168e+003;2.753036e-002
3.803097e+003;2.768264e-002
3.805025e+003;2.744850e-002
3.806954e+003;2.712626e-002
3.808882e+003;2.741377e-002
3.810811e+003;2.767900e-002
3.812739e+003;2.789780e-002
3.814668e+003;2.748055e-002
3.816596e+003;2.732755e-002
3.818525e+003;2.762643e-002
3.820454e+003;2.776228e-002
3.822382e+003;2.829999e-002
3.824311e+003;2.868172e-002
3.826239e+003;2.884800e-002
3.828168e+003;2.879727e-002
3.830096e+003;2.886355e-002
3.832025e+003;2.891245e-002
3.833953e+003;2.882184e-002
3.835882e+003;2.836019e-002
3.837811e+003;2.803579e-002
3.839739e+003;2.847728e-002
3.841667e+003;2.865428e-002
3.843596e+003;2.825657e-002
3.845525e+003;2.836829e-002
3.847453e+003;2.908967e-002
3.849382e+003;2.921305e-002
3.851310e+003;2.840685e-002
3.853239e+003;2.806679e-002
3.855167e+003;2.845276e-002
3.857096e+003;2.889698e-002
3.859024e+003;2.907809e-002
3.860953e+003;2.922734e-002
3.862882e+003;2.918109e-002
3.864810e+003;2.884092e-002
3.866739e+003;2.854260e-002
3.868667e+003;2.836422e-002
3.870596e+003;2.860944e-002
3.872524e+003;2.898368e-002
3.874453e+003;2.917833e-002
3.876381e+003;2.961353e-002
3.878310e+003;2.971584e-002
3.880239e+003;2.954858e-002
3.882167e+003;2.916124e-002
3.884096e+003;2.868154e-002
3.886024e+003;2.878360e-002
3.887953e+003;2.918757e-002
3.889881e+003;2.898641e-002
3.891810e+003;2.922645e-002
3.893738e+003;2.958955e-002
3.895667e+003;2.951195e-002
3.897595e+003;2.931737e-002
3.899524e+003;2.905102e-002
3.901453e+003;2.894869e-002
3.903381e+003;2.926820e-002
3.905310e+003;2.948209e-002
3.907238e+003;2.969214e-002
3.909167e+003;2.996907e-002
3.911095e+003;3.006163e-002
3.913024e+003;2.978340e-002
3.914952e+003;2.971928e-002
3.916881e+003;2.995711e-002
3.918810e+003;3.019236e-002
3.920738e+003;3.041317e-002
3.922667e+003;3.052257e-002
3.924595e+003;3.072359e-002
3.926524e+003;3.089372e-002
3.928452e+003;3.050195e-002
3.930381e+003;3.044792e-002
3.932309e+003;3.072903e-002
3.934238e+003;3.101040e-002
3.936167e+003;3.115978e-002
3.938095e+003;3.079067e-002
3.940023e+003;3.057049e-002
3.941952e+003;3.036822e-002
3.943881e+003;3.072224e-002
3.945809e+003;3.119460e-002
3.947738e+003;3.134365e-002
3.949666e+003;3.113625e-002
3.951595e+003;3.118801e-002
3.953523e+003;3.120051e-002
3.955452e+003;3.087024e-002
3.957380e+003;3.108129e-002
3.959309e+003;3.138286e-002
3.961238e+003;3.132958e-002
3.963166e+003;3.141470e-002
3.965095e+003;3.137335e-002
3.967023e+003;3.136299e-002
3.968952e+003;3.164722e-002
3.970880e+003;3.211170e-002
3.972809e+003;3.227092e-002
3.974737e+003;3.228094e-002
3.976666e+003;3.248115e-002
3.978594e+003;3.277193e-002
3.980523e+003;3.257935e-002
3.982452e+003;3.211534e-002
3.984380e+003;3.206882e-002
3.986309e+003;3.216896e-002
3.988237e+003;3.225154e-002
3.990166e+003;3.272470e-002
3.992094e+003;3.339786e-002
3.994023e+003;3.333675e-002
3.995951e+003;3.294841e-002
3.997880e+003;3.283761e-002
3.999809e+003;3.291520e-002
4.001737e+003;0.000000e+000
