3.992094e+002;0.000000e+000
4.011380e+002;0.000000e+000
4.030665e+002;0.000000e+000
4.049951e+002;0.000000e+000
4.069236e+002;0.000000e+000
4.088522e+002;0.000000e+000
4.107807e+002;0.000000e+000
4.127093e+002;0.000000e+000
4.146378e+002;0.000000e+000
4.165664e+002;0.000000e+000
4.184949e+002;0.000000e+000
4.204235e+002;0.000000e+000
4.223520e+002;0.000000e+000
4.242806e+002;0.000000e+000
4.262091e+002;0.000000e+000
4.281377e+002;0.000000e+000
4.300662e+002;0.000000e+000
4.319948e+002;0.000000e+000
4.339233e+002;0.000000e+000
4.358519e+002;0.000000e+000
4.377804e+002;0.000000e+000
4.397090e+002;0.000000e+000
4.416375e+002;0.000000e+000
4.435660e+002;0.000000e+000
4.454946e+002;0.000000e+000
4.474232e+002;0.000000e+000
4.493517e+002;0.000000e+000
4.512802e+002;0.000000e+000
4.532088e+002;0.000000e+000
4.551373e+002;0.000000e+000
4.570659e+002;0.000000e+000
4.589944e+002;0.000000e+000
4.609230e+002;0.000000e+000
4.628515e+002;0.000000e+000
4.647801e+002;0.000000e+000
4.667086e+002;0.000000e+000
4.686372e+002;0.000000e+000
4.705657e+002;0.000000e+000
4.724943e+002;0.000000e+000
4.744228e+002;0.000000e+000
4.763513e+002;0.000000e+000
4.782799e+002;0.000000e+000
4.802085e+002;0.000000e+000
4.821370e+002;0.000000e+000
4.840656e+002;0.000000e+000
4.859941e+002;0.000000e+000
4.879226e+002;0.000000e+000
4.898512e+002;0.000000e+000
4.917798e+002;0.000000e+000
4.937083e+002;0.000000e+000
4.956368e+002;0.000000e+000
4.975654e+002;0.000000e+000
4.994939e+002;0.000000e+000
5.014225e+002;0.000000e+000
5.033510e+002;0.000000e+000
5.052796e+002;0.000000e+000
5.072081e+002;0.000000e+000
5.091367e+002;0.000000e+000
5.110652e+002;0.000000e+000
5.129938e+002;0.000000e+000
5.149223e+002;0.000000e+000
5.168509e+002;0.000000e+000
5.187794e+002;0.000000e+000
5.207079e+002;0.000000e+000
5.226365e+002;0.000000e+000
5.245651e+002;0.000000e+000
5.264936e+002;0.000000e+000
5.284222e+002;0.000000e+000
5.303507e+002;0.000000e+000
5.322792e+002;0.000000e+000
5.342078e+002;0.000000e+000
5.361364e+002;0.000000e+000
5.380649e+002;0.000000e+000
5.399935e+002;0.000000e+000
5.419220e+002;0.000000e+000
5.438505e+002;0.000000e+000
5.457791e+002;0.000000e+000
5.477076e+002;0.000000e+000
5.496362e+002;0.000000e+000
5.515648e+002;0.000000e+000
5.534933e+002;0.000000e+000
5.554218e+002;0.000000e+000
5.573504e+002;0.000000e+000
5.592789e+002;0.000000e+000
5.612075e+002;0.000000e+000
5.631360e+002;0.000000e+000
5.650646e+002;0.000000e+000
5.669931e+002;0.000000e+000
5.689217e+002;0.000000e+000
5.708502e+002;0.000000e+000
5.727787e+002;0.000000e+000
5.747073e+002;0.000000e+000
5.766359e+002;0.000000e+000
5.785644e+002;0.000000e+000
5.804930e+002;0.000000e+000
5.824215e+002;0.000000e+000
5.843500e+002;0.000000e+000
5.862786e+002;0.000000e+000
5.882072e+002;0.000000e+000
5.901357e+002;0.000000e+000
5.920643e+002;0.000000e+000
5.939928e+002;0.000000e+000
5.959213e+002;0.000000e+000
5.978499e+002;0.000000e+000
5.997784e+002;1.217328e-001
6.017070e+002;1.268408e-001
6.036355e+002;1.364438e-001
6.055641e+002;1.395606e-001
6.074926e+002;1.333710e-001
6.094211e+002;1.301653e-001
6.113497e+002;1.305403e-001
6.132783e+002;1.324629e-001
6.152068e+002;1.311210e-001
6.171354e+002;1.304274e-001
6.190639e+002;1.335493e-001
6.209924e+002;1.352001e-001
6.229210e+002;1.367939e-001
6.248495e+002;1.373850e-001
6.267781e+002;1.362259e-001
6.287067e+002;1.325408e-001
6.306352e+002;1.300061e-001
6.325637e+002;1.298112e-001
6.344923e+002;1.317143e-001
6.364208e+002;1.337499e-001
6.383494e+002;1.370708e-001
6.402780e+002;1.375886e-001
6.422065e+002;1.376708e-001
6.441350e+002;1.439951e-001
6.460636e+002;1.476354e-001
6.479921e+002;1.481322e-001
6.499207e+002;1.497804e-001
6.518492e+002;1.525307e-001
6.537778e+002;1.534175e-001
6.557063e+002;1.530489e-001
6.576349e+002;1.540602e-001
6.595634e+002;1.574691e-001
6.614919e+002;1.623678e-001
6.634205e+002;1.654527e-001
6.653491e+002;1.675228e-001
6.672776e+002;1.690443e-001
6.692062e+002;1.712835e-001
6.711347e+002;1.735106e-001
6.730632e+002;1.754320e-001
6.749918e+002;1.767946e-001
6.769203e+002;1.796190e-001
6.788489e+002;1.825155e-001
6.807775e+002;1.824911e-001
6.827060e+002;1.810790e-001
6.846345e+002;1.798567e-001
6.865631e+002;1.791030e-001
6.884916e+002;1.781392e-001
6.904202e+002;1.767494e-001
6.923488e+002;1.751894e-001
6.942773e+002;1.732211e-001
6.962058e+002;1.697483e-001
6.981344e+002;1.658619e-001
7.000629e+002;1.630524e-001
7.019915e+002;1.610536e-001
7.039200e+002;1.591388e-001
7.058486e+002;1.572269e-001
7.077771e+002;1.562303e-001
7.097057e+002;1.543464e-001
7.116342e+002;1.527532e-001
7.135627e+002;1.522979e-001
7.154913e+002;1.504634e-001
7.174199e+002;1.481450e-001
7.193484e+002;1.468941e-001
7.212770e+002;1.461604e-001
7.232055e+002;1.463276e-001
7.251340e+002;1.477957e-001
7.270626e+002;1.491607e-001
7.289911e+002;1.474444e-001
7.309197e+002;1.423646e-001
7.328483e+002;1.355550e-001
7.347768e+002;1.281176e-001
7.367053e+002;1.220293e-001
7.386339e+002;1.174462e-001
7.405624e+002;1.134920e-001
7.424910e+002;1.106899e-001
7.444196e+002;1.085566e-001
7.463481e+002;1.062943e-001
7.482766e+002;1.035393e-001
7.502052e+002;1.002947e-001
7.521337e+002;9.821725e-002
7.540623e+002;9.758257e-002
7.559908e+002;9.628241e-002
7.579194e+002;9.425109e-002
7.598479e+002;9.261413e-002
7.617765e+002;9.128045e-002
7.637050e+002;8.978650e-002
7.656335e+002;8.921381e-002
7.675621e+002;8.865042e-002
7.694907e+002;8.725750e-002
7.714192e+002;8.638459e-002
7.733478e+002;8.562279e-002
7.752763e+002;8.394227e-002
7.772048e+002;8.259580e-002
7.791334e+002;8.232262e-002
7.810620e+002;8.207314e-002
7.829905e+002;8.024602e-002
7.849191e+002;7.762381e-002
7.868476e+002;7.577866e-002
7.887761e+002;7.489233e-002
7.907047e+002;7.389442e-002
7.926332e+002;7.268032e-002
7.945618e+002;7.191976e-002
7.964903e+002;7.163043e-002
7.984189e+002;7.044544e-002
8.003474e+002;6.846344e-002
8.022759e+002;6.702008e-002
8.042045e+002;6.653656e-002
8.061331e+002;6.586271e-002
8.080616e+002;6.486142e-002
8.099902e+002;6.436799e-002
8.119187e+002;6.394101e-002
8.138472e+002;6.298152e-002
8.157758e+002;6.277028e-002
8.177043e+002;6.271086e-002
8.196329e+002;6.291249e-002
8.215615e+002;6.294004e-002
8.234900e+002;6.264085e-002
8.254185e+002;6.281178e-002
8.273471e+002;6.332498e-002
8.292756e+002;6.470767e-002
8.312042e+002;6.610200e-002
8.331328e+002;6.661423e-002
8.350613e+002;6.593663e-002
8.369898e+002;6.381158e-002
8.389184e+002;6.167124e-002
8.408469e+002;6.005372e-002
8.427755e+002;5.816273e-002
8.447040e+002;5.631312e-002
8.466326e+002;5.513608e-002
8.485611e+002;5.529990e-002
8.504897e+002;5.631724e-002
8.524182e+002;5.642196e-002
8.543467e+002;5.561015e-002
8.562753e+002;5.509537e-002
8.582039e+002;5.507683e-002
8.601324e+002;5.509801e-002
8.620610e+002;5.483128e-002
8.639895e+002;5.478388e-002
8.659180e+002;5.532275e-002
8.678466e+002;5.555453e-002
8.697751e+002;5.511584e-002
8.717037e+002;5.520432e-002
8.736323e+002;5.568197e-002
8.755608e+002;5.589963e-002
8.774893e+002;5.639114e-002
8.794179e+002;5.652562e-002
8.813464e+002;5.610261e-002
8.832750e+002;5.640555e-002
8.852036e+002;5.732520e-002
8.871321e+002;5.765964e-002
8.890606e+002;5.743229e-002
8.909892e+002;5.726920e-002
8.929177e+002;5.771625e-002
8.948463e+002;5.804572e-002
8.967748e+002;5.794632e-002
8.987034e+002;5.797078e-002
9.006319e+002;5.808197e-002
9.025605e+002;5.858088e-002
9.044890e+002;5.906496e-002
9.064175e+002;5.971108e-002
9.083461e+002;6.020670e-002
9.102747e+002;6.059791e-002
9.122032e+002;6.111365e-002
9.141318e+002;6.168919e-002
9.160603e+002;6.198332e-002
9.179888e+002;6.252455e-002
9.199174e+002;6.333686e-002
9.218459e+002;6.441484e-002
9.237745e+002;6.592923e-002
9.257031e+002;6.737187e-002
9.276316e+002;6.808140e-002
9.295601e+002;6.808047e-002
9.314887e+002;6.768223e-002
9.334172e+002;6.691145e-002
9.353458e+002;6.569026e-002
9.372744e+002;6.499474e-002
9.392029e+002;6.516571e-002
9.411314e+002;6.578089e-002
9.430600e+002;6.667133e-002
9.449885e+002;6.744624e-002
9.469171e+002;6.868768e-002
9.488456e+002;7.038886e-002
9.507742e+002;7.190838e-002
9.527027e+002;7.295045e-002
9.546313e+002;7.358740e-002
9.565598e+002;7.423845e-002
9.584883e+002;7.464185e-002
9.604169e+002;7.469623e-002
9.623455e+002;7.395688e-002
9.642740e+002;7.302618e-002
9.662026e+002;7.275640e-002
9.681311e+002;7.282497e-002
9.700596e+002;7.323341e-002
9.719882e+002;7.325137e-002
9.739167e+002;7.244474e-002
9.758453e+002;7.177781e-002
9.777739e+002;7.121139e-002
9.797024e+002;7.021695e-002
9.816309e+002;6.947378e-002
9.835595e+002;6.888236e-002
9.854880e+002;6.821746e-002
9.874166e+002;6.753449e-002
9.893452e+002;6.680729e-002
9.912737e+002;6.583190e-002
9.932022e+002;6.520152e-002
9.951307e+002;6.472175e-002
9.970593e+002;6.398170e-002
9.989879e+002;6.361946e-002
1.000916e+003;6.357546e-002
1.002845e+003;6.383076e-002
1.004773e+003;6.393229e-002
1.006702e+003;6.382163e-002
1.008631e+003;6.376971e-002
1.010559e+003;6.362644e-002
1.012488e+003;6.328784e-002
1.014416e+003;6.308097e-002
1.016345e+003;6.318010e-002
1.018273e+003;6.338900e-002
1.020202e+003;6.353872e-002
1.022130e+003;6.423175e-002
1.024059e+003;6.574797e-002
1.025988e+003;6.672163e-002
1.027916e+003;6.717940e-002
1.029845e+003;6.759426e-002
1.031773e+003;6.734691e-002
1.033702e+003;6.679532e-002
1.035630e+003;6.651683e-002
1.037559e+003;6.606770e-002
1.039487e+003;6.520417e-002
1.041416e+003;6.439739e-002
1.043344e+003;6.392822e-002
1.045273e+003;6.400681e-002
1.047202e+003;6.462992e-002
1.049130e+003;6.515317e-002
1.051059e+003;6.585631e-002
1.052987e+003;6.652023e-002
1.054916e+003;6.755961e-002
1.056844e+003;6.901021e-002
1.058773e+003;7.028235e-002
1.060701e+003;7.184137e-002
1.062630e+003;7.311051e-002
1.064558e+003;7.420767e-002
1.066487e+003;7.548099e-002
1.068416e+003;7.611799e-002
1.070344e+003;7.624826e-002
1.072273e+003;7.701946e-002
1.074201e+003;7.729942e-002
1.076130e+003;7.636217e-002
1.078058e+003;7.565429e-002
1.079987e+003;7.497607e-002
1.081915e+003;7.396882e-002
1.083844e+003;7.323294e-002
1.085773e+003;7.271762e-002
1.087701e+003;7.235233e-002
1.089630e+003;7.206266e-002
1.091558e+003;7.181048e-002
1.093487e+003;7.185482e-002
1.095415e+003;7.241069e-002
1.097344e+003;7.358591e-002
1.099272e+003;7.488244e-002
1.101201e+003;7.621070e-002
1.103129e+003;7.768162e-002
1.105058e+003;7.957178e-002
1.106987e+003;8.162112e-002
1.108915e+003;8.267812e-002
1.110844e+003;8.332288e-002
1.112772e+003;8.430421e-002
1.114701e+003;8.514848e-002
1.116629e+003;8.570593e-002
1.118558e+003;8.556730e-002
1.120486e+003;8.501676e-002
1.122415e+003;8.398038e-002
1.124344e+003;8.175941e-002
1.126272e+003;7.888786e-002
1.128201e+003;7.587008e-002
1.130129e+003;7.346051e-002
1.132058e+003;7.205218e-002
1.133986e+003;7.144994e-002
1.135915e+003;7.119281e-002
1.137843e+003;7.137733e-002
1.139772e+003;7.192250e-002
1.141700e+003;7.304358e-002
1.143629e+003;7.509426e-002
1.145557e+003;7.736847e-002
1.147486e+003;7.915881e-002
1.149415e+003;8.121698e-002
1.151343e+003;8.419380e-002
1.153272e+003;8.750503e-002
1.155200e+003;9.123323e-002
1.157129e+003;9.520274e-002
1.159057e+003;9.974633e-002
1.160986e+003;1.054705e-001
1.162914e+003;1.114004e-001
1.164843e+003;1.170830e-001
1.166771e+003;1.222200e-001
1.168700e+003;1.250736e-001
1.170629e+003;1.243094e-001
1.172557e+003;1.204868e-001
1.174486e+003;1.151890e-001
1.176414e+003;1.097194e-001
1.178343e+003;1.049729e-001
1.180271e+003;1.017585e-001
1.182200e+003;1.005582e-001
1.184128e+003;1.008338e-001
1.186057e+003;1.026589e-001
1.187986e+003;1.058071e-001
1.189914e+003;1.093008e-001
1.191843e+003;1.133515e-001
1.193771e+003;1.182665e-001
1.195700e+003;1.237923e-001
1.197628e+003;1.286658e-001
1.199557e+003;1.309344e-001
1.201485e+003;1.298784e-001
1.203414e+003;1.269205e-001
1.205343e+003;1.238212e-001
1.207271e+003;1.216035e-001
1.209200e+003;1.205673e-001
1.211128e+003;1.199001e-001
1.213057e+003;1.187893e-001
1.214985e+003;1.164148e-001
1.216914e+003;1.132226e-001
1.218842e+003;1.100885e-001
1.220771e+003;1.084459e-001
1.222699e+003;1.085855e-001
1.224628e+003;1.103329e-001
1.226557e+003;1.136596e-001
1.228485e+003;1.181480e-001
1.230414e+003;1.230595e-001
1.232342e+003;1.274586e-001
1.234271e+003;1.306662e-001
1.236199e+003;1.327356e-001
1.238128e+003;1.335980e-001
1.240056e+003;1.335104e-001
1.241985e+003;1.329159e-001
1.243913e+003;1.325644e-001
1.245842e+003;1.331120e-001
1.247771e+003;1.344637e-001
1.249699e+003;1.363173e-001
1.251628e+003;1.389077e-001
1.253556e+003;1.423405e-001
1.255485e+003;1.458725e-001
1.257413e+003;1.486396e-001
1.259342e+003;1.504948e-001
1.261270e+003;1.514467e-001
1.263199e+003;1.505091e-001
1.265127e+003;1.467123e-001
1.267056e+003;1.410622e-001
1.268985e+003;1.349380e-001
1.270913e+003;1.303468e-001
1.272842e+003;1.280040e-001
1.274770e+003;1.268731e-001
1.276699e+003;1.264344e-001
1.278627e+003;1.260433e-001
1.280556e+003;1.249034e-001
1.282484e+003;1.230126e-001
1.284413e+003;1.210718e-001
1.286342e+003;1.194828e-001
1.288270e+003;1.180745e-001
1.290199e+003;1.168482e-001
1.292127e+003;1.161843e-001
1.294056e+003;1.155282e-001
1.295984e+003;1.151195e-001
1.297913e+003;1.151640e-001
1.299841e+003;1.150822e-001
1.301770e+003;1.143413e-001
1.303698e+003;1.134750e-001
1.305627e+003;1.125723e-001
1.307556e+003;1.115509e-001
1.309484e+003;1.102493e-001
1.311413e+003;1.090367e-001
1.313341e+003;1.080162e-001
1.315270e+003;1.071026e-001
1.317198e+003;1.061695e-001
1.319127e+003;1.053118e-001
1.321055e+003;1.045319e-001
1.322984e+003;1.036285e-001
1.324912e+003;1.032324e-001
1.326841e+003;1.034783e-001
1.328770e+003;1.036782e-001
1.330698e+003;1.038780e-001
1.332627e+003;1.041481e-001
1.334555e+003;1.043427e-001
1.336484e+003;1.044986e-001
1.338412e+003;1.048599e-001
1.340341e+003;1.055721e-001
1.342269e+003;1.063518e-001
1.344198e+003;1.071669e-001
1.346126e+003;1.079560e-001
1.348055e+003;1.088903e-001
1.349984e+003;1.103378e-001
1.351912e+003;1.120180e-001
1.353841e+003;1.134402e-001
1.355769e+003;1.149250e-001
1.357698e+003;1.169418e-001
1.359626e+003;1.190702e-001
1.361555e+003;1.209091e-001
1.363483e+003;1.224766e-001
1.365412e+003;1.241194e-001
1.367341e+003;1.256371e-001
1.369269e+003;1.270350e-001
1.371198e+003;1.278258e-001
1.373126e+003;1.273141e-001
1.375055e+003;1.256390e-001
1.376983e+003;1.234215e-001
1.378912e+003;1.204165e-001
1.380840e+003;1.169392e-001
1.382769e+003;1.135879e-001
1.384698e+003;1.104802e-001
1.386626e+003;1.074650e-001
1.388555e+003;1.049396e-001
1.390483e+003;1.030655e-001
1.392412e+003;1.016800e-001
1.394340e+003;1.007024e-001
1.396269e+003;1.005865e-001
1.398197e+003;1.014327e-001
1.400126e+003;1.029540e-001
1.402054e+003;1.054387e-001
1.403983e+003;1.087846e-001
1.405911e+003;1.132891e-001
1.407840e+003;1.189328e-001
1.409769e+003;1.254440e-001
1.411697e+003;1.322750e-001
1.413626e+003;1.379873e-001
1.415554e+003;1.414075e-001
1.417483e+003;1.421889e-001
1.419411e+003;1.403564e-001
1.421340e+003;1.372282e-001
1.423268e+003;1.339807e-001
1.425197e+003;1.318011e-001
1.427125e+003;1.317382e-001
1.429054e+003;1.334682e-001
1.430983e+003;1.360352e-001
1.432911e+003;1.385228e-001
1.434840e+003;1.398621e-001
1.436768e+003;1.396705e-001
1.438697e+003;1.389530e-001
1.440625e+003;1.378420e-001
1.442554e+003;1.367278e-001
1.444482e+003;1.361996e-001
1.446411e+003;1.362063e-001
1.448340e+003;1.370208e-001
1.450268e+003;1.390236e-001
1.452197e+003;1.416674e-001
1.454125e+003;1.441849e-001
1.456054e+003;1.471238e-001
1.457982e+003;1.517880e-001
1.459911e+003;1.572067e-001
1.461839e+003;1.604141e-001
1.463768e+003;1.587088e-001
1.465697e+003;1.523946e-001
1.467625e+003;1.449967e-001
1.469554e+003;1.392450e-001
1.471482e+003;1.363490e-001
1.473411e+003;1.364801e-001
1.475339e+003;1.371005e-001
1.477268e+003;1.355862e-001
1.479196e+003;1.317861e-001
1.481125e+003;1.261623e-001
1.483053e+003;1.197048e-001
1.484982e+003;1.141828e-001
1.486911e+003;1.110515e-001
1.488839e+003;1.106116e-001
1.490768e+003;1.122252e-001
1.492696e+003;1.148570e-001
1.494625e+003;1.177271e-001
1.496553e+003;1.213060e-001
1.498482e+003;1.260738e-001
1.500410e+003;1.314659e-001
1.502339e+003;1.369456e-001
1.504267e+003;1.424721e-001
1.506196e+003;1.489667e-001
1.508125e+003;1.565455e-001
1.510053e+003;1.638801e-001
1.511982e+003;1.713019e-001
1.513910e+003;1.797118e-001
1.515839e+003;1.883444e-001
1.517767e+003;1.971739e-001
1.519696e+003;2.067537e-001
1.521624e+003;2.168882e-001
1.523553e+003;2.271707e-001
1.525481e+003;2.373362e-001
1.527410e+003;2.475900e-001
1.529339e+003;2.578316e-001
1.531267e+003;2.672662e-001
1.533196e+003;2.755501e-001
1.535124e+003;2.821483e-001
1.537053e+003;2.856875e-001
1.538981e+003;2.860338e-001
1.540910e+003;2.839100e-001
1.542838e+003;2.790271e-001
1.544767e+003;2.718813e-001
1.546695e+003;2.630369e-001
1.548624e+003;2.520193e-001
1.550553e+003;2.401098e-001
1.552481e+003;2.286511e-001
1.554410e+003;2.176861e-001
1.556338e+003;2.075077e-001
1.558267e+003;1.974651e-001
1.560195e+003;1.878426e-001
1.562124e+003;1.792218e-001
1.564052e+003;1.707472e-001
1.565981e+003;1.621019e-001
1.567910e+003;1.533159e-001
1.569838e+003;1.447659e-001
1.571767e+003;1.372989e-001
1.573695e+003;1.305969e-001
1.575624e+003;1.244973e-001
1.577552e+003;1.193308e-001
1.579481e+003;1.152771e-001
1.581409e+003;1.121767e-001
1.583338e+003;1.098875e-001
1.585266e+003;1.084106e-001
1.587195e+003;1.077458e-001
1.589124e+003;1.077145e-001
1.591052e+003;1.086526e-001
1.592981e+003;1.102675e-001
1.594909e+003;1.126536e-001
1.596838e+003;1.162560e-001
1.598766e+003;1.209133e-001
1.600695e+003;1.264112e-001
1.602623e+003;1.329449e-001
1.604552e+003;1.404195e-001
1.606480e+003;1.485910e-001
1.608409e+003;1.577412e-001
1.610338e+003;1.680899e-001
1.612266e+003;1.793886e-001
1.614195e+003;1.917909e-001
1.616123e+003;2.062963e-001
1.618052e+003;2.233584e-001
1.619980e+003;2.412635e-001
1.621909e+003;2.594956e-001
1.623837e+003;2.780251e-001
1.625766e+003;2.962654e-001
1.627694e+003;3.140375e-001
1.629623e+003;3.313223e-001
1.631552e+003;3.471400e-001
1.633480e+003;3.592991e-001
1.635409e+003;3.644713e-001
1.637337e+003;3.613308e-001
1.639266e+003;3.496822e-001
1.641194e+003;3.311840e-001
1.643123e+003;3.090734e-001
1.645051e+003;2.857777e-001
1.646980e+003;2.635073e-001
1.648909e+003;2.437137e-001
1.650837e+003;2.259862e-001
1.652766e+003;2.103721e-001
1.654694e+003;1.978889e-001
1.656623e+003;1.872228e-001
1.658551e+003;1.769405e-001
1.660480e+003;1.668737e-001
1.662408e+003;1.572241e-001
1.664337e+003;1.482055e-001
1.666266e+003;1.391490e-001
1.668194e+003;1.299009e-001
1.670123e+003;1.214556e-001
1.672051e+003;1.142842e-001
1.673980e+003;1.071142e-001
1.675908e+003;9.979353e-002
1.677837e+003;9.264649e-002
1.679765e+003;8.506318e-002
1.681694e+003;7.746438e-002
1.683622e+003;7.023845e-002
1.685551e+003;6.412486e-002
1.687479e+003;5.938019e-002
1.689408e+003;5.537724e-002
1.691337e+003;5.233901e-002
1.693265e+003;5.007393e-002
1.695194e+003;4.803523e-002
1.697122e+003;4.663433e-002
1.699051e+003;4.576909e-002
1.700979e+003;4.503525e-002
1.702908e+003;4.478587e-002
1.704836e+003;4.440350e-002
1.706765e+003;4.419839e-002
1.708693e+003;4.427154e-002
1.710622e+003;4.428086e-002
1.712551e+003;4.402081e-002
1.714479e+003;4.381239e-002
1.716408e+003;4.381698e-002
1.718336e+003;4.406818e-002
1.720265e+003;4.442978e-002
1.722193e+003;4.447988e-002
1.724122e+003;4.435344e-002
1.726050e+003;4.434592e-002
1.727979e+003;4.399349e-002
1.729908e+003;4.340195e-002
1.731836e+003;4.269133e-002
1.733765e+003;4.197494e-002
1.735693e+003;4.174748e-002
1.737622e+003;4.130436e-002
1.739550e+003;4.049694e-002
1.741479e+003;3.985653e-002
1.743407e+003;3.935853e-002
1.745336e+003;3.892139e-002
1.747265e+003;3.841562e-002
1.749193e+003;3.781308e-002
1.751122e+003;3.758255e-002
1.753050e+003;3.780968e-002
1.754979e+003;3.772460e-002
1.756907e+003;3.728228e-002
1.758836e+003;3.673723e-002
1.760764e+003;3.615689e-002
1.762693e+003;3.578110e-002
1.764621e+003;3.535589e-002
1.766550e+003;3.503901e-002
1.768479e+003;3.482643e-002
1.770407e+003;3.427624e-002
1.772336e+003;3.364179e-002
1.774264e+003;3.338863e-002
1.776193e+003;3.321269e-002
1.778121e+003;3.313962e-002
1.780050e+003;3.300242e-002
1.781978e+003;3.275357e-002
1.783907e+003;3.252825e-002
1.785835e+003;3.227256e-002
1.787764e+003;3.198827e-002
1.789693e+003;3.169423e-002
1.791621e+003;3.134988e-002
1.793550e+003;3.123675e-002
1.795478e+003;3.129159e-002
1.797407e+003;3.115245e-002
1.799335e+003;3.097442e-002
1.801264e+003;3.079352e-002
1.803192e+003;3.069884e-002
1.805121e+003;3.074959e-002
1.807049e+003;3.070350e-002
1.808978e+003;3.063043e-002
1.810907e+003;3.059672e-002
1.812835e+003;3.058321e-002
1.814764e+003;3.055086e-002
1.816692e+003;3.027996e-002
1.818621e+003;3.004359e-002
1.820549e+003;2.991138e-002
1.822478e+003;2.976484e-002
1.824406e+003;2.972436e-002
1.826335e+003;2.962875e-002
1.828264e+003;2.953291e-002
1.830192e+003;2.965751e-002
1.832121e+003;2.983997e-002
1.834049e+003;2.975494e-002
1.835978e+003;2.976921e-002
1.837906e+003;2.974827e-002
1.839835e+003;2.942784e-002
1.841763e+003;2.931974e-002
1.843692e+003;2.934034e-002
1.845620e+003;2.919782e-002
1.847549e+003;2.892899e-002
1.849478e+003;2.896448e-002
1.851406e+003;2.912794e-002
1.853335e+003;2.899045e-002
1.855263e+003;2.868515e-002
1.857192e+003;2.868012e-002
1.859120e+003;2.873627e-002
1.861049e+003;2.865280e-002
1.862977e+003;2.861323e-002
1.864906e+003;2.858032e-002
1.866834e+003;2.831520e-002
1.868763e+003;2.818596e-002
1.870692e+003;2.815969e-002
1.872620e+003;2.821071e-002
1.874549e+003;2.842216e-002
1.876477e+003;2.862271e-002
1.878406e+003;2.862003e-002
1.880334e+003;2.855643e-002
1.882263e+003;2.865864e-002
1.884191e+003;2.864809e-002
1.886120e+003;2.861128e-002
1.888048e+003;2.869290e-002
1.889977e+003;2.861613e-002
1.891906e+003;2.838187e-002
1.893834e+003;2.855385e-002
1.895763e+003;2.917787e-002
1.897691e+003;2.937558e-002
1.899620e+003;2.928312e-002
1.901548e+003;2.920480e-002
1.903477e+003;2.929525e-002
1.905405e+003;2.918098e-002
1.907334e+003;2.884542e-002
1.909262e+003;2.888635e-002
1.911191e+003;2.901212e-002
1.913120e+003;2.889517e-002
1.915048e+003;2.869439e-002
1.916977e+003;2.860615e-002
1.918905e+003;2.872561e-002
1.920834e+003;2.874511e-002
1.922762e+003;2.861125e-002
1.924691e+003;2.860123e-002
1.926619e+003;2.860056e-002
1.928548e+003;2.848032e-002
1.930477e+003;2.846964e-002
1.932405e+003;2.844176e-002
1.934334e+003;2.845209e-002
1.936262e+003;2.852310e-002
1.938191e+003;2.830548e-002
1.940119e+003;2.806842e-002
1.942048e+003;2.816740e-002
1.943976e+003;2.838219e-002
1.945905e+003;2.852179e-002
1.947833e+003;2.870041e-002
1.949762e+003;2.866582e-002
1.951691e+003;2.844976e-002
1.953619e+003;2.842397e-002
1.955548e+003;2.849681e-002
1.957476e+003;2.859546e-002
1.959405e+003;2.864445e-002
1.961333e+003;2.862763e-002
1.963262e+003;2.868094e-002
1.965190e+003;2.875166e-002
1.967119e+003;2.896144e-002
1.969047e+003;2.911026e-002
1.970976e+003;2.906728e-002
1.972905e+003;2.899158e-002
1.974833e+003;2.911968e-002
1.976762e+003;2.913261e-002
1.978690e+003;2.902643e-002
1.980619e+003;2.899307e-002
1.982547e+003;2.882070e-002
1.984476e+003;2.876126e-002
1.986404e+003;2.888869e-002
1.988333e+003;2.890902e-002
1.990261e+003;2.897178e-002
1.992190e+003;2.897851e-002
1.994119e+003;2.899902e-002
1.996047e+003;2.905187e-002
1.997976e+003;2.903090e-002
1.999904e+003;2.899271e-002
2.001833e+003;2.911136e-002
2.003761e+003;2.916606e-002
2.005690e+003;2.917758e-002
2.007618e+003;2.929773e-002
2.009547e+003;2.926072e-002
2.011476e+003;2.914452e-002
2.013404e+003;2.904634e-002
2.015333e+003;2.919976e-002
2.017261e+003;2.945078e-002
2.019190e+003;2.954865e-002
2.021118e+003;2.951170e-002
2.023047e+003;2.961417e-002
2.024975e+003;2.981577e-002
2.026904e+003;3.006529e-002
2.028833e+003;3.014771e-002
2.030761e+003;3.005105e-002
2.032690e+003;3.008897e-002
2.034618e+003;3.032728e-002
2.036547e+003;3.047831e-002
2.038475e+003;3.047743e-002
2.040404e+003;3.042752e-002
2.042332e+003;3.040961e-002
2.044261e+003;3.041988e-002
2.046189e+003;3.050426e-002
2.048118e+003;3.040645e-002
2.050047e+003;3.019776e-002
2.051975e+003;3.013425e-002
2.053904e+003;3.021758e-002
2.055832e+003;3.034711e-002
2.057761e+003;3.053860e-002
2.059689e+003;3.070130e-002
2.061618e+003;3.085132e-002
2.063546e+003;3.075923e-002
2.065475e+003;3.060024e-002
2.067404e+003;3.073017e-002
2.069332e+003;3.090141e-002
2.071260e+003;3.097577e-002
2.073189e+003;3.101602e-002
2.075118e+003;3.086327e-002
2.077046e+003;3.073405e-002
2.078975e+003;3.071495e-002
2.080903e+003;3.060312e-002
2.082832e+003;3.039089e-002
2.084760e+003;3.025651e-002
2.086689e+003;3.025388e-002
2.088617e+003;3.044764e-002
2.090546e+003;3.058958e-002
2.092475e+003;3.039757e-002
2.094403e+003;3.018398e-002
2.096332e+003;3.025978e-002
2.098260e+003;3.040439e-002
2.100189e+003;3.033258e-002
2.102117e+003;3.022202e-002
2.104046e+003;3.039551e-002
2.105974e+003;3.048635e-002
2.107903e+003;3.047078e-002
2.109832e+003;3.056586e-002
2.111760e+003;3.067164e-002
2.113688e+003;3.063598e-002
2.115617e+003;3.070375e-002
2.117546e+003;3.085527e-002
2.119474e+003;3.088963e-002
2.121403e+003;3.091731e-002
2.123331e+003;3.092432e-002
2.125260e+003;3.109535e-002
2.127188e+003;3.135042e-002
2.129117e+003;3.139647e-002
2.131045e+003;3.121596e-002
2.132974e+003;3.119249e-002
2.134903e+003;3.112212e-002
2.136831e+003;3.109763e-002
2.138760e+003;3.114661e-002
2.140688e+003;3.113027e-002
2.142617e+003;3.127820e-002
2.144545e+003;3.150362e-002
2.146474e+003;3.145745e-002
2.148402e+003;3.118869e-002
2.150331e+003;3.132417e-002
2.152260e+003;3.153266e-002
2.154188e+003;3.157417e-002
2.156117e+003;3.142735e-002
2.158045e+003;3.135291e-002
2.159974e+003;3.146297e-002
2.161902e+003;3.157898e-002
2.163831e+003;3.160317e-002
2.165759e+003;3.190436e-002
2.167688e+003;3.213175e-002
2.169616e+003;3.214573e-002
2.171545e+003;3.234330e-002
2.173474e+003;3.223498e-002
2.175402e+003;3.218919e-002
2.177331e+003;3.232256e-002
2.179259e+003;3.247783e-002
2.181188e+003;3.256103e-002
2.183116e+003;3.233366e-002
2.185045e+003;3.224683e-002
2.186973e+003;3.233930e-002
2.188902e+003;3.234855e-002
2.190831e+003;3.249853e-002
2.192759e+003;3.260550e-002
2.194688e+003;3.246086e-002
2.196616e+003;3.220179e-002
2.198545e+003;3.218006e-002
2.200473e+003;3.228412e-002
2.202402e+003;3.226578e-002
2.204330e+003;3.214024e-002
2.206259e+003;3.200757e-002
2.208188e+003;3.202961e-002
2.210116e+003;3.201035e-002
2.212044e+003;3.177236e-002
2.213973e+003;3.156526e-002
2.215902e+003;3.149279e-002
2.217830e+003;3.152315e-002
2.219759e+003;3.152966e-002
2.221687e+003;3.152168e-002
2.223616e+003;3.131626e-002
2.225544e+003;3.119591e-002
2.227473e+003;3.121240e-002
2.229401e+003;3.105926e-002
2.231330e+003;3.101043e-002
2.233259e+003;3.120859e-002
2.235187e+003;3.121994e-002
2.237116e+003;3.123992e-002
2.239044e+003;3.144430e-002
2.240973e+003;3.137787e-002
2.242901e+003;3.120553e-002
2.244830e+003;3.122788e-002
2.246758e+003;3.118399e-002
2.248687e+003;3.104897e-002
2.250615e+003;3.087412e-002
2.252544e+003;3.093115e-002
2.254473e+003;3.119609e-002
2.256401e+003;3.150177e-002
2.258330e+003;3.151570e-002
2.260258e+003;3.136562e-002
2.262187e+003;3.142842e-002
2.264115e+003;3.164608e-002
2.266044e+003;3.186399e-002
2.267972e+003;3.194462e-002
2.269901e+003;3.190586e-002
2.271830e+003;3.168482e-002
2.273758e+003;3.159370e-002
2.275687e+003;3.180755e-002
2.277615e+003;3.190379e-002
2.279544e+003;3.182124e-002
2.281472e+003;3.184132e-002
2.283401e+003;3.181607e-002
2.285329e+003;3.186866e-002
2.287258e+003;3.190536e-002
2.289187e+003;3.182666e-002
2.291115e+003;3.167006e-002
2.293043e+003;3.179746e-002
2.294972e+003;3.221382e-002
2.296901e+003;3.241473e-002
2.298829e+003;3.226760e-002
2.300758e+003;3.229133e-002
2.302686e+003;3.237807e-002
2.304615e+003;3.234551e-002
2.306543e+003;3.225321e-002
2.308472e+003;3.213450e-002
2.310400e+003;3.214163e-002
2.312329e+003;3.218449e-002
2.314258e+003;3.227331e-002
2.316186e+003;3.229465e-002
2.318115e+003;3.247483e-002
2.320043e+003;3.260060e-002
2.321972e+003;3.264736e-002
2.323900e+003;3.260078e-002
2.325829e+003;3.254260e-002
2.327757e+003;3.248122e-002
2.329686e+003;3.238832e-002
2.331615e+003;3.241745e-002
2.333543e+003;3.261632e-002
2.335472e+003;3.271784e-002
2.337400e+003;3.252693e-002
2.339329e+003;3.247618e-002
2.341257e+003;3.253582e-002
2.343186e+003;3.221218e-002
2.345114e+003;3.178324e-002
2.347043e+003;3.173069e-002
2.348971e+003;3.195881e-002
2.350900e+003;3.201367e-002
2.352829e+003;3.192101e-002
2.354757e+003;3.203286e-002
2.356686e+003;3.223059e-002
2.358614e+003;3.227945e-002
2.360543e+003;3.218227e-002
2.362471e+003;3.210970e-002
2.364400e+003;3.213928e-002
2.366328e+003;3.214006e-002
2.368257e+003;3.210074e-002
2.370186e+003;3.218081e-002
2.372114e+003;3.235205e-002
2.374042e+003;3.219408e-002
2.375971e+003;3.217653e-002
2.377900e+003;3.239849e-002
2.379828e+003;3.262639e-002
2.381757e+003;3.284576e-002
2.383685e+003;3.277344e-002
2.385614e+003;3.260103e-002
2.387542e+003;3.244508e-002
2.389471e+003;3.238218e-002
2.391399e+003;3.224008e-002
2.393328e+003;3.229065e-002
2.395257e+003;3.256278e-002
2.397185e+003;3.257628e-002
2.399114e+003;3.243948e-002
2.401042e+003;3.253260e-002
2.402971e+003;3.255935e-002
2.404899e+003;3.253749e-002
2.406828e+003;3.258207e-002
2.408756e+003;3.261368e-002
2.410685e+003;3.251725e-002
2.412614e+003;3.245265e-002
2.414542e+003;3.237564e-002
2.416471e+003;3.243930e-002
2.418399e+003;3.281553e-002
2.420328e+003;3.288350e-002
2.422256e+003;3.267797e-002
2.424185e+003;3.276933e-002
2.426113e+003;3.301551e-002
2.428042e+003;3.303947e-002
2.429970e+003;3.302895e-002
2.431899e+003;3.306793e-002
2.433828e+003;3.302545e-002
2.435756e+003;3.308298e-002
2.437685e+003;3.329961e-002
2.439613e+003;3.328390e-002
2.441542e+003;3.337524e-002
2.443470e+003;3.346163e-002
2.445399e+003;3.352240e-002
2.447327e+003;3.371401e-002
2.449256e+003;3.390061e-002
2.451185e+003;3.404253e-002
2.453113e+003;3.396771e-002
2.455042e+003;3.403042e-002
2.456970e+003;3.411314e-002
2.458899e+003;3.419873e-002
2.460827e+003;3.423386e-002
2.462756e+003;3.434638e-002
2.464684e+003;3.473777e-002
2.466613e+003;3.473256e-002
2.468542e+003;3.468106e-002
2.470470e+003;3.487522e-002
2.472398e+003;3.505266e-002
2.474327e+003;3.519119e-002
2.476256e+003;3.536294e-002
2.478184e+003;3.529676e-002
2.480113e+003;3.496485e-002
2.482041e+003;3.494531e-002
2.483970e+003;3.524333e-002
2.485898e+003;3.519776e-002
2.487827e+003;3.501520e-002
2.489755e+003;3.479049e-002
2.491684e+003;3.476863e-002
2.493613e+003;3.469462e-002
2.495541e+003;3.481814e-002
2.497470e+003;3.499606e-002
2.499398e+003;3.497562e-002
2.501327e+003;3.494269e-002
2.503255e+003;3.510417e-002
2.505184e+003;3.534392e-002
2.507112e+003;3.516374e-002
2.509041e+003;3.492599e-002
2.510969e+003;3.519518e-002
2.512898e+003;3.559887e-002
2.514827e+003;3.567922e-002
2.516755e+003;3.557916e-002
2.518684e+003;3.587779e-002
2.520612e+003;3.650295e-002
2.522541e+003;3.667814e-002
2.524469e+003;3.649499e-002
2.526398e+003;3.666764e-002
2.528326e+003;3.690862e-002
2.530255e+003;3.690743e-002
2.532184e+003;3.708769e-002
2.534112e+003;3.739472e-002
2.536041e+003;3.748552e-002
2.537969e+003;3.754426e-002
2.539898e+003;3.753364e-002
2.541826e+003;3.753851e-002
2.543755e+003;3.767494e-002
2.545683e+003;3.756795e-002
2.547612e+003;3.786337e-002
2.549541e+003;3.846681e-002
2.551469e+003;3.856728e-002
2.553397e+003;3.816397e-002
2.555326e+003;3.796764e-002
2.557255e+003;3.811810e-002
2.559183e+003;3.823698e-002
2.561112e+003;3.814284e-002
2.563040e+003;3.801465e-002
2.564969e+003;3.813452e-002
2.566897e+003;3.834732e-002
2.568826e+003;3.842767e-002
2.570754e+003;3.853078e-002
2.572683e+003;3.878091e-002
2.574612e+003;3.884297e-002
2.576540e+003;3.874370e-002
2.578469e+003;3.877696e-002
2.580397e+003;3.911880e-002
2.582326e+003;3.951073e-002
2.584254e+003;3.962786e-002
2.586183e+003;3.948250e-002
2.588111e+003;3.937743e-002
2.590040e+003;3.969023e-002
2.591969e+003;3.968177e-002
2.593897e+003;3.945133e-002
2.595826e+003;3.954960e-002
2.597754e+003;3.966703e-002
2.599683e+003;3.960975e-002
2.601611e+003;3.957095e-002
2.603540e+003;3.982269e-002
2.605468e+003;3.999700e-002
2.607397e+003;3.984477e-002
2.609325e+003;3.985367e-002
2.611254e+003;4.007025e-002
2.613183e+003;4.009122e-002
2.615111e+003;4.036329e-002
2.617040e+003;4.082857e-002
2.618968e+003;4.093913e-002
2.620897e+003;4.073517e-002
2.622825e+003;4.047941e-002
2.624754e+003;4.036006e-002
2.626682e+003;4.035711e-002
2.628611e+003;4.045762e-002
2.630540e+003;4.071407e-002
2.632468e+003;4.107310e-002
2.634396e+003;4.130316e-002
2.636325e+003;4.112810e-002
2.638254e+003;4.115531e-002
2.640182e+003;4.135199e-002
2.642111e+003;4.125090e-002
2.644039e+003;4.121429e-002
2.645968e+003;4.133194e-002
2.647896e+003;4.156031e-002
2.649825e+003;4.172618e-002
2.651753e+003;4.173774e-002
2.653682e+003;4.178071e-002
2.655611e+003;4.201403e-002
2.657539e+003;4.204494e-002
2.659468e+003;4.216151e-002
2.661396e+003;4.230013e-002
2.663325e+003;4.216019e-002
2.665253e+003;4.223574e-002
2.667182e+003;4.239192e-002
2.669110e+003;4.235360e-002
2.671039e+003;4.241479e-002
2.672968e+003;4.279736e-002
2.674896e+003;4.318516e-002
2.676825e+003;4.335117e-002
2.678753e+003;4.347431e-002
2.680682e+003;4.361404e-002
2.682610e+003;4.346823e-002
2.684539e+003;4.332620e-002
2.686467e+003;4.343904e-002
2.688396e+003;4.366691e-002
2.690324e+003;4.376724e-002
2.692253e+003;4.405179e-002
2.694182e+003;4.446612e-002
2.696110e+003;4.477103e-002
2.698039e+003;4.493871e-002
2.699967e+003;4.506245e-002
2.701896e+003;4.502493e-002
2.703824e+003;4.513053e-002
2.705753e+003;4.543661e-002
2.707681e+003;4.565372e-002
2.709610e+003;4.580771e-002
2.711539e+003;4.603403e-002
2.713467e+003;4.624483e-002
2.715396e+003;4.640010e-002
2.717324e+003;4.667768e-002
2.719253e+003;4.723609e-002
2.721181e+003;4.778808e-002
2.723110e+003;4.780502e-002
2.725038e+003;4.812906e-002
2.726967e+003;4.851013e-002
2.728896e+003;4.826038e-002
2.730824e+003;4.831145e-002
2.732752e+003;4.885873e-002
2.734681e+003;4.926197e-002
2.736610e+003;4.936609e-002
2.738538e+003;4.941773e-002
2.740467e+003;4.980844e-002
2.742395e+003;5.014432e-002
2.744324e+003;5.019635e-002
2.746252e+003;5.022041e-002
2.748181e+003;5.021856e-002
2.750109e+003;5.016135e-002
2.752038e+003;4.999295e-002
2.753967e+003;5.013063e-002
2.755895e+003;5.051317e-002
2.757824e+003;5.059242e-002
2.759752e+003;5.039817e-002
2.761681e+003;5.033079e-002
2.763609e+003;5.063717e-002
2.765538e+003;5.103018e-002
2.767466e+003;5.121722e-002
2.769395e+003;5.144328e-002
2.771323e+003;5.179677e-002
2.773252e+003;5.196793e-002
2.775181e+003;5.222723e-002
2.777109e+003;5.265639e-002
2.779038e+003;5.315041e-002
2.780966e+003;5.327172e-002
2.782895e+003;5.314195e-002
2.784823e+003;5.358221e-002
2.786752e+003;5.419458e-002
2.788680e+003;5.444943e-002
2.790609e+003;5.468447e-002
2.792538e+003;5.499931e-002
2.794466e+003;5.521253e-002
2.796395e+003;5.539618e-002
2.798323e+003;5.572401e-002
2.800252e+003;5.597407e-002
2.802180e+003;5.622222e-002
2.804109e+003;5.679509e-002
2.806037e+003;5.737968e-002
2.807966e+003;5.794291e-002
2.809895e+003;5.845236e-002
2.811823e+003;5.879150e-002
2.813751e+003;5.919754e-002
2.815680e+003;5.966322e-002
2.817609e+003;6.031561e-002
2.819537e+003;6.119257e-002
2.821466e+003;6.168931e-002
2.823394e+003;6.199066e-002
2.825323e+003;6.289534e-002
2.827251e+003;6.363450e-002
2.829180e+003;6.421158e-002
2.831108e+003;6.518273e-002
2.833037e+003;6.624138e-002
2.834966e+003;6.742140e-002
2.836894e+003;6.899646e-002
2.838823e+003;7.140467e-002
2.840751e+003;7.434511e-002
2.842680e+003;7.772081e-002
2.844608e+003;8.156166e-002
2.846537e+003;8.555827e-002
2.848465e+003;8.994102e-002
2.850394e+003;9.471682e-002
2.852323e+003;9.911954e-002
2.854251e+003;1.029747e-001
2.856180e+003;1.058121e-001
2.858108e+003;1.077469e-001
2.860037e+003;1.090765e-001
2.861965e+003;1.094850e-001
2.863894e+003;1.092040e-001
2.865822e+003;1.078091e-001
2.867751e+003;1.055903e-001
2.869679e+003;1.033812e-001
2.871608e+003;1.012394e-001
2.873536e+003;9.862847e-002
2.875465e+003;9.567343e-002
2.877394e+003;9.271269e-002
2.879322e+003;9.004811e-002
2.881251e+003;8.817489e-002
2.883179e+003;8.697893e-002
2.885108e+003;8.634122e-002
2.887036e+003;8.641184e-002
2.888965e+003;8.707189e-002
2.890893e+003;8.841275e-002
2.892822e+003;9.049182e-002
2.894750e+003;9.266921e-002
2.896679e+003;9.468234e-002
2.898608e+003;9.613255e-002
2.900536e+003;9.697529e-002
2.902465e+003;9.818003e-002
2.904393e+003;9.934852e-002
2.906322e+003;1.004553e-001
2.908250e+003;1.021037e-001
2.910179e+003;1.040850e-001
2.912107e+003;1.061927e-001
2.914036e+003;1.084074e-001
2.915965e+003;1.108140e-001
2.917893e+003;1.137667e-001
2.919822e+003;1.173791e-001
2.921750e+003;1.212102e-001
2.923679e+003;1.249171e-001
2.925607e+003;1.280458e-001
2.927536e+003;1.306988e-001
2.929464e+003;1.331348e-001
2.931393e+003;1.351727e-001
2.933322e+003;1.363764e-001
2.935250e+003;1.366470e-001
2.937178e+003;1.355865e-001
2.939107e+003;1.331854e-001
2.941036e+003;1.302849e-001
2.942964e+003;1.267663e-001
2.944893e+003;1.224718e-001
2.946821e+003;1.175940e-001
2.948750e+003;1.118746e-001
2.950678e+003;1.055972e-001
2.952607e+003;9.929033e-002
2.954535e+003;9.333026e-002
2.956464e+003;8.795782e-002
2.958393e+003;8.358610e-002
2.960321e+003;8.012654e-002
2.962250e+003;7.692938e-002
2.964178e+003;7.388617e-002
2.966107e+003;7.106389e-002
2.968035e+003;6.846655e-002
2.969964e+003;6.611944e-002
2.971892e+003;6.393582e-002
2.973821e+003;6.187614e-002
2.975750e+003;6.000704e-002
2.977678e+003;5.826650e-002
2.979607e+003;5.659979e-002
2.981535e+003;5.551040e-002
2.983464e+003;5.479955e-002
2.985392e+003;5.362731e-002
2.987321e+003;5.293484e-002
2.989249e+003;5.255166e-002
2.991178e+003;5.198234e-002
2.993106e+003;5.137521e-002
2.995035e+003;5.097470e-002
2.996964e+003;5.069686e-002
2.998892e+003;5.046266e-002
3.000821e+003;5.020416e-002
3.002749e+003;5.038549e-002
3.004678e+003;5.079927e-002
3.006606e+003;5.083324e-002
3.008535e+003;5.075294e-002
3.010463e+003;5.048671e-002
3.012392e+003;5.054380e-002
3.014321e+003;5.118128e-002
3.016249e+003;5.141403e-002
3.018177e+003;5.140243e-002
3.020106e+003;5.165490e-002
3.022035e+003;5.210251e-002
3.023963e+003;5.273936e-002
3.025892e+003;5.319378e-002
3.027820e+003;5.355492e-002
3.029749e+003;5.408326e-002
3.031677e+003;5.445690e-002
3.033606e+003;5.470506e-002
3.035534e+003;5.484045e-002
3.037463e+003;5.512013e-002
3.039392e+003;5.585935e-002
3.041320e+003;5.687539e-002
3.043249e+003;5.781885e-002
3.045177e+003;5.858342e-002
3.047106e+003;5.944842e-002
3.049034e+003;5.998436e-002
3.050963e+003;6.042203e-002
3.052891e+003;6.132866e-002
3.054820e+003;6.241203e-002
3.056749e+003;6.326645e-002
3.058677e+003;6.370275e-002
3.060606e+003;6.388838e-002
3.062534e+003;6.419841e-002
3.064463e+003;6.469756e-002
3.066391e+003;6.525543e-002
3.068320e+003;6.549511e-002
3.070248e+003;6.549165e-002
3.072177e+003;6.555858e-002
3.074105e+003;6.561499e-002
3.076034e+003;6.554882e-002
3.077963e+003;6.552112e-002
3.079891e+003;6.550182e-002
3.081820e+003;6.533718e-002
3.083748e+003;6.534670e-002
3.085677e+003;6.533402e-002
3.087605e+003;6.464364e-002
3.089534e+003;6.392492e-002
3.091462e+003;6.343007e-002
3.093391e+003;6.287906e-002
3.095320e+003;6.228542e-002
3.097248e+003;6.185719e-002
3.099177e+003;6.138911e-002
3.101105e+003;6.079297e-002
3.103034e+003;6.005710e-002
3.104962e+003;5.955524e-002
3.106891e+003;5.920456e-002
3.108819e+003;5.815026e-002
3.110748e+003;5.714677e-002
3.112677e+003;5.682175e-002
3.114605e+003;5.699532e-002
3.116533e+003;5.702109e-002
3.118462e+003;5.636812e-002
3.120391e+003;5.578836e-002
3.122319e+003;5.556549e-002
3.124248e+003;5.533227e-002
3.126176e+003;5.531191e-002
3.128105e+003;5.526092e-002
3.130033e+003;5.492618e-002
3.131962e+003;5.481166e-002
3.133890e+003;5.484410e-002
3.135819e+003;5.496145e-002
3.137748e+003;5.502985e-002
3.139676e+003;5.458264e-002
3.141605e+003;5.416763e-002
3.143533e+003;5.424320e-002
3.145462e+003;5.470758e-002
3.147390e+003;5.531010e-002
3.149319e+003;5.554606e-002
3.151247e+003;5.571527e-002
3.153176e+003;5.602149e-002
3.155104e+003;5.625643e-002
3.157033e+003;5.674498e-002
3.158962e+003;5.713710e-002
3.160890e+003;5.737318e-002
3.162819e+003;5.781616e-002
3.164747e+003;5.848367e-002
3.166676e+003;5.881521e-002
3.168604e+003;5.904511e-002
3.170533e+003;5.985302e-002
3.172461e+003;6.050154e-002
3.174390e+003;6.072311e-002
3.176319e+003;6.124834e-002
3.178247e+003;6.189952e-002
3.180176e+003;6.230340e-002
3.182104e+003;6.283836e-002
3.184033e+003;6.354378e-002
3.185961e+003;6.411599e-002
3.187890e+003;6.462292e-002
3.189818e+003;6.508961e-002
3.191747e+003;6.561121e-002
3.193676e+003;6.603642e-002
3.195604e+003;6.612152e-002
3.197532e+003;6.666430e-002
3.199461e+003;6.743405e-002
3.201390e+003;6.807973e-002
3.203318e+003;6.834115e-002
3.205247e+003;6.814109e-002
3.207175e+003;6.845169e-002
3.209104e+003;6.903592e-002
3.211032e+003;6.976733e-002
3.212961e+003;7.013341e-002
3.214889e+003;7.046083e-002
3.216818e+003;7.110842e-002
3.218747e+003;7.198084e-002
3.220675e+003;7.293724e-002
3.222604e+003;7.375688e-002
3.224532e+003;7.442010e-002
3.226461e+003;7.510726e-002
3.228389e+003;7.582229e-002
3.230318e+003;7.678768e-002
3.232246e+003;7.802026e-002
3.234175e+003;7.928940e-002
3.236104e+003;8.063553e-002
3.238032e+003;8.224978e-002
3.239961e+003;8.393186e-002
3.241889e+003;8.570480e-002
3.243818e+003;8.730627e-002
3.245746e+003;8.888492e-002
3.247675e+003;9.095995e-002
3.249603e+003;9.267581e-002
3.251532e+003;9.415679e-002
3.253460e+003;9.604715e-002
3.255389e+003;9.801403e-002
3.257318e+003;1.002345e-001
3.259246e+003;1.028900e-001
3.261175e+003;1.052936e-001
3.263103e+003;1.073135e-001
3.265032e+003;1.096041e-001
3.266960e+003;1.119741e-001
3.268889e+003;1.141354e-001
3.270817e+003;1.159652e-001
3.272746e+003;1.180736e-001
3.274675e+003;1.204414e-001
3.276603e+003;1.225649e-001
3.278531e+003;1.249466e-001
3.280460e+003;1.272390e-001
3.282389e+003;1.293320e-001
3.284317e+003;1.311691e-001
3.286246e+003;1.330172e-001
3.288174e+003;1.345087e-001
3.290103e+003;1.352849e-001
3.292031e+003;1.357919e-001
3.293960e+003;1.359537e-001
3.295888e+003;1.350826e-001
3.297817e+003;1.337202e-001
3.299746e+003;1.316637e-001
3.301674e+003;1.290095e-001
3.303603e+003;1.263835e-001
3.305531e+003;1.236427e-001
3.307460e+003;1.204375e-001
3.309388e+003;1.171784e-001
3.311317e+003;1.141096e-001
3.313245e+003;1.112491e-001
3.315174e+003;1.080057e-001
3.317103e+003;1.048095e-001
3.319031e+003;1.021352e-001
3.320960e+003;9.953760e-002
3.322888e+003;9.678987e-002
3.324817e+003;9.419160e-002
3.326745e+003;9.145690e-002
3.328674e+003;8.830790e-002
3.330602e+003;8.577306e-002
3.332531e+003;8.385622e-002
3.334459e+003;8.179641e-002
3.336388e+003;7.946184e-002
3.338317e+003;7.721902e-002
3.340245e+003;7.567886e-002
3.342174e+003;7.407707e-002
3.344102e+003;7.205813e-002
3.346031e+003;7.056595e-002
3.347959e+003;6.913961e-002
3.349888e+003;6.732764e-002
3.351816e+003;6.579616e-002
3.353745e+003;6.423149e-002
3.355674e+003;6.289741e-002
3.357602e+003;6.174839e-002
3.359531e+003;6.032048e-002
3.361459e+003;5.925473e-002
3.363388e+003;5.859116e-002
3.365316e+003;5.774860e-002
3.367245e+003;5.695082e-002
3.369173e+003;5.593679e-002
3.371102e+003;5.501139e-002
3.373031e+003;5.439914e-002
3.374959e+003;5.390204e-002
3.376887e+003;5.333863e-002
3.378816e+003;5.261565e-002
3.380745e+003;5.192734e-002
3.382673e+003;5.132751e-002
3.384602e+003;5.116794e-002
3.386530e+003;5.099746e-002
3.388459e+003;5.049296e-002
3.390387e+003;4.988545e-002
3.392316e+003;4.951843e-002
3.394244e+003;4.916437e-002
3.396173e+003;4.875788e-002
3.398102e+003;4.827708e-002
3.400030e+003;4.806022e-002
3.401959e+003;4.791945e-002
3.403887e+003;4.743935e-002
3.405816e+003;4.686791e-002
3.407744e+003;4.655248e-002
3.409673e+003;4.629729e-002
3.411601e+003;4.631100e-002
3.413530e+003;4.617500e-002
3.415458e+003;4.593306e-002
3.417387e+003;4.578282e-002
3.419316e+003;4.568946e-002
3.421244e+003;4.547558e-002
3.423173e+003;4.486023e-002
3.425101e+003;4.453102e-002
3.427030e+003;4.471381e-002
3.428958e+003;4.445199e-002
3.430887e+003;4.436287e-002
3.432815e+003;4.445261e-002
3.434744e+003;4.458418e-002
3.436673e+003;4.446483e-002
3.438601e+003;4.451380e-002
3.440530e+003;4.478257e-002
3.442458e+003;4.450323e-002
3.444387e+003;4.397600e-002
3.446315e+003;4.401776e-002
3.448244e+003;4.400196e-002
3.450172e+003;4.347643e-002
3.452101e+003;4.328355e-002
3.454030e+003;4.353177e-002
3.455958e+003;4.321675e-002
3.457886e+003;4.293922e-002
3.459815e+003;4.307311e-002
3.461744e+003;4.273926e-002
3.463672e+003;4.219550e-002
3.465601e+003;4.183168e-002
3.467529e+003;4.198764e-002
3.469458e+003;4.221062e-002
3.471386e+003;4.201574e-002
3.473315e+003;4.165462e-002
3.475243e+003;4.154803e-002
3.477172e+003;4.160564e-002
3.479101e+003;4.153111e-002
3.481029e+003;4.138435e-002
3.482958e+003;4.131617e-002
3.484886e+003;4.123790e-002
3.486815e+003;4.121330e-002
3.488743e+003;4.125910e-002
3.490672e+003;4.129926e-002
3.492600e+003;4.120871e-002
3.494529e+003;4.097423e-002
3.496458e+003;4.061422e-002
3.498386e+003;4.049654e-002
3.500315e+003;4.071581e-002
3.502243e+003;4.082933e-002
3.504172e+003;4.038566e-002
3.506100e+003;3.990615e-002
3.508029e+003;3.970660e-002
3.509957e+003;3.941233e-002
3.511886e+003;3.943838e-002
3.513814e+003;3.962336e-002
3.515743e+003;3.948283e-002
3.517672e+003;3.950475e-002
3.519600e+003;3.920945e-002
3.521529e+003;3.898163e-002
3.523457e+003;3.868433e-002
3.525386e+003;3.836057e-002
3.527314e+003;3.824729e-002
3.529243e+003;3.817417e-002
3.531171e+003;3.817392e-002
3.533100e+003;3.825174e-002
3.535029e+003;3.777350e-002
3.536957e+003;3.733565e-002
3.538885e+003;3.750401e-002
3.540814e+003;3.717384e-002
3.542743e+003;3.656235e-002
3.544671e+003;3.651772e-002
3.546600e+003;3.625611e-002
3.548528e+003;3.598195e-002
3.550457e+003;3.587286e-002
3.552385e+003;3.569645e-002
3.554314e+003;3.588128e-002
3.556242e+003;3.581093e-002
3.558171e+003;3.538109e-002
3.560100e+003;3.459996e-002
3.562028e+003;3.389029e-002
3.563957e+003;3.370129e-002
3.565885e+003;3.406755e-002
3.567814e+003;3.417952e-002
3.569742e+003;3.377503e-002
3.571671e+003;3.334523e-002
3.573599e+003;3.303374e-002
3.575528e+003;3.279709e-002
3.577457e+003;3.263796e-002
3.579385e+003;3.261207e-002
3.581314e+003;3.237857e-002
3.583242e+003;3.178680e-002
3.585171e+003;3.121852e-002
3.587099e+003;3.105260e-002
3.589028e+003;3.097588e-002
3.590956e+003;3.065998e-002
3.592885e+003;3.034874e-002
3.594813e+003;3.037650e-002
3.596742e+003;3.052690e-002
3.598671e+003;3.019374e-002
3.600599e+003;2.974132e-002
3.602528e+003;2.995135e-002
3.604456e+003;2.987319e-002
3.606385e+003;2.936441e-002
3.608313e+003;2.885101e-002
3.610242e+003;2.844438e-002
3.612170e+003;2.809662e-002
3.614099e+003;2.824108e-002
3.616028e+003;2.849267e-002
3.617956e+003;2.829292e-002
3.619885e+003;2.772379e-002
3.621813e+003;2.725445e-002
3.623742e+003;2.714950e-002
3.625670e+003;2.707304e-002
3.627599e+003;2.663858e-002
3.629527e+003;2.644753e-002
3.631456e+003;2.635433e-002
3.633385e+003;2.602615e-002
3.635313e+003;2.571147e-002
3.637241e+003;2.545934e-002
3.639170e+003;2.548436e-002
3.641099e+003;2.541479e-002
3.643027e+003;2.530186e-002
3.644956e+003;2.472270e-002
3.646884e+003;2.418478e-002
3.648813e+003;2.423792e-002
3.650741e+003;2.475385e-002
3.652670e+003;2.480437e-002
3.654598e+003;2.431981e-002
3.656527e+003;2.413623e-002
3.658456e+003;2.430520e-002
3.660384e+003;2.442113e-002
3.662313e+003;2.426806e-002
3.664241e+003;2.418289e-002
3.666170e+003;2.409251e-002
3.668098e+003;2.380041e-002
3.670027e+003;2.363870e-002
3.671955e+003;2.354879e-002
3.673884e+003;2.360455e-002
3.675813e+003;2.384195e-002
3.677741e+003;2.357898e-002
3.679669e+003;2.306402e-002
3.681598e+003;2.288565e-002
3.683527e+003;2.281158e-002
3.685455e+003;2.295310e-002
3.687384e+003;2.271709e-002
3.689312e+003;2.235334e-002
3.691241e+003;2.226488e-002
3.693169e+003;2.217997e-002
3.695098e+003;2.207000e-002
3.697026e+003;2.204591e-002
3.698955e+003;2.169690e-002
3.700884e+003;2.154597e-002
3.702812e+003;2.175737e-002
3.704741e+003;2.183141e-002
3.706669e+003;2.176894e-002
3.708598e+003;2.138701e-002
3.710526e+003;2.126956e-002
3.712455e+003;2.110941e-002
3.714383e+003;2.108677e-002
3.716312e+003;2.150262e-002
3.718240e+003;2.171017e-002
3.720169e+003;2.150412e-002
3.722098e+003;2.124033e-002
3.724026e+003;2.085375e-002
3.725955e+003;2.095399e-002
3.727883e+003;2.113348e-002
3.729812e+003;2.074576e-002
3.731740e+003;2.097600e-002
3.733669e+003;2.129628e-002
3.735597e+003;2.096870e-002
3.737526e+003;2.111522e-002
3.739455e+003;2.131051e-002
3.741383e+003;2.097635e-002
3.743312e+003;2.068313e-002
3.745240e+003;2.094617e-002
3.747169e+003;2.136975e-002
3.749097e+003;2.134027e-002
3.751026e+003;2.091241e-002
3.752954e+003;2.079716e-002
3.754883e+003;2.098591e-002
3.756812e+003;2.123462e-002
3.758740e+003;2.117248e-002
3.760668e+003;2.112107e-002
3.762597e+003;2.142370e-002
3.764526e+003;2.162515e-002
3.766454e+003;2.188280e-002
3.768383e+003;2.179308e-002
3.770311e+003;2.163668e-002
3.772240e+003;2.167816e-002
3.774168e+003;2.191901e-002
3.776097e+003;2.210500e-002
3.778025e+003;2.170745e-002
3.779954e+003;2.147724e-002
3.781883e+003;2.162488e-002
3.783811e+003;2.154851e-002
3.785740e+003;2.149869e-002
3.787668e+003;2.174737e-002
3.789597e+003;2.192974e-002
3.791525e+003;2.186179e-002
3.793454e+003;2.160036e-002
3.795382e+003;2.125404e-002
3.797311e+003;2.144734e-002
3.799240e+003;2.146913e-002
3.801168e+003;2.126381e-002
3.803097e+003;2.112270e-002
3.805025e+003;2.080279e-002
3.806954e+003;2.043797e-002
3.808882e+003;2.089572e-002
3.810811e+003;2.169241e-002
3.812739e+003;2.221212e-002
3.814668e+003;2.210573e-002
3.816596e+003;2.182454e-002
3.818525e+003;2.165054e-002
3.820454e+003;2.139836e-002
3.822382e+003;2.182423e-002
3.824311e+003;2.236681e-002
3.826239e+003;2.263840e-002
3.828168e+003;2.246003e-002
3.830096e+003;2.230053e-002
3.832025e+003;2.250682e-002
3.833953e+003;2.280795e-002
3.835882e+003;2.215497e-002
3.837811e+003;2.161593e-002
3.839739e+003;2.202482e-002
3.841667e+003;2.215566e-002
3.843596e+003;2.212143e-002
3.845525e+003;2.250375e-002
3.847453e+003;2.309505e-002
3.849382e+003;2.305920e-002
3.851310e+003;2.230130e-002
3.853239e+003;2.172602e-002
3.855167e+003;2.205620e-002
3.857096e+003;2.283676e-002
3.859024e+003;2.273975e-002
3.860953e+003;2.261914e-002
3.862882e+003;2.290574e-002
3.864810e+003;2.266856e-002
3.866739e+003;2.205271e-002
3.868667e+003;2.193657e-002
3.870596e+003;2.263230e-002
3.872524e+003;2.309984e-002
3.874453e+003;2.290018e-002
3.876381e+003;2.306895e-002
3.878310e+003;2.333620e-002
3.880239e+003;2.312490e-002
3.882167e+003;2.236817e-002
3.884096e+003;2.194316e-002
3.886024e+003;2.222635e-002
3.887953e+003;2.279838e-002
3.889881e+003;2.284772e-002
3.891810e+003;2.293235e-002
3.893738e+003;2.321409e-002
3.895667e+003;2.321958e-002
3.897595e+003;2.313957e-002
3.899524e+003;2.305323e-002
3.901453e+003;2.311277e-002
3.903381e+003;2.324764e-002
3.905310e+003;2.325020e-002
3.907238e+003;2.327897e-002
3.909167e+003;2.345582e-002
3.911095e+003;2.364199e-002
3.913024e+003;2.395160e-002
3.914952e+003;2.417945e-002
3.916881e+003;2.374595e-002
3.918810e+003;2.357475e-002
3.920738e+003;2.398528e-002
3.922667e+003;2.379456e-002
3.924595e+003;2.372376e-002
3.926524e+003;2.432899e-002
3.928452e+003;2.451529e-002
3.930381e+003;2.460382e-002
3.932309e+003;2.488296e-002
3.934238e+003;2.507051e-002
3.936167e+003;2.505496e-002
3.938095e+003;2.481843e-002
3.940023e+003;2.482850e-002
3.941952e+003;2.433936e-002
3.943881e+003;2.457906e-002
3.945809e+003;2.555741e-002
3.947738e+003;2.552723e-002
3.949666e+003;2.509705e-002
3.951595e+003;2.529582e-002
3.953523e+003;2.535848e-002
3.955452e+003;2.521979e-002
3.957380e+003;2.524311e-002
3.959309e+003;2.532831e-002
3.961238e+003;2.536667e-002
3.963166e+003;2.550347e-002
3.965095e+003;2.562060e-002
3.967023e+003;2.551025e-002
3.968952e+003;2.558715e-002
3.970880e+003;2.555797e-002
3.972809e+003;2.560029e-002
3.974737e+003;2.590877e-002
3.976666e+003;2.584047e-002
3.978594e+003;2.580369e-002
3.980523e+003;2.608037e-002
3.982452e+003;2.605085e-002
3.984380e+003;2.565755e-002
3.986309e+003;2.576835e-002
3.988237e+003;2.612892e-002
3.990166e+003;2.656598e-002
3.992094e+003;2.720217e-002
3.994023e+003;2.732142e-002
3.995951e+003;2.721988e-002
3.997880e+003;2.685459e-002
3.999809e+003;2.668565e-002
4.001737e+003;0.000000e+000
