3.992094e+002;0.000000e+000
4.011380e+002;0.000000e+000
4.030665e+002;0.000000e+000
4.049951e+002;0.000000e+000
4.069236e+002;0.000000e+000
4.088522e+002;0.000000e+000
4.107807e+002;0.000000e+000
4.127093e+002;0.000000e+000
4.146378e+002;0.000000e+000
4.165664e+002;0.000000e+000
4.184949e+002;0.000000e+000
4.204235e+002;0.000000e+000
4.223520e+002;0.000000e+000
4.242806e+002;0.000000e+000
4.262091e+002;0.000000e+000
4.281377e+002;0.000000e+000
4.300662e+002;0.000000e+000
4.319948e+002;0.000000e+000
4.339233e+002;0.000000e+000
4.358519e+002;0.000000e+000
4.377804e+002;0.000000e+000
4.397090e+002;0.000000e+000
4.416375e+002;0.000000e+000
4.435660e+002;0.000000e+000
4.454946e+002;0.000000e+000
4.474232e+002;0.000000e+000
4.493517e+002;0.000000e+000
4.512802e+002;0.000000e+000
4.532088e+002;0.000000e+000
4.551373e+002;0.000000e+000
4.570659e+002;0.000000e+000
4.589944e+002;0.000000e+000
4.609230e+002;0.000000e+000
4.628515e+002;0.000000e+000
4.647801e+002;0.000000e+000
4.667086e+002;0.000000e+000
4.686372e+002;0.000000e+000
4.705657e+002;0.000000e+000
4.724943e+002;0.000000e+000
4.744228e+002;0.000000e+000
4.763513e+002;0.000000e+000
4.782799e+002;0.000000e+000
4.802085e+002;0.000000e+000
4.821370e+002;0.000000e+000
4.840656e+002;0.000000e+000
4.859941e+002;0.000000e+000
4.879226e+002;0.000000e+000
4.898512e+002;0.000000e+000
4.917798e+002;0.000000e+000
4.937083e+002;0.000000e+000
4.956368e+002;0.000000e+000
4.975654e+002;0.000000e+000
4.994939e+002;0.000000e+000
5.014225e+002;0.000000e+000
5.033510e+002;0.000000e+000
5.052796e+002;0.000000e+000
5.072081e+002;0.000000e+000
5.091367e+002;0.000000e+000
5.110652e+002;0.000000e+000
5.129938e+002;0.000000e+000
5.149223e+002;0.000000e+000
5.168509e+002;0.000000e+000
5.187794e+002;0.000000e+000
5.207079e+002;0.000000e+000
5.226365e+002;0.000000e+000
5.245651e+002;0.000000e+000
5.264936e+002;0.000000e+000
5.284222e+002;0.000000e+000
5.303507e+002;0.000000e+000
5.322792e+002;0.000000e+000
5.342078e+002;0.000000e+000
5.361364e+002;0.000000e+000
5.380649e+002;0.000000e+000
5.399935e+002;0.000000e+000
5.419220e+002;0.000000e+000
5.438505e+002;0.000000e+000
5.457791e+002;0.000000e+000
5.477076e+002;0.000000e+000
5.496362e+002;0.000000e+000
5.515648e+002;0.000000e+000
5.534933e+002;0.000000e+000
5.554218e+002;0.000000e+000
5.573504e+002;0.000000e+000
5.592789e+002;0.000000e+000
5.612075e+002;0.000000e+000
5.631360e+002;0.000000e+000
5.650646e+002;0.000000e+000
5.669931e+002;0.000000e+000
5.689217e+002;0.000000e+000
5.708502e+002;0.000000e+000
5.727787e+002;0.000000e+000
5.747073e+002;0.000000e+000
5.766359e+002;0.000000e+000
5.785644e+002;0.000000e+000
5.804930e+002;0.000000e+000
5.824215e+002;0.000000e+000
5.843500e+002;0.000000e+000
5.862786e+002;0.000000e+000
5.882072e+002;0.000000e+000
5.901357e+002;0.000000e+000
5.920643e+002;0.000000e+000
5.939928e+002;0.000000e+000
5.959213e+002;0.000000e+000
5.978499e+002;0.000000e+000
5.997784e+002;1.113895e-001
6.017070e+002;1.101265e-001
6.036355e+002;1.087359e-001
6.055641e+002;1.067068e-001
6.074926e+002;1.062089e-001
6.094211e+002;1.097214e-001
6.113497e+002;1.133534e-001
6.132783e+002;1.143586e-001
6.152068e+002;1.170269e-001
6.171354e+002;1.156998e-001
6.190639e+002;1.108643e-001
6.209924e+002;1.135647e-001
6.229210e+002;1.204064e-001
6.248495e+002;1.216855e-001
6.267781e+002;1.210673e-001
6.287067e+002;1.237876e-001
6.306352e+002;1.245434e-001
6.325637e+002;1.192152e-001
6.344923e+002;1.167089e-001
6.364208e+002;1.207525e-001
6.383494e+002;1.293811e-001
6.402780e+002;1.343293e-001
6.422065e+002;1.356303e-001
6.441350e+002;1.378354e-001
6.460636e+002;1.347716e-001
6.479921e+002;1.330602e-001
6.499207e+002;1.339639e-001
6.518492e+002;1.338884e-001
6.537778e+002;1.354029e-001
6.557063e+002;1.361958e-001
6.576349e+002;1.367499e-001
6.595634e+002;1.407986e-001
6.614919e+002;1.445637e-001
6.634205e+002;1.465443e-001
6.653491e+002;1.475096e-001
6.672776e+002;1.477845e-001
6.692062e+002;1.465714e-001
6.711347e+002;1.454846e-001
6.730632e+002;1.459050e-001
6.749918e+002;1.468232e-001
6.769203e+002;1.467912e-001
6.788489e+002;1.474968e-001
6.807775e+002;1.483798e-001
6.827060e+002;1.488829e-001
6.846345e+002;1.487695e-001
6.865631e+002;1.486021e-001
6.884916e+002;1.481490e-001
6.904202e+002;1.471863e-001
6.923488e+002;1.460216e-001
6.942773e+002;1.447259e-001
6.962058e+002;1.430066e-001
6.981344e+002;1.398193e-001
7.000629e+002;1.372805e-001
7.019915e+002;1.358459e-001
7.039200e+002;1.347052e-001
7.058486e+002;1.339571e-001
7.077771e+002;1.333157e-001
7.097057e+002;1.325491e-001
7.116342e+002;1.326776e-001
7.135627e+002;1.317265e-001
7.154913e+002;1.301821e-001
7.174199e+002;1.291108e-001
7.193484e+002;1.282446e-001
7.212770e+002;1.282513e-001
7.232055e+002;1.289594e-001
7.251340e+002;1.295180e-001
7.270626e+002;1.296066e-001
7.289911e+002;1.269424e-001
7.309197e+002;1.217089e-001
7.328483e+002;1.164435e-001
7.347768e+002;1.110527e-001
7.367053e+002;1.071342e-001
7.386339e+002;1.043926e-001
7.405624e+002;1.017682e-001
7.424910e+002;1.000688e-001
7.444196e+002;9.755412e-002
7.463481e+002;9.447282e-002
7.482766e+002;9.249698e-002
7.502052e+002;9.082826e-002
7.521337e+002;8.908712e-002
7.540623e+002;8.801187e-002
7.559908e+002;8.666718e-002
7.579194e+002;8.393448e-002
7.598479e+002;8.267604e-002
7.617765e+002;8.276022e-002
7.637050e+002;8.164479e-002
7.656335e+002;8.036378e-002
7.675621e+002;7.917733e-002
7.694907e+002;7.751119e-002
7.714192e+002;7.635649e-002
7.733478e+002;7.568711e-002
7.752763e+002;7.494871e-002
7.772048e+002;7.404736e-002
7.791334e+002;7.211363e-002
7.810620e+002;7.053863e-002
7.829905e+002;6.900632e-002
7.849191e+002;6.757025e-002
7.868476e+002;6.680559e-002
7.887761e+002;6.673291e-002
7.907047e+002;6.721441e-002
7.926332e+002;6.713868e-002
7.945618e+002;6.568043e-002
7.964903e+002;6.395180e-002
7.984189e+002;6.229215e-002
8.003474e+002;6.122378e-002
8.022759e+002;6.010242e-002
8.042045e+002;5.880284e-002
8.061331e+002;5.825854e-002
8.080616e+002;5.769433e-002
8.099902e+002;5.736664e-002
8.119187e+002;5.771106e-002
8.138472e+002;5.810727e-002
8.157758e+002;5.857489e-002
8.177043e+002;5.977241e-002
8.196329e+002;6.097381e-002
8.215615e+002;6.193250e-002
8.234900e+002;6.406713e-002
8.254185e+002;6.604891e-002
8.273471e+002;6.635312e-002
8.292756e+002;6.729483e-002
8.312042e+002;6.858531e-002
8.331328e+002;6.769113e-002
8.350613e+002;6.555071e-002
8.369898e+002;6.276208e-002
8.389184e+002;5.986577e-002
8.408469e+002;5.715055e-002
8.427755e+002;5.452249e-002
8.447040e+002;5.287773e-002
8.466326e+002;5.173667e-002
8.485611e+002;5.083603e-002
8.504897e+002;5.031062e-002
8.524182e+002;4.969003e-002
8.543467e+002;4.866188e-002
8.562753e+002;4.806684e-002
8.582039e+002;4.859829e-002
8.601324e+002;4.863542e-002
8.620610e+002;4.862804e-002
8.639895e+002;4.921265e-002
8.659180e+002;4.954420e-002
8.678466e+002;4.937102e-002
8.697751e+002;4.974052e-002
8.717037e+002;5.058445e-002
8.736323e+002;5.093114e-002
8.755608e+002;5.123396e-002
8.774893e+002;5.211696e-002
8.794179e+002;5.272768e-002
8.813464e+002;5.315202e-002
8.832750e+002;5.383250e-002
8.852036e+002;5.456791e-002
8.871321e+002;5.462817e-002
8.890606e+002;5.392275e-002
8.909892e+002;5.338569e-002
8.929177e+002;5.315644e-002
8.948463e+002;5.347086e-002
8.967748e+002;5.357138e-002
8.987034e+002;5.331589e-002
9.006319e+002;5.342668e-002
9.025605e+002;5.393040e-002
9.044890e+002;5.460022e-002
9.064175e+002;5.555954e-002
9.083461e+002;5.642109e-002
9.102747e+002;5.688090e-002
9.122032e+002;5.664928e-002
9.141318e+002;5.678263e-002
9.160603e+002;5.721330e-002
9.179888e+002;5.765929e-002
9.199174e+002;5.851169e-002
9.218459e+002;5.976709e-002
9.237745e+002;6.100244e-002
9.257031e+002;6.205052e-002
9.276316e+002;6.269295e-002
9.295601e+002;6.247370e-002
9.314887e+002;6.170183e-002
9.334172e+002;6.093809e-002
9.353458e+002;5.992324e-002
9.372744e+002;5.872875e-002
9.392029e+002;5.808716e-002
9.411314e+002;5.790675e-002
9.430600e+002;5.829575e-002
9.449885e+002;5.968823e-002
9.469171e+002;6.160388e-002
9.488456e+002;6.322720e-002
9.507742e+002;6.445377e-002
9.527027e+002;6.549300e-002
9.546313e+002;6.584747e-002
9.565598e+002;6.634771e-002
9.584883e+002;6.707012e-002
9.604169e+002;6.694353e-002
9.623455e+002;6.610277e-002
9.642740e+002;6.513592e-002
9.662026e+002;6.432369e-002
9.681311e+002;6.398071e-002
9.700596e+002;6.352345e-002
9.719882e+002;6.300829e-002
9.739167e+002;6.255168e-002
9.758453e+002;6.202009e-002
9.777739e+002;6.147980e-002
9.797024e+002;6.120199e-002
9.816309e+002;6.147556e-002
9.835595e+002;6.207769e-002
9.854880e+002;6.246735e-002
9.874166e+002;6.296727e-002
9.893452e+002;6.361137e-002
9.912737e+002;6.312431e-002
9.932022e+002;6.150748e-002
9.951307e+002;5.942604e-002
9.970593e+002;5.760269e-002
9.989879e+002;5.638801e-002
1.000916e+003;5.531198e-002
1.002845e+003;5.480681e-002
1.004773e+003;5.521234e-002
1.006702e+003;5.563727e-002
1.008631e+003;5.573690e-002
1.010559e+003;5.590306e-002
1.012488e+003;5.653683e-002
1.014416e+003;5.770122e-002
1.016345e+003;5.812852e-002
1.018273e+003;5.806398e-002
1.020202e+003;5.842108e-002
1.022130e+003;5.923320e-002
1.024059e+003;6.051746e-002
1.025988e+003;6.198952e-002
1.027916e+003;6.344016e-002
1.029845e+003;6.563626e-002
1.031773e+003;6.879792e-002
1.033702e+003;7.147025e-002
1.035630e+003;7.298506e-002
1.037559e+003;7.502774e-002
1.039487e+003;7.847204e-002
1.041416e+003;8.234937e-002
1.043344e+003;8.554725e-002
1.045273e+003;8.665654e-002
1.047202e+003;8.505303e-002
1.049130e+003;8.119505e-002
1.051059e+003;7.620699e-002
1.052987e+003;7.128631e-002
1.054916e+003;6.807981e-002
1.056844e+003;6.671154e-002
1.058773e+003;6.624238e-002
1.060701e+003;6.631803e-002
1.062630e+003;6.702948e-002
1.064558e+003;6.800145e-002
1.066487e+003;6.885266e-002
1.068416e+003;6.926318e-002
1.070344e+003;6.977184e-002
1.072273e+003;7.045370e-002
1.074201e+003;7.109324e-002
1.076130e+003;7.093571e-002
1.078058e+003;7.045159e-002
1.079987e+003;7.017411e-002
1.081915e+003;6.984308e-002
1.083844e+003;6.968870e-002
1.085773e+003;6.941986e-002
1.087701e+003;6.978869e-002
1.089630e+003;7.050144e-002
1.091558e+003;7.093076e-002
1.093487e+003;7.153490e-002
1.095415e+003;7.171844e-002
1.097344e+003;7.217482e-002
1.099272e+003;7.392360e-002
1.101201e+003;7.600588e-002
1.103129e+003;7.750866e-002
1.105058e+003;7.849578e-002
1.106987e+003;7.922079e-002
1.108915e+003;7.962145e-002
1.110844e+003;7.982731e-002
1.112772e+003;8.047200e-002
1.114701e+003;8.114137e-002
1.116629e+003;8.100212e-002
1.118558e+003;8.033998e-002
1.120486e+003;7.960561e-002
1.122415e+003;7.824024e-002
1.124344e+003;7.651338e-002
1.126272e+003;7.424965e-002
1.128201e+003;7.141264e-002
1.130129e+003;6.867367e-002
1.132058e+003;6.702112e-002
1.133986e+003;6.708284e-002
1.135915e+003;6.822401e-002
1.137843e+003;7.000979e-002
1.139772e+003;7.196110e-002
1.141700e+003;7.377522e-002
1.143629e+003;7.534705e-002
1.145557e+003;7.664187e-002
1.147486e+003;7.859901e-002
1.149415e+003;8.145214e-002
1.151343e+003;8.442614e-002
1.153272e+003;8.672422e-002
1.155200e+003;8.864213e-002
1.157129e+003;9.075965e-002
1.159057e+003;9.344217e-002
1.160986e+003;9.737103e-002
1.162914e+003;1.023450e-001
1.164843e+003;1.068550e-001
1.166771e+003;1.099398e-001
1.168700e+003;1.112271e-001
1.170629e+003;1.107764e-001
1.172557e+003;1.090947e-001
1.174486e+003;1.066720e-001
1.176414e+003;1.043934e-001
1.178343e+003;1.026911e-001
1.180271e+003;1.018502e-001
1.182200e+003;1.023513e-001
1.184128e+003;1.041884e-001
1.186057e+003;1.064512e-001
1.187986e+003;1.087303e-001
1.189914e+003;1.112425e-001
1.191843e+003;1.140365e-001
1.193771e+003;1.167551e-001
1.195700e+003;1.187285e-001
1.197628e+003;1.197699e-001
1.199557e+003;1.192426e-001
1.201485e+003;1.168084e-001
1.203414e+003;1.133129e-001
1.205343e+003;1.104248e-001
1.207271e+003;1.084875e-001
1.209200e+003;1.076283e-001
1.211128e+003;1.073202e-001
1.213057e+003;1.063421e-001
1.214985e+003;1.045335e-001
1.216914e+003;1.026777e-001
1.218842e+003;1.013071e-001
1.220771e+003;1.008174e-001
1.222699e+003;1.014668e-001
1.224628e+003;1.030513e-001
1.226557e+003;1.053818e-001
1.228485e+003;1.081961e-001
1.230414e+003;1.105886e-001
1.232342e+003;1.127930e-001
1.234271e+003;1.150016e-001
1.236199e+003;1.161807e-001
1.238128e+003;1.162401e-001
1.240056e+003;1.157888e-001
1.241985e+003;1.152228e-001
1.243913e+003;1.150381e-001
1.245842e+003;1.153991e-001
1.247771e+003;1.162226e-001
1.249699e+003;1.174114e-001
1.251628e+003;1.190648e-001
1.253556e+003;1.207732e-001
1.255485e+003;1.224852e-001
1.257413e+003;1.234785e-001
1.259342e+003;1.238006e-001
1.261270e+003;1.232986e-001
1.263199e+003;1.214205e-001
1.265127e+003;1.180700e-001
1.267056e+003;1.135437e-001
1.268985e+003;1.096141e-001
1.270913e+003;1.070738e-001
1.272842e+003;1.056301e-001
1.274770e+003;1.054118e-001
1.276699e+003;1.060063e-001
1.278627e+003;1.065510e-001
1.280556e+003;1.067294e-001
1.282484e+003;1.066403e-001
1.284413e+003;1.064216e-001
1.286342e+003;1.061882e-001
1.288270e+003;1.061462e-001
1.290199e+003;1.063993e-001
1.292127e+003;1.063610e-001
1.294056e+003;1.064665e-001
1.295984e+003;1.067911e-001
1.297913e+003;1.064481e-001
1.299841e+003;1.056720e-001
1.301770e+003;1.047933e-001
1.303698e+003;1.038996e-001
1.305627e+003;1.027718e-001
1.307556e+003;1.017231e-001
1.309484e+003;1.010460e-001
1.311413e+003;1.008993e-001
1.313341e+003;1.014692e-001
1.315270e+003;1.023038e-001
1.317198e+003;1.035686e-001
1.319127e+003;1.049744e-001
1.321055e+003;1.061637e-001
1.322984e+003;1.070814e-001
1.324912e+003;1.079492e-001
1.326841e+003;1.087516e-001
1.328770e+003;1.090218e-001
1.330698e+003;1.087634e-001
1.332627e+003;1.079108e-001
1.334555e+003;1.066069e-001
1.336484e+003;1.050978e-001
1.338412e+003;1.036043e-001
1.340341e+003;1.024540e-001
1.342269e+003;1.014540e-001
1.344198e+003;1.006490e-001
1.346126e+003;1.003543e-001
1.348055e+003;1.005356e-001
1.349984e+003;1.008450e-001
1.351912e+003;1.012776e-001
1.353841e+003;1.018759e-001
1.355769e+003;1.027219e-001
1.357698e+003;1.040273e-001
1.359626e+003;1.052691e-001
1.361555e+003;1.064911e-001
1.363483e+003;1.078393e-001
1.365412e+003;1.092526e-001
1.367341e+003;1.106692e-001
1.369269e+003;1.117074e-001
1.371198e+003;1.121194e-001
1.373126e+003;1.120182e-001
1.375055e+003;1.111906e-001
1.376983e+003;1.094627e-001
1.378912e+003;1.074259e-001
1.380840e+003;1.053104e-001
1.382769e+003;1.028465e-001
1.384698e+003;1.002810e-001
1.386626e+003;9.786777e-002
1.388555e+003;9.577682e-002
1.390483e+003;9.391362e-002
1.392412e+003;9.245619e-002
1.394340e+003;9.200998e-002
1.396269e+003;9.239023e-002
1.398197e+003;9.311285e-002
1.400126e+003;9.456681e-002
1.402054e+003;9.659809e-002
1.403983e+003;9.924827e-002
1.405911e+003;1.027487e-001
1.407840e+003;1.074846e-001
1.409769e+003;1.130317e-001
1.411697e+003;1.184227e-001
1.413626e+003;1.236013e-001
1.415554e+003;1.278691e-001
1.417483e+003;1.294260e-001
1.419411e+003;1.283895e-001
1.421340e+003;1.260983e-001
1.423268e+003;1.235428e-001
1.425197e+003;1.215732e-001
1.427125e+003;1.209600e-001
1.429054e+003;1.218070e-001
1.430983e+003;1.237007e-001
1.432911e+003;1.258537e-001
1.434840e+003;1.271398e-001
1.436768e+003;1.271524e-001
1.438697e+003;1.267601e-001
1.440625e+003;1.256896e-001
1.442554e+003;1.245228e-001
1.444482e+003;1.239836e-001
1.446411e+003;1.239001e-001
1.448340e+003;1.246644e-001
1.450268e+003;1.267353e-001
1.452197e+003;1.294139e-001
1.454125e+003;1.323245e-001
1.456054e+003;1.357372e-001
1.457982e+003;1.401077e-001
1.459911e+003;1.438364e-001
1.461839e+003;1.453419e-001
1.463768e+003;1.443558e-001
1.465697e+003;1.408353e-001
1.467625e+003;1.359126e-001
1.469554e+003;1.313086e-001
1.471482e+003;1.286564e-001
1.473411e+003;1.279707e-001
1.475339e+003;1.278239e-001
1.477268e+003;1.267237e-001
1.479196e+003;1.241936e-001
1.481125e+003;1.206814e-001
1.483053e+003;1.168134e-001
1.484982e+003;1.131748e-001
1.486911e+003;1.105248e-001
1.488839e+003;1.097921e-001
1.490768e+003;1.106970e-001
1.492696e+003;1.126859e-001
1.494625e+003;1.155796e-001
1.496553e+003;1.199659e-001
1.498482e+003;1.247666e-001
1.500410e+003;1.291518e-001
1.502339e+003;1.332975e-001
1.504267e+003;1.371409e-001
1.506196e+003;1.413226e-001
1.508125e+003;1.465521e-001
1.510053e+003;1.520708e-001
1.511982e+003;1.574029e-001
1.513910e+003;1.625552e-001
1.515839e+003;1.675912e-001
1.517767e+003;1.727233e-001
1.519696e+003;1.773346e-001
1.521624e+003;1.819205e-001
1.523553e+003;1.870852e-001
1.525481e+003;1.918778e-001
1.527410e+003;1.970924e-001
1.529339e+003;2.021106e-001
1.531267e+003;2.056199e-001
1.533196e+003;2.083559e-001
1.535124e+003;2.104060e-001
1.537053e+003;2.109018e-001
1.538981e+003;2.093971e-001
1.540910e+003;2.066847e-001
1.542838e+003;2.034457e-001
1.544767e+003;1.986950e-001
1.546695e+003;1.922455e-001
1.548624e+003;1.849817e-001
1.550553e+003;1.774967e-001
1.552481e+003;1.702333e-001
1.554410e+003;1.632128e-001
1.556338e+003;1.565300e-001
1.558267e+003;1.498990e-001
1.560195e+003;1.436343e-001
1.562124e+003;1.376876e-001
1.564052e+003;1.318244e-001
1.565981e+003;1.265010e-001
1.567910e+003;1.214994e-001
1.569838e+003;1.165799e-001
1.571767e+003;1.123114e-001
1.573695e+003;1.085665e-001
1.575624e+003;1.051116e-001
1.577552e+003;1.028830e-001
1.579481e+003;1.015123e-001
1.581409e+003;1.003533e-001
1.583338e+003;9.966984e-002
1.585266e+003;9.938116e-002
1.587195e+003;9.971561e-002
1.589124e+003;1.003823e-001
1.591052e+003;1.008948e-001
1.592981e+003;1.015706e-001
1.594909e+003;1.029587e-001
1.596838e+003;1.047465e-001
1.598766e+003;1.071168e-001
1.600695e+003;1.105087e-001
1.602623e+003;1.150155e-001
1.604552e+003;1.204133e-001
1.606480e+003;1.261491e-001
1.608409e+003;1.325668e-001
1.610338e+003;1.394810e-001
1.612266e+003;1.463493e-001
1.614195e+003;1.535966e-001
1.616123e+003;1.618617e-001
1.618052e+003;1.711117e-001
1.619980e+003;1.810539e-001
1.621909e+003;1.911104e-001
1.623837e+003;2.012502e-001
1.625766e+003;2.113850e-001
1.627694e+003;2.212159e-001
1.629623e+003;2.314699e-001
1.631552e+003;2.415620e-001
1.633480e+003;2.497133e-001
1.635409e+003;2.546656e-001
1.637337e+003;2.554243e-001
1.639266e+003;2.513709e-001
1.641194e+003;2.431229e-001
1.643123e+003;2.321201e-001
1.645051e+003;2.198256e-001
1.646980e+003;2.075344e-001
1.648909e+003;1.961637e-001
1.650837e+003;1.854770e-001
1.652766e+003;1.754135e-001
1.654694e+003;1.673899e-001
1.656623e+003;1.605235e-001
1.658551e+003;1.532186e-001
1.660480e+003;1.460690e-001
1.662408e+003;1.389849e-001
1.664337e+003;1.321585e-001
1.666266e+003;1.253618e-001
1.668194e+003;1.186546e-001
1.670123e+003;1.122732e-001
1.672051e+003;1.061536e-001
1.673980e+003;1.000154e-001
1.675908e+003;9.397919e-002
1.677837e+003;8.824103e-002
1.679765e+003;8.240256e-002
1.681694e+003;7.649405e-002
1.683622e+003;7.063565e-002
1.685551e+003;6.568155e-002
1.687479e+003;6.158914e-002
1.689408e+003;5.775527e-002
1.691337e+003;5.465775e-002
1.693265e+003;5.221871e-002
1.695194e+003;5.017065e-002
1.697122e+003;4.897495e-002
1.699051e+003;4.795733e-002
1.700979e+003;4.715416e-002
1.702908e+003;4.717075e-002
1.704836e+003;4.666694e-002
1.706765e+003;4.606302e-002
1.708693e+003;4.573975e-002
1.710622e+003;4.543842e-002
1.712551e+003;4.516318e-002
1.714479e+003;4.491703e-002
1.716408e+003;4.469386e-002
1.718336e+003;4.456637e-002
1.720265e+003;4.456079e-002
1.722193e+003;4.454948e-002
1.724122e+003;4.441807e-002
1.726050e+003;4.426765e-002
1.727979e+003;4.410248e-002
1.729908e+003;4.384447e-002
1.731836e+003;4.347391e-002
1.733765e+003;4.295692e-002
1.735693e+003;4.299895e-002
1.737622e+003;4.302346e-002
1.739550e+003;4.222523e-002
1.741479e+003;4.136952e-002
1.743407e+003;4.094273e-002
1.745336e+003;4.034319e-002
1.747265e+003;3.931141e-002
1.749193e+003;3.835311e-002
1.751122e+003;3.743459e-002
1.753050e+003;3.665921e-002
1.754979e+003;3.581298e-002
1.756907e+003;3.506279e-002
1.758836e+003;3.454908e-002
1.760764e+003;3.383910e-002
1.762693e+003;3.317335e-002
1.764621e+003;3.262539e-002
1.766550e+003;3.213150e-002
1.768479e+003;3.151620e-002
1.770407e+003;3.086498e-002
1.772336e+003;3.050085e-002
1.774264e+003;3.016902e-002
1.776193e+003;2.993151e-002
1.778121e+003;2.969938e-002
1.780050e+003;2.930173e-002
1.781978e+003;2.889351e-002
1.783907e+003;2.865673e-002
1.785835e+003;2.857083e-002
1.787764e+003;2.834190e-002
1.789693e+003;2.786982e-002
1.791621e+003;2.745224e-002
1.793550e+003;2.732269e-002
1.795478e+003;2.734622e-002
1.797407e+003;2.713148e-002
1.799335e+003;2.687169e-002
1.801264e+003;2.647395e-002
1.803192e+003;2.609761e-002
1.805121e+003;2.596395e-002
1.807049e+003;2.581610e-002
1.808978e+003;2.577331e-002
1.810907e+003;2.604089e-002
1.812835e+003;2.607372e-002
1.814764e+003;2.584969e-002
1.816692e+003;2.560637e-002
1.818621e+003;2.540896e-002
1.820549e+003;2.532044e-002
1.822478e+003;2.517249e-002
1.824406e+003;2.488583e-002
1.826335e+003;2.477171e-002
1.828264e+003;2.486924e-002
1.830192e+003;2.477272e-002
1.832121e+003;2.457180e-002
1.834049e+003;2.445232e-002
1.835978e+003;2.437939e-002
1.837906e+003;2.437812e-002
1.839835e+003;2.416653e-002
1.841763e+003;2.387370e-002
1.843692e+003;2.383989e-002
1.845620e+003;2.391431e-002
1.847549e+003;2.398241e-002
1.849478e+003;2.397580e-002
1.851406e+003;2.390497e-002
1.853335e+003;2.365885e-002
1.855263e+003;2.338735e-002
1.857192e+003;2.344023e-002
1.859120e+003;2.343533e-002
1.861049e+003;2.325652e-002
1.862977e+003;2.319535e-002
1.864906e+003;2.345096e-002
1.866834e+003;2.355932e-002
1.868763e+003;2.332662e-002
1.870692e+003;2.321772e-002
1.872620e+003;2.338651e-002
1.874549e+003;2.330634e-002
1.876477e+003;2.304526e-002
1.878406e+003;2.298716e-002
1.880334e+003;2.312724e-002
1.882263e+003;2.308555e-002
1.884191e+003;2.303625e-002
1.886120e+003;2.328313e-002
1.888048e+003;2.328131e-002
1.889977e+003;2.318494e-002
1.891906e+003;2.327890e-002
1.893834e+003;2.323450e-002
1.895763e+003;2.319074e-002
1.897691e+003;2.319214e-002
1.899620e+003;2.317644e-002
1.901548e+003;2.326411e-002
1.903477e+003;2.332291e-002
1.905405e+003;2.334438e-002
1.907334e+003;2.338795e-002
1.909262e+003;2.333665e-002
1.911191e+003;2.318819e-002
1.913120e+003;2.292725e-002
1.915048e+003;2.274736e-002
1.916977e+003;2.256636e-002
1.918905e+003;2.262821e-002
1.920834e+003;2.289833e-002
1.922762e+003;2.300631e-002
1.924691e+003;2.294451e-002
1.926619e+003;2.295027e-002
1.928548e+003;2.281130e-002
1.930477e+003;2.273912e-002
1.932405e+003;2.291971e-002
1.934334e+003;2.295380e-002
1.936262e+003;2.290563e-002
1.938191e+003;2.287870e-002
1.940119e+003;2.301563e-002
1.942048e+003;2.297081e-002
1.943976e+003;2.296826e-002
1.945905e+003;2.305015e-002
1.947833e+003;2.281689e-002
1.949762e+003;2.271566e-002
1.951691e+003;2.272655e-002
1.953619e+003;2.282279e-002
1.955548e+003;2.286962e-002
1.957476e+003;2.296976e-002
1.959405e+003;2.286431e-002
1.961333e+003;2.283326e-002
1.963262e+003;2.287255e-002
1.965190e+003;2.294178e-002
1.967119e+003;2.306123e-002
1.969047e+003;2.321049e-002
1.970976e+003;2.340879e-002
1.972905e+003;2.341568e-002
1.974833e+003;2.334473e-002
1.976762e+003;2.336246e-002
1.978690e+003;2.337725e-002
1.980619e+003;2.327603e-002
1.982547e+003;2.309446e-002
1.984476e+003;2.311742e-002
1.986404e+003;2.338913e-002
1.988333e+003;2.359714e-002
1.990261e+003;2.356425e-002
1.992190e+003;2.345246e-002
1.994119e+003;2.337658e-002
1.996047e+003;2.347324e-002
1.997976e+003;2.342886e-002
1.999904e+003;2.327676e-002
2.001833e+003;2.335106e-002
2.003761e+003;2.355785e-002
2.005690e+003;2.360385e-002
2.007618e+003;2.358629e-002
2.009547e+003;2.366609e-002
2.011476e+003;2.363387e-002
2.013404e+003;2.370280e-002
2.015333e+003;2.379397e-002
2.017261e+003;2.392051e-002
2.019190e+003;2.415815e-002
2.021118e+003;2.427510e-002
2.023047e+003;2.421743e-002
2.024975e+003;2.402744e-002
2.026904e+003;2.430064e-002
2.028833e+003;2.473498e-002
2.030761e+003;2.465179e-002
2.032690e+003;2.445835e-002
2.034618e+003;2.451522e-002
2.036547e+003;2.470934e-002
2.038475e+003;2.477476e-002
2.040404e+003;2.484373e-002
2.042332e+003;2.487962e-002
2.044261e+003;2.481173e-002
2.046189e+003;2.485864e-002
2.048118e+003;2.479574e-002
2.050047e+003;2.461479e-002
2.051975e+003;2.474463e-002
2.053904e+003;2.502481e-002
2.055832e+003;2.508953e-002
2.057761e+003;2.502182e-002
2.059689e+003;2.493156e-002
2.061618e+003;2.510347e-002
2.063546e+003;2.528420e-002
2.065475e+003;2.513187e-002
2.067404e+003;2.518166e-002
2.069332e+003;2.539175e-002
2.071260e+003;2.543826e-002
2.073189e+003;2.557330e-002
2.075118e+003;2.571439e-002
2.077046e+003;2.540193e-002
2.078975e+003;2.503972e-002
2.080903e+003;2.507124e-002
2.082832e+003;2.516996e-002
2.084760e+003;2.512636e-002
2.086689e+003;2.503628e-002
2.088617e+003;2.513064e-002
2.090546e+003;2.511530e-002
2.092475e+003;2.496279e-002
2.094403e+003;2.458316e-002
2.096332e+003;2.449288e-002
2.098260e+003;2.453296e-002
2.100189e+003;2.442996e-002
2.102117e+003;2.443087e-002
2.104046e+003;2.438685e-002
2.105974e+003;2.440055e-002
2.107903e+003;2.464106e-002
2.109832e+003;2.486236e-002
2.111760e+003;2.487896e-002
2.113688e+003;2.484208e-002
2.115617e+003;2.498076e-002
2.117546e+003;2.517151e-002
2.119474e+003;2.525442e-002
2.121403e+003;2.529192e-002
2.123331e+003;2.521442e-002
2.125260e+003;2.504983e-002
2.127188e+003;2.509792e-002
2.129117e+003;2.526534e-002
2.131045e+003;2.544244e-002
2.132974e+003;2.551068e-002
2.134903e+003;2.561596e-002
2.136831e+003;2.561906e-002
2.138760e+003;2.549072e-002
2.140688e+003;2.535651e-002
2.142617e+003;2.531240e-002
2.144545e+003;2.566742e-002
2.146474e+003;2.572159e-002
2.148402e+003;2.532859e-002
2.150331e+003;2.512158e-002
2.152260e+003;2.523510e-002
2.154188e+003;2.550284e-002
2.156117e+003;2.566707e-002
2.158045e+003;2.564366e-002
2.159974e+003;2.565034e-002
2.161902e+003;2.587314e-002
2.163831e+003;2.595840e-002
2.165759e+003;2.599213e-002
2.167688e+003;2.623116e-002
2.169616e+003;2.627290e-002
2.171545e+003;2.614328e-002
2.173474e+003;2.611478e-002
2.175402e+003;2.627076e-002
2.177331e+003;2.629755e-002
2.179259e+003;2.616886e-002
2.181188e+003;2.611692e-002
2.183116e+003;2.622634e-002
2.185045e+003;2.635834e-002
2.186973e+003;2.653072e-002
2.188902e+003;2.667931e-002
2.190831e+003;2.657404e-002
2.192759e+003;2.637905e-002
2.194688e+003;2.620423e-002
2.196616e+003;2.613389e-002
2.198545e+003;2.630173e-002
2.200473e+003;2.633261e-002
2.202402e+003;2.635377e-002
2.204330e+003;2.638165e-002
2.206259e+003;2.612326e-002
2.208188e+003;2.574641e-002
2.210116e+003;2.562858e-002
2.212044e+003;2.591876e-002
2.213973e+003;2.603480e-002
2.215902e+003;2.589797e-002
2.217830e+003;2.600641e-002
2.219759e+003;2.605992e-002
2.221687e+003;2.577314e-002
2.223616e+003;2.560886e-002
2.225544e+003;2.560124e-002
2.227473e+003;2.564640e-002
2.229401e+003;2.548636e-002
2.231330e+003;2.519177e-002
2.233259e+003;2.518735e-002
2.235187e+003;2.541332e-002
2.237116e+003;2.568946e-002
2.239044e+003;2.573956e-002
2.240973e+003;2.549490e-002
2.242901e+003;2.544595e-002
2.244830e+003;2.566116e-002
2.246758e+003;2.562433e-002
2.248687e+003;2.544121e-002
2.250615e+003;2.555162e-002
2.252544e+003;2.589076e-002
2.254473e+003;2.595157e-002
2.256401e+003;2.595660e-002
2.258330e+003;2.609061e-002
2.260258e+003;2.607980e-002
2.262187e+003;2.590884e-002
2.264115e+003;2.584694e-002
2.266044e+003;2.598636e-002
2.267972e+003;2.612111e-002
2.269901e+003;2.631275e-002
2.271830e+003;2.636517e-002
2.273758e+003;2.626252e-002
2.275687e+003;2.625780e-002
2.277615e+003;2.630709e-002
2.279544e+003;2.644697e-002
2.281472e+003;2.648366e-002
2.283401e+003;2.657344e-002
2.285329e+003;2.677251e-002
2.287258e+003;2.695467e-002
2.289187e+003;2.688339e-002
2.291115e+003;2.670904e-002
2.293043e+003;2.664348e-002
2.294972e+003;2.679743e-002
2.296901e+003;2.703221e-002
2.298829e+003;2.694952e-002
2.300758e+003;2.687983e-002
2.302686e+003;2.704293e-002
2.304615e+003;2.704487e-002
2.306543e+003;2.697734e-002
2.308472e+003;2.670947e-002
2.310400e+003;2.650853e-002
2.312329e+003;2.649317e-002
2.314258e+003;2.660529e-002
2.316186e+003;2.675144e-002
2.318115e+003;2.683771e-002
2.320043e+003;2.696980e-002
2.321972e+003;2.673103e-002
2.323900e+003;2.633095e-002
2.325829e+003;2.612766e-002
2.327757e+003;2.592906e-002
2.329686e+003;2.580295e-002
2.331615e+003;2.593634e-002
2.333543e+003;2.606513e-002
2.335472e+003;2.592966e-002
2.337400e+003;2.570711e-002
2.339329e+003;2.568570e-002
2.341257e+003;2.576009e-002
2.343186e+003;2.577859e-002
2.345114e+003;2.622275e-002
2.347043e+003;2.676898e-002
2.348971e+003;2.695471e-002
2.350900e+003;2.668205e-002
2.352829e+003;2.610514e-002
2.354757e+003;2.563888e-002
2.356686e+003;2.533066e-002
2.358614e+003;2.516596e-002
2.360543e+003;2.511642e-002
2.362471e+003;2.498936e-002
2.364400e+003;2.516175e-002
2.366328e+003;2.541673e-002
2.368257e+003;2.578657e-002
2.370186e+003;2.643961e-002
2.372114e+003;2.713518e-002
2.374042e+003;2.750685e-002
2.375971e+003;2.763232e-002
2.377900e+003;2.784844e-002
2.379828e+003;2.804799e-002
2.381757e+003;2.819101e-002
2.383685e+003;2.812183e-002
2.385614e+003;2.794384e-002
2.387542e+003;2.787692e-002
2.389471e+003;2.793921e-002
2.391399e+003;2.816068e-002
2.393328e+003;2.829412e-002
2.395257e+003;2.843083e-002
2.397185e+003;2.852745e-002
2.399114e+003;2.833823e-002
2.401042e+003;2.819936e-002
2.402971e+003;2.817560e-002
2.404899e+003;2.823496e-002
2.406828e+003;2.852639e-002
2.408756e+003;2.889227e-002
2.410685e+003;2.885509e-002
2.412614e+003;2.864767e-002
2.414542e+003;2.845252e-002
2.416471e+003;2.847986e-002
2.418399e+003;2.865733e-002
2.420328e+003;2.883586e-002
2.422256e+003;2.881667e-002
2.424185e+003;2.888164e-002
2.426113e+003;2.908592e-002
2.428042e+003;2.930719e-002
2.429970e+003;2.947113e-002
2.431899e+003;2.943184e-002
2.433828e+003;2.954809e-002
2.435756e+003;2.979334e-002
2.437685e+003;2.989871e-002
2.439613e+003;3.001505e-002
2.441542e+003;3.008855e-002
2.443470e+003;3.011135e-002
2.445399e+003;3.022966e-002
2.447327e+003;3.032050e-002
2.449256e+003;3.037450e-002
2.451185e+003;3.044956e-002
2.453113e+003;3.052342e-002
2.455042e+003;3.064668e-002
2.456970e+003;3.088686e-002
2.458899e+003;3.095261e-002
2.460827e+003;3.095453e-002
2.462756e+003;3.108446e-002
2.464684e+003;3.119392e-002
2.466613e+003;3.129308e-002
2.468542e+003;3.124551e-002
2.470470e+003;3.112792e-002
2.472398e+003;3.126143e-002
2.474327e+003;3.147323e-002
2.476256e+003;3.153647e-002
2.478184e+003;3.142008e-002
2.480113e+003;3.127816e-002
2.482041e+003;3.124971e-002
2.483970e+003;3.126936e-002
2.485898e+003;3.099353e-002
2.487827e+003;3.081496e-002
2.489755e+003;3.105606e-002
2.491684e+003;3.130116e-002
2.493613e+003;3.140523e-002
2.495541e+003;3.146237e-002
2.497470e+003;3.137495e-002
2.499398e+003;3.135519e-002
2.501327e+003;3.150861e-002
2.503255e+003;3.165980e-002
2.505184e+003;3.159320e-002
2.507112e+003;3.156358e-002
2.509041e+003;3.164583e-002
2.510969e+003;3.196930e-002
2.512898e+003;3.241313e-002
2.514827e+003;3.265347e-002
2.516755e+003;3.254267e-002
2.518684e+003;3.250135e-002
2.520612e+003;3.263561e-002
2.522541e+003;3.274696e-002
2.524469e+003;3.302002e-002
2.526398e+003;3.323400e-002
2.528326e+003;3.341131e-002
2.530255e+003;3.364984e-002
2.532184e+003;3.387364e-002
2.534112e+003;3.413912e-002
2.536041e+003;3.433573e-002
2.537969e+003;3.445656e-002
2.539898e+003;3.453441e-002
2.541826e+003;3.467621e-002
2.543755e+003;3.465744e-002
2.545683e+003;3.465550e-002
2.547612e+003;3.474326e-002
2.549541e+003;3.470194e-002
2.551469e+003;3.478001e-002
2.553397e+003;3.493479e-002
2.555326e+003;3.496671e-002
2.557255e+003;3.489601e-002
2.559183e+003;3.505148e-002
2.561112e+003;3.513489e-002
2.563040e+003;3.486086e-002
2.564969e+003;3.477524e-002
2.566897e+003;3.488797e-002
2.568826e+003;3.504307e-002
2.570754e+003;3.530633e-002
2.572683e+003;3.553583e-002
2.574612e+003;3.569965e-002
2.576540e+003;3.580445e-002
2.578469e+003;3.592249e-002
2.580397e+003;3.611584e-002
2.582326e+003;3.609856e-002
2.584254e+003;3.617875e-002
2.586183e+003;3.632218e-002
2.588111e+003;3.629610e-002
2.590040e+003;3.647260e-002
2.591969e+003;3.664352e-002
2.593897e+003;3.654872e-002
2.595826e+003;3.661086e-002
2.597754e+003;3.672927e-002
2.599683e+003;3.651268e-002
2.601611e+003;3.657208e-002
2.603540e+003;3.675418e-002
2.605468e+003;3.693863e-002
2.607397e+003;3.720788e-002
2.609325e+003;3.728961e-002
2.611254e+003;3.705297e-002
2.613183e+003;3.718683e-002
2.615111e+003;3.750980e-002
2.617040e+003;3.758552e-002
2.618968e+003;3.779410e-002
2.620897e+003;3.801089e-002
2.622825e+003;3.795137e-002
2.624754e+003;3.807216e-002
2.626682e+003;3.817327e-002
2.628611e+003;3.806988e-002
2.630540e+003;3.802337e-002
2.632468e+003;3.811843e-002
2.634396e+003;3.813105e-002
2.636325e+003;3.820771e-002
2.638254e+003;3.841091e-002
2.640182e+003;3.839010e-002
2.642111e+003;3.842753e-002
2.644039e+003;3.853314e-002
2.645968e+003;3.877768e-002
2.647896e+003;3.905253e-002
2.649825e+003;3.904459e-002
2.651753e+003;3.901613e-002
2.653682e+003;3.913352e-002
2.655611e+003;3.905822e-002
2.657539e+003;3.915140e-002
2.659468e+003;3.963073e-002
2.661396e+003;3.991585e-002
2.663325e+003;3.999548e-002
2.665253e+003;4.007160e-002
2.667182e+003;3.999958e-002
2.669110e+003;3.988305e-002
2.671039e+003;3.999388e-002
2.672968e+003;4.040991e-002
2.674896e+003;4.054983e-002
2.676825e+003;4.036519e-002
2.678753e+003;4.048341e-002
2.680682e+003;4.076480e-002
2.682610e+003;4.092209e-002
2.684539e+003;4.133049e-002
2.686467e+003;4.147140e-002
2.688396e+003;4.170440e-002
2.690324e+003;4.199636e-002
2.692253e+003;4.219331e-002
2.694182e+003;4.243759e-002
2.696110e+003;4.250873e-002
2.698039e+003;4.276101e-002
2.699967e+003;4.310919e-002
2.701896e+003;4.340418e-002
2.703824e+003;4.352584e-002
2.705753e+003;4.385150e-002
2.707681e+003;4.420767e-002
2.709610e+003;4.446571e-002
2.711539e+003;4.473089e-002
2.713467e+003;4.482764e-002
2.715396e+003;4.484954e-002
2.717324e+003;4.511131e-002
2.719253e+003;4.535558e-002
2.721181e+003;4.578164e-002
2.723110e+003;4.636110e-002
2.725038e+003;4.679623e-002
2.726967e+003;4.683753e-002
2.728896e+003;4.685967e-002
2.730824e+003;4.715978e-002
2.732752e+003;4.742468e-002
2.734681e+003;4.767998e-002
2.736610e+003;4.803327e-002
2.738538e+003;4.818167e-002
2.740467e+003;4.858468e-002
2.742395e+003;4.901375e-002
2.744324e+003;4.935172e-002
2.746252e+003;4.956054e-002
2.748181e+003;4.926453e-002
2.750109e+003;4.894532e-002
2.752038e+003;4.901683e-002
2.753967e+003;4.950127e-002
2.755895e+003;4.984668e-002
2.757824e+003;4.980473e-002
2.759752e+003;4.959995e-002
2.761681e+003;4.969434e-002
2.763609e+003;5.012706e-002
2.765538e+003;5.043613e-002
2.767466e+003;5.071079e-002
2.769395e+003;5.094407e-002
2.771323e+003;5.098788e-002
2.773252e+003;5.140665e-002
2.775181e+003;5.179009e-002
2.777109e+003;5.205619e-002
2.779038e+003;5.242696e-002
2.780966e+003;5.247220e-002
2.782895e+003;5.236633e-002
2.784823e+003;5.249445e-002
2.786752e+003;5.281733e-002
2.788680e+003;5.306571e-002
2.790609e+003;5.365051e-002
2.792538e+003;5.449728e-002
2.794466e+003;5.493422e-002
2.796395e+003;5.500725e-002
2.798323e+003;5.519443e-002
2.800252e+003;5.579992e-002
2.802180e+003;5.638491e-002
2.804109e+003;5.668846e-002
2.806037e+003;5.704089e-002
2.807966e+003;5.745982e-002
2.809895e+003;5.790668e-002
2.811823e+003;5.877469e-002
2.813751e+003;5.979173e-002
2.815680e+003;6.063079e-002
2.817609e+003;6.096420e-002
2.819537e+003;6.127292e-002
2.821466e+003;6.169263e-002
2.823394e+003;6.235033e-002
2.825323e+003;6.302496e-002
2.827251e+003;6.344188e-002
2.829180e+003;6.396209e-002
2.831108e+003;6.462054e-002
2.833037e+003;6.563353e-002
2.834966e+003;6.700817e-002
2.836894e+003;6.866559e-002
2.838823e+003;7.047818e-002
2.840751e+003;7.263987e-002
2.842680e+003;7.545411e-002
2.844608e+003;7.843989e-002
2.846537e+003;8.162892e-002
2.848465e+003;8.518234e-002
2.850394e+003;8.898869e-002
2.852323e+003;9.239831e-002
2.854251e+003;9.506027e-002
2.856180e+003;9.716066e-002
2.858108e+003;9.845677e-002
2.860037e+003;9.890574e-002
2.861965e+003;9.936246e-002
2.863894e+003;9.971849e-002
2.865822e+003;9.918477e-002
2.867751e+003;9.823163e-002
2.869679e+003;9.738575e-002
2.871608e+003;9.633631e-002
2.873536e+003;9.484896e-002
2.875465e+003;9.291907e-002
2.877394e+003;9.090926e-002
2.879322e+003;8.922175e-002
2.881251e+003;8.770327e-002
2.883179e+003;8.663017e-002
2.885108e+003;8.651802e-002
2.887036e+003;8.646383e-002
2.888965e+003;8.637493e-002
2.890893e+003;8.709999e-002
2.892822e+003;8.848282e-002
2.894750e+003;9.015730e-002
2.896679e+003;9.192158e-002
2.898608e+003;9.333766e-002
2.900536e+003;9.456310e-002
2.902465e+003;9.578169e-002
2.904393e+003;9.674967e-002
2.906322e+003;9.753720e-002
2.908250e+003;9.856078e-002
2.910179e+003;9.978136e-002
2.912107e+003;1.013779e-001
2.914036e+003;1.033653e-001
2.915965e+003;1.052366e-001
2.917893e+003;1.073449e-001
2.919822e+003;1.097586e-001
2.921750e+003;1.120869e-001
2.923679e+003;1.144048e-001
2.925607e+003;1.169050e-001
2.927536e+003;1.191323e-001
2.929464e+003;1.206026e-001
2.931393e+003;1.215777e-001
2.933322e+003;1.222977e-001
2.935250e+003;1.228441e-001
2.937178e+003;1.228344e-001
2.939107e+003;1.221579e-001
2.941036e+003;1.207998e-001
2.942964e+003;1.186406e-001
2.944893e+003;1.157029e-001
2.946821e+003;1.122361e-001
2.948750e+003;1.089249e-001
2.950678e+003;1.054020e-001
2.952607e+003;1.013952e-001
2.954535e+003;9.707190e-002
2.956464e+003;9.283100e-002
2.958393e+003;8.883536e-002
2.960321e+003;8.529761e-002
2.962250e+003;8.196928e-002
2.964178e+003;7.893009e-002
2.966107e+003;7.649805e-002
2.968035e+003;7.401184e-002
2.969964e+003;7.147463e-002
2.971892e+003;6.949770e-002
2.973821e+003;6.765532e-002
2.975750e+003;6.564790e-002
2.977678e+003;6.409755e-002
2.979607e+003;6.272751e-002
2.981535e+003;6.140781e-002
2.983464e+003;6.035630e-002
2.985392e+003;5.922526e-002
2.987321e+003;5.812727e-002
2.989249e+003;5.750388e-002
2.991178e+003;5.655223e-002
2.993106e+003;5.582238e-002
2.995035e+003;5.568488e-002
2.996964e+003;5.525546e-002
2.998892e+003;5.457846e-002
3.000821e+003;5.418441e-002
3.002749e+003;5.389596e-002
3.004678e+003;5.364860e-002
3.006606e+003;5.369307e-002
3.008535e+003;5.385673e-002
3.010463e+003;5.406011e-002
3.012392e+003;5.463599e-002
3.014321e+003;5.484741e-002
3.016249e+003;5.451306e-002
3.018177e+003;5.470089e-002
3.020106e+003;5.538350e-002
3.022035e+003;5.564296e-002
3.023963e+003;5.578486e-002
3.025892e+003;5.608749e-002
3.027820e+003;5.643785e-002
3.029749e+003;5.675250e-002
3.031677e+003;5.729094e-002
3.033606e+003;5.818690e-002
3.035534e+003;5.861076e-002
3.037463e+003;5.883941e-002
3.039392e+003;5.946168e-002
3.041320e+003;6.033068e-002
3.043249e+003;6.088978e-002
3.045177e+003;6.132302e-002
3.047106e+003;6.172975e-002
3.049034e+003;6.234233e-002
3.050963e+003;6.307024e-002
3.052891e+003;6.340434e-002
3.054820e+003;6.379388e-002
3.056749e+003;6.454495e-002
3.058677e+003;6.515447e-002
3.060606e+003;6.522847e-002
3.062534e+003;6.540143e-002
3.064463e+003;6.572946e-002
3.066391e+003;6.611751e-002
3.068320e+003;6.654552e-002
3.070248e+003;6.664587e-002
3.072177e+003;6.635636e-002
3.074105e+003;6.592148e-002
3.076034e+003;6.584127e-002
3.077963e+003;6.596656e-002
3.079891e+003;6.607006e-002
3.081820e+003;6.603514e-002
3.083748e+003;6.557865e-002
3.085677e+003;6.494945e-002
3.087605e+003;6.477979e-002
3.089534e+003;6.464303e-002
3.091462e+003;6.441265e-002
3.093391e+003;6.425203e-002
3.095320e+003;6.404337e-002
3.097248e+003;6.347141e-002
3.099177e+003;6.294976e-002
3.101105e+003;6.272418e-002
3.103034e+003;6.228714e-002
3.104962e+003;6.178911e-002
3.106891e+003;6.128871e-002
3.108819e+003;6.077117e-002
3.110748e+003;6.049046e-002
3.112677e+003;6.019113e-002
3.114605e+003;5.940055e-002
3.116533e+003;5.872746e-002
3.118462e+003;5.878918e-002
3.120391e+003;5.869769e-002
3.122319e+003;5.838049e-002
3.124248e+003;5.800710e-002
3.126176e+003;5.756331e-002
3.128105e+003;5.755495e-002
3.130033e+003;5.771795e-002
3.131962e+003;5.772889e-002
3.133890e+003;5.761321e-002
3.135819e+003;5.757867e-002
3.137748e+003;5.754012e-002
3.139676e+003;5.749893e-002
3.141605e+003;5.730493e-002
3.143533e+003;5.719065e-002
3.145462e+003;5.746058e-002
3.147390e+003;5.787192e-002
3.149319e+003;5.803137e-002
3.151247e+003;5.809791e-002
3.153176e+003;5.832455e-002
3.155104e+003;5.858555e-002
3.157033e+003;5.876657e-002
3.158962e+003;5.904803e-002
3.160890e+003;5.965699e-002
3.162819e+003;6.009519e-002
3.164747e+003;6.052398e-002
3.166676e+003;6.079743e-002
3.168604e+003;6.107406e-002
3.170533e+003;6.153638e-002
3.172461e+003;6.200824e-002
3.174390e+003;6.268835e-002
3.176319e+003;6.311239e-002
3.178247e+003;6.321984e-002
3.180176e+003;6.378713e-002
3.182104e+003;6.445785e-002
3.184033e+003;6.507618e-002
3.185961e+003;6.551164e-002
3.187890e+003;6.583837e-002
3.189818e+003;6.596868e-002
3.191747e+003;6.610979e-002
3.193676e+003;6.663301e-002
3.195604e+003;6.726864e-002
3.197532e+003;6.756511e-002
3.199461e+003;6.764180e-002
3.201390e+003;6.801846e-002
3.203318e+003;6.821385e-002
3.205247e+003;6.854507e-002
3.207175e+003;6.915421e-002
3.209104e+003;6.956073e-002
3.211032e+003;6.973807e-002
3.212961e+003;7.030276e-002
3.214889e+003;7.117262e-002
3.216818e+003;7.136839e-002
3.218747e+003;7.133406e-002
3.220675e+003;7.216809e-002
3.222604e+003;7.308232e-002
3.224532e+003;7.330715e-002
3.226461e+003;7.355874e-002
3.228389e+003;7.406940e-002
3.230318e+003;7.492953e-002
3.232246e+003;7.588796e-002
3.234175e+003;7.672576e-002
3.236104e+003;7.787880e-002
3.238032e+003;7.885098e-002
3.239961e+003;7.958085e-002
3.241889e+003;8.030538e-002
3.243818e+003;8.145981e-002
3.245746e+003;8.283828e-002
3.247675e+003;8.443970e-002
3.249603e+003;8.597071e-002
3.251532e+003;8.695918e-002
3.253460e+003;8.795437e-002
3.255389e+003;8.937705e-002
3.257318e+003;9.135261e-002
3.259246e+003;9.339324e-002
3.261175e+003;9.508828e-002
3.263103e+003;9.623212e-002
3.265032e+003;9.720032e-002
3.266960e+003;9.835067e-002
3.268889e+003;9.972416e-002
3.270817e+003;1.013750e-001
3.272746e+003;1.028492e-001
3.274675e+003;1.043924e-001
3.276603e+003;1.055493e-001
3.278531e+003;1.064754e-001
3.280460e+003;1.078865e-001
3.282389e+003;1.093106e-001
3.284317e+003;1.104812e-001
3.286246e+003;1.111983e-001
3.288174e+003;1.117854e-001
3.290103e+003;1.118377e-001
3.292031e+003;1.119038e-001
3.293960e+003;1.119846e-001
3.295888e+003;1.112857e-001
3.297817e+003;1.107913e-001
3.299746e+003;1.101077e-001
3.301674e+003;1.090600e-001
3.303603e+003;1.078769e-001
3.305531e+003;1.059646e-001
3.307460e+003;1.033981e-001
3.309388e+003;1.013578e-001
3.311317e+003;9.975246e-002
3.313245e+003;9.756005e-002
3.315174e+003;9.552722e-002
3.317103e+003;9.422651e-002
3.319031e+003;9.247459e-002
3.320960e+003;9.080882e-002
3.322888e+003;8.903282e-002
3.324817e+003;8.702982e-002
3.326745e+003;8.528306e-002
3.328674e+003;8.396189e-002
3.330602e+003;8.232422e-002
3.332531e+003;8.051495e-002
3.334459e+003;7.914855e-002
3.336388e+003;7.811679e-002
3.338317e+003;7.706820e-002
3.340245e+003;7.572568e-002
3.342174e+003;7.423628e-002
3.344102e+003;7.326879e-002
3.346031e+003;7.228888e-002
3.347959e+003;7.091519e-002
3.349888e+003;6.967065e-002
3.351816e+003;6.893929e-002
3.353745e+003;6.807074e-002
3.355674e+003;6.685259e-002
3.357602e+003;6.595796e-002
3.359531e+003;6.555464e-002
3.361459e+003;6.501953e-002
3.363388e+003;6.409474e-002
3.365316e+003;6.321222e-002
3.367245e+003;6.270237e-002
3.369173e+003;6.239638e-002
3.371102e+003;6.177643e-002
3.373031e+003;6.092539e-002
3.374959e+003;6.018934e-002
3.376887e+003;5.936344e-002
3.378816e+003;5.880072e-002
3.380745e+003;5.882465e-002
3.382673e+003;5.831420e-002
3.384602e+003;5.773407e-002
3.386530e+003;5.715498e-002
3.388459e+003;5.649203e-002
3.390387e+003;5.635560e-002
3.392316e+003;5.634590e-002
3.394244e+003;5.638514e-002
3.396173e+003;5.605831e-002
3.398102e+003;5.538522e-002
3.400030e+003;5.520714e-002
3.401959e+003;5.509903e-002
3.403887e+003;5.495426e-002
3.405816e+003;5.487068e-002
3.407744e+003;5.442272e-002
3.409673e+003;5.412755e-002
3.411601e+003;5.372322e-002
3.413530e+003;5.333870e-002
3.415458e+003;5.345433e-002
3.417387e+003;5.342346e-002
3.419316e+003;5.287069e-002
3.421244e+003;5.264442e-002
3.423173e+003;5.261692e-002
3.425101e+003;5.254257e-002
3.427030e+003;5.237990e-002
3.428958e+003;5.167031e-002
3.430887e+003;5.130856e-002
3.432815e+003;5.151132e-002
3.434744e+003;5.165046e-002
3.436673e+003;5.159568e-002
3.438601e+003;5.185408e-002
3.440530e+003;5.204337e-002
3.442458e+003;5.148905e-002
3.444387e+003;5.086717e-002
3.446315e+003;5.051726e-002
3.448244e+003;4.997168e-002
3.450172e+003;4.971511e-002
3.452101e+003;4.965604e-002
3.454030e+003;4.909076e-002
3.455958e+003;4.856983e-002
3.457886e+003;4.866433e-002
3.459815e+003;4.838630e-002
3.461744e+003;4.784730e-002
3.463672e+003;4.745402e-002
3.465601e+003;4.718075e-002
3.467529e+003;4.709293e-002
3.469458e+003;4.712192e-002
3.471386e+003;4.735520e-002
3.473315e+003;4.687237e-002
3.475243e+003;4.641880e-002
3.477172e+003;4.607724e-002
3.479101e+003;4.594349e-002
3.481029e+003;4.590794e-002
3.482958e+003;4.521480e-002
3.484886e+003;4.499163e-002
3.486815e+003;4.522785e-002
3.488743e+003;4.549519e-002
3.490672e+003;4.536143e-002
3.492600e+003;4.516947e-002
3.494529e+003;4.544703e-002
3.496458e+003;4.544611e-002
3.498386e+003;4.504893e-002
3.500315e+003;4.482154e-002
3.502243e+003;4.458495e-002
3.504172e+003;4.406793e-002
3.506100e+003;4.398704e-002
3.508029e+003;4.402451e-002
3.509957e+003;4.375562e-002
3.511886e+003;4.353569e-002
3.513814e+003;4.328798e-002
3.515743e+003;4.324266e-002
3.517672e+003;4.296391e-002
3.519600e+003;4.255050e-002
3.521529e+003;4.229122e-002
3.523457e+003;4.204356e-002
3.525386e+003;4.193669e-002
3.527314e+003;4.185773e-002
3.529243e+003;4.138563e-002
3.531171e+003;4.104313e-002
3.533100e+003;4.084134e-002
3.535029e+003;4.046050e-002
3.536957e+003;3.992769e-002
3.538885e+003;3.932450e-002
3.540814e+003;3.919299e-002
3.542743e+003;3.911322e-002
3.544671e+003;3.856562e-002
3.546600e+003;3.833860e-002
3.548528e+003;3.843734e-002
3.550457e+003;3.807527e-002
3.552385e+003;3.748693e-002
3.554314e+003;3.708570e-002
3.556242e+003;3.703915e-002
3.558171e+003;3.696746e-002
3.560100e+003;3.648616e-002
3.562028e+003;3.622114e-002
3.563957e+003;3.594527e-002
3.565885e+003;3.531995e-002
3.567814e+003;3.510410e-002
3.569742e+003;3.474082e-002
3.571671e+003;3.419873e-002
3.573599e+003;3.381661e-002
3.575528e+003;3.358146e-002
3.577457e+003;3.370699e-002
3.579385e+003;3.340437e-002
3.581314e+003;3.279259e-002
3.583242e+003;3.236204e-002
3.585171e+003;3.183625e-002
3.587099e+003;3.150640e-002
3.589028e+003;3.109535e-002
3.590956e+003;3.100527e-002
3.592885e+003;3.126890e-002
3.594813e+003;3.100983e-002
3.596742e+003;3.053408e-002
3.598671e+003;3.026099e-002
3.600599e+003;2.985843e-002
3.602528e+003;2.930631e-002
3.604456e+003;2.882492e-002
3.606385e+003;2.841105e-002
3.608313e+003;2.811660e-002
3.610242e+003;2.799130e-002
3.612170e+003;2.786982e-002
3.614099e+003;2.760655e-002
3.616028e+003;2.748443e-002
3.617956e+003;2.746982e-002
3.619885e+003;2.700869e-002
3.621813e+003;2.667550e-002
3.623742e+003;2.702484e-002
3.625670e+003;2.719917e-002
3.627599e+003;2.676366e-002
3.629527e+003;2.646842e-002
3.631456e+003;2.632339e-002
3.633385e+003;2.568834e-002
3.635313e+003;2.534036e-002
3.637241e+003;2.511909e-002
3.639170e+003;2.481370e-002
3.641099e+003;2.454330e-002
3.643027e+003;2.411381e-002
3.644956e+003;2.379775e-002
3.646884e+003;2.361673e-002
3.648813e+003;2.345656e-002
3.650741e+003;2.347590e-002
3.652670e+003;2.334413e-002
3.654598e+003;2.318281e-002
3.656527e+003;2.283302e-002
3.658456e+003;2.266298e-002
3.660384e+003;2.272023e-002
3.662313e+003;2.295733e-002
3.664241e+003;2.307168e-002
3.666170e+003;2.279576e-002
3.668098e+003;2.212090e-002
3.670027e+003;2.174623e-002
3.671955e+003;2.195090e-002
3.673884e+003;2.221826e-002
3.675813e+003;2.238711e-002
3.677741e+003;2.222980e-002
3.679669e+003;2.163814e-002
3.681598e+003;2.128097e-002
3.683527e+003;2.116886e-002
3.685455e+003;2.142189e-002
3.687384e+003;2.119412e-002
3.689312e+003;2.037049e-002
3.691241e+003;2.004062e-002
3.693169e+003;1.995916e-002
3.695098e+003;1.976853e-002
3.697026e+003;1.970199e-002
3.698955e+003;1.984885e-002
3.700884e+003;1.988839e-002
3.702812e+003;1.991587e-002
3.704741e+003;1.971763e-002
3.706669e+003;1.951723e-002
3.708598e+003;1.934526e-002
3.710526e+003;1.911983e-002
3.712455e+003;1.920955e-002
3.714383e+003;1.969052e-002
3.716312e+003;1.927972e-002
3.718240e+003;1.861753e-002
3.720169e+003;1.861307e-002
3.722098e+003;1.856759e-002
3.724026e+003;1.873704e-002
3.725955e+003;1.882696e-002
3.727883e+003;1.881855e-002
3.729812e+003;1.908434e-002
3.731740e+003;1.903646e-002
3.733669e+003;1.873562e-002
3.735597e+003;1.859481e-002
3.737526e+003;1.904061e-002
3.739455e+003;1.972969e-002
3.741383e+003;1.981722e-002
3.743312e+003;1.959969e-002
3.745240e+003;1.975782e-002
3.747169e+003;1.986380e-002
3.749097e+003;1.933307e-002
3.751026e+003;1.892946e-002
3.752954e+003;1.898893e-002
3.754883e+003;1.916837e-002
3.756812e+003;1.897688e-002
3.758740e+003;1.899146e-002
3.760668e+003;1.936691e-002
3.762597e+003;1.970570e-002
3.764526e+003;1.977401e-002
3.766454e+003;2.004097e-002
3.768383e+003;2.010735e-002
3.770311e+003;1.991725e-002
3.772240e+003;1.933033e-002
3.774168e+003;1.896632e-002
3.776097e+003;1.899184e-002
3.778025e+003;1.909469e-002
3.779954e+003;1.910303e-002
3.781883e+003;1.879565e-002
3.783811e+003;1.866713e-002
3.785740e+003;1.908330e-002
3.787668e+003;1.917859e-002
3.789597e+003;1.914687e-002
3.791525e+003;1.915823e-002
3.793454e+003;1.918164e-002
3.795382e+003;1.917336e-002
3.797311e+003;1.933196e-002
3.799240e+003;1.935704e-002
3.801168e+003;1.921343e-002
3.803097e+003;1.971028e-002
3.805025e+003;1.974956e-002
3.806954e+003;1.932652e-002
3.808882e+003;1.956423e-002
3.810811e+003;1.965668e-002
3.812739e+003;1.922275e-002
3.814668e+003;1.880672e-002
3.816596e+003;1.916547e-002
3.818525e+003;1.957161e-002
3.820454e+003;1.971586e-002
3.822382e+003;2.001620e-002
3.824311e+003;1.989727e-002
3.826239e+003;1.959484e-002
3.828168e+003;1.958679e-002
3.830096e+003;1.961026e-002
3.832025e+003;1.978809e-002
3.833953e+003;1.975737e-002
3.835882e+003;1.945364e-002
3.837811e+003;1.906367e-002
3.839739e+003;1.908039e-002
3.841667e+003;1.940461e-002
3.843596e+003;1.967692e-002
3.845525e+003;1.987667e-002
3.847453e+003;1.994938e-002
3.849382e+003;1.975747e-002
3.851310e+003;1.967699e-002
3.853239e+003;1.972619e-002
3.855167e+003;2.000492e-002
3.857096e+003;2.044078e-002
3.859024e+003;2.050532e-002
3.860953e+003;2.039314e-002
3.862882e+003;2.023474e-002
3.864810e+003;2.020433e-002
3.866739e+003;2.034375e-002
3.868667e+003;2.014352e-002
3.870596e+003;2.016650e-002
3.872524e+003;2.023519e-002
3.874453e+003;1.990410e-002
3.876381e+003;1.988343e-002
3.878310e+003;1.999181e-002
3.880239e+003;2.015188e-002
3.882167e+003;2.042568e-002
3.884096e+003;2.080627e-002
3.886024e+003;2.093751e-002
3.887953e+003;2.064508e-002
3.889881e+003;1.996641e-002
3.891810e+003;2.025949e-002
3.893738e+003;2.077572e-002
3.895667e+003;2.077951e-002
3.897595e+003;2.030091e-002
3.899524e+003;2.020749e-002
3.901453e+003;2.034785e-002
3.903381e+003;2.008830e-002
3.905310e+003;2.046721e-002
3.907238e+003;2.113846e-002
3.909167e+003;2.123312e-002
3.911095e+003;2.135690e-002
3.913024e+003;2.130665e-002
3.914952e+003;2.068543e-002
3.916881e+003;2.023644e-002
3.918810e+003;2.014727e-002
3.920738e+003;2.064133e-002
3.922667e+003;2.111933e-002
3.924595e+003;2.126917e-002
3.926524e+003;2.149057e-002
3.928452e+003;2.207875e-002
3.930381e+003;2.274778e-002
3.932309e+003;2.262015e-002
3.934238e+003;2.238062e-002
3.936167e+003;2.240145e-002
3.938095e+003;2.206188e-002
3.940023e+003;2.196693e-002
3.941952e+003;2.258818e-002
3.943881e+003;2.245452e-002
3.945809e+003;2.209204e-002
3.947738e+003;2.227106e-002
3.949666e+003;2.253509e-002
3.951595e+003;2.250183e-002
3.953523e+003;2.229512e-002
3.955452e+003;2.219618e-002
3.957380e+003;2.257083e-002
3.959309e+003;2.283955e-002
3.961238e+003;2.319752e-002
3.963166e+003;2.339875e-002
3.965095e+003;2.305340e-002
3.967023e+003;2.275707e-002
3.968952e+003;2.308901e-002
3.970880e+003;2.342669e-002
3.972809e+003;2.358752e-002
3.974737e+003;2.348044e-002
3.976666e+003;2.292753e-002
3.978594e+003;2.300770e-002
3.980523e+003;2.339148e-002
3.982452e+003;2.319770e-002
3.984380e+003;2.306671e-002
3.986309e+003;2.324674e-002
3.988237e+003;2.370245e-002
3.990166e+003;2.412516e-002
3.992094e+003;2.395027e-002
3.994023e+003;2.378858e-002
3.995951e+003;2.383859e-002
3.997880e+003;2.398906e-002
3.999809e+003;2.422387e-002
4.001737e+003;0.000000e+000
