3.992094e+002;0.000000e+000
4.011380e+002;0.000000e+000
4.030665e+002;0.000000e+000
4.049951e+002;0.000000e+000
4.069236e+002;0.000000e+000
4.088522e+002;0.000000e+000
4.107807e+002;0.000000e+000
4.127093e+002;0.000000e+000
4.146378e+002;0.000000e+000
4.165664e+002;0.000000e+000
4.184949e+002;0.000000e+000
4.204235e+002;0.000000e+000
4.223520e+002;0.000000e+000
4.242806e+002;0.000000e+000
4.262091e+002;0.000000e+000
4.281377e+002;0.000000e+000
4.300662e+002;0.000000e+000
4.319948e+002;0.000000e+000
4.339233e+002;0.000000e+000
4.358519e+002;0.000000e+000
4.377804e+002;0.000000e+000
4.397090e+002;0.000000e+000
4.416375e+002;0.000000e+000
4.435660e+002;0.000000e+000
4.454946e+002;0.000000e+000
4.474232e+002;0.000000e+000
4.493517e+002;0.000000e+000
4.512802e+002;0.000000e+000
4.532088e+002;0.000000e+000
4.551373e+002;0.000000e+000
4.570659e+002;0.000000e+000
4.589944e+002;0.000000e+000
4.609230e+002;0.000000e+000
4.628515e+002;0.000000e+000
4.647801e+002;0.000000e+000
4.667086e+002;0.000000e+000
4.686372e+002;0.000000e+000
4.705657e+002;0.000000e+000
4.724943e+002;0.000000e+000
4.744228e+002;0.000000e+000
4.763513e+002;0.000000e+000
4.782799e+002;0.000000e+000
4.802085e+002;0.000000e+000
4.821370e+002;0.000000e+000
4.840656e+002;0.000000e+000
4.859941e+002;0.000000e+000
4.879226e+002;0.000000e+000
4.898512e+002;0.000000e+000
4.917798e+002;0.000000e+000
4.937083e+002;0.000000e+000
4.956368e+002;0.000000e+000
4.975654e+002;0.000000e+000
4.994939e+002;0.000000e+000
5.014225e+002;0.000000e+000
5.033510e+002;0.000000e+000
5.052796e+002;0.000000e+000
5.072081e+002;0.000000e+000
5.091367e+002;0.000000e+000
5.110652e+002;0.000000e+000
5.129938e+002;0.000000e+000
5.149223e+002;0.000000e+000
5.168509e+002;0.000000e+000
5.187794e+002;0.000000e+000
5.207079e+002;0.000000e+000
5.226365e+002;0.000000e+000
5.245651e+002;0.000000e+000
5.264936e+002;0.000000e+000
5.284222e+002;0.000000e+000
5.303507e+002;0.000000e+000
5.322792e+002;0.000000e+000
5.342078e+002;0.000000e+000
5.361364e+002;0.000000e+000
5.380649e+002;0.000000e+000
5.399935e+002;0.000000e+000
5.419220e+002;0.000000e+000
5.438505e+002;0.000000e+000
5.457791e+002;0.000000e+000
5.477076e+002;0.000000e+000
5.496362e+002;0.000000e+000
5.515648e+002;0.000000e+000
5.534933e+002;0.000000e+000
5.554218e+002;0.000000e+000
5.573504e+002;0.000000e+000
5.592789e+002;0.000000e+000
5.612075e+002;0.000000e+000
5.631360e+002;0.000000e+000
5.650646e+002;0.000000e+000
5.669931e+002;0.000000e+000
5.689217e+002;0.000000e+000
5.708502e+002;0.000000e+000
5.727787e+002;0.000000e+000
5.747073e+002;0.000000e+000
5.766359e+002;0.000000e+000
5.785644e+002;0.000000e+000
5.804930e+002;0.000000e+000
5.824215e+002;0.000000e+000
5.843500e+002;0.000000e+000
5.862786e+002;0.000000e+000
5.882072e+002;0.000000e+000
5.901357e+002;0.000000e+000
5.920643e+002;0.000000e+000
5.939928e+002;0.000000e+000
5.959213e+002;0.000000e+000
5.978499e+002;0.000000e+000
5.997784e+002;1.356560e-001
6.017070e+002;1.411668e-001
6.036355e+002;1.472292e-001
6.055641e+002;1.448906e-001
6.074926e+002;1.406048e-001
6.094211e+002;1.425596e-001
6.113497e+002;1.399839e-001
6.132783e+002;1.377225e-001
6.152068e+002;1.355641e-001
6.171354e+002;1.360448e-001
6.190639e+002;1.415382e-001
6.209924e+002;1.434229e-001
6.229210e+002;1.415251e-001
6.248495e+002;1.450496e-001
6.267781e+002;1.509016e-001
6.287067e+002;1.532885e-001
6.306352e+002;1.499894e-001
6.325637e+002;1.448541e-001
6.344923e+002;1.392328e-001
6.364208e+002;1.378723e-001
6.383494e+002;1.422412e-001
6.402780e+002;1.440962e-001
6.422065e+002;1.428907e-001
6.441350e+002;1.460624e-001
6.460636e+002;1.500968e-001
6.479921e+002;1.516242e-001
6.499207e+002;1.523429e-001
6.518492e+002;1.552382e-001
6.537778e+002;1.594441e-001
6.557063e+002;1.630346e-001
6.576349e+002;1.631713e-001
6.595634e+002;1.648775e-001
6.614919e+002;1.671986e-001
6.634205e+002;1.703555e-001
6.653491e+002;1.740663e-001
6.672776e+002;1.781928e-001
6.692062e+002;1.801756e-001
6.711347e+002;1.799974e-001
6.730632e+002;1.807053e-001
6.749918e+002;1.800959e-001
6.769203e+002;1.807554e-001
6.788489e+002;1.836519e-001
6.807775e+002;1.858906e-001
6.827060e+002;1.877382e-001
6.846345e+002;1.879847e-001
6.865631e+002;1.849454e-001
6.884916e+002;1.816678e-001
6.904202e+002;1.790852e-001
6.923488e+002;1.784115e-001
6.942773e+002;1.781026e-001
6.962058e+002;1.738749e-001
6.981344e+002;1.690170e-001
7.000629e+002;1.659111e-001
7.019915e+002;1.644750e-001
7.039200e+002;1.626425e-001
7.058486e+002;1.616558e-001
7.077771e+002;1.618151e-001
7.097057e+002;1.604748e-001
7.116342e+002;1.590806e-001
7.135627e+002;1.578081e-001
7.154913e+002;1.553456e-001
7.174199e+002;1.532879e-001
7.193484e+002;1.520414e-001
7.212770e+002;1.521573e-001
7.232055e+002;1.539714e-001
7.251340e+002;1.543648e-001
7.270626e+002;1.540282e-001
7.289911e+002;1.523194e-001
7.309197e+002;1.474157e-001
7.328483e+002;1.406157e-001
7.347768e+002;1.337716e-001
7.367053e+002;1.282256e-001
7.386339e+002;1.228406e-001
7.405624e+002;1.174939e-001
7.424910e+002;1.146247e-001
7.444196e+002;1.132289e-001
7.463481e+002;1.106424e-001
7.482766e+002;1.085414e-001
7.502052e+002;1.070132e-001
7.521337e+002;1.049563e-001
7.540623e+002;1.032140e-001
7.559908e+002;1.018295e-001
7.579194e+002;1.004021e-001
7.598479e+002;9.890420e-002
7.617765e+002;9.767613e-002
7.637050e+002;9.601230e-002
7.656335e+002;9.493739e-002
7.675621e+002;9.408107e-002
7.694907e+002;9.272745e-002
7.714192e+002;9.179385e-002
7.733478e+002;9.081184e-002
7.752763e+002;8.947276e-002
7.772048e+002;8.791721e-002
7.791334e+002;8.654997e-002
7.810620e+002;8.568531e-002
7.829905e+002;8.420405e-002
7.849191e+002;8.173869e-002
7.868476e+002;7.977241e-002
7.887761e+002;7.863904e-002
7.907047e+002;7.786123e-002
7.926332e+002;7.669152e-002
7.945618e+002;7.503487e-002
7.964903e+002;7.433501e-002
7.984189e+002;7.444488e-002
8.003474e+002;7.300493e-002
8.022759e+002;7.110932e-002
8.042045e+002;7.078730e-002
8.061331e+002;6.997620e-002
8.080616e+002;6.889424e-002
8.099902e+002;6.849530e-002
8.119187e+002;6.780046e-002
8.138472e+002;6.641813e-002
8.157758e+002;6.569743e-002
8.177043e+002;6.570013e-002
8.196329e+002;6.591750e-002
8.215615e+002;6.585599e-002
8.234900e+002;6.579010e-002
8.254185e+002;6.572977e-002
8.273471e+002;6.661192e-002
8.292756e+002;6.806671e-002
8.312042e+002;6.940524e-002
8.331328e+002;7.023389e-002
8.350613e+002;6.948312e-002
8.369898e+002;6.738611e-002
8.389184e+002;6.524850e-002
8.408469e+002;6.379661e-002
8.427755e+002;6.235358e-002
8.447040e+002;6.061822e-002
8.466326e+002;5.929810e-002
8.485611e+002;5.920354e-002
8.504897e+002;5.932891e-002
8.524182e+002;5.921862e-002
8.543467e+002;5.903114e-002
8.562753e+002;5.846824e-002
8.582039e+002;5.828529e-002
8.601324e+002;5.820281e-002
8.620610e+002;5.757473e-002
8.639895e+002;5.723439e-002
8.659180e+002;5.785583e-002
8.678466e+002;5.842355e-002
8.697751e+002;5.825259e-002
8.717037e+002;5.851502e-002
8.736323e+002;5.901515e-002
8.755608e+002;5.906678e-002
8.774893e+002;5.922484e-002
8.794179e+002;5.931573e-002
8.813464e+002;5.946457e-002
8.832750e+002;6.006544e-002
8.852036e+002;6.065262e-002
8.871321e+002;6.077464e-002
8.890606e+002;6.035543e-002
8.909892e+002;6.009618e-002
8.929177e+002;6.045767e-002
8.948463e+002;6.098269e-002
8.967748e+002;6.144220e-002
8.987034e+002;6.175878e-002
9.006319e+002;6.149312e-002
9.025605e+002;6.145743e-002
9.044890e+002;6.208109e-002
9.064175e+002;6.305768e-002
9.083461e+002;6.408039e-002
9.102747e+002;6.466849e-002
9.122032e+002;6.450617e-002
9.141318e+002;6.485122e-002
9.160603e+002;6.573902e-002
9.179888e+002;6.606527e-002
9.199174e+002;6.664201e-002
9.218459e+002;6.765132e-002
9.237745e+002;6.863292e-002
9.257031e+002;7.027292e-002
9.276316e+002;7.150169e-002
9.295601e+002;7.146115e-002
9.314887e+002;7.062174e-002
9.334172e+002;6.946029e-002
9.353458e+002;6.859893e-002
9.372744e+002;6.831447e-002
9.392029e+002;6.860622e-002
9.411314e+002;6.896022e-002
9.430600e+002;6.911051e-002
9.449885e+002;6.976099e-002
9.469171e+002;7.133875e-002
9.488456e+002;7.313682e-002
9.507742e+002;7.423868e-002
9.527027e+002;7.471622e-002
9.546313e+002;7.512152e-002
9.565598e+002;7.594162e-002
9.584883e+002;7.660388e-002
9.604169e+002;7.672754e-002
9.623455e+002;7.654069e-002
9.642740e+002;7.609110e-002
9.662026e+002;7.603118e-002
9.681311e+002;7.613453e-002
9.700596e+002;7.632098e-002
9.719882e+002;7.609505e-002
9.739167e+002;7.517604e-002
9.758453e+002;7.445011e-002
9.777739e+002;7.373564e-002
9.797024e+002;7.305621e-002
9.816309e+002;7.255085e-002
9.835595e+002;7.182800e-002
9.854880e+002;7.127717e-002
9.874166e+002;7.084463e-002
9.893452e+002;7.030319e-002
9.912737e+002;6.939198e-002
9.932022e+002;6.863637e-002
9.951307e+002;6.795678e-002
9.970593e+002;6.717488e-002
9.989879e+002;6.681054e-002
1.000916e+003;6.685429e-002
1.002845e+003;6.670243e-002
1.004773e+003;6.642558e-002
1.006702e+003;6.642346e-002
1.008631e+003;6.638891e-002
1.010559e+003;6.631158e-002
1.012488e+003;6.620444e-002
1.014416e+003;6.588634e-002
1.016345e+003;6.566016e-002
1.018273e+003;6.579122e-002
1.020202e+003;6.577834e-002
1.022130e+003;6.637397e-002
1.024059e+003;6.779771e-002
1.025988e+003;6.863936e-002
1.027916e+003;6.879524e-002
1.029845e+003;6.911824e-002
1.031773e+003;6.914528e-002
1.033702e+003;6.881259e-002
1.035630e+003;6.845096e-002
1.037559e+003;6.786453e-002
1.039487e+003;6.767793e-002
1.041416e+003;6.703822e-002
1.043344e+003;6.588577e-002
1.045273e+003;6.568128e-002
1.047202e+003;6.617758e-002
1.049130e+003;6.673898e-002
1.051059e+003;6.786411e-002
1.052987e+003;6.900706e-002
1.054916e+003;7.009295e-002
1.056844e+003;7.181729e-002
1.058773e+003;7.349101e-002
1.060701e+003;7.458716e-002
1.062630e+003;7.554364e-002
1.064558e+003;7.668868e-002
1.066487e+003;7.766973e-002
1.068416e+003;7.827868e-002
1.070344e+003;7.890606e-002
1.072273e+003;7.973310e-002
1.074201e+003;8.000203e-002
1.076130e+003;7.915407e-002
1.078058e+003;7.826158e-002
1.079987e+003;7.737888e-002
1.081915e+003;7.663752e-002
1.083844e+003;7.626789e-002
1.085773e+003;7.568746e-002
1.087701e+003;7.519014e-002
1.089630e+003;7.487468e-002
1.091558e+003;7.479391e-002
1.093487e+003;7.431448e-002
1.095415e+003;7.424010e-002
1.097344e+003;7.543455e-002
1.099272e+003;7.678131e-002
1.101201e+003;7.798758e-002
1.103129e+003;7.954539e-002
1.105058e+003;8.144906e-002
1.106987e+003;8.357931e-002
1.108915e+003;8.493919e-002
1.110844e+003;8.539508e-002
1.112772e+003;8.608381e-002
1.114701e+003;8.677273e-002
1.116629e+003;8.727309e-002
1.118558e+003;8.769856e-002
1.120486e+003;8.726167e-002
1.122415e+003;8.527298e-002
1.124344e+003;8.239071e-002
1.126272e+003;7.957365e-002
1.128201e+003;7.719496e-002
1.130129e+003;7.512325e-002
1.132058e+003;7.341743e-002
1.133986e+003;7.257313e-002
1.135915e+003;7.235424e-002
1.137843e+003;7.249846e-002
1.139772e+003;7.287121e-002
1.141700e+003;7.402398e-002
1.143629e+003;7.616992e-002
1.145557e+003;7.846259e-002
1.147486e+003;8.014511e-002
1.149415e+003;8.215853e-002
1.151343e+003;8.510841e-002
1.153272e+003;8.844927e-002
1.155200e+003;9.202784e-002
1.157129e+003;9.604909e-002
1.159057e+003;1.006383e-001
1.160986e+003;1.061440e-001
1.162914e+003;1.122713e-001
1.164843e+003;1.182996e-001
1.166771e+003;1.233611e-001
1.168700e+003;1.262694e-001
1.170629e+003;1.256831e-001
1.172557e+003;1.220201e-001
1.174486e+003;1.169110e-001
1.176414e+003;1.112404e-001
1.178343e+003;1.063828e-001
1.180271e+003;1.031019e-001
1.182200e+003;1.017908e-001
1.184128e+003;1.023109e-001
1.186057e+003;1.043147e-001
1.187986e+003;1.073182e-001
1.189914e+003;1.106782e-001
1.191843e+003;1.145397e-001
1.193771e+003;1.192288e-001
1.195700e+003;1.243045e-001
1.197628e+003;1.290187e-001
1.199557e+003;1.315956e-001
1.201485e+003;1.308231e-001
1.203414e+003;1.278714e-001
1.205343e+003;1.249591e-001
1.207271e+003;1.228464e-001
1.209200e+003;1.214838e-001
1.211128e+003;1.204721e-001
1.213057e+003;1.195167e-001
1.214985e+003;1.175113e-001
1.216914e+003;1.141668e-001
1.218842e+003;1.109662e-001
1.220771e+003;1.092964e-001
1.222699e+003;1.094585e-001
1.224628e+003;1.113396e-001
1.226557e+003;1.148629e-001
1.228485e+003;1.193142e-001
1.230414e+003;1.242235e-001
1.232342e+003;1.286913e-001
1.234271e+003;1.321829e-001
1.236199e+003;1.342363e-001
1.238128e+003;1.348406e-001
1.240056e+003;1.348672e-001
1.241985e+003;1.344984e-001
1.243913e+003;1.343754e-001
1.245842e+003;1.348401e-001
1.247771e+003;1.360581e-001
1.249699e+003;1.381297e-001
1.251628e+003;1.407199e-001
1.253556e+003;1.435198e-001
1.255485e+003;1.464738e-001
1.257413e+003;1.492083e-001
1.259342e+003;1.508607e-001
1.261270e+003;1.516085e-001
1.263199e+003;1.505000e-001
1.265127e+003;1.467150e-001
1.267056e+003;1.413202e-001
1.268985e+003;1.354913e-001
1.270913e+003;1.311328e-001
1.272842e+003;1.289527e-001
1.274770e+003;1.281034e-001
1.276699e+003;1.276876e-001
1.278627e+003;1.270749e-001
1.280556e+003;1.258769e-001
1.282484e+003;1.242445e-001
1.284413e+003;1.224560e-001
1.286342e+003;1.206518e-001
1.288270e+003;1.191523e-001
1.290199e+003;1.182110e-001
1.292127e+003;1.175550e-001
1.294056e+003;1.167605e-001
1.295984e+003;1.161302e-001
1.297913e+003;1.161151e-001
1.299841e+003;1.160156e-001
1.301770e+003;1.153653e-001
1.303698e+003;1.144256e-001
1.305627e+003;1.135780e-001
1.307556e+003;1.126834e-001
1.309484e+003;1.113893e-001
1.311413e+003;1.101183e-001
1.313341e+003;1.091157e-001
1.315270e+003;1.081180e-001
1.317198e+003;1.069555e-001
1.319127e+003;1.057769e-001
1.321055e+003;1.048514e-001
1.322984e+003;1.040779e-001
1.324912e+003;1.036065e-001
1.326841e+003;1.035411e-001
1.328770e+003;1.038227e-001
1.330698e+003;1.043286e-001
1.332627e+003;1.047845e-001
1.334555e+003;1.050848e-001
1.336484e+003;1.053145e-001
1.338412e+003;1.057428e-001
1.340341e+003;1.062299e-001
1.342269e+003;1.069576e-001
1.344198e+003;1.077167e-001
1.346126e+003;1.084434e-001
1.348055e+003;1.095181e-001
1.349984e+003;1.109153e-001
1.351912e+003;1.124765e-001
1.353841e+003;1.140515e-001
1.355769e+003;1.159346e-001
1.357698e+003;1.178411e-001
1.359626e+003;1.194182e-001
1.361555e+003;1.209863e-001
1.363483e+003;1.228092e-001
1.365412e+003;1.247746e-001
1.367341e+003;1.263174e-001
1.369269e+003;1.277808e-001
1.371198e+003;1.287654e-001
1.373126e+003;1.283980e-001
1.375055e+003;1.267358e-001
1.376983e+003;1.241696e-001
1.378912e+003;1.211953e-001
1.380840e+003;1.178537e-001
1.382769e+003;1.141400e-001
1.384698e+003;1.108682e-001
1.386626e+003;1.078445e-001
1.388555e+003;1.052216e-001
1.390483e+003;1.032020e-001
1.392412e+003;1.015047e-001
1.394340e+003;1.004540e-001
1.396269e+003;1.004393e-001
1.398197e+003;1.012696e-001
1.400126e+003;1.024617e-001
1.402054e+003;1.045832e-001
1.403983e+003;1.079601e-001
1.405911e+003;1.123277e-001
1.407840e+003;1.179292e-001
1.409769e+003;1.244624e-001
1.411697e+003;1.312780e-001
1.413626e+003;1.373908e-001
1.415554e+003;1.416500e-001
1.417483e+003;1.430982e-001
1.419411e+003;1.416674e-001
1.421340e+003;1.387455e-001
1.423268e+003;1.360019e-001
1.425197e+003;1.341871e-001
1.427125e+003;1.341578e-001
1.429054e+003;1.360238e-001
1.430983e+003;1.387162e-001
1.432911e+003;1.411553e-001
1.434840e+003;1.422938e-001
1.436768e+003;1.420252e-001
1.438697e+003;1.413493e-001
1.440625e+003;1.403307e-001
1.442554e+003;1.392182e-001
1.444482e+003;1.383738e-001
1.446411e+003;1.381981e-001
1.448340e+003;1.391076e-001
1.450268e+003;1.411255e-001
1.452197e+003;1.435030e-001
1.454125e+003;1.461839e-001
1.456054e+003;1.491438e-001
1.457982e+003;1.532364e-001
1.459911e+003;1.583634e-001
1.461839e+003;1.617218e-001
1.463768e+003;1.603622e-001
1.465697e+003;1.543875e-001
1.467625e+003;1.472428e-001
1.469554e+003;1.415301e-001
1.471482e+003;1.382563e-001
1.473411e+003;1.376870e-001
1.475339e+003;1.379615e-001
1.477268e+003;1.363433e-001
1.479196e+003;1.324344e-001
1.481125e+003;1.270511e-001
1.483053e+003;1.209205e-001
1.484982e+003;1.156367e-001
1.486911e+003;1.125817e-001
1.488839e+003;1.121136e-001
1.490768e+003;1.137420e-001
1.492696e+003;1.163973e-001
1.494625e+003;1.195743e-001
1.496553e+003;1.233943e-001
1.498482e+003;1.281444e-001
1.500410e+003;1.334467e-001
1.502339e+003;1.393676e-001
1.504267e+003;1.454623e-001
1.506196e+003;1.518037e-001
1.508125e+003;1.591695e-001
1.510053e+003;1.668802e-001
1.511982e+003;1.747709e-001
1.513910e+003;1.831778e-001
1.515839e+003;1.918441e-001
1.517767e+003;2.010161e-001
1.519696e+003;2.104437e-001
1.521624e+003;2.202762e-001
1.523553e+003;2.305849e-001
1.525481e+003;2.409208e-001
1.527410e+003;2.512545e-001
1.529339e+003;2.613990e-001
1.531267e+003;2.706945e-001
1.533196e+003;2.792180e-001
1.535124e+003;2.859363e-001
1.537053e+003;2.895192e-001
1.538981e+003;2.901326e-001
1.540910e+003;2.885127e-001
1.542838e+003;2.839728e-001
1.544767e+003;2.767220e-001
1.546695e+003;2.674223e-001
1.548624e+003;2.564855e-001
1.550553e+003;2.450410e-001
1.552481e+003;2.338121e-001
1.554410e+003;2.225973e-001
1.556338e+003;2.116550e-001
1.558267e+003;2.010731e-001
1.560195e+003;1.913150e-001
1.562124e+003;1.824564e-001
1.564052e+003;1.737894e-001
1.565981e+003;1.649666e-001
1.567910e+003;1.560180e-001
1.569838e+003;1.472544e-001
1.571767e+003;1.394833e-001
1.573695e+003;1.325998e-001
1.575624e+003;1.259646e-001
1.577552e+003;1.203441e-001
1.579481e+003;1.162921e-001
1.581409e+003;1.128831e-001
1.583338e+003;1.102175e-001
1.585266e+003;1.086019e-001
1.587195e+003;1.080150e-001
1.589124e+003;1.080288e-001
1.591052e+003;1.085848e-001
1.592981e+003;1.101028e-001
1.594909e+003;1.125911e-001
1.596838e+003;1.160216e-001
1.598766e+003;1.204305e-001
1.600695e+003;1.258673e-001
1.602623e+003;1.323008e-001
1.604552e+003;1.400612e-001
1.606480e+003;1.488238e-001
1.608409e+003;1.582844e-001
1.610338e+003;1.688842e-001
1.612266e+003;1.809235e-001
1.614195e+003;1.941384e-001
1.616123e+003;2.089187e-001
1.618052e+003;2.261341e-001
1.619980e+003;2.444738e-001
1.621909e+003;2.631563e-001
1.623837e+003;2.821134e-001
1.625766e+003;3.007354e-001
1.627694e+003;3.185337e-001
1.629623e+003;3.361259e-001
1.631552e+003;3.523409e-001
1.633480e+003;3.647515e-001
1.635409e+003;3.702201e-001
1.637337e+003;3.671175e-001
1.639266e+003;3.552218e-001
1.641194e+003;3.367182e-001
1.643123e+003;3.151747e-001
1.645051e+003;2.921765e-001
1.646980e+003;2.697332e-001
1.648909e+003;2.499014e-001
1.650837e+003;2.322775e-001
1.652766e+003;2.163672e-001
1.654694e+003;2.033509e-001
1.656623e+003;1.924666e-001
1.658551e+003;1.817894e-001
1.660480e+003;1.712155e-001
1.662408e+003;1.612860e-001
1.664337e+003;1.519756e-001
1.666266e+003;1.426409e-001
1.668194e+003;1.333673e-001
1.670123e+003;1.245778e-001
1.672051e+003;1.168330e-001
1.673980e+003;1.094985e-001
1.675908e+003;1.018463e-001
1.677837e+003;9.428418e-002
1.679765e+003;8.665933e-002
1.681694e+003;7.883462e-002
1.683622e+003;7.128904e-002
1.685551e+003;6.491016e-002
1.687479e+003;5.991437e-002
1.689408e+003;5.575980e-002
1.691337e+003;5.257264e-002
1.693265e+003;5.009464e-002
1.695194e+003;4.792674e-002
1.697122e+003;4.653396e-002
1.699051e+003;4.555748e-002
1.700979e+003;4.468472e-002
1.702908e+003;4.443624e-002
1.704836e+003;4.402011e-002
1.706765e+003;4.362379e-002
1.708693e+003;4.348416e-002
1.710622e+003;4.328538e-002
1.712551e+003;4.306854e-002
1.714479e+003;4.322366e-002
1.716408e+003;4.313382e-002
1.718336e+003;4.314304e-002
1.720265e+003;4.363163e-002
1.722193e+003;4.378131e-002
1.724122e+003;4.351287e-002
1.726050e+003;4.315980e-002
1.727979e+003;4.283352e-002
1.729908e+003;4.235576e-002
1.731836e+003;4.145302e-002
1.733765e+003;4.066643e-002
1.735693e+003;4.031904e-002
1.737622e+003;3.982810e-002
1.739550e+003;3.921507e-002
1.741479e+003;3.876627e-002
1.743407e+003;3.825066e-002
1.745336e+003;3.791767e-002
1.747265e+003;3.777520e-002
1.749193e+003;3.752580e-002
1.751122e+003;3.718416e-002
1.753050e+003;3.717517e-002
1.754979e+003;3.710966e-002
1.756907e+003;3.700700e-002
1.758836e+003;3.667612e-002
1.760764e+003;3.605733e-002
1.762693e+003;3.573789e-002
1.764621e+003;3.531308e-002
1.766550e+003;3.490635e-002
1.768479e+003;3.473881e-002
1.770407e+003;3.438490e-002
1.772336e+003;3.377119e-002
1.774264e+003;3.353328e-002
1.776193e+003;3.353321e-002
1.778121e+003;3.330652e-002
1.780050e+003;3.302674e-002
1.781978e+003;3.287857e-002
1.783907e+003;3.280266e-002
1.785835e+003;3.252146e-002
1.787764e+003;3.216079e-002
1.789693e+003;3.189880e-002
1.791621e+003;3.161044e-002
1.793550e+003;3.139394e-002
1.795478e+003;3.142468e-002
1.797407e+003;3.146208e-002
1.799335e+003;3.125103e-002
1.801264e+003;3.095649e-002
1.803192e+003;3.078391e-002
1.805121e+003;3.062726e-002
1.807049e+003;3.056053e-002
1.808978e+003;3.059462e-002
1.810907e+003;3.071623e-002
1.812835e+003;3.067573e-002
1.814764e+003;3.059235e-002
1.816692e+003;3.028159e-002
1.818621e+003;3.000748e-002
1.820549e+003;2.989846e-002
1.822478e+003;2.977850e-002
1.824406e+003;2.971506e-002
1.826335e+003;2.980601e-002
1.828264e+003;2.971832e-002
1.830192e+003;2.974678e-002
1.832121e+003;2.985946e-002
1.834049e+003;2.982212e-002
1.835978e+003;2.976534e-002
1.837906e+003;2.963332e-002
1.839835e+003;2.940887e-002
1.841763e+003;2.943443e-002
1.843692e+003;2.928061e-002
1.845620e+003;2.898400e-002
1.847549e+003;2.880438e-002
1.849478e+003;2.870727e-002
1.851406e+003;2.867545e-002
1.853335e+003;2.882754e-002
1.855263e+003;2.884552e-002
1.857192e+003;2.868972e-002
1.859120e+003;2.859911e-002
1.861049e+003;2.850442e-002
1.862977e+003;2.860261e-002
1.864906e+003;2.871733e-002
1.866834e+003;2.847856e-002
1.868763e+003;2.839673e-002
1.870692e+003;2.828776e-002
1.872620e+003;2.832185e-002
1.874549e+003;2.850562e-002
1.876477e+003;2.853460e-002
1.878406e+003;2.852412e-002
1.880334e+003;2.860233e-002
1.882263e+003;2.868317e-002
1.884191e+003;2.860962e-002
1.886120e+003;2.845803e-002
1.888048e+003;2.850803e-002
1.889977e+003;2.868897e-002
1.891906e+003;2.859858e-002
1.893834e+003;2.863768e-002
1.895763e+003;2.893707e-002
1.897691e+003;2.898811e-002
1.899620e+003;2.892889e-002
1.901548e+003;2.884230e-002
1.903477e+003;2.864278e-002
1.905405e+003;2.852880e-002
1.907334e+003;2.857303e-002
1.909262e+003;2.859164e-002
1.911191e+003;2.857101e-002
1.913120e+003;2.864905e-002
1.915048e+003;2.859617e-002
1.916977e+003;2.848779e-002
1.918905e+003;2.848722e-002
1.920834e+003;2.851542e-002
1.922762e+003;2.843953e-002
1.924691e+003;2.847194e-002
1.926619e+003;2.843819e-002
1.928548e+003;2.827807e-002
1.930477e+003;2.809429e-002
1.932405e+003;2.818302e-002
1.934334e+003;2.846776e-002
1.936262e+003;2.845499e-002
1.938191e+003;2.834700e-002
1.940119e+003;2.835099e-002
1.942048e+003;2.829356e-002
1.943976e+003;2.825657e-002
1.945905e+003;2.824253e-002
1.947833e+003;2.848708e-002
1.949762e+003;2.856241e-002
1.951691e+003;2.838937e-002
1.953619e+003;2.837430e-002
1.955548e+003;2.842878e-002
1.957476e+003;2.859515e-002
1.959405e+003;2.858350e-002
1.961333e+003;2.833207e-002
1.963262e+003;2.827676e-002
1.965190e+003;2.846776e-002
1.967119e+003;2.878144e-002
1.969047e+003;2.895120e-002
1.970976e+003;2.866851e-002
1.972905e+003;2.843904e-002
1.974833e+003;2.864377e-002
1.976762e+003;2.894242e-002
1.978690e+003;2.905647e-002
1.980619e+003;2.896969e-002
1.982547e+003;2.889372e-002
1.984476e+003;2.889808e-002
1.986404e+003;2.877542e-002
1.988333e+003;2.864583e-002
1.990261e+003;2.859996e-002
1.992190e+003;2.872876e-002
1.994119e+003;2.897440e-002
1.996047e+003;2.908021e-002
1.997976e+003;2.907040e-002
1.999904e+003;2.899498e-002
2.001833e+003;2.894490e-002
2.003761e+003;2.885186e-002
2.005690e+003;2.893059e-002
2.007618e+003;2.914477e-002
2.009547e+003;2.909771e-002
2.011476e+003;2.896930e-002
2.013404e+003;2.885406e-002
2.015333e+003;2.889025e-002
2.017261e+003;2.925799e-002
2.019190e+003;2.953142e-002
2.021118e+003;2.945879e-002
2.023047e+003;2.961349e-002
2.024975e+003;2.979575e-002
2.026904e+003;2.976318e-002
2.028833e+003;2.980629e-002
2.030761e+003;2.975601e-002
2.032690e+003;2.977279e-002
2.034618e+003;3.002619e-002
2.036547e+003;3.016519e-002
2.038475e+003;3.015698e-002
2.040404e+003;3.023282e-002
2.042332e+003;3.037013e-002
2.044261e+003;3.044444e-002
2.046189e+003;3.038836e-002
2.048118e+003;3.027921e-002
2.050047e+003;3.008691e-002
2.051975e+003;2.987635e-002
2.053904e+003;2.989829e-002
2.055832e+003;3.026298e-002
2.057761e+003;3.046143e-002
2.059689e+003;3.058574e-002
2.061618e+003;3.085046e-002
2.063546e+003;3.083150e-002
2.065475e+003;3.061773e-002
2.067404e+003;3.070663e-002
2.069332e+003;3.079793e-002
2.071260e+003;3.076456e-002
2.073189e+003;3.070400e-002
2.075118e+003;3.057219e-002
2.077046e+003;3.057521e-002
2.078975e+003;3.059022e-002
2.080903e+003;3.041463e-002
2.082832e+003;3.026390e-002
2.084760e+003;3.019719e-002
2.086689e+003;3.019495e-002
2.088617e+003;3.018501e-002
2.090546e+003;3.021207e-002
2.092475e+003;2.998437e-002
2.094403e+003;2.980867e-002
2.096332e+003;2.990854e-002
2.098260e+003;2.988895e-002
2.100189e+003;2.988132e-002
2.102117e+003;3.000209e-002
2.104046e+003;3.007363e-002
2.105974e+003;3.008148e-002
2.107903e+003;3.002975e-002
2.109832e+003;3.023044e-002
2.111760e+003;3.061464e-002
2.113688e+003;3.053927e-002
2.115617e+003;3.026486e-002
2.117546e+003;3.054372e-002
2.119474e+003;3.077683e-002
2.121403e+003;3.065891e-002
2.123331e+003;3.063309e-002
2.125260e+003;3.076335e-002
2.127188e+003;3.099940e-002
2.129117e+003;3.115277e-002
2.131045e+003;3.098570e-002
2.132974e+003;3.089073e-002
2.134903e+003;3.093699e-002
2.136831e+003;3.101068e-002
2.138760e+003;3.095748e-002
2.140688e+003;3.105431e-002
2.142617e+003;3.118463e-002
2.144545e+003;3.109272e-002
2.146474e+003;3.089764e-002
2.148402e+003;3.080194e-002
2.150331e+003;3.102922e-002
2.152260e+003;3.116896e-002
2.154188e+003;3.113550e-002
2.156117e+003;3.091262e-002
2.158045e+003;3.062833e-002
2.159974e+003;3.068522e-002
2.161902e+003;3.088092e-002
2.163831e+003;3.110535e-002
2.165759e+003;3.138924e-002
2.167688e+003;3.152518e-002
2.169616e+003;3.156430e-002
2.171545e+003;3.183194e-002
2.173474e+003;3.190229e-002
2.175402e+003;3.191780e-002
2.177331e+003;3.189983e-002
2.179259e+003;3.177764e-002
2.181188e+003;3.165478e-002
2.183116e+003;3.164736e-002
2.185045e+003;3.188168e-002
2.186973e+003;3.196088e-002
2.188902e+003;3.196448e-002
2.190831e+003;3.192579e-002
2.192759e+003;3.187070e-002
2.194688e+003;3.179457e-002
2.196616e+003;3.155503e-002
2.198545e+003;3.151416e-002
2.200473e+003;3.156608e-002
2.202402e+003;3.156216e-002
2.204330e+003;3.158147e-002
2.206259e+003;3.156754e-002
2.208188e+003;3.163225e-002
2.210116e+003;3.148770e-002
2.212044e+003;3.108286e-002
2.213973e+003;3.086939e-002
2.215902e+003;3.090145e-002
2.217830e+003;3.085886e-002
2.219759e+003;3.076225e-002
2.221687e+003;3.079060e-002
2.223616e+003;3.099278e-002
2.225544e+003;3.103919e-002
2.227473e+003;3.085111e-002
2.229401e+003;3.062093e-002
2.231330e+003;3.045386e-002
2.233259e+003;3.052050e-002
2.235187e+003;3.052843e-002
2.237116e+003;3.048130e-002
2.239044e+003;3.067256e-002
2.240973e+003;3.068586e-002
2.242901e+003;3.054542e-002
2.244830e+003;3.068864e-002
2.246758e+003;3.061766e-002
2.248687e+003;3.045055e-002
2.250615e+003;3.035048e-002
2.252544e+003;3.037291e-002
2.254473e+003;3.057528e-002
2.256401e+003;3.072114e-002
2.258330e+003;3.079120e-002
2.260258e+003;3.091884e-002
2.262187e+003;3.106446e-002
2.264115e+003;3.125790e-002
2.266044e+003;3.113667e-002
2.267972e+003;3.095225e-002
2.269901e+003;3.111329e-002
2.271830e+003;3.122635e-002
2.273758e+003;3.115882e-002
2.275687e+003;3.097428e-002
2.277615e+003;3.098670e-002
2.279544e+003;3.107613e-002
2.281472e+003;3.101936e-002
2.283401e+003;3.114468e-002
2.285329e+003;3.146732e-002
2.287258e+003;3.152054e-002
2.289187e+003;3.125829e-002
2.291115e+003;3.113422e-002
2.293043e+003;3.132103e-002
2.294972e+003;3.145912e-002
2.296901e+003;3.145930e-002
2.298829e+003;3.145567e-002
2.300758e+003;3.148624e-002
2.302686e+003;3.172716e-002
2.304615e+003;3.183607e-002
2.306543e+003;3.171498e-002
2.308472e+003;3.184335e-002
2.310400e+003;3.183158e-002
2.312329e+003;3.154762e-002
2.314258e+003;3.154406e-002
2.316186e+003;3.170097e-002
2.318115e+003;3.174285e-002
2.320043e+003;3.173105e-002
2.321972e+003;3.180883e-002
2.323900e+003;3.171226e-002
2.325829e+003;3.191620e-002
2.327757e+003;3.219444e-002
2.329686e+003;3.204830e-002
2.331615e+003;3.201617e-002
2.333543e+003;3.220479e-002
2.335472e+003;3.192754e-002
2.337400e+003;3.170571e-002
2.339329e+003;3.181643e-002
2.341257e+003;3.171480e-002
2.343186e+003;3.131730e-002
2.345114e+003;3.114041e-002
2.347043e+003;3.128318e-002
2.348971e+003;3.148217e-002
2.350900e+003;3.151342e-002
2.352829e+003;3.145235e-002
2.354757e+003;3.136043e-002
2.356686e+003;3.129767e-002
2.358614e+003;3.143611e-002
2.360543e+003;3.134482e-002
2.362471e+003;3.123180e-002
2.364400e+003;3.135797e-002
2.366328e+003;3.136189e-002
2.368257e+003;3.134372e-002
2.370186e+003;3.158503e-002
2.372114e+003;3.171412e-002
2.374042e+003;3.161386e-002
2.375971e+003;3.160224e-002
2.377900e+003;3.178231e-002
2.379828e+003;3.189288e-002
2.381757e+003;3.198535e-002
2.383685e+003;3.208515e-002
2.385614e+003;3.201213e-002
2.387542e+003;3.174100e-002
2.389471e+003;3.166422e-002
2.391399e+003;3.168275e-002
2.393328e+003;3.166981e-002
2.395257e+003;3.181262e-002
2.397185e+003;3.186699e-002
2.399114e+003;3.172902e-002
2.401042e+003;3.174873e-002
2.402971e+003;3.202116e-002
2.404899e+003;3.221367e-002
2.406828e+003;3.216347e-002
2.408756e+003;3.201356e-002
2.410685e+003;3.187704e-002
2.412614e+003;3.208540e-002
2.414542e+003;3.229601e-002
2.416471e+003;3.229294e-002
2.418399e+003;3.208983e-002
2.420328e+003;3.185433e-002
2.422256e+003;3.208269e-002
2.424185e+003;3.221967e-002
2.426113e+003;3.221189e-002
2.428042e+003;3.218830e-002
2.429970e+003;3.230850e-002
2.431899e+003;3.237404e-002
2.433828e+003;3.240817e-002
2.435756e+003;3.244137e-002
2.437685e+003;3.242012e-002
2.439613e+003;3.247554e-002
2.441542e+003;3.289744e-002
2.443470e+003;3.323472e-002
2.445399e+003;3.312281e-002
2.447327e+003;3.304025e-002
2.449256e+003;3.313504e-002
2.451185e+003;3.341500e-002
2.453113e+003;3.354828e-002
2.455042e+003;3.344685e-002
2.456970e+003;3.331467e-002
2.458899e+003;3.351238e-002
2.460827e+003;3.366785e-002
2.462756e+003;3.368518e-002
2.464684e+003;3.384329e-002
2.466613e+003;3.387596e-002
2.468542e+003;3.397477e-002
2.470470e+003;3.425520e-002
2.472398e+003;3.436155e-002
2.474327e+003;3.416170e-002
2.476256e+003;3.420522e-002
2.478184e+003;3.445566e-002
2.480113e+003;3.426843e-002
2.482041e+003;3.403282e-002
2.483970e+003;3.416830e-002
2.485898e+003;3.449297e-002
2.487827e+003;3.446474e-002
2.489755e+003;3.417324e-002
2.491684e+003;3.416977e-002
2.493613e+003;3.419002e-002
2.495541e+003;3.422501e-002
2.497470e+003;3.434879e-002
2.499398e+003;3.434599e-002
2.501327e+003;3.425556e-002
2.503255e+003;3.424007e-002
2.505184e+003;3.433731e-002
2.507112e+003;3.431841e-002
2.509041e+003;3.442435e-002
2.510969e+003;3.483429e-002
2.512898e+003;3.512950e-002
2.514827e+003;3.511125e-002
2.516755e+003;3.492150e-002
2.518684e+003;3.497505e-002
2.520612e+003;3.541635e-002
2.522541e+003;3.571573e-002
2.524469e+003;3.565433e-002
2.526398e+003;3.570027e-002
2.528326e+003;3.584897e-002
2.530255e+003;3.601730e-002
2.532184e+003;3.620353e-002
2.534112e+003;3.643596e-002
2.536041e+003;3.665524e-002
2.537969e+003;3.673925e-002
2.539898e+003;3.677362e-002
2.541826e+003;3.675469e-002
2.543755e+003;3.678963e-002
2.545683e+003;3.686227e-002
2.547612e+003;3.681260e-002
2.549541e+003;3.717997e-002
2.551469e+003;3.767209e-002
2.553397e+003;3.747837e-002
2.555326e+003;3.729134e-002
2.557255e+003;3.725856e-002
2.559183e+003;3.701948e-002
2.561112e+003;3.718932e-002
2.563040e+003;3.745807e-002
2.564969e+003;3.750904e-002
2.566897e+003;3.769074e-002
2.568826e+003;3.769945e-002
2.570754e+003;3.762912e-002
2.572683e+003;3.785805e-002
2.574612e+003;3.799281e-002
2.576540e+003;3.829202e-002
2.578469e+003;3.843169e-002
2.580397e+003;3.826322e-002
2.582326e+003;3.825645e-002
2.584254e+003;3.857137e-002
2.586183e+003;3.879163e-002
2.588111e+003;3.872570e-002
2.590040e+003;3.870483e-002
2.591969e+003;3.866582e-002
2.593897e+003;3.860194e-002
2.595826e+003;3.861925e-002
2.597754e+003;3.876870e-002
2.599683e+003;3.899102e-002
2.601611e+003;3.895825e-002
2.603540e+003;3.916130e-002
2.605468e+003;3.936796e-002
2.607397e+003;3.903070e-002
2.609325e+003;3.898351e-002
2.611254e+003;3.931870e-002
2.613183e+003;3.937891e-002
2.615111e+003;3.941280e-002
2.617040e+003;3.943595e-002
2.618968e+003;3.942387e-002
2.620897e+003;3.954590e-002
2.622825e+003;3.958855e-002
2.624754e+003;3.971197e-002
2.626682e+003;3.983910e-002
2.628611e+003;3.986245e-002
2.630540e+003;3.970431e-002
2.632468e+003;3.985686e-002
2.634396e+003;4.031090e-002
2.636325e+003;4.023594e-002
2.638254e+003;4.022456e-002
2.640182e+003;4.048698e-002
2.642111e+003;4.052360e-002
2.644039e+003;4.060098e-002
2.645968e+003;4.057762e-002
2.647896e+003;4.056933e-002
2.649825e+003;4.064297e-002
2.651753e+003;4.073939e-002
2.653682e+003;4.091633e-002
2.655611e+003;4.092835e-002
2.657539e+003;4.081590e-002
2.659468e+003;4.094160e-002
2.661396e+003;4.104080e-002
2.663325e+003;4.093578e-002
2.665253e+003;4.104637e-002
2.667182e+003;4.116125e-002
2.669110e+003;4.095493e-002
2.671039e+003;4.104568e-002
2.672968e+003;4.157599e-002
2.674896e+003;4.188713e-002
2.676825e+003;4.188199e-002
2.678753e+003;4.198873e-002
2.680682e+003;4.231364e-002
2.682610e+003;4.247753e-002
2.684539e+003;4.252518e-002
2.686467e+003;4.244753e-002
2.688396e+003;4.228662e-002
2.690324e+003;4.229841e-002
2.692253e+003;4.258569e-002
2.694182e+003;4.292769e-002
2.696110e+003;4.325730e-002
2.698039e+003;4.356309e-002
2.699967e+003;4.396892e-002
2.701896e+003;4.407801e-002
2.703824e+003;4.409345e-002
2.705753e+003;4.421262e-002
2.707681e+003;4.428097e-002
2.709610e+003;4.441517e-002
2.711539e+003;4.472240e-002
2.713467e+003;4.495940e-002
2.715396e+003;4.512932e-002
2.717324e+003;4.546719e-002
2.719253e+003;4.583724e-002
2.721181e+003;4.614975e-002
2.723110e+003;4.630783e-002
2.725038e+003;4.653492e-002
2.726967e+003;4.660563e-002
2.728896e+003;4.665322e-002
2.730824e+003;4.687204e-002
2.732752e+003;4.720037e-002
2.734681e+003;4.751002e-002
2.736610e+003;4.789584e-002
2.738538e+003;4.824861e-002
2.740467e+003;4.846464e-002
2.742395e+003;4.863449e-002
2.744324e+003;4.862493e-002
2.746252e+003;4.857153e-002
2.748181e+003;4.889151e-002
2.750109e+003;4.913925e-002
2.752038e+003;4.883492e-002
2.753967e+003;4.851769e-002
2.755895e+003;4.854048e-002
2.757824e+003;4.868364e-002
2.759752e+003;4.881939e-002
2.761681e+003;4.898363e-002
2.763609e+003;4.939924e-002
2.765538e+003;4.991581e-002
2.767466e+003;5.012851e-002
2.769395e+003;4.993157e-002
2.771323e+003;4.998206e-002
2.773252e+003;5.018683e-002
2.775181e+003;5.033589e-002
2.777109e+003;5.087917e-002
2.779038e+003;5.155814e-002
2.780966e+003;5.155064e-002
2.782895e+003;5.151785e-002
2.784823e+003;5.186255e-002
2.786752e+003;5.228642e-002
2.788680e+003;5.243855e-002
2.790609e+003;5.258716e-002
2.792538e+003;5.327937e-002
2.794466e+003;5.364129e-002
2.796395e+003;5.369329e-002
2.798323e+003;5.395096e-002
2.800252e+003;5.436155e-002
2.802180e+003;5.482256e-002
2.804109e+003;5.531462e-002
2.806037e+003;5.588859e-002
2.807966e+003;5.638280e-002
2.809895e+003;5.688868e-002
2.811823e+003;5.721772e-002
2.813751e+003;5.744949e-002
2.815680e+003;5.809564e-002
2.817609e+003;5.890252e-002
2.819537e+003;5.950910e-002
2.821466e+003;6.001883e-002
2.823394e+003;6.059548e-002
2.825323e+003;6.141549e-002
2.827251e+003;6.182731e-002
2.829180e+003;6.239852e-002
2.831108e+003;6.332966e-002
2.833037e+003;6.437487e-002
2.834966e+003;6.569346e-002
2.836894e+003;6.736884e-002
2.838823e+003;6.968322e-002
2.840751e+003;7.238524e-002
2.842680e+003;7.552814e-002
2.844608e+003;7.960867e-002
2.846537e+003;8.384774e-002
2.848465e+003;8.802193e-002
2.850394e+003;9.253052e-002
2.852323e+003;9.702550e-002
2.854251e+003;1.011070e-001
2.856180e+003;1.042370e-001
2.858108e+003;1.065861e-001
2.860037e+003;1.084454e-001
2.861965e+003;1.092531e-001
2.863894e+003;1.088719e-001
2.865822e+003;1.074628e-001
2.867751e+003;1.052993e-001
2.869679e+003;1.028915e-001
2.871608e+003;1.005715e-001
2.873536e+003;9.772227e-002
2.875465e+003;9.477988e-002
2.877394e+003;9.211807e-002
2.879322e+003;8.964249e-002
2.881251e+003;8.770443e-002
2.883179e+003;8.650273e-002
2.885108e+003;8.563300e-002
2.887036e+003;8.539694e-002
2.888965e+003;8.614913e-002
2.890893e+003;8.767553e-002
2.892822e+003;8.978882e-002
2.894750e+003;9.182258e-002
2.896679e+003;9.379629e-002
2.898608e+003;9.537572e-002
2.900536e+003;9.657495e-002
2.902465e+003;9.758000e-002
2.904393e+003;9.846778e-002
2.906322e+003;9.956786e-002
2.908250e+003;1.014282e-001
2.910179e+003;1.034290e-001
2.912107e+003;1.057464e-001
2.914036e+003;1.081054e-001
2.915965e+003;1.101598e-001
2.917893e+003;1.125615e-001
2.919822e+003;1.160390e-001
2.921750e+003;1.198195e-001
2.923679e+003;1.235867e-001
2.925607e+003;1.268446e-001
2.927536e+003;1.298879e-001
2.929464e+003;1.330269e-001
2.931393e+003;1.356485e-001
2.933322e+003;1.366940e-001
2.935250e+003;1.365259e-001
2.937178e+003;1.355768e-001
2.939107e+003;1.334577e-001
2.941036e+003;1.305994e-001
2.942964e+003;1.271976e-001
2.944893e+003;1.231951e-001
2.946821e+003;1.183504e-001
2.948750e+003;1.123477e-001
2.950678e+003;1.059377e-001
2.952607e+003;9.972949e-002
2.954535e+003;9.377532e-002
2.956464e+003;8.835212e-002
2.958393e+003;8.389930e-002
2.960321e+003;7.976361e-002
2.962250e+003;7.601330e-002
2.964178e+003;7.301281e-002
2.966107e+003;7.005288e-002
2.968035e+003;6.742658e-002
2.969964e+003;6.508195e-002
2.971892e+003;6.272744e-002
2.973821e+003;6.089177e-002
2.975750e+003;5.919374e-002
2.977678e+003;5.741194e-002
2.979607e+003;5.562676e-002
2.981535e+003;5.441495e-002
2.983464e+003;5.330180e-002
2.985392e+003;5.196416e-002
2.987321e+003;5.113539e-002
2.989249e+003;5.055650e-002
2.991178e+003;5.016139e-002
2.993106e+003;4.979287e-002
2.995035e+003;4.944093e-002
2.996964e+003;4.908293e-002
2.998892e+003;4.870276e-002
3.000821e+003;4.843426e-002
3.002749e+003;4.840137e-002
3.004678e+003;4.884052e-002
3.006606e+003;4.916931e-002
3.008535e+003;4.926423e-002
3.010463e+003;4.912986e-002
3.012392e+003;4.910181e-002
3.014321e+003;4.968427e-002
3.016249e+003;4.994377e-002
3.018177e+003;4.997540e-002
3.020106e+003;5.038604e-002
3.022035e+003;5.081931e-002
3.023963e+003;5.094988e-002
3.025892e+003;5.125003e-002
3.027820e+003;5.158418e-002
3.029749e+003;5.210329e-002
3.031677e+003;5.281392e-002
3.033606e+003;5.319607e-002
3.035534e+003;5.319498e-002
3.037463e+003;5.365576e-002
3.039392e+003;5.428735e-002
3.041320e+003;5.509019e-002
3.043249e+003;5.590766e-002
3.045177e+003;5.683210e-002
3.047106e+003;5.769195e-002
3.049034e+003;5.826218e-002
3.050963e+003;5.912616e-002
3.052891e+003;6.020274e-002
3.054820e+003;6.118486e-002
3.056749e+003;6.195401e-002
3.058677e+003;6.231820e-002
3.060606e+003;6.240835e-002
3.062534e+003;6.282473e-002
3.064463e+003;6.353925e-002
3.066391e+003;6.413826e-002
3.068320e+003;6.447349e-002
3.070248e+003;6.467348e-002
3.072177e+003;6.476675e-002
3.074105e+003;6.470986e-002
3.076034e+003;6.467118e-002
3.077963e+003;6.473190e-002
3.079891e+003;6.476871e-002
3.081820e+003;6.469490e-002
3.083748e+003;6.440831e-002
3.085677e+003;6.393644e-002
3.087605e+003;6.340104e-002
3.089534e+003;6.297776e-002
3.091462e+003;6.225877e-002
3.093391e+003;6.170050e-002
3.095320e+003;6.156364e-002
3.097248e+003;6.086687e-002
3.099177e+003;5.976481e-002
3.101105e+003;5.915980e-002
3.103034e+003;5.874670e-002
3.104962e+003;5.821304e-002
3.106891e+003;5.764722e-002
3.108819e+003;5.680385e-002
3.110748e+003;5.618628e-002
3.112677e+003;5.577762e-002
3.114605e+003;5.523153e-002
3.116533e+003;5.500751e-002
3.118462e+003;5.502707e-002
3.120391e+003;5.451982e-002
3.122319e+003;5.393003e-002
3.124248e+003;5.369577e-002
3.126176e+003;5.353659e-002
3.128105e+003;5.343473e-002
3.130033e+003;5.338359e-002
3.131962e+003;5.354154e-002
3.133890e+003;5.388171e-002
3.135819e+003;5.375322e-002
3.137748e+003;5.351411e-002
3.139676e+003;5.353663e-002
3.141605e+003;5.325812e-002
3.143533e+003;5.278683e-002
3.145462e+003;5.316049e-002
3.147390e+003;5.374901e-002
3.149319e+003;5.398683e-002
3.151247e+003;5.406484e-002
3.153176e+003;5.453504e-002
3.155104e+003;5.492287e-002
3.157033e+003;5.526923e-002
3.158962e+003;5.582291e-002
3.160890e+003;5.599559e-002
3.162819e+003;5.599182e-002
3.164747e+003;5.645698e-002
3.166676e+003;5.697103e-002
3.168604e+003;5.748123e-002
3.170533e+003;5.840497e-002
3.172461e+003;5.908599e-002
3.174390e+003;5.962589e-002
3.176319e+003;6.023604e-002
3.178247e+003;6.066706e-002
3.180176e+003;6.128154e-002
3.182104e+003;6.204142e-002
3.184033e+003;6.270267e-002
3.185961e+003;6.285612e-002
3.187890e+003;6.308112e-002
3.189818e+003;6.369596e-002
3.191747e+003;6.440174e-002
3.193676e+003;6.501448e-002
3.195604e+003;6.537253e-002
3.197532e+003;6.578957e-002
3.199461e+003;6.606276e-002
3.201390e+003;6.639068e-002
3.203318e+003;6.718002e-002
3.205247e+003;6.746280e-002
3.207175e+003;6.757138e-002
3.209104e+003;6.810167e-002
3.211032e+003;6.859047e-002
3.212961e+003;6.914034e-002
3.214889e+003;7.001399e-002
3.216818e+003;7.059605e-002
3.218747e+003;7.083815e-002
3.220675e+003;7.151674e-002
3.222604e+003;7.248852e-002
3.224532e+003;7.330468e-002
3.226461e+003;7.421447e-002
3.228389e+003;7.518459e-002
3.230318e+003;7.600825e-002
3.232246e+003;7.708403e-002
3.234175e+003;7.858896e-002
3.236104e+003;8.013232e-002
3.238032e+003;8.146676e-002
3.239961e+003;8.268410e-002
3.241889e+003;8.450595e-002
3.243818e+003;8.662572e-002
3.245746e+003;8.870963e-002
3.247675e+003;9.097160e-002
3.249603e+003;9.270994e-002
3.251532e+003;9.409407e-002
3.253460e+003;9.611093e-002
3.255389e+003;9.824002e-002
3.257318e+003;1.002256e-001
3.259246e+003;1.025167e-001
3.261175e+003;1.047129e-001
3.263103e+003;1.067570e-001
3.265032e+003;1.089934e-001
3.266960e+003;1.116642e-001
3.268889e+003;1.139167e-001
3.270817e+003;1.157259e-001
3.272746e+003;1.177687e-001
3.274675e+003;1.199778e-001
3.276603e+003;1.222121e-001
3.278531e+003;1.246983e-001
3.280460e+003;1.267044e-001
3.282389e+003;1.285634e-001
3.284317e+003;1.304745e-001
3.286246e+003;1.323139e-001
3.288174e+003;1.335327e-001
3.290103e+003;1.339340e-001
3.292031e+003;1.342359e-001
3.293960e+003;1.342982e-001
3.295888e+003;1.336710e-001
3.297817e+003;1.324266e-001
3.299746e+003;1.305566e-001
3.301674e+003;1.282777e-001
3.303603e+003;1.254470e-001
3.305531e+003;1.223025e-001
3.307460e+003;1.192151e-001
3.309388e+003;1.162516e-001
3.311317e+003;1.132180e-001
3.313245e+003;1.102108e-001
3.315174e+003;1.071978e-001
3.317103e+003;1.044760e-001
3.319031e+003;1.016489e-001
3.320960e+003;9.885469e-002
3.322888e+003;9.620578e-002
3.324817e+003;9.379789e-002
3.326745e+003;9.109046e-002
3.328674e+003;8.815829e-002
3.330602e+003;8.562848e-002
3.332531e+003;8.334573e-002
3.334459e+003;8.135410e-002
3.336388e+003;7.967272e-002
3.338317e+003;7.745131e-002
3.340245e+003;7.514634e-002
3.342174e+003;7.351624e-002
3.344102e+003;7.184286e-002
3.346031e+003;7.022466e-002
3.347959e+003;6.839789e-002
3.349888e+003;6.675656e-002
3.351816e+003;6.542470e-002
3.353745e+003;6.376767e-002
3.355674e+003;6.233935e-002
3.357602e+003;6.137045e-002
3.359531e+003;6.016320e-002
3.361459e+003;5.917324e-002
3.363388e+003;5.831773e-002
3.365316e+003;5.719379e-002
3.367245e+003;5.627801e-002
3.369173e+003;5.573373e-002
3.371102e+003;5.511512e-002
3.373031e+003;5.412781e-002
3.374959e+003;5.326850e-002
3.376887e+003;5.274897e-002
3.378816e+003;5.213643e-002
3.380745e+003;5.154810e-002
3.382673e+003;5.104576e-002
3.384602e+003;5.039252e-002
3.386530e+003;4.998257e-002
3.388459e+003;4.966599e-002
3.390387e+003;4.902257e-002
3.392316e+003;4.844449e-002
3.394244e+003;4.820403e-002
3.396173e+003;4.824516e-002
3.398102e+003;4.789814e-002
3.400030e+003;4.726387e-002
3.401959e+003;4.689825e-002
3.403887e+003;4.649930e-002
3.405816e+003;4.592989e-002
3.407744e+003;4.573912e-002
3.409673e+003;4.566336e-002
3.411601e+003;4.564356e-002
3.413530e+003;4.547646e-002
3.415458e+003;4.522851e-002
3.417387e+003;4.490862e-002
3.419316e+003;4.481045e-002
3.421244e+003;4.477864e-002
3.423173e+003;4.440093e-002
3.425101e+003;4.401461e-002
3.427030e+003;4.399162e-002
3.428958e+003;4.367790e-002
3.430887e+003;4.367395e-002
3.432815e+003;4.403742e-002
3.434744e+003;4.400232e-002
3.436673e+003;4.367028e-002
3.438601e+003;4.358617e-002
3.440530e+003;4.349698e-002
3.442458e+003;4.347460e-002
3.444387e+003;4.330449e-002
3.446315e+003;4.310191e-002
3.448244e+003;4.294726e-002
3.450172e+003;4.238674e-002
3.452101e+003;4.220109e-002
3.454030e+003;4.248407e-002
3.455958e+003;4.238480e-002
3.457886e+003;4.207677e-002
3.459815e+003;4.176444e-002
3.461744e+003;4.167467e-002
3.463672e+003;4.174864e-002
3.465601e+003;4.102488e-002
3.467529e+003;4.073499e-002
3.469458e+003;4.095664e-002
3.471386e+003;4.088215e-002
3.473315e+003;4.071196e-002
3.475243e+003;4.041457e-002
3.477172e+003;4.042151e-002
3.479101e+003;4.063380e-002
3.481029e+003;4.057049e-002
3.482958e+003;4.052793e-002
3.484886e+003;4.067360e-002
3.486815e+003;4.082722e-002
3.488743e+003;4.073845e-002
3.490672e+003;4.065377e-002
3.492600e+003;4.056889e-002
3.494529e+003;4.027367e-002
3.496458e+003;3.985305e-002
3.498386e+003;3.958561e-002
3.500315e+003;3.980340e-002
3.502243e+003;3.990917e-002
3.504172e+003;3.946792e-002
3.506100e+003;3.937583e-002
3.508029e+003;3.920082e-002
3.509957e+003;3.868796e-002
3.511886e+003;3.870422e-002
3.513814e+003;3.895912e-002
3.515743e+003;3.882670e-002
3.517672e+003;3.837417e-002
3.519600e+003;3.790484e-002
3.521529e+003;3.786742e-002
3.523457e+003;3.781163e-002
3.525386e+003;3.764838e-002
3.527314e+003;3.754881e-002
3.529243e+003;3.720452e-002
3.531171e+003;3.695079e-002
3.533100e+003;3.715972e-002
3.535029e+003;3.694606e-002
3.536957e+003;3.652706e-002
3.538885e+003;3.644835e-002
3.540814e+003;3.640046e-002
3.542743e+003;3.622827e-002
3.544671e+003;3.588470e-002
3.546600e+003;3.580981e-002
3.548528e+003;3.579345e-002
3.550457e+003;3.508553e-002
3.552385e+003;3.451525e-002
3.554314e+003;3.463466e-002
3.556242e+003;3.435793e-002
3.558171e+003;3.410711e-002
3.560100e+003;3.369424e-002
3.562028e+003;3.288461e-002
3.563957e+003;3.288458e-002
3.565885e+003;3.361841e-002
3.567814e+003;3.369349e-002
3.569742e+003;3.307990e-002
3.571671e+003;3.263161e-002
3.573599e+003;3.254760e-002
3.575528e+003;3.221892e-002
3.577457e+003;3.177999e-002
3.579385e+003;3.152999e-002
3.581314e+003;3.140591e-002
3.583242e+003;3.101271e-002
3.585171e+003;3.034373e-002
3.587099e+003;3.001121e-002
3.589028e+003;3.009025e-002
3.590956e+003;2.960122e-002
3.592885e+003;2.895690e-002
3.594813e+003;2.918630e-002
3.596742e+003;2.977780e-002
3.598671e+003;2.974923e-002
3.600599e+003;2.925044e-002
3.602528e+003;2.944368e-002
3.604456e+003;2.971932e-002
3.606385e+003;2.888883e-002
3.608313e+003;2.785809e-002
3.610242e+003;2.759355e-002
3.612170e+003;2.754780e-002
3.614099e+003;2.739863e-002
3.616028e+003;2.744832e-002
3.617956e+003;2.719035e-002
3.619885e+003;2.645352e-002
3.621813e+003;2.592231e-002
3.623742e+003;2.577408e-002
3.625670e+003;2.572282e-002
3.627599e+003;2.579107e-002
3.629527e+003;2.583449e-002
3.631456e+003;2.582208e-002
3.633385e+003;2.544202e-002
3.635313e+003;2.484591e-002
3.637241e+003;2.427145e-002
3.639170e+003;2.433372e-002
3.641099e+003;2.452338e-002
3.643027e+003;2.436761e-002
3.644956e+003;2.391274e-002
3.646884e+003;2.344299e-002
3.648813e+003;2.343057e-002
3.650741e+003;2.357198e-002
3.652670e+003;2.369899e-002
3.654598e+003;2.318025e-002
3.656527e+003;2.260231e-002
3.658456e+003;2.273912e-002
3.660384e+003;2.306004e-002
3.662313e+003;2.304474e-002
3.664241e+003;2.296320e-002
3.666170e+003;2.300592e-002
3.668098e+003;2.256039e-002
3.670027e+003;2.221707e-002
3.671955e+003;2.243665e-002
3.673884e+003;2.238540e-002
3.675813e+003;2.219688e-002
3.677741e+003;2.225770e-002
3.679669e+003;2.230636e-002
3.681598e+003;2.197874e-002
3.683527e+003;2.158148e-002
3.685455e+003;2.133957e-002
3.687384e+003;2.103696e-002
3.689312e+003;2.073481e-002
3.691241e+003;2.031740e-002
3.693169e+003;2.015681e-002
3.695098e+003;2.022748e-002
3.697026e+003;2.017364e-002
3.698955e+003;2.002161e-002
3.700884e+003;1.995233e-002
3.702812e+003;1.988038e-002
3.704741e+003;1.986432e-002
3.706669e+003;1.993890e-002
3.708598e+003;1.986078e-002
3.710526e+003;1.990657e-002
3.712455e+003;1.987847e-002
3.714383e+003;1.961743e-002
3.716312e+003;1.956835e-002
3.718240e+003;1.980557e-002
3.720169e+003;1.962218e-002
3.722098e+003;1.943985e-002
3.724026e+003;1.954097e-002
3.725955e+003;1.966465e-002
3.727883e+003;1.943541e-002
3.729812e+003;1.892448e-002
3.731740e+003;1.886914e-002
3.733669e+003;1.923802e-002
3.735597e+003;1.938739e-002
3.737526e+003;1.964122e-002
3.739455e+003;1.957736e-002
3.741383e+003;1.937222e-002
3.743312e+003;1.915722e-002
3.745240e+003;1.907274e-002
3.747169e+003;1.925402e-002
3.749097e+003;1.939626e-002
3.751026e+003;1.927813e-002
3.752954e+003;1.913226e-002
3.754883e+003;1.945520e-002
3.756812e+003;1.985079e-002
3.758740e+003;1.986130e-002
3.760668e+003;1.975615e-002
3.762597e+003;1.987587e-002
3.764526e+003;1.961792e-002
3.766454e+003;1.938368e-002
3.768383e+003;1.948393e-002
3.770311e+003;1.959778e-002
3.772240e+003;1.970792e-002
3.774168e+003;1.982246e-002
3.776097e+003;1.981316e-002
3.778025e+003;1.969253e-002
3.779954e+003;1.948465e-002
3.781883e+003;1.935673e-002
3.783811e+003;1.943784e-002
3.785740e+003;1.978386e-002
3.787668e+003;1.993713e-002
3.789597e+003;1.985672e-002
3.791525e+003;1.983768e-002
3.793454e+003;1.967557e-002
3.795382e+003;1.946767e-002
3.797311e+003;1.951425e-002
3.799240e+003;1.957646e-002
3.801168e+003;1.957833e-002
3.803097e+003;1.961127e-002
3.805025e+003;1.942616e-002
3.806954e+003;1.933113e-002
3.808882e+003;1.985339e-002
3.810811e+003;2.036275e-002
3.812739e+003;2.083220e-002
3.814668e+003;2.047371e-002
3.816596e+003;2.031146e-002
3.818525e+003;2.047381e-002
3.820454e+003;2.010798e-002
3.822382e+003;2.014463e-002
3.824311e+003;2.043672e-002
3.826239e+003;2.065589e-002
3.828168e+003;2.067726e-002
3.830096e+003;2.065144e-002
3.832025e+003;2.080377e-002
3.833953e+003;2.079991e-002
3.835882e+003;2.031962e-002
3.837811e+003;1.993217e-002
3.839739e+003;1.995905e-002
3.841667e+003;2.011732e-002
3.843596e+003;2.025904e-002
3.845525e+003;2.070867e-002
3.847453e+003;2.106969e-002
3.849382e+003;2.086561e-002
3.851310e+003;2.041727e-002
3.853239e+003;2.009268e-002
3.855167e+003;2.029001e-002
3.857096e+003;2.106329e-002
3.859024e+003;2.131688e-002
3.860953e+003;2.123650e-002
3.862882e+003;2.137257e-002
3.864810e+003;2.124394e-002
3.866739e+003;2.091414e-002
3.868667e+003;2.088974e-002
3.870596e+003;2.113898e-002
3.872524e+003;2.112301e-002
3.874453e+003;2.111574e-002
3.876381e+003;2.127067e-002
3.878310e+003;2.084965e-002
3.880239e+003;2.048215e-002
3.882167e+003;2.042939e-002
3.884096e+003;2.049090e-002
3.886024e+003;2.105119e-002
3.887953e+003;2.153389e-002
3.889881e+003;2.159040e-002
3.891810e+003;2.153347e-002
3.893738e+003;2.147212e-002
3.895667e+003;2.156024e-002
3.897595e+003;2.140330e-002
3.899524e+003;2.103686e-002
3.901453e+003;2.113738e-002
3.903381e+003;2.158956e-002
3.905310e+003;2.159353e-002
3.907238e+003;2.139436e-002
3.909167e+003;2.139425e-002
3.911095e+003;2.188890e-002
3.913024e+003;2.234207e-002
3.914952e+003;2.212024e-002
3.916881e+003;2.157389e-002
3.918810e+003;2.172372e-002
3.920738e+003;2.225843e-002
3.922667e+003;2.246495e-002
3.924595e+003;2.272285e-002
3.926524e+003;2.250944e-002
3.928452e+003;2.218670e-002
3.930381e+003;2.274446e-002
3.932309e+003;2.319762e-002
3.934238e+003;2.326715e-002
3.936167e+003;2.314052e-002
3.938095e+003;2.272264e-002
3.940023e+003;2.242448e-002
3.941952e+003;2.213788e-002
3.943881e+003;2.260681e-002
3.945809e+003;2.378753e-002
3.947738e+003;2.419588e-002
3.949666e+003;2.375508e-002
3.951595e+003;2.345082e-002
3.953523e+003;2.324551e-002
3.955452e+003;2.309254e-002
3.957380e+003;2.329057e-002
3.959309e+003;2.372821e-002
3.961238e+003;2.395139e-002
3.963166e+003;2.395279e-002
3.965095e+003;2.396841e-002
3.967023e+003;2.359087e-002
3.968952e+003;2.381619e-002
3.970880e+003;2.428204e-002
3.972809e+003;2.433414e-002
3.974737e+003;2.440872e-002
3.976666e+003;2.446666e-002
3.978594e+003;2.466596e-002
3.980523e+003;2.463380e-002
3.982452e+003;2.430166e-002
3.984380e+003;2.394586e-002
3.986309e+003;2.396137e-002
3.988237e+003;2.457825e-002
3.990166e+003;2.521730e-002
3.992094e+003;2.566025e-002
3.994023e+003;2.565501e-002
3.995951e+003;2.541089e-002
3.997880e+003;2.534584e-002
3.999809e+003;2.544444e-002
4.001737e+003;0.000000e+000
