3.992094e+002;0.000000e+000
4.011380e+002;0.000000e+000
4.030665e+002;0.000000e+000
4.049951e+002;0.000000e+000
4.069236e+002;0.000000e+000
4.088522e+002;0.000000e+000
4.107807e+002;0.000000e+000
4.127093e+002;0.000000e+000
4.146378e+002;0.000000e+000
4.165664e+002;0.000000e+000
4.184949e+002;0.000000e+000
4.204235e+002;0.000000e+000
4.223520e+002;0.000000e+000
4.242806e+002;0.000000e+000
4.262091e+002;0.000000e+000
4.281377e+002;0.000000e+000
4.300662e+002;0.000000e+000
4.319948e+002;0.000000e+000
4.339233e+002;0.000000e+000
4.358519e+002;0.000000e+000
4.377804e+002;0.000000e+000
4.397090e+002;0.000000e+000
4.416375e+002;0.000000e+000
4.435660e+002;0.000000e+000
4.454946e+002;0.000000e+000
4.474232e+002;0.000000e+000
4.493517e+002;0.000000e+000
4.512802e+002;0.000000e+000
4.532088e+002;0.000000e+000
4.551373e+002;0.000000e+000
4.570659e+002;0.000000e+000
4.589944e+002;0.000000e+000
4.609230e+002;0.000000e+000
4.628515e+002;0.000000e+000
4.647801e+002;0.000000e+000
4.667086e+002;0.000000e+000
4.686372e+002;0.000000e+000
4.705657e+002;0.000000e+000
4.724943e+002;0.000000e+000
4.744228e+002;0.000000e+000
4.763513e+002;0.000000e+000
4.782799e+002;0.000000e+000
4.802085e+002;0.000000e+000
4.821370e+002;0.000000e+000
4.840656e+002;0.000000e+000
4.859941e+002;0.000000e+000
4.879226e+002;0.000000e+000
4.898512e+002;0.000000e+000
4.917798e+002;0.000000e+000
4.937083e+002;0.000000e+000
4.956368e+002;0.000000e+000
4.975654e+002;0.000000e+000
4.994939e+002;0.000000e+000
5.014225e+002;0.000000e+000
5.033510e+002;0.000000e+000
5.052796e+002;0.000000e+000
5.072081e+002;0.000000e+000
5.091367e+002;0.000000e+000
5.110652e+002;0.000000e+000
5.129938e+002;0.000000e+000
5.149223e+002;0.000000e+000
5.168509e+002;0.000000e+000
5.187794e+002;0.000000e+000
5.207079e+002;0.000000e+000
5.226365e+002;0.000000e+000
5.245651e+002;0.000000e+000
5.264936e+002;0.000000e+000
5.284222e+002;0.000000e+000
5.303507e+002;0.000000e+000
5.322792e+002;0.000000e+000
5.342078e+002;0.000000e+000
5.361364e+002;0.000000e+000
5.380649e+002;0.000000e+000
5.399935e+002;0.000000e+000
5.419220e+002;0.000000e+000
5.438505e+002;0.000000e+000
5.457791e+002;0.000000e+000
5.477076e+002;0.000000e+000
5.496362e+002;0.000000e+000
5.515648e+002;0.000000e+000
5.534933e+002;0.000000e+000
5.554218e+002;0.000000e+000
5.573504e+002;0.000000e+000
5.592789e+002;0.000000e+000
5.612075e+002;0.000000e+000
5.631360e+002;0.000000e+000
5.650646e+002;0.000000e+000
5.669931e+002;0.000000e+000
5.689217e+002;0.000000e+000
5.708502e+002;0.000000e+000
5.727787e+002;0.000000e+000
5.747073e+002;0.000000e+000
5.766359e+002;0.000000e+000
5.785644e+002;0.000000e+000
5.804930e+002;0.000000e+000
5.824215e+002;0.000000e+000
5.843500e+002;0.000000e+000
5.862786e+002;0.000000e+000
5.882072e+002;0.000000e+000
5.901357e+002;0.000000e+000
5.920643e+002;0.000000e+000
5.939928e+002;0.000000e+000
5.959213e+002;0.000000e+000
5.978499e+002;0.000000e+000
5.997784e+002;1.421082e-001
6.017070e+002;1.433175e-001
6.036355e+002;1.415619e-001
6.055641e+002;1.447216e-001
6.074926e+002;1.477232e-001
6.094211e+002;1.465354e-001
6.113497e+002;1.448130e-001
6.132783e+002;1.454903e-001
6.152068e+002;1.456273e-001
6.171354e+002;1.441394e-001
6.190639e+002;1.420976e-001
6.209924e+002;1.394140e-001
6.229210e+002;1.401926e-001
6.248495e+002;1.427143e-001
6.267781e+002;1.439386e-001
6.287067e+002;1.402866e-001
6.306352e+002;1.383670e-001
6.325637e+002;1.380040e-001
6.344923e+002;1.403321e-001
6.364208e+002;1.430829e-001
6.383494e+002;1.434048e-001
6.402780e+002;1.419442e-001
6.422065e+002;1.439508e-001
6.441350e+002;1.480739e-001
6.460636e+002;1.496949e-001
6.479921e+002;1.493856e-001
6.499207e+002;1.527828e-001
6.518492e+002;1.579513e-001
6.537778e+002;1.623595e-001
6.557063e+002;1.661359e-001
6.576349e+002;1.670428e-001
6.595634e+002;1.692635e-001
6.614919e+002;1.720427e-001
6.634205e+002;1.738030e-001
6.653491e+002;1.754678e-001
6.672776e+002;1.778084e-001
6.692062e+002;1.810465e-001
6.711347e+002;1.838044e-001
6.730632e+002;1.855807e-001
6.749918e+002;1.858314e-001
6.769203e+002;1.872440e-001
6.788489e+002;1.901743e-001
6.807775e+002;1.921024e-001
6.827060e+002;1.923292e-001
6.846345e+002;1.924321e-001
6.865631e+002;1.910140e-001
6.884916e+002;1.889415e-001
6.904202e+002;1.869263e-001
6.923488e+002;1.843942e-001
6.942773e+002;1.816074e-001
6.962058e+002;1.772999e-001
6.981344e+002;1.730203e-001
7.000629e+002;1.697714e-001
7.019915e+002;1.684708e-001
7.039200e+002;1.671337e-001
7.058486e+002;1.653024e-001
7.077771e+002;1.640442e-001
7.097057e+002;1.623256e-001
7.116342e+002;1.612247e-001
7.135627e+002;1.608352e-001
7.154913e+002;1.582012e-001
7.174199e+002;1.552944e-001
7.193484e+002;1.543377e-001
7.212770e+002;1.543492e-001
7.232055e+002;1.548997e-001
7.251340e+002;1.550981e-001
7.270626e+002;1.553295e-001
7.289911e+002;1.548737e-001
7.309197e+002;1.506800e-001
7.328483e+002;1.430721e-001
7.347768e+002;1.357564e-001
7.367053e+002;1.297748e-001
7.386339e+002;1.238609e-001
7.405624e+002;1.190868e-001
7.424910e+002;1.164419e-001
7.444196e+002;1.147484e-001
7.463481e+002;1.131975e-001
7.482766e+002;1.113886e-001
7.502052e+002;1.094599e-001
7.521337e+002;1.088653e-001
7.540623e+002;1.076172e-001
7.559908e+002;1.044012e-001
7.579194e+002;1.018135e-001
7.598479e+002;1.005524e-001
7.617765e+002;1.002228e-001
7.637050e+002;9.959899e-002
7.656335e+002;9.849929e-002
7.675621e+002;9.716962e-002
7.694907e+002;9.636187e-002
7.714192e+002;9.577128e-002
7.733478e+002;9.515976e-002
7.752763e+002;9.379756e-002
7.772048e+002;9.209898e-002
7.791334e+002;9.146430e-002
7.810620e+002;9.099709e-002
7.829905e+002;8.919884e-002
7.849191e+002;8.691992e-002
7.868476e+002;8.534221e-002
7.887761e+002;8.400998e-002
7.907047e+002;8.214864e-002
7.926332e+002;8.085145e-002
7.945618e+002;8.040724e-002
7.964903e+002;8.060034e-002
7.984189e+002;8.018691e-002
8.003474e+002;7.829785e-002
8.022759e+002;7.692317e-002
8.042045e+002;7.638533e-002
8.061331e+002;7.571500e-002
8.080616e+002;7.508398e-002
8.099902e+002;7.503085e-002
8.119187e+002;7.436614e-002
8.138472e+002;7.254753e-002
8.157758e+002;7.195234e-002
8.177043e+002;7.230888e-002
8.196329e+002;7.250375e-002
8.215615e+002;7.289738e-002
8.234900e+002;7.292301e-002
8.254185e+002;7.262593e-002
8.273471e+002;7.295751e-002
8.292756e+002;7.438569e-002
8.312042e+002;7.608479e-002
8.331328e+002;7.683200e-002
8.350613e+002;7.545623e-002
8.369898e+002;7.310863e-002
8.389184e+002;7.134605e-002
8.408469e+002;6.971951e-002
8.427755e+002;6.765667e-002
8.447040e+002;6.612750e-002
8.466326e+002;6.578817e-002
8.485611e+002;6.627028e-002
8.504897e+002;6.644945e-002
8.524182e+002;6.597505e-002
8.543467e+002;6.583387e-002
8.562753e+002;6.524187e-002
8.582039e+002;6.508295e-002
8.601324e+002;6.528057e-002
8.620610e+002;6.476963e-002
8.639895e+002;6.470060e-002
8.659180e+002;6.538987e-002
8.678466e+002;6.561545e-002
8.697751e+002;6.523047e-002
8.717037e+002;6.554274e-002
8.736323e+002;6.634254e-002
8.755608e+002;6.674010e-002
8.774893e+002;6.667674e-002
8.794179e+002;6.639535e-002
8.813464e+002;6.613900e-002
8.832750e+002;6.653355e-002
8.852036e+002;6.714266e-002
8.871321e+002;6.773698e-002
8.890606e+002;6.774116e-002
8.909892e+002;6.707507e-002
8.929177e+002;6.706149e-002
8.948463e+002;6.770717e-002
8.967748e+002;6.807686e-002
8.987034e+002;6.770550e-002
9.006319e+002;6.745944e-002
9.025605e+002;6.814326e-002
9.044890e+002;6.884357e-002
9.064175e+002;6.935385e-002
9.083461e+002;6.979312e-002
9.102747e+002;7.006644e-002
9.122032e+002;7.040250e-002
9.141318e+002;7.099568e-002
9.160603e+002;7.143467e-002
9.179888e+002;7.191699e-002
9.199174e+002;7.295406e-002
9.218459e+002;7.427461e-002
9.237745e+002;7.576336e-002
9.257031e+002;7.717232e-002
9.276316e+002;7.826742e-002
9.295601e+002;7.839579e-002
9.314887e+002;7.764679e-002
9.334172e+002;7.657183e-002
9.353458e+002;7.542241e-002
9.372744e+002;7.459971e-002
9.392029e+002;7.444948e-002
9.411314e+002;7.492150e-002
9.430600e+002;7.551872e-002
9.449885e+002;7.629364e-002
9.469171e+002;7.745282e-002
9.488456e+002;7.909238e-002
9.507742e+002;8.074980e-002
9.527027e+002;8.145241e-002
9.546313e+002;8.193431e-002
9.565598e+002;8.290108e-002
9.584883e+002;8.346565e-002
9.604169e+002;8.292574e-002
9.623455e+002;8.181845e-002
9.642740e+002;8.102463e-002
9.662026e+002;8.083285e-002
9.681311e+002;8.097309e-002
9.700596e+002;8.117272e-002
9.719882e+002;8.084662e-002
9.739167e+002;8.013981e-002
9.758453e+002;7.946935e-002
9.777739e+002;7.857046e-002
9.797024e+002;7.767924e-002
9.816309e+002;7.702025e-002
9.835595e+002;7.654084e-002
9.854880e+002;7.591921e-002
9.874166e+002;7.510391e-002
9.893452e+002;7.444032e-002
9.912737e+002;7.353331e-002
9.932022e+002;7.270171e-002
9.951307e+002;7.215498e-002
9.970593e+002;7.183261e-002
9.989879e+002;7.182585e-002
1.000916e+003;7.192864e-002
1.002845e+003;7.197537e-002
1.004773e+003;7.225762e-002
1.006702e+003;7.238521e-002
1.008631e+003;7.209521e-002
1.010559e+003;7.175471e-002
1.012488e+003;7.150830e-002
1.014416e+003;7.139139e-002
1.016345e+003;7.157612e-002
1.018273e+003;7.182245e-002
1.020202e+003;7.215589e-002
1.022130e+003;7.312509e-002
1.024059e+003;7.437850e-002
1.025988e+003;7.527683e-002
1.027916e+003;7.589880e-002
1.029845e+003;7.618148e-002
1.031773e+003;7.572095e-002
1.033702e+003;7.527655e-002
1.035630e+003;7.490417e-002
1.037559e+003;7.408568e-002
1.039487e+003;7.292987e-002
1.041416e+003;7.218041e-002
1.043344e+003;7.204057e-002
1.045273e+003;7.224486e-002
1.047202e+003;7.268072e-002
1.049130e+003;7.329546e-002
1.051059e+003;7.429274e-002
1.052987e+003;7.518274e-002
1.054916e+003;7.590354e-002
1.056844e+003;7.697060e-002
1.058773e+003;7.808038e-002
1.060701e+003;7.901017e-002
1.062630e+003;7.994308e-002
1.064558e+003;8.112919e-002
1.066487e+003;8.230808e-002
1.068416e+003;8.311319e-002
1.070344e+003;8.395526e-002
1.072273e+003;8.459278e-002
1.074201e+003;8.448699e-002
1.076130e+003;8.339840e-002
1.078058e+003;8.226167e-002
1.079987e+003;8.146377e-002
1.081915e+003;8.096442e-002
1.083844e+003;8.041182e-002
1.085773e+003;7.982313e-002
1.087701e+003;7.963239e-002
1.089630e+003;7.935864e-002
1.091558e+003;7.938084e-002
1.093487e+003;7.908101e-002
1.095415e+003;7.931139e-002
1.097344e+003;8.075371e-002
1.099272e+003;8.234497e-002
1.101201e+003;8.387386e-002
1.103129e+003;8.535500e-002
1.105058e+003;8.667786e-002
1.106987e+003;8.770967e-002
1.108915e+003;8.859397e-002
1.110844e+003;8.962070e-002
1.112772e+003;9.083827e-002
1.114701e+003;9.143326e-002
1.116629e+003;9.192149e-002
1.118558e+003;9.198861e-002
1.120486e+003;9.133016e-002
1.122415e+003;9.019090e-002
1.124344e+003;8.824582e-002
1.126272e+003;8.591486e-002
1.128201e+003;8.345321e-002
1.130129e+003;8.130124e-002
1.132058e+003;7.978223e-002
1.133986e+003;7.887069e-002
1.135915e+003;7.841457e-002
1.137843e+003;7.857884e-002
1.139772e+003;7.918251e-002
1.141700e+003;8.027257e-002
1.143629e+003;8.211221e-002
1.145557e+003;8.433922e-002
1.147486e+003;8.600621e-002
1.149415e+003;8.796955e-002
1.151343e+003;9.079150e-002
1.153272e+003;9.400347e-002
1.155200e+003;9.728625e-002
1.157129e+003;1.007835e-001
1.159057e+003;1.049143e-001
1.160986e+003;1.099649e-001
1.162914e+003;1.154832e-001
1.164843e+003;1.212777e-001
1.166771e+003;1.261600e-001
1.168700e+003;1.282319e-001
1.170629e+003;1.270483e-001
1.172557e+003;1.234697e-001
1.174486e+003;1.186216e-001
1.176414e+003;1.136745e-001
1.178343e+003;1.093869e-001
1.180271e+003;1.062553e-001
1.182200e+003;1.049204e-001
1.184128e+003;1.055193e-001
1.186057e+003;1.077716e-001
1.187986e+003;1.108740e-001
1.189914e+003;1.141646e-001
1.191843e+003;1.179373e-001
1.193771e+003;1.228426e-001
1.195700e+003;1.284325e-001
1.197628e+003;1.337689e-001
1.199557e+003;1.365441e-001
1.201485e+003;1.348805e-001
1.203414e+003;1.303625e-001
1.205343e+003;1.265843e-001
1.207271e+003;1.243771e-001
1.209200e+003;1.230101e-001
1.211128e+003;1.223906e-001
1.213057e+003;1.218625e-001
1.214985e+003;1.198875e-001
1.216914e+003;1.166835e-001
1.218842e+003;1.135100e-001
1.220771e+003;1.117693e-001
1.222699e+003;1.117022e-001
1.224628e+003;1.131212e-001
1.226557e+003;1.161530e-001
1.228485e+003;1.205266e-001
1.230414e+003;1.252301e-001
1.232342e+003;1.296399e-001
1.234271e+003;1.328631e-001
1.236199e+003;1.346574e-001
1.238128e+003;1.351435e-001
1.240056e+003;1.348429e-001
1.241985e+003;1.343980e-001
1.243913e+003;1.344449e-001
1.245842e+003;1.349008e-001
1.247771e+003;1.361884e-001
1.249699e+003;1.382614e-001
1.251628e+003;1.409116e-001
1.253556e+003;1.441929e-001
1.255485e+003;1.477566e-001
1.257413e+003;1.509589e-001
1.259342e+003;1.535278e-001
1.261270e+003;1.549070e-001
1.263199e+003;1.539662e-001
1.265127e+003;1.501480e-001
1.267056e+003;1.442065e-001
1.268985e+003;1.374253e-001
1.270913e+003;1.324364e-001
1.272842e+003;1.298665e-001
1.274770e+003;1.287204e-001
1.276699e+003;1.280530e-001
1.278627e+003;1.274007e-001
1.280556e+003;1.263437e-001
1.282484e+003;1.245035e-001
1.284413e+003;1.224735e-001
1.286342e+003;1.209628e-001
1.288270e+003;1.198995e-001
1.290199e+003;1.193761e-001
1.292127e+003;1.190322e-001
1.294056e+003;1.181131e-001
1.295984e+003;1.172689e-001
1.297913e+003;1.173591e-001
1.299841e+003;1.174348e-001
1.301770e+003;1.165311e-001
1.303698e+003;1.154792e-001
1.305627e+003;1.147673e-001
1.307556e+003;1.140315e-001
1.309484e+003;1.130157e-001
1.311413e+003;1.118135e-001
1.313341e+003;1.108586e-001
1.315270e+003;1.099152e-001
1.317198e+003;1.087102e-001
1.319127e+003;1.075938e-001
1.321055e+003;1.068007e-001
1.322984e+003;1.061680e-001
1.324912e+003;1.057570e-001
1.326841e+003;1.059557e-001
1.328770e+003;1.064789e-001
1.330698e+003;1.070323e-001
1.332627e+003;1.074815e-001
1.334555e+003;1.077272e-001
1.336484e+003;1.080222e-001
1.338412e+003;1.085010e-001
1.340341e+003;1.092379e-001
1.342269e+003;1.100970e-001
1.344198e+003;1.107468e-001
1.346126e+003;1.115489e-001
1.348055e+003;1.126304e-001
1.349984e+003;1.137964e-001
1.351912e+003;1.151472e-001
1.353841e+003;1.166768e-001
1.355769e+003;1.183047e-001
1.357698e+003;1.199528e-001
1.359626e+003;1.218053e-001
1.361555e+003;1.238254e-001
1.363483e+003;1.255439e-001
1.365412e+003;1.272166e-001
1.367341e+003;1.287639e-001
1.369269e+003;1.301148e-001
1.371198e+003;1.309098e-001
1.373126e+003;1.306554e-001
1.375055e+003;1.293061e-001
1.376983e+003;1.271258e-001
1.378912e+003;1.240380e-001
1.380840e+003;1.204757e-001
1.382769e+003;1.170135e-001
1.384698e+003;1.137168e-001
1.386626e+003;1.109978e-001
1.388555e+003;1.089370e-001
1.390483e+003;1.071819e-001
1.392412e+003;1.060780e-001
1.394340e+003;1.056290e-001
1.396269e+003;1.057312e-001
1.398197e+003;1.064046e-001
1.400126e+003;1.076671e-001
1.402054e+003;1.099064e-001
1.403983e+003;1.132290e-001
1.405911e+003;1.176547e-001
1.407840e+003;1.233734e-001
1.409769e+003;1.299171e-001
1.411697e+003;1.365324e-001
1.413626e+003;1.421724e-001
1.415554e+003;1.457127e-001
1.417483e+003;1.461858e-001
1.419411e+003;1.439916e-001
1.421340e+003;1.406484e-001
1.423268e+003;1.373778e-001
1.425197e+003;1.351276e-001
1.427125e+003;1.347811e-001
1.429054e+003;1.360857e-001
1.430983e+003;1.380474e-001
1.432911e+003;1.401527e-001
1.434840e+003;1.416507e-001
1.436768e+003;1.416306e-001
1.438697e+003;1.409554e-001
1.440625e+003;1.400364e-001
1.442554e+003;1.390306e-001
1.444482e+003;1.384938e-001
1.446411e+003;1.387391e-001
1.448340e+003;1.399097e-001
1.450268e+003;1.419962e-001
1.452197e+003;1.442537e-001
1.454125e+003;1.465845e-001
1.456054e+003;1.495320e-001
1.457982e+003;1.540821e-001
1.459911e+003;1.596988e-001
1.461839e+003;1.632221e-001
1.463768e+003;1.617017e-001
1.465697e+003;1.550628e-001
1.467625e+003;1.472024e-001
1.469554e+003;1.416774e-001
1.471482e+003;1.393857e-001
1.473411e+003;1.400149e-001
1.475339e+003;1.412750e-001
1.477268e+003;1.402225e-001
1.479196e+003;1.366049e-001
1.481125e+003;1.310386e-001
1.483053e+003;1.245899e-001
1.484982e+003;1.190368e-001
1.486911e+003;1.157259e-001
1.488839e+003;1.152344e-001
1.490768e+003;1.169406e-001
1.492696e+003;1.195688e-001
1.494625e+003;1.226053e-001
1.496553e+003;1.264593e-001
1.498482e+003;1.311892e-001
1.500410e+003;1.362545e-001
1.502339e+003;1.413648e-001
1.504267e+003;1.466921e-001
1.506196e+003;1.528525e-001
1.508125e+003;1.597843e-001
1.510053e+003;1.666608e-001
1.511982e+003;1.740783e-001
1.513910e+003;1.821831e-001
1.515839e+003;1.903657e-001
1.517767e+003;1.990308e-001
1.519696e+003;2.083163e-001
1.521624e+003;2.180158e-001
1.523553e+003;2.281949e-001
1.525481e+003;2.386280e-001
1.527410e+003;2.493202e-001
1.529339e+003;2.594349e-001
1.531267e+003;2.685310e-001
1.533196e+003;2.768902e-001
1.535124e+003;2.835485e-001
1.537053e+003;2.870865e-001
1.538981e+003;2.868949e-001
1.540910e+003;2.838845e-001
1.542838e+003;2.781190e-001
1.544767e+003;2.693798e-001
1.546695e+003;2.584164e-001
1.548624e+003;2.460406e-001
1.550553e+003;2.337199e-001
1.552481e+003;2.225396e-001
1.554410e+003;2.118534e-001
1.556338e+003;2.016497e-001
1.558267e+003;1.919456e-001
1.560195e+003;1.832180e-001
1.562124e+003;1.755358e-001
1.564052e+003;1.674748e-001
1.565981e+003;1.591403e-001
1.567910e+003;1.510530e-001
1.569838e+003;1.433776e-001
1.571767e+003;1.365886e-001
1.573695e+003;1.303465e-001
1.575624e+003;1.243506e-001
1.577552e+003;1.194411e-001
1.579481e+003;1.158250e-001
1.581409e+003;1.129709e-001
1.583338e+003;1.106645e-001
1.585266e+003;1.092341e-001
1.587195e+003;1.089612e-001
1.589124e+003;1.091392e-001
1.591052e+003;1.098479e-001
1.592981e+003;1.114385e-001
1.594909e+003;1.139371e-001
1.596838e+003;1.175267e-001
1.598766e+003;1.218117e-001
1.600695e+003;1.265932e-001
1.602623e+003;1.327282e-001
1.604552e+003;1.400013e-001
1.606480e+003;1.479440e-001
1.608409e+003;1.562205e-001
1.610338e+003;1.652921e-001
1.612266e+003;1.755270e-001
1.614195e+003;1.868422e-001
1.616123e+003;1.999975e-001
1.618052e+003;2.155875e-001
1.619980e+003;2.324394e-001
1.621909e+003;2.502409e-001
1.623837e+003;2.688473e-001
1.625766e+003;2.873322e-001
1.627694e+003;3.058299e-001
1.629623e+003;3.246388e-001
1.631552e+003;3.430813e-001
1.633480e+003;3.582989e-001
1.635409e+003;3.654446e-001
1.637337e+003;3.626516e-001
1.639266e+003;3.501291e-001
1.641194e+003;3.305329e-001
1.643123e+003;3.075415e-001
1.645051e+003;2.834302e-001
1.646980e+003;2.602807e-001
1.648909e+003;2.404575e-001
1.650837e+003;2.233291e-001
1.652766e+003;2.077285e-001
1.654694e+003;1.950301e-001
1.656623e+003;1.845012e-001
1.658551e+003;1.748189e-001
1.660480e+003;1.653215e-001
1.662408e+003;1.558652e-001
1.664337e+003;1.470085e-001
1.666266e+003;1.381280e-001
1.668194e+003;1.292340e-001
1.670123e+003;1.210840e-001
1.672051e+003;1.135706e-001
1.673980e+003;1.065573e-001
1.675908e+003;9.981012e-002
1.677837e+003;9.332056e-002
1.679765e+003;8.662964e-002
1.681694e+003;7.986868e-002
1.683622e+003;7.340413e-002
1.685551e+003;6.769357e-002
1.687479e+003;6.325744e-002
1.689408e+003;5.958895e-002
1.691337e+003;5.667479e-002
1.693265e+003;5.454589e-002
1.695194e+003;5.274953e-002
1.697122e+003;5.137659e-002
1.699051e+003;5.055214e-002
1.700979e+003;4.998257e-002
1.702908e+003;4.974275e-002
1.704836e+003;4.939994e-002
1.706765e+003;4.933308e-002
1.708693e+003;4.929040e-002
1.710622e+003;4.899290e-002
1.712551e+003;4.869116e-002
1.714479e+003;4.878839e-002
1.716408e+003;4.885506e-002
1.718336e+003;4.870321e-002
1.720265e+003;4.870513e-002
1.722193e+003;4.882321e-002
1.724122e+003;4.899546e-002
1.726050e+003;4.896301e-002
1.727979e+003;4.861771e-002
1.729908e+003;4.822639e-002
1.731836e+003;4.766079e-002
1.733765e+003;4.707989e-002
1.735693e+003;4.685104e-002
1.737622e+003;4.648270e-002
1.739550e+003;4.600607e-002
1.741479e+003;4.550549e-002
1.743407e+003;4.502776e-002
1.745336e+003;4.453032e-002
1.747265e+003;4.391657e-002
1.749193e+003;4.347801e-002
1.751122e+003;4.319387e-002
1.753050e+003;4.306803e-002
1.754979e+003;4.289650e-002
1.756907e+003;4.249225e-002
1.758836e+003;4.192144e-002
1.760764e+003;4.138016e-002
1.762693e+003;4.107353e-002
1.764621e+003;4.058621e-002
1.766550e+003;4.014428e-002
1.768479e+003;3.993601e-002
1.770407e+003;3.964989e-002
1.772336e+003;3.899616e-002
1.774264e+003;3.837949e-002
1.776193e+003;3.823271e-002
1.778121e+003;3.815688e-002
1.780050e+003;3.792646e-002
1.781978e+003;3.766219e-002
1.783907e+003;3.747057e-002
1.785835e+003;3.734944e-002
1.787764e+003;3.721870e-002
1.789693e+003;3.711252e-002
1.791621e+003;3.686623e-002
1.793550e+003;3.666451e-002
1.795478e+003;3.657424e-002
1.797407e+003;3.649394e-002
1.799335e+003;3.623303e-002
1.801264e+003;3.581424e-002
1.803192e+003;3.560150e-002
1.805121e+003;3.549663e-002
1.807049e+003;3.552799e-002
1.808978e+003;3.571178e-002
1.810907e+003;3.580359e-002
1.812835e+003;3.569624e-002
1.814764e+003;3.562066e-002
1.816692e+003;3.530205e-002
1.818621e+003;3.515296e-002
1.820549e+003;3.532893e-002
1.822478e+003;3.530439e-002
1.824406e+003;3.517099e-002
1.826335e+003;3.512652e-002
1.828264e+003;3.493856e-002
1.830192e+003;3.496172e-002
1.832121e+003;3.516140e-002
1.834049e+003;3.511872e-002
1.835978e+003;3.508208e-002
1.837906e+003;3.500813e-002
1.839835e+003;3.473514e-002
1.841763e+003;3.464646e-002
1.843692e+003;3.457333e-002
1.845620e+003;3.446922e-002
1.847549e+003;3.436686e-002
1.849478e+003;3.449204e-002
1.851406e+003;3.438662e-002
1.853335e+003;3.422730e-002
1.855263e+003;3.422691e-002
1.857192e+003;3.409607e-002
1.859120e+003;3.399763e-002
1.861049e+003;3.395202e-002
1.862977e+003;3.384885e-002
1.864906e+003;3.394378e-002
1.866834e+003;3.396033e-002
1.868763e+003;3.388119e-002
1.870692e+003;3.370892e-002
1.872620e+003;3.352959e-002
1.874549e+003;3.356324e-002
1.876477e+003;3.377438e-002
1.878406e+003;3.404601e-002
1.880334e+003;3.413446e-002
1.882263e+003;3.403909e-002
1.884191e+003;3.395714e-002
1.886120e+003;3.401071e-002
1.888048e+003;3.413589e-002
1.889977e+003;3.404880e-002
1.891906e+003;3.373066e-002
1.893834e+003;3.383162e-002
1.895763e+003;3.439870e-002
1.897691e+003;3.444078e-002
1.899620e+003;3.421684e-002
1.901548e+003;3.436345e-002
1.903477e+003;3.468081e-002
1.905405e+003;3.466053e-002
1.907334e+003;3.435675e-002
1.909262e+003;3.415944e-002
1.911191e+003;3.418242e-002
1.913120e+003;3.423247e-002
1.915048e+003;3.411410e-002
1.916977e+003;3.401988e-002
1.918905e+003;3.405128e-002
1.920834e+003;3.396907e-002
1.922762e+003;3.398398e-002
1.924691e+003;3.402422e-002
1.926619e+003;3.374627e-002
1.928548e+003;3.369510e-002
1.930477e+003;3.383438e-002
1.932405e+003;3.388220e-002
1.934334e+003;3.391315e-002
1.936262e+003;3.379877e-002
1.938191e+003;3.361261e-002
1.940119e+003;3.345232e-002
1.942048e+003;3.346062e-002
1.943976e+003;3.346832e-002
1.945905e+003;3.357452e-002
1.947833e+003;3.388453e-002
1.949762e+003;3.387038e-002
1.951691e+003;3.376067e-002
1.953619e+003;3.393995e-002
1.955548e+003;3.392304e-002
1.957476e+003;3.394876e-002
1.959405e+003;3.410213e-002
1.961333e+003;3.413217e-002
1.963262e+003;3.409012e-002
1.965190e+003;3.419221e-002
1.967119e+003;3.448529e-002
1.969047e+003;3.448777e-002
1.970976e+003;3.429396e-002
1.972905e+003;3.420257e-002
1.974833e+003;3.432877e-002
1.976762e+003;3.450011e-002
1.978690e+003;3.453469e-002
1.980619e+003;3.449383e-002
1.982547e+003;3.441811e-002
1.984476e+003;3.450926e-002
1.986404e+003;3.464144e-002
1.988333e+003;3.456677e-002
1.990261e+003;3.439573e-002
1.992190e+003;3.439738e-002
1.994119e+003;3.452314e-002
1.996047e+003;3.467919e-002
1.997976e+003;3.470438e-002
1.999904e+003;3.471261e-002
2.001833e+003;3.479559e-002
2.003761e+003;3.470726e-002
2.005690e+003;3.458600e-002
2.007618e+003;3.452174e-002
2.009547e+003;3.452802e-002
2.011476e+003;3.470998e-002
2.013404e+003;3.470973e-002
2.015333e+003;3.473819e-002
2.017261e+003;3.496801e-002
2.019190e+003;3.532160e-002
2.021118e+003;3.533339e-002
2.023047e+003;3.523291e-002
2.024975e+003;3.524498e-002
2.026904e+003;3.520183e-002
2.028833e+003;3.523035e-002
2.030761e+003;3.529543e-002
2.032690e+003;3.556370e-002
2.034618e+003;3.592357e-002
2.036547e+003;3.601172e-002
2.038475e+003;3.595586e-002
2.040404e+003;3.599876e-002
2.042332e+003;3.594697e-002
2.044261e+003;3.588560e-002
2.046189e+003;3.583525e-002
2.048118e+003;3.571681e-002
2.050047e+003;3.553116e-002
2.051975e+003;3.550994e-002
2.053904e+003;3.568491e-002
2.055832e+003;3.600434e-002
2.057761e+003;3.604776e-002
2.059689e+003;3.599084e-002
2.061618e+003;3.611660e-002
2.063546e+003;3.609543e-002
2.065475e+003;3.611808e-002
2.067404e+003;3.627729e-002
2.069332e+003;3.621801e-002
2.071260e+003;3.615531e-002
2.073189e+003;3.618066e-002
2.075118e+003;3.611840e-002
2.077046e+003;3.602536e-002
2.078975e+003;3.598390e-002
2.080903e+003;3.580503e-002
2.082832e+003;3.571296e-002
2.084760e+003;3.583274e-002
2.086689e+003;3.589661e-002
2.088617e+003;3.600985e-002
2.090546e+003;3.599084e-002
2.092475e+003;3.572091e-002
2.094403e+003;3.561419e-002
2.096332e+003;3.581158e-002
2.098260e+003;3.585901e-002
2.100189e+003;3.564285e-002
2.102117e+003;3.543285e-002
2.104046e+003;3.557161e-002
2.105974e+003;3.577999e-002
2.107903e+003;3.580503e-002
2.109832e+003;3.597162e-002
2.111760e+003;3.621156e-002
2.113688e+003;3.610184e-002
2.115617e+003;3.604474e-002
2.117546e+003;3.621678e-002
2.119474e+003;3.629772e-002
2.121403e+003;3.628796e-002
2.123331e+003;3.628205e-002
2.125260e+003;3.637121e-002
2.127188e+003;3.644270e-002
2.129117e+003;3.649589e-002
2.131045e+003;3.648529e-002
2.132974e+003;3.660841e-002
2.134903e+003;3.669068e-002
2.136831e+003;3.662363e-002
2.138760e+003;3.661097e-002
2.140688e+003;3.669609e-002
2.142617e+003;3.671736e-002
2.144545e+003;3.680503e-002
2.146474e+003;3.692095e-002
2.148402e+003;3.673287e-002
2.150331e+003;3.671134e-002
2.152260e+003;3.694570e-002
2.154188e+003;3.715489e-002
2.156117e+003;3.709292e-002
2.158045e+003;3.680892e-002
2.159974e+003;3.686826e-002
2.161902e+003;3.696486e-002
2.163831e+003;3.693942e-002
2.165759e+003;3.719564e-002
2.167688e+003;3.741545e-002
2.169616e+003;3.746410e-002
2.171545e+003;3.765478e-002
2.173474e+003;3.762345e-002
2.175402e+003;3.763231e-002
2.177331e+003;3.747530e-002
2.179259e+003;3.737114e-002
2.181188e+003;3.760557e-002
2.183116e+003;3.764072e-002
2.185045e+003;3.752941e-002
2.186973e+003;3.758927e-002
2.188902e+003;3.776656e-002
2.190831e+003;3.800959e-002
2.192759e+003;3.817533e-002
2.194688e+003;3.810030e-002
2.196616e+003;3.793051e-002
2.198545e+003;3.783774e-002
2.200473e+003;3.771173e-002
2.202402e+003;3.763465e-002
2.204330e+003;3.763491e-002
2.206259e+003;3.764080e-002
2.208188e+003;3.761648e-002
2.210116e+003;3.740122e-002
2.212044e+003;3.712627e-002
2.213973e+003;3.686450e-002
2.215902e+003;3.671967e-002
2.217830e+003;3.671051e-002
2.219759e+003;3.665615e-002
2.221687e+003;3.660095e-002
2.223616e+003;3.649243e-002
2.225544e+003;3.659356e-002
2.227473e+003;3.660856e-002
2.229401e+003;3.639567e-002
2.231330e+003;3.638893e-002
2.233259e+003;3.667662e-002
2.235187e+003;3.678761e-002
2.237116e+003;3.667057e-002
2.239044e+003;3.660207e-002
2.240973e+003;3.647790e-002
2.242901e+003;3.643560e-002
2.244830e+003;3.663008e-002
2.246758e+003;3.660585e-002
2.248687e+003;3.658433e-002
2.250615e+003;3.661202e-002
2.252544e+003;3.665207e-002
2.254473e+003;3.674603e-002
2.256401e+003;3.674985e-002
2.258330e+003;3.671953e-002
2.260258e+003;3.689419e-002
2.262187e+003;3.703114e-002
2.264115e+003;3.708733e-002
2.266044e+003;3.726964e-002
2.267972e+003;3.735124e-002
2.269901e+003;3.713482e-002
2.271830e+003;3.713121e-002
2.273758e+003;3.723997e-002
2.275687e+003;3.706531e-002
2.277615e+003;3.707621e-002
2.279544e+003;3.722589e-002
2.281472e+003;3.724777e-002
2.283401e+003;3.733565e-002
2.285329e+003;3.749838e-002
2.287258e+003;3.735977e-002
2.289187e+003;3.711652e-002
2.291115e+003;3.709797e-002
2.293043e+003;3.741953e-002
2.294972e+003;3.750835e-002
2.296901e+003;3.741997e-002
2.298829e+003;3.742993e-002
2.300758e+003;3.742285e-002
2.302686e+003;3.754260e-002
2.304615e+003;3.769710e-002
2.306543e+003;3.752204e-002
2.308472e+003;3.753703e-002
2.310400e+003;3.768600e-002
2.312329e+003;3.768260e-002
2.314258e+003;3.764564e-002
2.316186e+003;3.770646e-002
2.318115e+003;3.793651e-002
2.320043e+003;3.804721e-002
2.321972e+003;3.809234e-002
2.323900e+003;3.794114e-002
2.325829e+003;3.799299e-002
2.327757e+003;3.816281e-002
2.329686e+003;3.819697e-002
2.331615e+003;3.809911e-002
2.333543e+003;3.810066e-002
2.335472e+003;3.810953e-002
2.337400e+003;3.774863e-002
2.339329e+003;3.755145e-002
2.341257e+003;3.751507e-002
2.343186e+003;3.728564e-002
2.345114e+003;3.740039e-002
2.347043e+003;3.759187e-002
2.348971e+003;3.761066e-002
2.350900e+003;3.756409e-002
2.352829e+003;3.751409e-002
2.354757e+003;3.737681e-002
2.356686e+003;3.716117e-002
2.358614e+003;3.714947e-002
2.360543e+003;3.724340e-002
2.362471e+003;3.732366e-002
2.364400e+003;3.744023e-002
2.366328e+003;3.746630e-002
2.368257e+003;3.747931e-002
2.370186e+003;3.761955e-002
2.372114e+003;3.779747e-002
2.374042e+003;3.784019e-002
2.375971e+003;3.790086e-002
2.377900e+003;3.797907e-002
2.379828e+003;3.809777e-002
2.381757e+003;3.828355e-002
2.383685e+003;3.834258e-002
2.385614e+003;3.841917e-002
2.387542e+003;3.839836e-002
2.389471e+003;3.832202e-002
2.391399e+003;3.816064e-002
2.393328e+003;3.806775e-002
2.395257e+003;3.817576e-002
2.397185e+003;3.816296e-002
2.399114e+003;3.800959e-002
2.401042e+003;3.815945e-002
2.402971e+003;3.831837e-002
2.404899e+003;3.846826e-002
2.406828e+003;3.834504e-002
2.408756e+003;3.810312e-002
2.410685e+003;3.814722e-002
2.412614e+003;3.843528e-002
2.414542e+003;3.844339e-002
2.416471e+003;3.817370e-002
2.418399e+003;3.810526e-002
2.420328e+003;3.803364e-002
2.422256e+003;3.812291e-002
2.424185e+003;3.841341e-002
2.426113e+003;3.862280e-002
2.428042e+003;3.868086e-002
2.429970e+003;3.888870e-002
2.431899e+003;3.894988e-002
2.433828e+003;3.882732e-002
2.435756e+003;3.881373e-002
2.437685e+003;3.893828e-002
2.439613e+003;3.909251e-002
2.441542e+003;3.949829e-002
2.443470e+003;3.978543e-002
2.445399e+003;3.979378e-002
2.447327e+003;3.977624e-002
2.449256e+003;3.973626e-002
2.451185e+003;3.972817e-002
2.453113e+003;3.972272e-002
2.455042e+003;3.996314e-002
2.456970e+003;3.992424e-002
2.458899e+003;3.999471e-002
2.460827e+003;4.016946e-002
2.462756e+003;4.034737e-002
2.464684e+003;4.061313e-002
2.466613e+003;4.056249e-002
2.468542e+003;4.066633e-002
2.470470e+003;4.092311e-002
2.472398e+003;4.100558e-002
2.474327e+003;4.085605e-002
2.476256e+003;4.084225e-002
2.478184e+003;4.111764e-002
2.480113e+003;4.110286e-002
2.482041e+003;4.096152e-002
2.483970e+003;4.122737e-002
2.485898e+003;4.152597e-002
2.487827e+003;4.127120e-002
2.489755e+003;4.090199e-002
2.491684e+003;4.091310e-002
2.493613e+003;4.078212e-002
2.495541e+003;4.086071e-002
2.497470e+003;4.105343e-002
2.499398e+003;4.101031e-002
2.501327e+003;4.094168e-002
2.503255e+003;4.111112e-002
2.505184e+003;4.116973e-002
2.507112e+003;4.111050e-002
2.509041e+003;4.132950e-002
2.510969e+003;4.166880e-002
2.512898e+003;4.180365e-002
2.514827e+003;4.197760e-002
2.516755e+003;4.220865e-002
2.518684e+003;4.224674e-002
2.520612e+003;4.225386e-002
2.522541e+003;4.235634e-002
2.524469e+003;4.253288e-002
2.526398e+003;4.290151e-002
2.528326e+003;4.292246e-002
2.530255e+003;4.271889e-002
2.532184e+003;4.294306e-002
2.534112e+003;4.334406e-002
2.536041e+003;4.356661e-002
2.537969e+003;4.358229e-002
2.539898e+003;4.356551e-002
2.541826e+003;4.362724e-002
2.543755e+003;4.373302e-002
2.545683e+003;4.401501e-002
2.547612e+003;4.419615e-002
2.549541e+003;4.431047e-002
2.551469e+003;4.441605e-002
2.553397e+003;4.442662e-002
2.555326e+003;4.433953e-002
2.557255e+003;4.421765e-002
2.559183e+003;4.420147e-002
2.561112e+003;4.431146e-002
2.563040e+003;4.419722e-002
2.564969e+003;4.406738e-002
2.566897e+003;4.442417e-002
2.568826e+003;4.482434e-002
2.570754e+003;4.473588e-002
2.572683e+003;4.479153e-002
2.574612e+003;4.503775e-002
2.576540e+003;4.516333e-002
2.578469e+003;4.498303e-002
2.580397e+003;4.496833e-002
2.582326e+003;4.544346e-002
2.584254e+003;4.570562e-002
2.586183e+003;4.555807e-002
2.588111e+003;4.562534e-002
2.590040e+003;4.606228e-002
2.591969e+003;4.598212e-002
2.593897e+003;4.566064e-002
2.595826e+003;4.558019e-002
2.597754e+003;4.571541e-002
2.599683e+003;4.592069e-002
2.601611e+003;4.597704e-002
2.603540e+003;4.599722e-002
2.605468e+003;4.622132e-002
2.607397e+003;4.635343e-002
2.609325e+003;4.630348e-002
2.611254e+003;4.636213e-002
2.613183e+003;4.648679e-002
2.615111e+003;4.673276e-002
2.617040e+003;4.689965e-002
2.618968e+003;4.676361e-002
2.620897e+003;4.662913e-002
2.622825e+003;4.661622e-002
2.624754e+003;4.678955e-002
2.626682e+003;4.697027e-002
2.628611e+003;4.686676e-002
2.630540e+003;4.678789e-002
2.632468e+003;4.702170e-002
2.634396e+003;4.724750e-002
2.636325e+003;4.722168e-002
2.638254e+003;4.741577e-002
2.640182e+003;4.765724e-002
2.642111e+003;4.768826e-002
2.644039e+003;4.767355e-002
2.645968e+003;4.744881e-002
2.647896e+003;4.739005e-002
2.649825e+003;4.775827e-002
2.651753e+003;4.797369e-002
2.653682e+003;4.810104e-002
2.655611e+003;4.819703e-002
2.657539e+003;4.809830e-002
2.659468e+003;4.812373e-002
2.661396e+003;4.809405e-002
2.663325e+003;4.791394e-002
2.665253e+003;4.804419e-002
2.667182e+003;4.838219e-002
2.669110e+003;4.852025e-002
2.671039e+003;4.861915e-002
2.672968e+003;4.893920e-002
2.674896e+003;4.910797e-002
2.676825e+003;4.909617e-002
2.678753e+003;4.900273e-002
2.680682e+003;4.912556e-002
2.682610e+003;4.940870e-002
2.684539e+003;4.949681e-002
2.686467e+003;4.952816e-002
2.688396e+003;4.950272e-002
2.690324e+003;4.950394e-002
2.692253e+003;4.983576e-002
2.694182e+003;5.042478e-002
2.696110e+003;5.085101e-002
2.698039e+003;5.100257e-002
2.699967e+003;5.126457e-002
2.701896e+003;5.120119e-002
2.703824e+003;5.111605e-002
2.705753e+003;5.120335e-002
2.707681e+003;5.125006e-002
2.709610e+003;5.156926e-002
2.711539e+003;5.214939e-002
2.713467e+003;5.243691e-002
2.715396e+003;5.243493e-002
2.717324e+003;5.269447e-002
2.719253e+003;5.320820e-002
2.721181e+003;5.359203e-002
2.723110e+003;5.356137e-002
2.725038e+003;5.369933e-002
2.726967e+003;5.387773e-002
2.728896e+003;5.393475e-002
2.730824e+003;5.412578e-002
2.732752e+003;5.447467e-002
2.734681e+003;5.482985e-002
2.736610e+003;5.524556e-002
2.738538e+003;5.567719e-002
2.740467e+003;5.584536e-002
2.742395e+003;5.575185e-002
2.744324e+003;5.574183e-002
2.746252e+003;5.586164e-002
2.748181e+003;5.593324e-002
2.750109e+003;5.599250e-002
2.752038e+003;5.584928e-002
2.753967e+003;5.553864e-002
2.755895e+003;5.548641e-002
2.757824e+003;5.574661e-002
2.759752e+003;5.607422e-002
2.761681e+003;5.643762e-002
2.763609e+003;5.674502e-002
2.765538e+003;5.684309e-002
2.767466e+003;5.700953e-002
2.769395e+003;5.743992e-002
2.771323e+003;5.768631e-002
2.773252e+003;5.768064e-002
2.775181e+003;5.787802e-002
2.777109e+003;5.802906e-002
2.779038e+003;5.835161e-002
2.780966e+003;5.881020e-002
2.782895e+003;5.903941e-002
2.784823e+003;5.915725e-002
2.786752e+003;5.950257e-002
2.788680e+003;5.974420e-002
2.790609e+003;5.976868e-002
2.792538e+003;6.008484e-002
2.794466e+003;6.042941e-002
2.796395e+003;6.062839e-002
2.798323e+003;6.087637e-002
2.800252e+003;6.124625e-002
2.802180e+003;6.172597e-002
2.804109e+003;6.238950e-002
2.806037e+003;6.303530e-002
2.807966e+003;6.341144e-002
2.809895e+003;6.390438e-002
2.811823e+003;6.426283e-002
2.813751e+003;6.451720e-002
2.815680e+003;6.506506e-002
2.817609e+003;6.572904e-002
2.819537e+003;6.637076e-002
2.821466e+003;6.668883e-002
2.823394e+003;6.700362e-002
2.825323e+003;6.771774e-002
2.827251e+003;6.845138e-002
2.829180e+003;6.919377e-002
2.831108e+003;7.014688e-002
2.833037e+003;7.114000e-002
2.834966e+003;7.234591e-002
2.836894e+003;7.404834e-002
2.838823e+003;7.639378e-002
2.840751e+003;7.924999e-002
2.842680e+003;8.263732e-002
2.844608e+003;8.663846e-002
2.846537e+003;9.089504e-002
2.848465e+003;9.518583e-002
2.850394e+003;9.987158e-002
2.852323e+003;1.039886e-001
2.854251e+003;1.070192e-001
2.856180e+003;1.092677e-001
2.858108e+003;1.110207e-001
2.860037e+003;1.123117e-001
2.861965e+003;1.127809e-001
2.863894e+003;1.120223e-001
2.865822e+003;1.106678e-001
2.867751e+003;1.090401e-001
2.869679e+003;1.071227e-001
2.871608e+003;1.049244e-001
2.873536e+003;1.020109e-001
2.875465e+003;9.910792e-002
2.877394e+003;9.627356e-002
2.879322e+003;9.402869e-002
2.881251e+003;9.234621e-002
2.883179e+003;9.104396e-002
2.885108e+003;9.041183e-002
2.887036e+003;9.062406e-002
2.888965e+003;9.139150e-002
2.890893e+003;9.251596e-002
2.892822e+003;9.473121e-002
2.894750e+003;9.745939e-002
2.896679e+003;9.955703e-002
2.898608e+003;1.005996e-001
2.900536e+003;1.015289e-001
2.902465e+003;1.024805e-001
2.904393e+003;1.032072e-001
2.906322e+003;1.043602e-001
2.908250e+003;1.063304e-001
2.910179e+003;1.085546e-001
2.912107e+003;1.111090e-001
2.914036e+003;1.135915e-001
2.915965e+003;1.158553e-001
2.917893e+003;1.185953e-001
2.919822e+003;1.223906e-001
2.921750e+003;1.262670e-001
2.923679e+003;1.296046e-001
2.925607e+003;1.324447e-001
2.927536e+003;1.351256e-001
2.929464e+003;1.377659e-001
2.931393e+003;1.394906e-001
2.933322e+003;1.403721e-001
2.935250e+003;1.404523e-001
2.937178e+003;1.392563e-001
2.939107e+003;1.369569e-001
2.941036e+003;1.338472e-001
2.942964e+003;1.300591e-001
2.944893e+003;1.260464e-001
2.946821e+003;1.211518e-001
2.948750e+003;1.151108e-001
2.950678e+003;1.086564e-001
2.952607e+003;1.023451e-001
2.954535e+003;9.679452e-002
2.956464e+003;9.178693e-002
2.958393e+003;8.735545e-002
2.960321e+003;8.353879e-002
2.962250e+003;7.996503e-002
2.964178e+003;7.727709e-002
2.966107e+003;7.492816e-002
2.968035e+003;7.256252e-002
2.969964e+003;7.024098e-002
2.971892e+003;6.793678e-002
2.973821e+003;6.601860e-002
2.975750e+003;6.448618e-002
2.977678e+003;6.311392e-002
2.979607e+003;6.160545e-002
2.981535e+003;6.044266e-002
2.983464e+003;5.967147e-002
2.985392e+003;5.879753e-002
2.987321e+003;5.822304e-002
2.989249e+003;5.778138e-002
2.991178e+003;5.710728e-002
2.993106e+003;5.657253e-002
2.995035e+003;5.620393e-002
2.996964e+003;5.595575e-002
2.998892e+003;5.575396e-002
3.000821e+003;5.580215e-002
3.002749e+003;5.590916e-002
3.004678e+003;5.603931e-002
3.006606e+003;5.627454e-002
3.008535e+003;5.652830e-002
3.010463e+003;5.632523e-002
3.012392e+003;5.620495e-002
3.014321e+003;5.663455e-002
3.016249e+003;5.682470e-002
3.018177e+003;5.679570e-002
3.020106e+003;5.732580e-002
3.022035e+003;5.812879e-002
3.023963e+003;5.844341e-002
3.025892e+003;5.833099e-002
3.027820e+003;5.834676e-002
3.029749e+003;5.880026e-002
3.031677e+003;5.930000e-002
3.033606e+003;5.983724e-002
3.035534e+003;6.031096e-002
3.037463e+003;6.094640e-002
3.039392e+003;6.136950e-002
3.041320e+003;6.180760e-002
3.043249e+003;6.265620e-002
3.045177e+003;6.364482e-002
3.047106e+003;6.421719e-002
3.049034e+003;6.475455e-002
3.050963e+003;6.562470e-002
3.052891e+003;6.647199e-002
3.054820e+003;6.708508e-002
3.056749e+003;6.775654e-002
3.058677e+003;6.819078e-002
3.060606e+003;6.822836e-002
3.062534e+003;6.850697e-002
3.064463e+003;6.912243e-002
3.066391e+003;6.940512e-002
3.068320e+003;6.971679e-002
3.070248e+003;6.984371e-002
3.072177e+003;6.969640e-002
3.074105e+003;6.962626e-002
3.076034e+003;6.952710e-002
3.077963e+003;6.940388e-002
3.079891e+003;6.917663e-002
3.081820e+003;6.900283e-002
3.083748e+003;6.896838e-002
3.085677e+003;6.903134e-002
3.087605e+003;6.883375e-002
3.089534e+003;6.821483e-002
3.091462e+003;6.733712e-002
3.093391e+003;6.674713e-002
3.095320e+003;6.642728e-002
3.097248e+003;6.613730e-002
3.099177e+003;6.549901e-002
3.101105e+003;6.496426e-002
3.103034e+003;6.424420e-002
3.104962e+003;6.376947e-002
3.106891e+003;6.353289e-002
3.108819e+003;6.293797e-002
3.110748e+003;6.241356e-002
3.112677e+003;6.196758e-002
3.114605e+003;6.152355e-002
3.116533e+003;6.108924e-002
3.118462e+003;6.079510e-002
3.120391e+003;6.058839e-002
3.122319e+003;6.023886e-002
3.124248e+003;5.997900e-002
3.126176e+003;6.014580e-002
3.128105e+003;6.041277e-002
3.130033e+003;6.026231e-002
3.131962e+003;5.999973e-002
3.133890e+003;5.988185e-002
3.135819e+003;5.978652e-002
3.137748e+003;5.977682e-002
3.139676e+003;5.979359e-002
3.141605e+003;5.974994e-002
3.143533e+003;5.984842e-002
3.145462e+003;5.990095e-002
3.147390e+003;5.998596e-002
3.149319e+003;6.044560e-002
3.151247e+003;6.107768e-002
3.153176e+003;6.162255e-002
3.155104e+003;6.138217e-002
3.157033e+003;6.140816e-002
3.158962e+003;6.189880e-002
3.160890e+003;6.242147e-002
3.162819e+003;6.297148e-002
3.164747e+003;6.318577e-002
3.166676e+003;6.299366e-002
3.168604e+003;6.305818e-002
3.170533e+003;6.397855e-002
3.172461e+003;6.500101e-002
3.174390e+003;6.572233e-002
3.176319e+003;6.631957e-002
3.178247e+003;6.646281e-002
3.180176e+003;6.675223e-002
3.182104e+003;6.728798e-002
3.184033e+003;6.801443e-002
3.185961e+003;6.885068e-002
3.187890e+003;6.923372e-002
3.189818e+003;6.925346e-002
3.191747e+003;6.971760e-002
3.193676e+003;7.048332e-002
3.195604e+003;7.069986e-002
3.197532e+003;7.090961e-002
3.199461e+003;7.137874e-002
3.201390e+003;7.174067e-002
3.203318e+003;7.196172e-002
3.205247e+003;7.192739e-002
3.207175e+003;7.225472e-002
3.209104e+003;7.295990e-002
3.211032e+003;7.332131e-002
3.212961e+003;7.356604e-002
3.214889e+003;7.433335e-002
3.216818e+003;7.506575e-002
3.218747e+003;7.550311e-002
3.220675e+003;7.583635e-002
3.222604e+003;7.621236e-002
3.224532e+003;7.691807e-002
3.226461e+003;7.796843e-002
3.228389e+003;7.864995e-002
3.230318e+003;7.934333e-002
3.232246e+003;8.045700e-002
3.234175e+003;8.187409e-002
3.236104e+003;8.342390e-002
3.238032e+003;8.454918e-002
3.239961e+003;8.546483e-002
3.241889e+003;8.695529e-002
3.243818e+003;8.885463e-002
3.245746e+003;9.097556e-002
3.247675e+003;9.291717e-002
3.249603e+003;9.424475e-002
3.251532e+003;9.572461e-002
3.253460e+003;9.762754e-002
3.255389e+003;9.936284e-002
3.257318e+003;1.014681e-001
3.259246e+003;1.038220e-001
3.261175e+003;1.060168e-001
3.263103e+003;1.082016e-001
3.265032e+003;1.108111e-001
3.266960e+003;1.132934e-001
3.268889e+003;1.153679e-001
3.270817e+003;1.173171e-001
3.272746e+003;1.194097e-001
3.274675e+003;1.215629e-001
3.276603e+003;1.239278e-001
3.278531e+003;1.266427e-001
3.280460e+003;1.292111e-001
3.282389e+003;1.314918e-001
3.284317e+003;1.339123e-001
3.286246e+003;1.365092e-001
3.288174e+003;1.385517e-001
3.290103e+003;1.396788e-001
3.292031e+003;1.406160e-001
3.293960e+003;1.412706e-001
3.295888e+003;1.404607e-001
3.297817e+003;1.387450e-001
3.299746e+003;1.365399e-001
3.301674e+003;1.338120e-001
3.303603e+003;1.311581e-001
3.305531e+003;1.283082e-001
3.307460e+003;1.246754e-001
3.309388e+003;1.212340e-001
3.311317e+003;1.180010e-001
3.313245e+003;1.147757e-001
3.315174e+003;1.116962e-001
3.317103e+003;1.087940e-001
3.319031e+003;1.055899e-001
3.320960e+003;1.024250e-001
3.322888e+003;9.984715e-002
3.324817e+003;9.693876e-002
3.326745e+003;9.361630e-002
3.328674e+003;9.097691e-002
3.330602e+003;8.893006e-002
3.332531e+003;8.679584e-002
3.334459e+003;8.444960e-002
3.336388e+003;8.250777e-002
3.338317e+003;8.056916e-002
3.340245e+003;7.852738e-002
3.342174e+003;7.673457e-002
3.344102e+003;7.517249e-002
3.346031e+003;7.366493e-002
3.347959e+003;7.201225e-002
3.349888e+003;7.038449e-002
3.351816e+003;6.921763e-002
3.353745e+003;6.820869e-002
3.355674e+003;6.704993e-002
3.357602e+003;6.574835e-002
3.359531e+003;6.469595e-002
3.361459e+003;6.412681e-002
3.363388e+003;6.318071e-002
3.365316e+003;6.198027e-002
3.367245e+003;6.101636e-002
3.369173e+003;6.007662e-002
3.371102e+003;5.954836e-002
3.373031e+003;5.891716e-002
3.374959e+003;5.775261e-002
3.376887e+003;5.732285e-002
3.378816e+003;5.733106e-002
3.380745e+003;5.701742e-002
3.382673e+003;5.639366e-002
3.384602e+003;5.604195e-002
3.386530e+003;5.551405e-002
3.388459e+003;5.477324e-002
3.390387e+003;5.429614e-002
3.392316e+003;5.396379e-002
3.394244e+003;5.389123e-002
3.396173e+003;5.392248e-002
3.398102e+003;5.337343e-002
3.400030e+003;5.284150e-002
3.401959e+003;5.275672e-002
3.403887e+003;5.245512e-002
3.405816e+003;5.210236e-002
3.407744e+003;5.218530e-002
3.409673e+003;5.199971e-002
3.411601e+003;5.184526e-002
3.413530e+003;5.195605e-002
3.415458e+003;5.181764e-002
3.417387e+003;5.146775e-002
3.419316e+003;5.145577e-002
3.421244e+003;5.097220e-002
3.423173e+003;5.014261e-002
3.425101e+003;4.984048e-002
3.427030e+003;5.027528e-002
3.428958e+003;5.027275e-002
3.430887e+003;5.019910e-002
3.432815e+003;5.034437e-002
3.434744e+003;5.000555e-002
3.436673e+003;4.990217e-002
3.438601e+003;4.989552e-002
3.440530e+003;4.963739e-002
3.442458e+003;4.957395e-002
3.444387e+003;4.949930e-002
3.446315e+003;4.950287e-002
3.448244e+003;4.953934e-002
3.450172e+003;4.906475e-002
3.452101e+003;4.882462e-002
3.454030e+003;4.918404e-002
3.455958e+003;4.899123e-002
3.457886e+003;4.846586e-002
3.459815e+003;4.830041e-002
3.461744e+003;4.846105e-002
3.463672e+003;4.836037e-002
3.465601e+003;4.788437e-002
3.467529e+003;4.777218e-002
3.469458e+003;4.754684e-002
3.471386e+003;4.735979e-002
3.473315e+003;4.719716e-002
3.475243e+003;4.694284e-002
3.477172e+003;4.692889e-002
3.479101e+003;4.679273e-002
3.481029e+003;4.671811e-002
3.482958e+003;4.683926e-002
3.484886e+003;4.685916e-002
3.486815e+003;4.699493e-002
3.488743e+003;4.699175e-002
3.490672e+003;4.686573e-002
3.492600e+003;4.684255e-002
3.494529e+003;4.655923e-002
3.496458e+003;4.619737e-002
3.498386e+003;4.609979e-002
3.500315e+003;4.636121e-002
3.502243e+003;4.625718e-002
3.504172e+003;4.566079e-002
3.506100e+003;4.573835e-002
3.508029e+003;4.589716e-002
3.509957e+003;4.525208e-002
3.511886e+003;4.506227e-002
3.513814e+003;4.553809e-002
3.515743e+003;4.541417e-002
3.517672e+003;4.464873e-002
3.519600e+003;4.386059e-002
3.521529e+003;4.387247e-002
3.523457e+003;4.405997e-002
3.525386e+003;4.400023e-002
3.527314e+003;4.402950e-002
3.529243e+003;4.392445e-002
3.531171e+003;4.393486e-002
3.533100e+003;4.424296e-002
3.535029e+003;4.414073e-002
3.536957e+003;4.340363e-002
3.538885e+003;4.318040e-002
3.540814e+003;4.362500e-002
3.542743e+003;4.334823e-002
3.544671e+003;4.277165e-002
3.546600e+003;4.238535e-002
3.548528e+003;4.218247e-002
3.550457e+003;4.195081e-002
3.552385e+003;4.154712e-002
3.554314e+003;4.147843e-002
3.556242e+003;4.126275e-002
3.558171e+003;4.096654e-002
3.560100e+003;4.051218e-002
3.562028e+003;3.999685e-002
3.563957e+003;3.980108e-002
3.565885e+003;3.975347e-002
3.567814e+003;3.975558e-002
3.569742e+003;3.946396e-002
3.571671e+003;3.891371e-002
3.573599e+003;3.858702e-002
3.575528e+003;3.862758e-002
3.577457e+003;3.858818e-002
3.579385e+003;3.869313e-002
3.581314e+003;3.839658e-002
3.583242e+003;3.755065e-002
3.585171e+003;3.687655e-002
3.587099e+003;3.675624e-002
3.589028e+003;3.685606e-002
3.590956e+003;3.646922e-002
3.592885e+003;3.626087e-002
3.594813e+003;3.617335e-002
3.596742e+003;3.617195e-002
3.598671e+003;3.655305e-002
3.600599e+003;3.631807e-002
3.602528e+003;3.621278e-002
3.604456e+003;3.635921e-002
3.606385e+003;3.570534e-002
3.608313e+003;3.501725e-002
3.610242e+003;3.480281e-002
3.612170e+003;3.465676e-002
3.614099e+003;3.434333e-002
3.616028e+003;3.427230e-002
3.617956e+003;3.413604e-002
3.619885e+003;3.386557e-002
3.621813e+003;3.338848e-002
3.623742e+003;3.275425e-002
3.625670e+003;3.256089e-002
3.627599e+003;3.298123e-002
3.629527e+003;3.326938e-002
3.631456e+003;3.302731e-002
3.633385e+003;3.250754e-002
3.635313e+003;3.216814e-002
3.637241e+003;3.155083e-002
3.639170e+003;3.129565e-002
3.641099e+003;3.124362e-002
3.643027e+003;3.114180e-002
3.644956e+003;3.101004e-002
3.646884e+003;3.070279e-002
3.648813e+003;3.032320e-002
3.650741e+003;3.046150e-002
3.652670e+003;3.054773e-002
3.654598e+003;3.067029e-002
3.656527e+003;3.047775e-002
3.658456e+003;3.012665e-002
3.660384e+003;3.032920e-002
3.662313e+003;3.048030e-002
3.664241e+003;3.062502e-002
3.666170e+003;3.055538e-002
3.668098e+003;3.022522e-002
3.670027e+003;2.992707e-002
3.671955e+003;2.953837e-002
3.673884e+003;2.937061e-002
3.675813e+003;2.963488e-002
3.677741e+003;2.955724e-002
3.679669e+003;2.917609e-002
3.681598e+003;2.902325e-002
3.683527e+003;2.885756e-002
3.685455e+003;2.884028e-002
3.687384e+003;2.879362e-002
3.689312e+003;2.853237e-002
3.691241e+003;2.824158e-002
3.693169e+003;2.812430e-002
3.695098e+003;2.789956e-002
3.697026e+003;2.773325e-002
3.698955e+003;2.760743e-002
3.700884e+003;2.755761e-002
3.702812e+003;2.764517e-002
3.704741e+003;2.751027e-002
3.706669e+003;2.715317e-002
3.708598e+003;2.701690e-002
3.710526e+003;2.737780e-002
3.712455e+003;2.758515e-002
3.714383e+003;2.716792e-002
3.716312e+003;2.693606e-002
3.718240e+003;2.735575e-002
3.720169e+003;2.758663e-002
3.722098e+003;2.749696e-002
3.724026e+003;2.721042e-002
3.725955e+003;2.701066e-002
3.727883e+003;2.715963e-002
3.729812e+003;2.692199e-002
3.731740e+003;2.705823e-002
3.733669e+003;2.707801e-002
3.735597e+003;2.665510e-002
3.737526e+003;2.715116e-002
3.739455e+003;2.762575e-002
3.741383e+003;2.758285e-002
3.743312e+003;2.712975e-002
3.745240e+003;2.700044e-002
3.747169e+003;2.754677e-002
3.749097e+003;2.771796e-002
3.751026e+003;2.722647e-002
3.752954e+003;2.701986e-002
3.754883e+003;2.739647e-002
3.756812e+003;2.736383e-002
3.758740e+003;2.683672e-002
3.760668e+003;2.690673e-002
3.762597e+003;2.755655e-002
3.764526e+003;2.765690e-002
3.766454e+003;2.725364e-002
3.768383e+003;2.731757e-002
3.770311e+003;2.728811e-002
3.772240e+003;2.702075e-002
3.774168e+003;2.719116e-002
3.776097e+003;2.739845e-002
3.778025e+003;2.749629e-002
3.779954e+003;2.782265e-002
3.781883e+003;2.778627e-002
3.783811e+003;2.736143e-002
3.785740e+003;2.744941e-002
3.787668e+003;2.761445e-002
3.789597e+003;2.741285e-002
3.791525e+003;2.739002e-002
3.793454e+003;2.736337e-002
3.795382e+003;2.687038e-002
3.797311e+003;2.678534e-002
3.799240e+003;2.686682e-002
3.801168e+003;2.703414e-002
3.803097e+003;2.739789e-002
3.805025e+003;2.730698e-002
3.806954e+003;2.709159e-002
3.808882e+003;2.731813e-002
3.810811e+003;2.780460e-002
3.812739e+003;2.838198e-002
3.814668e+003;2.814823e-002
3.816596e+003;2.782686e-002
3.818525e+003;2.796737e-002
3.820454e+003;2.803120e-002
3.822382e+003;2.824578e-002
3.824311e+003;2.844944e-002
3.826239e+003;2.857098e-002
3.828168e+003;2.821007e-002
3.830096e+003;2.789992e-002
3.832025e+003;2.802286e-002
3.833953e+003;2.830905e-002
3.835882e+003;2.822283e-002
3.837811e+003;2.790388e-002
3.839739e+003;2.813441e-002
3.841667e+003;2.835368e-002
3.843596e+003;2.832436e-002
3.845525e+003;2.860590e-002
3.847453e+003;2.902091e-002
3.849382e+003;2.904776e-002
3.851310e+003;2.829080e-002
3.853239e+003;2.763112e-002
3.855167e+003;2.789186e-002
3.857096e+003;2.913750e-002
3.859024e+003;2.949319e-002
3.860953e+003;2.890445e-002
3.862882e+003;2.878951e-002
3.864810e+003;2.875361e-002
3.866739e+003;2.831994e-002
3.868667e+003;2.807460e-002
3.870596e+003;2.882208e-002
3.872524e+003;2.938642e-002
3.874453e+003;2.936129e-002
3.876381e+003;2.923482e-002
3.878310e+003;2.894536e-002
3.880239e+003;2.870979e-002
3.882167e+003;2.839485e-002
3.884096e+003;2.813561e-002
3.886024e+003;2.847827e-002
3.887953e+003;2.876738e-002
3.889881e+003;2.851698e-002
3.891810e+003;2.873595e-002
3.893738e+003;2.921181e-002
3.895667e+003;2.940192e-002
3.897595e+003;2.901202e-002
3.899524e+003;2.838000e-002
3.901453e+003;2.860955e-002
3.903381e+003;2.911674e-002
3.905310e+003;2.915997e-002
3.907238e+003;2.932928e-002
3.909167e+003;2.938717e-002
3.911095e+003;2.945379e-002
3.913024e+003;2.962623e-002
3.914952e+003;2.969537e-002
3.916881e+003;2.966071e-002
3.918810e+003;2.990968e-002
3.920738e+003;3.008904e-002
3.922667e+003;2.993705e-002
3.924595e+003;2.984121e-002
3.926524e+003;3.016348e-002
3.928452e+003;3.031833e-002
3.930381e+003;3.063580e-002
3.932309e+003;3.056210e-002
3.934238e+003;3.032956e-002
3.936167e+003;3.071043e-002
3.938095e+003;3.072277e-002
3.940023e+003;3.049257e-002
3.941952e+003;3.024756e-002
3.943881e+003;3.041249e-002
3.945809e+003;3.111977e-002
3.947738e+003;3.136965e-002
3.949666e+003;3.126612e-002
3.951595e+003;3.123561e-002
3.953523e+003;3.097371e-002
3.955452e+003;3.116832e-002
3.957380e+003;3.156419e-002
3.959309e+003;3.167555e-002
3.961238e+003;3.194569e-002
3.963166e+003;3.213963e-002
3.965095e+003;3.179572e-002
3.967023e+003;3.145428e-002
3.968952e+003;3.145984e-002
3.970880e+003;3.159526e-002
3.972809e+003;3.192882e-002
3.974737e+003;3.182584e-002
3.976666e+003;3.199359e-002
3.978594e+003;3.248307e-002
3.980523e+003;3.254278e-002
3.982452e+003;3.199783e-002
3.984380e+003;3.160920e-002
3.986309e+003;3.152186e-002
3.988237e+003;3.172324e-002
3.990166e+003;3.257346e-002
3.992094e+003;3.318861e-002
3.994023e+003;3.329321e-002
3.995951e+003;3.293004e-002
3.997880e+003;3.268930e-002
3.999809e+003;3.295506e-002
4.001737e+003;0.000000e+000
