3.992094e+002;0.000000e+000
4.011380e+002;0.000000e+000
4.030665e+002;0.000000e+000
4.049951e+002;0.000000e+000
4.069236e+002;0.000000e+000
4.088522e+002;0.000000e+000
4.107807e+002;0.000000e+000
4.127093e+002;0.000000e+000
4.146378e+002;0.000000e+000
4.165664e+002;0.000000e+000
4.184949e+002;0.000000e+000
4.204235e+002;0.000000e+000
4.223520e+002;0.000000e+000
4.242806e+002;0.000000e+000
4.262091e+002;0.000000e+000
4.281377e+002;0.000000e+000
4.300662e+002;0.000000e+000
4.319948e+002;0.000000e+000
4.339233e+002;0.000000e+000
4.358519e+002;0.000000e+000
4.377804e+002;0.000000e+000
4.397090e+002;0.000000e+000
4.416375e+002;0.000000e+000
4.435660e+002;0.000000e+000
4.454946e+002;0.000000e+000
4.474232e+002;0.000000e+000
4.493517e+002;0.000000e+000
4.512802e+002;0.000000e+000
4.532088e+002;0.000000e+000
4.551373e+002;0.000000e+000
4.570659e+002;0.000000e+000
4.589944e+002;0.000000e+000
4.609230e+002;0.000000e+000
4.628515e+002;0.000000e+000
4.647801e+002;0.000000e+000
4.667086e+002;0.000000e+000
4.686372e+002;0.000000e+000
4.705657e+002;0.000000e+000
4.724943e+002;0.000000e+000
4.744228e+002;0.000000e+000
4.763513e+002;0.000000e+000
4.782799e+002;0.000000e+000
4.802085e+002;0.000000e+000
4.821370e+002;0.000000e+000
4.840656e+002;0.000000e+000
4.859941e+002;0.000000e+000
4.879226e+002;0.000000e+000
4.898512e+002;0.000000e+000
4.917798e+002;0.000000e+000
4.937083e+002;0.000000e+000
4.956368e+002;0.000000e+000
4.975654e+002;0.000000e+000
4.994939e+002;0.000000e+000
5.014225e+002;0.000000e+000
5.033510e+002;0.000000e+000
5.052796e+002;0.000000e+000
5.072081e+002;0.000000e+000
5.091367e+002;0.000000e+000
5.110652e+002;0.000000e+000
5.129938e+002;0.000000e+000
5.149223e+002;0.000000e+000
5.168509e+002;0.000000e+000
5.187794e+002;0.000000e+000
5.207079e+002;0.000000e+000
5.226365e+002;0.000000e+000
5.245651e+002;0.000000e+000
5.264936e+002;0.000000e+000
5.284222e+002;0.000000e+000
5.303507e+002;0.000000e+000
5.322792e+002;0.000000e+000
5.342078e+002;0.000000e+000
5.361364e+002;0.000000e+000
5.380649e+002;0.000000e+000
5.399935e+002;0.000000e+000
5.419220e+002;0.000000e+000
5.438505e+002;0.000000e+000
5.457791e+002;0.000000e+000
5.477076e+002;0.000000e+000
5.496362e+002;0.000000e+000
5.515648e+002;0.000000e+000
5.534933e+002;0.000000e+000
5.554218e+002;0.000000e+000
5.573504e+002;0.000000e+000
5.592789e+002;0.000000e+000
5.612075e+002;0.000000e+000
5.631360e+002;0.000000e+000
5.650646e+002;0.000000e+000
5.669931e+002;0.000000e+000
5.689217e+002;0.000000e+000
5.708502e+002;0.000000e+000
5.727787e+002;0.000000e+000
5.747073e+002;0.000000e+000
5.766359e+002;0.000000e+000
5.785644e+002;0.000000e+000
5.804930e+002;0.000000e+000
5.824215e+002;0.000000e+000
5.843500e+002;0.000000e+000
5.862786e+002;0.000000e+000
5.882072e+002;0.000000e+000
5.901357e+002;0.000000e+000
5.920643e+002;0.000000e+000
5.939928e+002;0.000000e+000
5.959213e+002;0.000000e+000
5.978499e+002;0.000000e+000
5.997784e+002;1.814605e-001
6.017070e+002;1.860185e-001
6.036355e+002;1.843233e-001
6.055641e+002;1.831237e-001
6.074926e+002;1.771033e-001
6.094211e+002;1.751552e-001
6.113497e+002;1.783413e-001
6.132783e+002;1.751530e-001
6.152068e+002;1.730511e-001
6.171354e+002;1.727393e-001
6.190639e+002;1.807369e-001
6.209924e+002;1.877056e-001
6.229210e+002;1.828156e-001
6.248495e+002;1.797152e-001
6.267781e+002;1.786048e-001
6.287067e+002;1.769029e-001
6.306352e+002;1.802456e-001
6.325637e+002;1.858452e-001
6.344923e+002;1.896477e-001
6.364208e+002;1.909143e-001
6.383494e+002;1.904177e-001
6.402780e+002;1.898915e-001
6.422065e+002;1.902977e-001
6.441350e+002;1.914491e-001
6.460636e+002;1.914159e-001
6.479921e+002;1.931763e-001
6.499207e+002;1.976651e-001
6.518492e+002;1.994260e-001
6.537778e+002;2.001966e-001
6.557063e+002;2.033743e-001
6.576349e+002;2.072986e-001
6.595634e+002;2.109854e-001
6.614919e+002;2.131337e-001
6.634205e+002;2.162877e-001
6.653491e+002;2.200973e-001
6.672776e+002;2.210040e-001
6.692062e+002;2.251701e-001
6.711347e+002;2.291806e-001
6.730632e+002;2.314334e-001
6.749918e+002;2.323864e-001
6.769203e+002;2.333102e-001
6.788489e+002;2.345406e-001
6.807775e+002;2.340807e-001
6.827060e+002;2.340491e-001
6.846345e+002;2.333373e-001
6.865631e+002;2.304428e-001
6.884916e+002;2.274266e-001
6.904202e+002;2.252305e-001
6.923488e+002;2.241064e-001
6.942773e+002;2.214034e-001
6.962058e+002;2.171835e-001
6.981344e+002;2.127730e-001
7.000629e+002;2.089015e-001
7.019915e+002;2.052091e-001
7.039200e+002;2.022102e-001
7.058486e+002;2.002277e-001
7.077771e+002;1.996735e-001
7.097057e+002;1.998258e-001
7.116342e+002;1.983234e-001
7.135627e+002;1.947133e-001
7.154913e+002;1.916399e-001
7.174199e+002;1.900851e-001
7.193484e+002;1.898469e-001
7.212770e+002;1.904503e-001
7.232055e+002;1.909745e-001
7.251340e+002;1.902814e-001
7.270626e+002;1.894465e-001
7.289911e+002;1.868597e-001
7.309197e+002;1.812654e-001
7.328483e+002;1.743505e-001
7.347768e+002;1.677885e-001
7.367053e+002;1.615674e-001
7.386339e+002;1.571147e-001
7.405624e+002;1.533742e-001
7.424910e+002;1.492052e-001
7.444196e+002;1.459123e-001
7.463481e+002;1.435177e-001
7.482766e+002;1.409686e-001
7.502052e+002;1.388902e-001
7.521337e+002;1.374444e-001
7.540623e+002;1.361368e-001
7.559908e+002;1.337469e-001
7.579194e+002;1.312591e-001
7.598479e+002;1.300875e-001
7.617765e+002;1.287041e-001
7.637050e+002;1.270469e-001
7.656335e+002;1.252139e-001
7.675621e+002;1.235747e-001
7.694907e+002;1.229558e-001
7.714192e+002;1.224799e-001
7.733478e+002;1.215548e-001
7.752763e+002;1.198569e-001
7.772048e+002;1.191951e-001
7.791334e+002;1.184808e-001
7.810620e+002;1.167189e-001
7.829905e+002;1.144113e-001
7.849191e+002;1.131077e-001
7.868476e+002;1.117104e-001
7.887761e+002;1.097883e-001
7.907047e+002;1.086354e-001
7.926332e+002;1.073715e-001
7.945618e+002;1.055900e-001
7.964903e+002;1.043812e-001
7.984189e+002;1.030334e-001
8.003474e+002;1.015176e-001
8.022759e+002;1.009760e-001
8.042045e+002;1.001893e-001
8.061331e+002;9.898996e-002
8.080616e+002;9.766190e-002
8.099902e+002;9.598639e-002
8.119187e+002;9.484731e-002
8.138472e+002;9.452570e-002
8.157758e+002;9.400441e-002
8.177043e+002;9.349439e-002
8.196329e+002;9.341144e-002
8.215615e+002;9.328537e-002
8.234900e+002;9.345750e-002
8.254185e+002;9.427574e-002
8.273471e+002;9.613024e-002
8.292756e+002;9.806523e-002
8.312042e+002;9.913240e-002
8.331328e+002;9.917840e-002
8.350613e+002;9.766459e-002
8.369898e+002;9.417345e-002
8.389184e+002;9.097622e-002
8.408469e+002;8.961198e-002
8.427755e+002;8.881373e-002
8.447040e+002;8.743013e-002
8.466326e+002;8.574242e-002
8.485611e+002;8.504694e-002
8.504897e+002;8.517758e-002
8.524182e+002;8.492505e-002
8.543467e+002;8.398706e-002
8.562753e+002;8.320794e-002
8.582039e+002;8.308355e-002
8.601324e+002;8.296605e-002
8.620610e+002;8.299192e-002
8.639895e+002;8.358573e-002
8.659180e+002;8.361112e-002
8.678466e+002;8.344903e-002
8.697751e+002;8.378046e-002
8.717037e+002;8.334653e-002
8.736323e+002;8.260678e-002
8.755608e+002;8.233916e-002
8.774893e+002;8.236684e-002
8.794179e+002;8.245064e-002
8.813464e+002;8.291969e-002
8.832750e+002;8.330341e-002
8.852036e+002;8.350228e-002
8.871321e+002;8.332188e-002
8.890606e+002;8.346453e-002
8.909892e+002;8.393596e-002
8.929177e+002;8.386671e-002
8.948463e+002;8.357714e-002
8.967748e+002;8.338415e-002
8.987034e+002;8.306389e-002
9.006319e+002;8.316801e-002
9.025605e+002;8.377263e-002
9.044890e+002;8.461295e-002
9.064175e+002;8.520802e-002
9.083461e+002;8.578852e-002
9.102747e+002;8.631353e-002
9.122032e+002;8.691069e-002
9.141318e+002;8.784626e-002
9.160603e+002;8.872154e-002
9.179888e+002;8.975199e-002
9.199174e+002;9.108719e-002
9.218459e+002;9.206515e-002
9.237745e+002;9.332077e-002
9.257031e+002;9.480181e-002
9.276316e+002;9.614802e-002
9.295601e+002;9.688243e-002
9.314887e+002;9.654883e-002
9.334172e+002;9.508065e-002
9.353458e+002;9.368408e-002
9.372744e+002;9.294196e-002
9.392029e+002;9.236851e-002
9.411314e+002;9.232789e-002
9.430600e+002;9.320278e-002
9.449885e+002;9.480964e-002
9.469171e+002;9.709743e-002
9.488456e+002;9.905635e-002
9.507742e+002;1.004631e-001
9.527027e+002;1.015680e-001
9.546313e+002;1.020492e-001
9.565598e+002;1.026149e-001
9.584883e+002;1.037095e-001
9.604169e+002;1.036771e-001
9.623455e+002;1.019371e-001
9.642740e+002;9.987238e-002
9.662026e+002;9.868261e-002
9.681311e+002;9.850387e-002
9.700596e+002;9.868980e-002
9.719882e+002;9.856481e-002
9.739167e+002;9.826395e-002
9.758453e+002;9.769550e-002
9.777739e+002;9.731423e-002
9.797024e+002;9.735428e-002
9.816309e+002;9.733956e-002
9.835595e+002;9.706677e-002
9.854880e+002;9.661423e-002
9.874166e+002;9.626587e-002
9.893452e+002;9.624743e-002
9.912737e+002;9.612842e-002
9.932022e+002;9.586552e-002
9.951307e+002;9.582052e-002
9.970593e+002;9.600011e-002
9.989879e+002;9.610829e-002
1.000916e+003;9.623485e-002
1.002845e+003;9.622278e-002
1.004773e+003;9.627232e-002
1.006702e+003;9.686951e-002
1.008631e+003;9.782087e-002
1.010559e+003;9.876347e-002
1.012488e+003;9.946273e-002
1.014416e+003;9.982809e-002
1.016345e+003;9.994598e-002
1.018273e+003;1.005640e-001
1.020202e+003;1.016586e-001
1.022130e+003;1.021869e-001
1.024059e+003;1.025545e-001
1.025988e+003;1.039395e-001
1.027916e+003;1.052157e-001
1.029845e+003;1.057811e-001
1.031773e+003;1.053982e-001
1.033702e+003;1.040912e-001
1.035630e+003;1.035262e-001
1.037559e+003;1.034698e-001
1.039487e+003;1.033981e-001
1.041416e+003;1.032076e-001
1.043344e+003;1.032153e-001
1.045273e+003;1.033210e-001
1.047202e+003;1.039034e-001
1.049130e+003;1.040313e-001
1.051059e+003;1.040445e-001
1.052987e+003;1.043268e-001
1.054916e+003;1.050802e-001
1.056844e+003;1.062017e-001
1.058773e+003;1.070742e-001
1.060701e+003;1.077476e-001
1.062630e+003;1.086762e-001
1.064558e+003;1.093351e-001
1.066487e+003;1.095827e-001
1.068416e+003;1.101569e-001
1.070344e+003;1.110943e-001
1.072273e+003;1.120209e-001
1.074201e+003;1.121841e-001
1.076130e+003;1.118316e-001
1.078058e+003;1.109347e-001
1.079987e+003;1.105522e-001
1.081915e+003;1.102510e-001
1.083844e+003;1.096216e-001
1.085773e+003;1.096716e-001
1.087701e+003;1.094349e-001
1.089630e+003;1.086324e-001
1.091558e+003;1.083921e-001
1.093487e+003;1.085122e-001
1.095415e+003;1.097108e-001
1.097344e+003;1.104343e-001
1.099272e+003;1.104485e-001
1.101201e+003;1.116403e-001
1.103129e+003;1.133397e-001
1.105058e+003;1.147643e-001
1.106987e+003;1.162733e-001
1.108915e+003;1.176405e-001
1.110844e+003;1.184266e-001
1.112772e+003;1.190662e-001
1.114701e+003;1.197619e-001
1.116629e+003;1.207157e-001
1.118558e+003;1.208561e-001
1.120486e+003;1.200363e-001
1.122415e+003;1.189297e-001
1.124344e+003;1.167087e-001
1.126272e+003;1.131780e-001
1.128201e+003;1.100935e-001
1.130129e+003;1.076305e-001
1.132058e+003;1.053425e-001
1.133986e+003;1.037737e-001
1.135915e+003;1.031164e-001
1.137843e+003;1.033141e-001
1.139772e+003;1.039895e-001
1.141700e+003;1.046457e-001
1.143629e+003;1.054092e-001
1.145557e+003;1.062828e-001
1.147486e+003;1.073954e-001
1.149415e+003;1.089709e-001
1.151343e+003;1.113693e-001
1.153272e+003;1.140275e-001
1.155200e+003;1.171568e-001
1.157129e+003;1.207415e-001
1.159057e+003;1.245547e-001
1.160986e+003;1.291019e-001
1.162914e+003;1.346925e-001
1.164843e+003;1.405160e-001
1.166771e+003;1.452032e-001
1.168700e+003;1.480027e-001
1.170629e+003;1.471636e-001
1.172557e+003;1.434297e-001
1.174486e+003;1.386940e-001
1.176414e+003;1.336235e-001
1.178343e+003;1.295390e-001
1.180271e+003;1.271912e-001
1.182200e+003;1.258048e-001
1.184128e+003;1.260034e-001
1.186057e+003;1.281057e-001
1.187986e+003;1.311139e-001
1.189914e+003;1.348102e-001
1.191843e+003;1.395241e-001
1.193771e+003;1.448775e-001
1.195700e+003;1.506480e-001
1.197628e+003;1.562120e-001
1.199557e+003;1.590104e-001
1.201485e+003;1.573831e-001
1.203414e+003;1.534647e-001
1.205343e+003;1.495318e-001
1.207271e+003;1.469684e-001
1.209200e+003;1.463917e-001
1.211128e+003;1.461290e-001
1.213057e+003;1.451208e-001
1.214985e+003;1.429062e-001
1.216914e+003;1.397387e-001
1.218842e+003;1.367679e-001
1.220771e+003;1.347746e-001
1.222699e+003;1.345024e-001
1.224628e+003;1.362803e-001
1.226557e+003;1.397071e-001
1.228485e+003;1.440320e-001
1.230414e+003;1.485751e-001
1.232342e+003;1.529409e-001
1.234271e+003;1.568490e-001
1.236199e+003;1.598777e-001
1.238128e+003;1.615984e-001
1.240056e+003;1.619844e-001
1.241985e+003;1.615814e-001
1.243913e+003;1.614922e-001
1.245842e+003;1.618900e-001
1.247771e+003;1.629496e-001
1.249699e+003;1.650518e-001
1.251628e+003;1.678801e-001
1.253556e+003;1.713410e-001
1.255485e+003;1.750456e-001
1.257413e+003;1.783247e-001
1.259342e+003;1.806669e-001
1.261270e+003;1.814285e-001
1.263199e+003;1.798831e-001
1.265127e+003;1.758545e-001
1.267056e+003;1.697719e-001
1.268985e+003;1.634972e-001
1.270913e+003;1.589672e-001
1.272842e+003;1.564483e-001
1.274770e+003;1.553442e-001
1.276699e+003;1.551642e-001
1.278627e+003;1.550333e-001
1.280556e+003;1.541426e-001
1.282484e+003;1.528770e-001
1.284413e+003;1.515077e-001
1.286342e+003;1.501131e-001
1.288270e+003;1.490937e-001
1.290199e+003;1.485505e-001
1.292127e+003;1.481327e-001
1.294056e+003;1.476337e-001
1.295984e+003;1.472069e-001
1.297913e+003;1.472813e-001
1.299841e+003;1.471245e-001
1.301770e+003;1.464884e-001
1.303698e+003;1.460627e-001
1.305627e+003;1.455022e-001
1.307556e+003;1.444649e-001
1.309484e+003;1.433160e-001
1.311413e+003;1.424730e-001
1.313341e+003;1.416812e-001
1.315270e+003;1.408861e-001
1.317198e+003;1.398928e-001
1.319127e+003;1.389465e-001
1.321055e+003;1.381800e-001
1.322984e+003;1.378846e-001
1.324912e+003;1.380433e-001
1.326841e+003;1.384389e-001
1.328770e+003;1.390375e-001
1.330698e+003;1.396662e-001
1.332627e+003;1.399997e-001
1.334555e+003;1.402727e-001
1.336484e+003;1.404699e-001
1.338412e+003;1.407667e-001
1.340341e+003;1.419525e-001
1.342269e+003;1.434438e-001
1.344198e+003;1.444914e-001
1.346126e+003;1.456934e-001
1.348055e+003;1.470856e-001
1.349984e+003;1.486145e-001
1.351912e+003;1.502027e-001
1.353841e+003;1.522473e-001
1.355769e+003;1.543702e-001
1.357698e+003;1.561824e-001
1.359626e+003;1.577321e-001
1.361555e+003;1.590692e-001
1.363483e+003;1.610617e-001
1.365412e+003;1.633798e-001
1.367341e+003;1.654067e-001
1.369269e+003;1.674669e-001
1.371198e+003;1.687262e-001
1.373126e+003;1.684951e-001
1.375055e+003;1.674725e-001
1.376983e+003;1.657997e-001
1.378912e+003;1.627270e-001
1.380840e+003;1.592794e-001
1.382769e+003;1.557577e-001
1.384698e+003;1.524474e-001
1.386626e+003;1.489385e-001
1.388555e+003;1.465851e-001
1.390483e+003;1.451968e-001
1.392412e+003;1.436495e-001
1.394340e+003;1.426198e-001
1.396269e+003;1.432474e-001
1.398197e+003;1.446038e-001
1.400126e+003;1.470339e-001
1.402054e+003;1.504018e-001
1.403983e+003;1.542698e-001
1.405911e+003;1.598540e-001
1.407840e+003;1.668891e-001
1.409769e+003;1.746088e-001
1.411697e+003;1.824247e-001
1.413626e+003;1.888210e-001
1.415554e+003;1.916489e-001
1.417483e+003;1.898064e-001
1.419411e+003;1.857913e-001
1.421340e+003;1.824525e-001
1.423268e+003;1.782987e-001
1.425197e+003;1.750752e-001
1.427125e+003;1.739642e-001
1.429054e+003;1.744947e-001
1.430983e+003;1.766929e-001
1.432911e+003;1.786202e-001
1.434840e+003;1.777261e-001
1.436768e+003;1.761124e-001
1.438697e+003;1.771190e-001
1.440625e+003;1.771002e-001
1.442554e+003;1.763759e-001
1.444482e+003;1.762041e-001
1.446411e+003;1.760740e-001
1.448340e+003;1.771438e-001
1.450268e+003;1.802966e-001
1.452197e+003;1.831038e-001
1.454125e+003;1.837541e-001
1.456054e+003;1.829253e-001
1.457982e+003;1.884903e-001
1.459911e+003;1.979307e-001
1.461839e+003;2.025341e-001
1.463768e+003;1.998695e-001
1.465697e+003;1.928372e-001
1.467625e+003;1.851913e-001
1.469554e+003;1.780004e-001
1.471482e+003;1.728957e-001
1.473411e+003;1.729752e-001
1.475339e+003;1.755385e-001
1.477268e+003;1.756242e-001
1.479196e+003;1.729133e-001
1.481125e+003;1.671797e-001
1.483053e+003;1.599709e-001
1.484982e+003;1.529833e-001
1.486911e+003;1.479643e-001
1.488839e+003;1.457843e-001
1.490768e+003;1.471238e-001
1.492696e+003;1.509655e-001
1.494625e+003;1.540503e-001
1.496553e+003;1.575630e-001
1.498482e+003;1.637658e-001
1.500410e+003;1.707607e-001
1.502339e+003;1.771012e-001
1.504267e+003;1.806541e-001
1.506196e+003;1.838076e-001
1.508125e+003;1.935540e-001
1.510053e+003;2.052130e-001
1.511982e+003;2.145193e-001
1.513910e+003;2.234076e-001
1.515839e+003;2.314268e-001
1.517767e+003;2.398257e-001
1.519696e+003;2.473471e-001
1.521624e+003;2.562647e-001
1.523553e+003;2.690994e-001
1.525481e+003;2.807629e-001
1.527410e+003;2.924973e-001
1.529339e+003;3.042594e-001
1.531267e+003;3.137329e-001
1.533196e+003;3.212585e-001
1.535124e+003;3.287240e-001
1.537053e+003;3.306603e-001
1.538981e+003;3.262779e-001
1.540910e+003;3.235236e-001
1.542838e+003;3.211995e-001
1.544767e+003;3.145228e-001
1.546695e+003;3.041560e-001
1.548624e+003;2.905696e-001
1.550553e+003;2.769428e-001
1.552481e+003;2.636479e-001
1.554410e+003;2.501333e-001
1.556338e+003;2.366242e-001
1.558267e+003;2.215364e-001
1.560195e+003;2.133878e-001
1.562124e+003;2.100027e-001
1.564052e+003;2.032141e-001
1.565981e+003;1.952200e-001
1.567910e+003;1.869151e-001
1.569838e+003;1.792876e-001
1.571767e+003;1.745943e-001
1.573695e+003;1.681373e-001
1.575624e+003;1.602284e-001
1.577552e+003;1.578341e-001
1.579481e+003;1.575577e-001
1.581409e+003;1.556501e-001
1.583338e+003;1.540180e-001
1.585266e+003;1.533457e-001
1.587195e+003;1.539930e-001
1.589124e+003;1.550042e-001
1.591052e+003;1.559864e-001
1.592981e+003;1.578577e-001
1.594909e+003;1.611390e-001
1.596838e+003;1.651227e-001
1.598766e+003;1.700185e-001
1.600695e+003;1.761513e-001
1.602623e+003;1.832502e-001
1.604552e+003;1.911696e-001
1.606480e+003;1.997748e-001
1.608409e+003;2.089332e-001
1.610338e+003;2.186981e-001
1.612266e+003;2.294618e-001
1.614195e+003;2.403313e-001
1.616123e+003;2.512793e-001
1.618052e+003;2.681442e-001
1.619980e+003;2.870895e-001
1.621909e+003;3.038389e-001
1.623837e+003;3.211049e-001
1.625766e+003;3.391192e-001
1.627694e+003;3.567521e-001
1.629623e+003;3.750347e-001
1.631552e+003;3.921264e-001
1.633480e+003;4.026796e-001
1.635409e+003;4.055710e-001
1.637337e+003;4.027461e-001
1.639266e+003;3.905623e-001
1.641194e+003;3.704614e-001
1.643123e+003;3.462043e-001
1.645051e+003;3.201160e-001
1.646980e+003;2.974898e-001
1.648909e+003;2.798666e-001
1.650837e+003;2.596594e-001
1.652766e+003;2.394659e-001
1.654694e+003;2.308208e-001
1.656623e+003;2.250202e-001
1.658551e+003;2.156549e-001
1.660480e+003;2.049469e-001
1.662408e+003;1.939607e-001
1.664337e+003;1.849186e-001
1.666266e+003;1.754016e-001
1.668194e+003;1.639465e-001
1.670123e+003;1.542110e-001
1.672051e+003;1.470232e-001
1.673980e+003;1.386996e-001
1.675908e+003;1.309962e-001
1.677837e+003;1.251031e-001
1.679765e+003;1.172615e-001
1.681694e+003;1.071340e-001
1.683622e+003;9.552763e-002
1.685551e+003;9.040877e-002
1.687479e+003;8.906223e-002
1.689408e+003;8.556698e-002
1.691337e+003;8.204473e-002
1.693265e+003;7.732202e-002
1.695194e+003;7.108165e-002
1.697122e+003;6.930965e-002
1.699051e+003;6.660825e-002
1.700979e+003;6.543082e-002
1.702908e+003;6.857984e-002
1.704836e+003;6.831548e-002
1.706765e+003;6.808663e-002
1.708693e+003;6.810632e-002
1.710622e+003;6.769245e-002
1.712551e+003;6.650463e-002
1.714479e+003;6.434536e-002
1.716408e+003;6.125254e-002
1.718336e+003;6.159499e-002
1.720265e+003;6.514870e-002
1.722193e+003;6.628310e-002
1.724122e+003;6.601138e-002
1.726050e+003;6.598361e-002
1.727979e+003;6.555553e-002
1.729908e+003;6.476625e-002
1.731836e+003;6.225517e-002
1.733765e+003;5.950557e-002
1.735693e+003;6.201440e-002
1.737622e+003;6.365537e-002
1.739550e+003;6.221839e-002
1.741479e+003;6.204471e-002
1.743407e+003;6.148518e-002
1.745336e+003;6.048307e-002
1.747265e+003;5.903163e-002
1.749193e+003;5.696959e-002
1.751122e+003;5.518736e-002
1.753050e+003;5.552388e-002
1.754979e+003;5.491835e-002
1.756907e+003;5.334867e-002
1.758836e+003;5.270528e-002
1.760764e+003;5.142138e-002
1.762693e+003;5.082031e-002
1.764621e+003;5.089649e-002
1.766550e+003;4.956834e-002
1.768479e+003;4.837511e-002
1.770407e+003;4.690419e-002
1.772336e+003;4.535598e-002
1.774264e+003;4.673324e-002
1.776193e+003;4.793121e-002
1.778121e+003;4.751013e-002
1.780050e+003;4.677546e-002
1.781978e+003;4.650073e-002
1.783907e+003;4.605222e-002
1.785835e+003;4.573054e-002
1.787764e+003;4.559844e-002
1.789693e+003;4.464510e-002
1.791621e+003;4.328029e-002
1.793550e+003;4.365017e-002
1.795478e+003;4.457599e-002
1.797407e+003;4.437102e-002
1.799335e+003;4.355177e-002
1.801264e+003;4.301629e-002
1.803192e+003;4.338613e-002
1.805121e+003;4.373419e-002
1.807049e+003;4.346347e-002
1.808978e+003;4.282310e-002
1.810907e+003;4.254330e-002
1.812835e+003;4.266022e-002
1.814764e+003;4.272598e-002
1.816692e+003;4.258043e-002
1.818621e+003;4.284215e-002
1.820549e+003;4.267309e-002
1.822478e+003;4.207893e-002
1.824406e+003;4.144544e-002
1.826335e+003;4.139576e-002
1.828264e+003;4.069918e-002
1.830192e+003;4.034293e-002
1.832121e+003;4.129798e-002
1.834049e+003;4.180274e-002
1.835978e+003;4.171053e-002
1.837906e+003;4.159857e-002
1.839835e+003;4.129281e-002
1.841763e+003;4.042202e-002
1.843692e+003;3.920394e-002
1.845620e+003;3.974015e-002
1.847549e+003;4.057853e-002
1.849478e+003;4.065159e-002
1.851406e+003;4.051200e-002
1.853335e+003;4.055627e-002
1.855263e+003;4.061011e-002
1.857192e+003;4.047403e-002
1.859120e+003;4.041737e-002
1.861049e+003;4.031737e-002
1.862977e+003;4.023274e-002
1.864906e+003;4.009223e-002
1.866834e+003;3.958786e-002
1.868763e+003;3.922646e-002
1.870692e+003;3.986558e-002
1.872620e+003;4.054797e-002
1.874549e+003;4.056791e-002
1.876477e+003;4.045228e-002
1.878406e+003;4.047188e-002
1.880334e+003;4.043726e-002
1.882263e+003;4.021860e-002
1.884191e+003;4.034268e-002
1.886120e+003;4.047454e-002
1.888048e+003;4.024692e-002
1.889977e+003;4.035060e-002
1.891906e+003;4.094969e-002
1.893834e+003;4.103071e-002
1.895763e+003;4.108858e-002
1.897691e+003;4.112278e-002
1.899620e+003;4.122263e-002
1.901548e+003;4.118977e-002
1.903477e+003;4.120493e-002
1.905405e+003;4.134700e-002
1.907334e+003;4.123928e-002
1.909262e+003;4.091430e-002
1.911191e+003;4.072273e-002
1.913120e+003;4.070344e-002
1.915048e+003;4.043875e-002
1.916977e+003;3.966180e-002
1.918905e+003;3.971640e-002
1.920834e+003;4.016844e-002
1.922762e+003;4.013683e-002
1.924691e+003;4.018018e-002
1.926619e+003;4.019592e-002
1.928548e+003;4.041995e-002
1.930477e+003;4.072375e-002
1.932405e+003;4.055580e-002
1.934334e+003;4.030817e-002
1.936262e+003;4.040006e-002
1.938191e+003;4.042282e-002
1.940119e+003;4.009042e-002
1.942048e+003;3.948657e-002
1.943976e+003;3.940028e-002
1.945905e+003;3.967338e-002
1.947833e+003;3.981125e-002
1.949762e+003;3.990851e-002
1.951691e+003;4.004118e-002
1.953619e+003;4.009194e-002
1.955548e+003;4.034435e-002
1.957476e+003;4.052851e-002
1.959405e+003;4.038635e-002
1.961333e+003;4.021453e-002
1.963262e+003;4.022107e-002
1.965190e+003;4.023892e-002
1.967119e+003;4.033672e-002
1.969047e+003;4.052619e-002
1.970976e+003;4.068707e-002
1.972905e+003;4.062172e-002
1.974833e+003;4.063238e-002
1.976762e+003;4.084120e-002
1.978690e+003;4.088044e-002
1.980619e+003;4.098286e-002
1.982547e+003;4.124369e-002
1.984476e+003;4.128851e-002
1.986404e+003;4.105332e-002
1.988333e+003;4.072692e-002
1.990261e+003;4.046566e-002
1.992190e+003;4.059410e-002
1.994119e+003;4.073969e-002
1.996047e+003;4.071396e-002
1.997976e+003;4.085565e-002
1.999904e+003;4.113892e-002
2.001833e+003;4.118055e-002
2.003761e+003;4.137819e-002
2.005690e+003;4.147362e-002
2.007618e+003;4.123127e-002
2.009547e+003;4.103664e-002
2.011476e+003;4.119451e-002
2.013404e+003;4.113851e-002
2.015333e+003;4.148638e-002
2.017261e+003;4.183098e-002
2.019190e+003;4.172541e-002
2.021118e+003;4.179187e-002
2.023047e+003;4.213858e-002
2.024975e+003;4.235788e-002
2.026904e+003;4.262462e-002
2.028833e+003;4.278898e-002
2.030761e+003;4.277589e-002
2.032690e+003;4.296819e-002
2.034618e+003;4.325166e-002
2.036547e+003;4.325851e-002
2.038475e+003;4.327985e-002
2.040404e+003;4.335651e-002
2.042332e+003;4.338474e-002
2.044261e+003;4.344948e-002
2.046189e+003;4.372217e-002
2.048118e+003;4.381507e-002
2.050047e+003;4.402718e-002
2.051975e+003;4.430791e-002
2.053904e+003;4.438486e-002
2.055832e+003;4.419759e-002
2.057761e+003;4.429837e-002
2.059689e+003;4.467084e-002
2.061618e+003;4.473254e-002
2.063546e+003;4.468296e-002
2.065475e+003;4.470738e-002
2.067404e+003;4.478716e-002
2.069332e+003;4.500401e-002
2.071260e+003;4.509271e-002
2.073189e+003;4.487845e-002
2.075118e+003;4.478892e-002
2.077046e+003;4.495528e-002
2.078975e+003;4.505745e-002
2.080903e+003;4.492372e-002
2.082832e+003;4.460919e-002
2.084760e+003;4.450532e-002
2.086689e+003;4.451028e-002
2.088617e+003;4.447030e-002
2.090546e+003;4.405953e-002
2.092475e+003;4.379531e-002
2.094403e+003;4.386660e-002
2.096332e+003;4.382460e-002
2.098260e+003;4.370975e-002
2.100189e+003;4.362489e-002
2.102117e+003;4.371444e-002
2.104046e+003;4.378197e-002
2.105974e+003;4.354968e-002
2.107903e+003;4.356346e-002
2.109832e+003;4.365456e-002
2.111760e+003;4.356316e-002
2.113688e+003;4.347043e-002
2.115617e+003;4.340740e-002
2.117546e+003;4.334677e-002
2.119474e+003;4.329797e-002
2.121403e+003;4.346764e-002
2.123331e+003;4.350009e-002
2.125260e+003;4.334901e-002
2.127188e+003;4.318370e-002
2.129117e+003;4.318900e-002
2.131045e+003;4.336442e-002
2.132974e+003;4.313795e-002
2.134903e+003;4.286117e-002
2.136831e+003;4.278028e-002
2.138760e+003;4.271081e-002
2.140688e+003;4.266706e-002
2.142617e+003;4.268548e-002
2.144545e+003;4.270102e-002
2.146474e+003;4.284018e-002
2.148402e+003;4.297331e-002
2.150331e+003;4.288926e-002
2.152260e+003;4.290323e-002
2.154188e+003;4.305061e-002
2.156117e+003;4.295915e-002
2.158045e+003;4.301476e-002
2.159974e+003;4.341359e-002
2.161902e+003;4.352994e-002
2.163831e+003;4.344846e-002
2.165759e+003;4.343003e-002
2.167688e+003;4.347925e-002
2.169616e+003;4.370304e-002
2.171545e+003;4.398201e-002
2.173474e+003;4.411872e-002
2.175402e+003;4.410339e-002
2.177331e+003;4.417422e-002
2.179259e+003;4.400716e-002
2.181188e+003;4.382922e-002
2.183116e+003;4.373302e-002
2.185045e+003;4.382900e-002
2.186973e+003;4.396478e-002
2.188902e+003;4.394502e-002
2.190831e+003;4.384150e-002
2.192759e+003;4.390344e-002
2.194688e+003;4.401695e-002
2.196616e+003;4.421409e-002
2.198545e+003;4.448616e-002
2.200473e+003;4.442563e-002
2.202402e+003;4.392896e-002
2.204330e+003;4.385176e-002
2.206259e+003;4.370857e-002
2.208188e+003;4.341535e-002
2.210116e+003;4.340165e-002
2.212044e+003;4.347295e-002
2.213973e+003;4.346409e-002
2.215902e+003;4.333008e-002
2.217830e+003;4.315281e-002
2.219759e+003;4.305752e-002
2.221687e+003;4.290158e-002
2.223616e+003;4.287763e-002
2.225544e+003;4.270975e-002
2.227473e+003;4.246506e-002
2.229401e+003;4.241311e-002
2.231330e+003;4.250347e-002
2.233259e+003;4.267521e-002
2.235187e+003;4.253310e-002
2.237116e+003;4.271253e-002
2.239044e+003;4.298501e-002
2.240973e+003;4.281487e-002
2.242901e+003;4.300115e-002
2.244830e+003;4.300400e-002
2.246758e+003;4.276163e-002
2.248687e+003;4.271769e-002
2.250615e+003;4.276054e-002
2.252544e+003;4.287444e-002
2.254473e+003;4.302156e-002
2.256401e+003;4.331503e-002
2.258330e+003;4.321462e-002
2.260258e+003;4.290250e-002
2.262187e+003;4.302149e-002
2.264115e+003;4.299394e-002
2.266044e+003;4.288340e-002
2.267972e+003;4.291939e-002
2.269901e+003;4.310912e-002
2.271830e+003;4.302537e-002
2.273758e+003;4.295513e-002
2.275687e+003;4.323069e-002
2.277615e+003;4.326876e-002
2.279544e+003;4.329577e-002
2.281472e+003;4.329138e-002
2.283401e+003;4.303030e-002
2.285329e+003;4.282815e-002
2.287258e+003;4.297686e-002
2.289187e+003;4.354642e-002
2.291115e+003;4.353525e-002
2.293043e+003;4.337555e-002
2.294972e+003;4.363203e-002
2.296901e+003;4.391000e-002
2.298829e+003;4.395591e-002
2.300758e+003;4.405120e-002
2.302686e+003;4.425276e-002
2.304615e+003;4.418185e-002
2.306543e+003;4.408267e-002
2.308472e+003;4.408535e-002
2.310400e+003;4.405854e-002
2.312329e+003;4.422946e-002
2.314258e+003;4.445936e-002
2.316186e+003;4.443851e-002
2.318115e+003;4.430189e-002
2.320043e+003;4.415793e-002
2.321972e+003;4.417646e-002
2.323900e+003;4.409155e-002
2.325829e+003;4.406103e-002
2.327757e+003;4.416556e-002
2.329686e+003;4.402942e-002
2.331615e+003;4.407431e-002
2.333543e+003;4.405208e-002
2.335472e+003;4.395026e-002
2.337400e+003;4.410937e-002
2.339329e+003;4.414876e-002
2.341257e+003;4.373312e-002
2.343186e+003;4.370209e-002
2.345114e+003;4.408336e-002
2.347043e+003;4.415228e-002
2.348971e+003;4.396823e-002
2.350900e+003;4.379348e-002
2.352829e+003;4.371337e-002
2.354757e+003;4.361031e-002
2.356686e+003;4.369839e-002
2.358614e+003;4.380345e-002
2.360543e+003;4.365969e-002
2.362471e+003;4.354734e-002
2.364400e+003;4.346827e-002
2.366328e+003;4.351478e-002
2.368257e+003;4.397009e-002
2.370186e+003;4.442798e-002
2.372114e+003;4.455657e-002
2.374042e+003;4.470400e-002
2.375971e+003;4.468156e-002
2.377900e+003;4.454449e-002
2.379828e+003;4.475329e-002
2.381757e+003;4.488315e-002
2.383685e+003;4.473772e-002
2.385614e+003;4.481592e-002
2.387542e+003;4.495220e-002
2.389471e+003;4.484946e-002
2.391399e+003;4.489293e-002
2.393328e+003;4.525657e-002
2.395257e+003;4.536488e-002
2.397185e+003;4.519851e-002
2.399114e+003;4.521300e-002
2.401042e+003;4.544614e-002
2.402971e+003;4.541668e-002
2.404899e+003;4.512726e-002
2.406828e+003;4.500273e-002
2.408756e+003;4.513770e-002
2.410685e+003;4.518046e-002
2.412614e+003;4.509918e-002
2.414542e+003;4.507973e-002
2.416471e+003;4.505356e-002
2.418399e+003;4.524911e-002
2.420328e+003;4.559134e-002
2.422256e+003;4.554604e-002
2.424185e+003;4.528106e-002
2.426113e+003;4.513046e-002
2.428042e+003;4.532748e-002
2.429970e+003;4.558280e-002
2.431899e+003;4.580778e-002
2.433828e+003;4.596176e-002
2.435756e+003;4.590518e-002
2.437685e+003;4.609935e-002
2.439613e+003;4.637219e-002
2.441542e+003;4.647149e-002
2.443470e+003;4.648012e-002
2.445399e+003;4.652268e-002
2.447327e+003;4.693243e-002
2.449256e+003;4.729723e-002
2.451185e+003;4.734131e-002
2.453113e+003;4.732686e-002
2.455042e+003;4.728194e-002
2.456970e+003;4.745321e-002
2.458899e+003;4.764226e-002
2.460827e+003;4.753261e-002
2.462756e+003;4.733233e-002
2.464684e+003;4.761420e-002
2.466613e+003;4.829119e-002
2.468542e+003;4.866896e-002
2.470470e+003;4.860017e-002
2.472398e+003;4.834678e-002
2.474327e+003;4.844875e-002
2.476256e+003;4.874847e-002
2.478184e+003;4.863942e-002
2.480113e+003;4.849735e-002
2.482041e+003;4.873794e-002
2.483970e+003;4.900640e-002
2.485898e+003;4.899624e-002
2.487827e+003;4.889644e-002
2.489755e+003;4.875881e-002
2.491684e+003;4.881972e-002
2.493613e+003;4.919847e-002
2.495541e+003;4.917843e-002
2.497470e+003;4.901497e-002
2.499398e+003;4.922775e-002
2.501327e+003;4.914634e-002
2.503255e+003;4.883540e-002
2.505184e+003;4.899175e-002
2.507112e+003;4.951189e-002
2.509041e+003;4.981253e-002
2.510969e+003;4.969984e-002
2.512898e+003;4.969597e-002
2.514827e+003;4.989340e-002
2.516755e+003;4.997321e-002
2.518684e+003;5.007519e-002
2.520612e+003;5.048046e-002
2.522541e+003;5.119999e-002
2.524469e+003;5.158262e-002
2.526398e+003;5.149285e-002
2.528326e+003;5.162803e-002
2.530255e+003;5.205637e-002
2.532184e+003;5.224482e-002
2.534112e+003;5.220895e-002
2.536041e+003;5.221243e-002
2.537969e+003;5.247804e-002
2.539898e+003;5.273797e-002
2.541826e+003;5.292526e-002
2.543755e+003;5.314143e-002
2.545683e+003;5.341060e-002
2.547612e+003;5.349987e-002
2.549541e+003;5.361033e-002
2.551469e+003;5.365082e-002
2.553397e+003;5.350984e-002
2.555326e+003;5.348907e-002
2.557255e+003;5.384896e-002
2.559183e+003;5.435013e-002
2.561112e+003;5.464193e-002
2.563040e+003;5.440072e-002
2.564969e+003;5.431634e-002
2.566897e+003;5.423956e-002
2.568826e+003;5.395433e-002
2.570754e+003;5.426629e-002
2.572683e+003;5.467342e-002
2.574612e+003;5.488369e-002
2.576540e+003;5.530431e-002
2.578469e+003;5.572428e-002
2.580397e+003;5.600614e-002
2.582326e+003;5.624915e-002
2.584254e+003;5.624383e-002
2.586183e+003;5.629336e-002
2.588111e+003;5.642543e-002
2.590040e+003;5.667857e-002
2.591969e+003;5.686881e-002
2.593897e+003;5.686836e-002
2.595826e+003;5.698988e-002
2.597754e+003;5.738547e-002
2.599683e+003;5.743198e-002
2.601611e+003;5.708721e-002
2.603540e+003;5.702373e-002
2.605468e+003;5.732145e-002
2.607397e+003;5.765214e-002
2.609325e+003;5.765256e-002
2.611254e+003;5.778266e-002
2.613183e+003;5.819951e-002
2.615111e+003;5.847700e-002
2.617040e+003;5.831049e-002
2.618968e+003;5.816326e-002
2.620897e+003;5.833050e-002
2.622825e+003;5.859427e-002
2.624754e+003;5.887618e-002
2.626682e+003;5.890798e-002
2.628611e+003;5.876946e-002
2.630540e+003;5.906048e-002
2.632468e+003;5.904176e-002
2.634396e+003;5.906036e-002
2.636325e+003;5.916204e-002
2.638254e+003;5.927740e-002
2.640182e+003;5.941202e-002
2.642111e+003;5.961544e-002
2.644039e+003;5.980724e-002
2.645968e+003;5.954714e-002
2.647896e+003;5.937301e-002
2.649825e+003;5.961210e-002
2.651753e+003;5.993852e-002
2.653682e+003;6.006095e-002
2.655611e+003;5.999068e-002
2.657539e+003;6.005718e-002
2.659468e+003;6.056462e-002
2.661396e+003;6.083661e-002
2.663325e+003;6.065094e-002
2.665253e+003;6.075314e-002
2.667182e+003;6.148419e-002
2.669110e+003;6.205510e-002
2.671039e+003;6.210721e-002
2.672968e+003;6.226393e-002
2.674896e+003;6.246934e-002
2.676825e+003;6.253970e-002
2.678753e+003;6.259948e-002
2.680682e+003;6.306113e-002
2.682610e+003;6.351057e-002
2.684539e+003;6.394266e-002
2.686467e+003;6.420506e-002
2.688396e+003;6.444521e-002
2.690324e+003;6.496681e-002
2.692253e+003;6.535532e-002
2.694182e+003;6.566397e-002
2.696110e+003;6.573255e-002
2.698039e+003;6.589892e-002
2.699967e+003;6.643447e-002
2.701896e+003;6.680053e-002
2.703824e+003;6.694706e-002
2.705753e+003;6.701819e-002
2.707681e+003;6.730679e-002
2.709610e+003;6.770530e-002
2.711539e+003;6.809190e-002
2.713467e+003;6.849036e-002
2.715396e+003;6.878072e-002
2.717324e+003;6.894138e-002
2.719253e+003;6.944719e-002
2.721181e+003;7.017547e-002
2.723110e+003;7.047740e-002
2.725038e+003;7.071585e-002
2.726967e+003;7.106670e-002
2.728896e+003;7.143084e-002
2.730824e+003;7.172461e-002
2.732752e+003;7.205359e-002
2.734681e+003;7.247888e-002
2.736610e+003;7.287501e-002
2.738538e+003;7.325510e-002
2.740467e+003;7.356094e-002
2.742395e+003;7.377423e-002
2.744324e+003;7.422905e-002
2.746252e+003;7.439832e-002
2.748181e+003;7.392392e-002
2.750109e+003;7.395770e-002
2.752038e+003;7.434106e-002
2.753967e+003;7.454683e-002
2.755895e+003;7.481769e-002
2.757824e+003;7.523632e-002
2.759752e+003;7.541248e-002
2.761681e+003;7.521714e-002
2.763609e+003;7.490095e-002
2.765538e+003;7.501534e-002
2.767466e+003;7.538682e-002
2.769395e+003;7.566293e-002
2.771323e+003;7.593993e-002
2.773252e+003;7.636984e-002
2.775181e+003;7.690288e-002
2.777109e+003;7.759937e-002
2.779038e+003;7.822421e-002
2.780966e+003;7.845596e-002
2.782895e+003;7.875139e-002
2.784823e+003;7.922338e-002
2.786752e+003;7.969684e-002
2.788680e+003;8.014256e-002
2.790609e+003;8.083433e-002
2.792538e+003;8.160648e-002
2.794466e+003;8.220609e-002
2.796395e+003;8.245741e-002
2.798323e+003;8.273336e-002
2.800252e+003;8.302706e-002
2.802180e+003;8.334669e-002
2.804109e+003;8.403699e-002
2.806037e+003;8.441817e-002
2.807966e+003;8.462664e-002
2.809895e+003;8.527870e-002
2.811823e+003;8.611128e-002
2.813751e+003;8.664113e-002
2.815680e+003;8.719561e-002
2.817609e+003;8.791324e-002
2.819537e+003;8.855014e-002
2.821466e+003;8.909140e-002
2.823394e+003;8.987924e-002
2.825323e+003;9.090901e-002
2.827251e+003;9.173560e-002
2.829180e+003;9.257948e-002
2.831108e+003;9.342064e-002
2.833037e+003;9.442751e-002
2.834966e+003;9.604236e-002
2.836894e+003;9.824754e-002
2.838823e+003;1.012005e-001
2.840751e+003;1.041316e-001
2.842680e+003;1.072760e-001
2.844608e+003;1.116443e-001
2.846537e+003;1.168985e-001
2.848465e+003;1.222792e-001
2.850394e+003;1.271300e-001
2.852323e+003;1.311525e-001
2.854251e+003;1.342233e-001
2.856180e+003;1.368136e-001
2.858108e+003;1.389234e-001
2.860037e+003;1.400991e-001
2.861965e+003;1.403992e-001
2.863894e+003;1.402010e-001
2.865822e+003;1.393058e-001
2.867751e+003;1.376192e-001
2.869679e+003;1.353962e-001
2.871608e+003;1.326838e-001
2.873536e+003;1.299850e-001
2.875465e+003;1.277469e-001
2.877394e+003;1.251151e-001
2.879322e+003;1.220599e-001
2.881251e+003;1.196657e-001
2.883179e+003;1.181054e-001
2.885108e+003;1.175923e-001
2.887036e+003;1.179858e-001
2.888965e+003;1.187049e-001
2.890893e+003;1.202312e-001
2.892822e+003;1.226645e-001
2.894750e+003;1.251585e-001
2.896679e+003;1.276527e-001
2.898608e+003;1.296604e-001
2.900536e+003;1.310126e-001
2.902465e+003;1.318581e-001
2.904393e+003;1.327303e-001
2.906322e+003;1.340260e-001
2.908250e+003;1.359805e-001
2.910179e+003;1.386628e-001
2.912107e+003;1.413212e-001
2.914036e+003;1.438289e-001
2.915965e+003;1.468496e-001
2.917893e+003;1.501864e-001
2.919822e+003;1.529856e-001
2.921750e+003;1.557045e-001
2.923679e+003;1.590139e-001
2.925607e+003;1.619101e-001
2.927536e+003;1.643209e-001
2.929464e+003;1.671110e-001
2.931393e+003;1.691360e-001
2.933322e+003;1.697745e-001
2.935250e+003;1.694570e-001
2.937178e+003;1.682473e-001
2.939107e+003;1.663313e-001
2.941036e+003;1.637664e-001
2.942964e+003;1.601731e-001
2.944893e+003;1.556986e-001
2.946821e+003;1.503886e-001
2.948750e+003;1.444837e-001
2.950678e+003;1.377414e-001
2.952607e+003;1.306288e-001
2.954535e+003;1.246586e-001
2.956464e+003;1.194990e-001
2.958393e+003;1.142836e-001
2.960321e+003;1.092780e-001
2.962250e+003;1.054009e-001
2.964178e+003;1.027300e-001
2.966107e+003;1.001305e-001
2.968035e+003;9.696896e-002
2.969964e+003;9.431309e-002
2.971892e+003;9.224700e-002
2.973821e+003;9.017337e-002
2.975750e+003;8.809169e-002
2.977678e+003;8.612772e-002
2.979607e+003;8.485318e-002
2.981535e+003;8.356007e-002
2.983464e+003;8.219665e-002
2.985392e+003;8.090502e-002
2.987321e+003;7.985762e-002
2.989249e+003;7.911313e-002
2.991178e+003;7.833976e-002
2.993106e+003;7.772639e-002
2.995035e+003;7.731387e-002
2.996964e+003;7.671643e-002
2.998892e+003;7.625197e-002
3.000821e+003;7.626741e-002
3.002749e+003;7.640930e-002
3.004678e+003;7.641160e-002
3.006606e+003;7.646956e-002
3.008535e+003;7.654899e-002
3.010463e+003;7.654077e-002
3.012392e+003;7.700106e-002
3.014321e+003;7.740549e-002
3.016249e+003;7.769628e-002
3.018177e+003;7.772164e-002
3.020106e+003;7.807479e-002
3.022035e+003;7.890371e-002
3.023963e+003;7.950337e-002
3.025892e+003;7.985076e-002
3.027820e+003;8.028704e-002
3.029749e+003;8.078891e-002
3.031677e+003;8.147839e-002
3.033606e+003;8.204640e-002
3.035534e+003;8.237156e-002
3.037463e+003;8.318402e-002
3.039392e+003;8.420401e-002
3.041320e+003;8.461782e-002
3.043249e+003;8.514726e-002
3.045177e+003;8.615795e-002
3.047106e+003;8.722465e-002
3.049034e+003;8.823441e-002
3.050963e+003;8.926090e-002
3.052891e+003;9.033930e-002
3.054820e+003;9.113484e-002
3.056749e+003;9.167127e-002
3.058677e+003;9.223524e-002
3.060606e+003;9.284861e-002
3.062534e+003;9.326639e-002
3.064463e+003;9.373774e-002
3.066391e+003;9.382668e-002
3.068320e+003;9.376516e-002
3.070248e+003;9.362435e-002
3.072177e+003;9.369374e-002
3.074105e+003;9.372704e-002
3.076034e+003;9.311724e-002
3.077963e+003;9.286949e-002
3.079891e+003;9.320885e-002
3.081820e+003;9.321111e-002
3.083748e+003;9.265654e-002
3.085677e+003;9.223958e-002
3.087605e+003;9.157188e-002
3.089534e+003;9.042305e-002
3.091462e+003;8.993434e-002
3.093391e+003;9.017977e-002
3.095320e+003;8.995215e-002
3.097248e+003;8.921202e-002
3.099177e+003;8.809510e-002
3.101105e+003;8.744966e-002
3.103034e+003;8.712174e-002
3.104962e+003;8.649825e-002
3.106891e+003;8.588126e-002
3.108819e+003;8.557884e-002
3.110748e+003;8.491997e-002
3.112677e+003;8.429038e-002
3.114605e+003;8.402405e-002
3.116533e+003;8.340503e-002
3.118462e+003;8.289442e-002
3.120391e+003;8.258707e-002
3.122319e+003;8.211345e-002
3.124248e+003;8.168810e-002
3.126176e+003;8.177084e-002
3.128105e+003;8.212398e-002
3.130033e+003;8.210385e-002
3.131962e+003;8.182961e-002
3.133890e+003;8.185253e-002
3.135819e+003;8.201151e-002
3.137748e+003;8.203488e-002
3.139676e+003;8.181357e-002
3.141605e+003;8.197805e-002
3.143533e+003;8.266005e-002
3.145462e+003;8.306200e-002
3.147390e+003;8.307051e-002
3.149319e+003;8.316596e-002
3.151247e+003;8.367483e-002
3.153176e+003;8.394983e-002
3.155104e+003;8.418330e-002
3.157033e+003;8.481261e-002
3.158962e+003;8.512030e-002
3.160890e+003;8.514384e-002
3.162819e+003;8.579865e-002
3.164747e+003;8.658455e-002
3.166676e+003;8.692202e-002
3.168604e+003;8.748472e-002
3.170533e+003;8.859028e-002
3.172461e+003;8.978605e-002
3.174390e+003;9.035324e-002
3.176319e+003;9.087090e-002
3.178247e+003;9.136456e-002
3.180176e+003;9.175418e-002
3.182104e+003;9.274399e-002
3.184033e+003;9.358872e-002
3.185961e+003;9.438752e-002
3.187890e+003;9.480688e-002
3.189818e+003;9.466998e-002
3.191747e+003;9.503706e-002
3.193676e+003;9.621198e-002
3.195604e+003;9.710194e-002
3.197532e+003;9.747647e-002
3.199461e+003;9.775679e-002
3.201390e+003;9.791032e-002
3.203318e+003;9.810983e-002
3.205247e+003;9.858826e-002
3.207175e+003;9.933922e-002
3.209104e+003;9.972532e-002
3.211032e+003;9.998536e-002
3.212961e+003;1.006024e-001
3.214889e+003;1.008647e-001
3.216818e+003;1.009928e-001
3.218747e+003;1.017287e-001
3.220675e+003;1.028611e-001
3.222604e+003;1.033469e-001
3.224532e+003;1.037940e-001
3.226461e+003;1.048714e-001
3.228389e+003;1.059954e-001
3.230318e+003;1.067876e-001
3.232246e+003;1.077683e-001
3.234175e+003;1.091794e-001
3.236104e+003;1.106410e-001
3.238032e+003;1.123724e-001
3.239961e+003;1.138905e-001
3.241889e+003;1.152912e-001
3.243818e+003;1.171251e-001
3.245746e+003;1.191325e-001
3.247675e+003;1.204589e-001
3.249603e+003;1.215398e-001
3.251532e+003;1.241517e-001
3.253460e+003;1.267063e-001
3.255389e+003;1.285056e-001
3.257318e+003;1.305732e-001
3.259246e+003;1.329383e-001
3.261175e+003;1.352406e-001
3.263103e+003;1.375209e-001
3.265032e+003;1.398966e-001
3.266960e+003;1.423086e-001
3.268889e+003;1.443963e-001
3.270817e+003;1.464795e-001
3.272746e+003;1.488236e-001
3.274675e+003;1.513077e-001
3.276603e+003;1.538743e-001
3.278531e+003;1.564885e-001
3.280460e+003;1.585821e-001
3.282389e+003;1.601089e-001
3.284317e+003;1.620533e-001
3.286246e+003;1.639414e-001
3.288174e+003;1.651722e-001
3.290103e+003;1.658085e-001
3.292031e+003;1.659014e-001
3.293960e+003;1.658716e-001
3.295888e+003;1.648453e-001
3.297817e+003;1.623267e-001
3.299746e+003;1.597336e-001
3.301674e+003;1.570098e-001
3.303603e+003;1.534909e-001
3.305531e+003;1.495802e-001
3.307460e+003;1.459762e-001
3.309388e+003;1.429358e-001
3.311317e+003;1.398642e-001
3.313245e+003;1.370101e-001
3.315174e+003;1.339324e-001
3.317103e+003;1.306149e-001
3.319031e+003;1.274927e-001
3.320960e+003;1.245776e-001
3.322888e+003;1.216339e-001
3.324817e+003;1.187077e-001
3.326745e+003;1.161037e-001
3.328674e+003;1.137574e-001
3.330602e+003;1.112188e-001
3.332531e+003;1.088560e-001
3.334459e+003;1.067814e-001
3.336388e+003;1.049290e-001
3.338317e+003;1.030597e-001
3.340245e+003;1.006348e-001
3.342174e+003;9.870461e-002
3.344102e+003;9.775268e-002
3.346031e+003;9.686624e-002
3.347959e+003;9.550137e-002
3.349888e+003;9.369576e-002
3.351816e+003;9.187707e-002
3.353745e+003;9.030066e-002
3.355674e+003;8.891611e-002
3.357602e+003;8.793405e-002
3.359531e+003;8.685549e-002
3.361459e+003;8.574758e-002
3.363388e+003;8.462354e-002
3.365316e+003;8.401170e-002
3.367245e+003;8.380265e-002
3.369173e+003;8.268791e-002
3.371102e+003;8.171038e-002
3.373031e+003;8.118366e-002
3.374959e+003;8.001319e-002
3.376887e+003;7.869944e-002
3.378816e+003;7.803585e-002
3.380745e+003;7.768071e-002
3.382673e+003;7.697526e-002
3.384602e+003;7.614978e-002
3.386530e+003;7.560421e-002
3.388459e+003;7.537925e-002
3.390387e+003;7.546187e-002
3.392316e+003;7.489339e-002
3.394244e+003;7.428782e-002
3.396173e+003;7.396972e-002
3.398102e+003;7.322929e-002
3.400030e+003;7.253033e-002
3.401959e+003;7.235796e-002
3.403887e+003;7.224619e-002
3.405816e+003;7.176296e-002
3.407744e+003;7.135624e-002
3.409673e+003;7.170534e-002
3.411601e+003;7.174497e-002
3.413530e+003;7.114476e-002
3.415458e+003;7.061776e-002
3.417387e+003;7.045413e-002
3.419316e+003;7.020503e-002
3.421244e+003;6.986737e-002
3.423173e+003;6.941923e-002
3.425101e+003;6.871027e-002
3.427030e+003;6.816229e-002
3.428958e+003;6.809938e-002
3.430887e+003;6.822482e-002
3.432815e+003;6.854624e-002
3.434744e+003;6.861096e-002
3.436673e+003;6.816028e-002
3.438601e+003;6.795456e-002
3.440530e+003;6.825107e-002
3.442458e+003;6.829070e-002
3.444387e+003;6.772839e-002
3.446315e+003;6.675899e-002
3.448244e+003;6.626002e-002
3.450172e+003;6.606253e-002
3.452101e+003;6.555237e-002
3.454030e+003;6.521291e-002
3.455958e+003;6.520533e-002
3.457886e+003;6.505624e-002
3.459815e+003;6.446419e-002
3.461744e+003;6.379622e-002
3.463672e+003;6.363327e-002
3.465601e+003;6.368522e-002
3.467529e+003;6.365023e-002
3.469458e+003;6.330194e-002
3.471386e+003;6.285413e-002
3.473315e+003;6.252027e-002
3.475243e+003;6.195145e-002
3.477172e+003;6.142739e-002
3.479101e+003;6.128062e-002
3.481029e+003;6.121000e-002
3.482958e+003;6.125174e-002
3.484886e+003;6.132382e-002
3.486815e+003;6.121366e-002
3.488743e+003;6.057788e-002
3.490672e+003;5.995644e-002
3.492600e+003;5.964030e-002
3.494529e+003;5.926016e-002
3.496458e+003;5.928215e-002
3.498386e+003;5.970123e-002
3.500315e+003;5.964991e-002
3.502243e+003;5.881741e-002
3.504172e+003;5.862335e-002
3.506100e+003;5.892335e-002
3.508029e+003;5.880159e-002
3.509957e+003;5.873107e-002
3.511886e+003;5.855267e-002
3.513814e+003;5.799365e-002
3.515743e+003;5.741092e-002
3.517672e+003;5.718986e-002
3.519600e+003;5.716374e-002
3.521529e+003;5.666932e-002
3.523457e+003;5.597320e-002
3.525386e+003;5.534209e-002
3.527314e+003;5.491283e-002
3.529243e+003;5.470040e-002
3.531171e+003;5.440601e-002
3.533100e+003;5.463043e-002
3.535029e+003;5.462070e-002
3.536957e+003;5.391449e-002
3.538885e+003;5.320674e-002
3.540814e+003;5.286841e-002
3.542743e+003;5.235646e-002
3.544671e+003;5.159269e-002
3.546600e+003;5.132367e-002
3.548528e+003;5.183645e-002
3.550457e+003;5.183970e-002
3.552385e+003;5.123496e-002
3.554314e+003;5.083745e-002
3.556242e+003;5.044663e-002
3.558171e+003;4.981974e-002
3.560100e+003;4.927971e-002
3.562028e+003;4.878476e-002
3.563957e+003;4.798957e-002
3.565885e+003;4.667875e-002
3.567814e+003;4.653839e-002
3.569742e+003;4.748374e-002
3.571671e+003;4.732982e-002
3.573599e+003;4.665311e-002
3.575528e+003;4.676833e-002
3.577457e+003;4.688732e-002
3.579385e+003;4.620625e-002
3.581314e+003;4.600522e-002
3.583242e+003;4.588345e-002
3.585171e+003;4.419586e-002
3.587099e+003;4.228943e-002
3.589028e+003;4.269045e-002
3.590956e+003;4.387064e-002
3.592885e+003;4.354434e-002
3.594813e+003;4.290326e-002
3.596742e+003;4.308061e-002
3.598671e+003;4.318289e-002
3.600599e+003;4.235470e-002
3.602528e+003;4.215654e-002
3.604456e+003;4.194213e-002
3.606385e+003;4.105321e-002
3.608313e+003;3.997557e-002
3.610242e+003;4.002585e-002
3.612170e+003;4.005684e-002
3.614099e+003;3.991033e-002
3.616028e+003;3.927640e-002
3.617956e+003;3.823720e-002
3.619885e+003;3.842192e-002
3.621813e+003;3.963733e-002
3.623742e+003;3.981662e-002
3.625670e+003;3.808590e-002
3.627599e+003;3.469014e-002
3.629527e+003;3.460943e-002
3.631456e+003;3.763314e-002
3.633385e+003;3.834417e-002
3.635313e+003;3.768243e-002
3.637241e+003;3.752656e-002
3.639170e+003;3.760788e-002
3.641099e+003;3.726777e-002
3.643027e+003;3.725852e-002
3.644956e+003;3.635435e-002
3.646884e+003;3.411407e-002
3.648813e+003;3.297082e-002
3.650741e+003;3.397043e-002
3.652670e+003;3.555895e-002
3.654598e+003;3.487124e-002
3.656527e+003;3.446614e-002
3.658456e+003;3.553011e-002
3.660384e+003;3.568124e-002
3.662313e+003;3.571239e-002
3.664241e+003;3.600362e-002
3.666170e+003;3.542275e-002
3.668098e+003;3.301179e-002
3.670027e+003;3.149140e-002
3.671955e+003;3.280213e-002
3.673884e+003;3.169644e-002
3.675813e+003;3.163346e-002
3.677741e+003;3.428904e-002
3.679669e+003;3.486912e-002
3.681598e+003;3.476135e-002
3.683527e+003;3.461216e-002
3.685455e+003;3.351392e-002
3.687384e+003;3.013862e-002
3.689312e+003;2.992544e-002
3.691241e+003;3.237843e-002
3.693169e+003;3.377489e-002
3.695098e+003;3.397194e-002
3.697026e+003;3.363720e-002
3.698955e+003;3.307297e-002
3.700884e+003;3.253492e-002
3.702812e+003;3.278255e-002
3.704741e+003;3.276800e-002
3.706669e+003;3.162958e-002
3.708598e+003;3.016284e-002
3.710526e+003;2.846408e-002
3.712455e+003;2.848570e-002
3.714383e+003;3.110574e-002
3.716312e+003;3.211851e-002
3.718240e+003;3.174652e-002
3.720169e+003;3.102331e-002
3.722098e+003;3.098976e-002
3.724026e+003;3.128956e-002
3.725955e+003;3.080888e-002
3.727883e+003;3.112479e-002
3.729812e+003;3.059651e-002
3.731740e+003;2.854985e-002
3.733669e+003;2.798045e-002
3.735597e+003;2.777451e-002
3.737526e+003;2.944081e-002
3.739455e+003;3.111062e-002
3.741383e+003;3.005975e-002
3.743312e+003;2.517323e-002
3.745240e+003;2.575925e-002
3.747169e+003;2.854302e-002
3.749097e+003;2.700506e-002
3.751026e+003;2.677956e-002
3.752954e+003;2.943344e-002
3.754883e+003;3.216308e-002
3.756812e+003;3.220504e-002
3.758740e+003;3.169584e-002
3.760668e+003;3.160859e-002
3.762597e+003;3.250293e-002
3.764526e+003;3.216814e-002
3.766454e+003;3.182039e-002
3.768383e+003;3.103556e-002
3.770311e+003;3.132709e-002
3.772240e+003;3.252757e-002
3.774168e+003;3.263146e-002
3.776097e+003;3.220293e-002
3.778025e+003;3.185829e-002
3.779954e+003;3.246404e-002
3.781883e+003;3.339081e-002
3.783811e+003;3.314681e-002
3.785740e+003;3.314355e-002
3.787668e+003;3.292049e-002
3.789597e+003;3.288089e-002
3.791525e+003;3.296053e-002
3.793454e+003;3.318297e-002
3.795382e+003;3.249718e-002
3.797311e+003;3.223559e-002
3.799240e+003;3.070311e-002
3.801168e+003;2.923290e-002
3.803097e+003;3.142681e-002
3.805025e+003;3.138667e-002
3.806954e+003;3.038204e-002
3.808882e+003;3.259056e-002
3.810811e+003;3.413958e-002
3.812739e+003;3.364189e-002
3.814668e+003;3.119264e-002
3.816596e+003;3.097901e-002
3.818525e+003;3.188239e-002
3.820454e+003;3.070375e-002
3.822382e+003;3.213952e-002
3.824311e+003;3.387926e-002
3.826239e+003;3.362643e-002
3.828168e+003;3.343085e-002
3.830096e+003;3.326137e-002
3.832025e+003;3.330158e-002
3.833953e+003;3.281564e-002
3.835882e+003;3.096496e-002
3.837811e+003;3.020255e-002
3.839739e+003;3.205829e-002
3.841667e+003;3.308112e-002
3.843596e+003;3.350873e-002
3.845525e+003;3.463268e-002
3.847453e+003;3.510252e-002
3.849382e+003;3.364522e-002
3.851310e+003;2.959444e-002
3.853239e+003;2.632793e-002
3.855167e+003;3.012552e-002
3.857096e+003;3.420042e-002
3.859024e+003;3.448971e-002
3.860953e+003;3.387403e-002
3.862882e+003;3.314309e-002
3.864810e+003;3.301805e-002
3.866739e+003;3.324799e-002
3.868667e+003;3.204841e-002
3.870596e+003;3.267629e-002
3.872524e+003;3.394493e-002
3.874453e+003;3.401240e-002
3.876381e+003;3.465752e-002
3.878310e+003;3.437970e-002
3.880239e+003;3.419654e-002
3.882167e+003;3.482090e-002
3.884096e+003;3.413030e-002
3.886024e+003;3.381417e-002
3.887953e+003;3.516378e-002
3.889881e+003;3.493695e-002
3.891810e+003;3.466692e-002
3.893738e+003;3.611505e-002
3.895667e+003;3.671935e-002
3.897595e+003;3.525411e-002
3.899524e+003;3.405970e-002
3.901453e+003;3.364533e-002
3.903381e+003;3.376149e-002
3.905310e+003;3.567552e-002
3.907238e+003;3.714781e-002
3.909167e+003;3.739183e-002
3.911095e+003;3.720307e-002
3.913024e+003;3.666076e-002
3.914952e+003;3.597432e-002
3.916881e+003;3.540632e-002
3.918810e+003;3.572591e-002
3.920738e+003;3.664270e-002
3.922667e+003;3.704875e-002
3.924595e+003;3.684138e-002
3.926524e+003;3.691969e-002
3.928452e+003;3.729763e-002
3.930381e+003;3.768709e-002
3.932309e+003;3.733294e-002
3.934238e+003;3.757663e-002
3.936167e+003;3.832901e-002
3.938095e+003;3.857384e-002
3.940023e+003;3.805473e-002
3.941952e+003;3.783690e-002
3.943881e+003;3.805534e-002
3.945809e+003;3.791652e-002
3.947738e+003;3.792364e-002
3.949666e+003;3.823977e-002
3.951595e+003;3.921518e-002
3.953523e+003;3.998338e-002
3.955452e+003;3.953320e-002
3.957380e+003;3.921783e-002
3.959309e+003;3.955697e-002
3.961238e+003;3.961530e-002
3.963166e+003;3.984829e-002
3.965095e+003;4.069212e-002
3.967023e+003;4.102663e-002
3.968952e+003;4.030592e-002
3.970880e+003;4.015612e-002
3.972809e+003;4.043744e-002
3.974737e+003;4.009649e-002
3.976666e+003;4.032930e-002
3.978594e+003;4.065952e-002
3.980523e+003;4.047526e-002
3.982452e+003;3.997390e-002
3.984380e+003;4.015765e-002
3.986309e+003;4.062390e-002
3.988237e+003;4.102197e-002
3.990166e+003;4.135611e-002
3.992094e+003;4.221844e-002
3.994023e+003;4.280964e-002
3.995951e+003;4.255719e-002
3.997880e+003;4.199012e-002
3.999809e+003;4.137892e-002
4.001737e+003;0.000000e+000
