3.992094e+002;0.000000e+000
4.011380e+002;0.000000e+000
4.030665e+002;0.000000e+000
4.049951e+002;0.000000e+000
4.069236e+002;0.000000e+000
4.088522e+002;0.000000e+000
4.107807e+002;0.000000e+000
4.127093e+002;0.000000e+000
4.146378e+002;0.000000e+000
4.165664e+002;0.000000e+000
4.184949e+002;0.000000e+000
4.204235e+002;0.000000e+000
4.223520e+002;0.000000e+000
4.242806e+002;0.000000e+000
4.262091e+002;0.000000e+000
4.281377e+002;0.000000e+000
4.300662e+002;0.000000e+000
4.319948e+002;0.000000e+000
4.339233e+002;0.000000e+000
4.358519e+002;0.000000e+000
4.377804e+002;0.000000e+000
4.397090e+002;0.000000e+000
4.416375e+002;0.000000e+000
4.435660e+002;0.000000e+000
4.454946e+002;0.000000e+000
4.474232e+002;0.000000e+000
4.493517e+002;0.000000e+000
4.512802e+002;0.000000e+000
4.532088e+002;0.000000e+000
4.551373e+002;0.000000e+000
4.570659e+002;0.000000e+000
4.589944e+002;0.000000e+000
4.609230e+002;0.000000e+000
4.628515e+002;0.000000e+000
4.647801e+002;0.000000e+000
4.667086e+002;0.000000e+000
4.686372e+002;0.000000e+000
4.705657e+002;0.000000e+000
4.724943e+002;0.000000e+000
4.744228e+002;0.000000e+000
4.763513e+002;0.000000e+000
4.782799e+002;0.000000e+000
4.802085e+002;0.000000e+000
4.821370e+002;0.000000e+000
4.840656e+002;0.000000e+000
4.859941e+002;0.000000e+000
4.879226e+002;0.000000e+000
4.898512e+002;0.000000e+000
4.917798e+002;0.000000e+000
4.937083e+002;0.000000e+000
4.956368e+002;0.000000e+000
4.975654e+002;0.000000e+000
4.994939e+002;0.000000e+000
5.014225e+002;0.000000e+000
5.033510e+002;0.000000e+000
5.052796e+002;0.000000e+000
5.072081e+002;0.000000e+000
5.091367e+002;0.000000e+000
5.110652e+002;0.000000e+000
5.129938e+002;0.000000e+000
5.149223e+002;0.000000e+000
5.168509e+002;0.000000e+000
5.187794e+002;0.000000e+000
5.207079e+002;0.000000e+000
5.226365e+002;0.000000e+000
5.245651e+002;0.000000e+000
5.264936e+002;0.000000e+000
5.284222e+002;0.000000e+000
5.303507e+002;0.000000e+000
5.322792e+002;0.000000e+000
5.342078e+002;0.000000e+000
5.361364e+002;0.000000e+000
5.380649e+002;0.000000e+000
5.399935e+002;0.000000e+000
5.419220e+002;0.000000e+000
5.438505e+002;0.000000e+000
5.457791e+002;0.000000e+000
5.477076e+002;0.000000e+000
5.496362e+002;0.000000e+000
5.515648e+002;0.000000e+000
5.534933e+002;0.000000e+000
5.554218e+002;0.000000e+000
5.573504e+002;0.000000e+000
5.592789e+002;0.000000e+000
5.612075e+002;0.000000e+000
5.631360e+002;0.000000e+000
5.650646e+002;0.000000e+000
5.669931e+002;0.000000e+000
5.689217e+002;0.000000e+000
5.708502e+002;0.000000e+000
5.727787e+002;0.000000e+000
5.747073e+002;0.000000e+000
5.766359e+002;0.000000e+000
5.785644e+002;0.000000e+000
5.804930e+002;0.000000e+000
5.824215e+002;0.000000e+000
5.843500e+002;0.000000e+000
5.862786e+002;0.000000e+000
5.882072e+002;0.000000e+000
5.901357e+002;0.000000e+000
5.920643e+002;0.000000e+000
5.939928e+002;0.000000e+000
5.959213e+002;0.000000e+000
5.978499e+002;0.000000e+000
5.997784e+002;1.237820e-001
6.017070e+002;1.232061e-001
6.036355e+002;1.200169e-001
6.055641e+002;1.175898e-001
6.074926e+002;1.229018e-001
6.094211e+002;1.249312e-001
6.113497e+002;1.252482e-001
6.132783e+002;1.255939e-001
6.152068e+002;1.269825e-001
6.171354e+002;1.273119e-001
6.190639e+002;1.245370e-001
6.209924e+002;1.276616e-001
6.229210e+002;1.314178e-001
6.248495e+002;1.312290e-001
6.267781e+002;1.314897e-001
6.287067e+002;1.340781e-001
6.306352e+002;1.330671e-001
6.325637e+002;1.307722e-001
6.344923e+002;1.329031e-001
6.364208e+002;1.373816e-001
6.383494e+002;1.421954e-001
6.402780e+002;1.442944e-001
6.422065e+002;1.439911e-001
6.441350e+002;1.464984e-001
6.460636e+002;1.461370e-001
6.479921e+002;1.470840e-001
6.499207e+002;1.498980e-001
6.518492e+002;1.494544e-001
6.537778e+002;1.508645e-001
6.557063e+002;1.524335e-001
6.576349e+002;1.545878e-001
6.595634e+002;1.589086e-001
6.614919e+002;1.628904e-001
6.634205e+002;1.662755e-001
6.653491e+002;1.678150e-001
6.672776e+002;1.676885e-001
6.692062e+002;1.680505e-001
6.711347e+002;1.695415e-001
6.730632e+002;1.719925e-001
6.749918e+002;1.724875e-001
6.769203e+002;1.708344e-001
6.788489e+002;1.699391e-001
6.807775e+002;1.703452e-001
6.827060e+002;1.706340e-001
6.846345e+002;1.707313e-001
6.865631e+002;1.709060e-001
6.884916e+002;1.711650e-001
6.904202e+002;1.704692e-001
6.923488e+002;1.688254e-001
6.942773e+002;1.656499e-001
6.962058e+002;1.628688e-001
6.981344e+002;1.607003e-001
7.000629e+002;1.587157e-001
7.019915e+002;1.571014e-001
7.039200e+002;1.550706e-001
7.058486e+002;1.535416e-001
7.077771e+002;1.530318e-001
7.097057e+002;1.531010e-001
7.116342e+002;1.526167e-001
7.135627e+002;1.520672e-001
7.154913e+002;1.522488e-001
7.174199e+002;1.516200e-001
7.193484e+002;1.502373e-001
7.212770e+002;1.486933e-001
7.232055e+002;1.487475e-001
7.251340e+002;1.485199e-001
7.270626e+002;1.467261e-001
7.289911e+002;1.432206e-001
7.309197e+002;1.377739e-001
7.328483e+002;1.316037e-001
7.347768e+002;1.257182e-001
7.367053e+002;1.209126e-001
7.386339e+002;1.171543e-001
7.405624e+002;1.130701e-001
7.424910e+002;1.096382e-001
7.444196e+002;1.064535e-001
7.463481e+002;1.032217e-001
7.482766e+002;1.002107e-001
7.502052e+002;9.777642e-002
7.521337e+002;9.573688e-002
7.540623e+002;9.451672e-002
7.559908e+002;9.294882e-002
7.579194e+002;9.107517e-002
7.598479e+002;8.955473e-002
7.617765e+002;8.870443e-002
7.637050e+002;8.792301e-002
7.656335e+002;8.643800e-002
7.675621e+002;8.431765e-002
7.694907e+002;8.200290e-002
7.714192e+002;8.059624e-002
7.733478e+002;8.002546e-002
7.752763e+002;7.860155e-002
7.772048e+002;7.695173e-002
7.791334e+002;7.535352e-002
7.810620e+002;7.396775e-002
7.829905e+002;7.258809e-002
7.849191e+002;7.158514e-002
7.868476e+002;7.059912e-002
7.887761e+002;7.012913e-002
7.907047e+002;6.997152e-002
7.926332e+002;6.906043e-002
7.945618e+002;6.720234e-002
7.964903e+002;6.526513e-002
7.984189e+002;6.375439e-002
8.003474e+002;6.255818e-002
8.022759e+002;6.148331e-002
8.042045e+002;6.078401e-002
8.061331e+002;6.007613e-002
8.080616e+002;5.965569e-002
8.099902e+002;5.907179e-002
8.119187e+002;5.886886e-002
8.138472e+002;5.922014e-002
8.157758e+002;5.978283e-002
8.177043e+002;6.078256e-002
8.196329e+002;6.243961e-002
8.215615e+002;6.433191e-002
8.234900e+002;6.559383e-002
8.254185e+002;6.739454e-002
8.273471e+002;6.968874e-002
8.292756e+002;7.141467e-002
8.312042e+002;7.242756e-002
8.331328e+002;7.143717e-002
8.350613e+002;6.881430e-002
8.369898e+002;6.522000e-002
8.389184e+002;6.131214e-002
8.408469e+002;5.823012e-002
8.427755e+002;5.614224e-002
8.447040e+002;5.479433e-002
8.466326e+002;5.313030e-002
8.485611e+002;5.152344e-002
8.504897e+002;5.090625e-002
8.524182e+002;5.040167e-002
8.543467e+002;4.906471e-002
8.562753e+002;4.816926e-002
8.582039e+002;4.838326e-002
8.601324e+002;4.843734e-002
8.620610e+002;4.862271e-002
8.639895e+002;4.898441e-002
8.659180e+002;4.957406e-002
8.678466e+002;4.972283e-002
8.697751e+002;4.940763e-002
8.717037e+002;4.933260e-002
8.736323e+002;4.988764e-002
8.755608e+002;5.072803e-002
8.774893e+002;5.147909e-002
8.794179e+002;5.207916e-002
8.813464e+002;5.259071e-002
8.832750e+002;5.346936e-002
8.852036e+002;5.422045e-002
8.871321e+002;5.394117e-002
8.890606e+002;5.353195e-002
8.909892e+002;5.360647e-002
8.929177e+002;5.366034e-002
8.948463e+002;5.373578e-002
8.967748e+002;5.340723e-002
8.987034e+002;5.320105e-002
9.006319e+002;5.357130e-002
9.025605e+002;5.443932e-002
9.044890e+002;5.488046e-002
9.064175e+002;5.541252e-002
9.083461e+002;5.620552e-002
9.102747e+002;5.653415e-002
9.122032e+002;5.673626e-002
9.141318e+002;5.727291e-002
9.160603e+002;5.751992e-002
9.179888e+002;5.770607e-002
9.199174e+002;5.807246e-002
9.218459e+002;5.906986e-002
9.237745e+002;6.028130e-002
9.257031e+002;6.116045e-002
9.276316e+002;6.189540e-002
9.295601e+002;6.261777e-002
9.314887e+002;6.259248e-002
9.334172e+002;6.201940e-002
9.353458e+002;6.134458e-002
9.372744e+002;6.037648e-002
9.392029e+002;5.976868e-002
9.411314e+002;5.982888e-002
9.430600e+002;6.020476e-002
9.449885e+002;6.173690e-002
9.469171e+002;6.376829e-002
9.488456e+002;6.552332e-002
9.507742e+002;6.713686e-002
9.527027e+002;6.833095e-002
9.546313e+002;6.882777e-002
9.565598e+002;6.940411e-002
9.584883e+002;7.043184e-002
9.604169e+002;7.063456e-002
9.623455e+002;7.006188e-002
9.642740e+002;6.917228e-002
9.662026e+002;6.790966e-002
9.681311e+002;6.702059e-002
9.700596e+002;6.656723e-002
9.719882e+002;6.598978e-002
9.739167e+002;6.532770e-002
9.758453e+002;6.440769e-002
9.777739e+002;6.384420e-002
9.797024e+002;6.386922e-002
9.816309e+002;6.383038e-002
9.835595e+002;6.374902e-002
9.854880e+002;6.402747e-002
9.874166e+002;6.477429e-002
9.893452e+002;6.560466e-002
9.912737e+002;6.543101e-002
9.932022e+002;6.388765e-002
9.951307e+002;6.176440e-002
9.970593e+002;5.975952e-002
9.989879e+002;5.808806e-002
1.000916e+003;5.685850e-002
1.002845e+003;5.635662e-002
1.004773e+003;5.625443e-002
1.006702e+003;5.622449e-002
1.008631e+003;5.647105e-002
1.010559e+003;5.681696e-002
1.012488e+003;5.719145e-002
1.014416e+003;5.769861e-002
1.016345e+003;5.800698e-002
1.018273e+003;5.829628e-002
1.020202e+003;5.872469e-002
1.022130e+003;5.936648e-002
1.024059e+003;6.046570e-002
1.025988e+003;6.191527e-002
1.027916e+003;6.355444e-002
1.029845e+003;6.583263e-002
1.031773e+003;6.903087e-002
1.033702e+003;7.247164e-002
1.035630e+003;7.469285e-002
1.037559e+003;7.677858e-002
1.039487e+003;8.057219e-002
1.041416e+003;8.553039e-002
1.043344e+003;8.979639e-002
1.045273e+003;9.160523e-002
1.047202e+003;9.011913e-002
1.049130e+003;8.631328e-002
1.051059e+003;8.111093e-002
1.052987e+003;7.577326e-002
1.054916e+003;7.191475e-002
1.056844e+003;6.999519e-002
1.058773e+003;6.886388e-002
1.060701e+003;6.859703e-002
1.062630e+003;6.961845e-002
1.064558e+003;7.105163e-002
1.066487e+003;7.186084e-002
1.068416e+003;7.224634e-002
1.070344e+003;7.291678e-002
1.072273e+003;7.369704e-002
1.074201e+003;7.407813e-002
1.076130e+003;7.364883e-002
1.078058e+003;7.305072e-002
1.079987e+003;7.262616e-002
1.081915e+003;7.259063e-002
1.083844e+003;7.245860e-002
1.085773e+003;7.179497e-002
1.087701e+003;7.174087e-002
1.089630e+003;7.246827e-002
1.091558e+003;7.318203e-002
1.093487e+003;7.387112e-002
1.095415e+003;7.437783e-002
1.097344e+003;7.534977e-002
1.099272e+003;7.735100e-002
1.101201e+003;7.952248e-002
1.103129e+003;8.106345e-002
1.105058e+003;8.244438e-002
1.106987e+003;8.310296e-002
1.108915e+003;8.339531e-002
1.110844e+003;8.363389e-002
1.112772e+003;8.393291e-002
1.114701e+003;8.457442e-002
1.116629e+003;8.450808e-002
1.118558e+003;8.364828e-002
1.120486e+003;8.284887e-002
1.122415e+003;8.137664e-002
1.124344e+003;7.917921e-002
1.126272e+003;7.666717e-002
1.128201e+003;7.397326e-002
1.130129e+003;7.181823e-002
1.132058e+003;7.035317e-002
1.133986e+003;6.985204e-002
1.135915e+003;7.049100e-002
1.137843e+003;7.218859e-002
1.139772e+003;7.442010e-002
1.141700e+003;7.679891e-002
1.143629e+003;7.890482e-002
1.145557e+003;8.084203e-002
1.147486e+003;8.303785e-002
1.149415e+003;8.622146e-002
1.151343e+003;8.954259e-002
1.153272e+003;9.218587e-002
1.155200e+003;9.510457e-002
1.157129e+003;9.849688e-002
1.159057e+003;1.024437e-001
1.160986e+003;1.076193e-001
1.162914e+003;1.136423e-001
1.164843e+003;1.196020e-001
1.166771e+003;1.241234e-001
1.168700e+003;1.258488e-001
1.170629e+003;1.251145e-001
1.172557e+003;1.229106e-001
1.174486e+003;1.195281e-001
1.176414e+003;1.158266e-001
1.178343e+003;1.131427e-001
1.180271e+003;1.118824e-001
1.182200e+003;1.121552e-001
1.184128e+003;1.138841e-001
1.186057e+003;1.168640e-001
1.187986e+003;1.205112e-001
1.189914e+003;1.241971e-001
1.191843e+003;1.279536e-001
1.193771e+003;1.318711e-001
1.195700e+003;1.352116e-001
1.197628e+003;1.377254e-001
1.199557e+003;1.384160e-001
1.201485e+003;1.364682e-001
1.203414e+003;1.330158e-001
1.205343e+003;1.295515e-001
1.207271e+003;1.267327e-001
1.209200e+003;1.247778e-001
1.211128e+003;1.237498e-001
1.213057e+003;1.221210e-001
1.214985e+003;1.196758e-001
1.216914e+003;1.169700e-001
1.218842e+003;1.146304e-001
1.220771e+003;1.135663e-001
1.222699e+003;1.139405e-001
1.224628e+003;1.161353e-001
1.226557e+003;1.191255e-001
1.228485e+003;1.224353e-001
1.230414e+003;1.258411e-001
1.232342e+003;1.290787e-001
1.234271e+003;1.321279e-001
1.236199e+003;1.337581e-001
1.238128e+003;1.339012e-001
1.240056e+003;1.329720e-001
1.241985e+003;1.318686e-001
1.243913e+003;1.315778e-001
1.245842e+003;1.319245e-001
1.247771e+003;1.325576e-001
1.249699e+003;1.338082e-001
1.251628e+003;1.360501e-001
1.253556e+003;1.388529e-001
1.255485e+003;1.416254e-001
1.257413e+003;1.435992e-001
1.259342e+003;1.445915e-001
1.261270e+003;1.442740e-001
1.263199e+003;1.424747e-001
1.265127e+003;1.393018e-001
1.267056e+003;1.346897e-001
1.268985e+003;1.294381e-001
1.270913e+003;1.250082e-001
1.272842e+003;1.227871e-001
1.274770e+003;1.223911e-001
1.276699e+003;1.229667e-001
1.278627e+003;1.235494e-001
1.280556e+003;1.237286e-001
1.282484e+003;1.235470e-001
1.284413e+003;1.231860e-001
1.286342e+003;1.225645e-001
1.288270e+003;1.219744e-001
1.290199e+003;1.216476e-001
1.292127e+003;1.218356e-001
1.294056e+003;1.222337e-001
1.295984e+003;1.226082e-001
1.297913e+003;1.227202e-001
1.299841e+003;1.220182e-001
1.301770e+003;1.206054e-001
1.303698e+003;1.191791e-001
1.305627e+003;1.175595e-001
1.307556e+003;1.159969e-001
1.309484e+003;1.149059e-001
1.311413e+003;1.144845e-001
1.313341e+003;1.149632e-001
1.315270e+003;1.157717e-001
1.317198e+003;1.169410e-001
1.319127e+003;1.186012e-001
1.321055e+003;1.202506e-001
1.322984e+003;1.214189e-001
1.324912e+003;1.222053e-001
1.326841e+003;1.228531e-001
1.328770e+003;1.232385e-001
1.330698e+003;1.231011e-001
1.332627e+003;1.220472e-001
1.334555e+003;1.203324e-001
1.336484e+003;1.183940e-001
1.338412e+003;1.165556e-001
1.340341e+003;1.149329e-001
1.342269e+003;1.135887e-001
1.344198e+003;1.128101e-001
1.346126e+003;1.124670e-001
1.348055e+003;1.122526e-001
1.349984e+003;1.125169e-001
1.351912e+003;1.131849e-001
1.353841e+003;1.139649e-001
1.355769e+003;1.148254e-001
1.357698e+003;1.159572e-001
1.359626e+003;1.174456e-001
1.361555e+003;1.191543e-001
1.363483e+003;1.208795e-001
1.365412e+003;1.226627e-001
1.367341e+003;1.245756e-001
1.369269e+003;1.264180e-001
1.371198e+003;1.272850e-001
1.373126e+003;1.273252e-001
1.375055e+003;1.265378e-001
1.376983e+003;1.247482e-001
1.378912e+003;1.225377e-001
1.380840e+003;1.199018e-001
1.382769e+003;1.166190e-001
1.384698e+003;1.133080e-001
1.386626e+003;1.101726e-001
1.388555e+003;1.072438e-001
1.390483e+003;1.045070e-001
1.392412e+003;1.025354e-001
1.394340e+003;1.019504e-001
1.396269e+003;1.023533e-001
1.398197e+003;1.036299e-001
1.400126e+003;1.061564e-001
1.402054e+003;1.093959e-001
1.403983e+003;1.132475e-001
1.405911e+003;1.181262e-001
1.407840e+003;1.243975e-001
1.409769e+003;1.313898e-001
1.411697e+003;1.384738e-001
1.413626e+003;1.450018e-001
1.415554e+003;1.494352e-001
1.417483e+003;1.505127e-001
1.419411e+003;1.487058e-001
1.421340e+003;1.456557e-001
1.423268e+003;1.422043e-001
1.425197e+003;1.395585e-001
1.427125e+003;1.384275e-001
1.429054e+003;1.390423e-001
1.430983e+003;1.412522e-001
1.432911e+003;1.437371e-001
1.434840e+003;1.453201e-001
1.436768e+003;1.455010e-001
1.438697e+003;1.448611e-001
1.440625e+003;1.436664e-001
1.442554e+003;1.423014e-001
1.444482e+003;1.413830e-001
1.446411e+003;1.412359e-001
1.448340e+003;1.421575e-001
1.450268e+003;1.445272e-001
1.452197e+003;1.478648e-001
1.454125e+003;1.520934e-001
1.456054e+003;1.570901e-001
1.457982e+003;1.627964e-001
1.459911e+003;1.678338e-001
1.461839e+003;1.699814e-001
1.463768e+003;1.684433e-001
1.465697e+003;1.634349e-001
1.467625e+003;1.564977e-001
1.469554e+003;1.498312e-001
1.471482e+003;1.454050e-001
1.473411e+003;1.437450e-001
1.475339e+003;1.430838e-001
1.477268e+003;1.414976e-001
1.479196e+003;1.384010e-001
1.481125e+003;1.339703e-001
1.483053e+003;1.286086e-001
1.484982e+003;1.233594e-001
1.486911e+003;1.192663e-001
1.488839e+003;1.170166e-001
1.490768e+003;1.173670e-001
1.492696e+003;1.195868e-001
1.494625e+003;1.232109e-001
1.496553e+003;1.284290e-001
1.498482e+003;1.343656e-001
1.500410e+003;1.402406e-001
1.502339e+003;1.459963e-001
1.504267e+003;1.516410e-001
1.506196e+003;1.575247e-001
1.508125e+003;1.643458e-001
1.510053e+003;1.714622e-001
1.511982e+003;1.788366e-001
1.513910e+003;1.862829e-001
1.515839e+003;1.933222e-001
1.517767e+003;2.004700e-001
1.519696e+003;2.075190e-001
1.521624e+003;2.146191e-001
1.523553e+003;2.221077e-001
1.525481e+003;2.298703e-001
1.527410e+003;2.380983e-001
1.529339e+003;2.457796e-001
1.531267e+003;2.526429e-001
1.533196e+003;2.589982e-001
1.535124e+003;2.645432e-001
1.537053e+003;2.684481e-001
1.538981e+003;2.700002e-001
1.540910e+003;2.697393e-001
1.542838e+003;2.672652e-001
1.544767e+003;2.618628e-001
1.546695e+003;2.545480e-001
1.548624e+003;2.459485e-001
1.550553e+003;2.358897e-001
1.552481e+003;2.254701e-001
1.554410e+003;2.149851e-001
1.556338e+003;2.046210e-001
1.558267e+003;1.941303e-001
1.560195e+003;1.841327e-001
1.562124e+003;1.750054e-001
1.564052e+003;1.664311e-001
1.565981e+003;1.583281e-001
1.567910e+003;1.505124e-001
1.569838e+003;1.432924e-001
1.571767e+003;1.371655e-001
1.573695e+003;1.316890e-001
1.575624e+003;1.269284e-001
1.577552e+003;1.234672e-001
1.579481e+003;1.210539e-001
1.581409e+003;1.192768e-001
1.583338e+003;1.182119e-001
1.585266e+003;1.178557e-001
1.587195e+003;1.183178e-001
1.589124e+003;1.193332e-001
1.591052e+003;1.206319e-001
1.592981e+003;1.224183e-001
1.594909e+003;1.247984e-001
1.596838e+003;1.276329e-001
1.598766e+003;1.314656e-001
1.600695e+003;1.365756e-001
1.602623e+003;1.429471e-001
1.604552e+003;1.506488e-001
1.606480e+003;1.594654e-001
1.608409e+003;1.691434e-001
1.610338e+003;1.794101e-001
1.612266e+003;1.904139e-001
1.614195e+003;2.019356e-001
1.616123e+003;2.147046e-001
1.618052e+003;2.295573e-001
1.619980e+003;2.451611e-001
1.621909e+003;2.608681e-001
1.623837e+003;2.769225e-001
1.625766e+003;2.927747e-001
1.627694e+003;3.078190e-001
1.629623e+003;3.221101e-001
1.631552e+003;3.346823e-001
1.633480e+003;3.432949e-001
1.635409e+003;3.460807e-001
1.637337e+003;3.419527e-001
1.639266e+003;3.307479e-001
1.641194e+003;3.141667e-001
1.643123e+003;2.948923e-001
1.645051e+003;2.751125e-001
1.646980e+003;2.564860e-001
1.648909e+003;2.399833e-001
1.650837e+003;2.252306e-001
1.652766e+003;2.117466e-001
1.654694e+003;2.004913e-001
1.656623e+003;1.908817e-001
1.658551e+003;1.816308e-001
1.660480e+003;1.726477e-001
1.662408e+003;1.634527e-001
1.664337e+003;1.546083e-001
1.666266e+003;1.458436e-001
1.668194e+003;1.372470e-001
1.670123e+003;1.288553e-001
1.672051e+003;1.208156e-001
1.673980e+003;1.129728e-001
1.675908e+003;1.051079e-001
1.677837e+003;9.708379e-002
1.679765e+003;8.900773e-002
1.681694e+003;8.112088e-002
1.683622e+003;7.349116e-002
1.685551e+003;6.681058e-002
1.687479e+003;6.142346e-002
1.689408e+003;5.667030e-002
1.691337e+003;5.258895e-002
1.693265e+003;4.934062e-002
1.695194e+003;4.679981e-002
1.697122e+003;4.524039e-002
1.699051e+003;4.393211e-002
1.700979e+003;4.280584e-002
1.702908e+003;4.238045e-002
1.704836e+003;4.179278e-002
1.706765e+003;4.126745e-002
1.708693e+003;4.094765e-002
1.710622e+003;4.060207e-002
1.712551e+003;4.019127e-002
1.714479e+003;3.987321e-002
1.716408e+003;3.959182e-002
1.718336e+003;3.946283e-002
1.720265e+003;3.945924e-002
1.722193e+003;3.935015e-002
1.724122e+003;3.926596e-002
1.726050e+003;3.937659e-002
1.727979e+003;3.908914e-002
1.729908e+003;3.845790e-002
1.731836e+003;3.791850e-002
1.733765e+003;3.729264e-002
1.735693e+003;3.702002e-002
1.737622e+003;3.663293e-002
1.739550e+003;3.578499e-002
1.741479e+003;3.513076e-002
1.743407e+003;3.474821e-002
1.745336e+003;3.416959e-002
1.747265e+003;3.328405e-002
1.749193e+003;3.234969e-002
1.751122e+003;3.164768e-002
1.753050e+003;3.136591e-002
1.754979e+003;3.078896e-002
1.756907e+003;2.997674e-002
1.758836e+003;2.924718e-002
1.760764e+003;2.859253e-002
1.762693e+003;2.818532e-002
1.764621e+003;2.769486e-002
1.766550e+003;2.715349e-002
1.768479e+003;2.667614e-002
1.770407e+003;2.627340e-002
1.772336e+003;2.580408e-002
1.774264e+003;2.539294e-002
1.776193e+003;2.515044e-002
1.778121e+003;2.476743e-002
1.780050e+003;2.422517e-002
1.781978e+003;2.396161e-002
1.783907e+003;2.391697e-002
1.785835e+003;2.372026e-002
1.787764e+003;2.350881e-002
1.789693e+003;2.307493e-002
1.791621e+003;2.266591e-002
1.793550e+003;2.245333e-002
1.795478e+003;2.222101e-002
1.797407e+003;2.194257e-002
1.799335e+003;2.176016e-002
1.801264e+003;2.142774e-002
1.803192e+003;2.111046e-002
1.805121e+003;2.111658e-002
1.807049e+003;2.096759e-002
1.808978e+003;2.082914e-002
1.810907e+003;2.079188e-002
1.812835e+003;2.073175e-002
1.814764e+003;2.075166e-002
1.816692e+003;2.051275e-002
1.818621e+003;2.016726e-002
1.820549e+003;2.007838e-002
1.822478e+003;2.012710e-002
1.824406e+003;1.988222e-002
1.826335e+003;1.977966e-002
1.828264e+003;1.990355e-002
1.830192e+003;1.967765e-002
1.832121e+003;1.933061e-002
1.834049e+003;1.923383e-002
1.835978e+003;1.935261e-002
1.837906e+003;1.946795e-002
1.839835e+003;1.923161e-002
1.841763e+003;1.897072e-002
1.843692e+003;1.881855e-002
1.845620e+003;1.870770e-002
1.847549e+003;1.879841e-002
1.849478e+003;1.884582e-002
1.851406e+003;1.865464e-002
1.853335e+003;1.837180e-002
1.855263e+003;1.815634e-002
1.857192e+003;1.821169e-002
1.859120e+003;1.821642e-002
1.861049e+003;1.800753e-002
1.862977e+003;1.803651e-002
1.864906e+003;1.819763e-002
1.866834e+003;1.808994e-002
1.868763e+003;1.794723e-002
1.870692e+003;1.792796e-002
1.872620e+003;1.783747e-002
1.874549e+003;1.766589e-002
1.876477e+003;1.752052e-002
1.878406e+003;1.744387e-002
1.880334e+003;1.751083e-002
1.882263e+003;1.750910e-002
1.884191e+003;1.752066e-002
1.886120e+003;1.757465e-002
1.888048e+003;1.754919e-002
1.889977e+003;1.756444e-002
1.891906e+003;1.750600e-002
1.893834e+003;1.738731e-002
1.895763e+003;1.732706e-002
1.897691e+003;1.734355e-002
1.899620e+003;1.744877e-002
1.901548e+003;1.763014e-002
1.903477e+003;1.760408e-002
1.905405e+003;1.762323e-002
1.907334e+003;1.777968e-002
1.909262e+003;1.760591e-002
1.911191e+003;1.721546e-002
1.913120e+003;1.693469e-002
1.915048e+003;1.692566e-002
1.916977e+003;1.697486e-002
1.918905e+003;1.708923e-002
1.920834e+003;1.721274e-002
1.922762e+003;1.730938e-002
1.924691e+003;1.729679e-002
1.926619e+003;1.718826e-002
1.928548e+003;1.699661e-002
1.930477e+003;1.721105e-002
1.932405e+003;1.735520e-002
1.934334e+003;1.712380e-002
1.936262e+003;1.690858e-002
1.938191e+003;1.686056e-002
1.940119e+003;1.687744e-002
1.942048e+003;1.687089e-002
1.943976e+003;1.699213e-002
1.945905e+003;1.712608e-002
1.947833e+003;1.703168e-002
1.949762e+003;1.716513e-002
1.951691e+003;1.727510e-002
1.953619e+003;1.712666e-002
1.955548e+003;1.713797e-002
1.957476e+003;1.740742e-002
1.959405e+003;1.728317e-002
1.961333e+003;1.707279e-002
1.963262e+003;1.704626e-002
1.965190e+003;1.714135e-002
1.967119e+003;1.719701e-002
1.969047e+003;1.712394e-002
1.970976e+003;1.719650e-002
1.972905e+003;1.723001e-002
1.974833e+003;1.723166e-002
1.976762e+003;1.742439e-002
1.978690e+003;1.758176e-002
1.980619e+003;1.745408e-002
1.982547e+003;1.727638e-002
1.984476e+003;1.718760e-002
1.986404e+003;1.714114e-002
1.988333e+003;1.726696e-002
1.990261e+003;1.743394e-002
1.992190e+003;1.750662e-002
1.994119e+003;1.744187e-002
1.996047e+003;1.749472e-002
1.997976e+003;1.757017e-002
1.999904e+003;1.762368e-002
2.001833e+003;1.768190e-002
2.003761e+003;1.779325e-002
2.005690e+003;1.771917e-002
2.007618e+003;1.759615e-002
2.009547e+003;1.771589e-002
2.011476e+003;1.783906e-002
2.013404e+003;1.797734e-002
2.015333e+003;1.815945e-002
2.017261e+003;1.829701e-002
2.019190e+003;1.831063e-002
2.021118e+003;1.820215e-002
2.023047e+003;1.828688e-002
2.024975e+003;1.826694e-002
2.026904e+003;1.821601e-002
2.028833e+003;1.842082e-002
2.030761e+003;1.866889e-002
2.032690e+003;1.881962e-002
2.034618e+003;1.891534e-002
2.036547e+003;1.888925e-002
2.038475e+003;1.877305e-002
2.040404e+003;1.862472e-002
2.042332e+003;1.859768e-002
2.044261e+003;1.871943e-002
2.046189e+003;1.884786e-002
2.048118e+003;1.882239e-002
2.050047e+003;1.882758e-002
2.051975e+003;1.889316e-002
2.053904e+003;1.897789e-002
2.055832e+003;1.904158e-002
2.057761e+003;1.896909e-002
2.059689e+003;1.893756e-002
2.061618e+003;1.918451e-002
2.063546e+003;1.943160e-002
2.065475e+003;1.926057e-002
2.067404e+003;1.903313e-002
2.069332e+003;1.892046e-002
2.071260e+003;1.899011e-002
2.073189e+003;1.918375e-002
2.075118e+003;1.929683e-002
2.077046e+003;1.914919e-002
2.078975e+003;1.895217e-002
2.080903e+003;1.907264e-002
2.082832e+003;1.919577e-002
2.084760e+003;1.920197e-002
2.086689e+003;1.902659e-002
2.088617e+003;1.884900e-002
2.090546e+003;1.865087e-002
2.092475e+003;1.852036e-002
2.094403e+003;1.849166e-002
2.096332e+003;1.853273e-002
2.098260e+003;1.853764e-002
2.100189e+003;1.844651e-002
2.102117e+003;1.840243e-002
2.104046e+003;1.866239e-002
2.105974e+003;1.894933e-002
2.107903e+003;1.899575e-002
2.109832e+003;1.898387e-002
2.111760e+003;1.908617e-002
2.113688e+003;1.929971e-002
2.115617e+003;1.911747e-002
2.117546e+003;1.889603e-002
2.119474e+003;1.912692e-002
2.121403e+003;1.939442e-002
2.123331e+003;1.941535e-002
2.125260e+003;1.936788e-002
2.127188e+003;1.946338e-002
2.129117e+003;1.966916e-002
2.131045e+003;1.965425e-002
2.132974e+003;1.947388e-002
2.134903e+003;1.946157e-002
2.136831e+003;1.970341e-002
2.138760e+003;1.982516e-002
2.140688e+003;1.954170e-002
2.142617e+003;1.930466e-002
2.144545e+003;1.949515e-002
2.146474e+003;1.958367e-002
2.148402e+003;1.946861e-002
2.150331e+003;1.945308e-002
2.152260e+003;1.954430e-002
2.154188e+003;1.973604e-002
2.156117e+003;1.969104e-002
2.158045e+003;1.957556e-002
2.159974e+003;1.991399e-002
2.161902e+003;2.026904e-002
2.163831e+003;2.026487e-002
2.165759e+003;2.035778e-002
2.167688e+003;2.043477e-002
2.169616e+003;2.042877e-002
2.171545e+003;2.043439e-002
2.173474e+003;2.047041e-002
2.175402e+003;2.060773e-002
2.177331e+003;2.062628e-002
2.179259e+003;2.054335e-002
2.181188e+003;2.055517e-002
2.183116e+003;2.060148e-002
2.185045e+003;2.061690e-002
2.186973e+003;2.072258e-002
2.188902e+003;2.075733e-002
2.190831e+003;2.075896e-002
2.192759e+003;2.063226e-002
2.194688e+003;2.064077e-002
2.196616e+003;2.083220e-002
2.198545e+003;2.082504e-002
2.200473e+003;2.054391e-002
2.202402e+003;2.049198e-002
2.204330e+003;2.055742e-002
2.206259e+003;2.048527e-002
2.208188e+003;2.040334e-002
2.210116e+003;2.046364e-002
2.212044e+003;2.057031e-002
2.213973e+003;2.052654e-002
2.215902e+003;2.052772e-002
2.217830e+003;2.036504e-002
2.219759e+003;2.027244e-002
2.221687e+003;2.027713e-002
2.223616e+003;2.003216e-002
2.225544e+003;1.992287e-002
2.227473e+003;2.004597e-002
2.229401e+003;2.010503e-002
2.231330e+003;1.997533e-002
2.233259e+003;1.995298e-002
2.235187e+003;1.999427e-002
2.237116e+003;2.019801e-002
2.239044e+003;2.045071e-002
2.240973e+003;2.023030e-002
2.242901e+003;1.993997e-002
2.244830e+003;1.997297e-002
2.246758e+003;2.008921e-002
2.248687e+003;2.022092e-002
2.250615e+003;2.039997e-002
2.252544e+003;2.060808e-002
2.254473e+003;2.059998e-002
2.256401e+003;2.052949e-002
2.258330e+003;2.059866e-002
2.260258e+003;2.076254e-002
2.262187e+003;2.069887e-002
2.264115e+003;2.066989e-002
2.266044e+003;2.074690e-002
2.267972e+003;2.062670e-002
2.269901e+003;2.073321e-002
2.271830e+003;2.085403e-002
2.273758e+003;2.089464e-002
2.275687e+003;2.089690e-002
2.277615e+003;2.100928e-002
2.279544e+003;2.117934e-002
2.281472e+003;2.110232e-002
2.283401e+003;2.105661e-002
2.285329e+003;2.120529e-002
2.287258e+003;2.143355e-002
2.289187e+003;2.155582e-002
2.291115e+003;2.150983e-002
2.293043e+003;2.140264e-002
2.294972e+003;2.143014e-002
2.296901e+003;2.162115e-002
2.298829e+003;2.166280e-002
2.300758e+003;2.152173e-002
2.302686e+003;2.146937e-002
2.304615e+003;2.157295e-002
2.306543e+003;2.159280e-002
2.308472e+003;2.143978e-002
2.310400e+003;2.135690e-002
2.312329e+003;2.130032e-002
2.314258e+003;2.142544e-002
2.316186e+003;2.162589e-002
2.318115e+003;2.178270e-002
2.320043e+003;2.184472e-002
2.321972e+003;2.161554e-002
2.323900e+003;2.117568e-002
2.325829e+003;2.103964e-002
2.327757e+003;2.079250e-002
2.329686e+003;2.055850e-002
2.331615e+003;2.052988e-002
2.333543e+003;2.052814e-002
2.335472e+003;2.045179e-002
2.337400e+003;2.040956e-002
2.339329e+003;2.043856e-002
2.341257e+003;2.064418e-002
2.343186e+003;2.078781e-002
2.345114e+003;2.101686e-002
2.347043e+003;2.140006e-002
2.348971e+003;2.165559e-002
2.350900e+003;2.142976e-002
2.352829e+003;2.084545e-002
2.354757e+003;2.043154e-002
2.356686e+003;2.019701e-002
2.358614e+003;2.010614e-002
2.360543e+003;2.008220e-002
2.362471e+003;1.988808e-002
2.364400e+003;1.995586e-002
2.366328e+003;2.036876e-002
2.368257e+003;2.076706e-002
2.370186e+003;2.110545e-002
2.372114e+003;2.147727e-002
2.374042e+003;2.177326e-002
2.375971e+003;2.202507e-002
2.377900e+003;2.240431e-002
2.379828e+003;2.257565e-002
2.381757e+003;2.275878e-002
2.383685e+003;2.290933e-002
2.385614e+003;2.287238e-002
2.387542e+003;2.275326e-002
2.389471e+003;2.269611e-002
2.391399e+003;2.281507e-002
2.393328e+003;2.302853e-002
2.395257e+003;2.310924e-002
2.397185e+003;2.315069e-002
2.399114e+003;2.317847e-002
2.401042e+003;2.321318e-002
2.402971e+003;2.331047e-002
2.404899e+003;2.308006e-002
2.406828e+003;2.309935e-002
2.408756e+003;2.352441e-002
2.410685e+003;2.368600e-002
2.412614e+003;2.365710e-002
2.414542e+003;2.352567e-002
2.416471e+003;2.357964e-002
2.418399e+003;2.378011e-002
2.420328e+003;2.412926e-002
2.422256e+003;2.423904e-002
2.424185e+003;2.405105e-002
2.426113e+003;2.390251e-002
2.428042e+003;2.397674e-002
2.429970e+003;2.444146e-002
2.431899e+003;2.487931e-002
2.433828e+003;2.505808e-002
2.435756e+003;2.504186e-002
2.437685e+003;2.491050e-002
2.439613e+003;2.477613e-002
2.441542e+003;2.483145e-002
2.443470e+003;2.511158e-002
2.445399e+003;2.518025e-002
2.447327e+003;2.516024e-002
2.449256e+003;2.515234e-002
2.451185e+003;2.525564e-002
2.453113e+003;2.542266e-002
2.455042e+003;2.546166e-002
2.456970e+003;2.541662e-002
2.458899e+003;2.562415e-002
2.460827e+003;2.587089e-002
2.462756e+003;2.584641e-002
2.464684e+003;2.578442e-002
2.466613e+003;2.580024e-002
2.468542e+003;2.615162e-002
2.470470e+003;2.625763e-002
2.472398e+003;2.624035e-002
2.474327e+003;2.646641e-002
2.476256e+003;2.675292e-002
2.478184e+003;2.666919e-002
2.480113e+003;2.621152e-002
2.482041e+003;2.587458e-002
2.483970e+003;2.586013e-002
2.485898e+003;2.603945e-002
2.487827e+003;2.629786e-002
2.489755e+003;2.623239e-002
2.491684e+003;2.624038e-002
2.493613e+003;2.661403e-002
2.495541e+003;2.665461e-002
2.497470e+003;2.650557e-002
2.499398e+003;2.657545e-002
2.501327e+003;2.661938e-002
2.503255e+003;2.664379e-002
2.505184e+003;2.684892e-002
2.507112e+003;2.705692e-002
2.509041e+003;2.705756e-002
2.510969e+003;2.715028e-002
2.512898e+003;2.743833e-002
2.514827e+003;2.768282e-002
2.516755e+003;2.795610e-002
2.518684e+003;2.799932e-002
2.520612e+003;2.787978e-002
2.522541e+003;2.810691e-002
2.524469e+003;2.837186e-002
2.526398e+003;2.842697e-002
2.528326e+003;2.839708e-002
2.530255e+003;2.869085e-002
2.532184e+003;2.897362e-002
2.534112e+003;2.927160e-002
2.536041e+003;2.952688e-002
2.537969e+003;2.955217e-002
2.539898e+003;2.954156e-002
2.541826e+003;2.963878e-002
2.543755e+003;2.979763e-002
2.545683e+003;3.003227e-002
2.547612e+003;3.007402e-002
2.549541e+003;2.982411e-002
2.551469e+003;2.980690e-002
2.553397e+003;2.986677e-002
2.555326e+003;2.992832e-002
2.557255e+003;3.023356e-002
2.559183e+003;3.042358e-002
2.561112e+003;3.021136e-002
2.563040e+003;3.008684e-002
2.564969e+003;3.016547e-002
2.566897e+003;3.043264e-002
2.568826e+003;3.065304e-002
2.570754e+003;3.071033e-002
2.572683e+003;3.096865e-002
2.574612e+003;3.122596e-002
2.576540e+003;3.144851e-002
2.578469e+003;3.126976e-002
2.580397e+003;3.096705e-002
2.582326e+003;3.104606e-002
2.584254e+003;3.138657e-002
2.586183e+003;3.167719e-002
2.588111e+003;3.183779e-002
2.590040e+003;3.210817e-002
2.591969e+003;3.209076e-002
2.593897e+003;3.185315e-002
2.595826e+003;3.186296e-002
2.597754e+003;3.206867e-002
2.599683e+003;3.212301e-002
2.601611e+003;3.221353e-002
2.603540e+003;3.245480e-002
2.605468e+003;3.275518e-002
2.607397e+003;3.313665e-002
2.609325e+003;3.301251e-002
2.611254e+003;3.268183e-002
2.613183e+003;3.277040e-002
2.615111e+003;3.295881e-002
2.617040e+003;3.301269e-002
2.618968e+003;3.312339e-002
2.620897e+003;3.321952e-002
2.622825e+003;3.326935e-002
2.624754e+003;3.335839e-002
2.626682e+003;3.361966e-002
2.628611e+003;3.367934e-002
2.630540e+003;3.354216e-002
2.632468e+003;3.378899e-002
2.634396e+003;3.389789e-002
2.636325e+003;3.383430e-002
2.638254e+003;3.393962e-002
2.640182e+003;3.416830e-002
2.642111e+003;3.428528e-002
2.644039e+003;3.415202e-002
2.645968e+003;3.427327e-002
2.647896e+003;3.436689e-002
2.649825e+003;3.443924e-002
2.651753e+003;3.476257e-002
2.653682e+003;3.480647e-002
2.655611e+003;3.479003e-002
2.657539e+003;3.485002e-002
2.659468e+003;3.504095e-002
2.661396e+003;3.535819e-002
2.663325e+003;3.548887e-002
2.665253e+003;3.551983e-002
2.667182e+003;3.555931e-002
2.669110e+003;3.574862e-002
2.671039e+003;3.584544e-002
2.672968e+003;3.606205e-002
2.674896e+003;3.636015e-002
2.676825e+003;3.650724e-002
2.678753e+003;3.660693e-002
2.680682e+003;3.667359e-002
2.682610e+003;3.673730e-002
2.684539e+003;3.699174e-002
2.686467e+003;3.720701e-002
2.688396e+003;3.761272e-002
2.690324e+003;3.805314e-002
2.692253e+003;3.838268e-002
2.694182e+003;3.876084e-002
2.696110e+003;3.897354e-002
2.698039e+003;3.926019e-002
2.699967e+003;3.945739e-002
2.701896e+003;3.953407e-002
2.703824e+003;3.976331e-002
2.705753e+003;4.020770e-002
2.707681e+003;4.054874e-002
2.709610e+003;4.080647e-002
2.711539e+003;4.108432e-002
2.713467e+003;4.119367e-002
2.715396e+003;4.131580e-002
2.717324e+003;4.173146e-002
2.719253e+003;4.219419e-002
2.721181e+003;4.249214e-002
2.723110e+003;4.284029e-002
2.725038e+003;4.347552e-002
2.726967e+003;4.396056e-002
2.728896e+003;4.414950e-002
2.730824e+003;4.416549e-002
2.732752e+003;4.431781e-002
2.734681e+003;4.475399e-002
2.736610e+003;4.492993e-002
2.738538e+003;4.487610e-002
2.740467e+003;4.538361e-002
2.742395e+003;4.599019e-002
2.744324e+003;4.630153e-002
2.746252e+003;4.650641e-002
2.748181e+003;4.645821e-002
2.750109e+003;4.629784e-002
2.752038e+003;4.633105e-002
2.753967e+003;4.667107e-002
2.755895e+003;4.709374e-002
2.757824e+003;4.709529e-002
2.759752e+003;4.698249e-002
2.761681e+003;4.714792e-002
2.763609e+003;4.740284e-002
2.765538e+003;4.772243e-002
2.767466e+003;4.790143e-002
2.769395e+003;4.803734e-002
2.771323e+003;4.854118e-002
2.773252e+003;4.921847e-002
2.775181e+003;4.959400e-002
2.777109e+003;4.971711e-002
2.779038e+003;4.988901e-002
2.780966e+003;5.012479e-002
2.782895e+003;5.014138e-002
2.784823e+003;5.022335e-002
2.786752e+003;5.053677e-002
2.788680e+003;5.090838e-002
2.790609e+003;5.150434e-002
2.792538e+003;5.214827e-002
2.794466e+003;5.252743e-002
2.796395e+003;5.285775e-002
2.798323e+003;5.336006e-002
2.800252e+003;5.398007e-002
2.802180e+003;5.456787e-002
2.804109e+003;5.514138e-002
2.806037e+003;5.569798e-002
2.807966e+003;5.623882e-002
2.809895e+003;5.674521e-002
2.811823e+003;5.744477e-002
2.813751e+003;5.819511e-002
2.815680e+003;5.900009e-002
2.817609e+003;5.990509e-002
2.819537e+003;6.058538e-002
2.821466e+003;6.113650e-002
2.823394e+003;6.197129e-002
2.825323e+003;6.297248e-002
2.827251e+003;6.370973e-002
2.829180e+003;6.419883e-002
2.831108e+003;6.499628e-002
2.833037e+003;6.628352e-002
2.834966e+003;6.749036e-002
2.836894e+003;6.904820e-002
2.838823e+003;7.137788e-002
2.840751e+003;7.389662e-002
2.842680e+003;7.696822e-002
2.844608e+003;8.085345e-002
2.846537e+003;8.494379e-002
2.848465e+003;8.911682e-002
2.850394e+003;9.334792e-002
2.852323e+003;9.733790e-002
2.854251e+003;1.007698e-001
2.856180e+003;1.037236e-001
2.858108e+003;1.063831e-001
2.860037e+003;1.081170e-001
2.861965e+003;1.087788e-001
2.863894e+003;1.092558e-001
2.865822e+003;1.091988e-001
2.867751e+003;1.083236e-001
2.869679e+003;1.070922e-001
2.871608e+003;1.056367e-001
2.873536e+003;1.037923e-001
2.875465e+003;1.014884e-001
2.877394e+003;9.903379e-002
2.879322e+003;9.688657e-002
2.881251e+003;9.488540e-002
2.883179e+003;9.321514e-002
2.885108e+003;9.252326e-002
2.887036e+003;9.221599e-002
2.888965e+003;9.212466e-002
2.890893e+003;9.279777e-002
2.892822e+003;9.405058e-002
2.894750e+003;9.567698e-002
2.896679e+003;9.739209e-002
2.898608e+003;9.913819e-002
2.900536e+003;1.011313e-001
2.902465e+003;1.030311e-001
2.904393e+003;1.045095e-001
2.906322e+003;1.058591e-001
2.908250e+003;1.075270e-001
2.910179e+003;1.090419e-001
2.912107e+003;1.103389e-001
2.914036e+003;1.120757e-001
2.915965e+003;1.140525e-001
2.917893e+003;1.167645e-001
2.919822e+003;1.196915e-001
2.921750e+003;1.224296e-001
2.923679e+003;1.251270e-001
2.925607e+003;1.277481e-001
2.927536e+003;1.303049e-001
2.929464e+003;1.330473e-001
2.931393e+003;1.350132e-001
2.933322e+003;1.363018e-001
2.935250e+003;1.374017e-001
2.937178e+003;1.374742e-001
2.939107e+003;1.368967e-001
2.941036e+003;1.357363e-001
2.942964e+003;1.336463e-001
2.944893e+003;1.305420e-001
2.946821e+003;1.270289e-001
2.948750e+003;1.231673e-001
2.950678e+003;1.184427e-001
2.952607e+003;1.133198e-001
2.954535e+003;1.080519e-001
2.956464e+003;1.027691e-001
2.958393e+003;9.755117e-002
2.960321e+003;9.283995e-002
2.962250e+003;8.857951e-002
2.964178e+003;8.452189e-002
2.966107e+003;8.113270e-002
2.968035e+003;7.766169e-002
2.969964e+003;7.445904e-002
2.971892e+003;7.184059e-002
2.973821e+003;6.913657e-002
2.975750e+003;6.643184e-002
2.977678e+003;6.445639e-002
2.979607e+003;6.259906e-002
2.981535e+003;6.080600e-002
2.983464e+003;5.912058e-002
2.985392e+003;5.770387e-002
2.987321e+003;5.639566e-002
2.989249e+003;5.542355e-002
2.991178e+003;5.446562e-002
2.993106e+003;5.346070e-002
2.995035e+003;5.287515e-002
2.996964e+003;5.235762e-002
2.998892e+003;5.186434e-002
3.000821e+003;5.147842e-002
3.002749e+003;5.127862e-002
3.004678e+003;5.117293e-002
3.006606e+003;5.093762e-002
3.008535e+003;5.107829e-002
3.010463e+003;5.121975e-002
3.012392e+003;5.130909e-002
3.014321e+003;5.166509e-002
3.016249e+003;5.207741e-002
3.018177e+003;5.237168e-002
3.020106e+003;5.271500e-002
3.022035e+003;5.299443e-002
3.023963e+003;5.329461e-002
3.025892e+003;5.361921e-002
3.027820e+003;5.418118e-002
3.029749e+003;5.470277e-002
3.031677e+003;5.522912e-002
3.033606e+003;5.605534e-002
3.035534e+003;5.658601e-002
3.037463e+003;5.706647e-002
3.039392e+003;5.775091e-002
3.041320e+003;5.874795e-002
3.043249e+003;5.965372e-002
3.045177e+003;6.050962e-002
3.047106e+003;6.112021e-002
3.049034e+003;6.167288e-002
3.050963e+003;6.246501e-002
3.052891e+003;6.338245e-002
3.054820e+003;6.399372e-002
3.056749e+003;6.440008e-002
3.058677e+003;6.504277e-002
3.060606e+003;6.545647e-002
3.062534e+003;6.582893e-002
3.064463e+003;6.636558e-002
3.066391e+003;6.690051e-002
3.068320e+003;6.730261e-002
3.070248e+003;6.727212e-002
3.072177e+003;6.711381e-002
3.074105e+003;6.708048e-002
3.076034e+003;6.708632e-002
3.077963e+003;6.684007e-002
3.079891e+003;6.675559e-002
3.081820e+003;6.658214e-002
3.083748e+003;6.626052e-002
3.085677e+003;6.572580e-002
3.087605e+003;6.502026e-002
3.089534e+003;6.481230e-002
3.091462e+003;6.474863e-002
3.093391e+003;6.415416e-002
3.095320e+003;6.366012e-002
3.097248e+003;6.322294e-002
3.099177e+003;6.273077e-002
3.101105e+003;6.213102e-002
3.103034e+003;6.130062e-002
3.104962e+003;6.067865e-002
3.106891e+003;6.022379e-002
3.108819e+003;5.992681e-002
3.110748e+003;5.950652e-002
3.112677e+003;5.877996e-002
3.114605e+003;5.770512e-002
3.116533e+003;5.688014e-002
3.118462e+003;5.672006e-002
3.120391e+003;5.670032e-002
3.122319e+003;5.634387e-002
3.124248e+003;5.595439e-002
3.126176e+003;5.582264e-002
3.128105e+003;5.576994e-002
3.130033e+003;5.585222e-002
3.131962e+003;5.573226e-002
3.133890e+003;5.546797e-002
3.135819e+003;5.532075e-002
3.137748e+003;5.527506e-002
3.139676e+003;5.544041e-002
3.141605e+003;5.577197e-002
3.143533e+003;5.619277e-002
3.145462e+003;5.634870e-002
3.147390e+003;5.623686e-002
3.149319e+003;5.612874e-002
3.151247e+003;5.636216e-002
3.153176e+003;5.692638e-002
3.155104e+003;5.716348e-002
3.157033e+003;5.727098e-002
3.158962e+003;5.778164e-002
3.160890e+003;5.867125e-002
3.162819e+003;5.951644e-002
3.164747e+003;6.006175e-002
3.166676e+003;6.030978e-002
3.168604e+003;6.091521e-002
3.170533e+003;6.152023e-002
3.172461e+003;6.197813e-002
3.174390e+003;6.265884e-002
3.176319e+003;6.331950e-002
3.178247e+003;6.372711e-002
3.180176e+003;6.451847e-002
3.182104e+003;6.518793e-002
3.184033e+003;6.567592e-002
3.185961e+003;6.637482e-002
3.187890e+003;6.706621e-002
3.189818e+003;6.734490e-002
3.191747e+003;6.767235e-002
3.193676e+003;6.851555e-002
3.195604e+003;6.902644e-002
3.197532e+003;6.926286e-002
3.199461e+003;6.961479e-002
3.201390e+003;6.997908e-002
3.203318e+003;7.054556e-002
3.205247e+003;7.096849e-002
3.207175e+003;7.133660e-002
3.209104e+003;7.153548e-002
3.211032e+003;7.195288e-002
3.212961e+003;7.286678e-002
3.214889e+003;7.386790e-002
3.216818e+003;7.450018e-002
3.218747e+003;7.503357e-002
3.220675e+003;7.596444e-002
3.222604e+003;7.687076e-002
3.224532e+003;7.726616e-002
3.226461e+003;7.780689e-002
3.228389e+003;7.923527e-002
3.230318e+003;8.070663e-002
3.232246e+003;8.199838e-002
3.234175e+003;8.349083e-002
3.236104e+003;8.491703e-002
3.238032e+003;8.591873e-002
3.239961e+003;8.721885e-002
3.241889e+003;8.896576e-002
3.243818e+003;9.070302e-002
3.245746e+003;9.272967e-002
3.247675e+003;9.493797e-002
3.249603e+003;9.696332e-002
3.251532e+003;9.895713e-002
3.253460e+003;1.010663e-001
3.255389e+003;1.031953e-001
3.257318e+003;1.053013e-001
3.259246e+003;1.077220e-001
3.261175e+003;1.103193e-001
3.263103e+003;1.125918e-001
3.265032e+003;1.143798e-001
3.266960e+003;1.160392e-001
3.268889e+003;1.180787e-001
3.270817e+003;1.202711e-001
3.272746e+003;1.221155e-001
3.274675e+003;1.236673e-001
3.276603e+003;1.249179e-001
3.278531e+003;1.260061e-001
3.280460e+003;1.267698e-001
3.282389e+003;1.272230e-001
3.284317e+003;1.279318e-001
3.286246e+003;1.284624e-001
3.288174e+003;1.282209e-001
3.290103e+003;1.273870e-001
3.292031e+003;1.265081e-001
3.293960e+003;1.255430e-001
3.295888e+003;1.240959e-001
3.297817e+003;1.226372e-001
3.299746e+003;1.214123e-001
3.301674e+003;1.196947e-001
3.303603e+003;1.173027e-001
3.305531e+003;1.147117e-001
3.307460e+003;1.121154e-001
3.309388e+003;1.095843e-001
3.311317e+003;1.073605e-001
3.313245e+003;1.052070e-001
3.315174e+003;1.027298e-001
3.317103e+003;1.005230e-001
3.319031e+003;9.805975e-002
3.320960e+003;9.574278e-002
3.322888e+003;9.348671e-002
3.324817e+003;9.119243e-002
3.326745e+003;8.894107e-002
3.328674e+003;8.680284e-002
3.330602e+003;8.491723e-002
3.332531e+003;8.300572e-002
3.334459e+003;8.117052e-002
3.336388e+003;7.966432e-002
3.338317e+003;7.814519e-002
3.340245e+003;7.627756e-002
3.342174e+003;7.460427e-002
3.344102e+003;7.335453e-002
3.346031e+003;7.219986e-002
3.347959e+003;7.095487e-002
3.349888e+003;6.928847e-002
3.351816e+003;6.801967e-002
3.353745e+003;6.700028e-002
3.355674e+003;6.578579e-002
3.357602e+003;6.443141e-002
3.359531e+003;6.358367e-002
3.361459e+003;6.310353e-002
3.363388e+003;6.227663e-002
3.365316e+003;6.093073e-002
3.367245e+003;5.996428e-002
3.369173e+003;5.979743e-002
3.371102e+003;5.923714e-002
3.373031e+003;5.826555e-002
3.374959e+003;5.766660e-002
3.376887e+003;5.690137e-002
3.378816e+003;5.600015e-002
3.380745e+003;5.571045e-002
3.382673e+003;5.555811e-002
3.384602e+003;5.482034e-002
3.386530e+003;5.379177e-002
3.388459e+003;5.325112e-002
3.390387e+003;5.260885e-002
3.392316e+003;5.218145e-002
3.394244e+003;5.234312e-002
3.396173e+003;5.230477e-002
3.398102e+003;5.206821e-002
3.400030e+003;5.176052e-002
3.401959e+003;5.127516e-002
3.403887e+003;5.062206e-002
3.405816e+003;5.019557e-002
3.407744e+003;5.004924e-002
3.409673e+003;4.987612e-002
3.411601e+003;4.953818e-002
3.413530e+003;4.938736e-002
3.415458e+003;4.938398e-002
3.417387e+003;4.924115e-002
3.419316e+003;4.888543e-002
3.421244e+003;4.866384e-002
3.423173e+003;4.859599e-002
3.425101e+003;4.821080e-002
3.427030e+003;4.764537e-002
3.428958e+003;4.720137e-002
3.430887e+003;4.685919e-002
3.432815e+003;4.676191e-002
3.434744e+003;4.690821e-002
3.436673e+003;4.688101e-002
3.438601e+003;4.692674e-002
3.440530e+003;4.720768e-002
3.442458e+003;4.700752e-002
3.444387e+003;4.623964e-002
3.446315e+003;4.572171e-002
3.448244e+003;4.495444e-002
3.450172e+003;4.438831e-002
3.452101e+003;4.409950e-002
3.454030e+003;4.354148e-002
3.455958e+003;4.323142e-002
3.457886e+003;4.329453e-002
3.459815e+003;4.289306e-002
3.461744e+003;4.223125e-002
3.463672e+003;4.164273e-002
3.465601e+003;4.119035e-002
3.467529e+003;4.105631e-002
3.469458e+003;4.077302e-002
3.471386e+003;4.065446e-002
3.473315e+003;4.065232e-002
3.475243e+003;4.035853e-002
3.477172e+003;3.997328e-002
3.479101e+003;3.956085e-002
3.481029e+003;3.923745e-002
3.482958e+003;3.857405e-002
3.484886e+003;3.849458e-002
3.486815e+003;3.886957e-002
3.488743e+003;3.912500e-002
3.490672e+003;3.924002e-002
3.492600e+003;3.917827e-002
3.494529e+003;3.895422e-002
3.496458e+003;3.882692e-002
3.498386e+003;3.877554e-002
3.500315e+003;3.866133e-002
3.502243e+003;3.832698e-002
3.504172e+003;3.753494e-002
3.506100e+003;3.720134e-002
3.508029e+003;3.726704e-002
3.509957e+003;3.717449e-002
3.511886e+003;3.690981e-002
3.513814e+003;3.653928e-002
3.515743e+003;3.639506e-002
3.517672e+003;3.611948e-002
3.519600e+003;3.557391e-002
3.521529e+003;3.533713e-002
3.523457e+003;3.487328e-002
3.525386e+003;3.448232e-002
3.527314e+003;3.465701e-002
3.529243e+003;3.418708e-002
3.531171e+003;3.374795e-002
3.533100e+003;3.341793e-002
3.535029e+003;3.307983e-002
3.536957e+003;3.279373e-002
3.538885e+003;3.240013e-002
3.540814e+003;3.206011e-002
3.542743e+003;3.196837e-002
3.544671e+003;3.168917e-002
3.546600e+003;3.124398e-002
3.548528e+003;3.072270e-002
3.550457e+003;3.041342e-002
3.552385e+003;3.051254e-002
3.554314e+003;3.016977e-002
3.556242e+003;2.948166e-002
3.558171e+003;2.917106e-002
3.560100e+003;2.890215e-002
3.562028e+003;2.860035e-002
3.563957e+003;2.810192e-002
3.565885e+003;2.748849e-002
3.567814e+003;2.737565e-002
3.569742e+003;2.707794e-002
3.571671e+003;2.632448e-002
3.573599e+003;2.594383e-002
3.575528e+003;2.605637e-002
3.577457e+003;2.611766e-002
3.579385e+003;2.569083e-002
3.581314e+003;2.517263e-002
3.583242e+003;2.501280e-002
3.585171e+003;2.457668e-002
3.587099e+003;2.395069e-002
3.589028e+003;2.355729e-002
3.590956e+003;2.330676e-002
3.592885e+003;2.272540e-002
3.594813e+003;2.236405e-002
3.596742e+003;2.238959e-002
3.598671e+003;2.258392e-002
3.600599e+003;2.225596e-002
3.602528e+003;2.183611e-002
3.604456e+003;2.103474e-002
3.606385e+003;2.019170e-002
3.608313e+003;2.004454e-002
3.610242e+003;2.025484e-002
3.612170e+003;2.032535e-002
3.614099e+003;2.010423e-002
3.616028e+003;1.982485e-002
3.617956e+003;1.943042e-002
3.619885e+003;1.897851e-002
3.621813e+003;1.877935e-002
3.623742e+003;1.882592e-002
3.625670e+003;1.852364e-002
3.627599e+003;1.813416e-002
3.629527e+003;1.807940e-002
3.631456e+003;1.808255e-002
3.633385e+003;1.788494e-002
3.635313e+003;1.768380e-002
3.637241e+003;1.756026e-002
3.639170e+003;1.732244e-002
3.641099e+003;1.677115e-002
3.643027e+003;1.622722e-002
3.644956e+003;1.607893e-002
3.646884e+003;1.607226e-002
3.648813e+003;1.597036e-002
3.650741e+003;1.591313e-002
3.652670e+003;1.584219e-002
3.654598e+003;1.571547e-002
3.656527e+003;1.534130e-002
3.658456e+003;1.526885e-002
3.660384e+003;1.547162e-002
3.662313e+003;1.548972e-002
3.664241e+003;1.543409e-002
3.666170e+003;1.536451e-002
3.668098e+003;1.491248e-002
3.670027e+003;1.436934e-002
3.671955e+003;1.435368e-002
3.673884e+003;1.458896e-002
3.675813e+003;1.451906e-002
3.677741e+003;1.423900e-002
3.679669e+003;1.379167e-002
3.681598e+003;1.364226e-002
3.683527e+003;1.361419e-002
3.685455e+003;1.333581e-002
3.687384e+003;1.287022e-002
3.689312e+003;1.241059e-002
3.691241e+003;1.224748e-002
3.693169e+003;1.235952e-002
3.695098e+003;1.240837e-002
3.697026e+003;1.200635e-002
3.698955e+003;1.206801e-002
3.700884e+003;1.207990e-002
3.702812e+003;1.184727e-002
3.704741e+003;1.185534e-002
3.706669e+003;1.184325e-002
3.708598e+003;1.146257e-002
3.710526e+003;1.129471e-002
3.712455e+003;1.146067e-002
3.714383e+003;1.150806e-002
3.716312e+003;1.148047e-002
3.718240e+003;1.140481e-002
3.720169e+003;1.137389e-002
3.722098e+003;1.109041e-002
3.724026e+003;1.097425e-002
3.725955e+003;1.112937e-002
3.727883e+003;1.172668e-002
3.729812e+003;1.203534e-002
3.731740e+003;1.171409e-002
3.733669e+003;1.136511e-002
3.735597e+003;1.102043e-002
3.737526e+003;1.119712e-002
3.739455e+003;1.186872e-002
3.741383e+003;1.197549e-002
3.743312e+003;1.185752e-002
3.745240e+003;1.176689e-002
3.747169e+003;1.189385e-002
3.749097e+003;1.175793e-002
3.751026e+003;1.141403e-002
3.752954e+003;1.132124e-002
3.754883e+003;1.147717e-002
3.756812e+003;1.143801e-002
3.758740e+003;1.131468e-002
3.760668e+003;1.160235e-002
3.762597e+003;1.192304e-002
3.764526e+003;1.206685e-002
3.766454e+003;1.240087e-002
3.768383e+003;1.217857e-002
3.770311e+003;1.175511e-002
3.772240e+003;1.172529e-002
3.774168e+003;1.150544e-002
3.776097e+003;1.130730e-002
3.778025e+003;1.140073e-002
3.779954e+003;1.158816e-002
3.781883e+003;1.161678e-002
3.783811e+003;1.181363e-002
3.785740e+003;1.192246e-002
3.787668e+003;1.162457e-002
3.789597e+003;1.147179e-002
3.791525e+003;1.147550e-002
3.793454e+003;1.177478e-002
3.795382e+003;1.214657e-002
3.797311e+003;1.222263e-002
3.799240e+003;1.200356e-002
3.801168e+003;1.165738e-002
3.803097e+003;1.187383e-002
3.805025e+003;1.219200e-002
3.806954e+003;1.186879e-002
3.808882e+003;1.147893e-002
3.810811e+003;1.172971e-002
3.812739e+003;1.197815e-002
3.814668e+003;1.166422e-002
3.816596e+003;1.176971e-002
3.818525e+003;1.228385e-002
3.820454e+003;1.243773e-002
3.822382e+003;1.232703e-002
3.824311e+003;1.214981e-002
3.826239e+003;1.230839e-002
3.828168e+003;1.271632e-002
3.830096e+003;1.280572e-002
3.832025e+003;1.261006e-002
3.833953e+003;1.272669e-002
3.835882e+003;1.297536e-002
3.837811e+003;1.247503e-002
3.839739e+003;1.202628e-002
3.841667e+003;1.235233e-002
3.843596e+003;1.258696e-002
3.845525e+003;1.243910e-002
3.847453e+003;1.242102e-002
3.849382e+003;1.237207e-002
3.851310e+003;1.236821e-002
3.853239e+003;1.241107e-002
3.855167e+003;1.240790e-002
3.857096e+003;1.249761e-002
3.859024e+003;1.293306e-002
3.860953e+003;1.326307e-002
3.862882e+003;1.285927e-002
3.864810e+003;1.266017e-002
3.866739e+003;1.305628e-002
3.868667e+003;1.310080e-002
3.870596e+003;1.289562e-002
3.872524e+003;1.294204e-002
3.874453e+003;1.298765e-002
3.876381e+003;1.335863e-002
3.878310e+003;1.344352e-002
3.880239e+003;1.343904e-002
3.882167e+003;1.363939e-002
3.884096e+003;1.368251e-002
3.886024e+003;1.347701e-002
3.887953e+003;1.316904e-002
3.889881e+003;1.293088e-002
3.891810e+003;1.345350e-002
3.893738e+003;1.362732e-002
3.895667e+003;1.334005e-002
3.897595e+003;1.342517e-002
3.899524e+003;1.364001e-002
3.901453e+003;1.383966e-002
3.903381e+003;1.379485e-002
3.905310e+003;1.384486e-002
3.907238e+003;1.395509e-002
3.909167e+003;1.410916e-002
3.911095e+003;1.444873e-002
3.913024e+003;1.431670e-002
3.914952e+003;1.379020e-002
3.916881e+003;1.344851e-002
3.918810e+003;1.351003e-002
3.920738e+003;1.403893e-002
3.922667e+003;1.451985e-002
3.924595e+003;1.460482e-002
3.926524e+003;1.443232e-002
3.928452e+003;1.454260e-002
3.930381e+003;1.498796e-002
3.932309e+003;1.510150e-002
3.934238e+003;1.513571e-002
3.936167e+003;1.503989e-002
3.938095e+003;1.470219e-002
3.940023e+003;1.475943e-002
3.941952e+003;1.518251e-002
3.943881e+003;1.507814e-002
3.945809e+003;1.488488e-002
3.947738e+003;1.521538e-002
3.949666e+003;1.556101e-002
3.951595e+003;1.575306e-002
3.953523e+003;1.568638e-002
3.955452e+003;1.564591e-002
3.957380e+003;1.585532e-002
3.959309e+003;1.575921e-002
3.961238e+003;1.588584e-002
3.963166e+003;1.647683e-002
3.965095e+003;1.618412e-002
3.967023e+003;1.557928e-002
3.968952e+003;1.571506e-002
3.970880e+003;1.579762e-002
3.972809e+003;1.600841e-002
3.974737e+003;1.639348e-002
3.976666e+003;1.619262e-002
3.978594e+003;1.638144e-002
3.980523e+003;1.705997e-002
3.982452e+003;1.692480e-002
3.984380e+003;1.619946e-002
3.986309e+003;1.589921e-002
3.988237e+003;1.678692e-002
3.990166e+003;1.726724e-002
3.992094e+003;1.700022e-002
3.994023e+003;1.684823e-002
3.995951e+003;1.678241e-002
3.997880e+003;1.695298e-002
3.999809e+003;1.743211e-002
4.001737e+003;0.000000e+000
