3.992094e+002;0.000000e+000
4.011380e+002;0.000000e+000
4.030665e+002;0.000000e+000
4.049951e+002;0.000000e+000
4.069236e+002;0.000000e+000
4.088522e+002;0.000000e+000
4.107807e+002;0.000000e+000
4.127093e+002;0.000000e+000
4.146378e+002;0.000000e+000
4.165664e+002;0.000000e+000
4.184949e+002;0.000000e+000
4.204235e+002;0.000000e+000
4.223520e+002;0.000000e+000
4.242806e+002;0.000000e+000
4.262091e+002;0.000000e+000
4.281377e+002;0.000000e+000
4.300662e+002;0.000000e+000
4.319948e+002;0.000000e+000
4.339233e+002;0.000000e+000
4.358519e+002;0.000000e+000
4.377804e+002;0.000000e+000
4.397090e+002;0.000000e+000
4.416375e+002;0.000000e+000
4.435660e+002;0.000000e+000
4.454946e+002;0.000000e+000
4.474232e+002;0.000000e+000
4.493517e+002;0.000000e+000
4.512802e+002;0.000000e+000
4.532088e+002;0.000000e+000
4.551373e+002;0.000000e+000
4.570659e+002;0.000000e+000
4.589944e+002;0.000000e+000
4.609230e+002;0.000000e+000
4.628515e+002;0.000000e+000
4.647801e+002;0.000000e+000
4.667086e+002;0.000000e+000
4.686372e+002;0.000000e+000
4.705657e+002;0.000000e+000
4.724943e+002;0.000000e+000
4.744228e+002;0.000000e+000
4.763513e+002;0.000000e+000
4.782799e+002;0.000000e+000
4.802085e+002;0.000000e+000
4.821370e+002;0.000000e+000
4.840656e+002;0.000000e+000
4.859941e+002;0.000000e+000
4.879226e+002;0.000000e+000
4.898512e+002;0.000000e+000
4.917798e+002;0.000000e+000
4.937083e+002;0.000000e+000
4.956368e+002;0.000000e+000
4.975654e+002;0.000000e+000
4.994939e+002;0.000000e+000
5.014225e+002;0.000000e+000
5.033510e+002;0.000000e+000
5.052796e+002;0.000000e+000
5.072081e+002;0.000000e+000
5.091367e+002;0.000000e+000
5.110652e+002;0.000000e+000
5.129938e+002;0.000000e+000
5.149223e+002;0.000000e+000
5.168509e+002;0.000000e+000
5.187794e+002;0.000000e+000
5.207079e+002;0.000000e+000
5.226365e+002;0.000000e+000
5.245651e+002;0.000000e+000
5.264936e+002;0.000000e+000
5.284222e+002;0.000000e+000
5.303507e+002;0.000000e+000
5.322792e+002;0.000000e+000
5.342078e+002;0.000000e+000
5.361364e+002;0.000000e+000
5.380649e+002;0.000000e+000
5.399935e+002;0.000000e+000
5.419220e+002;0.000000e+000
5.438505e+002;0.000000e+000
5.457791e+002;0.000000e+000
5.477076e+002;0.000000e+000
5.496362e+002;0.000000e+000
5.515648e+002;0.000000e+000
5.534933e+002;0.000000e+000
5.554218e+002;0.000000e+000
5.573504e+002;0.000000e+000
5.592789e+002;0.000000e+000
5.612075e+002;0.000000e+000
5.631360e+002;0.000000e+000
5.650646e+002;0.000000e+000
5.669931e+002;0.000000e+000
5.689217e+002;0.000000e+000
5.708502e+002;0.000000e+000
5.727787e+002;0.000000e+000
5.747073e+002;0.000000e+000
5.766359e+002;0.000000e+000
5.785644e+002;0.000000e+000
5.804930e+002;0.000000e+000
5.824215e+002;0.000000e+000
5.843500e+002;0.000000e+000
5.862786e+002;0.000000e+000
5.882072e+002;0.000000e+000
5.901357e+002;0.000000e+000
5.920643e+002;0.000000e+000
5.939928e+002;0.000000e+000
5.959213e+002;0.000000e+000
5.978499e+002;0.000000e+000
5.997784e+002;1.389502e-001
6.017070e+002;1.449816e-001
6.036355e+002;1.462603e-001
6.055641e+002;1.430587e-001
6.074926e+002;1.407992e-001
6.094211e+002;1.408764e-001
6.113497e+002;1.470427e-001
6.132783e+002;1.495564e-001
6.152068e+002;1.461998e-001
6.171354e+002;1.433164e-001
6.190639e+002;1.434071e-001
6.209924e+002;1.444261e-001
6.229210e+002;1.461110e-001
6.248495e+002;1.488451e-001
6.267781e+002;1.504340e-001
6.287067e+002;1.476252e-001
6.306352e+002;1.475031e-001
6.325637e+002;1.466488e-001
6.344923e+002;1.470931e-001
6.364208e+002;1.503533e-001
6.383494e+002;1.489397e-001
6.402780e+002;1.468415e-001
6.422065e+002;1.512199e-001
6.441350e+002;1.561520e-001
6.460636e+002;1.579686e-001
6.479921e+002;1.592730e-001
6.499207e+002;1.639939e-001
6.518492e+002;1.649578e-001
6.537778e+002;1.639807e-001
6.557063e+002;1.653589e-001
6.576349e+002;1.671295e-001
6.595634e+002;1.720889e-001
6.614919e+002;1.771928e-001
6.634205e+002;1.798588e-001
6.653491e+002;1.830457e-001
6.672776e+002;1.864477e-001
6.692062e+002;1.869688e-001
6.711347e+002;1.861432e-001
6.730632e+002;1.865536e-001
6.749918e+002;1.869832e-001
6.769203e+002;1.880613e-001
6.788489e+002;1.890549e-001
6.807775e+002;1.896611e-001
6.827060e+002;1.904425e-001
6.846345e+002;1.910082e-001
6.865631e+002;1.890840e-001
6.884916e+002;1.870784e-001
6.904202e+002;1.855639e-001
6.923488e+002;1.834963e-001
6.942773e+002;1.810630e-001
6.962058e+002;1.775541e-001
6.981344e+002;1.744007e-001
7.000629e+002;1.717864e-001
7.019915e+002;1.685414e-001
7.039200e+002;1.659549e-001
7.058486e+002;1.665910e-001
7.077771e+002;1.671333e-001
7.097057e+002;1.645605e-001
7.116342e+002;1.624277e-001
7.135627e+002;1.618626e-001
7.154913e+002;1.597021e-001
7.174199e+002;1.576996e-001
7.193484e+002;1.562434e-001
7.212770e+002;1.552465e-001
7.232055e+002;1.564271e-001
7.251340e+002;1.579304e-001
7.270626e+002;1.584643e-001
7.289911e+002;1.561881e-001
7.309197e+002;1.504218e-001
7.328483e+002;1.436686e-001
7.347768e+002;1.367115e-001
7.367053e+002;1.310599e-001
7.386339e+002;1.260758e-001
7.405624e+002;1.209006e-001
7.424910e+002;1.173000e-001
7.444196e+002;1.146455e-001
7.463481e+002;1.118817e-001
7.482766e+002;1.101414e-001
7.502052e+002;1.089559e-001
7.521337e+002;1.074994e-001
7.540623e+002;1.054216e-001
7.559908e+002;1.033285e-001
7.579194e+002;1.018910e-001
7.598479e+002;1.003777e-001
7.617765e+002;9.858552e-002
7.637050e+002;9.729910e-002
7.656335e+002;9.619524e-002
7.675621e+002;9.489492e-002
7.694907e+002;9.364597e-002
7.714192e+002;9.282633e-002
7.733478e+002;9.231248e-002
7.752763e+002;9.122510e-002
7.772048e+002;8.932687e-002
7.791334e+002;8.820299e-002
7.810620e+002;8.827278e-002
7.829905e+002;8.647022e-002
7.849191e+002;8.361835e-002
7.868476e+002;8.234080e-002
7.887761e+002;8.138180e-002
7.907047e+002;7.970468e-002
7.926332e+002;7.809497e-002
7.945618e+002;7.703204e-002
7.964903e+002;7.651512e-002
7.984189e+002;7.558701e-002
8.003474e+002;7.379132e-002
8.022759e+002;7.298506e-002
8.042045e+002;7.259620e-002
8.061331e+002;7.157393e-002
8.080616e+002;7.054996e-002
8.099902e+002;6.961218e-002
8.119187e+002;6.870045e-002
8.138472e+002;6.798490e-002
8.157758e+002;6.730996e-002
8.177043e+002;6.687678e-002
8.196329e+002;6.732795e-002
8.215615e+002;6.786619e-002
8.234900e+002;6.778973e-002
8.254185e+002;6.736861e-002
8.273471e+002;6.822789e-002
8.292756e+002;7.052568e-002
8.312042e+002;7.183254e-002
8.331328e+002;7.147966e-002
8.350613e+002;7.036486e-002
8.369898e+002;6.834301e-002
8.389184e+002;6.653336e-002
8.408469e+002;6.496476e-002
8.427755e+002;6.325982e-002
8.447040e+002;6.136526e-002
8.466326e+002;5.962095e-002
8.485611e+002;5.950116e-002
8.504897e+002;5.997196e-002
8.524182e+002;6.001506e-002
8.543467e+002;5.992826e-002
8.562753e+002;5.962156e-002
8.582039e+002;5.918789e-002
8.601324e+002;5.841354e-002
8.620610e+002;5.799240e-002
8.639895e+002;5.808523e-002
8.659180e+002;5.840035e-002
8.678466e+002;5.922644e-002
8.697751e+002;5.926206e-002
8.717037e+002;5.935854e-002
8.736323e+002;5.984588e-002
8.755608e+002;6.005235e-002
8.774893e+002;6.021762e-002
8.794179e+002;6.003652e-002
8.813464e+002;5.957595e-002
8.832750e+002;6.016658e-002
8.852036e+002;6.111018e-002
8.871321e+002;6.141972e-002
8.890606e+002;6.149102e-002
8.909892e+002;6.141816e-002
8.929177e+002;6.130485e-002
8.948463e+002;6.155363e-002
8.967748e+002;6.186605e-002
8.987034e+002;6.175374e-002
9.006319e+002;6.152313e-002
9.025605e+002;6.220527e-002
9.044890e+002;6.303752e-002
9.064175e+002;6.368905e-002
9.083461e+002;6.420075e-002
9.102747e+002;6.473121e-002
9.122032e+002;6.544992e-002
9.141318e+002;6.602187e-002
9.160603e+002;6.609270e-002
9.179888e+002;6.612743e-002
9.199174e+002;6.705759e-002
9.218459e+002;6.845798e-002
9.237745e+002;6.999721e-002
9.257031e+002;7.159440e-002
9.276316e+002;7.262687e-002
9.295601e+002;7.271049e-002
9.314887e+002;7.217529e-002
9.334172e+002;7.114074e-002
9.353458e+002;7.015713e-002
9.372744e+002;6.966524e-002
9.392029e+002;6.973588e-002
9.411314e+002;7.019553e-002
9.430600e+002;7.094835e-002
9.449885e+002;7.182233e-002
9.469171e+002;7.307369e-002
9.488456e+002;7.475931e-002
9.507742e+002;7.598811e-002
9.527027e+002;7.675426e-002
9.546313e+002;7.731767e-002
9.565598e+002;7.816149e-002
9.584883e+002;7.868896e-002
9.604169e+002;7.859750e-002
9.623455e+002;7.800253e-002
9.642740e+002;7.706365e-002
9.662026e+002;7.682773e-002
9.681311e+002;7.687780e-002
9.700596e+002;7.677439e-002
9.719882e+002;7.633717e-002
9.739167e+002;7.555519e-002
9.758453e+002;7.494052e-002
9.777739e+002;7.426026e-002
9.797024e+002;7.359792e-002
9.816309e+002;7.311969e-002
9.835595e+002;7.225046e-002
9.854880e+002;7.134727e-002
9.874166e+002;7.082099e-002
9.893452e+002;7.036708e-002
9.912737e+002;6.931214e-002
9.932022e+002;6.826197e-002
9.951307e+002;6.774717e-002
9.970593e+002;6.716947e-002
9.989879e+002;6.685715e-002
1.000916e+003;6.673650e-002
1.002845e+003;6.650308e-002
1.004773e+003;6.666059e-002
1.006702e+003;6.665120e-002
1.008631e+003;6.650142e-002
1.010559e+003;6.676730e-002
1.012488e+003;6.659523e-002
1.014416e+003;6.604239e-002
1.016345e+003;6.581169e-002
1.018273e+003;6.617851e-002
1.020202e+003;6.651930e-002
1.022130e+003;6.734838e-002
1.024059e+003;6.876279e-002
1.025988e+003;6.963342e-002
1.027916e+003;7.013641e-002
1.029845e+003;7.053457e-002
1.031773e+003;7.057148e-002
1.033702e+003;7.049759e-002
1.035630e+003;6.985445e-002
1.037559e+003;6.883981e-002
1.039487e+003;6.806276e-002
1.041416e+003;6.740228e-002
1.043344e+003;6.660323e-002
1.045273e+003;6.626546e-002
1.047202e+003;6.695873e-002
1.049130e+003;6.789308e-002
1.051059e+003;6.890881e-002
1.052987e+003;7.000846e-002
1.054916e+003;7.098760e-002
1.056844e+003;7.242149e-002
1.058773e+003;7.400610e-002
1.060701e+003;7.523088e-002
1.062630e+003;7.641898e-002
1.064558e+003;7.758649e-002
1.066487e+003;7.855318e-002
1.068416e+003;7.936580e-002
1.070344e+003;8.013124e-002
1.072273e+003;8.109684e-002
1.074201e+003;8.123991e-002
1.076130e+003;7.999439e-002
1.078058e+003;7.905179e-002
1.079987e+003;7.851484e-002
1.081915e+003;7.737540e-002
1.083844e+003;7.697978e-002
1.085773e+003;7.690770e-002
1.087701e+003;7.685383e-002
1.089630e+003;7.646616e-002
1.091558e+003;7.621165e-002
1.093487e+003;7.621928e-002
1.095415e+003;7.668654e-002
1.097344e+003;7.800717e-002
1.099272e+003;7.948050e-002
1.101201e+003;8.088115e-002
1.103129e+003;8.264767e-002
1.105058e+003;8.408488e-002
1.106987e+003;8.560649e-002
1.108915e+003;8.710939e-002
1.110844e+003;8.822975e-002
1.112772e+003;8.878096e-002
1.114701e+003;8.875418e-002
1.116629e+003;8.905234e-002
1.118558e+003;8.935312e-002
1.120486e+003;8.874280e-002
1.122415e+003;8.703630e-002
1.124344e+003;8.467174e-002
1.126272e+003;8.188626e-002
1.128201e+003;7.933892e-002
1.130129e+003;7.710940e-002
1.132058e+003;7.536896e-002
1.133986e+003;7.428487e-002
1.135915e+003;7.359752e-002
1.137843e+003;7.398909e-002
1.139772e+003;7.476081e-002
1.141700e+003;7.588626e-002
1.143629e+003;7.804076e-002
1.145557e+003;8.044213e-002
1.147486e+003;8.233784e-002
1.149415e+003;8.478490e-002
1.151343e+003;8.790784e-002
1.153272e+003;9.123290e-002
1.155200e+003;9.450556e-002
1.157129e+003;9.843595e-002
1.159057e+003;1.035609e-001
1.160986e+003;1.096852e-001
1.162914e+003;1.155110e-001
1.164843e+003;1.209713e-001
1.166771e+003;1.260072e-001
1.168700e+003;1.286499e-001
1.170629e+003;1.279030e-001
1.172557e+003;1.245629e-001
1.174486e+003;1.198235e-001
1.176414e+003;1.146229e-001
1.178343e+003;1.098194e-001
1.180271e+003;1.062431e-001
1.182200e+003;1.049523e-001
1.184128e+003;1.056407e-001
1.186057e+003;1.075164e-001
1.187986e+003;1.103943e-001
1.189914e+003;1.139296e-001
1.191843e+003;1.181028e-001
1.193771e+003;1.228196e-001
1.195700e+003;1.278199e-001
1.197628e+003;1.326319e-001
1.199557e+003;1.354358e-001
1.201485e+003;1.342626e-001
1.203414e+003;1.309486e-001
1.205343e+003;1.280264e-001
1.207271e+003;1.260064e-001
1.209200e+003;1.246413e-001
1.211128e+003;1.237811e-001
1.213057e+003;1.229228e-001
1.214985e+003;1.208432e-001
1.216914e+003;1.174278e-001
1.218842e+003;1.141177e-001
1.220771e+003;1.123001e-001
1.222699e+003;1.123620e-001
1.224628e+003;1.145343e-001
1.226557e+003;1.179139e-001
1.228485e+003;1.219358e-001
1.230414e+003;1.265882e-001
1.232342e+003;1.308279e-001
1.234271e+003;1.344872e-001
1.236199e+003;1.370811e-001
1.238128e+003;1.383512e-001
1.240056e+003;1.385044e-001
1.241985e+003;1.381671e-001
1.243913e+003;1.383217e-001
1.245842e+003;1.387989e-001
1.247771e+003;1.398658e-001
1.249699e+003;1.416754e-001
1.251628e+003;1.441332e-001
1.253556e+003;1.472707e-001
1.255485e+003;1.505403e-001
1.257413e+003;1.532045e-001
1.259342e+003;1.548025e-001
1.261270e+003;1.552266e-001
1.263199e+003;1.541406e-001
1.265127e+003;1.507528e-001
1.267056e+003;1.448216e-001
1.268985e+003;1.384744e-001
1.270913e+003;1.340716e-001
1.272842e+003;1.318353e-001
1.274770e+003;1.309343e-001
1.276699e+003;1.304382e-001
1.278627e+003;1.296833e-001
1.280556e+003;1.287604e-001
1.282484e+003;1.273051e-001
1.284413e+003;1.255395e-001
1.286342e+003;1.236431e-001
1.288270e+003;1.221701e-001
1.290199e+003;1.213615e-001
1.292127e+003;1.207179e-001
1.294056e+003;1.198633e-001
1.295984e+003;1.193898e-001
1.297913e+003;1.191989e-001
1.299841e+003;1.187249e-001
1.301770e+003;1.180479e-001
1.303698e+003;1.171905e-001
1.305627e+003;1.162015e-001
1.307556e+003;1.150992e-001
1.309484e+003;1.136475e-001
1.311413e+003;1.123891e-001
1.313341e+003;1.115372e-001
1.315270e+003;1.106623e-001
1.317198e+003;1.096211e-001
1.319127e+003;1.084543e-001
1.321055e+003;1.073858e-001
1.322984e+003;1.064480e-001
1.324912e+003;1.061193e-001
1.326841e+003;1.062655e-001
1.328770e+003;1.067300e-001
1.330698e+003;1.071232e-001
1.332627e+003;1.074279e-001
1.334555e+003;1.077482e-001
1.336484e+003;1.080300e-001
1.338412e+003;1.084623e-001
1.340341e+003;1.090315e-001
1.342269e+003;1.095845e-001
1.344198e+003;1.104485e-001
1.346126e+003;1.114948e-001
1.348055e+003;1.124626e-001
1.349984e+003;1.136764e-001
1.351912e+003;1.150924e-001
1.353841e+003;1.166418e-001
1.355769e+003;1.183405e-001
1.357698e+003;1.202101e-001
1.359626e+003;1.221989e-001
1.361555e+003;1.241033e-001
1.363483e+003;1.259145e-001
1.365412e+003;1.276391e-001
1.367341e+003;1.292517e-001
1.369269e+003;1.308377e-001
1.371198e+003;1.316630e-001
1.373126e+003;1.314636e-001
1.375055e+003;1.302288e-001
1.376983e+003;1.279675e-001
1.378912e+003;1.249801e-001
1.380840e+003;1.215324e-001
1.382769e+003;1.180697e-001
1.384698e+003;1.147978e-001
1.386626e+003;1.115019e-001
1.388555e+003;1.087272e-001
1.390483e+003;1.067201e-001
1.392412e+003;1.052183e-001
1.394340e+003;1.042606e-001
1.396269e+003;1.043096e-001
1.398197e+003;1.052646e-001
1.400126e+003;1.069655e-001
1.402054e+003;1.095497e-001
1.403983e+003;1.131454e-001
1.405911e+003;1.181132e-001
1.407840e+003;1.244476e-001
1.409769e+003;1.313605e-001
1.411697e+003;1.382698e-001
1.413626e+003;1.443091e-001
1.415554e+003;1.478144e-001
1.417483e+003;1.482866e-001
1.419411e+003;1.463632e-001
1.421340e+003;1.429157e-001
1.423268e+003;1.394999e-001
1.425197e+003;1.374810e-001
1.427125e+003;1.373870e-001
1.429054e+003;1.390407e-001
1.430983e+003;1.415085e-001
1.432911e+003;1.437311e-001
1.434840e+003;1.447991e-001
1.436768e+003;1.445503e-001
1.438697e+003;1.442363e-001
1.440625e+003;1.435016e-001
1.442554e+003;1.423946e-001
1.444482e+003;1.416982e-001
1.446411e+003;1.418420e-001
1.448340e+003;1.431085e-001
1.450268e+003;1.450947e-001
1.452197e+003;1.476325e-001
1.454125e+003;1.506705e-001
1.456054e+003;1.539695e-001
1.457982e+003;1.584105e-001
1.459911e+003;1.637150e-001
1.461839e+003;1.671028e-001
1.463768e+003;1.656778e-001
1.465697e+003;1.596309e-001
1.467625e+003;1.522858e-001
1.469554e+003;1.466014e-001
1.471482e+003;1.435572e-001
1.473411e+003;1.432600e-001
1.475339e+003;1.436024e-001
1.477268e+003;1.419498e-001
1.479196e+003;1.380426e-001
1.481125e+003;1.323437e-001
1.483053e+003;1.257613e-001
1.484982e+003;1.198981e-001
1.486911e+003;1.163732e-001
1.488839e+003;1.156709e-001
1.490768e+003;1.171448e-001
1.492696e+003;1.199924e-001
1.494625e+003;1.233442e-001
1.496553e+003;1.273302e-001
1.498482e+003;1.322243e-001
1.500410e+003;1.377787e-001
1.502339e+003;1.436395e-001
1.504267e+003;1.496156e-001
1.506196e+003;1.558506e-001
1.508125e+003;1.633623e-001
1.510053e+003;1.715098e-001
1.511982e+003;1.795219e-001
1.513910e+003;1.878695e-001
1.515839e+003;1.964352e-001
1.517767e+003;2.054050e-001
1.519696e+003;2.145236e-001
1.521624e+003;2.243698e-001
1.523553e+003;2.346108e-001
1.525481e+003;2.444534e-001
1.527410e+003;2.545956e-001
1.529339e+003;2.643915e-001
1.531267e+003;2.732275e-001
1.533196e+003;2.810467e-001
1.535124e+003;2.878043e-001
1.537053e+003;2.918867e-001
1.538981e+003;2.927682e-001
1.540910e+003;2.914672e-001
1.542838e+003;2.876241e-001
1.544767e+003;2.807991e-001
1.546695e+003;2.715255e-001
1.548624e+003;2.604040e-001
1.550553e+003;2.484307e-001
1.552481e+003;2.368333e-001
1.554410e+003;2.254526e-001
1.556338e+003;2.139804e-001
1.558267e+003;2.027736e-001
1.560195e+003;1.928210e-001
1.562124e+003;1.838030e-001
1.564052e+003;1.746549e-001
1.565981e+003;1.656634e-001
1.567910e+003;1.569532e-001
1.569838e+003;1.484038e-001
1.571767e+003;1.410622e-001
1.573695e+003;1.344179e-001
1.575624e+003;1.280213e-001
1.577552e+003;1.226417e-001
1.579481e+003;1.187839e-001
1.581409e+003;1.158164e-001
1.583338e+003;1.135517e-001
1.585266e+003;1.119476e-001
1.587195e+003;1.114398e-001
1.589124e+003;1.114987e-001
1.591052e+003;1.121519e-001
1.592981e+003;1.139734e-001
1.594909e+003;1.168338e-001
1.596838e+003;1.207671e-001
1.598766e+003;1.257356e-001
1.600695e+003;1.313764e-001
1.602623e+003;1.381594e-001
1.604552e+003;1.462750e-001
1.606480e+003;1.552851e-001
1.608409e+003;1.651453e-001
1.610338e+003;1.761962e-001
1.612266e+003;1.886418e-001
1.614195e+003;2.026374e-001
1.616123e+003;2.182103e-001
1.618052e+003;2.361155e-001
1.619980e+003;2.552057e-001
1.621909e+003;2.745672e-001
1.623837e+003;2.942295e-001
1.625766e+003;3.131213e-001
1.627694e+003;3.316251e-001
1.629623e+003;3.497324e-001
1.631552e+003;3.656040e-001
1.633480e+003;3.767859e-001
1.635409e+003;3.806865e-001
1.637337e+003;3.760327e-001
1.639266e+003;3.628116e-001
1.641194e+003;3.430311e-001
1.643123e+003;3.201166e-001
1.645051e+003;2.964953e-001
1.646980e+003;2.743890e-001
1.648909e+003;2.549758e-001
1.650837e+003;2.373340e-001
1.652766e+003;2.213803e-001
1.654694e+003;2.082504e-001
1.656623e+003;1.968937e-001
1.658551e+003;1.862007e-001
1.660480e+003;1.760869e-001
1.662408e+003;1.662816e-001
1.664337e+003;1.568666e-001
1.666266e+003;1.475534e-001
1.668194e+003;1.385428e-001
1.670123e+003;1.298513e-001
1.672051e+003;1.216615e-001
1.673980e+003;1.137644e-001
1.675908e+003;1.059349e-001
1.677837e+003;9.822232e-002
1.679765e+003;9.026244e-002
1.681694e+003;8.234253e-002
1.683622e+003;7.464503e-002
1.685551e+003;6.797107e-002
1.687479e+003;6.273712e-002
1.689408e+003;5.826324e-002
1.691337e+003;5.468529e-002
1.693265e+003;5.187159e-002
1.695194e+003;4.952385e-002
1.697122e+003;4.815990e-002
1.699051e+003;4.713592e-002
1.700979e+003;4.610170e-002
1.702908e+003;4.575823e-002
1.704836e+003;4.531600e-002
1.706765e+003;4.503459e-002
1.708693e+003;4.486030e-002
1.710622e+003;4.463823e-002
1.712551e+003;4.440567e-002
1.714479e+003;4.453972e-002
1.716408e+003;4.452349e-002
1.718336e+003;4.450183e-002
1.720265e+003;4.496921e-002
1.722193e+003;4.520197e-002
1.724122e+003;4.514399e-002
1.726050e+003;4.510568e-002
1.727979e+003;4.472736e-002
1.729908e+003;4.406789e-002
1.731836e+003;4.332561e-002
1.733765e+003;4.254188e-002
1.735693e+003;4.219839e-002
1.737622e+003;4.189108e-002
1.739550e+003;4.111917e-002
1.741479e+003;4.014914e-002
1.743407e+003;3.939999e-002
1.745336e+003;3.894930e-002
1.747265e+003;3.861472e-002
1.749193e+003;3.816361e-002
1.751122e+003;3.765926e-002
1.753050e+003;3.760463e-002
1.754979e+003;3.752276e-002
1.756907e+003;3.709129e-002
1.758836e+003;3.652890e-002
1.760764e+003;3.590619e-002
1.762693e+003;3.533084e-002
1.764621e+003;3.483361e-002
1.766550e+003;3.445025e-002
1.768479e+003;3.405672e-002
1.770407e+003;3.365861e-002
1.772336e+003;3.331596e-002
1.774264e+003;3.304375e-002
1.776193e+003;3.270695e-002
1.778121e+003;3.242534e-002
1.780050e+003;3.219041e-002
1.781978e+003;3.191359e-002
1.783907e+003;3.167887e-002
1.785835e+003;3.151520e-002
1.787764e+003;3.124757e-002
1.789693e+003;3.083154e-002
1.791621e+003;3.046690e-002
1.793550e+003;3.039849e-002
1.795478e+003;3.056146e-002
1.797407e+003;3.059224e-002
1.799335e+003;3.043446e-002
1.801264e+003;2.996488e-002
1.803192e+003;2.959068e-002
1.805121e+003;2.947265e-002
1.807049e+003;2.938508e-002
1.808978e+003;2.936894e-002
1.810907e+003;2.945326e-002
1.812835e+003;2.945393e-002
1.814764e+003;2.930694e-002
1.816692e+003;2.895871e-002
1.818621e+003;2.882060e-002
1.820549e+003;2.884446e-002
1.822478e+003;2.872526e-002
1.824406e+003;2.863903e-002
1.826335e+003;2.871354e-002
1.828264e+003;2.865899e-002
1.830192e+003;2.848259e-002
1.832121e+003;2.826742e-002
1.834049e+003;2.827443e-002
1.835978e+003;2.848797e-002
1.837906e+003;2.847654e-002
1.839835e+003;2.832210e-002
1.841763e+003;2.824653e-002
1.843692e+003;2.796278e-002
1.845620e+003;2.783784e-002
1.847549e+003;2.764426e-002
1.849478e+003;2.749883e-002
1.851406e+003;2.747246e-002
1.853335e+003;2.739813e-002
1.855263e+003;2.741821e-002
1.857192e+003;2.739725e-002
1.859120e+003;2.715116e-002
1.861049e+003;2.708101e-002
1.862977e+003;2.708553e-002
1.864906e+003;2.718968e-002
1.866834e+003;2.701299e-002
1.868763e+003;2.677314e-002
1.870692e+003;2.663072e-002
1.872620e+003;2.670468e-002
1.874549e+003;2.682809e-002
1.876477e+003;2.698697e-002
1.878406e+003;2.714287e-002
1.880334e+003;2.719137e-002
1.882263e+003;2.720495e-002
1.884191e+003;2.704762e-002
1.886120e+003;2.686016e-002
1.888048e+003;2.690951e-002
1.889977e+003;2.684899e-002
1.891906e+003;2.666726e-002
1.893834e+003;2.684631e-002
1.895763e+003;2.727713e-002
1.897691e+003;2.742930e-002
1.899620e+003;2.741246e-002
1.901548e+003;2.741924e-002
1.903477e+003;2.743230e-002
1.905405e+003;2.724309e-002
1.907334e+003;2.694970e-002
1.909262e+003;2.689954e-002
1.911191e+003;2.696825e-002
1.913120e+003;2.691910e-002
1.915048e+003;2.673068e-002
1.916977e+003;2.665302e-002
1.918905e+003;2.675161e-002
1.920834e+003;2.670341e-002
1.922762e+003;2.667719e-002
1.924691e+003;2.682273e-002
1.926619e+003;2.676141e-002
1.928548e+003;2.655573e-002
1.930477e+003;2.643112e-002
1.932405e+003;2.650751e-002
1.934334e+003;2.669396e-002
1.936262e+003;2.676278e-002
1.938191e+003;2.675566e-002
1.940119e+003;2.659366e-002
1.942048e+003;2.634898e-002
1.943976e+003;2.634014e-002
1.945905e+003;2.650508e-002
1.947833e+003;2.667173e-002
1.949762e+003;2.675306e-002
1.951691e+003;2.673667e-002
1.953619e+003;2.661670e-002
1.955548e+003;2.655266e-002
1.957476e+003;2.669023e-002
1.959405e+003;2.668505e-002
1.961333e+003;2.661660e-002
1.963262e+003;2.662339e-002
1.965190e+003;2.678195e-002
1.967119e+003;2.689802e-002
1.969047e+003;2.694142e-002
1.970976e+003;2.703326e-002
1.972905e+003;2.704060e-002
1.974833e+003;2.706289e-002
1.976762e+003;2.712767e-002
1.978690e+003;2.717402e-002
1.980619e+003;2.719187e-002
1.982547e+003;2.716097e-002
1.984476e+003;2.714714e-002
1.986404e+003;2.716234e-002
1.988333e+003;2.720905e-002
1.990261e+003;2.724566e-002
1.992190e+003;2.715349e-002
1.994119e+003;2.715077e-002
1.996047e+003;2.737230e-002
1.997976e+003;2.743173e-002
1.999904e+003;2.728941e-002
2.001833e+003;2.728133e-002
2.003761e+003;2.722545e-002
2.005690e+003;2.710044e-002
2.007618e+003;2.713652e-002
2.009547e+003;2.728331e-002
2.011476e+003;2.744377e-002
2.013404e+003;2.744603e-002
2.015333e+003;2.732957e-002
2.017261e+003;2.743459e-002
2.019190e+003;2.771181e-002
2.021118e+003;2.758836e-002
2.023047e+003;2.750808e-002
2.024975e+003;2.775946e-002
2.026904e+003;2.801996e-002
2.028833e+003;2.808082e-002
2.030761e+003;2.802014e-002
2.032690e+003;2.806569e-002
2.034618e+003;2.832511e-002
2.036547e+003;2.856135e-002
2.038475e+003;2.865287e-002
2.040404e+003;2.869120e-002
2.042332e+003;2.854037e-002
2.044261e+003;2.845082e-002
2.046189e+003;2.858488e-002
2.048118e+003;2.862218e-002
2.050047e+003;2.851542e-002
2.051975e+003;2.838124e-002
2.053904e+003;2.832362e-002
2.055832e+003;2.857724e-002
2.057761e+003;2.885356e-002
2.059689e+003;2.887970e-002
2.061618e+003;2.879995e-002
2.063546e+003;2.869110e-002
2.065475e+003;2.862480e-002
2.067404e+003;2.884082e-002
2.069332e+003;2.902307e-002
2.071260e+003;2.897451e-002
2.073189e+003;2.881458e-002
2.075118e+003;2.860842e-002
2.077046e+003;2.879652e-002
2.078975e+003;2.890512e-002
2.080903e+003;2.857498e-002
2.082832e+003;2.842139e-002
2.084760e+003;2.845467e-002
2.086689e+003;2.849663e-002
2.088617e+003;2.852904e-002
2.090546e+003;2.837388e-002
2.092475e+003;2.810659e-002
2.094403e+003;2.798706e-002
2.096332e+003;2.825006e-002
2.098260e+003;2.841626e-002
2.100189e+003;2.828479e-002
2.102117e+003;2.815166e-002
2.104046e+003;2.809733e-002
2.105974e+003;2.805884e-002
2.107903e+003;2.826141e-002
2.109832e+003;2.861840e-002
2.111760e+003;2.886164e-002
2.113688e+003;2.869775e-002
2.115617e+003;2.859529e-002
2.117546e+003;2.877705e-002
2.119474e+003;2.899069e-002
2.121403e+003;2.896253e-002
2.123331e+003;2.877871e-002
2.125260e+003;2.880562e-002
2.127188e+003;2.912960e-002
2.129117e+003;2.937611e-002
2.131045e+003;2.931162e-002
2.132974e+003;2.917673e-002
2.134903e+003;2.902140e-002
2.136831e+003;2.910062e-002
2.138760e+003;2.920175e-002
2.140688e+003;2.918173e-002
2.142617e+003;2.937072e-002
2.144545e+003;2.957199e-002
2.146474e+003;2.948946e-002
2.148402e+003;2.923978e-002
2.150331e+003;2.934243e-002
2.152260e+003;2.950131e-002
2.154188e+003;2.950720e-002
2.156117e+003;2.934356e-002
2.158045e+003;2.916302e-002
2.159974e+003;2.927940e-002
2.161902e+003;2.933832e-002
2.163831e+003;2.928075e-002
2.165759e+003;2.969196e-002
2.167688e+003;2.998959e-002
2.169616e+003;2.994259e-002
2.171545e+003;3.018216e-002
2.173474e+003;3.035041e-002
2.175402e+003;3.030206e-002
2.177331e+003;3.024649e-002
2.179259e+003;3.019296e-002
2.181188e+003;3.026365e-002
2.183116e+003;3.031918e-002
2.185045e+003;3.050262e-002
2.186973e+003;3.057994e-002
2.188902e+003;3.046431e-002
2.190831e+003;3.039238e-002
2.192759e+003;3.036758e-002
2.194688e+003;3.036576e-002
2.196616e+003;3.041811e-002
2.198545e+003;3.049761e-002
2.200473e+003;3.038673e-002
2.202402e+003;3.027445e-002
2.204330e+003;3.028152e-002
2.206259e+003;3.032956e-002
2.208188e+003;3.032956e-002
2.210116e+003;3.016796e-002
2.212044e+003;2.980757e-002
2.213973e+003;2.957057e-002
2.215902e+003;2.947815e-002
2.217830e+003;2.936022e-002
2.219759e+003;2.927983e-002
2.221687e+003;2.919069e-002
2.223616e+003;2.913354e-002
2.225544e+003;2.914633e-002
2.227473e+003;2.925207e-002
2.229401e+003;2.923442e-002
2.231330e+003;2.918910e-002
2.233259e+003;2.934232e-002
2.235187e+003;2.932141e-002
2.237116e+003;2.915100e-002
2.239044e+003;2.931456e-002
2.240973e+003;2.927355e-002
2.242901e+003;2.920448e-002
2.244830e+003;2.934058e-002
2.246758e+003;2.930836e-002
2.248687e+003;2.911274e-002
2.250615e+003;2.904939e-002
2.252544e+003;2.923613e-002
2.254473e+003;2.919732e-002
2.256401e+003;2.932463e-002
2.258330e+003;2.957731e-002
2.260258e+003;2.958402e-002
2.262187e+003;2.948524e-002
2.264115e+003;2.957298e-002
2.266044e+003;2.978468e-002
2.267972e+003;2.993300e-002
2.269901e+003;2.993109e-002
2.271830e+003;2.972173e-002
2.273758e+003;2.960658e-002
2.275687e+003;2.963417e-002
2.277615e+003;2.992789e-002
2.279544e+003;2.999342e-002
2.281472e+003;2.985392e-002
2.283401e+003;2.998913e-002
2.285329e+003;3.039444e-002
2.287258e+003;3.054322e-002
2.289187e+003;3.029811e-002
2.291115e+003;3.015620e-002
2.293043e+003;3.023385e-002
2.294972e+003;3.027566e-002
2.296901e+003;3.028610e-002
2.298829e+003;3.023548e-002
2.300758e+003;3.022234e-002
2.302686e+003;3.046285e-002
2.304615e+003;3.073462e-002
2.306543e+003;3.069486e-002
2.308472e+003;3.060942e-002
2.310400e+003;3.055968e-002
2.312329e+003;3.060547e-002
2.314258e+003;3.066193e-002
2.316186e+003;3.044128e-002
2.318115e+003;3.048475e-002
2.320043e+003;3.070343e-002
2.321972e+003;3.072434e-002
2.323900e+003;3.050337e-002
2.325829e+003;3.067015e-002
2.327757e+003;3.085587e-002
2.329686e+003;3.063964e-002
2.331615e+003;3.057856e-002
2.333543e+003;3.067722e-002
2.335472e+003;3.065845e-002
2.337400e+003;3.038712e-002
2.339329e+003;3.028578e-002
2.341257e+003;3.047703e-002
2.343186e+003;3.039053e-002
2.345114e+003;3.016963e-002
2.347043e+003;3.003383e-002
2.348971e+003;3.006202e-002
2.350900e+003;3.020213e-002
2.352829e+003;3.028863e-002
2.354757e+003;3.019520e-002
2.356686e+003;3.002772e-002
2.358614e+003;3.001973e-002
2.360543e+003;2.989513e-002
2.362471e+003;2.977449e-002
2.364400e+003;2.983468e-002
2.366328e+003;3.003241e-002
2.368257e+003;3.023616e-002
2.370186e+003;3.049104e-002
2.372114e+003;3.065546e-002
2.374042e+003;3.052196e-002
2.375971e+003;3.038737e-002
2.377900e+003;3.037379e-002
2.379828e+003;3.061055e-002
2.381757e+003;3.081646e-002
2.383685e+003;3.083232e-002
2.385614e+003;3.095869e-002
2.387542e+003;3.091895e-002
2.389471e+003;3.080621e-002
2.391399e+003;3.064600e-002
2.393328e+003;3.071108e-002
2.395257e+003;3.084904e-002
2.397185e+003;3.105307e-002
2.399114e+003;3.078146e-002
2.401042e+003;3.059466e-002
2.402971e+003;3.067868e-002
2.404899e+003;3.074977e-002
2.406828e+003;3.071808e-002
2.408756e+003;3.065589e-002
2.410685e+003;3.058858e-002
2.412614e+003;3.063733e-002
2.414542e+003;3.066737e-002
2.416471e+003;3.074628e-002
2.418399e+003;3.088223e-002
2.420328e+003;3.082179e-002
2.422256e+003;3.093656e-002
2.424185e+003;3.118196e-002
2.426113e+003;3.128688e-002
2.428042e+003;3.123230e-002
2.429970e+003;3.127781e-002
2.431899e+003;3.131146e-002
2.433828e+003;3.134034e-002
2.435756e+003;3.137307e-002
2.437685e+003;3.141271e-002
2.439613e+003;3.154705e-002
2.441542e+003;3.190771e-002
2.443470e+003;3.217107e-002
2.445399e+003;3.208034e-002
2.447327e+003;3.202947e-002
2.449256e+003;3.202469e-002
2.451185e+003;3.213096e-002
2.453113e+003;3.229618e-002
2.455042e+003;3.242955e-002
2.456970e+003;3.240299e-002
2.458899e+003;3.254732e-002
2.460827e+003;3.257485e-002
2.462756e+003;3.243669e-002
2.464684e+003;3.269162e-002
2.466613e+003;3.275471e-002
2.468542e+003;3.279466e-002
2.470470e+003;3.316312e-002
2.472398e+003;3.334741e-002
2.474327e+003;3.327718e-002
2.476256e+003;3.331374e-002
2.478184e+003;3.340376e-002
2.480113e+003;3.331843e-002
2.482041e+003;3.327060e-002
2.483970e+003;3.342058e-002
2.485898e+003;3.355658e-002
2.487827e+003;3.354871e-002
2.489755e+003;3.343733e-002
2.491684e+003;3.354101e-002
2.493613e+003;3.348668e-002
2.495541e+003;3.341525e-002
2.497470e+003;3.345351e-002
2.499398e+003;3.341893e-002
2.501327e+003;3.344037e-002
2.503255e+003;3.365263e-002
2.505184e+003;3.376249e-002
2.507112e+003;3.342276e-002
2.509041e+003;3.337696e-002
2.510969e+003;3.378835e-002
2.512898e+003;3.407934e-002
2.514827e+003;3.426904e-002
2.516755e+003;3.436359e-002
2.518684e+003;3.459142e-002
2.520612e+003;3.504264e-002
2.522541e+003;3.521131e-002
2.524469e+003;3.510184e-002
2.526398e+003;3.534076e-002
2.528326e+003;3.547323e-002
2.530255e+003;3.547966e-002
2.532184e+003;3.577794e-002
2.534112e+003;3.605906e-002
2.536041e+003;3.612348e-002
2.537969e+003;3.615743e-002
2.539898e+003;3.628922e-002
2.541826e+003;3.640454e-002
2.543755e+003;3.642327e-002
2.545683e+003;3.653448e-002
2.547612e+003;3.659818e-002
2.549541e+003;3.681624e-002
2.551469e+003;3.722693e-002
2.553397e+003;3.721463e-002
2.555326e+003;3.683918e-002
2.557255e+003;3.673125e-002
2.559183e+003;3.682915e-002
2.561112e+003;3.682342e-002
2.563040e+003;3.682321e-002
2.564969e+003;3.671221e-002
2.566897e+003;3.679803e-002
2.568826e+003;3.701447e-002
2.570754e+003;3.730365e-002
2.572683e+003;3.784670e-002
2.574612e+003;3.802084e-002
2.576540e+003;3.785773e-002
2.578469e+003;3.769027e-002
2.580397e+003;3.775915e-002
2.582326e+003;3.811354e-002
2.584254e+003;3.824783e-002
2.586183e+003;3.811473e-002
2.588111e+003;3.829727e-002
2.590040e+003;3.856435e-002
2.591969e+003;3.854816e-002
2.593897e+003;3.849682e-002
2.595826e+003;3.860378e-002
2.597754e+003;3.867053e-002
2.599683e+003;3.870730e-002
2.601611e+003;3.867568e-002
2.603540e+003;3.885116e-002
2.605468e+003;3.901642e-002
2.607397e+003;3.887649e-002
2.609325e+003;3.897275e-002
2.611254e+003;3.916155e-002
2.613183e+003;3.909969e-002
2.615111e+003;3.937478e-002
2.617040e+003;3.962427e-002
2.618968e+003;3.966561e-002
2.620897e+003;3.961882e-002
2.622825e+003;3.950264e-002
2.624754e+003;3.967897e-002
2.626682e+003;3.983442e-002
2.628611e+003;3.967476e-002
2.630540e+003;3.956133e-002
2.632468e+003;3.981648e-002
2.634396e+003;4.031254e-002
2.636325e+003;4.028178e-002
2.638254e+003;4.019719e-002
2.640182e+003;4.027578e-002
2.642111e+003;4.043366e-002
2.644039e+003;4.037740e-002
2.645968e+003;4.020283e-002
2.647896e+003;4.032232e-002
2.649825e+003;4.061149e-002
2.651753e+003;4.085055e-002
2.653682e+003;4.093909e-002
2.655611e+003;4.095639e-002
2.657539e+003;4.101767e-002
2.659468e+003;4.109237e-002
2.661396e+003;4.125058e-002
2.663325e+003;4.133829e-002
2.665253e+003;4.148857e-002
2.667182e+003;4.149254e-002
2.669110e+003;4.127397e-002
2.671039e+003;4.117155e-002
2.672968e+003;4.145321e-002
2.674896e+003;4.176685e-002
2.676825e+003;4.202793e-002
2.678753e+003;4.225404e-002
2.680682e+003;4.241337e-002
2.682610e+003;4.243730e-002
2.684539e+003;4.238893e-002
2.686467e+003;4.249061e-002
2.688396e+003;4.286958e-002
2.690324e+003;4.328692e-002
2.692253e+003;4.360665e-002
2.694182e+003;4.388127e-002
2.696110e+003;4.401787e-002
2.698039e+003;4.412136e-002
2.699967e+003;4.431616e-002
2.701896e+003;4.443187e-002
2.703824e+003;4.460658e-002
2.705753e+003;4.481497e-002
2.707681e+003;4.499339e-002
2.709610e+003;4.527466e-002
2.711539e+003;4.554243e-002
2.713467e+003;4.556388e-002
2.715396e+003;4.563300e-002
2.717324e+003;4.601922e-002
2.719253e+003;4.666078e-002
2.721181e+003;4.726575e-002
2.723110e+003;4.735968e-002
2.725038e+003;4.748422e-002
2.726967e+003;4.769096e-002
2.728896e+003;4.780968e-002
2.730824e+003;4.821873e-002
2.732752e+003;4.867726e-002
2.734681e+003;4.897013e-002
2.736610e+003;4.919450e-002
2.738538e+003;4.926167e-002
2.740467e+003;4.936749e-002
2.742395e+003;4.959701e-002
2.744324e+003;4.976378e-002
2.746252e+003;4.992722e-002
2.748181e+003;5.009691e-002
2.750109e+003;5.012688e-002
2.752038e+003;4.991700e-002
2.753967e+003;5.008653e-002
2.755895e+003;5.038188e-002
2.757824e+003;5.042880e-002
2.759752e+003;5.056342e-002
2.761681e+003;5.074456e-002
2.763609e+003;5.084058e-002
2.765538e+003;5.097593e-002
2.767466e+003;5.119653e-002
2.769395e+003;5.147744e-002
2.771323e+003;5.174626e-002
2.773252e+003;5.183772e-002
2.775181e+003;5.199355e-002
2.777109e+003;5.243766e-002
2.779038e+003;5.301259e-002
2.780966e+003;5.319944e-002
2.782895e+003;5.337542e-002
2.784823e+003;5.370222e-002
2.786752e+003;5.420540e-002
2.788680e+003;5.452388e-002
2.790609e+003;5.453992e-002
2.792538e+003;5.483549e-002
2.794466e+003;5.534431e-002
2.796395e+003;5.560755e-002
2.798323e+003;5.581315e-002
2.800252e+003;5.627865e-002
2.802180e+003;5.691157e-002
2.804109e+003;5.736951e-002
2.806037e+003;5.760458e-002
2.807966e+003;5.788116e-002
2.809895e+003;5.846149e-002
2.811823e+003;5.900119e-002
2.813751e+003;5.955843e-002
2.815680e+003;6.041905e-002
2.817609e+003;6.137953e-002
2.819537e+003;6.211802e-002
2.821466e+003;6.238296e-002
2.823394e+003;6.295976e-002
2.825323e+003;6.387141e-002
2.827251e+003;6.414360e-002
2.829180e+003;6.464503e-002
2.831108e+003;6.587967e-002
2.833037e+003;6.729607e-002
2.834966e+003;6.859400e-002
2.836894e+003;7.015553e-002
2.838823e+003;7.244408e-002
2.840751e+003;7.513164e-002
2.842680e+003;7.830376e-002
2.844608e+003;8.226387e-002
2.846537e+003;8.645049e-002
2.848465e+003;9.077035e-002
2.850394e+003;9.575104e-002
2.852323e+003;1.006367e-001
2.854251e+003;1.047425e-001
2.856180e+003;1.081332e-001
2.858108e+003;1.107064e-001
2.860037e+003;1.123191e-001
2.861965e+003;1.130104e-001
2.863894e+003;1.128367e-001
2.865822e+003;1.115133e-001
2.867751e+003;1.092585e-001
2.869679e+003;1.070386e-001
2.871608e+003;1.047042e-001
2.873536e+003;1.019202e-001
2.875465e+003;9.885931e-002
2.877394e+003;9.593965e-002
2.879322e+003;9.357437e-002
2.881251e+003;9.158617e-002
2.883179e+003;9.002634e-002
2.885108e+003;8.926399e-002
2.887036e+003;8.923705e-002
2.888965e+003;8.997881e-002
2.890893e+003;9.125245e-002
2.892822e+003;9.309770e-002
2.894750e+003;9.531926e-002
2.896679e+003;9.731688e-002
2.898608e+003;9.869563e-002
2.900536e+003;1.000129e-001
2.902465e+003;1.014573e-001
2.904393e+003;1.027930e-001
2.906322e+003;1.040215e-001
2.908250e+003;1.056412e-001
2.910179e+003;1.074061e-001
2.912107e+003;1.095060e-001
2.914036e+003;1.117923e-001
2.915965e+003;1.141591e-001
2.917893e+003;1.168519e-001
2.919822e+003;1.202643e-001
2.921750e+003;1.241142e-001
2.923679e+003;1.281578e-001
2.925607e+003;1.318136e-001
2.927536e+003;1.347090e-001
2.929464e+003;1.372709e-001
2.931393e+003;1.396720e-001
2.933322e+003;1.411336e-001
2.935250e+003;1.415245e-001
2.937178e+003;1.405823e-001
2.939107e+003;1.382346e-001
2.941036e+003;1.351742e-001
2.942964e+003;1.320104e-001
2.944893e+003;1.283575e-001
2.946821e+003;1.235938e-001
2.948750e+003;1.175412e-001
2.950678e+003;1.111036e-001
2.952607e+003;1.047431e-001
2.954535e+003;9.878360e-002
2.956464e+003;9.324318e-002
2.958393e+003;8.825536e-002
2.960321e+003;8.379469e-002
2.962250e+003;7.988916e-002
2.964178e+003;7.664891e-002
2.966107e+003;7.384976e-002
2.968035e+003;7.171394e-002
2.969964e+003;6.939789e-002
2.971892e+003;6.653830e-002
2.973821e+003;6.424005e-002
2.975750e+003;6.228500e-002
2.977678e+003;6.044613e-002
2.979607e+003;5.873038e-002
2.981535e+003;5.762282e-002
2.983464e+003;5.658480e-002
2.985392e+003;5.523796e-002
2.987321e+003;5.434972e-002
2.989249e+003;5.367635e-002
2.991178e+003;5.309825e-002
2.993106e+003;5.247949e-002
2.995035e+003;5.179222e-002
2.996964e+003;5.154587e-002
2.998892e+003;5.142392e-002
3.000821e+003;5.123604e-002
3.002749e+003;5.121837e-002
3.004678e+003;5.132188e-002
3.006606e+003;5.121681e-002
3.008535e+003;5.128880e-002
3.010463e+003;5.111802e-002
3.012392e+003;5.096605e-002
3.014321e+003;5.140978e-002
3.016249e+003;5.165296e-002
3.018177e+003;5.188884e-002
3.020106e+003;5.240626e-002
3.022035e+003;5.301312e-002
3.023963e+003;5.343859e-002
3.025892e+003;5.358907e-002
3.027820e+003;5.383077e-002
3.029749e+003;5.436861e-002
3.031677e+003;5.510888e-002
3.033606e+003;5.568642e-002
3.035534e+003;5.595963e-002
3.037463e+003;5.636756e-002
3.039392e+003;5.673596e-002
3.041320e+003;5.732429e-002
3.043249e+003;5.838625e-002
3.045177e+003;5.935056e-002
3.047106e+003;6.001833e-002
3.049034e+003;6.055738e-002
3.050963e+003;6.133782e-002
3.052891e+003;6.230030e-002
3.054820e+003;6.332073e-002
3.056749e+003;6.400459e-002
3.058677e+003;6.435359e-002
3.060606e+003;6.467037e-002
3.062534e+003;6.507429e-002
3.064463e+003;6.574712e-002
3.066391e+003;6.646338e-002
3.068320e+003;6.683756e-002
3.070248e+003;6.685684e-002
3.072177e+003;6.669123e-002
3.074105e+003;6.659276e-002
3.076034e+003;6.681321e-002
3.077963e+003;6.699464e-002
3.079891e+003;6.643632e-002
3.081820e+003;6.601481e-002
3.083748e+003;6.601968e-002
3.085677e+003;6.582639e-002
3.087605e+003;6.533414e-002
3.089534e+003;6.490885e-002
3.091462e+003;6.447057e-002
3.093391e+003;6.393390e-002
3.095320e+003;6.328032e-002
3.097248e+003;6.251552e-002
3.099177e+003;6.186097e-002
3.101105e+003;6.139499e-002
3.103034e+003;6.078599e-002
3.104962e+003;6.019052e-002
3.106891e+003;5.953270e-002
3.108819e+003;5.869162e-002
3.110748e+003;5.796915e-002
3.112677e+003;5.768934e-002
3.114605e+003;5.760878e-002
3.116533e+003;5.738414e-002
3.118462e+003;5.716238e-002
3.120391e+003;5.685359e-002
3.122319e+003;5.625443e-002
3.124248e+003;5.591244e-002
3.126176e+003;5.578015e-002
3.128105e+003;5.557901e-002
3.130033e+003;5.545065e-002
3.131962e+003;5.549711e-002
3.133890e+003;5.567478e-002
3.135819e+003;5.587061e-002
3.137748e+003;5.569331e-002
3.139676e+003;5.530013e-002
3.141605e+003;5.516471e-002
3.143533e+003;5.527653e-002
3.145462e+003;5.552588e-002
3.147390e+003;5.595360e-002
3.149319e+003;5.626805e-002
3.151247e+003;5.661990e-002
3.153176e+003;5.704520e-002
3.155104e+003;5.706450e-002
3.157033e+003;5.715981e-002
3.158962e+003;5.772102e-002
3.160890e+003;5.830595e-002
3.162819e+003;5.879715e-002
3.164747e+003;5.928018e-002
3.166676e+003;5.967538e-002
3.168604e+003;6.033723e-002
3.170533e+003;6.126586e-002
3.172461e+003;6.183549e-002
3.174390e+003;6.206936e-002
3.176319e+003;6.242549e-002
3.178247e+003;6.288867e-002
3.180176e+003;6.349745e-002
3.182104e+003;6.432065e-002
3.184033e+003;6.529863e-002
3.185961e+003;6.585908e-002
3.187890e+003;6.628468e-002
3.189818e+003;6.669107e-002
3.191747e+003;6.709351e-002
3.193676e+003;6.776495e-002
3.195604e+003;6.831145e-002
3.197532e+003;6.883243e-002
3.199461e+003;6.922749e-002
3.201390e+003;6.956194e-002
3.203318e+003;6.984558e-002
3.205247e+003;6.998507e-002
3.207175e+003;7.037768e-002
3.209104e+003;7.075407e-002
3.211032e+003;7.114230e-002
3.212961e+003;7.155181e-002
3.214889e+003;7.206708e-002
3.216818e+003;7.288198e-002
3.218747e+003;7.390910e-002
3.220675e+003;7.465853e-002
3.222604e+003;7.535741e-002
3.224532e+003;7.633563e-002
3.226461e+003;7.749353e-002
3.228389e+003;7.841032e-002
3.230318e+003;7.915785e-002
3.232246e+003;8.003199e-002
3.234175e+003;8.145817e-002
3.236104e+003;8.307255e-002
3.238032e+003;8.478872e-002
3.239961e+003;8.636951e-002
3.241889e+003;8.788358e-002
3.243818e+003;8.963707e-002
3.245746e+003;9.190913e-002
3.247675e+003;9.424623e-002
3.249603e+003;9.590841e-002
3.251532e+003;9.758680e-002
3.253460e+003;9.968593e-002
3.255389e+003;1.017828e-001
3.257318e+003;1.040376e-001
3.259246e+003;1.065828e-001
3.261175e+003;1.090446e-001
3.263103e+003;1.112072e-001
3.265032e+003;1.135134e-001
3.266960e+003;1.159625e-001
3.268889e+003;1.178747e-001
3.270817e+003;1.196199e-001
3.272746e+003;1.221052e-001
3.274675e+003;1.250301e-001
3.276603e+003;1.273497e-001
3.278531e+003;1.290188e-001
3.280460e+003;1.309181e-001
3.282389e+003;1.330669e-001
3.284317e+003;1.348292e-001
3.286246e+003;1.365296e-001
3.288174e+003;1.375903e-001
3.290103e+003;1.376169e-001
3.292031e+003;1.372330e-001
3.293960e+003;1.367170e-001
3.295888e+003;1.357679e-001
3.297817e+003;1.342015e-001
3.299746e+003;1.318232e-001
3.301674e+003;1.290024e-001
3.303603e+003;1.263928e-001
3.305531e+003;1.237620e-001
3.307460e+003;1.205640e-001
3.309388e+003;1.173329e-001
3.311317e+003;1.146914e-001
3.313245e+003;1.120329e-001
3.315174e+003;1.090864e-001
3.317103e+003;1.061400e-001
3.319031e+003;1.034099e-001
3.320960e+003;1.007780e-001
3.322888e+003;9.794943e-002
3.324817e+003;9.526368e-002
3.326745e+003;9.262705e-002
3.328674e+003;9.018368e-002
3.330602e+003;8.804912e-002
3.332531e+003;8.583487e-002
3.334459e+003;8.343188e-002
3.336388e+003;8.127023e-002
3.338317e+003;7.927798e-002
3.340245e+003;7.727903e-002
3.342174e+003;7.558883e-002
3.344102e+003;7.379054e-002
3.346031e+003;7.197756e-002
3.347959e+003;7.035562e-002
3.349888e+003;6.888601e-002
3.351816e+003;6.749350e-002
3.353745e+003;6.592533e-002
3.355674e+003;6.434986e-002
3.357602e+003;6.311791e-002
3.359531e+003;6.193361e-002
3.361459e+003;6.099215e-002
3.363388e+003;6.001000e-002
3.365316e+003;5.888813e-002
3.367245e+003;5.778747e-002
3.369173e+003;5.693310e-002
3.371102e+003;5.659707e-002
3.373031e+003;5.601183e-002
3.374959e+003;5.505193e-002
3.376887e+003;5.428270e-002
3.378816e+003;5.376188e-002
3.380745e+003;5.324524e-002
3.382673e+003;5.270083e-002
3.384602e+003;5.226930e-002
3.386530e+003;5.175989e-002
3.388459e+003;5.115988e-002
3.390387e+003;5.062388e-002
3.392316e+003;5.021789e-002
3.394244e+003;4.993711e-002
3.396173e+003;4.967495e-002
3.398102e+003;4.927548e-002
3.400030e+003;4.891739e-002
3.401959e+003;4.865895e-002
3.403887e+003;4.827967e-002
3.405816e+003;4.760255e-002
3.407744e+003;4.717245e-002
3.409673e+003;4.682771e-002
3.411601e+003;4.671409e-002
3.413530e+003;4.659490e-002
3.415458e+003;4.637540e-002
3.417387e+003;4.626511e-002
3.419316e+003;4.621063e-002
3.421244e+003;4.587904e-002
3.423173e+003;4.544611e-002
3.425101e+003;4.516498e-002
3.427030e+003;4.524970e-002
3.428958e+003;4.544165e-002
3.430887e+003;4.554217e-002
3.432815e+003;4.559774e-002
3.434744e+003;4.532876e-002
3.436673e+003;4.475976e-002
3.438601e+003;4.484061e-002
3.440530e+003;4.501621e-002
3.442458e+003;4.468575e-002
3.444387e+003;4.438761e-002
3.446315e+003;4.444960e-002
3.448244e+003;4.470591e-002
3.450172e+003;4.406327e-002
3.452101e+003;4.332268e-002
3.454030e+003;4.330057e-002
3.455958e+003;4.320155e-002
3.457886e+003;4.296402e-002
3.459815e+003;4.269890e-002
3.461744e+003;4.246711e-002
3.463672e+003;4.229651e-002
3.465601e+003;4.179475e-002
3.467529e+003;4.173245e-002
3.469458e+003;4.189917e-002
3.471386e+003;4.167457e-002
3.473315e+003;4.158938e-002
3.475243e+003;4.132761e-002
3.477172e+003;4.101723e-002
3.479101e+003;4.099116e-002
3.481029e+003;4.092292e-002
3.482958e+003;4.099524e-002
3.484886e+003;4.123935e-002
3.486815e+003;4.093807e-002
3.488743e+003;4.060127e-002
3.490672e+003;4.086442e-002
3.492600e+003;4.065614e-002
3.494529e+003;3.998480e-002
3.496458e+003;3.997771e-002
3.498386e+003;4.004772e-002
3.500315e+003;3.998410e-002
3.502243e+003;4.010070e-002
3.504172e+003;3.996471e-002
3.506100e+003;3.972000e-002
3.508029e+003;3.945126e-002
3.509957e+003;3.892164e-002
3.511886e+003;3.868575e-002
3.513814e+003;3.886863e-002
3.515743e+003;3.889200e-002
3.517672e+003;3.846228e-002
3.519600e+003;3.798435e-002
3.521529e+003;3.792425e-002
3.523457e+003;3.776660e-002
3.525386e+003;3.762403e-002
3.527314e+003;3.739721e-002
3.529243e+003;3.704666e-002
3.531171e+003;3.695472e-002
3.533100e+003;3.714687e-002
3.535029e+003;3.691183e-002
3.536957e+003;3.657698e-002
3.538885e+003;3.643711e-002
3.540814e+003;3.596547e-002
3.542743e+003;3.546726e-002
3.544671e+003;3.517836e-002
3.546600e+003;3.482410e-002
3.548528e+003;3.474358e-002
3.550457e+003;3.478525e-002
3.552385e+003;3.454994e-002
3.554314e+003;3.443637e-002
3.556242e+003;3.422415e-002
3.558171e+003;3.375261e-002
3.560100e+003;3.332254e-002
3.562028e+003;3.287471e-002
3.563957e+003;3.244619e-002
3.565885e+003;3.229993e-002
3.567814e+003;3.223876e-002
3.569742e+003;3.201517e-002
3.571671e+003;3.169608e-002
3.573599e+003;3.151473e-002
3.575528e+003;3.127464e-002
3.577457e+003;3.098837e-002
3.579385e+003;3.060419e-002
3.581314e+003;3.033645e-002
3.583242e+003;3.005691e-002
3.585171e+003;2.952291e-002
3.587099e+003;2.892000e-002
3.589028e+003;2.867393e-002
3.590956e+003;2.851669e-002
3.592885e+003;2.843734e-002
3.594813e+003;2.838435e-002
3.596742e+003;2.822474e-002
3.598671e+003;2.822234e-002
3.600599e+003;2.810136e-002
3.602528e+003;2.803021e-002
3.604456e+003;2.780259e-002
3.606385e+003;2.710291e-002
3.608313e+003;2.635102e-002
3.610242e+003;2.606826e-002
3.612170e+003;2.581442e-002
3.614099e+003;2.569435e-002
3.616028e+003;2.580358e-002
3.617956e+003;2.541265e-002
3.619885e+003;2.495858e-002
3.621813e+003;2.467616e-002
3.623742e+003;2.447126e-002
3.625670e+003;2.430993e-002
3.627599e+003;2.428848e-002
3.629527e+003;2.418709e-002
3.631456e+003;2.403907e-002
3.633385e+003;2.402188e-002
3.635313e+003;2.372530e-002
3.637241e+003;2.307017e-002
3.639170e+003;2.287018e-002
3.641099e+003;2.287144e-002
3.643027e+003;2.293867e-002
3.644956e+003;2.249765e-002
3.646884e+003;2.173093e-002
3.648813e+003;2.149879e-002
3.650741e+003;2.188346e-002
3.652670e+003;2.227587e-002
3.654598e+003;2.215929e-002
3.656527e+003;2.178747e-002
3.658456e+003;2.156122e-002
3.660384e+003;2.169951e-002
3.662313e+003;2.151515e-002
3.664241e+003;2.171634e-002
3.666170e+003;2.186322e-002
3.668098e+003;2.134284e-002
3.670027e+003;2.063608e-002
3.671955e+003;2.054898e-002
3.673884e+003;2.069609e-002
3.675813e+003;2.096202e-002
3.677741e+003;2.110757e-002
3.679669e+003;2.069144e-002
3.681598e+003;2.040953e-002
3.683527e+003;2.027289e-002
3.685455e+003;2.007866e-002
3.687384e+003;1.969523e-002
3.689312e+003;1.949671e-002
3.691241e+003;1.947142e-002
3.693169e+003;1.936369e-002
3.695098e+003;1.912007e-002
3.697026e+003;1.897716e-002
3.698955e+003;1.893819e-002
3.700884e+003;1.861639e-002
3.702812e+003;1.840319e-002
3.704741e+003;1.844108e-002
3.706669e+003;1.816114e-002
3.708598e+003;1.772725e-002
3.710526e+003;1.799458e-002
3.712455e+003;1.828927e-002
3.714383e+003;1.790396e-002
3.716312e+003;1.795493e-002
3.718240e+003;1.852724e-002
3.720169e+003;1.843859e-002
3.722098e+003;1.810113e-002
3.724026e+003;1.784479e-002
3.725955e+003;1.800266e-002
3.727883e+003;1.802369e-002
3.729812e+003;1.767907e-002
3.731740e+003;1.765253e-002
3.733669e+003;1.772414e-002
3.735597e+003;1.775735e-002
3.737526e+003;1.813226e-002
3.739455e+003;1.820792e-002
3.741383e+003;1.774892e-002
3.743312e+003;1.720973e-002
3.745240e+003;1.729296e-002
3.747169e+003;1.783429e-002
3.749097e+003;1.812397e-002
3.751026e+003;1.814832e-002
3.752954e+003;1.788359e-002
3.754883e+003;1.796933e-002
3.756812e+003;1.838411e-002
3.758740e+003;1.839033e-002
3.760668e+003;1.827016e-002
3.762597e+003;1.833108e-002
3.764526e+003;1.820492e-002
3.766454e+003;1.803157e-002
3.768383e+003;1.807930e-002
3.770311e+003;1.835991e-002
3.772240e+003;1.837609e-002
3.774168e+003;1.839697e-002
3.776097e+003;1.873413e-002
3.778025e+003;1.854978e-002
3.779954e+003;1.835718e-002
3.781883e+003;1.853923e-002
3.783811e+003;1.850884e-002
3.785740e+003;1.846058e-002
3.787668e+003;1.845650e-002
3.789597e+003;1.830430e-002
3.791525e+003;1.820847e-002
3.793454e+003;1.820073e-002
3.795382e+003;1.804189e-002
3.797311e+003;1.806607e-002
3.799240e+003;1.809978e-002
3.801168e+003;1.824113e-002
3.803097e+003;1.839417e-002
3.805025e+003;1.812362e-002
3.806954e+003;1.798094e-002
3.808882e+003;1.843243e-002
3.810811e+003;1.860864e-002
3.812739e+003;1.855985e-002
3.814668e+003;1.854422e-002
3.816596e+003;1.870487e-002
3.818525e+003;1.903760e-002
3.820454e+003;1.875776e-002
3.822382e+003;1.871514e-002
3.824311e+003;1.902091e-002
3.826239e+003;1.915580e-002
3.828168e+003;1.931838e-002
3.830096e+003;1.934938e-002
3.832025e+003;1.934277e-002
3.833953e+003;1.953200e-002
3.835882e+003;1.891621e-002
3.837811e+003;1.827956e-002
3.839739e+003;1.879935e-002
3.841667e+003;1.904861e-002
3.843596e+003;1.887544e-002
3.845525e+003;1.919798e-002
3.847453e+003;1.971957e-002
3.849382e+003;1.942734e-002
3.851310e+003;1.890569e-002
3.853239e+003;1.885139e-002
3.855167e+003;1.907412e-002
3.857096e+003;1.945995e-002
3.859024e+003;1.977054e-002
3.860953e+003;2.007768e-002
3.862882e+003;2.019739e-002
3.864810e+003;1.994213e-002
3.866739e+003;1.935455e-002
3.868667e+003;1.883983e-002
3.870596e+003;1.935164e-002
3.872524e+003;1.992312e-002
3.874453e+003;2.001307e-002
3.876381e+003;2.020933e-002
3.878310e+003;1.999361e-002
3.880239e+003;1.954974e-002
3.882167e+003;1.905612e-002
3.884096e+003;1.905944e-002
3.886024e+003;1.947831e-002
3.887953e+003;1.991528e-002
3.889881e+003;1.986765e-002
3.891810e+003;1.992790e-002
3.893738e+003;2.037108e-002
3.895667e+003;2.040029e-002
3.897595e+003;2.014886e-002
3.899524e+003;1.996162e-002
3.901453e+003;1.995406e-002
3.903381e+003;1.993966e-002
3.905310e+003;2.000079e-002
3.907238e+003;1.999826e-002
3.909167e+003;2.007196e-002
3.911095e+003;2.027223e-002
3.913024e+003;2.060422e-002
3.914952e+003;2.086662e-002
3.916881e+003;2.092433e-002
3.918810e+003;2.120059e-002
3.920738e+003;2.123104e-002
3.922667e+003;2.082952e-002
3.924595e+003;2.073686e-002
3.926524e+003;2.097666e-002
3.928452e+003;2.104719e-002
3.930381e+003;2.133119e-002
3.932309e+003;2.150314e-002
3.934238e+003;2.140877e-002
3.936167e+003;2.156815e-002
3.938095e+003;2.132537e-002
3.940023e+003;2.146634e-002
3.941952e+003;2.155321e-002
3.943881e+003;2.182820e-002
3.945809e+003;2.248037e-002
3.947738e+003;2.241631e-002
3.949666e+003;2.200300e-002
3.951595e+003;2.210511e-002
3.953523e+003;2.248358e-002
3.955452e+003;2.272572e-002
3.957380e+003;2.293808e-002
3.959309e+003;2.293120e-002
3.961238e+003;2.252002e-002
3.963166e+003;2.223678e-002
3.965095e+003;2.256113e-002
3.967023e+003;2.281870e-002
3.968952e+003;2.277191e-002
3.970880e+003;2.290056e-002
3.972809e+003;2.311109e-002
3.974737e+003;2.296040e-002
3.976666e+003;2.286134e-002
3.978594e+003;2.356761e-002
3.980523e+003;2.413402e-002
3.982452e+003;2.375039e-002
3.984380e+003;2.284884e-002
3.986309e+003;2.280393e-002
3.988237e+003;2.345163e-002
3.990166e+003;2.430324e-002
3.992094e+003;2.451497e-002
3.994023e+003;2.413160e-002
3.995951e+003;2.380604e-002
3.997880e+003;2.369405e-002
3.999809e+003;2.375333e-002
4.001737e+003;0.000000e+000
