3.992094e+002;0.000000e+000
4.011380e+002;0.000000e+000
4.030665e+002;0.000000e+000
4.049951e+002;0.000000e+000
4.069236e+002;0.000000e+000
4.088522e+002;0.000000e+000
4.107807e+002;0.000000e+000
4.127093e+002;0.000000e+000
4.146378e+002;0.000000e+000
4.165664e+002;0.000000e+000
4.184949e+002;0.000000e+000
4.204235e+002;0.000000e+000
4.223520e+002;0.000000e+000
4.242806e+002;0.000000e+000
4.262091e+002;0.000000e+000
4.281377e+002;0.000000e+000
4.300662e+002;0.000000e+000
4.319948e+002;0.000000e+000
4.339233e+002;0.000000e+000
4.358519e+002;0.000000e+000
4.377804e+002;0.000000e+000
4.397090e+002;0.000000e+000
4.416375e+002;0.000000e+000
4.435660e+002;0.000000e+000
4.454946e+002;0.000000e+000
4.474232e+002;0.000000e+000
4.493517e+002;0.000000e+000
4.512802e+002;0.000000e+000
4.532088e+002;0.000000e+000
4.551373e+002;0.000000e+000
4.570659e+002;0.000000e+000
4.589944e+002;0.000000e+000
4.609230e+002;0.000000e+000
4.628515e+002;0.000000e+000
4.647801e+002;0.000000e+000
4.667086e+002;0.000000e+000
4.686372e+002;0.000000e+000
4.705657e+002;0.000000e+000
4.724943e+002;0.000000e+000
4.744228e+002;0.000000e+000
4.763513e+002;0.000000e+000
4.782799e+002;0.000000e+000
4.802085e+002;0.000000e+000
4.821370e+002;0.000000e+000
4.840656e+002;0.000000e+000
4.859941e+002;0.000000e+000
4.879226e+002;0.000000e+000
4.898512e+002;0.000000e+000
4.917798e+002;0.000000e+000
4.937083e+002;0.000000e+000
4.956368e+002;0.000000e+000
4.975654e+002;0.000000e+000
4.994939e+002;0.000000e+000
5.014225e+002;0.000000e+000
5.033510e+002;0.000000e+000
5.052796e+002;0.000000e+000
5.072081e+002;0.000000e+000
5.091367e+002;0.000000e+000
5.110652e+002;0.000000e+000
5.129938e+002;0.000000e+000
5.149223e+002;0.000000e+000
5.168509e+002;0.000000e+000
5.187794e+002;0.000000e+000
5.207079e+002;0.000000e+000
5.226365e+002;0.000000e+000
5.245651e+002;0.000000e+000
5.264936e+002;0.000000e+000
5.284222e+002;0.000000e+000
5.303507e+002;0.000000e+000
5.322792e+002;0.000000e+000
5.342078e+002;0.000000e+000
5.361364e+002;0.000000e+000
5.380649e+002;0.000000e+000
5.399935e+002;0.000000e+000
5.419220e+002;0.000000e+000
5.438505e+002;0.000000e+000
5.457791e+002;0.000000e+000
5.477076e+002;0.000000e+000
5.496362e+002;0.000000e+000
5.515648e+002;0.000000e+000
5.534933e+002;0.000000e+000
5.554218e+002;0.000000e+000
5.573504e+002;0.000000e+000
5.592789e+002;0.000000e+000
5.612075e+002;0.000000e+000
5.631360e+002;0.000000e+000
5.650646e+002;0.000000e+000
5.669931e+002;0.000000e+000
5.689217e+002;0.000000e+000
5.708502e+002;0.000000e+000
5.727787e+002;0.000000e+000
5.747073e+002;0.000000e+000
5.766359e+002;0.000000e+000
5.785644e+002;0.000000e+000
5.804930e+002;0.000000e+000
5.824215e+002;0.000000e+000
5.843500e+002;0.000000e+000
5.862786e+002;0.000000e+000
5.882072e+002;0.000000e+000
5.901357e+002;0.000000e+000
5.920643e+002;0.000000e+000
5.939928e+002;0.000000e+000
5.959213e+002;0.000000e+000
5.978499e+002;0.000000e+000
5.997784e+002;1.347703e-001
6.017070e+002;1.385554e-001
6.036355e+002;1.326458e-001
6.055641e+002;1.276463e-001
6.074926e+002;1.236235e-001
6.094211e+002;1.235665e-001
6.113497e+002;1.274056e-001
6.132783e+002;1.275136e-001
6.152068e+002;1.279787e-001
6.171354e+002;1.331697e-001
6.190639e+002;1.345528e-001
6.209924e+002;1.312368e-001
6.229210e+002;1.262252e-001
6.248495e+002;1.256557e-001
6.267781e+002;1.298438e-001
6.287067e+002;1.334173e-001
6.306352e+002;1.333667e-001
6.325637e+002;1.275237e-001
6.344923e+002;1.255781e-001
6.364208e+002;1.332147e-001
6.383494e+002;1.378886e-001
6.402780e+002;1.318251e-001
6.422065e+002;1.313513e-001
6.441350e+002;1.363823e-001
6.460636e+002;1.356696e-001
6.479921e+002;1.378375e-001
6.499207e+002;1.420026e-001
6.518492e+002;1.427979e-001
6.537778e+002;1.441777e-001
6.557063e+002;1.470731e-001
6.576349e+002;1.478894e-001
6.595634e+002;1.481099e-001
6.614919e+002;1.518293e-001
6.634205e+002;1.581543e-001
6.653491e+002;1.630098e-001
6.672776e+002;1.633437e-001
6.692062e+002;1.616870e-001
6.711347e+002;1.610896e-001
6.730632e+002;1.627530e-001
6.749918e+002;1.648612e-001
6.769203e+002;1.659669e-001
6.788489e+002;1.676094e-001
6.807775e+002;1.693032e-001
6.827060e+002;1.704508e-001
6.846345e+002;1.712952e-001
6.865631e+002;1.695920e-001
6.884916e+002;1.665393e-001
6.904202e+002;1.638756e-001
6.923488e+002;1.623519e-001
6.942773e+002;1.597218e-001
6.962058e+002;1.555019e-001
6.981344e+002;1.525632e-001
7.000629e+002;1.498332e-001
7.019915e+002;1.474084e-001
7.039200e+002;1.454343e-001
7.058486e+002;1.444384e-001
7.077771e+002;1.448306e-001
7.097057e+002;1.443277e-001
7.116342e+002;1.431531e-001
7.135627e+002;1.415869e-001
7.154913e+002;1.390885e-001
7.174199e+002;1.364373e-001
7.193484e+002;1.348922e-001
7.212770e+002;1.347408e-001
7.232055e+002;1.355831e-001
7.251340e+002;1.368751e-001
7.270626e+002;1.367798e-001
7.289911e+002;1.344122e-001
7.309197e+002;1.306105e-001
7.328483e+002;1.247293e-001
7.347768e+002;1.188729e-001
7.367053e+002;1.135401e-001
7.386339e+002;1.082705e-001
7.405624e+002;1.039717e-001
7.424910e+002;1.024041e-001
7.444196e+002;1.011718e-001
7.463481e+002;9.900432e-002
7.482766e+002;9.665653e-002
7.502052e+002;9.466470e-002
7.521337e+002;9.319834e-002
7.540623e+002;9.210275e-002
7.559908e+002;9.039625e-002
7.579194e+002;8.803175e-002
7.598479e+002;8.605747e-002
7.617765e+002;8.556109e-002
7.637050e+002;8.539186e-002
7.656335e+002;8.461992e-002
7.675621e+002;8.338326e-002
7.694907e+002;8.252608e-002
7.714192e+002;8.208803e-002
7.733478e+002;8.140402e-002
7.752763e+002;8.044420e-002
7.772048e+002;7.894576e-002
7.791334e+002;7.777617e-002
7.810620e+002;7.756379e-002
7.829905e+002;7.643368e-002
7.849191e+002;7.440650e-002
7.868476e+002;7.285647e-002
7.887761e+002;7.202883e-002
7.907047e+002;7.097363e-002
7.926332e+002;7.007450e-002
7.945618e+002;6.936975e-002
7.964903e+002;6.868170e-002
7.984189e+002;6.752938e-002
8.003474e+002;6.545763e-002
8.022759e+002;6.485622e-002
8.042045e+002;6.492967e-002
8.061331e+002;6.419906e-002
8.080616e+002;6.338437e-002
8.099902e+002;6.266428e-002
8.119187e+002;6.149179e-002
8.138472e+002;6.041826e-002
8.157758e+002;6.047583e-002
8.177043e+002;6.051670e-002
8.196329e+002;6.062229e-002
8.215615e+002;6.092501e-002
8.234900e+002;6.046327e-002
8.254185e+002;5.980766e-002
8.273471e+002;6.064702e-002
8.292756e+002;6.266118e-002
8.312042e+002;6.405727e-002
8.331328e+002;6.457394e-002
8.350613e+002;6.334476e-002
8.369898e+002;6.089283e-002
8.389184e+002;5.935007e-002
8.408469e+002;5.779678e-002
8.427755e+002;5.603988e-002
8.447040e+002;5.485572e-002
8.466326e+002;5.391723e-002
8.485611e+002;5.360785e-002
8.504897e+002;5.352052e-002
8.524182e+002;5.355950e-002
8.543467e+002;5.329693e-002
8.562753e+002;5.237347e-002
8.582039e+002;5.242020e-002
8.601324e+002;5.304314e-002
8.620610e+002;5.274905e-002
8.639895e+002;5.223343e-002
8.659180e+002;5.230223e-002
8.678466e+002;5.271620e-002
8.697751e+002;5.268833e-002
8.717037e+002;5.300671e-002
8.736323e+002;5.348697e-002
8.755608e+002;5.363413e-002
8.774893e+002;5.402251e-002
8.794179e+002;5.400277e-002
8.813464e+002;5.339003e-002
8.832750e+002;5.356778e-002
8.852036e+002;5.430012e-002
8.871321e+002;5.476264e-002
8.890606e+002;5.471589e-002
8.909892e+002;5.433030e-002
8.929177e+002;5.433369e-002
8.948463e+002;5.475137e-002
8.967748e+002;5.512272e-002
8.987034e+002;5.505776e-002
9.006319e+002;5.507333e-002
9.025605e+002;5.555476e-002
9.044890e+002;5.619616e-002
9.064175e+002;5.687433e-002
9.083461e+002;5.731582e-002
9.102747e+002;5.780068e-002
9.122032e+002;5.829867e-002
9.141318e+002;5.875694e-002
9.160603e+002;5.926609e-002
9.179888e+002;6.015094e-002
9.199174e+002;6.138339e-002
9.218459e+002;6.263366e-002
9.237745e+002;6.413469e-002
9.257031e+002;6.601084e-002
9.276316e+002;6.691288e-002
9.295601e+002;6.660268e-002
9.314887e+002;6.568699e-002
9.334172e+002;6.433714e-002
9.353458e+002;6.289898e-002
9.372744e+002;6.197943e-002
9.392029e+002;6.170405e-002
9.411314e+002;6.195875e-002
9.430600e+002;6.283595e-002
9.449885e+002;6.403108e-002
9.469171e+002;6.550556e-002
9.488456e+002;6.742883e-002
9.507742e+002;6.890333e-002
9.527027e+002;6.941792e-002
9.546313e+002;6.978090e-002
9.565598e+002;7.069539e-002
9.584883e+002;7.120885e-002
9.604169e+002;7.116826e-002
9.623455e+002;7.056423e-002
9.642740e+002;6.939447e-002
9.662026e+002;6.902175e-002
9.681311e+002;6.903572e-002
9.700596e+002;6.904862e-002
9.719882e+002;6.892601e-002
9.739167e+002;6.846205e-002
9.758453e+002;6.773346e-002
9.777739e+002;6.674698e-002
9.797024e+002;6.616177e-002
9.816309e+002;6.576455e-002
9.835595e+002;6.506398e-002
9.854880e+002;6.432876e-002
9.874166e+002;6.363933e-002
9.893452e+002;6.281672e-002
9.912737e+002;6.178529e-002
9.932022e+002;6.077711e-002
9.951307e+002;6.022531e-002
9.970593e+002;6.011426e-002
9.989879e+002;6.001369e-002
1.000916e+003;6.001917e-002
1.002845e+003;5.979287e-002
1.004773e+003;5.965224e-002
1.006702e+003;5.979222e-002
1.008631e+003;5.988802e-002
1.010559e+003;5.954748e-002
1.012488e+003;5.888112e-002
1.014416e+003;5.859613e-002
1.016345e+003;5.879343e-002
1.018273e+003;5.916078e-002
1.020202e+003;5.964186e-002
1.022130e+003;6.076221e-002
1.024059e+003;6.201658e-002
1.025988e+003;6.308507e-002
1.027916e+003;6.385982e-002
1.029845e+003;6.411625e-002
1.031773e+003;6.365552e-002
1.033702e+003;6.311408e-002
1.035630e+003;6.282897e-002
1.037559e+003;6.215733e-002
1.039487e+003;6.137041e-002
1.041416e+003;6.061456e-002
1.043344e+003;5.980256e-002
1.045273e+003;5.960198e-002
1.047202e+003;6.010859e-002
1.049130e+003;6.061700e-002
1.051059e+003;6.144926e-002
1.052987e+003;6.225387e-002
1.054916e+003;6.321417e-002
1.056844e+003;6.487754e-002
1.058773e+003;6.609972e-002
1.060701e+003;6.691064e-002
1.062630e+003;6.764091e-002
1.064558e+003;6.867673e-002
1.066487e+003;7.015008e-002
1.068416e+003;7.097454e-002
1.070344e+003;7.136171e-002
1.072273e+003;7.195406e-002
1.074201e+003;7.213018e-002
1.076130e+003;7.165430e-002
1.078058e+003;7.100415e-002
1.079987e+003;7.006663e-002
1.081915e+003;6.913649e-002
1.083844e+003;6.841585e-002
1.085773e+003;6.789745e-002
1.087701e+003;6.741025e-002
1.089630e+003;6.690387e-002
1.091558e+003;6.730153e-002
1.093487e+003;6.775337e-002
1.095415e+003;6.806005e-002
1.097344e+003;6.929582e-002
1.099272e+003;7.046749e-002
1.101201e+003;7.123817e-002
1.103129e+003;7.248335e-002
1.105058e+003;7.457410e-002
1.106987e+003;7.687607e-002
1.108915e+003;7.818422e-002
1.110844e+003;7.881356e-002
1.112772e+003;7.920517e-002
1.114701e+003;7.961902e-002
1.116629e+003;8.028404e-002
1.118558e+003;8.067487e-002
1.120486e+003;8.026858e-002
1.122415e+003;7.885778e-002
1.124344e+003;7.675193e-002
1.126272e+003;7.440044e-002
1.128201e+003;7.173786e-002
1.130129e+003;6.911280e-002
1.132058e+003;6.716459e-002
1.133986e+003;6.613036e-002
1.135915e+003;6.612001e-002
1.137843e+003;6.630533e-002
1.139772e+003;6.674848e-002
1.141700e+003;6.815811e-002
1.143629e+003;7.004394e-002
1.145557e+003;7.191449e-002
1.147486e+003;7.359976e-002
1.149415e+003;7.580817e-002
1.151343e+003;7.870711e-002
1.153272e+003;8.184877e-002
1.155200e+003;8.480246e-002
1.157129e+003;8.812018e-002
1.159057e+003;9.230249e-002
1.160986e+003;9.743045e-002
1.162914e+003;1.029360e-001
1.164843e+003;1.082404e-001
1.166771e+003;1.124961e-001
1.168700e+003;1.144736e-001
1.170629e+003;1.133545e-001
1.172557e+003;1.099604e-001
1.174486e+003;1.055674e-001
1.176414e+003;1.008297e-001
1.178343e+003;9.673692e-002
1.180271e+003;9.398212e-002
1.182200e+003;9.315822e-002
1.184128e+003;9.428904e-002
1.186057e+003;9.649893e-002
1.187986e+003;9.934984e-002
1.189914e+003;1.027154e-001
1.191843e+003;1.066538e-001
1.193771e+003;1.109268e-001
1.195700e+003;1.155081e-001
1.197628e+003;1.194928e-001
1.199557e+003;1.205179e-001
1.201485e+003;1.182430e-001
1.203414e+003;1.145761e-001
1.205343e+003;1.113337e-001
1.207271e+003;1.094565e-001
1.209200e+003;1.088240e-001
1.211128e+003;1.086138e-001
1.213057e+003;1.081308e-001
1.214985e+003;1.063648e-001
1.216914e+003;1.033311e-001
1.218842e+003;1.001651e-001
1.220771e+003;9.839368e-002
1.222699e+003;9.849679e-002
1.224628e+003;1.002245e-001
1.226557e+003;1.032800e-001
1.228485e+003;1.071537e-001
1.230414e+003;1.115647e-001
1.232342e+003;1.156382e-001
1.234271e+003;1.184191e-001
1.236199e+003;1.199143e-001
1.238128e+003;1.204569e-001
1.240056e+003;1.204866e-001
1.241985e+003;1.199431e-001
1.243913e+003;1.195393e-001
1.245842e+003;1.202166e-001
1.247771e+003;1.217588e-001
1.249699e+003;1.237122e-001
1.251628e+003;1.260401e-001
1.253556e+003;1.288357e-001
1.255485e+003;1.316779e-001
1.257413e+003;1.341007e-001
1.259342e+003;1.358183e-001
1.261270e+003;1.364226e-001
1.263199e+003;1.351989e-001
1.265127e+003;1.316531e-001
1.267056e+003;1.261982e-001
1.268985e+003;1.199749e-001
1.270913e+003;1.153319e-001
1.272842e+003;1.131905e-001
1.274770e+003;1.123715e-001
1.276699e+003;1.118504e-001
1.278627e+003;1.112589e-001
1.280556e+003;1.101274e-001
1.282484e+003;1.084235e-001
1.284413e+003;1.067551e-001
1.286342e+003;1.055025e-001
1.288270e+003;1.046960e-001
1.290199e+003;1.040456e-001
1.292127e+003;1.034152e-001
1.294056e+003;1.025648e-001
1.295984e+003;1.017632e-001
1.297913e+003;1.014683e-001
1.299841e+003;1.015509e-001
1.301770e+003;1.012249e-001
1.303698e+003;1.003577e-001
1.305627e+003;9.935838e-002
1.307556e+003;9.832939e-002
1.309484e+003;9.710522e-002
1.311413e+003;9.597333e-002
1.313341e+003;9.510383e-002
1.315270e+003;9.419264e-002
1.317198e+003;9.325740e-002
1.319127e+003;9.245619e-002
1.321055e+003;9.176487e-002
1.322984e+003;9.119145e-002
1.324912e+003;9.096110e-002
1.326841e+003;9.109042e-002
1.328770e+003;9.131356e-002
1.330698e+003;9.175398e-002
1.332627e+003;9.215645e-002
1.334555e+003;9.242249e-002
1.336484e+003;9.263193e-002
1.338412e+003;9.292658e-002
1.340341e+003;9.348717e-002
1.342269e+003;9.415848e-002
1.344198e+003;9.480416e-002
1.346126e+003;9.563614e-002
1.348055e+003;9.669784e-002
1.349984e+003;9.793452e-002
1.351912e+003;9.919914e-002
1.353841e+003;1.004765e-001
1.355769e+003;1.018602e-001
1.357698e+003;1.035462e-001
1.359626e+003;1.053912e-001
1.361555e+003;1.070407e-001
1.363483e+003;1.083509e-001
1.365412e+003;1.098994e-001
1.367341e+003;1.116101e-001
1.369269e+003;1.127723e-001
1.371198e+003;1.128388e-001
1.373126e+003;1.119668e-001
1.375055e+003;1.103955e-001
1.376983e+003;1.082869e-001
1.378912e+003;1.055975e-001
1.380840e+003;1.026423e-001
1.382769e+003;9.967730e-002
1.384698e+003;9.672342e-002
1.386626e+003;9.410629e-002
1.388555e+003;9.220054e-002
1.390483e+003;9.061953e-002
1.392412e+003;8.920592e-002
1.394340e+003;8.832020e-002
1.396269e+003;8.824573e-002
1.398197e+003;8.881865e-002
1.400126e+003;9.006058e-002
1.402054e+003;9.214278e-002
1.403983e+003;9.499462e-002
1.405911e+003;9.877577e-002
1.407840e+003;1.037502e-001
1.409769e+003;1.095261e-001
1.411697e+003;1.155780e-001
1.413626e+003;1.211873e-001
1.415554e+003;1.245753e-001
1.417483e+003;1.254969e-001
1.419411e+003;1.240657e-001
1.421340e+003;1.210921e-001
1.423268e+003;1.182199e-001
1.425197e+003;1.161892e-001
1.427125e+003;1.158941e-001
1.429054e+003;1.174097e-001
1.430983e+003;1.195981e-001
1.432911e+003;1.215826e-001
1.434840e+003;1.228799e-001
1.436768e+003;1.227187e-001
1.438697e+003;1.218660e-001
1.440625e+003;1.209663e-001
1.442554e+003;1.203640e-001
1.444482e+003;1.199158e-001
1.446411e+003;1.198758e-001
1.448340e+003;1.205942e-001
1.450268e+003;1.221673e-001
1.452197e+003;1.240993e-001
1.454125e+003;1.260047e-001
1.456054e+003;1.283258e-001
1.457982e+003;1.324240e-001
1.459911e+003;1.378516e-001
1.461839e+003;1.415315e-001
1.463768e+003;1.405497e-001
1.465697e+003;1.349891e-001
1.467625e+003;1.286133e-001
1.469554e+003;1.237569e-001
1.471482e+003;1.216073e-001
1.473411e+003;1.223109e-001
1.475339e+003;1.235449e-001
1.477268e+003;1.229935e-001
1.479196e+003;1.199707e-001
1.481125e+003;1.150440e-001
1.483053e+003;1.094310e-001
1.484982e+003;1.047018e-001
1.486911e+003;1.020284e-001
1.488839e+003;1.017064e-001
1.490768e+003;1.032692e-001
1.492696e+003;1.059325e-001
1.494625e+003;1.087588e-001
1.496553e+003;1.120589e-001
1.498482e+003;1.162246e-001
1.500410e+003;1.207674e-001
1.502339e+003;1.253982e-001
1.504267e+003;1.304454e-001
1.506196e+003;1.361272e-001
1.508125e+003;1.424423e-001
1.510053e+003;1.488611e-001
1.511982e+003;1.554503e-001
1.513910e+003;1.625073e-001
1.515839e+003;1.696999e-001
1.517767e+003;1.772690e-001
1.519696e+003;1.849032e-001
1.521624e+003;1.930124e-001
1.523553e+003;2.016435e-001
1.525481e+003;2.096920e-001
1.527410e+003;2.176631e-001
1.529339e+003;2.255750e-001
1.531267e+003;2.324827e-001
1.533196e+003;2.379110e-001
1.535124e+003;2.416232e-001
1.537053e+003;2.431754e-001
1.538981e+003;2.418792e-001
1.540910e+003;2.381484e-001
1.542838e+003;2.325976e-001
1.544767e+003;2.250582e-001
1.546695e+003;2.159985e-001
1.548624e+003;2.062733e-001
1.550553e+003;1.967422e-001
1.552481e+003;1.878153e-001
1.554410e+003;1.792637e-001
1.556338e+003;1.708904e-001
1.558267e+003;1.626405e-001
1.560195e+003;1.555158e-001
1.562124e+003;1.494849e-001
1.564052e+003;1.428940e-001
1.565981e+003;1.357159e-001
1.567910e+003;1.286898e-001
1.569838e+003;1.219887e-001
1.571767e+003;1.160288e-001
1.573695e+003;1.103702e-001
1.575624e+003;1.049202e-001
1.577552e+003;1.003325e-001
1.579481e+003;9.700454e-002
1.581409e+003;9.443015e-002
1.583338e+003;9.245869e-002
1.585266e+003;9.112602e-002
1.587195e+003;9.066305e-002
1.589124e+003;9.082838e-002
1.591052e+003;9.130061e-002
1.592981e+003;9.247972e-002
1.594909e+003;9.467006e-002
1.596838e+003;9.777489e-002
1.598766e+003;1.014159e-001
1.600695e+003;1.056752e-001
1.602623e+003;1.110959e-001
1.604552e+003;1.171124e-001
1.606480e+003;1.236846e-001
1.608409e+003;1.310649e-001
1.610338e+003;1.389972e-001
1.612266e+003;1.476207e-001
1.614195e+003;1.571409e-001
1.616123e+003;1.680621e-001
1.618052e+003;1.813111e-001
1.619980e+003;1.954514e-001
1.621909e+003;2.095404e-001
1.623837e+003;2.240324e-001
1.625766e+003;2.390325e-001
1.627694e+003;2.543324e-001
1.629623e+003;2.699155e-001
1.631552e+003;2.850672e-001
1.633480e+003;2.976560e-001
1.635409e+003;3.051188e-001
1.637337e+003;3.060396e-001
1.639266e+003;2.994350e-001
1.641194e+003;2.863460e-001
1.643123e+003;2.692550e-001
1.645051e+003;2.501116e-001
1.646980e+003;2.307691e-001
1.648909e+003;2.135164e-001
1.650837e+003;1.980859e-001
1.652766e+003;1.838886e-001
1.654694e+003;1.725230e-001
1.656623e+003;1.632070e-001
1.658551e+003;1.544337e-001
1.660480e+003;1.454981e-001
1.662408e+003;1.366981e-001
1.664337e+003;1.285316e-001
1.666266e+003;1.202670e-001
1.668194e+003;1.121277e-001
1.670123e+003;1.047422e-001
1.672051e+003;9.813073e-002
1.673980e+003;9.181706e-002
1.675908e+003;8.575106e-002
1.677837e+003;7.991923e-002
1.679765e+003;7.386897e-002
1.681694e+003;6.761683e-002
1.683622e+003;6.163412e-002
1.685551e+003;5.675325e-002
1.687479e+003;5.305280e-002
1.689408e+003;4.970604e-002
1.691337e+003;4.699190e-002
1.693265e+003;4.474477e-002
1.695194e+003;4.278708e-002
1.697122e+003;4.162489e-002
1.699051e+003;4.057569e-002
1.700979e+003;3.981081e-002
1.702908e+003;3.969865e-002
1.704836e+003;3.929668e-002
1.706765e+003;3.899011e-002
1.708693e+003;3.884562e-002
1.710622e+003;3.862982e-002
1.712551e+003;3.829578e-002
1.714479e+003;3.816552e-002
1.716408e+003;3.799617e-002
1.718336e+003;3.800333e-002
1.720265e+003;3.826296e-002
1.722193e+003;3.832861e-002
1.724122e+003;3.824859e-002
1.726050e+003;3.812837e-002
1.727979e+003;3.768246e-002
1.729908e+003;3.704864e-002
1.731836e+003;3.604063e-002
1.733765e+003;3.512479e-002
1.735693e+003;3.480489e-002
1.737622e+003;3.431052e-002
1.739550e+003;3.357273e-002
1.741479e+003;3.304186e-002
1.743407e+003;3.257667e-002
1.745336e+003;3.206425e-002
1.747265e+003;3.151049e-002
1.749193e+003;3.108634e-002
1.751122e+003;3.089725e-002
1.753050e+003;3.095905e-002
1.754979e+003;3.084751e-002
1.756907e+003;3.051919e-002
1.758836e+003;3.008152e-002
1.760764e+003;2.957646e-002
1.762693e+003;2.902757e-002
1.764621e+003;2.835057e-002
1.766550e+003;2.786547e-002
1.768479e+003;2.767138e-002
1.770407e+003;2.723787e-002
1.772336e+003;2.671810e-002
1.774264e+003;2.653421e-002
1.776193e+003;2.633021e-002
1.778121e+003;2.602618e-002
1.780050e+003;2.567210e-002
1.781978e+003;2.530558e-002
1.783907e+003;2.514556e-002
1.785835e+003;2.497693e-002
1.787764e+003;2.457415e-002
1.789693e+003;2.420961e-002
1.791621e+003;2.396333e-002
1.793550e+003;2.390601e-002
1.795478e+003;2.382165e-002
1.797407e+003;2.351178e-002
1.799335e+003;2.322325e-002
1.801264e+003;2.302091e-002
1.803192e+003;2.285768e-002
1.805121e+003;2.268536e-002
1.807049e+003;2.258912e-002
1.808978e+003;2.258511e-002
1.810907e+003;2.263090e-002
1.812835e+003;2.259750e-002
1.814764e+003;2.265020e-002
1.816692e+003;2.246750e-002
1.818621e+003;2.216818e-002
1.820549e+003;2.198334e-002
1.822478e+003;2.203566e-002
1.824406e+003;2.203364e-002
1.826335e+003;2.197690e-002
1.828264e+003;2.184074e-002
1.830192e+003;2.174180e-002
1.832121e+003;2.166907e-002
1.834049e+003;2.149235e-002
1.835978e+003;2.147581e-002
1.837906e+003;2.159054e-002
1.839835e+003;2.147929e-002
1.841763e+003;2.143091e-002
1.843692e+003;2.118330e-002
1.845620e+003;2.087069e-002
1.847549e+003;2.060964e-002
1.849478e+003;2.043995e-002
1.851406e+003;2.038178e-002
1.853335e+003;2.041887e-002
1.855263e+003;2.047937e-002
1.857192e+003;2.044516e-002
1.859120e+003;2.028327e-002
1.861049e+003;2.006072e-002
1.862977e+003;1.995628e-002
1.864906e+003;2.006214e-002
1.866834e+003;1.994008e-002
1.868763e+003;1.983370e-002
1.870692e+003;1.966441e-002
1.872620e+003;1.961293e-002
1.874549e+003;1.990851e-002
1.876477e+003;2.007293e-002
1.878406e+003;2.013102e-002
1.880334e+003;2.009670e-002
1.882263e+003;1.997671e-002
1.884191e+003;1.980987e-002
1.886120e+003;1.979860e-002
1.888048e+003;1.981837e-002
1.889977e+003;1.974336e-002
1.891906e+003;1.963231e-002
1.893834e+003;1.987372e-002
1.895763e+003;2.044481e-002
1.897691e+003;2.055617e-002
1.899620e+003;2.032396e-002
1.901548e+003;2.023769e-002
1.903477e+003;2.050108e-002
1.905405e+003;2.055405e-002
1.907334e+003;2.021460e-002
1.909262e+003;2.004396e-002
1.911191e+003;1.995125e-002
1.913120e+003;1.982502e-002
1.915048e+003;1.970775e-002
1.916977e+003;1.972207e-002
1.918905e+003;1.991077e-002
1.920834e+003;1.989495e-002
1.922762e+003;1.960399e-002
1.924691e+003;1.944418e-002
1.926619e+003;1.931543e-002
1.928548e+003;1.913208e-002
1.930477e+003;1.907014e-002
1.932405e+003;1.913780e-002
1.934334e+003;1.932500e-002
1.936262e+003;1.942983e-002
1.938191e+003;1.937443e-002
1.940119e+003;1.926784e-002
1.942048e+003;1.898941e-002
1.943976e+003;1.885997e-002
1.945905e+003;1.908247e-002
1.947833e+003;1.928076e-002
1.949762e+003;1.914178e-002
1.951691e+003;1.899779e-002
1.953619e+003;1.907752e-002
1.955548e+003;1.912741e-002
1.957476e+003;1.930830e-002
1.959405e+003;1.936179e-002
1.961333e+003;1.931058e-002
1.963262e+003;1.945963e-002
1.965190e+003;1.978726e-002
1.967119e+003;2.008438e-002
1.969047e+003;2.001911e-002
1.970976e+003;1.977304e-002
1.972905e+003;1.964402e-002
1.974833e+003;1.968105e-002
1.976762e+003;1.974783e-002
1.978690e+003;1.980890e-002
1.980619e+003;1.981774e-002
1.982547e+003;1.997925e-002
1.984476e+003;2.014584e-002
1.986404e+003;2.001019e-002
1.988333e+003;1.994213e-002
1.990261e+003;1.985579e-002
1.992190e+003;1.974658e-002
1.994119e+003;1.972741e-002
1.996047e+003;1.982378e-002
1.997976e+003;1.989869e-002
1.999904e+003;1.994920e-002
2.001833e+003;2.001707e-002
2.003761e+003;2.004711e-002
2.005690e+003;2.006779e-002
2.007618e+003;2.020544e-002
2.009547e+003;2.032709e-002
2.011476e+003;2.022925e-002
2.013404e+003;2.015126e-002
2.015333e+003;2.028119e-002
2.017261e+003;2.046148e-002
2.019190e+003;2.050542e-002
2.021118e+003;2.043970e-002
2.023047e+003;2.065113e-002
2.024975e+003;2.095688e-002
2.026904e+003;2.103832e-002
2.028833e+003;2.092207e-002
2.030761e+003;2.070753e-002
2.032690e+003;2.069530e-002
2.034618e+003;2.103102e-002
2.036547e+003;2.142655e-002
2.038475e+003;2.162637e-002
2.040404e+003;2.154614e-002
2.042332e+003;2.130268e-002
2.044261e+003;2.119847e-002
2.046189e+003;2.117367e-002
2.048118e+003;2.115832e-002
2.050047e+003;2.114305e-002
2.051975e+003;2.119405e-002
2.053904e+003;2.117509e-002
2.055832e+003;2.130314e-002
2.057761e+003;2.151682e-002
2.059689e+003;2.151672e-002
2.061618e+003;2.154691e-002
2.063546e+003;2.166224e-002
2.065475e+003;2.169641e-002
2.067404e+003;2.179381e-002
2.069332e+003;2.178402e-002
2.071260e+003;2.168854e-002
2.073189e+003;2.168816e-002
2.075118e+003;2.178510e-002
2.077046e+003;2.186200e-002
2.078975e+003;2.175103e-002
2.080903e+003;2.148013e-002
2.082832e+003;2.121089e-002
2.084760e+003;2.112503e-002
2.086689e+003;2.129082e-002
2.088617e+003;2.145576e-002
2.090546e+003;2.140661e-002
2.092475e+003;2.119683e-002
2.094403e+003;2.117363e-002
2.096332e+003;2.125612e-002
2.098260e+003;2.124889e-002
2.100189e+003;2.113929e-002
2.102117e+003;2.110503e-002
2.104046e+003;2.118856e-002
2.105974e+003;2.128285e-002
2.107903e+003;2.135113e-002
2.109832e+003;2.158135e-002
2.111760e+003;2.186503e-002
2.113688e+003;2.183663e-002
2.115617e+003;2.167698e-002
2.117546e+003;2.166945e-002
2.119474e+003;2.171961e-002
2.121403e+003;2.177026e-002
2.123331e+003;2.175800e-002
2.125260e+003;2.170296e-002
2.127188e+003;2.185360e-002
2.129117e+003;2.202392e-002
2.131045e+003;2.201900e-002
2.132974e+003;2.202420e-002
2.134903e+003;2.190158e-002
2.136831e+003;2.184510e-002
2.138760e+003;2.197076e-002
2.140688e+003;2.220110e-002
2.142617e+003;2.234337e-002
2.144545e+003;2.238586e-002
2.146474e+003;2.250187e-002
2.148402e+003;2.220494e-002
2.150331e+003;2.215441e-002
2.152260e+003;2.248662e-002
2.154188e+003;2.261432e-002
2.156117e+003;2.251977e-002
2.158045e+003;2.249946e-002
2.159974e+003;2.243927e-002
2.161902e+003;2.223848e-002
2.163831e+003;2.224870e-002
2.165759e+003;2.273497e-002
2.167688e+003;2.310271e-002
2.169616e+003;2.305648e-002
2.171545e+003;2.315195e-002
2.173474e+003;2.323597e-002
2.175402e+003;2.315991e-002
2.177331e+003;2.312829e-002
2.179259e+003;2.336018e-002
2.181188e+003;2.345670e-002
2.183116e+003;2.339480e-002
2.185045e+003;2.339001e-002
2.186973e+003;2.336162e-002
2.188902e+003;2.337990e-002
2.190831e+003;2.342889e-002
2.192759e+003;2.330676e-002
2.194688e+003;2.323971e-002
2.196616e+003;2.329320e-002
2.198545e+003;2.316869e-002
2.200473e+003;2.308618e-002
2.202402e+003;2.307279e-002
2.204330e+003;2.303296e-002
2.206259e+003;2.297308e-002
2.208188e+003;2.291422e-002
2.210116e+003;2.282589e-002
2.212044e+003;2.266368e-002
2.213973e+003;2.245574e-002
2.215902e+003;2.228668e-002
2.217830e+003;2.211567e-002
2.219759e+003;2.189193e-002
2.221687e+003;2.206219e-002
2.223616e+003;2.246802e-002
2.225544e+003;2.249978e-002
2.227473e+003;2.227029e-002
2.229401e+003;2.204811e-002
2.231330e+003;2.199066e-002
2.233259e+003;2.201095e-002
2.235187e+003;2.195902e-002
2.237116e+003;2.206554e-002
2.239044e+003;2.210141e-002
2.240973e+003;2.185343e-002
2.242901e+003;2.172592e-002
2.244830e+003;2.174971e-002
2.246758e+003;2.178625e-002
2.248687e+003;2.179629e-002
2.250615e+003;2.159677e-002
2.252544e+003;2.156766e-002
2.254473e+003;2.182914e-002
2.256401e+003;2.206439e-002
2.258330e+003;2.210295e-002
2.260258e+003;2.215880e-002
2.262187e+003;2.218426e-002
2.264115e+003;2.227765e-002
2.266044e+003;2.250051e-002
2.267972e+003;2.254755e-002
2.269901e+003;2.246547e-002
2.271830e+003;2.230433e-002
2.273758e+003;2.206589e-002
2.275687e+003;2.208210e-002
2.277615e+003;2.235390e-002
2.279544e+003;2.248146e-002
2.281472e+003;2.233901e-002
2.283401e+003;2.232917e-002
2.285329e+003;2.260908e-002
2.287258e+003;2.279272e-002
2.289187e+003;2.275766e-002
2.291115e+003;2.244921e-002
2.293043e+003;2.243086e-002
2.294972e+003;2.264374e-002
2.296901e+003;2.278053e-002
2.298829e+003;2.279932e-002
2.300758e+003;2.268522e-002
2.302686e+003;2.269398e-002
2.304615e+003;2.270400e-002
2.306543e+003;2.271720e-002
2.308472e+003;2.266940e-002
2.310400e+003;2.271046e-002
2.312329e+003;2.286194e-002
2.314258e+003;2.283403e-002
2.316186e+003;2.283173e-002
2.318115e+003;2.288527e-002
2.320043e+003;2.283763e-002
2.321972e+003;2.278661e-002
2.323900e+003;2.275756e-002
2.325829e+003;2.288090e-002
2.327757e+003;2.277128e-002
2.329686e+003;2.259411e-002
2.331615e+003;2.265422e-002
2.333543e+003;2.279908e-002
2.335472e+003;2.284706e-002
2.337400e+003;2.257285e-002
2.339329e+003;2.232230e-002
2.341257e+003;2.231720e-002
2.343186e+003;2.228337e-002
2.345114e+003;2.227556e-002
2.347043e+003;2.233974e-002
2.348971e+003;2.243093e-002
2.350900e+003;2.232010e-002
2.352829e+003;2.207384e-002
2.354757e+003;2.203183e-002
2.356686e+003;2.206937e-002
2.358614e+003;2.215110e-002
2.360543e+003;2.218966e-002
2.362471e+003;2.207481e-002
2.364400e+003;2.206603e-002
2.366328e+003;2.219876e-002
2.368257e+003;2.230308e-002
2.370186e+003;2.243372e-002
2.372114e+003;2.266375e-002
2.374042e+003;2.255663e-002
2.375971e+003;2.242500e-002
2.377900e+003;2.274858e-002
2.379828e+003;2.296851e-002
2.381757e+003;2.301102e-002
2.383685e+003;2.297860e-002
2.385614e+003;2.300872e-002
2.387542e+003;2.294611e-002
2.389471e+003;2.281577e-002
2.391399e+003;2.274069e-002
2.393328e+003;2.277585e-002
2.395257e+003;2.282995e-002
2.397185e+003;2.280843e-002
2.399114e+003;2.255844e-002
2.401042e+003;2.267576e-002
2.402971e+003;2.295799e-002
2.404899e+003;2.315880e-002
2.406828e+003;2.315149e-002
2.408756e+003;2.300023e-002
2.410685e+003;2.282960e-002
2.412614e+003;2.278877e-002
2.414542e+003;2.293696e-002
2.416471e+003;2.316662e-002
2.418399e+003;2.326317e-002
2.420328e+003;2.313175e-002
2.422256e+003;2.298468e-002
2.424185e+003;2.302587e-002
2.426113e+003;2.316299e-002
2.428042e+003;2.321161e-002
2.429970e+003;2.331735e-002
2.431899e+003;2.350794e-002
2.433828e+003;2.368968e-002
2.435756e+003;2.373587e-002
2.437685e+003;2.370966e-002
2.439613e+003;2.374448e-002
2.441542e+003;2.396883e-002
2.443470e+003;2.419777e-002
2.445399e+003;2.416768e-002
2.447327e+003;2.431890e-002
2.449256e+003;2.440655e-002
2.451185e+003;2.440623e-002
2.453113e+003;2.443743e-002
2.455042e+003;2.454456e-002
2.456970e+003;2.458867e-002
2.458899e+003;2.479672e-002
2.460827e+003;2.470629e-002
2.462756e+003;2.448538e-002
2.464684e+003;2.479072e-002
2.466613e+003;2.510393e-002
2.468542e+003;2.532968e-002
2.470470e+003;2.560380e-002
2.472398e+003;2.581944e-002
2.474327e+003;2.577099e-002
2.476256e+003;2.568591e-002
2.478184e+003;2.565895e-002
2.480113e+003;2.555906e-002
2.482041e+003;2.556557e-002
2.483970e+003;2.572335e-002
2.485898e+003;2.580397e-002
2.487827e+003;2.558412e-002
2.489755e+003;2.548924e-002
2.491684e+003;2.560152e-002
2.493613e+003;2.534296e-002
2.495541e+003;2.538177e-002
2.497470e+003;2.555741e-002
2.499398e+003;2.554799e-002
2.501327e+003;2.557484e-002
2.503255e+003;2.571393e-002
2.505184e+003;2.569938e-002
2.507112e+003;2.563790e-002
2.509041e+003;2.582971e-002
2.510969e+003;2.603600e-002
2.512898e+003;2.617347e-002
2.514827e+003;2.630610e-002
2.516755e+003;2.645359e-002
2.518684e+003;2.650772e-002
2.520612e+003;2.676846e-002
2.522541e+003;2.712266e-002
2.524469e+003;2.725741e-002
2.526398e+003;2.736422e-002
2.528326e+003;2.740092e-002
2.530255e+003;2.757978e-002
2.532184e+003;2.780428e-002
2.534112e+003;2.798536e-002
2.536041e+003;2.821460e-002
2.537969e+003;2.833522e-002
2.539898e+003;2.842849e-002
2.541826e+003;2.837922e-002
2.543755e+003;2.834091e-002
2.545683e+003;2.853272e-002
2.547612e+003;2.863429e-002
2.549541e+003;2.885459e-002
2.551469e+003;2.919417e-002
2.553397e+003;2.933612e-002
2.555326e+003;2.926600e-002
2.557255e+003;2.901251e-002
2.559183e+003;2.880782e-002
2.561112e+003;2.877503e-002
2.563040e+003;2.893540e-002
2.564969e+003;2.916241e-002
2.566897e+003;2.941121e-002
2.568826e+003;2.944595e-002
2.570754e+003;2.946716e-002
2.572683e+003;2.961697e-002
2.574612e+003;2.986751e-002
2.576540e+003;3.009114e-002
2.578469e+003;2.998423e-002
2.580397e+003;3.001963e-002
2.582326e+003;3.023775e-002
2.584254e+003;3.044640e-002
2.586183e+003;3.042546e-002
2.588111e+003;3.061233e-002
2.590040e+003;3.103328e-002
2.591969e+003;3.087316e-002
2.593897e+003;3.064053e-002
2.595826e+003;3.067317e-002
2.597754e+003;3.061759e-002
2.599683e+003;3.060248e-002
2.601611e+003;3.074884e-002
2.603540e+003;3.100997e-002
2.605468e+003;3.109909e-002
2.607397e+003;3.082659e-002
2.609325e+003;3.078975e-002
2.611254e+003;3.089330e-002
2.613183e+003;3.084698e-002
2.615111e+003;3.113671e-002
2.617040e+003;3.154470e-002
2.618968e+003;3.174998e-002
2.620897e+003;3.172367e-002
2.622825e+003;3.158507e-002
2.624754e+003;3.168140e-002
2.626682e+003;3.191039e-002
2.628611e+003;3.189359e-002
2.630540e+003;3.176213e-002
2.632468e+003;3.193428e-002
2.634396e+003;3.220696e-002
2.636325e+003;3.228487e-002
2.638254e+003;3.253460e-002
2.640182e+003;3.271906e-002
2.642111e+003;3.278876e-002
2.644039e+003;3.292732e-002
2.645968e+003;3.281882e-002
2.647896e+003;3.262996e-002
2.649825e+003;3.262896e-002
2.651753e+003;3.283172e-002
2.653682e+003;3.293930e-002
2.655611e+003;3.303457e-002
2.657539e+003;3.304454e-002
2.659468e+003;3.289605e-002
2.661396e+003;3.296829e-002
2.663325e+003;3.328706e-002
2.665253e+003;3.351982e-002
2.667182e+003;3.353171e-002
2.669110e+003;3.332719e-002
2.671039e+003;3.341028e-002
2.672968e+003;3.399451e-002
2.674896e+003;3.429424e-002
2.676825e+003;3.418135e-002
2.678753e+003;3.415227e-002
2.680682e+003;3.428672e-002
2.682610e+003;3.429830e-002
2.684539e+003;3.440749e-002
2.686467e+003;3.456508e-002
2.688396e+003;3.475076e-002
2.690324e+003;3.503772e-002
2.692253e+003;3.552925e-002
2.694182e+003;3.584800e-002
2.696110e+003;3.579424e-002
2.698039e+003;3.589179e-002
2.699967e+003;3.624970e-002
2.701896e+003;3.640281e-002
2.703824e+003;3.657579e-002
2.705753e+003;3.688683e-002
2.707681e+003;3.701858e-002
2.709610e+003;3.715102e-002
2.711539e+003;3.752226e-002
2.713467e+003;3.751947e-002
2.715396e+003;3.754614e-002
2.717324e+003;3.803100e-002
2.719253e+003;3.873802e-002
2.721181e+003;3.919335e-002
2.723110e+003;3.921928e-002
2.725038e+003;3.942049e-002
2.726967e+003;3.963309e-002
2.728896e+003;3.975809e-002
2.730824e+003;4.001502e-002
2.732752e+003;4.032003e-002
2.734681e+003;4.084622e-002
2.736610e+003;4.134506e-002
2.738538e+003;4.152309e-002
2.740467e+003;4.182620e-002
2.742395e+003;4.215264e-002
2.744324e+003;4.209889e-002
2.746252e+003;4.208400e-002
2.748181e+003;4.228450e-002
2.750109e+003;4.224692e-002
2.752038e+003;4.193304e-002
2.753967e+003;4.200505e-002
2.755895e+003;4.214782e-002
2.757824e+003;4.233465e-002
2.759752e+003;4.264757e-002
2.761681e+003;4.275556e-002
2.763609e+003;4.266220e-002
2.765538e+003;4.270324e-002
2.767466e+003;4.297682e-002
2.769395e+003;4.331445e-002
2.771323e+003;4.345666e-002
2.773252e+003;4.361830e-002
2.775181e+003;4.422587e-002
2.777109e+003;4.456024e-002
2.779038e+003;4.472405e-002
2.780966e+003;4.478980e-002
2.782895e+003;4.492258e-002
2.784823e+003;4.547086e-002
2.786752e+003;4.607901e-002
2.788680e+003;4.640855e-002
2.790609e+003;4.655864e-002
2.792538e+003;4.690449e-002
2.794466e+003;4.726509e-002
2.796395e+003;4.746829e-002
2.798323e+003;4.790424e-002
2.800252e+003;4.836304e-002
2.802180e+003;4.867037e-002
2.804109e+003;4.899427e-002
2.806037e+003;4.953592e-002
2.807966e+003;5.011877e-002
2.809895e+003;5.064186e-002
2.811823e+003;5.084043e-002
2.813751e+003;5.119794e-002
2.815680e+003;5.192364e-002
2.817609e+003;5.284267e-002
2.819537e+003;5.340371e-002
2.821466e+003;5.396938e-002
2.823394e+003;5.472998e-002
2.825323e+003;5.526396e-002
2.827251e+003;5.556534e-002
2.829180e+003;5.616739e-002
2.831108e+003;5.711306e-002
2.833037e+003;5.807530e-002
2.834966e+003;5.908846e-002
2.836894e+003;6.058870e-002
2.838823e+003;6.288343e-002
2.840751e+003;6.557522e-002
2.842680e+003;6.844203e-002
2.844608e+003;7.172696e-002
2.846537e+003;7.533827e-002
2.848465e+003;7.883156e-002
2.850394e+003;8.273388e-002
2.852323e+003;8.668555e-002
2.854251e+003;8.989786e-002
2.856180e+003;9.226589e-002
2.858108e+003;9.398080e-002
2.860037e+003;9.510960e-002
2.861965e+003;9.564453e-002
2.863894e+003;9.543087e-002
2.865822e+003;9.417572e-002
2.867751e+003;9.233204e-002
2.869679e+003;9.037234e-002
2.871608e+003;8.855619e-002
2.873536e+003;8.661266e-002
2.875465e+003;8.399630e-002
2.877394e+003;8.134264e-002
2.879322e+003;7.924517e-002
2.881251e+003;7.757179e-002
2.883179e+003;7.632986e-002
2.885108e+003;7.582308e-002
2.887036e+003;7.615538e-002
2.888965e+003;7.716896e-002
2.890893e+003;7.834332e-002
2.892822e+003;7.984547e-002
2.894750e+003;8.174785e-002
2.896679e+003;8.350517e-002
2.898608e+003;8.485700e-002
2.900536e+003;8.564583e-002
2.902465e+003;8.618352e-002
2.904393e+003;8.705622e-002
2.906322e+003;8.826933e-002
2.908250e+003;8.968408e-002
2.910179e+003;9.117768e-002
2.912107e+003;9.308723e-002
2.914036e+003;9.485185e-002
2.915965e+003;9.655894e-002
2.917893e+003;9.861583e-002
2.919822e+003;1.017125e-001
2.921750e+003;1.051041e-001
2.923679e+003;1.081418e-001
2.925607e+003;1.110485e-001
2.927536e+003;1.135581e-001
2.929464e+003;1.157121e-001
2.931393e+003;1.175701e-001
2.933322e+003;1.185094e-001
2.935250e+003;1.186710e-001
2.937178e+003;1.176602e-001
2.939107e+003;1.154963e-001
2.941036e+003;1.128451e-001
2.942964e+003;1.097868e-001
2.944893e+003;1.063157e-001
2.946821e+003;1.018500e-001
2.948750e+003;9.626426e-002
2.950678e+003;9.089467e-002
2.952607e+003;8.579349e-002
2.954535e+003;8.077434e-002
2.956464e+003;7.602423e-002
2.958393e+003;7.206442e-002
2.960321e+003;6.869113e-002
2.962250e+003;6.559750e-002
2.964178e+003;6.323218e-002
2.966107e+003;6.120291e-002
2.968035e+003;5.941939e-002
2.969964e+003;5.747476e-002
2.971892e+003;5.534985e-002
2.973821e+003;5.358997e-002
2.975750e+003;5.219673e-002
2.977678e+003;5.090223e-002
2.979607e+003;4.943655e-002
2.981535e+003;4.841582e-002
2.983464e+003;4.759845e-002
2.985392e+003;4.663710e-002
2.987321e+003;4.615513e-002
2.989249e+003;4.584792e-002
2.991178e+003;4.536834e-002
2.993106e+003;4.483807e-002
2.995035e+003;4.448851e-002
2.996964e+003;4.424854e-002
2.998892e+003;4.404046e-002
3.000821e+003;4.384450e-002
3.002749e+003;4.370986e-002
3.004678e+003;4.400427e-002
3.006606e+003;4.429514e-002
3.008535e+003;4.423665e-002
3.010463e+003;4.387896e-002
3.012392e+003;4.374522e-002
3.014321e+003;4.432287e-002
3.016249e+003;4.486361e-002
3.018177e+003;4.491049e-002
3.020106e+003;4.532417e-002
3.022035e+003;4.589841e-002
3.023963e+003;4.603974e-002
3.025892e+003;4.608089e-002
3.027820e+003;4.644973e-002
3.029749e+003;4.699615e-002
3.031677e+003;4.756754e-002
3.033606e+003;4.811918e-002
3.035534e+003;4.839281e-002
3.037463e+003;4.902369e-002
3.039392e+003;4.954416e-002
3.041320e+003;5.002570e-002
3.043249e+003;5.081529e-002
3.045177e+003;5.176631e-002
3.047106e+003;5.253446e-002
3.049034e+003;5.294143e-002
3.050963e+003;5.347153e-002
3.052891e+003;5.409940e-002
3.054820e+003;5.482297e-002
3.056749e+003;5.559603e-002
3.058677e+003;5.628212e-002
3.060606e+003;5.670643e-002
3.062534e+003;5.674377e-002
3.064463e+003;5.685185e-002
3.066391e+003;5.757076e-002
3.068320e+003;5.812352e-002
3.070248e+003;5.799391e-002
3.072177e+003;5.760432e-002
3.074105e+003;5.774285e-002
3.076034e+003;5.794412e-002
3.077963e+003;5.797415e-002
3.079891e+003;5.779644e-002
3.081820e+003;5.769070e-002
3.083748e+003;5.765226e-002
3.085677e+003;5.741304e-002
3.087605e+003;5.681431e-002
3.089534e+003;5.627570e-002
3.091462e+003;5.585456e-002
3.093391e+003;5.525655e-002
3.095320e+003;5.483049e-002
3.097248e+003;5.456438e-002
3.099177e+003;5.423066e-002
3.101105e+003;5.399073e-002
3.103034e+003;5.320359e-002
3.104962e+003;5.240076e-002
3.106891e+003;5.191027e-002
3.108819e+003;5.128082e-002
3.110748e+003;5.074843e-002
3.112677e+003;5.037700e-002
3.114605e+003;4.998287e-002
3.116533e+003;4.964300e-002
3.118462e+003;4.927630e-002
3.120391e+003;4.901178e-002
3.122319e+003;4.854730e-002
3.124248e+003;4.801699e-002
3.126176e+003;4.807498e-002
3.128105e+003;4.811851e-002
3.130033e+003;4.803812e-002
3.131962e+003;4.789137e-002
3.133890e+003;4.778301e-002
3.135819e+003;4.795671e-002
3.137748e+003;4.813140e-002
3.139676e+003;4.788589e-002
3.141605e+003;4.756636e-002
3.143533e+003;4.752647e-002
3.145462e+003;4.800781e-002
3.147390e+003;4.847005e-002
3.149319e+003;4.865784e-002
3.151247e+003;4.914470e-002
3.153176e+003;4.938465e-002
3.155104e+003;4.929099e-002
3.157033e+003;4.973416e-002
3.158962e+003;5.012903e-002
3.160890e+003;5.034284e-002
3.162819e+003;5.082288e-002
3.164747e+003;5.126270e-002
3.166676e+003;5.122296e-002
3.168604e+003;5.143734e-002
3.170533e+003;5.248589e-002
3.172461e+003;5.329933e-002
3.174390e+003;5.357232e-002
3.176319e+003;5.360508e-002
3.178247e+003;5.408161e-002
3.180176e+003;5.508793e-002
3.182104e+003;5.585068e-002
3.184033e+003;5.657223e-002
3.185961e+003;5.688471e-002
3.187890e+003;5.692830e-002
3.189818e+003;5.715921e-002
3.191747e+003;5.765052e-002
3.193676e+003;5.819261e-002
3.195604e+003;5.845425e-002
3.197532e+003;5.880728e-002
3.199461e+003;5.897496e-002
3.201390e+003;5.912046e-002
3.203318e+003;5.959248e-002
3.205247e+003;5.967481e-002
3.207175e+003;5.982853e-002
3.209104e+003;6.027121e-002
3.211032e+003;6.084374e-002
3.212961e+003;6.142640e-002
3.214889e+003;6.202475e-002
3.216818e+003;6.248954e-002
3.218747e+003;6.275653e-002
3.220675e+003;6.329063e-002
3.222604e+003;6.405581e-002
3.224532e+003;6.470218e-002
3.226461e+003;6.552008e-002
3.228389e+003;6.634555e-002
3.230318e+003;6.711605e-002
3.232246e+003;6.797185e-002
3.234175e+003;6.890112e-002
3.236104e+003;7.022275e-002
3.238032e+003;7.160027e-002
3.239961e+003;7.294449e-002
3.241889e+003;7.441381e-002
3.243818e+003;7.566017e-002
3.245746e+003;7.692349e-002
3.247675e+003;7.870063e-002
3.249603e+003;8.029728e-002
3.251532e+003;8.180841e-002
3.253460e+003;8.336961e-002
3.255389e+003;8.490217e-002
3.257318e+003;8.676144e-002
3.259246e+003;8.865302e-002
3.261175e+003;9.072147e-002
3.263103e+003;9.288681e-002
3.265032e+003;9.510840e-002
3.266960e+003;9.687634e-002
3.268889e+003;9.840050e-002
3.270817e+003;1.005646e-001
3.272746e+003;1.029038e-001
3.274675e+003;1.048426e-001
3.276603e+003;1.066758e-001
3.278531e+003;1.088225e-001
3.280460e+003;1.108060e-001
3.282389e+003;1.128193e-001
3.284317e+003;1.148080e-001
3.286246e+003;1.168727e-001
3.288174e+003;1.189700e-001
3.290103e+003;1.199103e-001
3.292031e+003;1.202986e-001
3.293960e+003;1.209638e-001
3.295888e+003;1.211248e-001
3.297817e+003;1.202194e-001
3.299746e+003;1.183804e-001
3.301674e+003;1.161477e-001
3.303603e+003;1.137554e-001
3.305531e+003;1.112994e-001
3.307460e+003;1.083810e-001
3.309388e+003;1.053178e-001
3.311317e+003;1.023794e-001
3.313245e+003;9.942274e-002
3.315174e+003;9.658695e-002
3.317103e+003;9.367216e-002
3.319031e+003;9.061255e-002
3.320960e+003;8.782144e-002
3.322888e+003;8.550658e-002
3.324817e+003;8.326272e-002
3.326745e+003;8.072075e-002
3.328674e+003;7.807776e-002
3.330602e+003;7.582723e-002
3.332531e+003;7.411531e-002
3.334459e+003;7.227933e-002
3.336388e+003;7.039463e-002
3.338317e+003;6.839409e-002
3.340245e+003;6.647810e-002
3.342174e+003;6.502383e-002
3.344102e+003;6.366423e-002
3.346031e+003;6.231086e-002
3.347959e+003;6.075356e-002
3.349888e+003;5.917571e-002
3.351816e+003;5.769142e-002
3.353745e+003;5.633244e-002
3.355674e+003;5.528541e-002
3.357602e+003;5.451828e-002
3.359531e+003;5.359758e-002
3.361459e+003;5.251468e-002
3.363388e+003;5.159489e-002
3.365316e+003;5.072605e-002
3.367245e+003;4.973792e-002
3.369173e+003;4.882940e-002
3.371102e+003;4.828408e-002
3.373031e+003;4.768194e-002
3.374959e+003;4.728807e-002
3.376887e+003;4.708329e-002
3.378816e+003;4.679546e-002
3.380745e+003;4.637076e-002
3.382673e+003;4.571784e-002
3.384602e+003;4.518766e-002
3.386530e+003;4.494382e-002
3.388459e+003;4.451498e-002
3.390387e+003;4.373796e-002
3.392316e+003;4.323047e-002
3.394244e+003;4.316057e-002
3.396173e+003;4.292598e-002
3.398102e+003;4.256563e-002
3.400030e+003;4.228315e-002
3.401959e+003;4.216761e-002
3.403887e+003;4.200662e-002
3.405816e+003;4.168015e-002
3.407744e+003;4.131985e-002
3.409673e+003;4.069908e-002
3.411601e+003;4.052269e-002
3.413530e+003;4.052386e-002
3.415458e+003;4.020086e-002
3.417387e+003;3.989834e-002
3.419316e+003;4.010434e-002
3.421244e+003;4.022285e-002
3.423173e+003;3.986176e-002
3.425101e+003;3.958118e-002
3.427030e+003;3.958742e-002
3.428958e+003;3.909248e-002
3.430887e+003;3.892849e-002
3.432815e+003;3.905601e-002
3.434744e+003;3.877156e-002
3.436673e+003;3.844979e-002
3.438601e+003;3.864308e-002
3.440530e+003;3.893795e-002
3.442458e+003;3.892773e-002
3.444387e+003;3.857496e-002
3.446315e+003;3.841576e-002
3.448244e+003;3.842112e-002
3.450172e+003;3.783929e-002
3.452101e+003;3.763635e-002
3.454030e+003;3.808269e-002
3.455958e+003;3.778847e-002
3.457886e+003;3.707599e-002
3.459815e+003;3.677816e-002
3.461744e+003;3.699019e-002
3.463672e+003;3.697150e-002
3.465601e+003;3.643243e-002
3.467529e+003;3.620479e-002
3.469458e+003;3.625438e-002
3.471386e+003;3.617976e-002
3.473315e+003;3.585131e-002
3.475243e+003;3.548955e-002
3.477172e+003;3.544209e-002
3.479101e+003;3.538968e-002
3.481029e+003;3.528911e-002
3.482958e+003;3.529105e-002
3.484886e+003;3.533335e-002
3.486815e+003;3.540399e-002
3.488743e+003;3.513712e-002
3.490672e+003;3.497379e-002
3.492600e+003;3.480970e-002
3.494529e+003;3.450567e-002
3.496458e+003;3.442891e-002
3.498386e+003;3.425348e-002
3.500315e+003;3.451410e-002
3.502243e+003;3.468465e-002
3.504172e+003;3.424663e-002
3.506100e+003;3.395833e-002
3.508029e+003;3.396184e-002
3.509957e+003;3.368296e-002
3.511886e+003;3.357237e-002
3.513814e+003;3.345805e-002
3.515743e+003;3.304847e-002
3.517672e+003;3.266200e-002
3.519600e+003;3.220361e-002
3.521529e+003;3.225996e-002
3.523457e+003;3.226378e-002
3.525386e+003;3.198018e-002
3.527314e+003;3.165645e-002
3.529243e+003;3.116113e-002
3.531171e+003;3.139536e-002
3.533100e+003;3.187155e-002
3.535029e+003;3.139145e-002
3.536957e+003;3.061855e-002
3.538885e+003;3.037483e-002
3.540814e+003;3.035773e-002
3.542743e+003;2.984040e-002
3.544671e+003;2.936100e-002
3.546600e+003;2.928323e-002
3.548528e+003;2.946978e-002
3.550457e+003;2.905506e-002
3.552385e+003;2.858230e-002
3.554314e+003;2.871386e-002
3.556242e+003;2.842588e-002
3.558171e+003;2.796868e-002
3.560100e+003;2.746992e-002
3.562028e+003;2.681681e-002
3.563957e+003;2.660286e-002
3.565885e+003;2.684839e-002
3.567814e+003;2.713201e-002
3.569742e+003;2.694201e-002
3.571671e+003;2.647588e-002
3.573599e+003;2.596272e-002
3.575528e+003;2.541774e-002
3.577457e+003;2.501013e-002
3.579385e+003;2.477564e-002
3.581314e+003;2.443981e-002
3.583242e+003;2.373727e-002
3.585171e+003;2.312783e-002
3.587099e+003;2.309586e-002
3.589028e+003;2.319668e-002
3.590956e+003;2.269436e-002
3.592885e+003;2.233175e-002
3.594813e+003;2.234741e-002
3.596742e+003;2.229070e-002
3.598671e+003;2.210026e-002
3.600599e+003;2.152563e-002
3.602528e+003;2.148013e-002
3.604456e+003;2.171052e-002
3.606385e+003;2.135931e-002
3.608313e+003;2.079991e-002
3.610242e+003;2.020211e-002
3.612170e+003;1.958180e-002
3.614099e+003;1.975400e-002
3.616028e+003;2.021419e-002
3.617956e+003;2.013613e-002
3.619885e+003;1.923715e-002
3.621813e+003;1.855023e-002
3.623742e+003;1.849705e-002
3.625670e+003;1.834712e-002
3.627599e+003;1.811702e-002
3.629527e+003;1.818287e-002
3.631456e+003;1.828370e-002
3.633385e+003;1.781123e-002
3.635313e+003;1.729951e-002
3.637241e+003;1.701859e-002
3.639170e+003;1.689011e-002
3.641099e+003;1.684878e-002
3.643027e+003;1.705898e-002
3.644956e+003;1.674225e-002
3.646884e+003;1.613587e-002
3.648813e+003;1.586110e-002
3.650741e+003;1.591722e-002
3.652670e+003;1.595032e-002
3.654598e+003;1.586044e-002
3.656527e+003;1.560789e-002
3.658456e+003;1.533832e-002
3.660384e+003;1.556427e-002
3.662313e+003;1.578072e-002
3.664241e+003;1.580082e-002
3.666170e+003;1.555675e-002
3.668098e+003;1.526463e-002
3.670027e+003;1.495658e-002
3.671955e+003;1.468467e-002
3.673884e+003;1.438821e-002
3.675813e+003;1.449176e-002
3.677741e+003;1.473232e-002
3.679669e+003;1.441670e-002
3.681598e+003;1.420590e-002
3.683527e+003;1.409331e-002
3.685455e+003;1.375282e-002
3.687384e+003;1.335874e-002
3.689312e+003;1.326564e-002
3.691241e+003;1.317464e-002
3.693169e+003;1.311545e-002
3.695098e+003;1.308448e-002
3.697026e+003;1.265369e-002
3.698955e+003;1.208787e-002
3.700884e+003;1.202951e-002
3.702812e+003;1.215431e-002
3.704741e+003;1.204079e-002
3.706669e+003;1.182235e-002
3.708598e+003;1.176770e-002
3.710526e+003;1.198503e-002
3.712455e+003;1.209496e-002
3.714383e+003;1.207979e-002
3.716312e+003;1.217271e-002
3.718240e+003;1.242750e-002
3.720169e+003;1.235219e-002
3.722098e+003;1.214266e-002
3.724026e+003;1.158237e-002
3.725955e+003;1.160476e-002
3.727883e+003;1.183798e-002
3.729812e+003;1.139763e-002
3.731740e+003;1.138212e-002
3.733669e+003;1.169251e-002
3.735597e+003;1.188425e-002
3.737526e+003;1.225256e-002
3.739455e+003;1.226902e-002
3.741383e+003;1.177669e-002
3.743312e+003;1.124993e-002
3.745240e+003;1.129019e-002
3.747169e+003;1.163849e-002
3.749097e+003;1.180757e-002
3.751026e+003;1.166579e-002
3.752954e+003;1.167157e-002
3.754883e+003;1.200901e-002
3.756812e+003;1.212896e-002
3.758740e+003;1.216750e-002
3.760668e+003;1.212320e-002
3.762597e+003;1.215986e-002
3.764526e+003;1.207547e-002
3.766454e+003;1.203847e-002
3.768383e+003;1.227505e-002
3.770311e+003;1.246037e-002
3.772240e+003;1.206365e-002
3.774168e+003;1.197014e-002
3.776097e+003;1.227198e-002
3.778025e+003;1.200727e-002
3.779954e+003;1.195049e-002
3.781883e+003;1.203350e-002
3.783811e+003;1.200597e-002
3.785740e+003;1.215986e-002
3.787668e+003;1.212576e-002
3.789597e+003;1.200907e-002
3.791525e+003;1.221204e-002
3.793454e+003;1.229441e-002
3.795382e+003;1.210542e-002
3.797311e+003;1.207687e-002
3.799240e+003;1.188871e-002
3.801168e+003;1.167525e-002
3.803097e+003;1.173553e-002
3.805025e+003;1.127927e-002
3.806954e+003;1.089491e-002
3.808882e+003;1.140804e-002
3.810811e+003;1.213462e-002
3.812739e+003;1.265396e-002
3.814668e+003;1.252820e-002
3.816596e+003;1.243551e-002
3.818525e+003;1.241107e-002
3.820454e+003;1.200482e-002
3.822382e+003;1.222137e-002
3.824311e+003;1.264952e-002
3.826239e+003;1.290268e-002
3.828168e+003;1.304682e-002
3.830096e+003;1.285985e-002
3.832025e+003;1.278859e-002
3.833953e+003;1.287295e-002
3.835882e+003;1.256752e-002
3.837811e+003;1.225999e-002
3.839739e+003;1.259010e-002
3.841667e+003;1.283319e-002
3.843596e+003;1.258120e-002
3.845525e+003;1.297461e-002
3.847453e+003;1.383549e-002
3.849382e+003;1.376267e-002
3.851310e+003;1.283043e-002
3.853239e+003;1.253761e-002
3.855167e+003;1.300626e-002
3.857096e+003;1.330694e-002
3.859024e+003;1.294989e-002
3.860953e+003;1.295075e-002
3.862882e+003;1.339246e-002
3.864810e+003;1.324750e-002
3.866739e+003;1.290791e-002
3.868667e+003;1.255211e-002
3.870596e+003;1.292883e-002
3.872524e+003;1.349103e-002
3.874453e+003;1.342828e-002
3.876381e+003;1.345818e-002
3.878310e+003;1.355040e-002
3.880239e+003;1.335262e-002
3.882167e+003;1.299735e-002
3.884096e+003;1.282227e-002
3.886024e+003;1.322854e-002
3.887953e+003;1.386610e-002
3.889881e+003;1.405381e-002
3.891810e+003;1.380063e-002
3.893738e+003;1.348375e-002
3.895667e+003;1.333957e-002
3.897595e+003;1.351212e-002
3.899524e+003;1.337439e-002
3.901453e+003;1.322164e-002
3.903381e+003;1.326639e-002
3.905310e+003;1.322181e-002
3.907238e+003;1.323096e-002
3.909167e+003;1.365057e-002
3.911095e+003;1.412384e-002
3.913024e+003;1.405094e-002
3.914952e+003;1.418741e-002
3.916881e+003;1.453188e-002
3.918810e+003;1.500961e-002
3.920738e+003;1.501324e-002
3.922667e+003;1.468629e-002
3.924595e+003;1.443695e-002
3.926524e+003;1.446572e-002
3.928452e+003;1.462014e-002
3.930381e+003;1.527482e-002
3.932309e+003;1.578567e-002
3.934238e+003;1.560912e-002
3.936167e+003;1.530890e-002
3.938095e+003;1.501283e-002
3.940023e+003;1.491166e-002
3.941952e+003;1.444507e-002
3.943881e+003;1.491814e-002
3.945809e+003;1.614571e-002
3.947738e+003;1.640797e-002
3.949666e+003;1.598717e-002
3.951595e+003;1.599937e-002
3.953523e+003;1.597947e-002
3.955452e+003;1.557718e-002
3.957380e+003;1.564416e-002
3.959309e+003;1.610630e-002
3.961238e+003;1.613580e-002
3.963166e+003;1.596359e-002
3.965095e+003;1.602351e-002
3.967023e+003;1.586532e-002
3.968952e+003;1.588189e-002
3.970880e+003;1.634411e-002
3.972809e+003;1.695009e-002
3.974737e+003;1.688694e-002
3.976666e+003;1.690737e-002
3.978594e+003;1.712142e-002
3.980523e+003;1.692308e-002
3.982452e+003;1.649528e-002
3.984380e+003;1.626781e-002
3.986309e+003;1.638619e-002
3.988237e+003;1.657379e-002
3.990166e+003;1.726562e-002
3.992094e+003;1.784796e-002
3.994023e+003;1.752490e-002
3.995951e+003;1.724562e-002
3.997880e+003;1.728972e-002
3.999809e+003;1.769953e-002
4.001737e+003;0.000000e+000
