3.992094e+002;0.000000e+000
4.011380e+002;0.000000e+000
4.030665e+002;0.000000e+000
4.049951e+002;0.000000e+000
4.069236e+002;0.000000e+000
4.088522e+002;0.000000e+000
4.107807e+002;0.000000e+000
4.127093e+002;0.000000e+000
4.146378e+002;0.000000e+000
4.165664e+002;0.000000e+000
4.184949e+002;0.000000e+000
4.204235e+002;0.000000e+000
4.223520e+002;0.000000e+000
4.242806e+002;0.000000e+000
4.262091e+002;0.000000e+000
4.281377e+002;0.000000e+000
4.300662e+002;0.000000e+000
4.319948e+002;0.000000e+000
4.339233e+002;0.000000e+000
4.358519e+002;0.000000e+000
4.377804e+002;0.000000e+000
4.397090e+002;0.000000e+000
4.416375e+002;0.000000e+000
4.435660e+002;0.000000e+000
4.454946e+002;0.000000e+000
4.474232e+002;0.000000e+000
4.493517e+002;0.000000e+000
4.512802e+002;0.000000e+000
4.532088e+002;0.000000e+000
4.551373e+002;0.000000e+000
4.570659e+002;0.000000e+000
4.589944e+002;0.000000e+000
4.609230e+002;0.000000e+000
4.628515e+002;0.000000e+000
4.647801e+002;0.000000e+000
4.667086e+002;0.000000e+000
4.686372e+002;0.000000e+000
4.705657e+002;0.000000e+000
4.724943e+002;0.000000e+000
4.744228e+002;0.000000e+000
4.763513e+002;0.000000e+000
4.782799e+002;0.000000e+000
4.802085e+002;0.000000e+000
4.821370e+002;0.000000e+000
4.840656e+002;0.000000e+000
4.859941e+002;0.000000e+000
4.879226e+002;0.000000e+000
4.898512e+002;0.000000e+000
4.917798e+002;0.000000e+000
4.937083e+002;0.000000e+000
4.956368e+002;0.000000e+000
4.975654e+002;0.000000e+000
4.994939e+002;0.000000e+000
5.014225e+002;0.000000e+000
5.033510e+002;0.000000e+000
5.052796e+002;0.000000e+000
5.072081e+002;0.000000e+000
5.091367e+002;0.000000e+000
5.110652e+002;0.000000e+000
5.129938e+002;0.000000e+000
5.149223e+002;0.000000e+000
5.168509e+002;0.000000e+000
5.187794e+002;0.000000e+000
5.207079e+002;0.000000e+000
5.226365e+002;0.000000e+000
5.245651e+002;0.000000e+000
5.264936e+002;0.000000e+000
5.284222e+002;0.000000e+000
5.303507e+002;0.000000e+000
5.322792e+002;0.000000e+000
5.342078e+002;0.000000e+000
5.361364e+002;0.000000e+000
5.380649e+002;0.000000e+000
5.399935e+002;0.000000e+000
5.419220e+002;0.000000e+000
5.438505e+002;0.000000e+000
5.457791e+002;0.000000e+000
5.477076e+002;0.000000e+000
5.496362e+002;0.000000e+000
5.515648e+002;0.000000e+000
5.534933e+002;0.000000e+000
5.554218e+002;0.000000e+000
5.573504e+002;0.000000e+000
5.592789e+002;0.000000e+000
5.612075e+002;0.000000e+000
5.631360e+002;0.000000e+000
5.650646e+002;0.000000e+000
5.669931e+002;0.000000e+000
5.689217e+002;0.000000e+000
5.708502e+002;0.000000e+000
5.727787e+002;0.000000e+000
5.747073e+002;0.000000e+000
5.766359e+002;0.000000e+000
5.785644e+002;0.000000e+000
5.804930e+002;0.000000e+000
5.824215e+002;0.000000e+000
5.843500e+002;0.000000e+000
5.862786e+002;0.000000e+000
5.882072e+002;0.000000e+000
5.901357e+002;0.000000e+000
5.920643e+002;0.000000e+000
5.939928e+002;0.000000e+000
5.959213e+002;0.000000e+000
5.978499e+002;0.000000e+000
5.997784e+002;1.330188e-001
6.017070e+002;1.292760e-001
6.036355e+002;1.231176e-001
6.055641e+002;1.159926e-001
6.074926e+002;1.173236e-001
6.094211e+002;1.239679e-001
6.113497e+002;1.256530e-001
6.132783e+002;1.215948e-001
6.152068e+002;1.175780e-001
6.171354e+002;1.170511e-001
6.190639e+002;1.181927e-001
6.209924e+002;1.201466e-001
6.229210e+002;1.239703e-001
6.248495e+002;1.256007e-001
6.267781e+002;1.253331e-001
6.287067e+002;1.280741e-001
6.306352e+002;1.251460e-001
6.325637e+002;1.214548e-001
6.344923e+002;1.215198e-001
6.364208e+002;1.242231e-001
6.383494e+002;1.261251e-001
6.402780e+002;1.246450e-001
6.422065e+002;1.251892e-001
6.441350e+002;1.270419e-001
6.460636e+002;1.288534e-001
6.479921e+002;1.322314e-001
6.499207e+002;1.360061e-001
6.518492e+002;1.373577e-001
6.537778e+002;1.376234e-001
6.557063e+002;1.427717e-001
6.576349e+002;1.468396e-001
6.595634e+002;1.482960e-001
6.614919e+002;1.518835e-001
6.634205e+002;1.544269e-001
6.653491e+002;1.551019e-001
6.672776e+002;1.568754e-001
6.692062e+002;1.594627e-001
6.711347e+002;1.601001e-001
6.730632e+002;1.617759e-001
6.749918e+002;1.633661e-001
6.769203e+002;1.648313e-001
6.788489e+002;1.677050e-001
6.807775e+002;1.700399e-001
6.827060e+002;1.716515e-001
6.846345e+002;1.728594e-001
6.865631e+002;1.724790e-001
6.884916e+002;1.712260e-001
6.904202e+002;1.701319e-001
6.923488e+002;1.680730e-001
6.942773e+002;1.646114e-001
6.962058e+002;1.612265e-001
6.981344e+002;1.578468e-001
7.000629e+002;1.551561e-001
7.019915e+002;1.525782e-001
7.039200e+002;1.501097e-001
7.058486e+002;1.474298e-001
7.077771e+002;1.465670e-001
7.097057e+002;1.471212e-001
7.116342e+002;1.457951e-001
7.135627e+002;1.428600e-001
7.154913e+002;1.404541e-001
7.174199e+002;1.393593e-001
7.193484e+002;1.385101e-001
7.212770e+002;1.377217e-001
7.232055e+002;1.381427e-001
7.251340e+002;1.399628e-001
7.270626e+002;1.408530e-001
7.289911e+002;1.391102e-001
7.309197e+002;1.346722e-001
7.328483e+002;1.280605e-001
7.347768e+002;1.213141e-001
7.367053e+002;1.156114e-001
7.386339e+002;1.103247e-001
7.405624e+002;1.069628e-001
7.424910e+002;1.046189e-001
7.444196e+002;1.021510e-001
7.463481e+002;9.948781e-002
7.482766e+002;9.712606e-002
7.502052e+002;9.575422e-002
7.521337e+002;9.454107e-002
7.540623e+002;9.312989e-002
7.559908e+002;9.142557e-002
7.579194e+002;8.997575e-002
7.598479e+002;8.918244e-002
7.617765e+002;8.771709e-002
7.637050e+002;8.508696e-002
7.656335e+002;8.376093e-002
7.675621e+002;8.425216e-002
7.694907e+002;8.377174e-002
7.714192e+002;8.200102e-002
7.733478e+002;8.099545e-002
7.752763e+002;8.019110e-002
7.772048e+002;7.878523e-002
7.791334e+002;7.718696e-002
7.810620e+002;7.599960e-002
7.829905e+002;7.484929e-002
7.849191e+002;7.367086e-002
7.868476e+002;7.290342e-002
7.887761e+002;7.148443e-002
7.907047e+002;7.022388e-002
7.926332e+002;7.017975e-002
7.945618e+002;6.870320e-002
7.964903e+002;6.661543e-002
7.984189e+002;6.523309e-002
8.003474e+002;6.457740e-002
8.022759e+002;6.344874e-002
8.042045e+002;6.264564e-002
8.061331e+002;6.248189e-002
8.080616e+002;6.150290e-002
8.099902e+002;6.025275e-002
8.119187e+002;5.947908e-002
8.138472e+002;5.846039e-002
8.157758e+002;5.794450e-002
8.177043e+002;5.766229e-002
8.196329e+002;5.690968e-002
8.215615e+002;5.615427e-002
8.234900e+002;5.614959e-002
8.254185e+002;5.732588e-002
8.273471e+002;5.845710e-002
8.292756e+002;5.973743e-002
8.312042e+002;6.086520e-002
8.331328e+002;6.126090e-002
8.350613e+002;5.999692e-002
8.369898e+002;5.794170e-002
8.389184e+002;5.579593e-002
8.408469e+002;5.433413e-002
8.427755e+002;5.336796e-002
8.447040e+002;5.197077e-002
8.466326e+002;5.093811e-002
8.485611e+002;5.015592e-002
8.504897e+002;4.970106e-002
8.524182e+002;4.966518e-002
8.543467e+002;4.931378e-002
8.562753e+002;4.911269e-002
8.582039e+002;4.936738e-002
8.601324e+002;4.971708e-002
8.620610e+002;4.977589e-002
8.639895e+002;4.925759e-002
8.659180e+002;4.905177e-002
8.678466e+002;4.923784e-002
8.697751e+002;4.912697e-002
8.717037e+002;4.871492e-002
8.736323e+002;4.877449e-002
8.755608e+002;4.925009e-002
8.774893e+002;4.932440e-002
8.794179e+002;4.941086e-002
8.813464e+002;4.992343e-002
8.832750e+002;5.039553e-002
8.852036e+002;5.092097e-002
8.871321e+002;5.120790e-002
8.890606e+002;5.100394e-002
8.909892e+002;5.090737e-002
8.929177e+002;5.093498e-002
8.948463e+002;5.123638e-002
8.967748e+002;5.174802e-002
8.987034e+002;5.209974e-002
9.006319e+002;5.244543e-002
9.025605e+002;5.223317e-002
9.044890e+002;5.233389e-002
9.064175e+002;5.324711e-002
9.083461e+002;5.359080e-002
9.102747e+002;5.393055e-002
9.122032e+002;5.473829e-002
9.141318e+002;5.535323e-002
9.160603e+002;5.583704e-002
9.179888e+002;5.626424e-002
9.199174e+002;5.701304e-002
9.218459e+002;5.826923e-002
9.237745e+002;5.970093e-002
9.257031e+002;6.139323e-002
9.276316e+002;6.280240e-002
9.295601e+002;6.271232e-002
9.314887e+002;6.145476e-002
9.334172e+002;5.983705e-002
9.353458e+002;5.828002e-002
9.372744e+002;5.747831e-002
9.392029e+002;5.708245e-002
9.411314e+002;5.693741e-002
9.430600e+002;5.777067e-002
9.449885e+002;5.919667e-002
9.469171e+002;6.088536e-002
9.488456e+002;6.289089e-002
9.507742e+002;6.422726e-002
9.527027e+002;6.481364e-002
9.546313e+002;6.583471e-002
9.565598e+002;6.749923e-002
9.584883e+002;6.885158e-002
9.604169e+002;6.909776e-002
9.623455e+002;6.832036e-002
9.642740e+002;6.704359e-002
9.662026e+002;6.634381e-002
9.681311e+002;6.650019e-002
9.700596e+002;6.696499e-002
9.719882e+002;6.749969e-002
9.739167e+002;6.730945e-002
9.758453e+002;6.657094e-002
9.777739e+002;6.563438e-002
9.797024e+002;6.474944e-002
9.816309e+002;6.336819e-002
9.835595e+002;6.195340e-002
9.854880e+002;6.116583e-002
9.874166e+002;6.039057e-002
9.893452e+002;5.936222e-002
9.912737e+002;5.841771e-002
9.932022e+002;5.773948e-002
9.951307e+002;5.720951e-002
9.970593e+002;5.682576e-002
9.989879e+002;5.670636e-002
1.000916e+003;5.652309e-002
1.002845e+003;5.633568e-002
1.004773e+003;5.621385e-002
1.006702e+003;5.568593e-002
1.008631e+003;5.523785e-002
1.010559e+003;5.525527e-002
1.012488e+003;5.520353e-002
1.014416e+003;5.508469e-002
1.016345e+003;5.490305e-002
1.018273e+003;5.520112e-002
1.020202e+003;5.634575e-002
1.022130e+003;5.742060e-002
1.024059e+003;5.849660e-002
1.025988e+003;6.005794e-002
1.027916e+003;6.087926e-002
1.029845e+003;6.106308e-002
1.031773e+003;6.039529e-002
1.033702e+003;5.922215e-002
1.035630e+003;5.832292e-002
1.037559e+003;5.779379e-002
1.039487e+003;5.720910e-002
1.041416e+003;5.636699e-002
1.043344e+003;5.558258e-002
1.045273e+003;5.513491e-002
1.047202e+003;5.518325e-002
1.049130e+003;5.590536e-002
1.051059e+003;5.665478e-002
1.052987e+003;5.747302e-002
1.054916e+003;5.878467e-002
1.056844e+003;6.040043e-002
1.058773e+003;6.224883e-002
1.060701e+003;6.366158e-002
1.062630e+003;6.454396e-002
1.064558e+003;6.578197e-002
1.066487e+003;6.719936e-002
1.068416e+003;6.806660e-002
1.070344e+003;6.828628e-002
1.072273e+003;6.899758e-002
1.074201e+003;6.939323e-002
1.076130e+003;6.900255e-002
1.078058e+003;6.844025e-002
1.079987e+003;6.836357e-002
1.081915e+003;6.794178e-002
1.083844e+003;6.685525e-002
1.085773e+003;6.587347e-002
1.087701e+003;6.561526e-002
1.089630e+003;6.514204e-002
1.091558e+003;6.499308e-002
1.093487e+003;6.575583e-002
1.095415e+003;6.625616e-002
1.097344e+003;6.641755e-002
1.099272e+003;6.699832e-002
1.101201e+003;6.850088e-002
1.103129e+003;7.074521e-002
1.105058e+003;7.297467e-002
1.106987e+003;7.450745e-002
1.108915e+003;7.536140e-002
1.110844e+003;7.643708e-002
1.112772e+003;7.769648e-002
1.114701e+003;7.861918e-002
1.116629e+003;7.931890e-002
1.118558e+003;7.943662e-002
1.120486e+003;7.911265e-002
1.122415e+003;7.797042e-002
1.124344e+003;7.578888e-002
1.126272e+003;7.262083e-002
1.128201e+003;6.926379e-002
1.130129e+003;6.643520e-002
1.132058e+003;6.448395e-002
1.133986e+003;6.344070e-002
1.135915e+003;6.279363e-002
1.137843e+003;6.317262e-002
1.139772e+003;6.403926e-002
1.141700e+003;6.522751e-002
1.143629e+003;6.712162e-002
1.145557e+003;6.890201e-002
1.147486e+003;7.104321e-002
1.149415e+003;7.394093e-002
1.151343e+003;7.658061e-002
1.153272e+003;7.955960e-002
1.155200e+003;8.291536e-002
1.157129e+003;8.689446e-002
1.159057e+003;9.183441e-002
1.160986e+003;9.747565e-002
1.162914e+003;1.039360e-001
1.164843e+003;1.105039e-001
1.166771e+003;1.154731e-001
1.168700e+003;1.176933e-001
1.170629e+003;1.173477e-001
1.172557e+003;1.137598e-001
1.174486e+003;1.078790e-001
1.176414e+003;1.019711e-001
1.178343e+003;9.750170e-002
1.180271e+003;9.428880e-002
1.182200e+003;9.233158e-002
1.184128e+003;9.249907e-002
1.186057e+003;9.450161e-002
1.187986e+003;9.693963e-002
1.189914e+003;9.988435e-002
1.191843e+003;1.036897e-001
1.193771e+003;1.083362e-001
1.195700e+003;1.131851e-001
1.197628e+003;1.177225e-001
1.199557e+003;1.203104e-001
1.201485e+003;1.190416e-001
1.203414e+003;1.157481e-001
1.205343e+003;1.130629e-001
1.207271e+003;1.115285e-001
1.209200e+003;1.106673e-001
1.211128e+003;1.105309e-001
1.213057e+003;1.101418e-001
1.214985e+003;1.086732e-001
1.216914e+003;1.062127e-001
1.218842e+003;1.028958e-001
1.220771e+003;1.002819e-001
1.222699e+003;1.001206e-001
1.224628e+003;1.021881e-001
1.226557e+003;1.054378e-001
1.228485e+003;1.095701e-001
1.230414e+003;1.142112e-001
1.232342e+003;1.188420e-001
1.234271e+003;1.224380e-001
1.236199e+003;1.241715e-001
1.238128e+003;1.243261e-001
1.240056e+003;1.241285e-001
1.241985e+003;1.239107e-001
1.243913e+003;1.232866e-001
1.245842e+003;1.229772e-001
1.247771e+003;1.235887e-001
1.249699e+003;1.249819e-001
1.251628e+003;1.274672e-001
1.253556e+003;1.303993e-001
1.255485e+003;1.331114e-001
1.257413e+003;1.362316e-001
1.259342e+003;1.386697e-001
1.261270e+003;1.397017e-001
1.263199e+003;1.394377e-001
1.265127e+003;1.368557e-001
1.267056e+003;1.317031e-001
1.268985e+003;1.256921e-001
1.270913e+003;1.210726e-001
1.272842e+003;1.186400e-001
1.274770e+003;1.174380e-001
1.276699e+003;1.169909e-001
1.278627e+003;1.165338e-001
1.280556e+003;1.151116e-001
1.282484e+003;1.130018e-001
1.284413e+003;1.110390e-001
1.286342e+003;1.092228e-001
1.288270e+003;1.080187e-001
1.290199e+003;1.075168e-001
1.292127e+003;1.071257e-001
1.294056e+003;1.066416e-001
1.295984e+003;1.060802e-001
1.297913e+003;1.054956e-001
1.299841e+003;1.053216e-001
1.301770e+003;1.050147e-001
1.303698e+003;1.043557e-001
1.305627e+003;1.036207e-001
1.307556e+003;1.025067e-001
1.309484e+003;1.013514e-001
1.311413e+003;1.002799e-001
1.313341e+003;9.913494e-002
1.315270e+003;9.813945e-002
1.317198e+003;9.710712e-002
1.319127e+003;9.629908e-002
1.321055e+003;9.559526e-002
1.322984e+003;9.499867e-002
1.324912e+003;9.470607e-002
1.326841e+003;9.505405e-002
1.328770e+003;9.548717e-002
1.330698e+003;9.600425e-002
1.332627e+003;9.638871e-002
1.334555e+003;9.659792e-002
1.336484e+003;9.681629e-002
1.338412e+003;9.710058e-002
1.340341e+003;9.753387e-002
1.342269e+003;9.852166e-002
1.344198e+003;9.965275e-002
1.346126e+003;1.005973e-001
1.348055e+003;1.015308e-001
1.349984e+003;1.025230e-001
1.351912e+003;1.038090e-001
1.353841e+003;1.052396e-001
1.355769e+003;1.065820e-001
1.357698e+003;1.083148e-001
1.359626e+003;1.102195e-001
1.361555e+003;1.117706e-001
1.363483e+003;1.135210e-001
1.365412e+003;1.155500e-001
1.367341e+003;1.170844e-001
1.369269e+003;1.181535e-001
1.371198e+003;1.186579e-001
1.373126e+003;1.182408e-001
1.375055e+003;1.168323e-001
1.376983e+003;1.145635e-001
1.378912e+003;1.116862e-001
1.380840e+003;1.086692e-001
1.382769e+003;1.056043e-001
1.384698e+003;1.022812e-001
1.386626e+003;9.892247e-002
1.388555e+003;9.664084e-002
1.390483e+003;9.504897e-002
1.392412e+003;9.362070e-002
1.394340e+003;9.245078e-002
1.396269e+003;9.194094e-002
1.398197e+003;9.257615e-002
1.400126e+003;9.410555e-002
1.402054e+003;9.597556e-002
1.403983e+003;9.871934e-002
1.405911e+003;1.026921e-001
1.407840e+003;1.076205e-001
1.409769e+003;1.136979e-001
1.411697e+003;1.203253e-001
1.413626e+003;1.261337e-001
1.415554e+003;1.297823e-001
1.417483e+003;1.302291e-001
1.419411e+003;1.283936e-001
1.421340e+003;1.260622e-001
1.423268e+003;1.232651e-001
1.425197e+003;1.215049e-001
1.427125e+003;1.217484e-001
1.429054e+003;1.231684e-001
1.430983e+003;1.254748e-001
1.432911e+003;1.278813e-001
1.434840e+003;1.287422e-001
1.436768e+003;1.283440e-001
1.438697e+003;1.282391e-001
1.440625e+003;1.275690e-001
1.442554e+003;1.265284e-001
1.444482e+003;1.257167e-001
1.446411e+003;1.255253e-001
1.448340e+003;1.262759e-001
1.450268e+003;1.280969e-001
1.452197e+003;1.300663e-001
1.454125e+003;1.314441e-001
1.456054e+003;1.328919e-001
1.457982e+003;1.374410e-001
1.459911e+003;1.441139e-001
1.461839e+003;1.482252e-001
1.463768e+003;1.470016e-001
1.465697e+003;1.410185e-001
1.467625e+003;1.334826e-001
1.469554e+003;1.272860e-001
1.471482e+003;1.237713e-001
1.473411e+003;1.235664e-001
1.475339e+003;1.245564e-001
1.477268e+003;1.240389e-001
1.479196e+003;1.215421e-001
1.481125e+003;1.169245e-001
1.483053e+003;1.111580e-001
1.484982e+003;1.057104e-001
1.486911e+003;1.024927e-001
1.488839e+003;1.015940e-001
1.490768e+003;1.026680e-001
1.492696e+003;1.050930e-001
1.494625e+003;1.072254e-001
1.496553e+003;1.098485e-001
1.498482e+003;1.139146e-001
1.500410e+003;1.186278e-001
1.502339e+003;1.237096e-001
1.504267e+003;1.278404e-001
1.506196e+003;1.318599e-001
1.508125e+003;1.382672e-001
1.510053e+003;1.456109e-001
1.511982e+003;1.525705e-001
1.513910e+003;1.596168e-001
1.515839e+003;1.666860e-001
1.517767e+003;1.744003e-001
1.519696e+003;1.822315e-001
1.521624e+003;1.908246e-001
1.523553e+003;2.006565e-001
1.525481e+003;2.104497e-001
1.527410e+003;2.203276e-001
1.529339e+003;2.301106e-001
1.531267e+003;2.389299e-001
1.533196e+003;2.464596e-001
1.535124e+003;2.530000e-001
1.537053e+003;2.565345e-001
1.538981e+003;2.565386e-001
1.540910e+003;2.549546e-001
1.542838e+003;2.512219e-001
1.544767e+003;2.444906e-001
1.546695e+003;2.359392e-001
1.548624e+003;2.259159e-001
1.550553e+003;2.152502e-001
1.552481e+003;2.048319e-001
1.554410e+003;1.948932e-001
1.556338e+003;1.856633e-001
1.558267e+003;1.762791e-001
1.560195e+003;1.690263e-001
1.562124e+003;1.633792e-001
1.564052e+003;1.565152e-001
1.565981e+003;1.489037e-001
1.567910e+003;1.412391e-001
1.569838e+003;1.334570e-001
1.571767e+003;1.266898e-001
1.573695e+003;1.200988e-001
1.575624e+003;1.131772e-001
1.577552e+003;1.082227e-001
1.579481e+003;1.048194e-001
1.581409e+003;1.015242e-001
1.583338e+003;9.883576e-002
1.585266e+003;9.711409e-002
1.587195e+003;9.605649e-002
1.589124e+003;9.588907e-002
1.591052e+003;9.696270e-002
1.592981e+003;9.881850e-002
1.594909e+003;1.010332e-001
1.596838e+003;1.037426e-001
1.598766e+003;1.074937e-001
1.600695e+003;1.122236e-001
1.602623e+003;1.179688e-001
1.604552e+003;1.246640e-001
1.606480e+003;1.319654e-001
1.608409e+003;1.398430e-001
1.610338e+003;1.483775e-001
1.612266e+003;1.575615e-001
1.614195e+003;1.674696e-001
1.616123e+003;1.786972e-001
1.618052e+003;1.934339e-001
1.619980e+003;2.097547e-001
1.621909e+003;2.257565e-001
1.623837e+003;2.422180e-001
1.625766e+003;2.594635e-001
1.627694e+003;2.769494e-001
1.629623e+003;2.951070e-001
1.631552e+003;3.129373e-001
1.633480e+003;3.266529e-001
1.635409e+003;3.336923e-001
1.637337e+003;3.331778e-001
1.639266e+003;3.229078e-001
1.641194e+003;3.048723e-001
1.643123e+003;2.832082e-001
1.645051e+003;2.603651e-001
1.646980e+003;2.385564e-001
1.648909e+003;2.196469e-001
1.650837e+003;2.015779e-001
1.652766e+003;1.849863e-001
1.654694e+003;1.740486e-001
1.656623e+003;1.656589e-001
1.658551e+003;1.568453e-001
1.660480e+003;1.477493e-001
1.662408e+003;1.383922e-001
1.664337e+003;1.298795e-001
1.666266e+003;1.216886e-001
1.668194e+003;1.129856e-001
1.670123e+003;1.051001e-001
1.672051e+003;9.852261e-002
1.673980e+003;9.188820e-002
1.675908e+003;8.574117e-002
1.677837e+003;8.030681e-002
1.679765e+003;7.404984e-002
1.681694e+003;6.715222e-002
1.683622e+003;6.004645e-002
1.685551e+003;5.568589e-002
1.687479e+003;5.318385e-002
1.689408e+003;5.008374e-002
1.691337e+003;4.742586e-002
1.693265e+003;4.484704e-002
1.695194e+003;4.206118e-002
1.697122e+003;4.084822e-002
1.699051e+003;3.957461e-002
1.700979e+003;3.884174e-002
1.702908e+003;3.961973e-002
1.704836e+003;3.947053e-002
1.706765e+003;3.954681e-002
1.708693e+003;3.947027e-002
1.710622e+003;3.931220e-002
1.712551e+003;3.903143e-002
1.714479e+003;3.839133e-002
1.716408e+003;3.756658e-002
1.718336e+003;3.791500e-002
1.720265e+003;3.918799e-002
1.722193e+003;3.966815e-002
1.724122e+003;3.976941e-002
1.726050e+003;4.023271e-002
1.727979e+003;4.020341e-002
1.729908e+003;3.969545e-002
1.731836e+003;3.849784e-002
1.733765e+003;3.715423e-002
1.735693e+003;3.767122e-002
1.737622e+003;3.807603e-002
1.739550e+003;3.734102e-002
1.741479e+003;3.673824e-002
1.743407e+003;3.598692e-002
1.745336e+003;3.524652e-002
1.747265e+003;3.409324e-002
1.749193e+003;3.261335e-002
1.751122e+003;3.152040e-002
1.753050e+003;3.118181e-002
1.754979e+003;3.033229e-002
1.756907e+003;2.937111e-002
1.758836e+003;2.888682e-002
1.760764e+003;2.799289e-002
1.762693e+003;2.731295e-002
1.764621e+003;2.706828e-002
1.766550e+003;2.620173e-002
1.768479e+003;2.548910e-002
1.770407e+003;2.489608e-002
1.772336e+003;2.418562e-002
1.774264e+003;2.432517e-002
1.776193e+003;2.441804e-002
1.778121e+003;2.401221e-002
1.780050e+003;2.359605e-002
1.781978e+003;2.339613e-002
1.783907e+003;2.302674e-002
1.785835e+003;2.272453e-002
1.787764e+003;2.264172e-002
1.789693e+003;2.225592e-002
1.791621e+003;2.148100e-002
1.793550e+003;2.140306e-002
1.795478e+003;2.158148e-002
1.797407e+003;2.126938e-002
1.799335e+003;2.113609e-002
1.801264e+003;2.102382e-002
1.803192e+003;2.092607e-002
1.805121e+003;2.095879e-002
1.807049e+003;2.091588e-002
1.808978e+003;2.050900e-002
1.810907e+003;2.044415e-002
1.812835e+003;2.059213e-002
1.814764e+003;2.045311e-002
1.816692e+003;2.028935e-002
1.818621e+003;2.027140e-002
1.820549e+003;2.017989e-002
1.822478e+003;2.003264e-002
1.824406e+003;1.976569e-002
1.826335e+003;1.954718e-002
1.828264e+003;1.925073e-002
1.830192e+003;1.922462e-002
1.832121e+003;1.959490e-002
1.834049e+003;1.975809e-002
1.835978e+003;1.962790e-002
1.837906e+003;1.930033e-002
1.839835e+003;1.908842e-002
1.841763e+003;1.899443e-002
1.843692e+003;1.874486e-002
1.845620e+003;1.878222e-002
1.847549e+003;1.875928e-002
1.849478e+003;1.859879e-002
1.851406e+003;1.856324e-002
1.853335e+003;1.852146e-002
1.855263e+003;1.818128e-002
1.857192e+003;1.811561e-002
1.859120e+003;1.827416e-002
1.861049e+003;1.825108e-002
1.862977e+003;1.822765e-002
1.864906e+003;1.807219e-002
1.866834e+003;1.766551e-002
1.868763e+003;1.752825e-002
1.870692e+003;1.786201e-002
1.872620e+003;1.815105e-002
1.874549e+003;1.834609e-002
1.876477e+003;1.840979e-002
1.878406e+003;1.828291e-002
1.880334e+003;1.811916e-002
1.882263e+003;1.802673e-002
1.884191e+003;1.797275e-002
1.886120e+003;1.790673e-002
1.888048e+003;1.790759e-002
1.889977e+003;1.808573e-002
1.891906e+003;1.834094e-002
1.893834e+003;1.830983e-002
1.895763e+003;1.830824e-002
1.897691e+003;1.846317e-002
1.899620e+003;1.846040e-002
1.901548e+003;1.849176e-002
1.903477e+003;1.851527e-002
1.905405e+003;1.832455e-002
1.907334e+003;1.831394e-002
1.909262e+003;1.837429e-002
1.911191e+003;1.828712e-002
1.913120e+003;1.819400e-002
1.915048e+003;1.779411e-002
1.916977e+003;1.747330e-002
1.918905e+003;1.765646e-002
1.920834e+003;1.779984e-002
1.922762e+003;1.785179e-002
1.924691e+003;1.773919e-002
1.926619e+003;1.771845e-002
1.928548e+003;1.798273e-002
1.930477e+003;1.796571e-002
1.932405e+003;1.770885e-002
1.934334e+003;1.766350e-002
1.936262e+003;1.765453e-002
1.938191e+003;1.765529e-002
1.940119e+003;1.761192e-002
1.942048e+003;1.726700e-002
1.943976e+003;1.712873e-002
1.945905e+003;1.743905e-002
1.947833e+003;1.757821e-002
1.949762e+003;1.749123e-002
1.951691e+003;1.740321e-002
1.953619e+003;1.750362e-002
1.955548e+003;1.773284e-002
1.957476e+003;1.789178e-002
1.959405e+003;1.785066e-002
1.961333e+003;1.798076e-002
1.963262e+003;1.823270e-002
1.965190e+003;1.826677e-002
1.967119e+003;1.821480e-002
1.969047e+003;1.814138e-002
1.970976e+003;1.811260e-002
1.972905e+003;1.811184e-002
1.974833e+003;1.822223e-002
1.976762e+003;1.835784e-002
1.978690e+003;1.830233e-002
1.980619e+003;1.817106e-002
1.982547e+003;1.823577e-002
1.984476e+003;1.844291e-002
1.986404e+003;1.838528e-002
1.988333e+003;1.810859e-002
1.990261e+003;1.785418e-002
1.992190e+003;1.776960e-002
1.994119e+003;1.789830e-002
1.996047e+003;1.798480e-002
1.997976e+003;1.795303e-002
1.999904e+003;1.786381e-002
2.001833e+003;1.778924e-002
2.003761e+003;1.776663e-002
2.005690e+003;1.789623e-002
2.007618e+003;1.796571e-002
2.009547e+003;1.797430e-002
2.011476e+003;1.797544e-002
2.013404e+003;1.812635e-002
2.015333e+003;1.838625e-002
2.017261e+003;1.828616e-002
2.019190e+003;1.822997e-002
2.021118e+003;1.846272e-002
2.023047e+003;1.850936e-002
2.024975e+003;1.831539e-002
2.026904e+003;1.821642e-002
2.028833e+003;1.837744e-002
2.030761e+003;1.861383e-002
2.032690e+003;1.874617e-002
2.034618e+003;1.874659e-002
2.036547e+003;1.876693e-002
2.038475e+003;1.883236e-002
2.040404e+003;1.886108e-002
2.042332e+003;1.894895e-002
2.044261e+003;1.905633e-002
2.046189e+003;1.908295e-002
2.048118e+003;1.907232e-002
2.050047e+003;1.904622e-002
2.051975e+003;1.905875e-002
2.053904e+003;1.898218e-002
2.055832e+003;1.906768e-002
2.057761e+003;1.942484e-002
2.059689e+003;1.947440e-002
2.061618e+003;1.942301e-002
2.063546e+003;1.939217e-002
2.065475e+003;1.937429e-002
2.067404e+003;1.938503e-002
2.069332e+003;1.945873e-002
2.071260e+003;1.949723e-002
2.073189e+003;1.947263e-002
2.075118e+003;1.912623e-002
2.077046e+003;1.893234e-002
2.078975e+003;1.897474e-002
2.080903e+003;1.889243e-002
2.082832e+003;1.903604e-002
2.084760e+003;1.923632e-002
2.086689e+003;1.909040e-002
2.088617e+003;1.886284e-002
2.090546e+003;1.877167e-002
2.092475e+003;1.876949e-002
2.094403e+003;1.869017e-002
2.096332e+003;1.863942e-002
2.098260e+003;1.873680e-002
2.100189e+003;1.869518e-002
2.102117e+003;1.866177e-002
2.104046e+003;1.876451e-002
2.105974e+003;1.901648e-002
2.107903e+003;1.905872e-002
2.109832e+003;1.888676e-002
2.111760e+003;1.888413e-002
2.113688e+003;1.908856e-002
2.115617e+003;1.917090e-002
2.117546e+003;1.916387e-002
2.119474e+003;1.926292e-002
2.121403e+003;1.928564e-002
2.123331e+003;1.906367e-002
2.125260e+003;1.901326e-002
2.127188e+003;1.931304e-002
2.129117e+003;1.962558e-002
2.131045e+003;1.973587e-002
2.132974e+003;1.966354e-002
2.134903e+003;1.946449e-002
2.136831e+003;1.935683e-002
2.138760e+003;1.942426e-002
2.140688e+003;1.944789e-002
2.142617e+003;1.953702e-002
2.144545e+003;1.966784e-002
2.146474e+003;1.956672e-002
2.148402e+003;1.943427e-002
2.150331e+003;1.957823e-002
2.152260e+003;1.965782e-002
2.154188e+003;1.947932e-002
2.156117e+003;1.936210e-002
2.158045e+003;1.956412e-002
2.159974e+003;1.978476e-002
2.161902e+003;2.006887e-002
2.163831e+003;2.021294e-002
2.165759e+003;2.014442e-002
2.167688e+003;2.010614e-002
2.169616e+003;2.012165e-002
2.171545e+003;2.007664e-002
2.173474e+003;2.003254e-002
2.175402e+003;1.988340e-002
2.177331e+003;2.002945e-002
2.179259e+003;2.042557e-002
2.181188e+003;2.029754e-002
2.183116e+003;2.022616e-002
2.185045e+003;2.039192e-002
2.186973e+003;2.042376e-002
2.188902e+003;2.049858e-002
2.190831e+003;2.068695e-002
2.192759e+003;2.089068e-002
2.194688e+003;2.100055e-002
2.196616e+003;2.070840e-002
2.198545e+003;2.060867e-002
2.200473e+003;2.049302e-002
2.202402e+003;2.024703e-002
2.204330e+003;2.025703e-002
2.206259e+003;2.039813e-002
2.208188e+003;2.044287e-002
2.210116e+003;2.033143e-002
2.212044e+003;2.032049e-002
2.213973e+003;2.023953e-002
2.215902e+003;1.986682e-002
2.217830e+003;1.967550e-002
2.219759e+003;1.974759e-002
2.221687e+003;1.978802e-002
2.223616e+003;1.974499e-002
2.225544e+003;1.971444e-002
2.227473e+003;1.967575e-002
2.229401e+003;1.936560e-002
2.231330e+003;1.918995e-002
2.233259e+003;1.913233e-002
2.235187e+003;1.912412e-002
2.237116e+003;1.920948e-002
2.239044e+003;1.925547e-002
2.240973e+003;1.902628e-002
2.242901e+003;1.898356e-002
2.244830e+003;1.914590e-002
2.246758e+003;1.907987e-002
2.248687e+003;1.913257e-002
2.250615e+003;1.934561e-002
2.252544e+003;1.957660e-002
2.254473e+003;1.975962e-002
2.256401e+003;1.988104e-002
2.258330e+003;1.982069e-002
2.260258e+003;1.936698e-002
2.262187e+003;1.930761e-002
2.264115e+003;1.979142e-002
2.266044e+003;2.004475e-002
2.267972e+003;2.013373e-002
2.269901e+003;2.034344e-002
2.271830e+003;2.023172e-002
2.273758e+003;2.012603e-002
2.275687e+003;2.012984e-002
2.277615e+003;2.025498e-002
2.279544e+003;2.031761e-002
2.281472e+003;2.042613e-002
2.283401e+003;2.066006e-002
2.285329e+003;2.054738e-002
2.287258e+003;2.047729e-002
2.289187e+003;2.054787e-002
2.291115e+003;2.038556e-002
2.293043e+003;2.034306e-002
2.294972e+003;2.037636e-002
2.296901e+003;2.029410e-002
2.298829e+003;2.039678e-002
2.300758e+003;2.080415e-002
2.302686e+003;2.099419e-002
2.304615e+003;2.090733e-002
2.306543e+003;2.072254e-002
2.308472e+003;2.065151e-002
2.310400e+003;2.062851e-002
2.312329e+003;2.079035e-002
2.314258e+003;2.106249e-002
2.316186e+003;2.107240e-002
2.318115e+003;2.085574e-002
2.320043e+003;2.079817e-002
2.321972e+003;2.077780e-002
2.323900e+003;2.068525e-002
2.325829e+003;2.055926e-002
2.327757e+003;2.055798e-002
2.329686e+003;2.052619e-002
2.331615e+003;2.062010e-002
2.333543e+003;2.081989e-002
2.335472e+003;2.083046e-002
2.337400e+003;2.074687e-002
2.339329e+003;2.072918e-002
2.341257e+003;2.084485e-002
2.343186e+003;2.067952e-002
2.345114e+003;2.039206e-002
2.347043e+003;2.033695e-002
2.348971e+003;2.040772e-002
2.350900e+003;2.059717e-002
2.352829e+003;2.061725e-002
2.354757e+003;2.045370e-002
2.356686e+003;2.044044e-002
2.358614e+003;2.076418e-002
2.360543e+003;2.073425e-002
2.362471e+003;2.052084e-002
2.364400e+003;2.048236e-002
2.366328e+003;2.066823e-002
2.368257e+003;2.068278e-002
2.370186e+003;2.065408e-002
2.372114e+003;2.089850e-002
2.374042e+003;2.105950e-002
2.375971e+003;2.114121e-002
2.377900e+003;2.140706e-002
2.379828e+003;2.147644e-002
2.381757e+003;2.148580e-002
2.383685e+003;2.148298e-002
2.385614e+003;2.137908e-002
2.387542e+003;2.142387e-002
2.389471e+003;2.164765e-002
2.391399e+003;2.173396e-002
2.393328e+003;2.184569e-002
2.395257e+003;2.189796e-002
2.397185e+003;2.188493e-002
2.399114e+003;2.198436e-002
2.401042e+003;2.192890e-002
2.402971e+003;2.171564e-002
2.404899e+003;2.163073e-002
2.406828e+003;2.166681e-002
2.408756e+003;2.161965e-002
2.410685e+003;2.158246e-002
2.412614e+003;2.160001e-002
2.414542e+003;2.159844e-002
2.416471e+003;2.171118e-002
2.418399e+003;2.174469e-002
2.420328e+003;2.168913e-002
2.422256e+003;2.176086e-002
2.424185e+003;2.205083e-002
2.426113e+003;2.212910e-002
2.428042e+003;2.186106e-002
2.429970e+003;2.178942e-002
2.431899e+003;2.199833e-002
2.433828e+003;2.203748e-002
2.435756e+003;2.204511e-002
2.437685e+003;2.214158e-002
2.439613e+003;2.224448e-002
2.441542e+003;2.254315e-002
2.443470e+003;2.261306e-002
2.445399e+003;2.260580e-002
2.447327e+003;2.286819e-002
2.449256e+003;2.301259e-002
2.451185e+003;2.307685e-002
2.453113e+003;2.318025e-002
2.455042e+003;2.304023e-002
2.456970e+003;2.292844e-002
2.458899e+003;2.306724e-002
2.460827e+003;2.338267e-002
2.462756e+003;2.353011e-002
2.464684e+003;2.344488e-002
2.466613e+003;2.367001e-002
2.468542e+003;2.395948e-002
2.470470e+003;2.396147e-002
2.472398e+003;2.384496e-002
2.474327e+003;2.409083e-002
2.476256e+003;2.437812e-002
2.478184e+003;2.432212e-002
2.480113e+003;2.440262e-002
2.482041e+003;2.451679e-002
2.483970e+003;2.451451e-002
2.485898e+003;2.467711e-002
2.487827e+003;2.466406e-002
2.489755e+003;2.461718e-002
2.491684e+003;2.454730e-002
2.493613e+003;2.441170e-002
2.495541e+003;2.431802e-002
2.497470e+003;2.424563e-002
2.499398e+003;2.418366e-002
2.501327e+003;2.436449e-002
2.503255e+003;2.456458e-002
2.505184e+003;2.448493e-002
2.507112e+003;2.442449e-002
2.509041e+003;2.481879e-002
2.510969e+003;2.516389e-002
2.512898e+003;2.504214e-002
2.514827e+003;2.497135e-002
2.516755e+003;2.498936e-002
2.518684e+003;2.510091e-002
2.520612e+003;2.535367e-002
2.522541e+003;2.563892e-002
2.524469e+003;2.580141e-002
2.526398e+003;2.600254e-002
2.528326e+003;2.634310e-002
2.530255e+003;2.661163e-002
2.532184e+003;2.673896e-002
2.534112e+003;2.684761e-002
2.536041e+003;2.695756e-002
2.537969e+003;2.694537e-002
2.539898e+003;2.685614e-002
2.541826e+003;2.702131e-002
2.543755e+003;2.728183e-002
2.545683e+003;2.752795e-002
2.547612e+003;2.777475e-002
2.549541e+003;2.789381e-002
2.551469e+003;2.769465e-002
2.553397e+003;2.765054e-002
2.555326e+003;2.779888e-002
2.557255e+003;2.760305e-002
2.559183e+003;2.745898e-002
2.561112e+003;2.758105e-002
2.563040e+003;2.785551e-002
2.564969e+003;2.792306e-002
2.566897e+003;2.769744e-002
2.568826e+003;2.767936e-002
2.570754e+003;2.771150e-002
2.572683e+003;2.809436e-002
2.574612e+003;2.843016e-002
2.576540e+003;2.839270e-002
2.578469e+003;2.841725e-002
2.580397e+003;2.868766e-002
2.582326e+003;2.888037e-002
2.584254e+003;2.917670e-002
2.586183e+003;2.942000e-002
2.588111e+003;2.931035e-002
2.590040e+003;2.905261e-002
2.591969e+003;2.892977e-002
2.593897e+003;2.921486e-002
2.595826e+003;2.954252e-002
2.597754e+003;2.955220e-002
2.599683e+003;2.954270e-002
2.601611e+003;2.959288e-002
2.603540e+003;2.978358e-002
2.605468e+003;2.988828e-002
2.607397e+003;2.982904e-002
2.609325e+003;2.977421e-002
2.611254e+003;2.978550e-002
2.613183e+003;2.987227e-002
2.615111e+003;2.981360e-002
2.617040e+003;2.978095e-002
2.618968e+003;2.990279e-002
2.620897e+003;3.014967e-002
2.622825e+003;3.031531e-002
2.624754e+003;3.025804e-002
2.626682e+003;3.029058e-002
2.628611e+003;3.044864e-002
2.630540e+003;3.083001e-002
2.632468e+003;3.121311e-002
2.634396e+003;3.142179e-002
2.636325e+003;3.120930e-002
2.638254e+003;3.115383e-002
2.640182e+003;3.127510e-002
2.642111e+003;3.112059e-002
2.644039e+003;3.094254e-002
2.645968e+003;3.113885e-002
2.647896e+003;3.146753e-002
2.649825e+003;3.151463e-002
2.651753e+003;3.166019e-002
2.653682e+003;3.170061e-002
2.655611e+003;3.160128e-002
2.657539e+003;3.167402e-002
2.659468e+003;3.182923e-002
2.661396e+003;3.206100e-002
2.663325e+003;3.228990e-002
2.665253e+003;3.240399e-002
2.667182e+003;3.243991e-002
2.669110e+003;3.233784e-002
2.671039e+003;3.226567e-002
2.672968e+003;3.236575e-002
2.674896e+003;3.249204e-002
2.676825e+003;3.273431e-002
2.678753e+003;3.315575e-002
2.680682e+003;3.318758e-002
2.682610e+003;3.307268e-002
2.684539e+003;3.292350e-002
2.686467e+003;3.297747e-002
2.688396e+003;3.331342e-002
2.690324e+003;3.371984e-002
2.692253e+003;3.404110e-002
2.694182e+003;3.409744e-002
2.696110e+003;3.416798e-002
2.698039e+003;3.449778e-002
2.699967e+003;3.496025e-002
2.701896e+003;3.508919e-002
2.703824e+003;3.534921e-002
2.705753e+003;3.586469e-002
2.707681e+003;3.599081e-002
2.709610e+003;3.596864e-002
2.711539e+003;3.619730e-002
2.713467e+003;3.654959e-002
2.715396e+003;3.693174e-002
2.717324e+003;3.720838e-002
2.719253e+003;3.754411e-002
2.721181e+003;3.787700e-002
2.723110e+003;3.836020e-002
2.725038e+003;3.871139e-002
2.726967e+003;3.907972e-002
2.728896e+003;3.952507e-002
2.730824e+003;3.988875e-002
2.732752e+003;4.033115e-002
2.734681e+003;4.076218e-002
2.736610e+003;4.101174e-002
2.738538e+003;4.108687e-002
2.740467e+003;4.108541e-002
2.742395e+003;4.126336e-002
2.744324e+003;4.153093e-002
2.746252e+003;4.161377e-002
2.748181e+003;4.164904e-002
2.750109e+003;4.162384e-002
2.752038e+003;4.166964e-002
2.753967e+003;4.205173e-002
2.755895e+003;4.239649e-002
2.757824e+003;4.252031e-002
2.759752e+003;4.236354e-002
2.761681e+003;4.238608e-002
2.763609e+003;4.258789e-002
2.765538e+003;4.277772e-002
2.767466e+003;4.274090e-002
2.769395e+003;4.285093e-002
2.771323e+003;4.336907e-002
2.773252e+003;4.387566e-002
2.775181e+003;4.429506e-002
2.777109e+003;4.458264e-002
2.779038e+003;4.488235e-002
2.780966e+003;4.533557e-002
2.782895e+003;4.554604e-002
2.784823e+003;4.582100e-002
2.786752e+003;4.634281e-002
2.788680e+003;4.669110e-002
2.790609e+003;4.716894e-002
2.792538e+003;4.766079e-002
2.794466e+003;4.814698e-002
2.796395e+003;4.870588e-002
2.798323e+003;4.886544e-002
2.800252e+003;4.903671e-002
2.802180e+003;4.975364e-002
2.804109e+003;5.030173e-002
2.806037e+003;5.075424e-002
2.807966e+003;5.146163e-002
2.809895e+003;5.213561e-002
2.811823e+003;5.270647e-002
2.813751e+003;5.338550e-002
2.815680e+003;5.407291e-002
2.817609e+003;5.488060e-002
2.819537e+003;5.571708e-002
2.821466e+003;5.628344e-002
2.823394e+003;5.659544e-002
2.825323e+003;5.726648e-002
2.827251e+003;5.826528e-002
2.829180e+003;5.907069e-002
2.831108e+003;5.993187e-002
2.833037e+003;6.108627e-002
2.834966e+003;6.250473e-002
2.836894e+003;6.442568e-002
2.838823e+003;6.699661e-002
2.840751e+003;7.025193e-002
2.842680e+003;7.448256e-002
2.844608e+003;7.919865e-002
2.846537e+003;8.398043e-002
2.848465e+003;8.913065e-002
2.850394e+003;9.410498e-002
2.852323e+003;9.801777e-002
2.854251e+003;1.006486e-001
2.856180e+003;1.027625e-001
2.858108e+003;1.041816e-001
2.860037e+003;1.046201e-001
2.861965e+003;1.042789e-001
2.863894e+003;1.031900e-001
2.865822e+003;1.017355e-001
2.867751e+003;1.000685e-001
2.869679e+003;9.803642e-002
2.871608e+003;9.557469e-002
2.873536e+003;9.292074e-002
2.875465e+003;8.977012e-002
2.877394e+003;8.675655e-002
2.879322e+003;8.499794e-002
2.881251e+003;8.356842e-002
2.883179e+003;8.224013e-002
2.885108e+003;8.183257e-002
2.887036e+003;8.201179e-002
2.888965e+003;8.267067e-002
2.890893e+003;8.435331e-002
2.892822e+003;8.663069e-002
2.894750e+003;8.854400e-002
2.896679e+003;9.039445e-002
2.898608e+003;9.222471e-002
2.900536e+003;9.340692e-002
2.902465e+003;9.458081e-002
2.904393e+003;9.604120e-002
2.906322e+003;9.754421e-002
2.908250e+003;9.935330e-002
2.910179e+003;1.015332e-001
2.912107e+003;1.043804e-001
2.914036e+003;1.075913e-001
2.915965e+003;1.108507e-001
2.917893e+003;1.143761e-001
2.919822e+003;1.178306e-001
2.921750e+003;1.208993e-001
2.923679e+003;1.237380e-001
2.925607e+003;1.260179e-001
2.927536e+003;1.277513e-001
2.929464e+003;1.295220e-001
2.931393e+003;1.307533e-001
2.933322e+003;1.309833e-001
2.935250e+003;1.302892e-001
2.937178e+003;1.286556e-001
2.939107e+003;1.260778e-001
2.941036e+003;1.230304e-001
2.942964e+003;1.196984e-001
2.944893e+003;1.158894e-001
2.946821e+003;1.110381e-001
2.948750e+003;1.056087e-001
2.950678e+003;9.990957e-002
2.952607e+003;9.369732e-002
2.954535e+003;8.810143e-002
2.956464e+003;8.314562e-002
2.958393e+003;7.868903e-002
2.960321e+003;7.516221e-002
2.962250e+003;7.224345e-002
2.964178e+003;6.932443e-002
2.966107e+003;6.678002e-002
2.968035e+003;6.438667e-002
2.969964e+003;6.205468e-002
2.971892e+003;5.996181e-002
2.973821e+003;5.780700e-002
2.975750e+003;5.585882e-002
2.977678e+003;5.435148e-002
2.979607e+003;5.294776e-002
2.981535e+003;5.160038e-002
2.983464e+003;5.053007e-002
2.985392e+003;4.918292e-002
2.987321e+003;4.787076e-002
2.989249e+003;4.712831e-002
2.991178e+003;4.673527e-002
2.993106e+003;4.634370e-002
2.995035e+003;4.597034e-002
2.996964e+003;4.589148e-002
2.998892e+003;4.568994e-002
3.000821e+003;4.526687e-002
3.002749e+003;4.501262e-002
3.004678e+003;4.528636e-002
3.006606e+003;4.551866e-002
3.008535e+003;4.542845e-002
3.010463e+003;4.527415e-002
3.012392e+003;4.537713e-002
3.014321e+003;4.541230e-002
3.016249e+003;4.550115e-002
3.018177e+003;4.576876e-002
3.020106e+003;4.612418e-002
3.022035e+003;4.643871e-002
3.023963e+003;4.694645e-002
3.025892e+003;4.731356e-002
3.027820e+003;4.749550e-002
3.029749e+003;4.821147e-002
3.031677e+003;4.906067e-002
3.033606e+003;4.955593e-002
3.035534e+003;4.989574e-002
3.037463e+003;5.077234e-002
3.039392e+003;5.173092e-002
3.041320e+003;5.228425e-002
3.043249e+003;5.322775e-002
3.045177e+003;5.409595e-002
3.047106e+003;5.474877e-002
3.049034e+003;5.559347e-002
3.050963e+003;5.650381e-002
3.052891e+003;5.734376e-002
3.054820e+003;5.811772e-002
3.056749e+003;5.876695e-002
3.058677e+003;5.921091e-002
3.060606e+003;5.975020e-002
3.062534e+003;6.062146e-002
3.064463e+003;6.131340e-002
3.066391e+003;6.149251e-002
3.068320e+003;6.165711e-002
3.070248e+003;6.194301e-002
3.072177e+003;6.188745e-002
3.074105e+003;6.183778e-002
3.076034e+003;6.176944e-002
3.077963e+003;6.192390e-002
3.079891e+003;6.216264e-002
3.081820e+003;6.169851e-002
3.083748e+003;6.137259e-002
3.085677e+003;6.153325e-002
3.087605e+003;6.151145e-002
3.089534e+003;6.103673e-002
3.091462e+003;6.019471e-002
3.093391e+003;5.941047e-002
3.095320e+003;5.899663e-002
3.097248e+003;5.851821e-002
3.099177e+003;5.786882e-002
3.101105e+003;5.710271e-002
3.103034e+003;5.636352e-002
3.104962e+003;5.595816e-002
3.106891e+003;5.526995e-002
3.108819e+003;5.428525e-002
3.110748e+003;5.389544e-002
3.112677e+003;5.352884e-002
3.114605e+003;5.315292e-002
3.116533e+003;5.253502e-002
3.118462e+003;5.168983e-002
3.120391e+003;5.137591e-002
3.122319e+003;5.103525e-002
3.124248e+003;5.059883e-002
3.126176e+003;5.058509e-002
3.128105e+003;5.064600e-002
3.130033e+003;5.048347e-002
3.131962e+003;5.009850e-002
3.133890e+003;4.981041e-002
3.135819e+003;4.981309e-002
3.137748e+003;4.992332e-002
3.139676e+003;5.008720e-002
3.141605e+003;5.013071e-002
3.143533e+003;4.975070e-002
3.145462e+003;5.001213e-002
3.147390e+003;5.068878e-002
3.149319e+003;5.081465e-002
3.151247e+003;5.093550e-002
3.153176e+003;5.098028e-002
3.155104e+003;5.121375e-002
3.157033e+003;5.155769e-002
3.158962e+003;5.183425e-002
3.160890e+003;5.242614e-002
3.162819e+003;5.315187e-002
3.164747e+003;5.346138e-002
3.166676e+003;5.381389e-002
3.168604e+003;5.434078e-002
3.170533e+003;5.494279e-002
3.172461e+003;5.579966e-002
3.174390e+003;5.685911e-002
3.176319e+003;5.737318e-002
3.178247e+003;5.770323e-002
3.180176e+003;5.830750e-002
3.182104e+003;5.904347e-002
3.184033e+003;5.959978e-002
3.185961e+003;6.005973e-002
3.187890e+003;6.067689e-002
3.189818e+003;6.133969e-002
3.191747e+003;6.173495e-002
3.193676e+003;6.163958e-002
3.195604e+003;6.203767e-002
3.197532e+003;6.270910e-002
3.199461e+003;6.336243e-002
3.201390e+003;6.383829e-002
3.203318e+003;6.373460e-002
3.205247e+003;6.391601e-002
3.207175e+003;6.428565e-002
3.209104e+003;6.484687e-002
3.211032e+003;6.512199e-002
3.212961e+003;6.519552e-002
3.214889e+003;6.560108e-002
3.216818e+003;6.619318e-002
3.218747e+003;6.676468e-002
3.220675e+003;6.743816e-002
3.222604e+003;6.811741e-002
3.224532e+003;6.878223e-002
3.226461e+003;6.962132e-002
3.228389e+003;7.043262e-002
3.230318e+003;7.141135e-002
3.232246e+003;7.272972e-002
3.234175e+003;7.396945e-002
3.236104e+003;7.535194e-002
3.238032e+003;7.679847e-002
3.239961e+003;7.829388e-002
3.241889e+003;7.994507e-002
3.243818e+003;8.129369e-002
3.245746e+003;8.295827e-002
3.247675e+003;8.456303e-002
3.249603e+003;8.611633e-002
3.251532e+003;8.794070e-002
3.253460e+003;8.997331e-002
3.255389e+003;9.215383e-002
3.257318e+003;9.418741e-002
3.259246e+003;9.609010e-002
3.261175e+003;9.810747e-002
3.263103e+003;1.002837e-001
3.265032e+003;1.021970e-001
3.266960e+003;1.045065e-001
3.268889e+003;1.071903e-001
3.270817e+003;1.094481e-001
3.272746e+003;1.112838e-001
3.274675e+003;1.141003e-001
3.276603e+003;1.172535e-001
3.278531e+003;1.194784e-001
3.280460e+003;1.214304e-001
3.282389e+003;1.237392e-001
3.284317e+003;1.260570e-001
3.286246e+003;1.279570e-001
3.288174e+003;1.296532e-001
3.290103e+003;1.310380e-001
3.292031e+003;1.315369e-001
3.293960e+003;1.315829e-001
3.295888e+003;1.308264e-001
3.297817e+003;1.293888e-001
3.299746e+003;1.272168e-001
3.301674e+003;1.240096e-001
3.303603e+003;1.205347e-001
3.305531e+003;1.172326e-001
3.307460e+003;1.143717e-001
3.309388e+003;1.110951e-001
3.311317e+003;1.074190e-001
3.313245e+003;1.041615e-001
3.315174e+003;1.012839e-001
3.317103e+003;9.819923e-002
3.319031e+003;9.481896e-002
3.320960e+003;9.151306e-002
3.322888e+003;8.857375e-002
3.324817e+003;8.594680e-002
3.326745e+003;8.348533e-002
3.328674e+003;8.113290e-002
3.330602e+003;7.865404e-002
3.332531e+003;7.645881e-002
3.334459e+003;7.455352e-002
3.336388e+003;7.282525e-002
3.338317e+003;7.108922e-002
3.340245e+003;6.915119e-002
3.342174e+003;6.729151e-002
3.344102e+003;6.565303e-002
3.346031e+003;6.398117e-002
3.347959e+003;6.242224e-002
3.349888e+003;6.122522e-002
3.351816e+003;6.016331e-002
3.353745e+003;5.909916e-002
3.355674e+003;5.781571e-002
3.357602e+003;5.666007e-002
3.359531e+003;5.581078e-002
3.361459e+003;5.497408e-002
3.363388e+003;5.410589e-002
3.365316e+003;5.333140e-002
3.367245e+003;5.238237e-002
3.369173e+003;5.108836e-002
3.371102e+003;5.049106e-002
3.373031e+003;5.010862e-002
3.374959e+003;4.934218e-002
3.376887e+003;4.865128e-002
3.378816e+003;4.841682e-002
3.380745e+003;4.821065e-002
3.382673e+003;4.780632e-002
3.384602e+003;4.749158e-002
3.386530e+003;4.692228e-002
3.388459e+003;4.612086e-002
3.390387e+003;4.568346e-002
3.392316e+003;4.518550e-002
3.394244e+003;4.439664e-002
3.396173e+003;4.386165e-002
3.398102e+003;4.362386e-002
3.400030e+003;4.365955e-002
3.401959e+003;4.373529e-002
3.403887e+003;4.367263e-002
3.405816e+003;4.320503e-002
3.407744e+003;4.278653e-002
3.409673e+003;4.250106e-002
3.411601e+003;4.212912e-002
3.413530e+003;4.180986e-002
3.415458e+003;4.153921e-002
3.417387e+003;4.137772e-002
3.419316e+003;4.110260e-002
3.421244e+003;4.096170e-002
3.423173e+003;4.077943e-002
3.425101e+003;4.033744e-002
3.427030e+003;4.037962e-002
3.428958e+003;4.044773e-002
3.430887e+003;4.024368e-002
3.432815e+003;4.035781e-002
3.434744e+003;4.009430e-002
3.436673e+003;3.970025e-002
3.438601e+003;3.949462e-002
3.440530e+003;3.946857e-002
3.442458e+003;3.936861e-002
3.444387e+003;3.918131e-002
3.446315e+003;3.905782e-002
3.448244e+003;3.872668e-002
3.450172e+003;3.882261e-002
3.452101e+003;3.886355e-002
3.454030e+003;3.832137e-002
3.455958e+003;3.803039e-002
3.457886e+003;3.774498e-002
3.459815e+003;3.778933e-002
3.461744e+003;3.750850e-002
3.463672e+003;3.690018e-002
3.465601e+003;3.655737e-002
3.467529e+003;3.682915e-002
3.469458e+003;3.695231e-002
3.471386e+003;3.664511e-002
3.473315e+003;3.634725e-002
3.475243e+003;3.636000e-002
3.477172e+003;3.630132e-002
3.479101e+003;3.592508e-002
3.481029e+003;3.569505e-002
3.482958e+003;3.565332e-002
3.484886e+003;3.594956e-002
3.486815e+003;3.612240e-002
3.488743e+003;3.578013e-002
3.490672e+003;3.526787e-002
3.492600e+003;3.530097e-002
3.494529e+003;3.573807e-002
3.496458e+003;3.543383e-002
3.498386e+003;3.496927e-002
3.500315e+003;3.477901e-002
3.502243e+003;3.526755e-002
3.504172e+003;3.557621e-002
3.506100e+003;3.520843e-002
3.508029e+003;3.457369e-002
3.509957e+003;3.373506e-002
3.511886e+003;3.310604e-002
3.513814e+003;3.329084e-002
3.515743e+003;3.356686e-002
3.517672e+003;3.328419e-002
3.519600e+003;3.280209e-002
3.521529e+003;3.248086e-002
3.523457e+003;3.238193e-002
3.525386e+003;3.220946e-002
3.527314e+003;3.195567e-002
3.529243e+003;3.185761e-002
3.531171e+003;3.184360e-002
3.533100e+003;3.171783e-002
3.535029e+003;3.114817e-002
3.536957e+003;3.086882e-002
3.538885e+003;3.062972e-002
3.540814e+003;3.006312e-002
3.542743e+003;2.959633e-002
3.544671e+003;2.933636e-002
3.546600e+003;2.922386e-002
3.548528e+003;2.901322e-002
3.550457e+003;2.854136e-002
3.552385e+003;2.780951e-002
3.554314e+003;2.753099e-002
3.556242e+003;2.731852e-002
3.558171e+003;2.693958e-002
3.560100e+003;2.688128e-002
3.562028e+003;2.670785e-002
3.563957e+003;2.631272e-002
3.565885e+003;2.574610e-002
3.567814e+003;2.506440e-002
3.569742e+003;2.478107e-002
3.571671e+003;2.479774e-002
3.573599e+003;2.495219e-002
3.575528e+003;2.510203e-002
3.577457e+003;2.471088e-002
3.579385e+003;2.406891e-002
3.581314e+003;2.363569e-002
3.583242e+003;2.332176e-002
3.585171e+003;2.276060e-002
3.587099e+003;2.210239e-002
3.589028e+003;2.203608e-002
3.590956e+003;2.212453e-002
3.592885e+003;2.164723e-002
3.594813e+003;2.125331e-002
3.596742e+003;2.087044e-002
3.598671e+003;2.081096e-002
3.600599e+003;2.095270e-002
3.602528e+003;2.051150e-002
3.604456e+003;1.996204e-002
3.606385e+003;1.931363e-002
3.608313e+003;1.872009e-002
3.610242e+003;1.878496e-002
3.612170e+003;1.854484e-002
3.614099e+003;1.820609e-002
3.616028e+003;1.763883e-002
3.617956e+003;1.713035e-002
3.619885e+003;1.765395e-002
3.621813e+003;1.819334e-002
3.623742e+003;1.816193e-002
3.625670e+003;1.786930e-002
3.627599e+003;1.656718e-002
3.629527e+003;1.596661e-002
3.631456e+003;1.665200e-002
3.633385e+003;1.690479e-002
3.635313e+003;1.668764e-002
3.637241e+003;1.637539e-002
3.639170e+003;1.623998e-002
3.641099e+003;1.618203e-002
3.643027e+003;1.568864e-002
3.644956e+003;1.507142e-002
3.646884e+003;1.439023e-002
3.648813e+003;1.368435e-002
3.650741e+003;1.390360e-002
3.652670e+003;1.468008e-002
3.654598e+003;1.448785e-002
3.656527e+003;1.419090e-002
3.658456e+003;1.416851e-002
3.660384e+003;1.396772e-002
3.662313e+003;1.429718e-002
3.664241e+003;1.416536e-002
3.666170e+003;1.358021e-002
3.668098e+003;1.296693e-002
3.670027e+003;1.246238e-002
3.671955e+003;1.267194e-002
3.673884e+003;1.209625e-002
3.675813e+003;1.162522e-002
3.677741e+003;1.243944e-002
3.679669e+003;1.258400e-002
3.681598e+003;1.262343e-002
3.683527e+003;1.255818e-002
3.685455e+003;1.190567e-002
3.687384e+003;1.080634e-002
3.689312e+003;1.084395e-002
3.691241e+003;1.154232e-002
3.693169e+003;1.170432e-002
3.695098e+003;1.145951e-002
3.697026e+003;1.113073e-002
3.698955e+003;1.114521e-002
3.700884e+003;1.099668e-002
3.702812e+003;1.106727e-002
3.704741e+003;1.122497e-002
3.706669e+003;1.110714e-002
3.708598e+003;1.054642e-002
3.710526e+003;9.868354e-003
3.712455e+003;1.006587e-002
3.714383e+003;1.063035e-002
3.716312e+003;1.041733e-002
3.718240e+003;1.000487e-002
3.720169e+003;9.832188e-003
3.722098e+003;1.003708e-002
3.724026e+003;1.047724e-002
3.725955e+003;1.047408e-002
3.727883e+003;1.020965e-002
3.729812e+003;9.733741e-003
3.731740e+003;9.262182e-003
3.733669e+003;9.253246e-003
3.735597e+003;9.090369e-003
3.737526e+003;9.664791e-003
3.739455e+003;1.035523e-002
3.741383e+003;1.007096e-002
3.743312e+003;8.795631e-003
3.745240e+003;9.317290e-003
3.747169e+003;9.928420e-003
3.749097e+003;8.831778e-003
3.751026e+003;8.668247e-003
3.752954e+003;9.264957e-003
3.754883e+003;9.870082e-003
3.756812e+003;9.951372e-003
3.758740e+003;9.982156e-003
3.760668e+003;1.037322e-002
3.762597e+003;1.089824e-002
3.764526e+003;1.094332e-002
3.766454e+003;1.097690e-002
3.768383e+003;1.073134e-002
3.770311e+003;1.063666e-002
3.772240e+003;1.071956e-002
3.774168e+003;1.088264e-002
3.776097e+003;1.101506e-002
3.778025e+003;1.091675e-002
3.779954e+003;1.109232e-002
3.781883e+003;1.116625e-002
3.783811e+003;1.100595e-002
3.785740e+003;1.092511e-002
3.787668e+003;1.063531e-002
3.789597e+003;1.037725e-002
3.791525e+003;1.035319e-002
3.793454e+003;1.037199e-002
3.795382e+003;1.016999e-002
3.797311e+003;1.024187e-002
3.799240e+003;9.962661e-003
3.801168e+003;9.535999e-003
3.803097e+003;1.023204e-002
3.805025e+003;1.016185e-002
3.806954e+003;9.975612e-003
3.808882e+003;1.058397e-002
3.810811e+003;1.081368e-002
3.812739e+003;1.037447e-002
3.814668e+003;9.718188e-003
3.816596e+003;1.032208e-002
3.818525e+003;1.068733e-002
3.820454e+003;9.925302e-003
3.822382e+003;1.048668e-002
3.824311e+003;1.125472e-002
3.826239e+003;1.079544e-002
3.828168e+003;1.071063e-002
3.830096e+003;1.096385e-002
3.832025e+003;1.115867e-002
3.833953e+003;1.092386e-002
3.835882e+003;1.019482e-002
3.837811e+003;9.826698e-003
3.839739e+003;1.057334e-002
3.841667e+003;1.136855e-002
3.843596e+003;1.171688e-002
3.845525e+003;1.201354e-002
3.847453e+003;1.225119e-002
3.849382e+003;1.147482e-002
3.851310e+003;9.803449e-003
3.853239e+003;8.882402e-003
3.855167e+003;1.013658e-002
3.857096e+003;1.124945e-002
3.859024e+003;1.142222e-002
3.860953e+003;1.143291e-002
3.862882e+003;1.148370e-002
3.864810e+003;1.139991e-002
3.866739e+003;1.134267e-002
3.868667e+003;1.086480e-002
3.870596e+003;1.111363e-002
3.872524e+003;1.160783e-002
3.874453e+003;1.131471e-002
3.876381e+003;1.146808e-002
3.878310e+003;1.131954e-002
3.880239e+003;1.094095e-002
3.882167e+003;1.148397e-002
3.884096e+003;1.161062e-002
3.886024e+003;1.155158e-002
3.887953e+003;1.183018e-002
3.889881e+003;1.153596e-002
3.891810e+003;1.141165e-002
3.893738e+003;1.192382e-002
3.895667e+003;1.249232e-002
3.897595e+003;1.217193e-002
3.899524e+003;1.176859e-002
3.901453e+003;1.174384e-002
3.903381e+003;1.143655e-002
3.905310e+003;1.170622e-002
3.907238e+003;1.258618e-002
3.909167e+003;1.273744e-002
3.911095e+003;1.228316e-002
3.913024e+003;1.227628e-002
3.914952e+003;1.250610e-002
3.916881e+003;1.255033e-002
3.918810e+003;1.255692e-002
3.920738e+003;1.242938e-002
3.922667e+003;1.246746e-002
3.924595e+003;1.288739e-002
3.926524e+003;1.336130e-002
3.928452e+003;1.335939e-002
3.930381e+003;1.287770e-002
3.932309e+003;1.274747e-002
3.934238e+003;1.318540e-002
3.936167e+003;1.325320e-002
3.938095e+003;1.319947e-002
3.940023e+003;1.340415e-002
3.941952e+003;1.352750e-002
3.943881e+003;1.360308e-002
3.945809e+003;1.393066e-002
3.947738e+003;1.396098e-002
3.949666e+003;1.355529e-002
3.951595e+003;1.368603e-002
3.953523e+003;1.383737e-002
3.955452e+003;1.378736e-002
3.957380e+003;1.446682e-002
3.959309e+003;1.504154e-002
3.961238e+003;1.491680e-002
3.963166e+003;1.429266e-002
3.965095e+003;1.419741e-002
3.967023e+003;1.435249e-002
3.968952e+003;1.472118e-002
3.970880e+003;1.521003e-002
3.972809e+003;1.505852e-002
3.974737e+003;1.485693e-002
3.976666e+003;1.478946e-002
3.978594e+003;1.426581e-002
3.980523e+003;1.413627e-002
3.982452e+003;1.471381e-002
3.984380e+003;1.521116e-002
3.986309e+003;1.539873e-002
3.988237e+003;1.545504e-002
3.990166e+003;1.556822e-002
3.992094e+003;1.585975e-002
3.994023e+003;1.611665e-002
3.995951e+003;1.618375e-002
3.997880e+003;1.595929e-002
3.999809e+003;1.593712e-002
4.001737e+003;0.000000e+000
