3.992094e+002;0.000000e+000
4.011380e+002;0.000000e+000
4.030665e+002;0.000000e+000
4.049951e+002;0.000000e+000
4.069236e+002;0.000000e+000
4.088522e+002;0.000000e+000
4.107807e+002;0.000000e+000
4.127093e+002;0.000000e+000
4.146378e+002;0.000000e+000
4.165664e+002;0.000000e+000
4.184949e+002;0.000000e+000
4.204235e+002;0.000000e+000
4.223520e+002;0.000000e+000
4.242806e+002;0.000000e+000
4.262091e+002;0.000000e+000
4.281377e+002;0.000000e+000
4.300662e+002;0.000000e+000
4.319948e+002;0.000000e+000
4.339233e+002;0.000000e+000
4.358519e+002;0.000000e+000
4.377804e+002;0.000000e+000
4.397090e+002;0.000000e+000
4.416375e+002;0.000000e+000
4.435660e+002;0.000000e+000
4.454946e+002;0.000000e+000
4.474232e+002;0.000000e+000
4.493517e+002;0.000000e+000
4.512802e+002;0.000000e+000
4.532088e+002;0.000000e+000
4.551373e+002;0.000000e+000
4.570659e+002;0.000000e+000
4.589944e+002;0.000000e+000
4.609230e+002;0.000000e+000
4.628515e+002;0.000000e+000
4.647801e+002;0.000000e+000
4.667086e+002;0.000000e+000
4.686372e+002;0.000000e+000
4.705657e+002;0.000000e+000
4.724943e+002;0.000000e+000
4.744228e+002;0.000000e+000
4.763513e+002;0.000000e+000
4.782799e+002;0.000000e+000
4.802085e+002;0.000000e+000
4.821370e+002;0.000000e+000
4.840656e+002;0.000000e+000
4.859941e+002;0.000000e+000
4.879226e+002;0.000000e+000
4.898512e+002;0.000000e+000
4.917798e+002;0.000000e+000
4.937083e+002;0.000000e+000
4.956368e+002;0.000000e+000
4.975654e+002;0.000000e+000
4.994939e+002;0.000000e+000
5.014225e+002;0.000000e+000
5.033510e+002;0.000000e+000
5.052796e+002;0.000000e+000
5.072081e+002;0.000000e+000
5.091367e+002;0.000000e+000
5.110652e+002;0.000000e+000
5.129938e+002;0.000000e+000
5.149223e+002;0.000000e+000
5.168509e+002;0.000000e+000
5.187794e+002;0.000000e+000
5.207079e+002;0.000000e+000
5.226365e+002;0.000000e+000
5.245651e+002;0.000000e+000
5.264936e+002;0.000000e+000
5.284222e+002;0.000000e+000
5.303507e+002;0.000000e+000
5.322792e+002;0.000000e+000
5.342078e+002;0.000000e+000
5.361364e+002;0.000000e+000
5.380649e+002;0.000000e+000
5.399935e+002;0.000000e+000
5.419220e+002;0.000000e+000
5.438505e+002;0.000000e+000
5.457791e+002;0.000000e+000
5.477076e+002;0.000000e+000
5.496362e+002;0.000000e+000
5.515648e+002;0.000000e+000
5.534933e+002;0.000000e+000
5.554218e+002;0.000000e+000
5.573504e+002;0.000000e+000
5.592789e+002;0.000000e+000
5.612075e+002;0.000000e+000
5.631360e+002;0.000000e+000
5.650646e+002;0.000000e+000
5.669931e+002;0.000000e+000
5.689217e+002;0.000000e+000
5.708502e+002;0.000000e+000
5.727787e+002;0.000000e+000
5.747073e+002;0.000000e+000
5.766359e+002;0.000000e+000
5.785644e+002;0.000000e+000
5.804930e+002;0.000000e+000
5.824215e+002;0.000000e+000
5.843500e+002;0.000000e+000
5.862786e+002;0.000000e+000
5.882072e+002;0.000000e+000
5.901357e+002;0.000000e+000
5.920643e+002;0.000000e+000
5.939928e+002;0.000000e+000
5.959213e+002;0.000000e+000
5.978499e+002;0.000000e+000
5.997784e+002;1.347596e-001
6.017070e+002;1.432940e-001
6.036355e+002;1.521100e-001
6.055641e+002;1.503905e-001
6.074926e+002;1.453021e-001
6.094211e+002;1.410511e-001
6.113497e+002;1.399011e-001
6.132783e+002;1.408664e-001
6.152068e+002;1.440517e-001
6.171354e+002;1.467120e-001
6.190639e+002;1.442220e-001
6.209924e+002;1.394218e-001
6.229210e+002;1.428043e-001
6.248495e+002;1.492411e-001
6.267781e+002;1.483696e-001
6.287067e+002;1.460786e-001
6.306352e+002;1.432255e-001
6.325637e+002;1.419873e-001
6.344923e+002;1.437153e-001
6.364208e+002;1.462839e-001
6.383494e+002;1.487540e-001
6.402780e+002;1.472305e-001
6.422065e+002;1.469066e-001
6.441350e+002;1.478616e-001
6.460636e+002;1.499171e-001
6.479921e+002;1.531745e-001
6.499207e+002;1.568590e-001
6.518492e+002;1.594710e-001
6.537778e+002;1.590228e-001
6.557063e+002;1.590919e-001
6.576349e+002;1.635902e-001
6.595634e+002;1.681203e-001
6.614919e+002;1.712066e-001
6.634205e+002;1.735581e-001
6.653491e+002;1.748975e-001
6.672776e+002;1.770994e-001
6.692062e+002;1.800092e-001
6.711347e+002;1.803595e-001
6.730632e+002;1.794343e-001
6.749918e+002;1.783712e-001
6.769203e+002;1.795233e-001
6.788489e+002;1.831808e-001
6.807775e+002;1.859404e-001
6.827060e+002;1.855756e-001
6.846345e+002;1.838407e-001
6.865631e+002;1.817309e-001
6.884916e+002;1.795105e-001
6.904202e+002;1.785454e-001
6.923488e+002;1.783268e-001
6.942773e+002;1.762738e-001
6.962058e+002;1.723256e-001
6.981344e+002;1.685713e-001
7.000629e+002;1.658505e-001
7.019915e+002;1.645741e-001
7.039200e+002;1.631756e-001
7.058486e+002;1.618817e-001
7.077771e+002;1.609022e-001
7.097057e+002;1.585717e-001
7.116342e+002;1.566010e-001
7.135627e+002;1.557866e-001
7.154913e+002;1.539429e-001
7.174199e+002;1.519013e-001
7.193484e+002;1.511222e-001
7.212770e+002;1.508742e-001
7.232055e+002;1.512785e-001
7.251340e+002;1.528458e-001
7.270626e+002;1.529527e-001
7.289911e+002;1.502521e-001
7.309197e+002;1.453713e-001
7.328483e+002;1.397764e-001
7.347768e+002;1.339832e-001
7.367053e+002;1.285162e-001
7.386339e+002;1.232766e-001
7.405624e+002;1.188968e-001
7.424910e+002;1.168114e-001
7.444196e+002;1.153550e-001
7.463481e+002;1.129858e-001
7.482766e+002;1.105405e-001
7.502052e+002;1.084234e-001
7.521337e+002;1.065100e-001
7.540623e+002;1.046368e-001
7.559908e+002;1.028075e-001
7.579194e+002;1.013392e-001
7.598479e+002;9.989085e-002
7.617765e+002;9.899458e-002
7.637050e+002;9.808197e-002
7.656335e+002;9.687684e-002
7.675621e+002;9.624717e-002
7.694907e+002;9.537469e-002
7.714192e+002;9.428699e-002
7.733478e+002;9.337619e-002
7.752763e+002;9.226474e-002
7.772048e+002;9.043807e-002
7.791334e+002;8.968795e-002
7.810620e+002;8.956528e-002
7.829905e+002;8.732839e-002
7.849191e+002;8.501317e-002
7.868476e+002;8.423764e-002
7.887761e+002;8.364089e-002
7.907047e+002;8.223580e-002
7.926332e+002;8.063557e-002
7.945618e+002;7.935498e-002
7.964903e+002;7.878869e-002
7.984189e+002;7.774938e-002
8.003474e+002;7.615139e-002
8.022759e+002;7.561553e-002
8.042045e+002;7.558954e-002
8.061331e+002;7.446958e-002
8.080616e+002;7.350070e-002
8.099902e+002;7.296970e-002
8.119187e+002;7.228082e-002
8.138472e+002;7.141826e-002
8.157758e+002;7.090303e-002
8.177043e+002;7.077146e-002
8.196329e+002;7.067698e-002
8.215615e+002;7.055094e-002
8.234900e+002;7.036521e-002
8.254185e+002;6.981172e-002
8.273471e+002;7.042670e-002
8.292756e+002;7.226513e-002
8.312042e+002;7.372402e-002
8.331328e+002;7.495189e-002
8.350613e+002;7.430811e-002
8.369898e+002;7.138815e-002
8.389184e+002;6.892302e-002
8.408469e+002;6.733368e-002
8.427755e+002;6.573416e-002
8.447040e+002;6.415723e-002
8.466326e+002;6.308239e-002
8.485611e+002;6.313568e-002
8.504897e+002;6.329631e-002
8.524182e+002;6.333943e-002
8.543467e+002;6.301358e-002
8.562753e+002;6.191924e-002
8.582039e+002;6.129158e-002
8.601324e+002;6.105027e-002
8.620610e+002;6.051579e-002
8.639895e+002;6.088780e-002
8.659180e+002;6.193880e-002
8.678466e+002;6.228447e-002
8.697751e+002;6.206187e-002
8.717037e+002;6.232026e-002
8.736323e+002;6.256538e-002
8.755608e+002;6.236930e-002
8.774893e+002;6.259959e-002
8.794179e+002;6.271794e-002
8.813464e+002;6.274451e-002
8.832750e+002;6.327492e-002
8.852036e+002;6.386788e-002
8.871321e+002;6.444586e-002
8.890606e+002;6.423049e-002
8.909892e+002;6.388777e-002
8.929177e+002;6.423832e-002
8.948463e+002;6.433944e-002
8.967748e+002;6.478190e-002
8.987034e+002;6.522385e-002
9.006319e+002;6.505328e-002
9.025605e+002;6.518069e-002
9.044890e+002;6.559819e-002
9.064175e+002;6.635972e-002
9.083461e+002;6.723731e-002
9.102747e+002;6.774446e-002
9.122032e+002;6.819947e-002
9.141318e+002;6.897739e-002
9.160603e+002;6.943452e-002
9.179888e+002;6.970441e-002
9.199174e+002;7.070747e-002
9.218459e+002;7.210616e-002
9.237745e+002;7.339628e-002
9.257031e+002;7.475396e-002
9.276316e+002;7.575420e-002
9.295601e+002;7.596502e-002
9.314887e+002;7.527048e-002
9.334172e+002;7.402964e-002
9.353458e+002;7.286251e-002
9.372744e+002;7.217697e-002
9.392029e+002;7.196027e-002
9.411314e+002;7.194049e-002
9.430600e+002;7.263172e-002
9.449885e+002;7.365017e-002
9.469171e+002;7.495403e-002
9.488456e+002;7.660250e-002
9.507742e+002;7.781632e-002
9.527027e+002;7.852472e-002
9.546313e+002;7.948965e-002
9.565598e+002;8.079993e-002
9.584883e+002;8.122952e-002
9.604169e+002;8.086103e-002
9.623455e+002;8.011825e-002
9.642740e+002;7.914847e-002
9.662026e+002;7.898033e-002
9.681311e+002;7.924517e-002
9.700596e+002;7.926466e-002
9.719882e+002;7.917710e-002
9.739167e+002;7.873463e-002
9.758453e+002;7.806864e-002
9.777739e+002;7.721665e-002
9.797024e+002;7.644612e-002
9.816309e+002;7.590844e-002
9.835595e+002;7.532006e-002
9.854880e+002;7.451002e-002
9.874166e+002;7.378810e-002
9.893452e+002;7.301717e-002
9.912737e+002;7.169022e-002
9.932022e+002;7.040277e-002
9.951307e+002;6.992307e-002
9.970593e+002;6.967088e-002
9.989879e+002;6.944288e-002
1.000916e+003;6.928801e-002
1.002845e+003;6.906482e-002
1.004773e+003;6.930612e-002
1.006702e+003;6.960592e-002
1.008631e+003;6.947767e-002
1.010559e+003;6.909733e-002
1.012488e+003;6.884396e-002
1.014416e+003;6.852897e-002
1.016345e+003;6.829233e-002
1.018273e+003;6.866036e-002
1.020202e+003;6.913436e-002
1.022130e+003;6.966404e-002
1.024059e+003;7.083480e-002
1.025988e+003;7.201057e-002
1.027916e+003;7.283371e-002
1.029845e+003;7.352240e-002
1.031773e+003;7.322913e-002
1.033702e+003;7.230548e-002
1.035630e+003;7.182401e-002
1.037559e+003;7.128506e-002
1.039487e+003;7.052299e-002
1.041416e+003;6.976558e-002
1.043344e+003;6.904431e-002
1.045273e+003;6.886225e-002
1.047202e+003;6.934036e-002
1.049130e+003;7.000944e-002
1.051059e+003;7.126441e-002
1.052987e+003;7.240897e-002
1.054916e+003;7.327130e-002
1.056844e+003;7.474231e-002
1.058773e+003;7.637612e-002
1.060701e+003;7.751697e-002
1.062630e+003;7.832765e-002
1.064558e+003;7.936640e-002
1.066487e+003;8.084710e-002
1.068416e+003;8.222771e-002
1.070344e+003;8.248345e-002
1.072273e+003;8.245360e-002
1.074201e+003;8.290878e-002
1.076130e+003;8.252376e-002
1.078058e+003;8.133740e-002
1.079987e+003;8.022311e-002
1.081915e+003;7.953131e-002
1.083844e+003;7.916918e-002
1.085773e+003;7.881094e-002
1.087701e+003;7.846271e-002
1.089630e+003;7.784581e-002
1.091558e+003;7.769553e-002
1.093487e+003;7.807082e-002
1.095415e+003;7.862581e-002
1.097344e+003;7.930745e-002
1.099272e+003;8.038455e-002
1.101201e+003;8.185498e-002
1.103129e+003;8.333324e-002
1.105058e+003;8.485712e-002
1.106987e+003;8.680236e-002
1.108915e+003;8.855176e-002
1.110844e+003;8.951046e-002
1.112772e+003;8.988462e-002
1.114701e+003;9.034072e-002
1.116629e+003;9.077244e-002
1.118558e+003;9.089651e-002
1.120486e+003;9.032971e-002
1.122415e+003;8.864018e-002
1.124344e+003;8.623169e-002
1.126272e+003;8.363582e-002
1.128201e+003;8.100120e-002
1.130129e+003;7.874043e-002
1.132058e+003;7.689536e-002
1.133986e+003;7.599732e-002
1.135915e+003;7.572403e-002
1.137843e+003;7.585189e-002
1.139772e+003;7.614741e-002
1.141700e+003;7.713255e-002
1.143629e+003;7.927210e-002
1.145557e+003;8.148655e-002
1.147486e+003;8.333983e-002
1.149415e+003;8.565491e-002
1.151343e+003;8.858301e-002
1.153272e+003;9.171260e-002
1.155200e+003;9.505883e-002
1.157129e+003;9.895784e-002
1.159057e+003;1.035803e-001
1.160986e+003;1.087572e-001
1.162914e+003;1.141950e-001
1.164843e+003;1.196846e-001
1.166771e+003;1.245992e-001
1.168700e+003;1.273507e-001
1.170629e+003;1.264891e-001
1.172557e+003;1.229394e-001
1.174486e+003;1.180278e-001
1.176414e+003;1.126126e-001
1.178343e+003;1.077828e-001
1.180271e+003;1.047977e-001
1.182200e+003;1.038266e-001
1.184128e+003;1.042096e-001
1.186057e+003;1.060402e-001
1.187986e+003;1.089573e-001
1.189914e+003;1.120546e-001
1.191843e+003;1.157935e-001
1.193771e+003;1.200480e-001
1.195700e+003;1.250529e-001
1.197628e+003;1.300260e-001
1.199557e+003;1.326587e-001
1.201485e+003;1.316101e-001
1.203414e+003;1.280546e-001
1.205343e+003;1.248714e-001
1.207271e+003;1.232153e-001
1.209200e+003;1.223679e-001
1.211128e+003;1.216102e-001
1.213057e+003;1.204919e-001
1.214985e+003;1.186911e-001
1.216914e+003;1.160199e-001
1.218842e+003;1.128437e-001
1.220771e+003;1.109699e-001
1.222699e+003;1.111884e-001
1.224628e+003;1.131630e-001
1.226557e+003;1.162858e-001
1.228485e+003;1.201137e-001
1.230414e+003;1.244981e-001
1.232342e+003;1.288724e-001
1.234271e+003;1.321211e-001
1.236199e+003;1.342463e-001
1.238128e+003;1.346658e-001
1.240056e+003;1.342878e-001
1.241985e+003;1.339591e-001
1.243913e+003;1.336194e-001
1.245842e+003;1.340070e-001
1.247771e+003;1.353279e-001
1.249699e+003;1.371327e-001
1.251628e+003;1.395926e-001
1.253556e+003;1.426776e-001
1.255485e+003;1.457433e-001
1.257413e+003;1.484073e-001
1.259342e+003;1.504417e-001
1.261270e+003;1.514188e-001
1.263199e+003;1.505812e-001
1.265127e+003;1.472706e-001
1.267056e+003;1.418004e-001
1.268985e+003;1.359665e-001
1.270913e+003;1.315042e-001
1.272842e+003;1.291114e-001
1.274770e+003;1.280355e-001
1.276699e+003;1.275812e-001
1.278627e+003;1.273419e-001
1.280556e+003;1.264604e-001
1.282484e+003;1.245092e-001
1.284413e+003;1.222491e-001
1.286342e+003;1.203250e-001
1.288270e+003;1.190542e-001
1.290199e+003;1.183355e-001
1.292127e+003;1.176805e-001
1.294056e+003;1.167941e-001
1.295984e+003;1.164007e-001
1.297913e+003;1.164385e-001
1.299841e+003;1.162499e-001
1.301770e+003;1.153345e-001
1.303698e+003;1.143622e-001
1.305627e+003;1.136556e-001
1.307556e+003;1.128156e-001
1.309484e+003;1.114923e-001
1.311413e+003;1.100896e-001
1.313341e+003;1.090534e-001
1.315270e+003;1.083013e-001
1.317198e+003;1.072597e-001
1.319127e+003;1.062772e-001
1.321055e+003;1.054185e-001
1.322984e+003;1.046818e-001
1.324912e+003;1.043174e-001
1.326841e+003;1.042383e-001
1.328770e+003;1.044823e-001
1.330698e+003;1.048713e-001
1.332627e+003;1.051731e-001
1.334555e+003;1.054118e-001
1.336484e+003;1.055568e-001
1.338412e+003;1.056053e-001
1.340341e+003;1.060921e-001
1.342269e+003;1.071254e-001
1.344198e+003;1.079285e-001
1.346126e+003;1.086103e-001
1.348055e+003;1.092836e-001
1.349984e+003;1.104960e-001
1.351912e+003;1.121561e-001
1.353841e+003;1.137170e-001
1.355769e+003;1.152171e-001
1.357698e+003;1.167641e-001
1.359626e+003;1.184303e-001
1.361555e+003;1.200549e-001
1.363483e+003;1.215859e-001
1.365412e+003;1.232078e-001
1.367341e+003;1.247784e-001
1.369269e+003;1.261929e-001
1.371198e+003;1.267222e-001
1.373126e+003;1.260487e-001
1.375055e+003;1.246426e-001
1.376983e+003;1.225387e-001
1.378912e+003;1.196343e-001
1.380840e+003;1.164433e-001
1.382769e+003;1.133295e-001
1.384698e+003;1.101067e-001
1.386626e+003;1.070590e-001
1.388555e+003;1.048522e-001
1.390483e+003;1.032950e-001
1.392412e+003;1.018970e-001
1.394340e+003;1.008316e-001
1.396269e+003;1.007721e-001
1.398197e+003;1.015664e-001
1.400126e+003;1.028951e-001
1.402054e+003;1.048251e-001
1.403983e+003;1.078531e-001
1.405911e+003;1.123311e-001
1.407840e+003;1.179128e-001
1.409769e+003;1.238286e-001
1.411697e+003;1.301241e-001
1.413626e+003;1.358058e-001
1.415554e+003;1.394031e-001
1.417483e+003;1.402907e-001
1.419411e+003;1.387499e-001
1.421340e+003;1.360386e-001
1.423268e+003;1.333184e-001
1.425197e+003;1.314557e-001
1.427125e+003;1.314709e-001
1.429054e+003;1.330320e-001
1.430983e+003;1.352946e-001
1.432911e+003;1.374829e-001
1.434840e+003;1.386813e-001
1.436768e+003;1.384129e-001
1.438697e+003;1.377818e-001
1.440625e+003;1.367787e-001
1.442554e+003;1.355228e-001
1.444482e+003;1.346325e-001
1.446411e+003;1.343041e-001
1.448340e+003;1.352495e-001
1.450268e+003;1.372916e-001
1.452197e+003;1.395145e-001
1.454125e+003;1.418805e-001
1.456054e+003;1.446977e-001
1.457982e+003;1.490918e-001
1.459911e+003;1.542928e-001
1.461839e+003;1.571225e-001
1.463768e+003;1.553452e-001
1.465697e+003;1.495427e-001
1.467625e+003;1.423549e-001
1.469554e+003;1.367697e-001
1.471482e+003;1.341949e-001
1.473411e+003;1.343350e-001
1.475339e+003;1.349938e-001
1.477268e+003;1.338555e-001
1.479196e+003;1.305679e-001
1.481125e+003;1.255326e-001
1.483053e+003;1.195614e-001
1.484982e+003;1.144834e-001
1.486911e+003;1.116646e-001
1.488839e+003;1.111463e-001
1.490768e+003;1.125025e-001
1.492696e+003;1.151246e-001
1.494625e+003;1.180388e-001
1.496553e+003;1.215792e-001
1.498482e+003;1.258888e-001
1.500410e+003;1.305899e-001
1.502339e+003;1.357988e-001
1.504267e+003;1.411055e-001
1.506196e+003;1.467324e-001
1.508125e+003;1.534225e-001
1.510053e+003;1.604021e-001
1.511982e+003;1.675821e-001
1.513910e+003;1.752519e-001
1.515839e+003;1.829431e-001
1.517767e+003;1.910661e-001
1.519696e+003;1.997761e-001
1.521624e+003;2.090040e-001
1.523553e+003;2.187336e-001
1.525481e+003;2.286108e-001
1.527410e+003;2.386761e-001
1.529339e+003;2.481871e-001
1.531267e+003;2.567056e-001
1.533196e+003;2.647138e-001
1.535124e+003;2.713062e-001
1.537053e+003;2.749094e-001
1.538981e+003;2.756582e-001
1.540910e+003;2.740320e-001
1.542838e+003;2.696611e-001
1.544767e+003;2.625512e-001
1.546695e+003;2.535321e-001
1.548624e+003;2.431020e-001
1.550553e+003;2.320620e-001
1.552481e+003;2.214512e-001
1.554410e+003;2.114097e-001
1.556338e+003;2.017649e-001
1.558267e+003;1.920233e-001
1.560195e+003;1.831346e-001
1.562124e+003;1.753593e-001
1.564052e+003;1.674112e-001
1.565981e+003;1.591941e-001
1.567910e+003;1.510210e-001
1.569838e+003;1.429740e-001
1.571767e+003;1.358576e-001
1.573695e+003;1.293659e-001
1.575624e+003;1.232066e-001
1.577552e+003;1.180805e-001
1.579481e+003;1.142420e-001
1.581409e+003;1.110852e-001
1.583338e+003;1.086682e-001
1.585266e+003;1.072294e-001
1.587195e+003;1.067482e-001
1.589124e+003;1.066509e-001
1.591052e+003;1.071589e-001
1.592981e+003;1.088203e-001
1.594909e+003;1.112926e-001
1.596838e+003;1.148477e-001
1.598766e+003;1.192379e-001
1.600695e+003;1.241303e-001
1.602623e+003;1.300956e-001
1.604552e+003;1.374213e-001
1.606480e+003;1.454916e-001
1.608409e+003;1.539088e-001
1.610338e+003;1.633529e-001
1.612266e+003;1.741526e-001
1.614195e+003;1.859580e-001
1.616123e+003;1.992304e-001
1.618052e+003;2.147588e-001
1.619980e+003;2.313897e-001
1.621909e+003;2.484887e-001
1.623837e+003;2.662030e-001
1.625766e+003;2.837465e-001
1.627694e+003;3.009741e-001
1.629623e+003;3.182190e-001
1.631552e+003;3.343475e-001
1.633480e+003;3.472560e-001
1.635409e+003;3.536331e-001
1.637337e+003;3.515365e-001
1.639266e+003;3.407182e-001
1.641194e+003;3.230827e-001
1.643123e+003;3.020045e-001
1.645051e+003;2.792272e-001
1.646980e+003;2.570707e-001
1.648909e+003;2.378776e-001
1.650837e+003;2.206445e-001
1.652766e+003;2.050901e-001
1.654694e+003;1.929763e-001
1.656623e+003;1.827361e-001
1.658551e+003;1.727140e-001
1.660480e+003;1.630465e-001
1.662408e+003;1.537724e-001
1.664337e+003;1.450378e-001
1.666266e+003;1.364293e-001
1.668194e+003;1.278845e-001
1.670123e+003;1.199550e-001
1.672051e+003;1.128900e-001
1.673980e+003;1.059339e-001
1.675908e+003;9.904578e-002
1.677837e+003;9.229781e-002
1.679765e+003;8.540671e-002
1.681694e+003;7.850126e-002
1.683622e+003;7.195359e-002
1.685551e+003;6.651466e-002
1.687479e+003;6.219189e-002
1.689408e+003;5.829003e-002
1.691337e+003;5.531736e-002
1.693265e+003;5.310473e-002
1.695194e+003;5.112455e-002
1.697122e+003;4.986835e-002
1.699051e+003;4.887152e-002
1.700979e+003;4.809179e-002
1.702908e+003;4.810078e-002
1.704836e+003;4.768261e-002
1.706765e+003;4.728186e-002
1.708693e+003;4.705578e-002
1.710622e+003;4.684594e-002
1.712551e+003;4.667317e-002
1.714479e+003;4.664359e-002
1.716408e+003;4.647256e-002
1.718336e+003;4.666594e-002
1.720265e+003;4.699984e-002
1.722193e+003;4.710589e-002
1.724122e+003;4.712347e-002
1.726050e+003;4.683236e-002
1.727979e+003;4.618237e-002
1.729908e+003;4.554464e-002
1.731836e+003;4.466779e-002
1.733765e+003;4.365643e-002
1.735693e+003;4.319310e-002
1.737622e+003;4.269319e-002
1.739550e+003;4.194928e-002
1.741479e+003;4.117870e-002
1.743407e+003;4.043613e-002
1.745336e+003;3.980889e-002
1.747265e+003;3.933651e-002
1.749193e+003;3.898206e-002
1.751122e+003;3.870335e-002
1.753050e+003;3.854780e-002
1.754979e+003;3.815934e-002
1.756907e+003;3.771249e-002
1.758836e+003;3.725437e-002
1.760764e+003;3.678847e-002
1.762693e+003;3.626062e-002
1.764621e+003;3.557866e-002
1.766550e+003;3.507601e-002
1.768479e+003;3.477391e-002
1.770407e+003;3.426018e-002
1.772336e+003;3.371977e-002
1.774264e+003;3.335378e-002
1.776193e+003;3.295542e-002
1.778121e+003;3.261778e-002
1.780050e+003;3.230047e-002
1.781978e+003;3.196470e-002
1.783907e+003;3.171783e-002
1.785835e+003;3.153512e-002
1.787764e+003;3.118324e-002
1.789693e+003;3.081664e-002
1.791621e+003;3.041715e-002
1.793550e+003;3.024600e-002
1.795478e+003;3.028472e-002
1.797407e+003;3.010961e-002
1.799335e+003;2.972500e-002
1.801264e+003;2.946645e-002
1.803192e+003;2.941847e-002
1.805121e+003;2.921805e-002
1.807049e+003;2.898967e-002
1.808978e+003;2.910707e-002
1.810907e+003;2.910813e-002
1.812835e+003;2.904670e-002
1.814764e+003;2.903572e-002
1.816692e+003;2.873828e-002
1.818621e+003;2.850452e-002
1.820549e+003;2.848570e-002
1.822478e+003;2.831923e-002
1.824406e+003;2.816701e-002
1.826335e+003;2.821308e-002
1.828264e+003;2.813356e-002
1.830192e+003;2.796274e-002
1.832121e+003;2.795048e-002
1.834049e+003;2.789448e-002
1.835978e+003;2.788610e-002
1.837906e+003;2.772689e-002
1.839835e+003;2.744733e-002
1.841763e+003;2.734312e-002
1.843692e+003;2.715377e-002
1.845620e+003;2.692534e-002
1.847549e+003;2.681914e-002
1.849478e+003;2.676814e-002
1.851406e+003;2.658588e-002
1.853335e+003;2.647300e-002
1.855263e+003;2.638707e-002
1.857192e+003;2.637732e-002
1.859120e+003;2.634799e-002
1.861049e+003;2.608716e-002
1.862977e+003;2.592372e-002
1.864906e+003;2.608786e-002
1.866834e+003;2.607329e-002
1.868763e+003;2.593135e-002
1.870692e+003;2.565340e-002
1.872620e+003;2.556128e-002
1.874549e+003;2.576438e-002
1.876477e+003;2.584121e-002
1.878406e+003;2.587124e-002
1.880334e+003;2.591225e-002
1.882263e+003;2.576994e-002
1.884191e+003;2.563399e-002
1.886120e+003;2.575991e-002
1.888048e+003;2.608096e-002
1.889977e+003;2.603589e-002
1.891906e+003;2.567435e-002
1.893834e+003;2.571731e-002
1.895763e+003;2.617333e-002
1.897691e+003;2.637510e-002
1.899620e+003;2.617576e-002
1.901548e+003;2.606823e-002
1.903477e+003;2.627139e-002
1.905405e+003;2.631187e-002
1.907334e+003;2.609402e-002
1.909262e+003;2.597338e-002
1.911191e+003;2.584125e-002
1.913120e+003;2.572300e-002
1.915048e+003;2.566472e-002
1.916977e+003;2.546553e-002
1.918905e+003;2.535128e-002
1.920834e+003;2.522783e-002
1.922762e+003;2.514971e-002
1.924691e+003;2.538989e-002
1.926619e+003;2.539494e-002
1.928548e+003;2.516003e-002
1.930477e+003;2.504987e-002
1.932405e+003;2.508174e-002
1.934334e+003;2.522211e-002
1.936262e+003;2.523910e-002
1.938191e+003;2.512724e-002
1.940119e+003;2.482257e-002
1.942048e+003;2.455319e-002
1.943976e+003;2.463804e-002
1.945905e+003;2.489120e-002
1.947833e+003;2.502726e-002
1.949762e+003;2.490299e-002
1.951691e+003;2.463008e-002
1.953619e+003;2.474621e-002
1.955548e+003;2.505955e-002
1.957476e+003;2.518113e-002
1.959405e+003;2.520062e-002
1.961333e+003;2.524851e-002
1.963262e+003;2.516403e-002
1.965190e+003;2.527587e-002
1.967119e+003;2.547452e-002
1.969047e+003;2.550832e-002
1.970976e+003;2.545249e-002
1.972905e+003;2.531412e-002
1.974833e+003;2.529217e-002
1.976762e+003;2.533569e-002
1.978690e+003;2.548250e-002
1.980619e+003;2.564208e-002
1.982547e+003;2.546988e-002
1.984476e+003;2.537717e-002
1.986404e+003;2.547269e-002
1.988333e+003;2.547923e-002
1.990261e+003;2.520560e-002
1.992190e+003;2.504864e-002
1.994119e+003;2.532241e-002
1.996047e+003;2.554961e-002
1.997976e+003;2.559702e-002
1.999904e+003;2.568359e-002
2.001833e+003;2.579743e-002
2.003761e+003;2.559554e-002
2.005690e+003;2.534629e-002
2.007618e+003;2.547884e-002
2.009547e+003;2.548647e-002
2.011476e+003;2.552694e-002
2.013404e+003;2.566841e-002
2.015333e+003;2.561083e-002
2.017261e+003;2.569748e-002
2.019190e+003;2.584399e-002
2.021118e+003;2.584480e-002
2.023047e+003;2.581093e-002
2.024975e+003;2.593778e-002
2.026904e+003;2.614518e-002
2.028833e+003;2.621490e-002
2.030761e+003;2.617763e-002
2.032690e+003;2.623060e-002
2.034618e+003;2.639883e-002
2.036547e+003;2.652540e-002
2.038475e+003;2.668921e-002
2.040404e+003;2.671641e-002
2.042332e+003;2.653611e-002
2.044261e+003;2.643612e-002
2.046189e+003;2.646901e-002
2.048118e+003;2.655805e-002
2.050047e+003;2.639510e-002
2.051975e+003;2.620075e-002
2.053904e+003;2.625851e-002
2.055832e+003;2.660881e-002
2.057761e+003;2.678953e-002
2.059689e+003;2.671701e-002
2.061618e+003;2.682076e-002
2.063546e+003;2.692950e-002
2.065475e+003;2.688611e-002
2.067404e+003;2.684381e-002
2.069332e+003;2.680550e-002
2.071260e+003;2.683937e-002
2.073189e+003;2.694871e-002
2.075118e+003;2.694261e-002
2.077046e+003;2.691892e-002
2.078975e+003;2.676564e-002
2.080903e+003;2.659134e-002
2.082832e+003;2.639285e-002
2.084760e+003;2.620765e-002
2.086689e+003;2.627326e-002
2.088617e+003;2.634718e-002
2.090546e+003;2.636116e-002
2.092475e+003;2.634282e-002
2.094403e+003;2.630195e-002
2.096332e+003;2.628857e-002
2.098260e+003;2.615598e-002
2.100189e+003;2.607407e-002
2.102117e+003;2.609363e-002
2.104046e+003;2.624013e-002
2.105974e+003;2.624763e-002
2.107903e+003;2.619519e-002
2.109832e+003;2.621821e-002
2.111760e+003;2.636028e-002
2.113688e+003;2.638369e-002
2.115617e+003;2.642831e-002
2.117546e+003;2.661628e-002
2.119474e+003;2.684148e-002
2.121403e+003;2.684603e-002
2.123331e+003;2.674911e-002
2.125260e+003;2.684539e-002
2.127188e+003;2.693810e-002
2.129117e+003;2.694187e-002
2.131045e+003;2.689104e-002
2.132974e+003;2.699726e-002
2.134903e+003;2.697378e-002
2.136831e+003;2.688730e-002
2.138760e+003;2.686245e-002
2.140688e+003;2.689658e-002
2.142617e+003;2.702046e-002
2.144545e+003;2.717366e-002
2.146474e+003;2.730254e-002
2.148402e+003;2.711102e-002
2.150331e+003;2.694956e-002
2.152260e+003;2.702886e-002
2.154188e+003;2.722647e-002
2.156117e+003;2.724933e-002
2.158045e+003;2.702530e-002
2.159974e+003;2.703393e-002
2.161902e+003;2.725360e-002
2.163831e+003;2.725699e-002
2.165759e+003;2.751969e-002
2.167688e+003;2.788275e-002
2.169616e+003;2.784682e-002
2.171545e+003;2.765224e-002
2.173474e+003;2.778712e-002
2.175402e+003;2.802788e-002
2.177331e+003;2.803615e-002
2.179259e+003;2.786699e-002
2.181188e+003;2.780895e-002
2.183116e+003;2.786031e-002
2.185045e+003;2.792151e-002
2.186973e+003;2.781453e-002
2.188902e+003;2.771376e-002
2.190831e+003;2.762897e-002
2.192759e+003;2.762950e-002
2.194688e+003;2.773315e-002
2.196616e+003;2.764351e-002
2.198545e+003;2.762925e-002
2.200473e+003;2.765125e-002
2.202402e+003;2.754363e-002
2.204330e+003;2.749848e-002
2.206259e+003;2.749301e-002
2.208188e+003;2.730511e-002
2.210116e+003;2.712245e-002
2.212044e+003;2.714210e-002
2.213973e+003;2.704624e-002
2.215902e+003;2.691342e-002
2.217830e+003;2.677476e-002
2.219759e+003;2.657207e-002
2.221687e+003;2.662776e-002
2.223616e+003;2.677237e-002
2.225544e+003;2.666493e-002
2.227473e+003;2.655883e-002
2.229401e+003;2.640926e-002
2.231330e+003;2.627037e-002
2.233259e+003;2.647856e-002
2.235187e+003;2.660282e-002
2.237116e+003;2.652353e-002
2.239044e+003;2.657369e-002
2.240973e+003;2.645141e-002
2.242901e+003;2.635211e-002
2.244830e+003;2.634240e-002
2.246758e+003;2.625801e-002
2.248687e+003;2.622884e-002
2.250615e+003;2.609082e-002
2.252544e+003;2.620529e-002
2.254473e+003;2.659042e-002
2.256401e+003;2.668685e-002
2.258330e+003;2.665634e-002
2.260258e+003;2.661702e-002
2.262187e+003;2.655453e-002
2.264115e+003;2.673022e-002
2.266044e+003;2.692065e-002
2.267972e+003;2.679108e-002
2.269901e+003;2.672487e-002
2.271830e+003;2.686002e-002
2.273758e+003;2.681469e-002
2.275687e+003;2.672885e-002
2.277615e+003;2.684025e-002
2.279544e+003;2.671979e-002
2.281472e+003;2.663671e-002
2.283401e+003;2.681628e-002
2.285329e+003;2.710207e-002
2.287258e+003;2.722912e-002
2.289187e+003;2.704402e-002
2.291115e+003;2.697026e-002
2.293043e+003;2.720809e-002
2.294972e+003;2.733183e-002
2.296901e+003;2.736542e-002
2.298829e+003;2.737495e-002
2.300758e+003;2.733595e-002
2.302686e+003;2.749625e-002
2.304615e+003;2.757424e-002
2.306543e+003;2.747260e-002
2.308472e+003;2.755535e-002
2.310400e+003;2.767335e-002
2.312329e+003;2.754222e-002
2.314258e+003;2.738800e-002
2.316186e+003;2.752372e-002
2.318115e+003;2.767381e-002
2.320043e+003;2.764775e-002
2.321972e+003;2.771012e-002
2.323900e+003;2.767593e-002
2.325829e+003;2.772234e-002
2.327757e+003;2.768179e-002
2.329686e+003;2.734502e-002
2.331615e+003;2.740921e-002
2.333543e+003;2.771319e-002
2.335472e+003;2.767438e-002
2.337400e+003;2.742933e-002
2.339329e+003;2.732876e-002
2.341257e+003;2.731086e-002
2.343186e+003;2.723420e-002
2.345114e+003;2.727664e-002
2.347043e+003;2.739845e-002
2.348971e+003;2.744786e-002
2.350900e+003;2.744991e-002
2.352829e+003;2.734103e-002
2.354757e+003;2.709917e-002
2.356686e+003;2.703196e-002
2.358614e+003;2.723833e-002
2.360543e+003;2.713137e-002
2.362471e+003;2.698136e-002
2.364400e+003;2.698654e-002
2.366328e+003;2.697784e-002
2.368257e+003;2.724058e-002
2.370186e+003;2.755553e-002
2.372114e+003;2.761227e-002
2.374042e+003;2.754119e-002
2.375971e+003;2.752495e-002
2.377900e+003;2.758303e-002
2.379828e+003;2.764885e-002
2.381757e+003;2.776712e-002
2.383685e+003;2.785667e-002
2.385614e+003;2.798850e-002
2.387542e+003;2.778994e-002
2.389471e+003;2.756340e-002
2.391399e+003;2.749364e-002
2.393328e+003;2.768716e-002
2.395257e+003;2.796850e-002
2.397185e+003;2.778715e-002
2.399114e+003;2.741087e-002
2.401042e+003;2.752195e-002
2.402971e+003;2.763377e-002
2.404899e+003;2.776719e-002
2.406828e+003;2.785212e-002
2.408756e+003;2.759235e-002
2.410685e+003;2.736722e-002
2.412614e+003;2.766894e-002
2.414542e+003;2.785007e-002
2.416471e+003;2.790826e-002
2.418399e+003;2.798826e-002
2.420328e+003;2.789808e-002
2.422256e+003;2.796479e-002
2.424185e+003;2.833791e-002
2.426113e+003;2.842644e-002
2.428042e+003;2.811836e-002
2.429970e+003;2.812915e-002
2.431899e+003;2.828295e-002
2.433828e+003;2.834827e-002
2.435756e+003;2.837306e-002
2.437685e+003;2.843992e-002
2.439613e+003;2.853389e-002
2.441542e+003;2.881624e-002
2.443470e+003;2.899122e-002
2.445399e+003;2.907387e-002
2.447327e+003;2.925176e-002
2.449256e+003;2.917783e-002
2.451185e+003;2.916578e-002
2.453113e+003;2.937047e-002
2.455042e+003;2.960491e-002
2.456970e+003;2.959448e-002
2.458899e+003;2.950613e-002
2.460827e+003;2.962917e-002
2.462756e+003;2.978635e-002
2.464684e+003;2.996179e-002
2.466613e+003;2.999033e-002
2.468542e+003;3.025378e-002
2.470470e+003;3.052193e-002
2.472398e+003;3.058268e-002
2.474327e+003;3.059612e-002
2.476256e+003;3.058033e-002
2.478184e+003;3.063341e-002
2.480113e+003;3.065006e-002
2.482041e+003;3.061496e-002
2.483970e+003;3.068095e-002
2.485898e+003;3.070051e-002
2.487827e+003;3.062168e-002
2.489755e+003;3.047220e-002
2.491684e+003;3.046836e-002
2.493613e+003;3.035866e-002
2.495541e+003;3.034054e-002
2.497470e+003;3.040915e-002
2.499398e+003;3.035923e-002
2.501327e+003;3.035027e-002
2.503255e+003;3.050988e-002
2.505184e+003;3.065795e-002
2.507112e+003;3.067836e-002
2.509041e+003;3.081365e-002
2.510969e+003;3.118979e-002
2.512898e+003;3.154726e-002
2.514827e+003;3.165951e-002
2.516755e+003;3.153964e-002
2.518684e+003;3.161019e-002
2.520612e+003;3.199684e-002
2.522541e+003;3.229526e-002
2.524469e+003;3.237611e-002
2.526398e+003;3.267154e-002
2.528326e+003;3.280288e-002
2.530255e+003;3.288011e-002
2.532184e+003;3.311652e-002
2.534112e+003;3.318322e-002
2.536041e+003;3.319055e-002
2.537969e+003;3.335660e-002
2.539898e+003;3.352705e-002
2.541826e+003;3.363513e-002
2.543755e+003;3.371837e-002
2.545683e+003;3.386013e-002
2.547612e+003;3.413561e-002
2.549541e+003;3.444071e-002
2.551469e+003;3.451055e-002
2.553397e+003;3.445240e-002
2.555326e+003;3.440835e-002
2.557255e+003;3.433641e-002
2.559183e+003;3.417737e-002
2.561112e+003;3.410615e-002
2.563040e+003;3.416407e-002
2.564969e+003;3.423164e-002
2.566897e+003;3.441402e-002
2.568826e+003;3.444752e-002
2.570754e+003;3.442578e-002
2.572683e+003;3.483346e-002
2.574612e+003;3.514182e-002
2.576540e+003;3.508100e-002
2.578469e+003;3.497634e-002
2.580397e+003;3.518853e-002
2.582326e+003;3.558729e-002
2.584254e+003;3.579352e-002
2.586183e+003;3.566027e-002
2.588111e+003;3.570480e-002
2.590040e+003;3.612103e-002
2.591969e+003;3.613608e-002
2.593897e+003;3.602684e-002
2.595826e+003;3.602349e-002
2.597754e+003;3.602778e-002
2.599683e+003;3.624408e-002
2.601611e+003;3.616651e-002
2.603540e+003;3.622035e-002
2.605468e+003;3.651225e-002
2.607397e+003;3.657233e-002
2.609325e+003;3.648760e-002
2.611254e+003;3.658949e-002
2.613183e+003;3.675843e-002
2.615111e+003;3.698264e-002
2.617040e+003;3.709400e-002
2.618968e+003;3.706708e-002
2.620897e+003;3.706253e-002
2.622825e+003;3.690645e-002
2.624754e+003;3.699845e-002
2.626682e+003;3.732171e-002
2.628611e+003;3.723477e-002
2.630540e+003;3.715730e-002
2.632468e+003;3.769435e-002
2.634396e+003;3.809032e-002
2.636325e+003;3.784977e-002
2.638254e+003;3.796594e-002
2.640182e+003;3.812392e-002
2.642111e+003;3.806413e-002
2.644039e+003;3.820040e-002
2.645968e+003;3.838134e-002
2.647896e+003;3.846764e-002
2.649825e+003;3.859578e-002
2.651753e+003;3.860842e-002
2.653682e+003;3.848234e-002
2.655611e+003;3.849867e-002
2.657539e+003;3.867966e-002
2.659468e+003;3.895622e-002
2.661396e+003;3.887040e-002
2.663325e+003;3.864384e-002
2.665253e+003;3.881471e-002
2.667182e+003;3.918084e-002
2.669110e+003;3.920463e-002
2.671039e+003;3.915528e-002
2.672968e+003;3.946070e-002
2.674896e+003;3.967636e-002
2.676825e+003;3.970493e-002
2.678753e+003;3.979905e-002
2.680682e+003;4.008464e-002
2.682610e+003;4.044668e-002
2.684539e+003;4.070915e-002
2.686467e+003;4.069471e-002
2.688396e+003;4.071472e-002
2.690324e+003;4.085004e-002
2.692253e+003;4.122157e-002
2.694182e+003;4.162103e-002
2.696110e+003;4.197950e-002
2.698039e+003;4.222523e-002
2.699967e+003;4.255741e-002
2.701896e+003;4.275768e-002
2.703824e+003;4.286303e-002
2.705753e+003;4.302690e-002
2.707681e+003;4.318754e-002
2.709610e+003;4.346852e-002
2.711539e+003;4.374137e-002
2.713467e+003;4.387665e-002
2.715396e+003;4.409529e-002
2.717324e+003;4.444332e-002
2.719253e+003;4.499181e-002
2.721181e+003;4.547318e-002
2.723110e+003;4.550203e-002
2.725038e+003;4.584880e-002
2.726967e+003;4.645327e-002
2.728896e+003;4.671310e-002
2.730824e+003;4.683218e-002
2.732752e+003;4.706734e-002
2.734681e+003;4.745151e-002
2.736610e+003;4.781930e-002
2.738538e+003;4.796022e-002
2.740467e+003;4.809934e-002
2.742395e+003;4.824609e-002
2.744324e+003;4.844430e-002
2.746252e+003;4.884909e-002
2.748181e+003;4.901338e-002
2.750109e+003;4.894049e-002
2.752038e+003;4.873890e-002
2.753967e+003;4.868631e-002
2.755895e+003;4.880563e-002
2.757824e+003;4.904847e-002
2.759752e+003;4.947089e-002
2.761681e+003;4.970968e-002
2.763609e+003;4.971600e-002
2.765538e+003;4.993157e-002
2.767466e+003;5.020501e-002
2.769395e+003;5.032387e-002
2.771323e+003;5.042664e-002
2.773252e+003;5.052136e-002
2.775181e+003;5.068904e-002
2.777109e+003;5.122453e-002
2.779038e+003;5.188917e-002
2.780966e+003;5.233101e-002
2.782895e+003;5.250006e-002
2.784823e+003;5.251883e-002
2.786752e+003;5.280573e-002
2.788680e+003;5.314622e-002
2.790609e+003;5.340581e-002
2.792538e+003;5.373848e-002
2.794466e+003;5.410612e-002
2.796395e+003;5.443752e-002
2.798323e+003;5.494648e-002
2.800252e+003;5.536720e-002
2.802180e+003;5.587902e-002
2.804109e+003;5.640827e-002
2.806037e+003;5.673384e-002
2.807966e+003;5.729718e-002
2.809895e+003;5.804193e-002
2.811823e+003;5.836821e-002
2.813751e+003;5.882917e-002
2.815680e+003;5.953213e-002
2.817609e+003;6.030704e-002
2.819537e+003;6.086794e-002
2.821466e+003;6.119181e-002
2.823394e+003;6.186770e-002
2.825323e+003;6.272192e-002
2.827251e+003;6.324441e-002
2.829180e+003;6.377746e-002
2.831108e+003;6.456190e-002
2.833037e+003;6.579859e-002
2.834966e+003;6.717488e-002
2.836894e+003;6.868279e-002
2.838823e+003;7.108618e-002
2.840751e+003;7.387800e-002
2.842680e+003;7.691395e-002
2.844608e+003;8.049122e-002
2.846537e+003;8.457813e-002
2.848465e+003;8.896401e-002
2.850394e+003;9.319522e-002
2.852323e+003;9.705786e-002
2.854251e+003;1.007499e-001
2.856180e+003;1.038418e-001
2.858108e+003;1.057092e-001
2.860037e+003;1.068477e-001
2.861965e+003;1.075230e-001
2.863894e+003;1.069375e-001
2.865822e+003;1.055844e-001
2.867751e+003;1.039057e-001
2.869679e+003;1.014692e-001
2.871608e+003;9.916158e-002
2.873536e+003;9.667304e-002
2.875465e+003;9.369235e-002
2.877394e+003;9.103860e-002
2.879322e+003;8.903945e-002
2.881251e+003;8.748164e-002
2.883179e+003;8.620554e-002
2.885108e+003;8.535584e-002
2.887036e+003;8.525310e-002
2.888965e+003;8.630949e-002
2.890893e+003;8.784752e-002
2.892822e+003;8.967230e-002
2.894750e+003;9.160887e-002
2.896679e+003;9.308694e-002
2.898608e+003;9.433857e-002
2.900536e+003;9.571254e-002
2.902465e+003;9.668840e-002
2.904393e+003;9.761331e-002
2.906322e+003;9.875959e-002
2.908250e+003;1.004535e-001
2.910179e+003;1.022737e-001
2.912107e+003;1.044350e-001
2.914036e+003;1.067936e-001
2.915965e+003;1.090697e-001
2.917893e+003;1.115556e-001
2.919822e+003;1.152457e-001
2.921750e+003;1.190727e-001
2.923679e+003;1.224612e-001
2.925607e+003;1.253562e-001
2.927536e+003;1.282525e-001
2.929464e+003;1.309782e-001
2.931393e+003;1.326919e-001
2.933322e+003;1.332914e-001
2.935250e+003;1.332842e-001
2.937178e+003;1.325285e-001
2.939107e+003;1.302115e-001
2.941036e+003;1.270448e-001
2.942964e+003;1.237027e-001
2.944893e+003;1.199034e-001
2.946821e+003;1.152046e-001
2.948750e+003;1.094422e-001
2.950678e+003;1.033523e-001
2.952607e+003;9.782593e-002
2.954535e+003;9.269825e-002
2.956464e+003;8.764224e-002
2.958393e+003;8.330294e-002
2.960321e+003;7.975918e-002
2.962250e+003;7.608131e-002
2.964178e+003;7.323854e-002
2.966107e+003;7.118707e-002
2.968035e+003;6.911948e-002
2.969964e+003;6.678210e-002
2.971892e+003;6.459524e-002
2.973821e+003;6.286582e-002
2.975750e+003;6.116511e-002
2.977678e+003;5.957534e-002
2.979607e+003;5.806277e-002
2.981535e+003;5.710520e-002
2.983464e+003;5.622705e-002
2.985392e+003;5.473396e-002
2.987321e+003;5.382061e-002
2.989249e+003;5.347341e-002
2.991178e+003;5.311645e-002
2.993106e+003;5.254153e-002
2.995035e+003;5.195725e-002
2.996964e+003;5.172256e-002
2.998892e+003;5.142131e-002
3.000821e+003;5.116812e-002
3.002749e+003;5.122762e-002
3.004678e+003;5.159907e-002
3.006606e+003;5.169360e-002
3.008535e+003;5.158896e-002
3.010463e+003;5.155516e-002
3.012392e+003;5.170095e-002
3.014321e+003;5.199646e-002
3.016249e+003;5.193708e-002
3.018177e+003;5.217140e-002
3.020106e+003;5.267995e-002
3.022035e+003;5.311083e-002
3.023963e+003;5.360050e-002
3.025892e+003;5.389521e-002
3.027820e+003;5.393794e-002
3.029749e+003;5.445044e-002
3.031677e+003;5.508782e-002
3.033606e+003;5.578772e-002
3.035534e+003;5.622034e-002
3.037463e+003;5.648841e-002
3.039392e+003;5.699728e-002
3.041320e+003;5.785868e-002
3.043249e+003;5.866260e-002
3.045177e+003;5.927391e-002
3.047106e+003;6.009607e-002
3.049034e+003;6.088120e-002
3.050963e+003;6.169305e-002
3.052891e+003;6.252872e-002
3.054820e+003;6.317221e-002
3.056749e+003;6.388619e-002
3.058677e+003;6.447095e-002
3.060606e+003;6.483980e-002
3.062534e+003;6.530926e-002
3.064463e+003;6.582754e-002
3.066391e+003;6.622498e-002
3.068320e+003;6.649906e-002
3.070248e+003;6.650578e-002
3.072177e+003;6.649065e-002
3.074105e+003;6.666337e-002
3.076034e+003;6.684169e-002
3.077963e+003;6.689645e-002
3.079891e+003;6.667473e-002
3.081820e+003;6.622119e-002
3.083748e+003;6.607719e-002
3.085677e+003;6.610999e-002
3.087605e+003;6.568371e-002
3.089534e+003;6.510220e-002
3.091462e+003;6.466976e-002
3.093391e+003;6.436262e-002
3.095320e+003;6.396630e-002
3.097248e+003;6.305809e-002
3.099177e+003;6.208840e-002
3.101105e+003;6.164359e-002
3.103034e+003;6.118021e-002
3.104962e+003;6.080246e-002
3.106891e+003;6.031652e-002
3.108819e+003;5.970276e-002
3.110748e+003;5.908310e-002
3.112677e+003;5.845020e-002
3.114605e+003;5.799770e-002
3.116533e+003;5.768885e-002
3.118462e+003;5.722721e-002
3.120391e+003;5.687066e-002
3.122319e+003;5.671999e-002
3.124248e+003;5.639967e-002
3.126176e+003;5.607814e-002
3.128105e+003;5.610918e-002
3.130033e+003;5.603901e-002
3.131962e+003;5.595454e-002
3.133890e+003;5.599299e-002
3.135819e+003;5.590525e-002
3.137748e+003;5.579303e-002
3.139676e+003;5.583806e-002
3.141605e+003;5.550031e-002
3.143533e+003;5.515669e-002
3.145462e+003;5.552591e-002
3.147390e+003;5.597037e-002
3.149319e+003;5.611619e-002
3.151247e+003;5.659288e-002
3.153176e+003;5.711790e-002
3.155104e+003;5.704697e-002
3.157033e+003;5.738581e-002
3.158962e+003;5.807450e-002
3.160890e+003;5.849853e-002
3.162819e+003;5.877651e-002
3.164747e+003;5.886146e-002
3.166676e+003;5.915072e-002
3.168604e+003;5.975370e-002
3.170533e+003;6.074373e-002
3.172461e+003;6.153378e-002
3.174390e+003;6.208400e-002
3.176319e+003;6.264383e-002
3.178247e+003;6.282327e-002
3.180176e+003;6.308150e-002
3.182104e+003;6.380455e-002
3.184033e+003;6.473605e-002
3.185961e+003;6.539114e-002
3.187890e+003;6.563569e-002
3.189818e+003;6.585014e-002
3.191747e+003;6.634045e-002
3.193676e+003;6.690063e-002
3.195604e+003;6.706864e-002
3.197532e+003;6.735991e-002
3.199461e+003;6.788634e-002
3.201390e+003;6.836000e-002
3.203318e+003;6.893743e-002
3.205247e+003;6.919906e-002
3.207175e+003;6.964182e-002
3.209104e+003;6.998398e-002
3.211032e+003;7.012991e-002
3.212961e+003;7.047638e-002
3.214889e+003;7.108044e-002
3.216818e+003;7.179548e-002
3.218747e+003;7.248691e-002
3.220675e+003;7.310435e-002
3.222604e+003;7.375700e-002
3.224532e+003;7.442813e-002
3.226461e+003;7.525063e-002
3.228389e+003;7.589581e-002
3.230318e+003;7.645912e-002
3.232246e+003;7.748260e-002
3.234175e+003;7.903184e-002
3.236104e+003;8.037893e-002
3.238032e+003;8.159621e-002
3.239961e+003;8.284602e-002
3.241889e+003;8.433507e-002
3.243818e+003;8.613189e-002
3.245746e+003;8.804161e-002
3.247675e+003;8.995525e-002
3.249603e+003;9.162070e-002
3.251532e+003;9.317473e-002
3.253460e+003;9.483124e-002
3.255389e+003;9.667519e-002
3.257318e+003;9.872503e-002
3.259246e+003;1.008836e-001
3.261175e+003;1.029892e-001
3.263103e+003;1.051800e-001
3.265032e+003;1.076239e-001
3.266960e+003;1.099283e-001
3.268889e+003;1.119012e-001
3.270817e+003;1.137727e-001
3.272746e+003;1.161576e-001
3.274675e+003;1.185326e-001
3.276603e+003;1.205039e-001
3.278531e+003;1.230492e-001
3.280460e+003;1.250626e-001
3.282389e+003;1.265922e-001
3.284317e+003;1.287905e-001
3.286246e+003;1.311810e-001
3.288174e+003;1.331318e-001
3.290103e+003;1.342421e-001
3.292031e+003;1.347865e-001
3.293960e+003;1.350535e-001
3.295888e+003;1.346966e-001
3.297817e+003;1.332369e-001
3.299746e+003;1.310805e-001
3.301674e+003;1.288887e-001
3.303603e+003;1.263981e-001
3.305531e+003;1.233330e-001
3.307460e+003;1.201031e-001
3.309388e+003;1.170420e-001
3.311317e+003;1.136523e-001
3.313245e+003;1.105339e-001
3.315174e+003;1.076981e-001
3.317103e+003;1.047726e-001
3.319031e+003;1.017869e-001
3.320960e+003;9.907787e-002
3.322888e+003;9.652442e-002
3.324817e+003;9.389861e-002
3.326745e+003;9.114330e-002
3.328674e+003;8.859422e-002
3.330602e+003;8.625165e-002
3.332531e+003;8.375277e-002
3.334459e+003;8.159101e-002
3.336388e+003;7.969007e-002
3.338317e+003;7.773504e-002
3.340245e+003;7.582518e-002
3.342174e+003;7.393138e-002
3.344102e+003;7.229471e-002
3.346031e+003;7.088680e-002
3.347959e+003;6.956112e-002
3.349888e+003;6.786193e-002
3.351816e+003;6.629201e-002
3.353745e+003;6.521638e-002
3.355674e+003;6.409501e-002
3.357602e+003;6.282113e-002
3.359531e+003;6.165864e-002
3.361459e+003;6.091449e-002
3.363388e+003;6.007605e-002
3.365316e+003;5.869135e-002
3.367245e+003;5.781056e-002
3.369173e+003;5.732864e-002
3.371102e+003;5.678667e-002
3.373031e+003;5.590543e-002
3.374959e+003;5.505870e-002
3.376887e+003;5.454018e-002
3.378816e+003;5.417811e-002
3.380745e+003;5.409399e-002
3.382673e+003;5.354810e-002
3.384602e+003;5.287635e-002
3.386530e+003;5.257029e-002
3.388459e+003;5.210755e-002
3.390387e+003;5.150859e-002
3.392316e+003;5.099556e-002
3.394244e+003;5.071045e-002
3.396173e+003;5.058903e-002
3.398102e+003;5.015451e-002
3.400030e+003;4.945760e-002
3.401959e+003;4.914600e-002
3.403887e+003;4.917249e-002
3.405816e+003;4.910081e-002
3.407744e+003;4.863761e-002
3.409673e+003;4.805515e-002
3.411601e+003;4.803338e-002
3.413530e+003;4.815916e-002
3.415458e+003;4.803990e-002
3.417387e+003;4.764163e-002
3.419316e+003;4.730913e-002
3.421244e+003;4.706357e-002
3.423173e+003;4.671970e-002
3.425101e+003;4.665215e-002
3.427030e+003;4.682092e-002
3.428958e+003;4.633378e-002
3.430887e+003;4.598964e-002
3.432815e+003;4.600231e-002
3.434744e+003;4.585771e-002
3.436673e+003;4.564463e-002
3.438601e+003;4.613173e-002
3.440530e+003;4.624557e-002
3.442458e+003;4.569995e-002
3.444387e+003;4.524565e-002
3.446315e+003;4.538408e-002
3.448244e+003;4.563271e-002
3.450172e+003;4.511998e-002
3.452101e+003;4.460790e-002
3.454030e+003;4.453194e-002
3.455958e+003;4.424172e-002
3.457886e+003;4.411241e-002
3.459815e+003;4.401776e-002
3.461744e+003;4.397651e-002
3.463672e+003;4.381932e-002
3.465601e+003;4.315350e-002
3.467529e+003;4.294269e-002
3.469458e+003;4.305423e-002
3.471386e+003;4.273326e-002
3.473315e+003;4.226974e-002
3.475243e+003;4.205881e-002
3.477172e+003;4.212887e-002
3.479101e+003;4.202403e-002
3.481029e+003;4.173212e-002
3.482958e+003;4.174215e-002
3.484886e+003;4.210342e-002
3.486815e+003;4.224097e-002
3.488743e+003;4.172913e-002
3.490672e+003;4.154992e-002
3.492600e+003;4.143658e-002
3.494529e+003;4.117094e-002
3.496458e+003;4.104291e-002
3.498386e+003;4.092624e-002
3.500315e+003;4.114023e-002
3.502243e+003;4.158212e-002
3.504172e+003;4.133974e-002
3.506100e+003;4.095722e-002
3.508029e+003;4.037471e-002
3.509957e+003;3.968173e-002
3.511886e+003;3.981982e-002
3.513814e+003;3.985802e-002
3.515743e+003;3.954165e-002
3.517672e+003;3.898094e-002
3.519600e+003;3.827939e-002
3.521529e+003;3.834953e-002
3.523457e+003;3.849613e-002
3.525386e+003;3.831250e-002
3.527314e+003;3.784652e-002
3.529243e+003;3.735781e-002
3.531171e+003;3.730600e-002
3.533100e+003;3.737750e-002
3.535029e+003;3.713832e-002
3.536957e+003;3.678628e-002
3.538885e+003;3.660124e-002
3.540814e+003;3.607505e-002
3.542743e+003;3.558290e-002
3.544671e+003;3.552616e-002
3.546600e+003;3.557506e-002
3.548528e+003;3.538310e-002
3.550457e+003;3.476569e-002
3.552385e+003;3.430080e-002
3.554314e+003;3.416611e-002
3.556242e+003;3.375050e-002
3.558171e+003;3.338229e-002
3.560100e+003;3.288929e-002
3.562028e+003;3.229397e-002
3.563957e+003;3.214306e-002
3.565885e+003;3.245162e-002
3.567814e+003;3.227895e-002
3.569742e+003;3.167377e-002
3.571671e+003;3.132887e-002
3.573599e+003;3.117825e-002
3.575528e+003;3.103474e-002
3.577457e+003;3.053359e-002
3.579385e+003;3.021342e-002
3.581314e+003;3.018213e-002
3.583242e+003;2.955681e-002
3.585171e+003;2.871559e-002
3.587099e+003;2.844969e-002
3.589028e+003;2.821792e-002
3.590956e+003;2.766290e-002
3.592885e+003;2.730734e-002
3.594813e+003;2.726267e-002
3.596742e+003;2.732918e-002
3.598671e+003;2.735127e-002
3.600599e+003;2.709484e-002
3.602528e+003;2.689929e-002
3.604456e+003;2.663157e-002
3.606385e+003;2.623373e-002
3.608313e+003;2.590385e-002
3.610242e+003;2.556455e-002
3.612170e+003;2.494422e-002
3.614099e+003;2.477620e-002
3.616028e+003;2.510084e-002
3.617956e+003;2.495963e-002
3.619885e+003;2.450382e-002
3.621813e+003;2.417392e-002
3.623742e+003;2.404128e-002
3.625670e+003;2.372597e-002
3.627599e+003;2.314824e-002
3.629527e+003;2.286246e-002
3.631456e+003;2.292201e-002
3.633385e+003;2.263540e-002
3.635313e+003;2.223500e-002
3.637241e+003;2.181900e-002
3.639170e+003;2.178374e-002
3.641099e+003;2.194389e-002
3.643027e+003;2.190406e-002
3.644956e+003;2.147703e-002
3.646884e+003;2.073352e-002
3.648813e+003;2.024796e-002
3.650741e+003;2.028056e-002
3.652670e+003;2.041925e-002
3.654598e+003;2.044002e-002
3.656527e+003;2.019735e-002
3.658456e+003;1.996214e-002
3.660384e+003;2.026383e-002
3.662313e+003;2.029376e-002
3.664241e+003;2.010364e-002
3.666170e+003;1.974686e-002
3.668098e+003;1.939425e-002
3.670027e+003;1.945374e-002
3.671955e+003;1.954676e-002
3.673884e+003;1.938947e-002
3.675813e+003;1.950898e-002
3.677741e+003;1.935430e-002
3.679669e+003;1.872849e-002
3.681598e+003;1.830254e-002
3.683527e+003;1.812145e-002
3.685455e+003;1.821234e-002
3.687384e+003;1.777001e-002
3.689312e+003;1.753367e-002
3.691241e+003;1.763590e-002
3.693169e+003;1.735407e-002
3.695098e+003;1.738865e-002
3.697026e+003;1.742204e-002
3.698955e+003;1.698155e-002
3.700884e+003;1.681375e-002
3.702812e+003;1.681630e-002
3.704741e+003;1.671835e-002
3.706669e+003;1.653806e-002
3.708598e+003;1.636978e-002
3.710526e+003;1.636919e-002
3.712455e+003;1.625873e-002
3.714383e+003;1.614127e-002
3.716312e+003;1.627844e-002
3.718240e+003;1.645325e-002
3.720169e+003;1.659114e-002
3.722098e+003;1.655420e-002
3.724026e+003;1.618639e-002
3.725955e+003;1.640026e-002
3.727883e+003;1.655437e-002
3.729812e+003;1.610977e-002
3.731740e+003;1.599099e-002
3.733669e+003;1.603203e-002
3.735597e+003;1.598143e-002
3.737526e+003;1.633547e-002
3.739455e+003;1.650794e-002
3.741383e+003;1.626020e-002
3.743312e+003;1.564883e-002
3.745240e+003;1.560686e-002
3.747169e+003;1.612040e-002
3.749097e+003;1.614863e-002
3.751026e+003;1.589632e-002
3.752954e+003;1.570620e-002
3.754883e+003;1.618516e-002
3.756812e+003;1.637012e-002
3.758740e+003;1.617969e-002
3.760668e+003;1.624806e-002
3.762597e+003;1.662078e-002
3.764526e+003;1.697841e-002
3.766454e+003;1.683462e-002
3.768383e+003;1.657224e-002
3.770311e+003;1.650897e-002
3.772240e+003;1.657479e-002
3.774168e+003;1.681947e-002
3.776097e+003;1.689059e-002
3.778025e+003;1.628143e-002
3.779954e+003;1.620741e-002
3.781883e+003;1.654270e-002
3.783811e+003;1.645174e-002
3.785740e+003;1.680448e-002
3.787668e+003;1.702496e-002
3.789597e+003;1.681730e-002
3.791525e+003;1.677841e-002
3.793454e+003;1.669456e-002
3.795382e+003;1.644902e-002
3.797311e+003;1.659747e-002
3.799240e+003;1.673109e-002
3.801168e+003;1.664281e-002
3.803097e+003;1.672900e-002
3.805025e+003;1.657654e-002
3.806954e+003;1.620710e-002
3.808882e+003;1.642091e-002
3.810811e+003;1.676502e-002
3.812739e+003;1.700625e-002
3.814668e+003;1.684457e-002
3.816596e+003;1.693107e-002
3.818525e+003;1.719195e-002
3.820454e+003;1.706501e-002
3.822382e+003;1.746478e-002
3.824311e+003;1.773346e-002
3.826239e+003;1.764083e-002
3.828168e+003;1.768276e-002
3.830096e+003;1.775465e-002
3.832025e+003;1.782469e-002
3.833953e+003;1.793911e-002
3.835882e+003;1.712587e-002
3.837811e+003;1.647800e-002
3.839739e+003;1.701749e-002
3.841667e+003;1.757434e-002
3.843596e+003;1.736969e-002
3.845525e+003;1.737314e-002
3.847453e+003;1.778251e-002
3.849382e+003;1.772904e-002
3.851310e+003;1.724821e-002
3.853239e+003;1.689656e-002
3.855167e+003;1.712356e-002
3.857096e+003;1.762924e-002
3.859024e+003;1.785007e-002
3.860953e+003;1.822793e-002
3.862882e+003;1.863444e-002
3.864810e+003;1.781309e-002
3.866739e+003;1.725373e-002
3.868667e+003;1.743956e-002
3.870596e+003;1.812759e-002
3.872524e+003;1.870584e-002
3.874453e+003;1.863669e-002
3.876381e+003;1.862659e-002
3.878310e+003;1.824185e-002
3.880239e+003;1.765985e-002
3.882167e+003;1.734431e-002
3.884096e+003;1.735196e-002
3.886024e+003;1.780181e-002
3.887953e+003;1.837678e-002
3.889881e+003;1.823515e-002
3.891810e+003;1.808237e-002
3.893738e+003;1.846946e-002
3.895667e+003;1.866730e-002
3.897595e+003;1.847032e-002
3.899524e+003;1.835158e-002
3.901453e+003;1.878482e-002
3.903381e+003;1.891181e-002
3.905310e+003;1.880367e-002
3.907238e+003;1.865374e-002
3.909167e+003;1.871268e-002
3.911095e+003;1.897875e-002
3.913024e+003;1.901659e-002
3.914952e+003;1.903846e-002
3.916881e+003;1.900236e-002
3.918810e+003;1.936314e-002
3.920738e+003;1.982104e-002
3.922667e+003;1.976926e-002
3.924595e+003;1.984296e-002
3.926524e+003;1.975546e-002
3.928452e+003;1.932867e-002
3.930381e+003;1.960080e-002
3.932309e+003;1.997560e-002
3.934238e+003;2.026102e-002
3.936167e+003;2.063174e-002
3.938095e+003;2.019701e-002
3.940023e+003;1.963841e-002
3.941952e+003;1.948434e-002
3.943881e+003;1.993675e-002
3.945809e+003;2.070586e-002
3.947738e+003;2.079581e-002
3.949666e+003;2.063945e-002
3.951595e+003;2.108166e-002
3.953523e+003;2.147505e-002
3.955452e+003;2.135196e-002
3.957380e+003;2.121089e-002
3.959309e+003;2.143484e-002
3.961238e+003;2.164379e-002
3.963166e+003;2.144417e-002
3.965095e+003;2.110315e-002
3.967023e+003;2.118135e-002
3.968952e+003;2.134845e-002
3.970880e+003;2.132182e-002
3.972809e+003;2.150624e-002
3.974737e+003;2.181088e-002
3.976666e+003;2.189116e-002
3.978594e+003;2.205895e-002
3.980523e+003;2.210947e-002
3.982452e+003;2.154652e-002
3.984380e+003;2.113269e-002
3.986309e+003;2.154266e-002
3.988237e+003;2.198920e-002
3.990166e+003;2.241516e-002
3.992094e+003;2.295981e-002
3.994023e+003;2.294734e-002
3.995951e+003;2.263436e-002
3.997880e+003;2.263463e-002
3.999809e+003;2.290123e-002
4.001737e+003;0.000000e+000
