3.992094e+002;0.000000e+000
4.011380e+002;0.000000e+000
4.030665e+002;0.000000e+000
4.049951e+002;0.000000e+000
4.069236e+002;0.000000e+000
4.088522e+002;0.000000e+000
4.107807e+002;0.000000e+000
4.127093e+002;0.000000e+000
4.146378e+002;0.000000e+000
4.165664e+002;0.000000e+000
4.184949e+002;0.000000e+000
4.204235e+002;0.000000e+000
4.223520e+002;0.000000e+000
4.242806e+002;0.000000e+000
4.262091e+002;0.000000e+000
4.281377e+002;0.000000e+000
4.300662e+002;0.000000e+000
4.319948e+002;0.000000e+000
4.339233e+002;0.000000e+000
4.358519e+002;0.000000e+000
4.377804e+002;0.000000e+000
4.397090e+002;0.000000e+000
4.416375e+002;0.000000e+000
4.435660e+002;0.000000e+000
4.454946e+002;0.000000e+000
4.474232e+002;0.000000e+000
4.493517e+002;0.000000e+000
4.512802e+002;0.000000e+000
4.532088e+002;0.000000e+000
4.551373e+002;0.000000e+000
4.570659e+002;0.000000e+000
4.589944e+002;0.000000e+000
4.609230e+002;0.000000e+000
4.628515e+002;0.000000e+000
4.647801e+002;0.000000e+000
4.667086e+002;0.000000e+000
4.686372e+002;0.000000e+000
4.705657e+002;0.000000e+000
4.724943e+002;0.000000e+000
4.744228e+002;0.000000e+000
4.763513e+002;0.000000e+000
4.782799e+002;0.000000e+000
4.802085e+002;0.000000e+000
4.821370e+002;0.000000e+000
4.840656e+002;0.000000e+000
4.859941e+002;0.000000e+000
4.879226e+002;0.000000e+000
4.898512e+002;0.000000e+000
4.917798e+002;0.000000e+000
4.937083e+002;0.000000e+000
4.956368e+002;0.000000e+000
4.975654e+002;0.000000e+000
4.994939e+002;0.000000e+000
5.014225e+002;0.000000e+000
5.033510e+002;0.000000e+000
5.052796e+002;0.000000e+000
5.072081e+002;0.000000e+000
5.091367e+002;0.000000e+000
5.110652e+002;0.000000e+000
5.129938e+002;0.000000e+000
5.149223e+002;0.000000e+000
5.168509e+002;0.000000e+000
5.187794e+002;0.000000e+000
5.207079e+002;0.000000e+000
5.226365e+002;0.000000e+000
5.245651e+002;0.000000e+000
5.264936e+002;0.000000e+000
5.284222e+002;0.000000e+000
5.303507e+002;0.000000e+000
5.322792e+002;0.000000e+000
5.342078e+002;0.000000e+000
5.361364e+002;0.000000e+000
5.380649e+002;0.000000e+000
5.399935e+002;0.000000e+000
5.419220e+002;0.000000e+000
5.438505e+002;0.000000e+000
5.457791e+002;0.000000e+000
5.477076e+002;0.000000e+000
5.496362e+002;0.000000e+000
5.515648e+002;0.000000e+000
5.534933e+002;0.000000e+000
5.554218e+002;0.000000e+000
5.573504e+002;0.000000e+000
5.592789e+002;0.000000e+000
5.612075e+002;0.000000e+000
5.631360e+002;0.000000e+000
5.650646e+002;0.000000e+000
5.669931e+002;0.000000e+000
5.689217e+002;0.000000e+000
5.708502e+002;0.000000e+000
5.727787e+002;0.000000e+000
5.747073e+002;0.000000e+000
5.766359e+002;0.000000e+000
5.785644e+002;0.000000e+000
5.804930e+002;0.000000e+000
5.824215e+002;0.000000e+000
5.843500e+002;0.000000e+000
5.862786e+002;0.000000e+000
5.882072e+002;0.000000e+000
5.901357e+002;0.000000e+000
5.920643e+002;0.000000e+000
5.939928e+002;0.000000e+000
5.959213e+002;0.000000e+000
5.978499e+002;0.000000e+000
5.997784e+002;1.197458e-001
6.017070e+002;1.192617e-001
6.036355e+002;1.186733e-001
6.055641e+002;1.145407e-001
6.074926e+002;1.127741e-001
6.094211e+002;1.154207e-001
6.113497e+002;1.138656e-001
6.132783e+002;1.068053e-001
6.152068e+002;1.085111e-001
6.171354e+002;1.126921e-001
6.190639e+002;1.128413e-001
6.209924e+002;1.109216e-001
6.229210e+002;1.129436e-001
6.248495e+002;1.156892e-001
6.267781e+002;1.163005e-001
6.287067e+002;1.162477e-001
6.306352e+002;1.156960e-001
6.325637e+002;1.144719e-001
6.344923e+002;1.149574e-001
6.364208e+002;1.177867e-001
6.383494e+002;1.163309e-001
6.402780e+002;1.158847e-001
6.422065e+002;1.177870e-001
6.441350e+002;1.183008e-001
6.460636e+002;1.200879e-001
6.479921e+002;1.199580e-001
6.499207e+002;1.200646e-001
6.518492e+002;1.224795e-001
6.537778e+002;1.258395e-001
6.557063e+002;1.293788e-001
6.576349e+002;1.292309e-001
6.595634e+002;1.329035e-001
6.614919e+002;1.374890e-001
6.634205e+002;1.392055e-001
6.653491e+002;1.381318e-001
6.672776e+002;1.384033e-001
6.692062e+002;1.413261e-001
6.711347e+002;1.440975e-001
6.730632e+002;1.445298e-001
6.749918e+002;1.441085e-001
6.769203e+002;1.446631e-001
6.788489e+002;1.467037e-001
6.807775e+002;1.479568e-001
6.827060e+002;1.480909e-001
6.846345e+002;1.486500e-001
6.865631e+002;1.481977e-001
6.884916e+002;1.458545e-001
6.904202e+002;1.446050e-001
6.923488e+002;1.437512e-001
6.942773e+002;1.418407e-001
6.962058e+002;1.388169e-001
6.981344e+002;1.364291e-001
7.000629e+002;1.349248e-001
7.019915e+002;1.333278e-001
7.039200e+002;1.315902e-001
7.058486e+002;1.311093e-001
7.077771e+002;1.308092e-001
7.097057e+002;1.293030e-001
7.116342e+002;1.273222e-001
7.135627e+002;1.266892e-001
7.154913e+002;1.267004e-001
7.174199e+002;1.257800e-001
7.193484e+002;1.245639e-001
7.212770e+002;1.249347e-001
7.232055e+002;1.261409e-001
7.251340e+002;1.260911e-001
7.270626e+002;1.251740e-001
7.289911e+002;1.236893e-001
7.309197e+002;1.207306e-001
7.328483e+002;1.157341e-001
7.347768e+002;1.101468e-001
7.367053e+002;1.060536e-001
7.386339e+002;1.024196e-001
7.405624e+002;9.856868e-002
7.424910e+002;9.665880e-002
7.444196e+002;9.547801e-002
7.463481e+002;9.315325e-002
7.482766e+002;9.134591e-002
7.502052e+002;9.030719e-002
7.521337e+002;8.864310e-002
7.540623e+002;8.624854e-002
7.559908e+002;8.496562e-002
7.579194e+002;8.480335e-002
7.598479e+002;8.365735e-002
7.617765e+002;8.190870e-002
7.637050e+002;7.991663e-002
7.656335e+002;7.902234e-002
7.675621e+002;7.841691e-002
7.694907e+002;7.723778e-002
7.714192e+002;7.690597e-002
7.733478e+002;7.559352e-002
7.752763e+002;7.397876e-002
7.772048e+002;7.386021e-002
7.791334e+002;7.335995e-002
7.810620e+002;7.210569e-002
7.829905e+002;7.075228e-002
7.849191e+002;6.995880e-002
7.868476e+002;7.022263e-002
7.887761e+002;7.031745e-002
7.907047e+002;6.927048e-002
7.926332e+002;6.676541e-002
7.945618e+002;6.470940e-002
7.964903e+002;6.417325e-002
7.984189e+002;6.380539e-002
8.003474e+002;6.360070e-002
8.022759e+002;6.302875e-002
8.042045e+002;6.184313e-002
8.061331e+002;6.144717e-002
8.080616e+002;6.282603e-002
8.099902e+002;6.575718e-002
8.119187e+002;6.809686e-002
8.138472e+002;6.859446e-002
8.157758e+002;6.763723e-002
8.177043e+002;6.532551e-002
8.196329e+002;6.286099e-002
8.215615e+002;6.129333e-002
8.234900e+002;5.937438e-002
8.254185e+002;5.808996e-002
8.273471e+002;5.830321e-002
8.292756e+002;5.872052e-002
8.312042e+002;5.905152e-002
8.331328e+002;5.905570e-002
8.350613e+002;5.828969e-002
8.369898e+002;5.695936e-002
8.389184e+002;5.535323e-002
8.408469e+002;5.382072e-002
8.427755e+002;5.310144e-002
8.447040e+002;5.244816e-002
8.466326e+002;5.146581e-002
8.485611e+002;5.118743e-002
8.504897e+002;5.114158e-002
8.524182e+002;5.093375e-002
8.543467e+002;5.114184e-002
8.562753e+002;5.114400e-002
8.582039e+002;5.083954e-002
8.601324e+002;5.085518e-002
8.620610e+002;5.096117e-002
8.639895e+002;5.102653e-002
8.659180e+002;5.134127e-002
8.678466e+002;5.172495e-002
8.697751e+002;5.221082e-002
8.717037e+002;5.237504e-002
8.736323e+002;5.238368e-002
8.755608e+002;5.257118e-002
8.774893e+002;5.259976e-002
8.794179e+002;5.231146e-002
8.813464e+002;5.256322e-002
8.832750e+002;5.325996e-002
8.852036e+002;5.368343e-002
8.871321e+002;5.383118e-002
8.890606e+002;5.399729e-002
8.909892e+002;5.428641e-002
8.929177e+002;5.503162e-002
8.948463e+002;5.565915e-002
8.967748e+002;5.563474e-002
8.987034e+002;5.544290e-002
9.006319e+002;5.587977e-002
9.025605e+002;5.641977e-002
9.044890e+002;5.686640e-002
9.064175e+002;5.716208e-002
9.083461e+002;5.743788e-002
9.102747e+002;5.777423e-002
9.122032e+002;5.848192e-002
9.141318e+002;5.912297e-002
9.160603e+002;5.936921e-002
9.179888e+002;5.966885e-002
9.199174e+002;6.023304e-002
9.218459e+002;6.046807e-002
9.237745e+002;6.131153e-002
9.257031e+002;6.244646e-002
9.276316e+002;6.293908e-002
9.295601e+002;6.270428e-002
9.314887e+002;6.186376e-002
9.334172e+002;6.084164e-002
9.353458e+002;6.022759e-002
9.372744e+002;6.028903e-002
9.392029e+002;6.069835e-002
9.411314e+002;6.105252e-002
9.430600e+002;6.169641e-002
9.449885e+002;6.288955e-002
9.469171e+002;6.407758e-002
9.488456e+002;6.502587e-002
9.507742e+002;6.581432e-002
9.527027e+002;6.648721e-002
9.546313e+002;6.752133e-002
9.565598e+002;6.824053e-002
9.584883e+002;6.872945e-002
9.604169e+002;6.920624e-002
9.623455e+002;6.921895e-002
9.642740e+002;6.916447e-002
9.662026e+002;6.920881e-002
9.681311e+002;6.926372e-002
9.700596e+002;6.963821e-002
9.719882e+002;6.994766e-002
9.739167e+002;6.979161e-002
9.758453e+002;6.943727e-002
9.777739e+002;6.873480e-002
9.797024e+002;6.765818e-002
9.816309e+002;6.710372e-002
9.835595e+002;6.663278e-002
9.854880e+002;6.580009e-002
9.874166e+002;6.534920e-002
9.893452e+002;6.501860e-002
9.912737e+002;6.447015e-002
9.932022e+002;6.383736e-002
9.951307e+002;6.338850e-002
9.970593e+002;6.310610e-002
9.989879e+002;6.288488e-002
1.000916e+003;6.285915e-002
1.002845e+003;6.307082e-002
1.004773e+003;6.307342e-002
1.006702e+003;6.276809e-002
1.008631e+003;6.279398e-002
1.010559e+003;6.280481e-002
1.012488e+003;6.278050e-002
1.014416e+003;6.278084e-002
1.016345e+003;6.288699e-002
1.018273e+003;6.337716e-002
1.020202e+003;6.380793e-002
1.022130e+003;6.414264e-002
1.024059e+003;6.442337e-002
1.025988e+003;6.506086e-002
1.027916e+003;6.574862e-002
1.029845e+003;6.578594e-002
1.031773e+003;6.521946e-002
1.033702e+003;6.502026e-002
1.035630e+003;6.482571e-002
1.037559e+003;6.414083e-002
1.039487e+003;6.387156e-002
1.041416e+003;6.422131e-002
1.043344e+003;6.461058e-002
1.045273e+003;6.519289e-002
1.047202e+003;6.579593e-002
1.049130e+003;6.613510e-002
1.051059e+003;6.670622e-002
1.052987e+003;6.795468e-002
1.054916e+003;6.926799e-002
1.056844e+003;7.040749e-002
1.058773e+003;7.165708e-002
1.060701e+003;7.314309e-002
1.062630e+003;7.442207e-002
1.064558e+003;7.520681e-002
1.066487e+003;7.548959e-002
1.068416e+003;7.618693e-002
1.070344e+003;7.678040e-002
1.072273e+003;7.686471e-002
1.074201e+003;7.688718e-002
1.076130e+003;7.662183e-002
1.078058e+003;7.624119e-002
1.079987e+003;7.572016e-002
1.081915e+003;7.496572e-002
1.083844e+003;7.459082e-002
1.085773e+003;7.413252e-002
1.087701e+003;7.382116e-002
1.089630e+003;7.337569e-002
1.091558e+003;7.352711e-002
1.093487e+003;7.413920e-002
1.095415e+003;7.487579e-002
1.097344e+003;7.572418e-002
1.099272e+003;7.621536e-002
1.101201e+003;7.708371e-002
1.103129e+003;7.908625e-002
1.105058e+003;8.054307e-002
1.106987e+003;8.134759e-002
1.108915e+003;8.194376e-002
1.110844e+003;8.256258e-002
1.112772e+003;8.358433e-002
1.114701e+003;8.414376e-002
1.116629e+003;8.421049e-002
1.118558e+003;8.366535e-002
1.120486e+003;8.235883e-002
1.122415e+003;8.050589e-002
1.124344e+003;7.847042e-002
1.126272e+003;7.590161e-002
1.128201e+003;7.326145e-002
1.130129e+003;7.134067e-002
1.132058e+003;7.018521e-002
1.133986e+003;6.987986e-002
1.135915e+003;7.037756e-002
1.137843e+003;7.084724e-002
1.139772e+003;7.172668e-002
1.141700e+003;7.316207e-002
1.143629e+003;7.474979e-002
1.145557e+003;7.628894e-002
1.147486e+003;7.813828e-002
1.149415e+003;7.992301e-002
1.151343e+003;8.172345e-002
1.153272e+003;8.404838e-002
1.155200e+003;8.643687e-002
1.157129e+003;8.984040e-002
1.159057e+003;9.426314e-002
1.160986e+003;9.899516e-002
1.162914e+003;1.040068e-001
1.164843e+003;1.085771e-001
1.166771e+003;1.116281e-001
1.168700e+003;1.128112e-001
1.170629e+003;1.114973e-001
1.172557e+003;1.087613e-001
1.174486e+003;1.048463e-001
1.176414e+003;9.995212e-002
1.178343e+003;9.569747e-002
1.180271e+003;9.236293e-002
1.182200e+003;9.068432e-002
1.184128e+003;9.063761e-002
1.186057e+003;9.168674e-002
1.187986e+003;9.369950e-002
1.189914e+003;9.625735e-002
1.191843e+003;9.886567e-002
1.193771e+003;1.014298e-001
1.195700e+003;1.041651e-001
1.197628e+003;1.067333e-001
1.199557e+003;1.079367e-001
1.201485e+003;1.068545e-001
1.203414e+003;1.047540e-001
1.205343e+003;1.031011e-001
1.207271e+003;1.018841e-001
1.209200e+003;1.011286e-001
1.211128e+003;1.006179e-001
1.213057e+003;9.951232e-002
1.214985e+003;9.771438e-002
1.216914e+003;9.577050e-002
1.218842e+003;9.374493e-002
1.220771e+003;9.236945e-002
1.222699e+003;9.262746e-002
1.224628e+003;9.434030e-002
1.226557e+003;9.712747e-002
1.228485e+003;1.008072e-001
1.230414e+003;1.048837e-001
1.232342e+003;1.083924e-001
1.234271e+003;1.109726e-001
1.236199e+003;1.123733e-001
1.238128e+003;1.125783e-001
1.240056e+003;1.126846e-001
1.241985e+003;1.128422e-001
1.243913e+003;1.128163e-001
1.245842e+003;1.131359e-001
1.247771e+003;1.142807e-001
1.249699e+003;1.159858e-001
1.251628e+003;1.180276e-001
1.253556e+003;1.202090e-001
1.255485e+003;1.222603e-001
1.257413e+003;1.238737e-001
1.259342e+003;1.250757e-001
1.261270e+003;1.250469e-001
1.263199e+003;1.231600e-001
1.265127e+003;1.201139e-001
1.267056e+003;1.160458e-001
1.268985e+003;1.122868e-001
1.270913e+003;1.099216e-001
1.272842e+003;1.085033e-001
1.274770e+003;1.079101e-001
1.276699e+003;1.081981e-001
1.278627e+003;1.083719e-001
1.280556e+003;1.074986e-001
1.282484e+003;1.061701e-001
1.284413e+003;1.051123e-001
1.286342e+003;1.039973e-001
1.288270e+003;1.029164e-001
1.290199e+003;1.020617e-001
1.292127e+003;1.016133e-001
1.294056e+003;1.012498e-001
1.295984e+003;1.011799e-001
1.297913e+003;1.015348e-001
1.299841e+003;1.017530e-001
1.301770e+003;1.015370e-001
1.303698e+003;1.012274e-001
1.305627e+003;1.009021e-001
1.307556e+003;1.005582e-001
1.309484e+003;1.002733e-001
1.311413e+003;9.990032e-002
1.313341e+003;9.956690e-002
1.315270e+003;9.942420e-002
1.317198e+003;9.935376e-002
1.319127e+003;9.951477e-002
1.321055e+003;9.971236e-002
1.322984e+003;9.996838e-002
1.324912e+003;1.003264e-001
1.326841e+003;1.009694e-001
1.328770e+003;1.019956e-001
1.330698e+003;1.031881e-001
1.332627e+003;1.037711e-001
1.334555e+003;1.040862e-001
1.336484e+003;1.047211e-001
1.338412e+003;1.052963e-001
1.340341e+003;1.058672e-001
1.342269e+003;1.065728e-001
1.344198e+003;1.072837e-001
1.346126e+003;1.078750e-001
1.348055e+003;1.082769e-001
1.349984e+003;1.087446e-001
1.351912e+003;1.092991e-001
1.353841e+003;1.101938e-001
1.355769e+003;1.112479e-001
1.357698e+003;1.119602e-001
1.359626e+003;1.125805e-001
1.361555e+003;1.133449e-001
1.363483e+003;1.140200e-001
1.365412e+003;1.145309e-001
1.367341e+003;1.149967e-001
1.369269e+003;1.152380e-001
1.371198e+003;1.149762e-001
1.373126e+003;1.140204e-001
1.375055e+003;1.123179e-001
1.376983e+003;1.100755e-001
1.378912e+003;1.073959e-001
1.380840e+003;1.046736e-001
1.382769e+003;1.020697e-001
1.384698e+003;9.924873e-002
1.386626e+003;9.652840e-002
1.388555e+003;9.419934e-002
1.390483e+003;9.207863e-002
1.392412e+003;9.032501e-002
1.394340e+003;8.938067e-002
1.396269e+003;8.898353e-002
1.398197e+003;8.907460e-002
1.400126e+003;8.974164e-002
1.402054e+003;9.101993e-002
1.403983e+003;9.283499e-002
1.405911e+003;9.539875e-002
1.407840e+003;9.903112e-002
1.409769e+003;1.035956e-001
1.411697e+003;1.085815e-001
1.413626e+003;1.133047e-001
1.415554e+003;1.167655e-001
1.417483e+003;1.182348e-001
1.419411e+003;1.178497e-001
1.421340e+003;1.164176e-001
1.423268e+003;1.146558e-001
1.425197e+003;1.139550e-001
1.427125e+003;1.153088e-001
1.429054e+003;1.178393e-001
1.430983e+003;1.205944e-001
1.432911e+003;1.230450e-001
1.434840e+003;1.247003e-001
1.436768e+003;1.255505e-001
1.438697e+003;1.255698e-001
1.440625e+003;1.253536e-001
1.442554e+003;1.251524e-001
1.444482e+003;1.249670e-001
1.446411e+003;1.255234e-001
1.448340e+003;1.270870e-001
1.450268e+003;1.292778e-001
1.452197e+003;1.319111e-001
1.454125e+003;1.348514e-001
1.456054e+003;1.378492e-001
1.457982e+003;1.416022e-001
1.459911e+003;1.460117e-001
1.461839e+003;1.489298e-001
1.463768e+003;1.483287e-001
1.465697e+003;1.443303e-001
1.467625e+003;1.391288e-001
1.469554e+003;1.350532e-001
1.471482e+003;1.333058e-001
1.473411e+003;1.333154e-001
1.475339e+003;1.333797e-001
1.477268e+003;1.324503e-001
1.479196e+003;1.303750e-001
1.481125e+003;1.270647e-001
1.483053e+003;1.230442e-001
1.484982e+003;1.202695e-001
1.486911e+003;1.194633e-001
1.488839e+003;1.200415e-001
1.490768e+003;1.217332e-001
1.492696e+003;1.243441e-001
1.494625e+003;1.275640e-001
1.496553e+003;1.309375e-001
1.498482e+003;1.343907e-001
1.500410e+003;1.382150e-001
1.502339e+003;1.424143e-001
1.504267e+003;1.470528e-001
1.506196e+003;1.517604e-001
1.508125e+003;1.562700e-001
1.510053e+003;1.610402e-001
1.511982e+003;1.662281e-001
1.513910e+003;1.714669e-001
1.515839e+003;1.768175e-001
1.517767e+003;1.822632e-001
1.519696e+003;1.875990e-001
1.521624e+003;1.930188e-001
1.523553e+003;1.987725e-001
1.525481e+003;2.047357e-001
1.527410e+003;2.106438e-001
1.529339e+003;2.165171e-001
1.531267e+003;2.217532e-001
1.533196e+003;2.259454e-001
1.535124e+003;2.292825e-001
1.537053e+003;2.312126e-001
1.538981e+003;2.313896e-001
1.540910e+003;2.300793e-001
1.542838e+003;2.268725e-001
1.544767e+003;2.221235e-001
1.546695e+003;2.166637e-001
1.548624e+003;2.104713e-001
1.550553e+003;2.035356e-001
1.552481e+003;1.964120e-001
1.554410e+003;1.897285e-001
1.556338e+003;1.832450e-001
1.558267e+003;1.767154e-001
1.560195e+003;1.702505e-001
1.562124e+003;1.640276e-001
1.564052e+003;1.579301e-001
1.565981e+003;1.517902e-001
1.567910e+003;1.456765e-001
1.569838e+003;1.399352e-001
1.571767e+003;1.347283e-001
1.573695e+003;1.300536e-001
1.575624e+003;1.256736e-001
1.577552e+003;1.217671e-001
1.579481e+003;1.183335e-001
1.581409e+003;1.156212e-001
1.583338e+003;1.138212e-001
1.585266e+003;1.125007e-001
1.587195e+003;1.115595e-001
1.589124e+003;1.112236e-001
1.591052e+003;1.115187e-001
1.592981e+003;1.121220e-001
1.594909e+003;1.132505e-001
1.596838e+003;1.151500e-001
1.598766e+003;1.172939e-001
1.600695e+003;1.199365e-001
1.602623e+003;1.235395e-001
1.604552e+003;1.275410e-001
1.606480e+003;1.319606e-001
1.608409e+003;1.373395e-001
1.610338e+003;1.433155e-001
1.612266e+003;1.498806e-001
1.614195e+003;1.573493e-001
1.616123e+003;1.658544e-001
1.618052e+003;1.758153e-001
1.619980e+003;1.862171e-001
1.621909e+003;1.964493e-001
1.623837e+003;2.067671e-001
1.625766e+003;2.169157e-001
1.627694e+003;2.265752e-001
1.629623e+003;2.360315e-001
1.631552e+003;2.451046e-001
1.633480e+003;2.523929e-001
1.635409e+003;2.558595e-001
1.637337e+003;2.541959e-001
1.639266e+003;2.475539e-001
1.641194e+003;2.370298e-001
1.643123e+003;2.243914e-001
1.645051e+003;2.106860e-001
1.646980e+003;1.969801e-001
1.648909e+003;1.845788e-001
1.650837e+003;1.734388e-001
1.652766e+003;1.629856e-001
1.654694e+003;1.539753e-001
1.656623e+003;1.468064e-001
1.658551e+003;1.399880e-001
1.660480e+003;1.330460e-001
1.662408e+003;1.260392e-001
1.664337e+003;1.192877e-001
1.666266e+003;1.129732e-001
1.668194e+003;1.068265e-001
1.670123e+003;1.007928e-001
1.672051e+003;9.544011e-002
1.673980e+003;9.006878e-002
1.675908e+003;8.474966e-002
1.677837e+003;7.953174e-002
1.679765e+003;7.373701e-002
1.681694e+003;6.805233e-002
1.683622e+003;6.281776e-002
1.685551e+003;5.802061e-002
1.687479e+003;5.397411e-002
1.689408e+003;5.046546e-002
1.691337e+003;4.757101e-002
1.693265e+003;4.530945e-002
1.695194e+003;4.345245e-002
1.697122e+003;4.201351e-002
1.699051e+003;4.101523e-002
1.700979e+003;3.997985e-002
1.702908e+003;3.928395e-002
1.704836e+003;3.887149e-002
1.706765e+003;3.835383e-002
1.708693e+003;3.782895e-002
1.710622e+003;3.745778e-002
1.712551e+003;3.726163e-002
1.714479e+003;3.706329e-002
1.716408e+003;3.646165e-002
1.718336e+003;3.593091e-002
1.720265e+003;3.585044e-002
1.722193e+003;3.586304e-002
1.724122e+003;3.580028e-002
1.726050e+003;3.547877e-002
1.727979e+003;3.511905e-002
1.729908e+003;3.498992e-002
1.731836e+003;3.506207e-002
1.733765e+003;3.457559e-002
1.735693e+003;3.370788e-002
1.737622e+003;3.349298e-002
1.739550e+003;3.327711e-002
1.741479e+003;3.268855e-002
1.743407e+003;3.201128e-002
1.745336e+003;3.149788e-002
1.747265e+003;3.066243e-002
1.749193e+003;2.986833e-002
1.751122e+003;2.919438e-002
1.753050e+003;2.835793e-002
1.754979e+003;2.763695e-002
1.756907e+003;2.715659e-002
1.758836e+003;2.650011e-002
1.760764e+003;2.579430e-002
1.762693e+003;2.511470e-002
1.764621e+003;2.466771e-002
1.766550e+003;2.425982e-002
1.768479e+003;2.376530e-002
1.770407e+003;2.343036e-002
1.772336e+003;2.307741e-002
1.774264e+003;2.272928e-002
1.776193e+003;2.244217e-002
1.778121e+003;2.203891e-002
1.780050e+003;2.170676e-002
1.781978e+003;2.157960e-002
1.783907e+003;2.134977e-002
1.785835e+003;2.098525e-002
1.787764e+003;2.075535e-002
1.789693e+003;2.063692e-002
1.791621e+003;2.039546e-002
1.793550e+003;2.011346e-002
1.795478e+003;1.995226e-002
1.797407e+003;1.975279e-002
1.799335e+003;1.943590e-002
1.801264e+003;1.921807e-002
1.803192e+003;1.923722e-002
1.805121e+003;1.923681e-002
1.807049e+003;1.914410e-002
1.808978e+003;1.901728e-002
1.810907e+003;1.889035e-002
1.812835e+003;1.855715e-002
1.814764e+003;1.827102e-002
1.816692e+003;1.823270e-002
1.818621e+003;1.807985e-002
1.820549e+003;1.800670e-002
1.822478e+003;1.806417e-002
1.824406e+003;1.805098e-002
1.826335e+003;1.798881e-002
1.828264e+003;1.784330e-002
1.830192e+003;1.774036e-002
1.832121e+003;1.760481e-002
1.834049e+003;1.752811e-002
1.835978e+003;1.746947e-002
1.837906e+003;1.728531e-002
1.839835e+003;1.730796e-002
1.841763e+003;1.735665e-002
1.843692e+003;1.731427e-002
1.845620e+003;1.732775e-002
1.847549e+003;1.706504e-002
1.849478e+003;1.669900e-002
1.851406e+003;1.677852e-002
1.853335e+003;1.685002e-002
1.855263e+003;1.655640e-002
1.857192e+003;1.631387e-002
1.859120e+003;1.622433e-002
1.861049e+003;1.623372e-002
1.862977e+003;1.631607e-002
1.864906e+003;1.641702e-002
1.866834e+003;1.638812e-002
1.868763e+003;1.628163e-002
1.870692e+003;1.630272e-002
1.872620e+003;1.645567e-002
1.874549e+003;1.638399e-002
1.876477e+003;1.607876e-002
1.878406e+003;1.595180e-002
1.880334e+003;1.575907e-002
1.882263e+003;1.572159e-002
1.884191e+003;1.592640e-002
1.886120e+003;1.602365e-002
1.888048e+003;1.605170e-002
1.889977e+003;1.591145e-002
1.891906e+003;1.561462e-002
1.893834e+003;1.570582e-002
1.895763e+003;1.613409e-002
1.897691e+003;1.620180e-002
1.899620e+003;1.602413e-002
1.901548e+003;1.589993e-002
1.903477e+003;1.569077e-002
1.905405e+003;1.573076e-002
1.907334e+003;1.587299e-002
1.909262e+003;1.584838e-002
1.911191e+003;1.562602e-002
1.913120e+003;1.548409e-002
1.915048e+003;1.547403e-002
1.916977e+003;1.537405e-002
1.918905e+003;1.544879e-002
1.920834e+003;1.562437e-002
1.922762e+003;1.561623e-002
1.924691e+003;1.561249e-002
1.926619e+003;1.567775e-002
1.928548e+003;1.559521e-002
1.930477e+003;1.532054e-002
1.932405e+003;1.522286e-002
1.934334e+003;1.518827e-002
1.936262e+003;1.508085e-002
1.938191e+003;1.533863e-002
1.940119e+003;1.546506e-002
1.942048e+003;1.546925e-002
1.943976e+003;1.549322e-002
1.945905e+003;1.525944e-002
1.947833e+003;1.495041e-002
1.949762e+003;1.504535e-002
1.951691e+003;1.516422e-002
1.953619e+003;1.495960e-002
1.955548e+003;1.498594e-002
1.957476e+003;1.512408e-002
1.959405e+003;1.509474e-002
1.961333e+003;1.514868e-002
1.963262e+003;1.513921e-002
1.965190e+003;1.520118e-002
1.967119e+003;1.534944e-002
1.969047e+003;1.535452e-002
1.970976e+003;1.541003e-002
1.972905e+003;1.549051e-002
1.974833e+003;1.567621e-002
1.976762e+003;1.568840e-002
1.978690e+003;1.559710e-002
1.980619e+003;1.565010e-002
1.982547e+003;1.553961e-002
1.984476e+003;1.542987e-002
1.986404e+003;1.553827e-002
1.988333e+003;1.553511e-002
1.990261e+003;1.527554e-002
1.992190e+003;1.502243e-002
1.994119e+003;1.502055e-002
1.996047e+003;1.512614e-002
1.997976e+003;1.531045e-002
1.999904e+003;1.557577e-002
2.001833e+003;1.559078e-002
2.003761e+003;1.535685e-002
2.005690e+003;1.545380e-002
2.007618e+003;1.583594e-002
2.009547e+003;1.608216e-002
2.011476e+003;1.599429e-002
2.013404e+003;1.572630e-002
2.015333e+003;1.578343e-002
2.017261e+003;1.595785e-002
2.019190e+003;1.592248e-002
2.021118e+003;1.590711e-002
2.023047e+003;1.604915e-002
2.024975e+003;1.608141e-002
2.026904e+003;1.615142e-002
2.028833e+003;1.623485e-002
2.030761e+003;1.625033e-002
2.032690e+003;1.639641e-002
2.034618e+003;1.662463e-002
2.036547e+003;1.673867e-002
2.038475e+003;1.688402e-002
2.040404e+003;1.699381e-002
2.042332e+003;1.693955e-002
2.044261e+003;1.674856e-002
2.046189e+003;1.662691e-002
2.048118e+003;1.667225e-002
2.050047e+003;1.670041e-002
2.051975e+003;1.666312e-002
2.053904e+003;1.665648e-002
2.055832e+003;1.665225e-002
2.057761e+003;1.659585e-002
2.059689e+003;1.649848e-002
2.061618e+003;1.638144e-002
2.063546e+003;1.647267e-002
2.065475e+003;1.664288e-002
2.067404e+003;1.678482e-002
2.069332e+003;1.679632e-002
2.071260e+003;1.674184e-002
2.073189e+003;1.688639e-002
2.075118e+003;1.708348e-002
2.077046e+003;1.696098e-002
2.078975e+003;1.661668e-002
2.080903e+003;1.662580e-002
2.082832e+003;1.644383e-002
2.084760e+003;1.613189e-002
2.086689e+003;1.624256e-002
2.088617e+003;1.632171e-002
2.090546e+003;1.636214e-002
2.092475e+003;1.636816e-002
2.094403e+003;1.641688e-002
2.096332e+003;1.629055e-002
2.098260e+003;1.618230e-002
2.100189e+003;1.632333e-002
2.102117e+003;1.643261e-002
2.104046e+003;1.661396e-002
2.105974e+003;1.657444e-002
2.107903e+003;1.656708e-002
2.109832e+003;1.668117e-002
2.111760e+003;1.666536e-002
2.113688e+003;1.667993e-002
2.115617e+003;1.662005e-002
2.117546e+003;1.669074e-002
2.119474e+003;1.670816e-002
2.121403e+003;1.649727e-002
2.123331e+003;1.667221e-002
2.125260e+003;1.686452e-002
2.127188e+003;1.684361e-002
2.129117e+003;1.705994e-002
2.131045e+003;1.706676e-002
2.132974e+003;1.697045e-002
2.134903e+003;1.689318e-002
2.136831e+003;1.688949e-002
2.138760e+003;1.691075e-002
2.140688e+003;1.687561e-002
2.142617e+003;1.694134e-002
2.144545e+003;1.689776e-002
2.146474e+003;1.699199e-002
2.148402e+003;1.710867e-002
2.150331e+003;1.704798e-002
2.152260e+003;1.725604e-002
2.154188e+003;1.757807e-002
2.156117e+003;1.766005e-002
2.158045e+003;1.754702e-002
2.159974e+003;1.762851e-002
2.161902e+003;1.772977e-002
2.163831e+003;1.771334e-002
2.165759e+003;1.758462e-002
2.167688e+003;1.741183e-002
2.169616e+003;1.751704e-002
2.171545e+003;1.779656e-002
2.173474e+003;1.790552e-002
2.175402e+003;1.789709e-002
2.177331e+003;1.780657e-002
2.179259e+003;1.784468e-002
2.181188e+003;1.778921e-002
2.183116e+003;1.764111e-002
2.185045e+003;1.771572e-002
2.186973e+003;1.784403e-002
2.188902e+003;1.786919e-002
2.190831e+003;1.781372e-002
2.192759e+003;1.768880e-002
2.194688e+003;1.754484e-002
2.196616e+003;1.751366e-002
2.198545e+003;1.762582e-002
2.200473e+003;1.771527e-002
2.202402e+003;1.758849e-002
2.204330e+003;1.775317e-002
2.206259e+003;1.790099e-002
2.208188e+003;1.761292e-002
2.210116e+003;1.740869e-002
2.212044e+003;1.732706e-002
2.213973e+003;1.728348e-002
2.215902e+003;1.739852e-002
2.217830e+003;1.735679e-002
2.219759e+003;1.723104e-002
2.221687e+003;1.740369e-002
2.223616e+003;1.739341e-002
2.225544e+003;1.717095e-002
2.227473e+003;1.731827e-002
2.229401e+003;1.725790e-002
2.231330e+003;1.679271e-002
2.233259e+003;1.646988e-002
2.235187e+003;1.654295e-002
2.237116e+003;1.664608e-002
2.239044e+003;1.658295e-002
2.240973e+003;1.681736e-002
2.242901e+003;1.715076e-002
2.244830e+003;1.707838e-002
2.246758e+003;1.699364e-002
2.248687e+003;1.706490e-002
2.250615e+003;1.703337e-002
2.252544e+003;1.696153e-002
2.254473e+003;1.684509e-002
2.256401e+003;1.696739e-002
2.258330e+003;1.723004e-002
2.260258e+003;1.727121e-002
2.262187e+003;1.733700e-002
2.264115e+003;1.747778e-002
2.266044e+003;1.753687e-002
2.267972e+003;1.755288e-002
2.269901e+003;1.769681e-002
2.271830e+003;1.775693e-002
2.273758e+003;1.775538e-002
2.275687e+003;1.779656e-002
2.277615e+003;1.769732e-002
2.279544e+003;1.746009e-002
2.281472e+003;1.733582e-002
2.283401e+003;1.741231e-002
2.285329e+003;1.766502e-002
2.287258e+003;1.799333e-002
2.289187e+003;1.810683e-002
2.291115e+003;1.808780e-002
2.293043e+003;1.798898e-002
2.294972e+003;1.796242e-002
2.296901e+003;1.799779e-002
2.298829e+003;1.802842e-002
2.300758e+003;1.811239e-002
2.302686e+003;1.806148e-002
2.304615e+003;1.814856e-002
2.306543e+003;1.851752e-002
2.308472e+003;1.847243e-002
2.310400e+003;1.811574e-002
2.312329e+003;1.798998e-002
2.314258e+003;1.816014e-002
2.316186e+003;1.824949e-002
2.318115e+003;1.835995e-002
2.320043e+003;1.842836e-002
2.321972e+003;1.819977e-002
2.323900e+003;1.798829e-002
2.325829e+003;1.826843e-002
2.327757e+003;1.842912e-002
2.329686e+003;1.800159e-002
2.331615e+003;1.773256e-002
2.333543e+003;1.769322e-002
2.335472e+003;1.771613e-002
2.337400e+003;1.791294e-002
2.339329e+003;1.803060e-002
2.341257e+003;1.809650e-002
2.343186e+003;1.803125e-002
2.345114e+003;1.803481e-002
2.347043e+003;1.812276e-002
2.348971e+003;1.806148e-002
2.350900e+003;1.789744e-002
2.352829e+003;1.786536e-002
2.354757e+003;1.773853e-002
2.356686e+003;1.758983e-002
2.358614e+003;1.775662e-002
2.360543e+003;1.800421e-002
2.362471e+003;1.816052e-002
2.364400e+003;1.806504e-002
2.366328e+003;1.789982e-002
2.368257e+003;1.807194e-002
2.370186e+003;1.833748e-002
2.372114e+003;1.823767e-002
2.374042e+003;1.810089e-002
2.375971e+003;1.827282e-002
2.377900e+003;1.835096e-002
2.379828e+003;1.840644e-002
2.381757e+003;1.872206e-002
2.383685e+003;1.909978e-002
2.385614e+003;1.906176e-002
2.387542e+003;1.901925e-002
2.389471e+003;1.926704e-002
2.391399e+003;1.925963e-002
2.393328e+003;1.903265e-002
2.395257e+003;1.916311e-002
2.397185e+003;1.913267e-002
2.399114e+003;1.898834e-002
2.401042e+003;1.897037e-002
2.402971e+003;1.895971e-002
2.404899e+003;1.901274e-002
2.406828e+003;1.902202e-002
2.408756e+003;1.906713e-002
2.410685e+003;1.920713e-002
2.412614e+003;1.917391e-002
2.414542e+003;1.890593e-002
2.416471e+003;1.886122e-002
2.418399e+003;1.909670e-002
2.420328e+003;1.949224e-002
2.422256e+003;1.965668e-002
2.424185e+003;1.971035e-002
2.426113e+003;1.966774e-002
2.428042e+003;1.955615e-002
2.429970e+003;1.958392e-002
2.431899e+003;1.973112e-002
2.433828e+003;1.993394e-002
2.435756e+003;2.005031e-002
2.437685e+003;1.996013e-002
2.439613e+003;2.008952e-002
2.441542e+003;2.042894e-002
2.443470e+003;2.058049e-002
2.445399e+003;2.050573e-002
2.447327e+003;2.046412e-002
2.449256e+003;2.052529e-002
2.451185e+003;2.057598e-002
2.453113e+003;2.068133e-002
2.455042e+003;2.063841e-002
2.456970e+003;2.051449e-002
2.458899e+003;2.074878e-002
2.460827e+003;2.109846e-002
2.462756e+003;2.117199e-002
2.464684e+003;2.100953e-002
2.466613e+003;2.075622e-002
2.468542e+003;2.067743e-002
2.470470e+003;2.088150e-002
2.472398e+003;2.113074e-002
2.474327e+003;2.143324e-002
2.476256e+003;2.135952e-002
2.478184e+003;2.123751e-002
2.480113e+003;2.122390e-002
2.482041e+003;2.124419e-002
2.483970e+003;2.120299e-002
2.485898e+003;2.127627e-002
2.487827e+003;2.145043e-002
2.489755e+003;2.154148e-002
2.491684e+003;2.146993e-002
2.493613e+003;2.141695e-002
2.495541e+003;2.129837e-002
2.497470e+003;2.126545e-002
2.499398e+003;2.137521e-002
2.501327e+003;2.178611e-002
2.503255e+003;2.221247e-002
2.505184e+003;2.228281e-002
2.507112e+003;2.214458e-002
2.509041e+003;2.204881e-002
2.510969e+003;2.209217e-002
2.512898e+003;2.236447e-002
2.514827e+003;2.262807e-002
2.516755e+003;2.275351e-002
2.518684e+003;2.282841e-002
2.520612e+003;2.299516e-002
2.522541e+003;2.306235e-002
2.524469e+003;2.301193e-002
2.526398e+003;2.326624e-002
2.528326e+003;2.356985e-002
2.530255e+003;2.361641e-002
2.532184e+003;2.374686e-002
2.534112e+003;2.405942e-002
2.536041e+003;2.409955e-002
2.537969e+003;2.402072e-002
2.539898e+003;2.398276e-002
2.541826e+003;2.400325e-002
2.543755e+003;2.415087e-002
2.545683e+003;2.411356e-002
2.547612e+003;2.427524e-002
2.549541e+003;2.444917e-002
2.551469e+003;2.439015e-002
2.553397e+003;2.431536e-002
2.555326e+003;2.434430e-002
2.557255e+003;2.439036e-002
2.559183e+003;2.452507e-002
2.561112e+003;2.460708e-002
2.563040e+003;2.460627e-002
2.564969e+003;2.451536e-002
2.566897e+003;2.438538e-002
2.568826e+003;2.444367e-002
2.570754e+003;2.478037e-002
2.572683e+003;2.515708e-002
2.574612e+003;2.517453e-002
2.576540e+003;2.503972e-002
2.578469e+003;2.517442e-002
2.580397e+003;2.511035e-002
2.582326e+003;2.524785e-002
2.584254e+003;2.561389e-002
2.586183e+003;2.567892e-002
2.588111e+003;2.534945e-002
2.590040e+003;2.525543e-002
2.591969e+003;2.554634e-002
2.593897e+003;2.583541e-002
2.595826e+003;2.578386e-002
2.597754e+003;2.559744e-002
2.599683e+003;2.545316e-002
2.601611e+003;2.557477e-002
2.603540e+003;2.585570e-002
2.605468e+003;2.601299e-002
2.607397e+003;2.599991e-002
2.609325e+003;2.588299e-002
2.611254e+003;2.597532e-002
2.613183e+003;2.626020e-002
2.615111e+003;2.647634e-002
2.617040e+003;2.655935e-002
2.618968e+003;2.677039e-002
2.620897e+003;2.692502e-002
2.622825e+003;2.692887e-002
2.624754e+003;2.680183e-002
2.626682e+003;2.658457e-002
2.628611e+003;2.658095e-002
2.630540e+003;2.678819e-002
2.632468e+003;2.721017e-002
2.634396e+003;2.740431e-002
2.636325e+003;2.719927e-002
2.638254e+003;2.715289e-002
2.640182e+003;2.721557e-002
2.642111e+003;2.726221e-002
2.644039e+003;2.750272e-002
2.645968e+003;2.763388e-002
2.647896e+003;2.752351e-002
2.649825e+003;2.758013e-002
2.651753e+003;2.771711e-002
2.653682e+003;2.768875e-002
2.655611e+003;2.770139e-002
2.657539e+003;2.793606e-002
2.659468e+003;2.816697e-002
2.661396e+003;2.824645e-002
2.663325e+003;2.804092e-002
2.665253e+003;2.777832e-002
2.667182e+003;2.776091e-002
2.669110e+003;2.804541e-002
2.671039e+003;2.814226e-002
2.672968e+003;2.833706e-002
2.674896e+003;2.856928e-002
2.676825e+003;2.862155e-002
2.678753e+003;2.889145e-002
2.680682e+003;2.925814e-002
2.682610e+003;2.939922e-002
2.684539e+003;2.945379e-002
2.686467e+003;2.943454e-002
2.688396e+003;2.943893e-002
2.690324e+003;2.964634e-002
2.692253e+003;2.966032e-002
2.694182e+003;2.988143e-002
2.696110e+003;3.017652e-002
2.698039e+003;3.031126e-002
2.699967e+003;3.042863e-002
2.701896e+003;3.054610e-002
2.703824e+003;3.072818e-002
2.705753e+003;3.078011e-002
2.707681e+003;3.070055e-002
2.709610e+003;3.076037e-002
2.711539e+003;3.113454e-002
2.713467e+003;3.143148e-002
2.715396e+003;3.170906e-002
2.717324e+003;3.221503e-002
2.719253e+003;3.277197e-002
2.721181e+003;3.271663e-002
2.723110e+003;3.249257e-002
2.725038e+003;3.276869e-002
2.726967e+003;3.316262e-002
2.728896e+003;3.347301e-002
2.730824e+003;3.376300e-002
2.732752e+003;3.400226e-002
2.734681e+003;3.420540e-002
2.736610e+003;3.423383e-002
2.738538e+003;3.443673e-002
2.740467e+003;3.458374e-002
2.742395e+003;3.471838e-002
2.744324e+003;3.477937e-002
2.746252e+003;3.504573e-002
2.748181e+003;3.526916e-002
2.750109e+003;3.522299e-002
2.752038e+003;3.521706e-002
2.753967e+003;3.522791e-002
2.755895e+003;3.518828e-002
2.757824e+003;3.544659e-002
2.759752e+003;3.586311e-002
2.761681e+003;3.591122e-002
2.763609e+003;3.601532e-002
2.765538e+003;3.631717e-002
2.767466e+003;3.626224e-002
2.769395e+003;3.634138e-002
2.771323e+003;3.690837e-002
2.773252e+003;3.697341e-002
2.775181e+003;3.706488e-002
2.777109e+003;3.743871e-002
2.779038e+003;3.786731e-002
2.780966e+003;3.817482e-002
2.782895e+003;3.812483e-002
2.784823e+003;3.825185e-002
2.786752e+003;3.875472e-002
2.788680e+003;3.919364e-002
2.790609e+003;3.935719e-002
2.792538e+003;3.948341e-002
2.794466e+003;3.972886e-002
2.796395e+003;4.021489e-002
2.798323e+003;4.055354e-002
2.800252e+003;4.079690e-002
2.802180e+003;4.126588e-002
2.804109e+003;4.166607e-002
2.806037e+003;4.194662e-002
2.807966e+003;4.246708e-002
2.809895e+003;4.313733e-002
2.811823e+003;4.370513e-002
2.813751e+003;4.413369e-002
2.815680e+003;4.493088e-002
2.817609e+003;4.582027e-002
2.819537e+003;4.635708e-002
2.821466e+003;4.689341e-002
2.823394e+003;4.734316e-002
2.825323e+003;4.761782e-002
2.827251e+003;4.818052e-002
2.829180e+003;4.891435e-002
2.831108e+003;4.949663e-002
2.833037e+003;5.038165e-002
2.834966e+003;5.185172e-002
2.836894e+003;5.333286e-002
2.838823e+003;5.508063e-002
2.840751e+003;5.752325e-002
2.842680e+003;6.037268e-002
2.844608e+003;6.407896e-002
2.846537e+003;6.820800e-002
2.848465e+003;7.216676e-002
2.850394e+003;7.601736e-002
2.852323e+003;7.939158e-002
2.854251e+003;8.136857e-002
2.856180e+003;8.263700e-002
2.858108e+003;8.354235e-002
2.860037e+003;8.381812e-002
2.861965e+003;8.368503e-002
2.863894e+003;8.295029e-002
2.865822e+003;8.146137e-002
2.867751e+003;7.993221e-002
2.869679e+003;7.867792e-002
2.871608e+003;7.685443e-002
2.873536e+003;7.457716e-002
2.875465e+003;7.246158e-002
2.877394e+003;7.056451e-002
2.879322e+003;6.916910e-002
2.881251e+003;6.817579e-002
2.883179e+003;6.763925e-002
2.885108e+003;6.755682e-002
2.887036e+003;6.791051e-002
2.888965e+003;6.871419e-002
2.890893e+003;6.995744e-002
2.892822e+003;7.142248e-002
2.894750e+003;7.304065e-002
2.896679e+003;7.457153e-002
2.898608e+003;7.579657e-002
2.900536e+003;7.677111e-002
2.902465e+003;7.779992e-002
2.904393e+003;7.913567e-002
2.906322e+003;8.063816e-002
2.908250e+003;8.194584e-002
2.910179e+003;8.365173e-002
2.912107e+003;8.617051e-002
2.914036e+003;8.836934e-002
2.915965e+003;9.066664e-002
2.917893e+003;9.353623e-002
2.919822e+003;9.635673e-002
2.921750e+003;9.897877e-002
2.923679e+003;1.012420e-001
2.925607e+003;1.031541e-001
2.927536e+003;1.045346e-001
2.929464e+003;1.054379e-001
2.931393e+003;1.061784e-001
2.933322e+003;1.061495e-001
2.935250e+003;1.049433e-001
2.937178e+003;1.030178e-001
2.939107e+003;1.006129e-001
2.941036e+003;9.833043e-002
2.942964e+003;9.594932e-002
2.944893e+003;9.277274e-002
2.946821e+003;8.943791e-002
2.948750e+003;8.569551e-002
2.950678e+003;8.124603e-002
2.952607e+003;7.676530e-002
2.954535e+003;7.292882e-002
2.956464e+003;6.949054e-002
2.958393e+003;6.650173e-002
2.960321e+003;6.413246e-002
2.962250e+003;6.174900e-002
2.964178e+003;5.941696e-002
2.966107e+003;5.723715e-002
2.968035e+003;5.501812e-002
2.969964e+003;5.298448e-002
2.971892e+003;5.122818e-002
2.973821e+003;4.953499e-002
2.975750e+003;4.805703e-002
2.977678e+003;4.671859e-002
2.979607e+003;4.513505e-002
2.981535e+003;4.404618e-002
2.983464e+003;4.336134e-002
2.985392e+003;4.268515e-002
2.987321e+003;4.185258e-002
2.989249e+003;4.127823e-002
2.991178e+003;4.109703e-002
2.993106e+003;4.115680e-002
2.995035e+003;4.092675e-002
2.996964e+003;4.042668e-002
2.998892e+003;4.043788e-002
3.000821e+003;4.029854e-002
3.002749e+003;3.978289e-002
3.004678e+003;3.971967e-002
3.006606e+003;3.991098e-002
3.008535e+003;3.967509e-002
3.010463e+003;3.980994e-002
3.012392e+003;4.015939e-002
3.014321e+003;4.034057e-002
3.016249e+003;4.058781e-002
3.018177e+003;4.093312e-002
3.020106e+003;4.106570e-002
3.022035e+003;4.115396e-002
3.023963e+003;4.161421e-002
3.025892e+003;4.209331e-002
3.027820e+003;4.252057e-002
3.029749e+003;4.271703e-002
3.031677e+003;4.296380e-002
3.033606e+003;4.325357e-002
3.035534e+003;4.371055e-002
3.037463e+003;4.427404e-002
3.039392e+003;4.470430e-002
3.041320e+003;4.512524e-002
3.043249e+003;4.555855e-002
3.045177e+003;4.622500e-002
3.047106e+003;4.674232e-002
3.049034e+003;4.717170e-002
3.050963e+003;4.784527e-002
3.052891e+003;4.862764e-002
3.054820e+003;4.930150e-002
3.056749e+003;4.961934e-002
3.058677e+003;4.992853e-002
3.060606e+003;5.005318e-002
3.062534e+003;5.032030e-002
3.064463e+003;5.090581e-002
3.066391e+003;5.134097e-002
3.068320e+003;5.178523e-002
3.070248e+003;5.204382e-002
3.072177e+003;5.159232e-002
3.074105e+003;5.158620e-002
3.076034e+003;5.186360e-002
3.077963e+003;5.209956e-002
3.079891e+003;5.229995e-002
3.081820e+003;5.203172e-002
3.083748e+003;5.183429e-002
3.085677e+003;5.188361e-002
3.087605e+003;5.146133e-002
3.089534e+003;5.107229e-002
3.091462e+003;5.084654e-002
3.093391e+003;5.033693e-002
3.095320e+003;5.012840e-002
3.097248e+003;5.004630e-002
3.099177e+003;4.958457e-002
3.101105e+003;4.880560e-002
3.103034e+003;4.797602e-002
3.104962e+003;4.752314e-002
3.106891e+003;4.737693e-002
3.108819e+003;4.740428e-002
3.110748e+003;4.730865e-002
3.112677e+003;4.664012e-002
3.114605e+003;4.579589e-002
3.116533e+003;4.522528e-002
3.118462e+003;4.517862e-002
3.120391e+003;4.541789e-002
3.122319e+003;4.516358e-002
3.124248e+003;4.473118e-002
3.126176e+003;4.449141e-002
3.128105e+003;4.457401e-002
3.130033e+003;4.483378e-002
3.131962e+003;4.487011e-002
3.133890e+003;4.460930e-002
3.135819e+003;4.453770e-002
3.137748e+003;4.460926e-002
3.139676e+003;4.459068e-002
3.141605e+003;4.444909e-002
3.143533e+003;4.457206e-002
3.145462e+003;4.497990e-002
3.147390e+003;4.524400e-002
3.149319e+003;4.546829e-002
3.151247e+003;4.569929e-002
3.153176e+003;4.574538e-002
3.155104e+003;4.565460e-002
3.157033e+003;4.599490e-002
3.158962e+003;4.659862e-002
3.160890e+003;4.692759e-002
3.162819e+003;4.720620e-002
3.164747e+003;4.779644e-002
3.166676e+003;4.832926e-002
3.168604e+003;4.907677e-002
3.170533e+003;4.966272e-002
3.172461e+003;4.975475e-002
3.174390e+003;4.990459e-002
3.176319e+003;5.035114e-002
3.178247e+003;5.075030e-002
3.180176e+003;5.105191e-002
3.182104e+003;5.164990e-002
3.184033e+003;5.259639e-002
3.185961e+003;5.315217e-002
3.187890e+003;5.355268e-002
3.189818e+003;5.395797e-002
3.191747e+003;5.408120e-002
3.193676e+003;5.455687e-002
3.195604e+003;5.484628e-002
3.197532e+003;5.487440e-002
3.199461e+003;5.517535e-002
3.201390e+003;5.561294e-002
3.203318e+003;5.581270e-002
3.205247e+003;5.606747e-002
3.207175e+003;5.639804e-002
3.209104e+003;5.658907e-002
3.211032e+003;5.694020e-002
3.212961e+003;5.739984e-002
3.214889e+003;5.767488e-002
3.216818e+003;5.781995e-002
3.218747e+003;5.833425e-002
3.220675e+003;5.875599e-002
3.222604e+003;5.925055e-002
3.224532e+003;5.999159e-002
3.226461e+003;6.068924e-002
3.228389e+003;6.141491e-002
3.230318e+003;6.216126e-002
3.232246e+003;6.276745e-002
3.234175e+003;6.375536e-002
3.236104e+003;6.501105e-002
3.238032e+003;6.618947e-002
3.239961e+003;6.743978e-002
3.241889e+003;6.865706e-002
3.243818e+003;6.986437e-002
3.245746e+003;7.084552e-002
3.247675e+003;7.173778e-002
3.249603e+003;7.290988e-002
3.251532e+003;7.404064e-002
3.253460e+003;7.506866e-002
3.255389e+003;7.663701e-002
3.257318e+003;7.850174e-002
3.259246e+003;8.017209e-002
3.261175e+003;8.148052e-002
3.263103e+003;8.260562e-002
3.265032e+003;8.377275e-002
3.266960e+003;8.520193e-002
3.268889e+003;8.635537e-002
3.270817e+003;8.729987e-002
3.272746e+003;8.853417e-002
3.274675e+003;8.961577e-002
3.276603e+003;9.072735e-002
3.278531e+003;9.229544e-002
3.280460e+003;9.388175e-002
3.282389e+003;9.535645e-002
3.284317e+003;9.657987e-002
3.286246e+003;9.737609e-002
3.288174e+003;9.827546e-002
3.290103e+003;9.926151e-002
3.292031e+003;1.001340e-001
3.293960e+003;1.005511e-001
3.295888e+003;1.003814e-001
3.297817e+003;9.965330e-002
3.299746e+003;9.885303e-002
3.301674e+003;9.783540e-002
3.303603e+003;9.581755e-002
3.305531e+003;9.390379e-002
3.307460e+003;9.225712e-002
3.309388e+003;9.063761e-002
3.311317e+003;8.891082e-002
3.313245e+003;8.687600e-002
3.315174e+003;8.466336e-002
3.317103e+003;8.260707e-002
3.319031e+003;8.126536e-002
3.320960e+003;7.981429e-002
3.322888e+003;7.792661e-002
3.324817e+003;7.596562e-002
3.326745e+003;7.421537e-002
3.328674e+003;7.277963e-002
3.330602e+003;7.121373e-002
3.332531e+003;6.959293e-002
3.334459e+003;6.820587e-002
3.336388e+003;6.701943e-002
3.338317e+003;6.556913e-002
3.340245e+003;6.414333e-002
3.342174e+003;6.293333e-002
3.344102e+003;6.181272e-002
3.346031e+003;6.059654e-002
3.347959e+003;5.932659e-002
3.349888e+003;5.817034e-002
3.351816e+003;5.734981e-002
3.353745e+003;5.672380e-002
3.355674e+003;5.580388e-002
3.357602e+003;5.479023e-002
3.359531e+003;5.401508e-002
3.361459e+003;5.327746e-002
3.363388e+003;5.241145e-002
3.365316e+003;5.134481e-002
3.367245e+003;5.059819e-002
3.369173e+003;4.998830e-002
3.371102e+003;4.942738e-002
3.373031e+003;4.907692e-002
3.374959e+003;4.876700e-002
3.376887e+003;4.808146e-002
3.378816e+003;4.747066e-002
3.380745e+003;4.726221e-002
3.382673e+003;4.673977e-002
3.384602e+003;4.609909e-002
3.386530e+003;4.562648e-002
3.388459e+003;4.528651e-002
3.390387e+003;4.500144e-002
3.392316e+003;4.457089e-002
3.394244e+003;4.440489e-002
3.396173e+003;4.397024e-002
3.398102e+003;4.330061e-002
3.400030e+003;4.290586e-002
3.401959e+003;4.270113e-002
3.403887e+003;4.270697e-002
3.405816e+003;4.255649e-002
3.407744e+003;4.205669e-002
3.409673e+003;4.179107e-002
3.411601e+003;4.173044e-002
3.413530e+003;4.102681e-002
3.415458e+003;4.054867e-002
3.417387e+003;4.064326e-002
3.419316e+003;4.066614e-002
3.421244e+003;4.008384e-002
3.423173e+003;3.948943e-002
3.425101e+003;3.958216e-002
3.427030e+003;3.964572e-002
3.428958e+003;3.915789e-002
3.430887e+003;3.887051e-002
3.432815e+003;3.881243e-002
3.434744e+003;3.855280e-002
3.436673e+003;3.805711e-002
3.438601e+003;3.776866e-002
3.440530e+003;3.788625e-002
3.442458e+003;3.777292e-002
3.444387e+003;3.774694e-002
3.446315e+003;3.760398e-002
3.448244e+003;3.698651e-002
3.450172e+003;3.653293e-002
3.452101e+003;3.615372e-002
3.454030e+003;3.595553e-002
3.455958e+003;3.577204e-002
3.457886e+003;3.537102e-002
3.459815e+003;3.506240e-002
3.461744e+003;3.476960e-002
3.463672e+003;3.438985e-002
3.465601e+003;3.427861e-002
3.467529e+003;3.409095e-002
3.469458e+003;3.369191e-002
3.471386e+003;3.349685e-002
3.473315e+003;3.317392e-002
3.475243e+003;3.271684e-002
3.477172e+003;3.261564e-002
3.479101e+003;3.280631e-002
3.481029e+003;3.291756e-002
3.482958e+003;3.261507e-002
3.484886e+003;3.192436e-002
3.486815e+003;3.152429e-002
3.488743e+003;3.157766e-002
3.490672e+003;3.174877e-002
3.492600e+003;3.167769e-002
3.494529e+003;3.137157e-002
3.496458e+003;3.141520e-002
3.498386e+003;3.148567e-002
3.500315e+003;3.141695e-002
3.502243e+003;3.096001e-002
3.504172e+003;3.053831e-002
3.506100e+003;3.034125e-002
3.508029e+003;3.010258e-002
3.509957e+003;3.010609e-002
3.511886e+003;3.008848e-002
3.513814e+003;2.967100e-002
3.515743e+003;2.934133e-002
3.517672e+003;2.921734e-002
3.519600e+003;2.863216e-002
3.521529e+003;2.821743e-002
3.523457e+003;2.867241e-002
3.525386e+003;2.889376e-002
3.527314e+003;2.827315e-002
3.529243e+003;2.754984e-002
3.531171e+003;2.720739e-002
3.533100e+003;2.688392e-002
3.535029e+003;2.672469e-002
3.536957e+003;2.672187e-002
3.538885e+003;2.654181e-002
3.540814e+003;2.627730e-002
3.542743e+003;2.585281e-002
3.544671e+003;2.559779e-002
3.546600e+003;2.526913e-002
3.548528e+003;2.510863e-002
3.550457e+003;2.513500e-002
3.552385e+003;2.479026e-002
3.554314e+003;2.422643e-002
3.556242e+003;2.359262e-002
3.558171e+003;2.363219e-002
3.560100e+003;2.388480e-002
3.562028e+003;2.346023e-002
3.563957e+003;2.291667e-002
3.565885e+003;2.254525e-002
3.567814e+003;2.205958e-002
3.569742e+003;2.200952e-002
3.571671e+003;2.203462e-002
3.573599e+003;2.180514e-002
3.575528e+003;2.192601e-002
3.577457e+003;2.183844e-002
3.579385e+003;2.129865e-002
3.581314e+003;2.076074e-002
3.583242e+003;2.061093e-002
3.585171e+003;2.051626e-002
3.587099e+003;1.985995e-002
3.589028e+003;1.914168e-002
3.590956e+003;1.900288e-002
3.592885e+003;1.894310e-002
3.594813e+003;1.881966e-002
3.596742e+003;1.878077e-002
3.598671e+003;1.872486e-002
3.600599e+003;1.832165e-002
3.602528e+003;1.795845e-002
3.604456e+003;1.771148e-002
3.606385e+003;1.749351e-002
3.608313e+003;1.736724e-002
3.610242e+003;1.706762e-002
3.612170e+003;1.678365e-002
3.614099e+003;1.679859e-002
3.616028e+003;1.662026e-002
3.617956e+003;1.626571e-002
3.619885e+003;1.628483e-002
3.621813e+003;1.622612e-002
3.623742e+003;1.566796e-002
3.625670e+003;1.541236e-002
3.627599e+003;1.526054e-002
3.629527e+003;1.479700e-002
3.631456e+003;1.482217e-002
3.633385e+003;1.461435e-002
3.635313e+003;1.426133e-002
3.637241e+003;1.420857e-002
3.639170e+003;1.410238e-002
3.641099e+003;1.407356e-002
3.643027e+003;1.412093e-002
3.644956e+003;1.356301e-002
3.646884e+003;1.305703e-002
3.648813e+003;1.283903e-002
3.650741e+003;1.243749e-002
3.652670e+003;1.230225e-002
3.654598e+003;1.229359e-002
3.656527e+003;1.182739e-002
3.658456e+003;1.145254e-002
3.660384e+003;1.160126e-002
3.662313e+003;1.183903e-002
3.664241e+003;1.198312e-002
3.666170e+003;1.201950e-002
3.668098e+003;1.159758e-002
3.670027e+003;1.120144e-002
3.671955e+003;1.129845e-002
3.673884e+003;1.129271e-002
3.675813e+003;1.109782e-002
3.677741e+003;1.087924e-002
3.679669e+003;1.035160e-002
3.681598e+003;1.021921e-002
3.683527e+003;1.042690e-002
3.685455e+003;1.047503e-002
3.687384e+003;1.009877e-002
3.689312e+003;9.926997e-003
3.691241e+003;1.015948e-002
3.693169e+003;9.983614e-003
3.695098e+003;9.524416e-003
3.697026e+003;9.345422e-003
3.698955e+003;9.487061e-003
3.700884e+003;9.406907e-003
3.702812e+003;9.409616e-003
3.704741e+003;9.556897e-003
3.706669e+003;9.296742e-003
3.708598e+003;9.161225e-003
3.710526e+003;9.347861e-003
3.712455e+003;8.992360e-003
3.714383e+003;8.513799e-003
3.716312e+003;8.815141e-003
3.718240e+003;9.432371e-003
3.720169e+003;9.526279e-003
3.722098e+003;9.286148e-003
3.724026e+003;9.058091e-003
3.725955e+003;9.322267e-003
3.727883e+003;9.517914e-003
3.729812e+003;9.018610e-003
3.731740e+003;8.741299e-003
3.733669e+003;8.870159e-003
3.735597e+003;8.960902e-003
3.737526e+003;8.919265e-003
3.739455e+003;8.812469e-003
3.741383e+003;9.066583e-003
3.743312e+003;9.246172e-003
3.745240e+003;9.260625e-003
3.747169e+003;9.553408e-003
3.749097e+003;9.544433e-003
3.751026e+003;9.185624e-003
3.752954e+003;9.123359e-003
3.754883e+003;9.333269e-003
3.756812e+003;9.354936e-003
3.758740e+003;9.219975e-003
3.760668e+003;9.165353e-003
3.762597e+003;9.253585e-003
3.764526e+003;9.418827e-003
3.766454e+003;9.462237e-003
3.768383e+003;9.327311e-003
3.770311e+003;9.158077e-003
3.772240e+003;9.048009e-003
3.774168e+003;8.962559e-003
3.776097e+003;8.813687e-003
3.778025e+003;8.653171e-003
3.779954e+003;8.769360e-003
3.781883e+003;9.014213e-003
3.783811e+003;9.208366e-003
3.785740e+003;9.120042e-003
3.787668e+003;9.012623e-003
3.789597e+003;9.175438e-003
3.791525e+003;9.121836e-003
3.793454e+003;8.754585e-003
3.795382e+003;8.711278e-003
3.797311e+003;9.068410e-003
3.799240e+003;9.270271e-003
3.801168e+003;9.430204e-003
3.803097e+003;9.493495e-003
3.805025e+003;9.492039e-003
3.806954e+003;9.702568e-003
3.808882e+003;9.709209e-003
3.810811e+003;9.670482e-003
3.812739e+003;9.606962e-003
3.814668e+003;9.133341e-003
3.816596e+003;9.014822e-003
3.818525e+003;9.478019e-003
3.820454e+003;9.836967e-003
3.822382e+003;1.002956e-002
3.824311e+003;1.001498e-002
3.826239e+003;9.861507e-003
3.828168e+003;9.950727e-003
3.830096e+003;1.012546e-002
3.832025e+003;1.024479e-002
3.833953e+003;1.024065e-002
3.835882e+003;9.968967e-003
3.837811e+003;9.753056e-003
3.839739e+003;9.833849e-003
3.841667e+003;9.845272e-003
3.843596e+003;9.909979e-003
3.845525e+003;9.847813e-003
3.847453e+003;9.878285e-003
3.849382e+003;1.001291e-002
3.851310e+003;9.856015e-003
3.853239e+003;1.007784e-002
3.855167e+003;1.031078e-002
3.857096e+003;1.057606e-002
3.859024e+003;1.039412e-002
3.860953e+003;9.946626e-003
3.862882e+003;9.933573e-003
3.864810e+003;1.042242e-002
3.866739e+003;1.051380e-002
3.868667e+003;1.017980e-002
3.870596e+003;1.044347e-002
3.872524e+003;1.089722e-002
3.874453e+003;1.085363e-002
3.876381e+003;1.052293e-002
3.878310e+003;1.037681e-002
3.880239e+003;1.046665e-002
3.882167e+003;1.078413e-002
3.884096e+003;1.099345e-002
3.886024e+003;1.093456e-002
3.887953e+003;1.117999e-002
3.889881e+003;1.121378e-002
3.891810e+003;1.101289e-002
3.893738e+003;1.111462e-002
3.895667e+003;1.125690e-002
3.897595e+003;1.094625e-002
3.899524e+003;1.061018e-002
3.901453e+003;1.054038e-002
3.903381e+003;1.027247e-002
3.905310e+003;1.039707e-002
3.907238e+003;1.084795e-002
3.909167e+003;1.114800e-002
3.911095e+003;1.113250e-002
3.913024e+003;1.084446e-002
3.914952e+003;1.071097e-002
3.916881e+003;1.104426e-002
3.918810e+003;1.114769e-002
3.920738e+003;1.091675e-002
3.922667e+003;1.058013e-002
3.924595e+003;1.086015e-002
3.926524e+003;1.148451e-002
3.928452e+003;1.158149e-002
3.930381e+003;1.124078e-002
3.932309e+003;1.108171e-002
3.934238e+003;1.126550e-002
3.936167e+003;1.133903e-002
3.938095e+003;1.136341e-002
3.940023e+003;1.147655e-002
3.941952e+003;1.217912e-002
3.943881e+003;1.281466e-002
3.945809e+003;1.260787e-002
3.947738e+003;1.232843e-002
3.949666e+003;1.181067e-002
3.951595e+003;1.155090e-002
3.953523e+003;1.201885e-002
3.955452e+003;1.246658e-002
3.957380e+003;1.234404e-002
3.959309e+003;1.206017e-002
3.961238e+003;1.211441e-002
3.963166e+003;1.259842e-002
3.965095e+003;1.290163e-002
3.967023e+003;1.300335e-002
3.968952e+003;1.302404e-002
3.970880e+003;1.279030e-002
3.972809e+003;1.228483e-002
3.974737e+003;1.255299e-002
3.976666e+003;1.348850e-002
3.978594e+003;1.343361e-002
3.980523e+003;1.271588e-002
3.982452e+003;1.227055e-002
3.984380e+003;1.271789e-002
3.986309e+003;1.329392e-002
3.988237e+003;1.342250e-002
3.990166e+003;1.333834e-002
3.992094e+003;1.326939e-002
3.994023e+003;1.349468e-002
3.995951e+003;1.370388e-002
3.997880e+003;1.371294e-002
3.999809e+003;1.363830e-002
4.001737e+003;0.000000e+000
