3.992094e+002;0.000000e+000
4.011380e+002;0.000000e+000
4.030665e+002;0.000000e+000
4.049951e+002;0.000000e+000
4.069236e+002;0.000000e+000
4.088522e+002;0.000000e+000
4.107807e+002;0.000000e+000
4.127093e+002;0.000000e+000
4.146378e+002;0.000000e+000
4.165664e+002;0.000000e+000
4.184949e+002;0.000000e+000
4.204235e+002;0.000000e+000
4.223520e+002;0.000000e+000
4.242806e+002;0.000000e+000
4.262091e+002;0.000000e+000
4.281377e+002;0.000000e+000
4.300662e+002;0.000000e+000
4.319948e+002;0.000000e+000
4.339233e+002;0.000000e+000
4.358519e+002;0.000000e+000
4.377804e+002;0.000000e+000
4.397090e+002;0.000000e+000
4.416375e+002;0.000000e+000
4.435660e+002;0.000000e+000
4.454946e+002;0.000000e+000
4.474232e+002;0.000000e+000
4.493517e+002;0.000000e+000
4.512802e+002;0.000000e+000
4.532088e+002;0.000000e+000
4.551373e+002;0.000000e+000
4.570659e+002;0.000000e+000
4.589944e+002;0.000000e+000
4.609230e+002;0.000000e+000
4.628515e+002;0.000000e+000
4.647801e+002;0.000000e+000
4.667086e+002;0.000000e+000
4.686372e+002;0.000000e+000
4.705657e+002;0.000000e+000
4.724943e+002;0.000000e+000
4.744228e+002;0.000000e+000
4.763513e+002;0.000000e+000
4.782799e+002;0.000000e+000
4.802085e+002;0.000000e+000
4.821370e+002;0.000000e+000
4.840656e+002;0.000000e+000
4.859941e+002;0.000000e+000
4.879226e+002;0.000000e+000
4.898512e+002;0.000000e+000
4.917798e+002;0.000000e+000
4.937083e+002;0.000000e+000
4.956368e+002;0.000000e+000
4.975654e+002;0.000000e+000
4.994939e+002;0.000000e+000
5.014225e+002;0.000000e+000
5.033510e+002;0.000000e+000
5.052796e+002;0.000000e+000
5.072081e+002;0.000000e+000
5.091367e+002;0.000000e+000
5.110652e+002;0.000000e+000
5.129938e+002;0.000000e+000
5.149223e+002;0.000000e+000
5.168509e+002;0.000000e+000
5.187794e+002;0.000000e+000
5.207079e+002;0.000000e+000
5.226365e+002;0.000000e+000
5.245651e+002;0.000000e+000
5.264936e+002;0.000000e+000
5.284222e+002;0.000000e+000
5.303507e+002;0.000000e+000
5.322792e+002;0.000000e+000
5.342078e+002;0.000000e+000
5.361364e+002;0.000000e+000
5.380649e+002;0.000000e+000
5.399935e+002;0.000000e+000
5.419220e+002;0.000000e+000
5.438505e+002;0.000000e+000
5.457791e+002;0.000000e+000
5.477076e+002;0.000000e+000
5.496362e+002;0.000000e+000
5.515648e+002;0.000000e+000
5.534933e+002;0.000000e+000
5.554218e+002;0.000000e+000
5.573504e+002;0.000000e+000
5.592789e+002;0.000000e+000
5.612075e+002;0.000000e+000
5.631360e+002;0.000000e+000
5.650646e+002;0.000000e+000
5.669931e+002;0.000000e+000
5.689217e+002;0.000000e+000
5.708502e+002;0.000000e+000
5.727787e+002;0.000000e+000
5.747073e+002;0.000000e+000
5.766359e+002;0.000000e+000
5.785644e+002;0.000000e+000
5.804930e+002;0.000000e+000
5.824215e+002;0.000000e+000
5.843500e+002;0.000000e+000
5.862786e+002;0.000000e+000
5.882072e+002;0.000000e+000
5.901357e+002;0.000000e+000
5.920643e+002;0.000000e+000
5.939928e+002;0.000000e+000
5.959213e+002;0.000000e+000
5.978499e+002;0.000000e+000
5.997784e+002;1.359285e-001
6.017070e+002;1.334017e-001
6.036355e+002;1.321602e-001
6.055641e+002;1.266835e-001
6.074926e+002;1.237017e-001
6.094211e+002;1.218264e-001
6.113497e+002;1.190776e-001
6.132783e+002;1.197776e-001
6.152068e+002;1.261665e-001
6.171354e+002;1.304274e-001
6.190639e+002;1.263978e-001
6.209924e+002;1.231029e-001
6.229210e+002;1.231630e-001
6.248495e+002;1.232258e-001
6.267781e+002;1.266698e-001
6.287067e+002;1.321932e-001
6.306352e+002;1.366866e-001
6.325637e+002;1.355451e-001
6.344923e+002;1.357386e-001
6.364208e+002;1.388685e-001
6.383494e+002;1.422545e-001
6.402780e+002;1.441441e-001
6.422065e+002;1.462764e-001
6.441350e+002;1.512137e-001
6.460636e+002;1.522692e-001
6.479921e+002;1.507742e-001
6.499207e+002;1.508362e-001
6.518492e+002;1.489991e-001
6.537778e+002;1.483502e-001
6.557063e+002;1.512686e-001
6.576349e+002;1.542858e-001
6.595634e+002;1.581472e-001
6.614919e+002;1.620073e-001
6.634205e+002;1.665172e-001
6.653491e+002;1.696207e-001
6.672776e+002;1.677738e-001
6.692062e+002;1.662930e-001
6.711347e+002;1.672079e-001
6.730632e+002;1.709684e-001
6.749918e+002;1.722367e-001
6.769203e+002;1.694218e-001
6.788489e+002;1.700798e-001
6.807775e+002;1.718292e-001
6.827060e+002;1.734840e-001
6.846345e+002;1.744260e-001
6.865631e+002;1.728120e-001
6.884916e+002;1.708693e-001
6.904202e+002;1.692397e-001
6.923488e+002;1.680971e-001
6.942773e+002;1.661374e-001
6.962058e+002;1.634864e-001
6.981344e+002;1.612253e-001
7.000629e+002;1.589704e-001
7.019915e+002;1.573873e-001
7.039200e+002;1.558982e-001
7.058486e+002;1.551890e-001
7.077771e+002;1.540009e-001
7.097057e+002;1.528408e-001
7.116342e+002;1.525408e-001
7.135627e+002;1.521873e-001
7.154913e+002;1.513496e-001
7.174199e+002;1.504597e-001
7.193484e+002;1.488300e-001
7.212770e+002;1.479670e-001
7.232055e+002;1.477983e-001
7.251340e+002;1.474072e-001
7.270626e+002;1.468264e-001
7.289911e+002;1.436434e-001
7.309197e+002;1.380991e-001
7.328483e+002;1.314598e-001
7.347768e+002;1.249582e-001
7.367053e+002;1.199431e-001
7.386339e+002;1.163558e-001
7.405624e+002;1.133744e-001
7.424910e+002;1.108580e-001
7.444196e+002;1.076320e-001
7.463481e+002;1.039258e-001
7.482766e+002;1.011905e-001
7.502052e+002;9.874404e-002
7.521337e+002;9.617180e-002
7.540623e+002;9.460154e-002
7.559908e+002;9.259535e-002
7.579194e+002;9.049026e-002
7.598479e+002;8.946995e-002
7.617765e+002;8.854685e-002
7.637050e+002;8.701448e-002
7.656335e+002;8.515061e-002
7.675621e+002;8.369745e-002
7.694907e+002;8.236760e-002
7.714192e+002;8.119541e-002
7.733478e+002;8.030780e-002
7.752763e+002;7.929473e-002
7.772048e+002;7.762318e-002
7.791334e+002;7.578312e-002
7.810620e+002;7.475164e-002
7.829905e+002;7.329118e-002
7.849191e+002;7.218397e-002
7.868476e+002;7.159296e-002
7.887761e+002;7.097793e-002
7.907047e+002;7.072260e-002
7.926332e+002;7.014030e-002
7.945618e+002;6.849781e-002
7.964903e+002;6.671982e-002
7.984189e+002;6.502557e-002
8.003474e+002;6.326193e-002
8.022759e+002;6.192375e-002
8.042045e+002;6.134110e-002
8.061331e+002;6.058085e-002
8.080616e+002;5.958541e-002
8.099902e+002;5.961035e-002
8.119187e+002;5.984363e-002
8.138472e+002;5.921003e-002
8.157758e+002;5.961457e-002
8.177043e+002;6.093919e-002
8.196329e+002;6.222760e-002
8.215615e+002;6.347935e-002
8.234900e+002;6.539811e-002
8.254185e+002;6.753492e-002
8.273471e+002;6.927180e-002
8.292756e+002;7.099490e-002
8.312042e+002;7.200036e-002
8.331328e+002;7.077985e-002
8.350613e+002;6.854072e-002
8.369898e+002;6.530087e-002
8.389184e+002;6.211535e-002
8.408469e+002;5.915243e-002
8.427755e+002;5.651170e-002
8.447040e+002;5.490677e-002
8.466326e+002;5.360422e-002
8.485611e+002;5.243123e-002
8.504897e+002;5.139225e-002
8.524182e+002;5.043036e-002
8.543467e+002;4.917342e-002
8.562753e+002;4.846231e-002
8.582039e+002;4.886785e-002
8.601324e+002;4.886129e-002
8.620610e+002;4.905459e-002
8.639895e+002;4.946703e-002
8.659180e+002;4.990529e-002
8.678466e+002;5.001444e-002
8.697751e+002;4.985233e-002
8.717037e+002;4.993317e-002
8.736323e+002;5.035561e-002
8.755608e+002;5.103413e-002
8.774893e+002;5.187988e-002
8.794179e+002;5.247142e-002
8.813464e+002;5.296509e-002
8.832750e+002;5.394447e-002
8.852036e+002;5.490918e-002
8.871321e+002;5.505479e-002
8.890606e+002;5.451655e-002
8.909892e+002;5.422807e-002
8.929177e+002;5.397429e-002
8.948463e+002;5.386798e-002
8.967748e+002;5.346250e-002
8.987034e+002;5.335174e-002
9.006319e+002;5.392282e-002
9.025605e+002;5.478760e-002
9.044890e+002;5.547922e-002
9.064175e+002;5.613425e-002
9.083461e+002;5.693563e-002
9.102747e+002;5.721534e-002
9.122032e+002;5.716605e-002
9.141318e+002;5.774789e-002
9.160603e+002;5.854388e-002
9.179888e+002;5.886871e-002
9.199174e+002;5.928158e-002
9.218459e+002;6.011776e-002
9.237745e+002;6.125735e-002
9.257031e+002;6.243728e-002
9.276316e+002;6.320727e-002
9.295601e+002;6.364800e-002
9.314887e+002;6.367747e-002
9.334172e+002;6.328078e-002
9.353458e+002;6.226944e-002
9.372744e+002;6.116888e-002
9.392029e+002;6.085159e-002
9.411314e+002;6.106556e-002
9.430600e+002;6.161965e-002
9.449885e+002;6.288692e-002
9.469171e+002;6.488042e-002
9.488456e+002;6.699704e-002
9.507742e+002;6.875611e-002
9.527027e+002;6.971593e-002
9.546313e+002;7.014992e-002
9.565598e+002;7.089284e-002
9.584883e+002;7.148869e-002
9.604169e+002;7.155447e-002
9.623455e+002;7.127377e-002
9.642740e+002;7.061386e-002
9.662026e+002;6.957085e-002
9.681311e+002;6.868888e-002
9.700596e+002;6.821715e-002
9.719882e+002;6.763189e-002
9.739167e+002;6.696545e-002
9.758453e+002;6.631421e-002
9.777739e+002;6.577811e-002
9.797024e+002;6.566721e-002
9.816309e+002;6.572357e-002
9.835595e+002;6.561753e-002
9.854880e+002;6.590786e-002
9.874166e+002;6.667747e-002
9.893452e+002;6.735666e-002
9.912737e+002;6.700365e-002
9.932022e+002;6.522847e-002
9.951307e+002;6.291460e-002
9.970593e+002;6.064302e-002
9.989879e+002;5.875394e-002
1.000916e+003;5.792311e-002
1.002845e+003;5.776836e-002
1.004773e+003;5.756906e-002
1.006702e+003;5.724335e-002
1.008631e+003;5.713162e-002
1.010559e+003;5.769202e-002
1.012488e+003;5.846452e-002
1.014416e+003;5.900859e-002
1.016345e+003;5.928014e-002
1.018273e+003;5.979967e-002
1.020202e+003;6.013043e-002
1.022130e+003;6.063689e-002
1.024059e+003;6.170111e-002
1.025988e+003;6.296987e-002
1.027916e+003;6.460296e-002
1.029845e+003;6.714004e-002
1.031773e+003;7.038637e-002
1.033702e+003;7.354893e-002
1.035630e+003;7.581216e-002
1.037559e+003;7.804932e-002
1.039487e+003;8.185153e-002
1.041416e+003;8.651309e-002
1.043344e+003;9.039988e-002
1.045273e+003;9.232896e-002
1.047202e+003;9.100706e-002
1.049130e+003;8.696695e-002
1.051059e+003;8.134563e-002
1.052987e+003;7.566830e-002
1.054916e+003;7.197975e-002
1.056844e+003;7.043188e-002
1.058773e+003;6.954599e-002
1.060701e+003;6.967831e-002
1.062630e+003;7.083808e-002
1.064558e+003;7.189458e-002
1.066487e+003;7.284037e-002
1.068416e+003;7.333206e-002
1.070344e+003;7.405585e-002
1.072273e+003;7.508162e-002
1.074201e+003;7.570336e-002
1.076130e+003;7.533188e-002
1.078058e+003;7.499781e-002
1.079987e+003;7.461356e-002
1.081915e+003;7.396127e-002
1.083844e+003;7.367548e-002
1.085773e+003;7.294638e-002
1.087701e+003;7.289927e-002
1.089630e+003;7.376450e-002
1.091558e+003;7.473865e-002
1.093487e+003;7.586522e-002
1.095415e+003;7.624305e-002
1.097344e+003;7.660554e-002
1.099272e+003;7.823032e-002
1.101201e+003;8.013850e-002
1.103129e+003;8.188806e-002
1.105058e+003;8.348794e-002
1.106987e+003;8.461154e-002
1.108915e+003;8.515315e-002
1.110844e+003;8.510906e-002
1.112772e+003;8.531035e-002
1.114701e+003;8.559301e-002
1.116629e+003;8.578012e-002
1.118558e+003;8.554842e-002
1.120486e+003;8.439543e-002
1.122415e+003;8.258931e-002
1.124344e+003;8.050972e-002
1.126272e+003;7.790186e-002
1.128201e+003;7.483508e-002
1.130129e+003;7.226235e-002
1.132058e+003;7.059409e-002
1.133986e+003;7.023779e-002
1.135915e+003;7.113305e-002
1.137843e+003;7.293814e-002
1.139772e+003;7.511546e-002
1.141700e+003;7.747880e-002
1.143629e+003;7.965656e-002
1.145557e+003;8.138911e-002
1.147486e+003;8.369593e-002
1.149415e+003;8.667503e-002
1.151343e+003;8.951897e-002
1.153272e+003;9.242118e-002
1.155200e+003;9.520097e-002
1.157129e+003;9.855878e-002
1.159057e+003;1.027422e-001
1.160986e+003;1.077415e-001
1.162914e+003;1.137715e-001
1.164843e+003;1.198019e-001
1.166771e+003;1.243964e-001
1.168700e+003;1.267814e-001
1.170629e+003;1.263039e-001
1.172557e+003;1.237703e-001
1.174486e+003;1.203048e-001
1.176414e+003;1.164985e-001
1.178343e+003;1.136934e-001
1.180271e+003;1.123765e-001
1.182200e+003;1.124706e-001
1.184128e+003;1.140714e-001
1.186057e+003;1.166699e-001
1.187986e+003;1.199497e-001
1.189914e+003;1.241179e-001
1.191843e+003;1.280774e-001
1.193771e+003;1.313315e-001
1.195700e+003;1.347122e-001
1.197628e+003;1.376965e-001
1.199557e+003;1.385786e-001
1.201485e+003;1.369804e-001
1.203414e+003;1.340364e-001
1.205343e+003;1.308109e-001
1.207271e+003;1.276108e-001
1.209200e+003;1.251799e-001
1.211128e+003;1.238216e-001
1.213057e+003;1.225471e-001
1.214985e+003;1.204815e-001
1.216914e+003;1.175824e-001
1.218842e+003;1.150065e-001
1.220771e+003;1.138000e-001
1.222699e+003;1.142234e-001
1.224628e+003;1.161663e-001
1.226557e+003;1.190063e-001
1.228485e+003;1.225091e-001
1.230414e+003;1.257126e-001
1.232342e+003;1.286163e-001
1.234271e+003;1.317141e-001
1.236199e+003;1.337342e-001
1.238128e+003;1.341799e-001
1.240056e+003;1.332344e-001
1.241985e+003;1.324465e-001
1.243913e+003;1.320055e-001
1.245842e+003;1.318802e-001
1.247771e+003;1.325706e-001
1.249699e+003;1.338191e-001
1.251628e+003;1.358726e-001
1.253556e+003;1.384690e-001
1.255485e+003;1.410922e-001
1.257413e+003;1.431951e-001
1.259342e+003;1.447377e-001
1.261270e+003;1.451800e-001
1.263199e+003;1.437987e-001
1.265127e+003;1.403793e-001
1.267056e+003;1.352730e-001
1.268985e+003;1.299938e-001
1.270913e+003;1.260859e-001
1.272842e+003;1.239350e-001
1.274770e+003;1.234524e-001
1.276699e+003;1.239880e-001
1.278627e+003;1.241147e-001
1.280556e+003;1.242666e-001
1.282484e+003;1.240374e-001
1.284413e+003;1.232898e-001
1.286342e+003;1.224859e-001
1.288270e+003;1.221132e-001
1.290199e+003;1.221237e-001
1.292127e+003;1.222328e-001
1.294056e+003;1.225831e-001
1.295984e+003;1.229549e-001
1.297913e+003;1.228374e-001
1.299841e+003;1.220696e-001
1.301770e+003;1.204337e-001
1.303698e+003;1.186137e-001
1.305627e+003;1.170562e-001
1.307556e+003;1.159565e-001
1.309484e+003;1.150137e-001
1.311413e+003;1.144579e-001
1.313341e+003;1.147826e-001
1.315270e+003;1.157825e-001
1.317198e+003;1.171109e-001
1.319127e+003;1.185425e-001
1.321055e+003;1.198873e-001
1.322984e+003;1.213063e-001
1.324912e+003;1.224622e-001
1.326841e+003;1.230618e-001
1.328770e+003;1.231374e-001
1.330698e+003;1.229462e-001
1.332627e+003;1.219813e-001
1.334555e+003;1.203245e-001
1.336484e+003;1.183280e-001
1.338412e+003;1.164112e-001
1.340341e+003;1.147617e-001
1.342269e+003;1.133159e-001
1.344198e+003;1.124820e-001
1.346126e+003;1.122407e-001
1.348055e+003;1.122437e-001
1.349984e+003;1.125898e-001
1.351912e+003;1.131954e-001
1.353841e+003;1.138444e-001
1.355769e+003;1.147674e-001
1.357698e+003;1.161113e-001
1.359626e+003;1.175306e-001
1.361555e+003;1.190042e-001
1.363483e+003;1.207123e-001
1.365412e+003;1.224616e-001
1.367341e+003;1.243281e-001
1.369269e+003;1.261228e-001
1.371198e+003;1.271320e-001
1.373126e+003;1.273320e-001
1.375055e+003;1.264964e-001
1.376983e+003;1.244746e-001
1.378912e+003;1.222885e-001
1.380840e+003;1.197968e-001
1.382769e+003;1.163568e-001
1.384698e+003;1.127426e-001
1.386626e+003;1.093405e-001
1.388555e+003;1.064396e-001
1.390483e+003;1.038962e-001
1.392412e+003;1.020396e-001
1.394340e+003;1.013968e-001
1.396269e+003;1.017328e-001
1.398197e+003;1.029980e-001
1.400126e+003;1.053896e-001
1.402054e+003;1.081962e-001
1.403983e+003;1.117830e-001
1.405911e+003;1.169485e-001
1.407840e+003;1.232521e-001
1.409769e+003;1.302234e-001
1.411697e+003;1.374572e-001
1.413626e+003;1.439523e-001
1.415554e+003;1.484738e-001
1.417483e+003;1.497217e-001
1.419411e+003;1.480529e-001
1.421340e+003;1.448229e-001
1.423268e+003;1.410970e-001
1.425197e+003;1.384276e-001
1.427125e+003;1.375564e-001
1.429054e+003;1.384329e-001
1.430983e+003;1.407616e-001
1.432911e+003;1.434139e-001
1.434840e+003;1.447782e-001
1.436768e+003;1.447706e-001
1.438697e+003;1.442201e-001
1.440625e+003;1.429528e-001
1.442554e+003;1.416328e-001
1.444482e+003;1.410127e-001
1.446411e+003;1.408879e-001
1.448340e+003;1.417087e-001
1.450268e+003;1.439778e-001
1.452197e+003;1.474444e-001
1.454125e+003;1.518013e-001
1.456054e+003;1.566108e-001
1.457982e+003;1.621014e-001
1.459911e+003;1.671535e-001
1.461839e+003;1.695633e-001
1.463768e+003;1.681533e-001
1.465697e+003;1.627543e-001
1.467625e+003;1.553221e-001
1.469554e+003;1.484790e-001
1.471482e+003;1.441245e-001
1.473411e+003;1.426151e-001
1.475339e+003;1.420460e-001
1.477268e+003;1.404545e-001
1.479196e+003;1.373331e-001
1.481125e+003;1.328070e-001
1.483053e+003;1.274836e-001
1.484982e+003;1.221945e-001
1.486911e+003;1.180705e-001
1.488839e+003;1.159098e-001
1.490768e+003;1.160739e-001
1.492696e+003;1.182727e-001
1.494625e+003;1.219297e-001
1.496553e+003;1.267703e-001
1.498482e+003;1.323942e-001
1.500410e+003;1.384277e-001
1.502339e+003;1.440607e-001
1.504267e+003;1.493022e-001
1.506196e+003;1.552616e-001
1.508125e+003;1.622949e-001
1.510053e+003;1.696063e-001
1.511982e+003;1.769404e-001
1.513910e+003;1.839213e-001
1.515839e+003;1.910505e-001
1.517767e+003;1.984860e-001
1.519696e+003;2.056147e-001
1.521624e+003;2.130531e-001
1.523553e+003;2.212224e-001
1.525481e+003;2.292487e-001
1.527410e+003;2.372423e-001
1.529339e+003;2.456218e-001
1.531267e+003;2.538226e-001
1.533196e+003;2.610423e-001
1.535124e+003;2.667686e-001
1.537053e+003;2.709442e-001
1.538981e+003;2.730068e-001
1.540910e+003;2.726910e-001
1.542838e+003;2.699817e-001
1.544767e+003;2.648102e-001
1.546695e+003;2.572642e-001
1.548624e+003;2.485404e-001
1.550553e+003;2.386742e-001
1.552481e+003;2.280809e-001
1.554410e+003;2.174012e-001
1.556338e+003;2.067486e-001
1.558267e+003;1.957779e-001
1.560195e+003;1.856384e-001
1.562124e+003;1.766976e-001
1.564052e+003;1.679543e-001
1.565981e+003;1.595243e-001
1.567910e+003;1.514837e-001
1.569838e+003;1.441409e-001
1.571767e+003;1.379081e-001
1.573695e+003;1.323180e-001
1.575624e+003;1.272627e-001
1.577552e+003;1.236958e-001
1.579481e+003;1.213265e-001
1.581409e+003;1.195817e-001
1.583338e+003;1.185990e-001
1.585266e+003;1.183772e-001
1.587195e+003;1.187590e-001
1.589124e+003;1.196626e-001
1.591052e+003;1.207739e-001
1.592981e+003;1.222671e-001
1.594909e+003;1.245016e-001
1.596838e+003;1.274480e-001
1.598766e+003;1.313392e-001
1.600695e+003;1.365467e-001
1.602623e+003;1.430742e-001
1.604552e+003;1.509676e-001
1.606480e+003;1.599949e-001
1.608409e+003;1.697616e-001
1.610338e+003;1.799709e-001
1.612266e+003;1.910719e-001
1.614195e+003;2.030345e-001
1.616123e+003;2.160257e-001
1.618052e+003;2.307533e-001
1.619980e+003;2.466125e-001
1.621909e+003;2.627348e-001
1.623837e+003;2.790125e-001
1.625766e+003;2.949620e-001
1.627694e+003;3.103341e-001
1.629623e+003;3.251795e-001
1.631552e+003;3.385228e-001
1.633480e+003;3.477422e-001
1.635409e+003;3.507185e-001
1.637337e+003;3.462399e-001
1.639266e+003;3.344625e-001
1.641194e+003;3.173091e-001
1.643123e+003;2.972556e-001
1.645051e+003;2.765430e-001
1.646980e+003;2.570102e-001
1.648909e+003;2.399764e-001
1.650837e+003;2.248859e-001
1.652766e+003;2.112133e-001
1.654694e+003;2.001368e-001
1.656623e+003;1.904482e-001
1.658551e+003;1.808898e-001
1.660480e+003;1.717854e-001
1.662408e+003;1.627218e-001
1.664337e+003;1.538182e-001
1.666266e+003;1.450674e-001
1.668194e+003;1.362406e-001
1.670123e+003;1.276108e-001
1.672051e+003;1.194583e-001
1.673980e+003;1.115126e-001
1.675908e+003;1.037516e-001
1.677837e+003;9.602702e-002
1.679765e+003;8.811251e-002
1.681694e+003;8.041314e-002
1.683622e+003;7.308883e-002
1.685551e+003;6.670575e-002
1.687479e+003;6.144904e-002
1.689408e+003;5.671916e-002
1.691337e+003;5.292223e-002
1.693265e+003;4.990886e-002
1.695194e+003;4.721588e-002
1.697122e+003;4.547384e-002
1.699051e+003;4.415800e-002
1.700979e+003;4.340543e-002
1.702908e+003;4.336775e-002
1.704836e+003;4.276149e-002
1.706765e+003;4.211434e-002
1.708693e+003;4.168529e-002
1.710622e+003;4.126326e-002
1.712551e+003;4.082624e-002
1.714479e+003;4.061855e-002
1.716408e+003;4.036955e-002
1.718336e+003;4.022580e-002
1.720265e+003;4.033319e-002
1.722193e+003;4.033643e-002
1.724122e+003;4.016146e-002
1.726050e+003;3.999195e-002
1.727979e+003;3.968347e-002
1.729908e+003;3.923306e-002
1.731836e+003;3.866901e-002
1.733765e+003;3.799404e-002
1.735693e+003;3.787895e-002
1.737622e+003;3.779042e-002
1.739550e+003;3.698257e-002
1.741479e+003;3.602893e-002
1.743407e+003;3.536797e-002
1.745336e+003;3.481821e-002
1.747265e+003;3.389749e-002
1.749193e+003;3.295624e-002
1.751122e+003;3.226392e-002
1.753050e+003;3.182948e-002
1.754979e+003;3.112105e-002
1.756907e+003;3.024323e-002
1.758836e+003;2.950166e-002
1.760764e+003;2.887991e-002
1.762693e+003;2.837975e-002
1.764621e+003;2.775766e-002
1.766550e+003;2.713479e-002
1.768479e+003;2.665218e-002
1.770407e+003;2.617826e-002
1.772336e+003;2.562749e-002
1.774264e+003;2.520785e-002
1.776193e+003;2.492973e-002
1.778121e+003;2.450039e-002
1.780050e+003;2.404772e-002
1.781978e+003;2.388400e-002
1.783907e+003;2.381574e-002
1.785835e+003;2.362995e-002
1.787764e+003;2.333805e-002
1.789693e+003;2.293574e-002
1.791621e+003;2.249702e-002
1.793550e+003;2.210012e-002
1.795478e+003;2.193020e-002
1.797407e+003;2.176221e-002
1.799335e+003;2.156397e-002
1.801264e+003;2.117387e-002
1.803192e+003;2.084496e-002
1.805121e+003;2.078548e-002
1.807049e+003;2.070909e-002
1.808978e+003;2.071632e-002
1.810907e+003;2.066586e-002
1.812835e+003;2.052473e-002
1.814764e+003;2.046718e-002
1.816692e+003;2.027539e-002
1.818621e+003;2.002855e-002
1.820549e+003;1.987826e-002
1.822478e+003;1.975615e-002
1.824406e+003;1.940697e-002
1.826335e+003;1.929683e-002
1.828264e+003;1.953245e-002
1.830192e+003;1.934755e-002
1.832121e+003;1.896951e-002
1.834049e+003;1.891956e-002
1.835978e+003;1.892929e-002
1.837906e+003;1.884571e-002
1.839835e+003;1.878800e-002
1.841763e+003;1.868162e-002
1.843692e+003;1.836292e-002
1.845620e+003;1.817607e-002
1.847549e+003;1.827676e-002
1.849478e+003;1.829628e-002
1.851406e+003;1.813924e-002
1.853335e+003;1.794478e-002
1.855263e+003;1.782248e-002
1.857192e+003;1.778693e-002
1.859120e+003;1.762606e-002
1.861049e+003;1.743032e-002
1.862977e+003;1.743594e-002
1.864906e+003;1.748154e-002
1.866834e+003;1.742797e-002
1.868763e+003;1.745491e-002
1.870692e+003;1.749744e-002
1.872620e+003;1.750714e-002
1.874549e+003;1.741970e-002
1.876477e+003;1.723545e-002
1.878406e+003;1.713300e-002
1.880334e+003;1.715472e-002
1.882263e+003;1.706039e-002
1.884191e+003;1.713542e-002
1.886120e+003;1.729710e-002
1.888048e+003;1.726435e-002
1.889977e+003;1.722425e-002
1.891906e+003;1.730089e-002
1.893834e+003;1.724524e-002
1.895763e+003;1.722015e-002
1.897691e+003;1.718950e-002
1.899620e+003;1.715189e-002
1.901548e+003;1.735555e-002
1.903477e+003;1.751831e-002
1.905405e+003;1.751659e-002
1.907334e+003;1.746236e-002
1.909262e+003;1.739138e-002
1.911191e+003;1.722204e-002
1.913120e+003;1.694055e-002
1.915048e+003;1.689356e-002
1.916977e+003;1.675609e-002
1.918905e+003;1.672507e-002
1.920834e+003;1.698062e-002
1.922762e+003;1.709695e-002
1.924691e+003;1.710984e-002
1.926619e+003;1.697083e-002
1.928548e+003;1.665713e-002
1.930477e+003;1.668643e-002
1.932405e+003;1.698179e-002
1.934334e+003;1.711288e-002
1.936262e+003;1.706635e-002
1.938191e+003;1.693266e-002
1.940119e+003;1.681895e-002
1.942048e+003;1.682673e-002
1.943976e+003;1.681392e-002
1.945905e+003;1.677497e-002
1.947833e+003;1.665293e-002
1.949762e+003;1.679381e-002
1.951691e+003;1.692697e-002
1.953619e+003;1.687234e-002
1.955548e+003;1.696046e-002
1.957476e+003;1.723439e-002
1.959405e+003;1.704364e-002
1.961333e+003;1.676488e-002
1.963262e+003;1.679477e-002
1.965190e+003;1.696356e-002
1.967119e+003;1.705222e-002
1.969047e+003;1.702813e-002
1.970976e+003;1.719895e-002
1.972905e+003;1.730720e-002
1.974833e+003;1.729417e-002
1.976762e+003;1.721146e-002
1.978690e+003;1.711539e-002
1.980619e+003;1.709578e-002
1.982547e+003;1.712091e-002
1.984476e+003;1.725148e-002
1.986404e+003;1.729565e-002
1.988333e+003;1.745184e-002
1.990261e+003;1.758807e-002
1.992190e+003;1.759208e-002
1.994119e+003;1.753967e-002
1.996047e+003;1.749592e-002
1.997976e+003;1.733110e-002
1.999904e+003;1.737624e-002
2.001833e+003;1.744932e-002
2.003761e+003;1.752618e-002
2.005690e+003;1.760840e-002
2.007618e+003;1.769853e-002
2.009547e+003;1.761312e-002
2.011476e+003;1.760602e-002
2.013404e+003;1.767976e-002
2.015333e+003;1.774416e-002
2.017261e+003;1.813633e-002
2.019190e+003;1.836026e-002
2.021118e+003;1.823802e-002
2.023047e+003;1.815216e-002
2.024975e+003;1.821155e-002
2.026904e+003;1.856790e-002
2.028833e+003;1.865751e-002
2.030761e+003;1.853163e-002
2.032690e+003;1.861891e-002
2.034618e+003;1.884821e-002
2.036547e+003;1.885578e-002
2.038475e+003;1.871957e-002
2.040404e+003;1.882025e-002
2.042332e+003;1.896927e-002
2.044261e+003;1.896054e-002
2.046189e+003;1.899644e-002
2.048118e+003;1.888271e-002
2.050047e+003;1.858595e-002
2.051975e+003;1.862607e-002
2.053904e+003;1.894113e-002
2.055832e+003;1.924076e-002
2.057761e+003;1.920872e-002
2.059689e+003;1.896345e-002
2.061618e+003;1.902479e-002
2.063546e+003;1.924941e-002
2.065475e+003;1.916547e-002
2.067404e+003;1.889011e-002
2.069332e+003;1.902579e-002
2.071260e+003;1.931595e-002
2.073189e+003;1.955782e-002
2.075118e+003;1.963096e-002
2.077046e+003;1.943607e-002
2.078975e+003;1.934031e-002
2.080903e+003;1.928395e-002
2.082832e+003;1.907049e-002
2.084760e+003;1.914046e-002
2.086689e+003;1.925610e-002
2.088617e+003;1.899409e-002
2.090546e+003;1.868297e-002
2.092475e+003;1.863424e-002
2.094403e+003;1.873939e-002
2.096332e+003;1.898526e-002
2.098260e+003;1.896404e-002
2.100189e+003;1.868529e-002
2.102117e+003;1.858298e-002
2.104046e+003;1.864001e-002
2.105974e+003;1.873977e-002
2.107903e+003;1.885693e-002
2.109832e+003;1.903365e-002
2.111760e+003;1.920664e-002
2.113688e+003;1.936300e-002
2.115617e+003;1.925264e-002
2.117546e+003;1.911276e-002
2.119474e+003;1.927085e-002
2.121403e+003;1.959015e-002
2.123331e+003;1.962787e-002
2.125260e+003;1.931904e-002
2.127188e+003;1.926372e-002
2.129117e+003;1.947699e-002
2.131045e+003;1.963078e-002
2.132974e+003;1.963057e-002
2.134903e+003;1.976011e-002
2.136831e+003;1.978105e-002
2.138760e+003;1.959605e-002
2.140688e+003;1.941272e-002
2.142617e+003;1.951907e-002
2.144545e+003;1.968653e-002
2.146474e+003;1.967335e-002
2.148402e+003;1.955723e-002
2.150331e+003;1.951976e-002
2.152260e+003;1.961532e-002
2.154188e+003;1.991954e-002
2.156117e+003;1.994161e-002
2.158045e+003;1.960014e-002
2.159974e+003;1.970886e-002
2.161902e+003;2.017694e-002
2.163831e+003;2.044603e-002
2.165759e+003;2.042811e-002
2.167688e+003;2.038487e-002
2.169616e+003;2.050789e-002
2.171545e+003;2.059950e-002
2.173474e+003;2.053241e-002
2.175402e+003;2.054961e-002
2.177331e+003;2.064585e-002
2.179259e+003;2.054203e-002
2.181188e+003;2.063365e-002
2.183116e+003;2.074186e-002
2.185045e+003;2.075486e-002
2.186973e+003;2.084002e-002
2.188902e+003;2.076199e-002
2.190831e+003;2.061110e-002
2.192759e+003;2.066847e-002
2.194688e+003;2.083902e-002
2.196616e+003;2.089241e-002
2.198545e+003;2.091748e-002
2.200473e+003;2.083484e-002
2.202402e+003;2.071069e-002
2.204330e+003;2.063473e-002
2.206259e+003;2.050219e-002
2.208188e+003;2.019742e-002
2.210116e+003;2.012207e-002
2.212044e+003;2.042818e-002
2.213973e+003;2.031046e-002
2.215902e+003;1.995607e-002
2.217830e+003;2.007293e-002
2.219759e+003;2.040025e-002
2.221687e+003;2.031282e-002
2.223616e+003;1.998927e-002
2.225544e+003;1.975369e-002
2.227473e+003;1.977158e-002
2.229401e+003;1.967457e-002
2.231330e+003;1.946826e-002
2.233259e+003;1.956364e-002
2.235187e+003;1.984691e-002
2.237116e+003;2.013508e-002
2.239044e+003;2.009052e-002
2.240973e+003;1.970383e-002
2.242901e+003;1.973254e-002
2.244830e+003;1.987285e-002
2.246758e+003;1.992114e-002
2.248687e+003;2.008733e-002
2.250615e+003;2.029831e-002
2.252544e+003;2.031594e-002
2.254473e+003;2.012176e-002
2.256401e+003;2.016882e-002
2.258330e+003;2.031445e-002
2.260258e+003;2.042057e-002
2.262187e+003;2.034358e-002
2.264115e+003;2.033608e-002
2.266044e+003;2.029160e-002
2.267972e+003;2.029626e-002
2.269901e+003;2.067055e-002
2.271830e+003;2.076338e-002
2.273758e+003;2.065245e-002
2.275687e+003;2.059856e-002
2.277615e+003;2.062406e-002
2.279544e+003;2.081854e-002
2.281472e+003;2.096522e-002
2.283401e+003;2.080182e-002
2.285329e+003;2.089370e-002
2.287258e+003;2.112580e-002
2.289187e+003;2.110145e-002
2.291115e+003;2.122081e-002
2.293043e+003;2.128782e-002
2.294972e+003;2.125150e-002
2.296901e+003;2.140041e-002
2.298829e+003;2.140473e-002
2.300758e+003;2.127196e-002
2.302686e+003;2.133293e-002
2.304615e+003;2.139645e-002
2.306543e+003;2.136964e-002
2.308472e+003;2.129499e-002
2.310400e+003;2.130404e-002
2.312329e+003;2.126542e-002
2.314258e+003;2.118441e-002
2.316186e+003;2.138050e-002
2.318115e+003;2.164340e-002
2.320043e+003;2.143125e-002
2.321972e+003;2.106764e-002
2.323900e+003;2.077777e-002
2.325829e+003;2.064689e-002
2.327757e+003;2.046284e-002
2.329686e+003;2.031775e-002
2.331615e+003;2.054961e-002
2.333543e+003;2.053842e-002
2.335472e+003;2.035344e-002
2.337400e+003;2.036806e-002
2.339329e+003;2.041203e-002
2.341257e+003;2.051160e-002
2.343186e+003;2.059866e-002
2.345114e+003;2.100020e-002
2.347043e+003;2.152260e-002
2.348971e+003;2.154806e-002
2.350900e+003;2.110914e-002
2.352829e+003;2.065797e-002
2.354757e+003;2.042755e-002
2.356686e+003;2.009653e-002
2.358614e+003;1.995475e-002
2.360543e+003;1.999187e-002
2.362471e+003;1.974603e-002
2.364400e+003;1.977949e-002
2.366328e+003;2.005315e-002
2.368257e+003;2.033733e-002
2.370186e+003;2.087079e-002
2.372114e+003;2.154367e-002
2.374042e+003;2.200635e-002
2.375971e+003;2.203302e-002
2.377900e+003;2.219440e-002
2.379828e+003;2.235359e-002
2.381757e+003;2.246153e-002
2.383685e+003;2.244213e-002
2.385614e+003;2.238875e-002
2.387542e+003;2.240319e-002
2.389471e+003;2.249287e-002
2.391399e+003;2.268644e-002
2.393328e+003;2.299380e-002
2.395257e+003;2.309250e-002
2.397185e+003;2.310861e-002
2.399114e+003;2.315404e-002
2.401042e+003;2.304135e-002
2.402971e+003;2.288506e-002
2.404899e+003;2.265670e-002
2.406828e+003;2.263614e-002
2.408756e+003;2.312731e-002
2.410685e+003;2.352892e-002
2.412614e+003;2.344760e-002
2.414542e+003;2.330949e-002
2.416471e+003;2.352731e-002
2.418399e+003;2.374710e-002
2.420328e+003;2.374605e-002
2.422256e+003;2.364461e-002
2.424185e+003;2.369132e-002
2.426113e+003;2.381192e-002
2.428042e+003;2.384784e-002
2.429970e+003;2.414379e-002
2.431899e+003;2.433705e-002
2.433828e+003;2.429906e-002
2.435756e+003;2.432591e-002
2.437685e+003;2.456447e-002
2.439613e+003;2.470439e-002
2.441542e+003;2.475280e-002
2.443470e+003;2.484145e-002
2.445399e+003;2.495552e-002
2.447327e+003;2.511305e-002
2.449256e+003;2.506661e-002
2.451185e+003;2.507532e-002
2.453113e+003;2.509002e-002
2.455042e+003;2.527731e-002
2.456970e+003;2.538037e-002
2.458899e+003;2.546493e-002
2.460827e+003;2.560278e-002
2.462756e+003;2.568950e-002
2.464684e+003;2.583376e-002
2.466613e+003;2.593796e-002
2.468542e+003;2.605912e-002
2.470470e+003;2.592031e-002
2.472398e+003;2.597373e-002
2.474327e+003;2.622155e-002
2.476256e+003;2.646824e-002
2.478184e+003;2.654762e-002
2.480113e+003;2.641359e-002
2.482041e+003;2.622380e-002
2.483970e+003;2.611326e-002
2.485898e+003;2.589741e-002
2.487827e+003;2.573418e-002
2.489755e+003;2.599590e-002
2.491684e+003;2.635665e-002
2.493613e+003;2.658729e-002
2.495541e+003;2.654614e-002
2.497470e+003;2.634187e-002
2.499398e+003;2.650645e-002
2.501327e+003;2.686827e-002
2.503255e+003;2.695725e-002
2.505184e+003;2.684081e-002
2.507112e+003;2.680898e-002
2.509041e+003;2.673762e-002
2.510969e+003;2.694399e-002
2.512898e+003;2.746011e-002
2.514827e+003;2.781601e-002
2.516755e+003;2.781654e-002
2.518684e+003;2.770097e-002
2.520612e+003;2.775610e-002
2.522541e+003;2.825940e-002
2.524469e+003;2.870865e-002
2.526398e+003;2.862820e-002
2.528326e+003;2.861249e-002
2.530255e+003;2.881996e-002
2.532184e+003;2.911706e-002
2.534112e+003;2.955309e-002
2.536041e+003;2.983947e-002
2.537969e+003;3.000972e-002
2.539898e+003;2.992310e-002
2.541826e+003;2.993616e-002
2.543755e+003;3.011177e-002
2.545683e+003;3.023271e-002
2.547612e+003;3.030454e-002
2.549541e+003;3.016394e-002
2.551469e+003;3.024145e-002
2.553397e+003;3.048194e-002
2.555326e+003;3.048158e-002
2.557255e+003;3.046555e-002
2.559183e+003;3.052758e-002
2.561112e+003;3.032529e-002
2.563040e+003;3.026273e-002
2.564969e+003;3.035820e-002
2.566897e+003;3.050440e-002
2.568826e+003;3.063160e-002
2.570754e+003;3.066510e-002
2.572683e+003;3.074077e-002
2.574612e+003;3.112721e-002
2.576540e+003;3.137346e-002
2.578469e+003;3.110763e-002
2.580397e+003;3.111436e-002
2.582326e+003;3.137114e-002
2.584254e+003;3.160781e-002
2.586183e+003;3.181105e-002
2.588111e+003;3.188482e-002
2.590040e+003;3.201542e-002
2.591969e+003;3.215890e-002
2.593897e+003;3.220332e-002
2.595826e+003;3.222795e-002
2.597754e+003;3.219551e-002
2.599683e+003;3.202708e-002
2.601611e+003;3.222242e-002
2.603540e+003;3.269237e-002
2.605468e+003;3.289237e-002
2.607397e+003;3.297662e-002
2.609325e+003;3.298709e-002
2.611254e+003;3.288193e-002
2.613183e+003;3.290891e-002
2.615111e+003;3.288954e-002
2.617040e+003;3.296972e-002
2.618968e+003;3.320714e-002
2.620897e+003;3.347494e-002
2.622825e+003;3.354907e-002
2.624754e+003;3.371941e-002
2.626682e+003;3.398376e-002
2.628611e+003;3.387700e-002
2.630540e+003;3.388692e-002
2.632468e+003;3.406518e-002
2.634396e+003;3.406357e-002
2.636325e+003;3.394765e-002
2.638254e+003;3.415156e-002
2.640182e+003;3.448737e-002
2.642111e+003;3.452992e-002
2.644039e+003;3.438623e-002
2.645968e+003;3.450179e-002
2.647896e+003;3.472333e-002
2.649825e+003;3.491561e-002
2.651753e+003;3.508801e-002
2.653682e+003;3.503021e-002
2.655611e+003;3.495361e-002
2.657539e+003;3.497411e-002
2.659468e+003;3.529871e-002
2.661396e+003;3.565908e-002
2.663325e+003;3.566469e-002
2.665253e+003;3.556506e-002
2.667182e+003;3.566559e-002
2.669110e+003;3.582939e-002
2.671039e+003;3.591616e-002
2.672968e+003;3.622427e-002
2.674896e+003;3.654559e-002
2.676825e+003;3.658992e-002
2.678753e+003;3.667565e-002
2.680682e+003;3.689191e-002
2.682610e+003;3.712240e-002
2.684539e+003;3.741654e-002
2.686467e+003;3.766602e-002
2.688396e+003;3.804163e-002
2.690324e+003;3.846112e-002
2.692253e+003;3.887279e-002
2.694182e+003;3.902519e-002
2.696110e+003;3.909948e-002
2.698039e+003;3.955661e-002
2.699967e+003;3.985370e-002
2.701896e+003;3.995511e-002
2.703824e+003;4.007959e-002
2.705753e+003;4.033839e-002
2.707681e+003;4.080072e-002
2.709610e+003;4.123378e-002
2.711539e+003;4.134987e-002
2.713467e+003;4.142747e-002
2.715396e+003;4.167964e-002
2.717324e+003;4.198570e-002
2.719253e+003;4.232409e-002
2.721181e+003;4.259216e-002
2.723110e+003;4.294591e-002
2.725038e+003;4.355855e-002
2.726967e+003;4.399077e-002
2.728896e+003;4.417330e-002
2.730824e+003;4.460647e-002
2.732752e+003;4.476207e-002
2.734681e+003;4.487158e-002
2.736610e+003;4.529754e-002
2.738538e+003;4.559274e-002
2.740467e+003;4.608008e-002
2.742395e+003;4.652161e-002
2.744324e+003;4.669579e-002
2.746252e+003;4.689603e-002
2.748181e+003;4.705637e-002
2.750109e+003;4.695838e-002
2.752038e+003;4.692619e-002
2.753967e+003;4.718404e-002
2.755895e+003;4.731360e-002
2.757824e+003;4.735003e-002
2.759752e+003;4.748518e-002
2.761681e+003;4.762437e-002
2.763609e+003;4.788001e-002
2.765538e+003;4.823076e-002
2.767466e+003;4.855708e-002
2.769395e+003;4.879889e-002
2.771323e+003;4.903612e-002
2.773252e+003;4.955731e-002
2.775181e+003;4.983237e-002
2.777109e+003;5.000949e-002
2.779038e+003;5.034645e-002
2.780966e+003;5.059387e-002
2.782895e+003;5.084624e-002
2.784823e+003;5.098319e-002
2.786752e+003;5.104974e-002
2.788680e+003;5.147498e-002
2.790609e+003;5.229640e-002
2.792538e+003;5.314869e-002
2.794466e+003;5.370372e-002
2.796395e+003;5.389915e-002
2.798323e+003;5.408735e-002
2.800252e+003;5.469785e-002
2.802180e+003;5.531797e-002
2.804109e+003;5.560883e-002
2.806037e+003;5.603826e-002
2.807966e+003;5.674498e-002
2.809895e+003;5.741183e-002
2.811823e+003;5.796563e-002
2.813751e+003;5.861858e-002
2.815680e+003;5.971682e-002
2.817609e+003;6.060942e-002
2.819537e+003;6.115927e-002
2.821466e+003;6.168434e-002
2.823394e+003;6.239187e-002
2.825323e+003;6.307415e-002
2.827251e+003;6.385618e-002
2.829180e+003;6.465207e-002
2.831108e+003;6.558952e-002
2.833037e+003;6.679976e-002
2.834966e+003;6.827100e-002
2.836894e+003;6.997180e-002
2.838823e+003;7.226919e-002
2.840751e+003;7.487106e-002
2.842680e+003;7.799448e-002
2.844608e+003;8.177601e-002
2.846537e+003;8.578178e-002
2.848465e+003;9.015135e-002
2.850394e+003;9.448299e-002
2.852323e+003;9.834647e-002
2.854251e+003;1.019801e-001
2.856180e+003;1.053784e-001
2.858108e+003;1.077643e-001
2.860037e+003;1.091152e-001
2.861965e+003;1.098214e-001
2.863894e+003;1.101894e-001
2.865822e+003;1.095999e-001
2.867751e+003;1.083651e-001
2.869679e+003;1.073415e-001
2.871608e+003;1.060786e-001
2.873536e+003;1.041201e-001
2.875465e+003;1.017677e-001
2.877394e+003;9.943036e-002
2.879322e+003;9.711951e-002
2.881251e+003;9.506320e-002
2.883179e+003;9.358095e-002
2.885108e+003;9.275716e-002
2.887036e+003;9.248853e-002
2.888965e+003;9.278432e-002
2.890893e+003;9.346522e-002
2.892822e+003;9.443760e-002
2.894750e+003;9.613797e-002
2.896679e+003;9.819258e-002
2.898608e+003;9.982989e-002
2.900536e+003;1.015138e-001
2.902465e+003;1.030709e-001
2.904393e+003;1.046178e-001
2.906322e+003;1.061553e-001
2.908250e+003;1.076888e-001
2.910179e+003;1.092582e-001
2.912107e+003;1.108108e-001
2.914036e+003;1.126757e-001
2.915965e+003;1.147913e-001
2.917893e+003;1.175069e-001
2.919822e+003;1.204797e-001
2.921750e+003;1.233561e-001
2.923679e+003;1.261838e-001
2.925607e+003;1.292581e-001
2.927536e+003;1.320243e-001
2.929464e+003;1.347035e-001
2.931393e+003;1.368028e-001
2.933322e+003;1.380695e-001
2.935250e+003;1.387055e-001
2.937178e+003;1.389139e-001
2.939107e+003;1.385070e-001
2.941036e+003;1.370638e-001
2.942964e+003;1.346983e-001
2.944893e+003;1.317518e-001
2.946821e+003;1.279422e-001
2.948750e+003;1.234006e-001
2.950678e+003;1.187896e-001
2.952607e+003;1.136825e-001
2.954535e+003;1.079835e-001
2.956464e+003;1.024143e-001
2.958393e+003;9.743401e-002
2.960321e+003;9.280828e-002
2.962250e+003;8.834879e-002
2.964178e+003;8.434127e-002
2.966107e+003;8.079470e-002
2.968035e+003;7.730405e-002
2.969964e+003;7.408190e-002
2.971892e+003;7.139909e-002
2.973821e+003;6.916587e-002
2.975750e+003;6.679377e-002
2.977678e+003;6.484953e-002
2.979607e+003;6.316029e-002
2.981535e+003;6.127952e-002
2.983464e+003;5.971245e-002
2.985392e+003;5.843177e-002
2.987321e+003;5.721201e-002
2.989249e+003;5.642875e-002
2.991178e+003;5.536960e-002
2.993106e+003;5.450727e-002
2.995035e+003;5.392672e-002
2.996964e+003;5.324749e-002
2.998892e+003;5.270255e-002
3.000821e+003;5.237923e-002
3.002749e+003;5.212518e-002
3.004678e+003;5.166456e-002
3.006606e+003;5.136812e-002
3.008535e+003;5.164221e-002
3.010463e+003;5.208170e-002
3.012392e+003;5.247538e-002
3.014321e+003;5.239919e-002
3.016249e+003;5.262553e-002
3.018177e+003;5.300855e-002
3.020106e+003;5.347472e-002
3.022035e+003;5.384352e-002
3.023963e+003;5.381093e-002
3.025892e+003;5.413333e-002
3.027820e+003;5.495486e-002
3.029749e+003;5.540103e-002
3.031677e+003;5.571810e-002
3.033606e+003;5.656276e-002
3.035534e+003;5.741667e-002
3.037463e+003;5.804640e-002
3.039392e+003;5.863992e-002
3.041320e+003;5.946863e-002
3.043249e+003;6.004154e-002
3.045177e+003;6.091037e-002
3.047106e+003;6.183858e-002
3.049034e+003;6.263787e-002
3.050963e+003;6.324000e-002
3.052891e+003;6.379922e-002
3.054820e+003;6.457413e-002
3.056749e+003;6.524479e-002
3.058677e+003;6.589144e-002
3.060606e+003;6.641956e-002
3.062534e+003;6.674574e-002
3.064463e+003;6.700017e-002
3.066391e+003;6.755953e-002
3.068320e+003;6.801978e-002
3.070248e+003;6.809171e-002
3.072177e+003;6.794894e-002
3.074105e+003;6.798800e-002
3.076034e+003;6.789625e-002
3.077963e+003;6.763484e-002
3.079891e+003;6.759740e-002
3.081820e+003;6.754455e-002
3.083748e+003;6.724241e-002
3.085677e+003;6.681252e-002
3.087605e+003;6.639227e-002
3.089534e+003;6.579056e-002
3.091462e+003;6.529897e-002
3.093391e+003;6.504215e-002
3.095320e+003;6.448418e-002
3.097248e+003;6.368445e-002
3.099177e+003;6.317834e-002
3.101105e+003;6.299906e-002
3.103034e+003;6.235614e-002
3.104962e+003;6.153420e-002
3.106891e+003;6.096622e-002
3.108819e+003;6.056946e-002
3.110748e+003;6.023349e-002
3.112677e+003;5.979865e-002
3.114605e+003;5.894961e-002
3.116533e+003;5.814905e-002
3.118462e+003;5.791418e-002
3.120391e+003;5.769312e-002
3.122319e+003;5.710894e-002
3.124248e+003;5.681141e-002
3.126176e+003;5.684555e-002
3.128105e+003;5.683104e-002
3.130033e+003;5.689057e-002
3.131962e+003;5.693065e-002
3.133890e+003;5.642407e-002
3.135819e+003;5.604033e-002
3.137748e+003;5.607124e-002
3.139676e+003;5.618927e-002
3.141605e+003;5.639951e-002
3.143533e+003;5.664928e-002
3.145462e+003;5.688147e-002
3.147390e+003;5.721042e-002
3.149319e+003;5.707674e-002
3.151247e+003;5.707191e-002
3.153176e+003;5.752272e-002
3.155104e+003;5.791410e-002
3.157033e+003;5.807045e-002
3.158962e+003;5.867288e-002
3.160890e+003;5.951359e-002
3.162819e+003;6.012134e-002
3.164747e+003;6.049004e-002
3.166676e+003;6.085837e-002
3.168604e+003;6.170462e-002
3.170533e+003;6.250052e-002
3.172461e+003;6.293406e-002
3.174390e+003;6.330662e-002
3.176319e+003;6.356480e-002
3.178247e+003;6.419334e-002
3.180176e+003;6.540740e-002
3.182104e+003;6.630965e-002
3.184033e+003;6.675729e-002
3.185961e+003;6.719360e-002
3.187890e+003;6.788754e-002
3.189818e+003;6.825767e-002
3.191747e+003;6.841721e-002
3.193676e+003;6.890325e-002
3.195604e+003;6.942849e-002
3.197532e+003;6.960530e-002
3.199461e+003;6.982589e-002
3.201390e+003;7.034113e-002
3.203318e+003;7.085848e-002
3.205247e+003;7.148325e-002
3.207175e+003;7.201467e-002
3.209104e+003;7.214536e-002
3.211032e+003;7.234430e-002
3.212961e+003;7.304547e-002
3.214889e+003;7.377840e-002
3.216818e+003;7.429373e-002
3.218747e+003;7.494560e-002
3.220675e+003;7.577610e-002
3.222604e+003;7.636739e-002
3.224532e+003;7.713825e-002
3.226461e+003;7.835567e-002
3.228389e+003;7.951038e-002
3.230318e+003;8.076441e-002
3.232246e+003;8.205093e-002
3.234175e+003;8.317664e-002
3.236104e+003;8.457293e-002
3.238032e+003;8.585857e-002
3.239961e+003;8.711797e-002
3.241889e+003;8.845329e-002
3.243818e+003;9.018703e-002
3.245746e+003;9.208272e-002
3.247675e+003;9.409568e-002
3.249603e+003;9.633887e-002
3.251532e+003;9.825248e-002
3.253460e+003;1.001101e-001
3.255389e+003;1.023602e-001
3.257318e+003;1.050141e-001
3.259246e+003;1.076649e-001
3.261175e+003;1.099038e-001
3.263103e+003;1.118847e-001
3.265032e+003;1.136073e-001
3.266960e+003;1.154822e-001
3.268889e+003;1.179093e-001
3.270817e+003;1.199752e-001
3.272746e+003;1.217080e-001
3.274675e+003;1.234706e-001
3.276603e+003;1.250320e-001
3.278531e+003;1.264844e-001
3.280460e+003;1.274961e-001
3.282389e+003;1.282165e-001
3.284317e+003;1.288133e-001
3.286246e+003;1.291719e-001
3.288174e+003;1.294136e-001
3.290103e+003;1.288638e-001
3.292031e+003;1.278026e-001
3.293960e+003;1.269183e-001
3.295888e+003;1.256222e-001
3.297817e+003;1.243768e-001
3.299746e+003;1.229121e-001
3.301674e+003;1.209452e-001
3.303603e+003;1.188304e-001
3.305531e+003;1.165056e-001
3.307460e+003;1.138945e-001
3.309388e+003;1.110374e-001
3.311317e+003;1.082489e-001
3.313245e+003;1.055601e-001
3.315174e+003;1.032612e-001
3.317103e+003;1.015379e-001
3.319031e+003;9.941462e-002
3.320960e+003;9.696245e-002
3.322888e+003;9.426533e-002
3.324817e+003;9.168858e-002
3.326745e+003;8.972494e-002
3.328674e+003;8.795258e-002
3.330602e+003;8.618332e-002
3.332531e+003;8.419194e-002
3.334459e+003;8.227080e-002
3.336388e+003;8.055663e-002
3.338317e+003;7.912104e-002
3.340245e+003;7.744224e-002
3.342174e+003;7.564072e-002
3.344102e+003;7.436041e-002
3.346031e+003;7.294825e-002
3.347959e+003;7.122552e-002
3.349888e+003;6.978507e-002
3.351816e+003;6.882820e-002
3.353745e+003;6.762686e-002
3.355674e+003;6.638910e-002
3.357602e+003;6.545185e-002
3.359531e+003;6.443709e-002
3.361459e+003;6.357120e-002
3.363388e+003;6.275309e-002
3.365316e+003;6.178254e-002
3.367245e+003;6.080627e-002
3.369173e+003;5.996983e-002
3.371102e+003;5.944325e-002
3.373031e+003;5.882830e-002
3.374959e+003;5.791747e-002
3.376887e+003;5.697700e-002
3.378816e+003;5.659450e-002
3.380745e+003;5.674098e-002
3.382673e+003;5.631240e-002
3.384602e+003;5.543661e-002
3.386530e+003;5.465023e-002
3.388459e+003;5.411621e-002
3.390387e+003;5.329180e-002
3.392316e+003;5.288099e-002
3.394244e+003;5.330023e-002
3.396173e+003;5.340435e-002
3.398102e+003;5.302876e-002
3.400030e+003;5.251603e-002
3.401959e+003;5.197996e-002
3.403887e+003;5.152710e-002
3.405816e+003;5.126050e-002
3.407744e+003;5.105142e-002
3.409673e+003;5.064793e-002
3.411601e+003;5.012758e-002
3.413530e+003;5.004243e-002
3.415458e+003;5.014030e-002
3.417387e+003;5.003689e-002
3.419316e+003;4.941242e-002
3.421244e+003;4.888090e-002
3.423173e+003;4.871663e-002
3.425101e+003;4.852281e-002
3.427030e+003;4.849647e-002
3.428958e+003;4.821739e-002
3.430887e+003;4.757020e-002
3.432815e+003;4.730529e-002
3.434744e+003;4.756521e-002
3.436673e+003;4.767059e-002
3.438601e+003;4.780721e-002
3.440530e+003;4.818567e-002
3.442458e+003;4.805785e-002
3.444387e+003;4.718031e-002
3.446315e+003;4.663735e-002
3.448244e+003;4.626415e-002
3.450172e+003;4.590607e-002
3.452101e+003;4.553768e-002
3.454030e+003;4.482610e-002
3.455958e+003;4.455183e-002
3.457886e+003;4.449548e-002
3.459815e+003;4.365662e-002
3.461744e+003;4.295802e-002
3.463672e+003;4.271461e-002
3.465601e+003;4.267016e-002
3.467529e+003;4.281553e-002
3.469458e+003;4.258569e-002
3.471386e+003;4.245129e-002
3.473315e+003;4.206823e-002
3.475243e+003;4.164940e-002
3.477172e+003;4.128486e-002
3.479101e+003;4.088634e-002
3.481029e+003;4.085059e-002
3.482958e+003;4.044097e-002
3.484886e+003;4.030716e-002
3.486815e+003;4.026789e-002
3.488743e+003;4.009209e-002
3.490672e+003;4.016626e-002
3.492600e+003;4.011625e-002
3.494529e+003;3.993990e-002
3.496458e+003;3.976956e-002
3.498386e+003;3.947866e-002
3.500315e+003;3.921286e-002
3.502243e+003;3.873711e-002
3.504172e+003;3.841754e-002
3.506100e+003;3.840578e-002
3.508029e+003;3.814266e-002
3.509957e+003;3.787909e-002
3.511886e+003;3.766255e-002
3.513814e+003;3.728246e-002
3.515743e+003;3.708032e-002
3.517672e+003;3.703868e-002
3.519600e+003;3.691724e-002
3.521529e+003;3.676543e-002
3.523457e+003;3.652414e-002
3.525386e+003;3.626649e-002
3.527314e+003;3.611458e-002
3.529243e+003;3.571912e-002
3.531171e+003;3.539112e-002
3.533100e+003;3.490793e-002
3.535029e+003;3.416815e-002
3.536957e+003;3.340859e-002
3.538885e+003;3.294566e-002
3.540814e+003;3.284616e-002
3.542743e+003;3.287010e-002
3.544671e+003;3.300665e-002
3.546600e+003;3.295888e-002
3.548528e+003;3.234816e-002
3.550457e+003;3.171298e-002
3.552385e+003;3.119734e-002
3.554314e+003;3.056142e-002
3.556242e+003;3.000929e-002
3.558171e+003;2.964407e-002
3.560100e+003;2.905789e-002
3.562028e+003;2.893161e-002
3.563957e+003;2.899714e-002
3.565885e+003;2.858761e-002
3.567814e+003;2.856705e-002
3.569742e+003;2.826576e-002
3.571671e+003;2.761308e-002
3.573599e+003;2.710961e-002
3.575528e+003;2.683535e-002
3.577457e+003;2.676472e-002
3.579385e+003;2.652374e-002
3.581314e+003;2.611158e-002
3.583242e+003;2.560739e-002
3.585171e+003;2.498686e-002
3.587099e+003;2.452468e-002
3.589028e+003;2.406404e-002
3.590956e+003;2.377899e-002
3.592885e+003;2.363926e-002
3.594813e+003;2.308800e-002
3.596742e+003;2.255945e-002
3.598671e+003;2.272771e-002
3.600599e+003;2.269377e-002
3.602528e+003;2.232031e-002
3.604456e+003;2.173995e-002
3.606385e+003;2.106608e-002
3.608313e+003;2.055958e-002
3.610242e+003;2.041477e-002
3.612170e+003;2.033476e-002
3.614099e+003;2.014109e-002
3.616028e+003;1.992540e-002
3.617956e+003;1.940437e-002
3.619885e+003;1.877890e-002
3.621813e+003;1.882751e-002
3.623742e+003;1.908541e-002
3.625670e+003;1.878717e-002
3.627599e+003;1.843724e-002
3.629527e+003;1.835293e-002
3.631456e+003;1.827586e-002
3.633385e+003;1.804403e-002
3.635313e+003;1.802835e-002
3.637241e+003;1.766965e-002
3.639170e+003;1.712397e-002
3.641099e+003;1.661014e-002
3.643027e+003;1.611270e-002
3.644956e+003;1.605015e-002
3.646884e+003;1.589945e-002
3.648813e+003;1.554521e-002
3.650741e+003;1.559398e-002
3.652670e+003;1.563021e-002
3.654598e+003;1.527468e-002
3.656527e+003;1.505506e-002
3.658456e+003;1.502614e-002
3.660384e+003;1.494201e-002
3.662313e+003;1.508562e-002
3.664241e+003;1.524503e-002
3.666170e+003;1.517846e-002
3.668098e+003;1.469228e-002
3.670027e+003;1.424414e-002
3.671955e+003;1.452269e-002
3.673884e+003;1.458800e-002
3.675813e+003;1.414965e-002
3.677741e+003;1.368572e-002
3.679669e+003;1.321621e-002
3.681598e+003;1.310791e-002
3.683527e+003;1.313236e-002
3.685455e+003;1.288347e-002
3.687384e+003;1.227386e-002
3.689312e+003;1.179361e-002
3.691241e+003;1.174112e-002
3.693169e+003;1.168611e-002
3.695098e+003;1.186379e-002
3.697026e+003;1.173240e-002
3.698955e+003;1.175231e-002
3.700884e+003;1.190015e-002
3.702812e+003;1.175306e-002
3.704741e+003;1.157645e-002
3.706669e+003;1.155246e-002
3.708598e+003;1.109786e-002
3.710526e+003;1.082801e-002
3.712455e+003;1.094044e-002
3.714383e+003;1.109191e-002
3.716312e+003;1.091407e-002
3.718240e+003;1.094336e-002
3.720169e+003;1.116823e-002
3.722098e+003;1.100137e-002
3.724026e+003;1.092494e-002
3.725955e+003;1.110581e-002
3.727883e+003;1.134787e-002
3.729812e+003;1.134736e-002
3.731740e+003;1.108127e-002
3.733669e+003;1.104137e-002
3.735597e+003;1.087235e-002
3.737526e+003;1.084724e-002
3.739455e+003;1.102002e-002
3.741383e+003;1.119532e-002
3.743312e+003;1.116105e-002
3.745240e+003;1.115109e-002
3.747169e+003;1.125605e-002
3.749097e+003;1.100052e-002
3.751026e+003;1.082506e-002
3.752954e+003;1.081544e-002
3.754883e+003;1.119277e-002
3.756812e+003;1.100249e-002
3.758740e+003;1.054391e-002
3.760668e+003;1.120209e-002
3.762597e+003;1.208133e-002
3.764526e+003;1.190370e-002
3.766454e+003;1.168178e-002
3.768383e+003;1.173727e-002
3.770311e+003;1.159765e-002
3.772240e+003;1.134328e-002
3.774168e+003;1.111054e-002
3.776097e+003;1.103307e-002
3.778025e+003;1.101931e-002
3.779954e+003;1.092267e-002
3.781883e+003;1.096504e-002
3.783811e+003;1.144287e-002
3.785740e+003;1.164965e-002
3.787668e+003;1.127570e-002
3.789597e+003;1.125717e-002
3.791525e+003;1.137154e-002
3.793454e+003;1.130536e-002
3.795382e+003;1.147169e-002
3.797311e+003;1.188153e-002
3.799240e+003;1.188762e-002
3.801168e+003;1.175899e-002
3.803097e+003;1.200802e-002
3.805025e+003;1.193121e-002
3.806954e+003;1.155113e-002
3.808882e+003;1.197917e-002
3.810811e+003;1.214157e-002
3.812739e+003;1.164162e-002
3.814668e+003;1.135318e-002
3.816596e+003;1.156247e-002
3.818525e+003;1.170759e-002
3.820454e+003;1.185292e-002
3.822382e+003;1.214555e-002
3.824311e+003;1.206528e-002
3.826239e+003;1.195625e-002
3.828168e+003;1.209983e-002
3.830096e+003;1.228950e-002
3.832025e+003;1.232322e-002
3.833953e+003;1.184336e-002
3.835882e+003;1.173175e-002
3.837811e+003;1.172569e-002
3.839739e+003;1.156549e-002
3.841667e+003;1.161137e-002
3.843596e+003;1.193513e-002
3.845525e+003;1.226033e-002
3.847453e+003;1.230965e-002
3.849382e+003;1.208944e-002
3.851310e+003;1.200369e-002
3.853239e+003;1.198022e-002
3.855167e+003;1.203891e-002
3.857096e+003;1.255964e-002
3.859024e+003;1.280132e-002
3.860953e+003;1.262305e-002
3.862882e+003;1.214364e-002
3.864810e+003;1.195018e-002
3.866739e+003;1.233368e-002
3.868667e+003;1.257997e-002
3.870596e+003;1.290924e-002
3.872524e+003;1.311262e-002
3.874453e+003;1.262124e-002
3.876381e+003;1.240384e-002
3.878310e+003;1.257206e-002
3.880239e+003;1.278497e-002
3.882167e+003;1.296170e-002
3.884096e+003;1.316047e-002
3.886024e+003;1.298690e-002
3.887953e+003;1.278723e-002
3.889881e+003;1.252810e-002
3.891810e+003;1.281780e-002
3.893738e+003;1.303033e-002
3.895667e+003;1.293375e-002
3.897595e+003;1.306628e-002
3.899524e+003;1.305648e-002
3.901453e+003;1.281466e-002
3.903381e+003;1.254416e-002
3.905310e+003;1.324722e-002
3.907238e+003;1.411073e-002
3.909167e+003;1.405443e-002
3.911095e+003;1.390076e-002
3.913024e+003;1.375251e-002
3.914952e+003;1.338317e-002
3.916881e+003;1.319547e-002
3.918810e+003;1.286770e-002
3.920738e+003;1.313642e-002
3.922667e+003;1.383025e-002
3.924595e+003;1.389511e-002
3.926524e+003;1.363170e-002
3.928452e+003;1.404214e-002
3.930381e+003;1.468173e-002
3.932309e+003;1.471000e-002
3.934238e+003;1.465873e-002
3.936167e+003;1.454476e-002
3.938095e+003;1.415876e-002
3.940023e+003;1.417495e-002
3.941952e+003;1.457645e-002
3.943881e+003;1.471453e-002
3.945809e+003;1.468584e-002
3.947738e+003;1.491924e-002
3.949666e+003;1.539067e-002
3.951595e+003;1.547846e-002
3.953523e+003;1.542026e-002
3.955452e+003;1.554171e-002
3.957380e+003;1.576244e-002
3.959309e+003;1.572681e-002
3.961238e+003;1.607312e-002
3.963166e+003;1.643657e-002
3.965095e+003;1.602385e-002
3.967023e+003;1.563918e-002
3.968952e+003;1.590787e-002
3.970880e+003;1.605926e-002
3.972809e+003;1.606985e-002
3.974737e+003;1.591653e-002
3.976666e+003;1.535826e-002
3.978594e+003;1.588794e-002
3.980523e+003;1.684482e-002
3.982452e+003;1.689542e-002
3.984380e+003;1.659396e-002
3.986309e+003;1.652426e-002
3.988237e+003;1.671016e-002
3.990166e+003;1.660061e-002
3.992094e+003;1.634559e-002
3.994023e+003;1.620975e-002
3.995951e+003;1.636128e-002
3.997880e+003;1.693111e-002
3.999809e+003;1.729110e-002
4.001737e+003;0.000000e+000
