3.992094e+002;0.000000e+000
4.011380e+002;0.000000e+000
4.030665e+002;0.000000e+000
4.049951e+002;0.000000e+000
4.069236e+002;0.000000e+000
4.088522e+002;0.000000e+000
4.107807e+002;0.000000e+000
4.127093e+002;0.000000e+000
4.146378e+002;0.000000e+000
4.165664e+002;0.000000e+000
4.184949e+002;0.000000e+000
4.204235e+002;0.000000e+000
4.223520e+002;0.000000e+000
4.242806e+002;0.000000e+000
4.262091e+002;0.000000e+000
4.281377e+002;0.000000e+000
4.300662e+002;0.000000e+000
4.319948e+002;0.000000e+000
4.339233e+002;0.000000e+000
4.358519e+002;0.000000e+000
4.377804e+002;0.000000e+000
4.397090e+002;0.000000e+000
4.416375e+002;0.000000e+000
4.435660e+002;0.000000e+000
4.454946e+002;0.000000e+000
4.474232e+002;0.000000e+000
4.493517e+002;0.000000e+000
4.512802e+002;0.000000e+000
4.532088e+002;0.000000e+000
4.551373e+002;0.000000e+000
4.570659e+002;0.000000e+000
4.589944e+002;0.000000e+000
4.609230e+002;0.000000e+000
4.628515e+002;0.000000e+000
4.647801e+002;0.000000e+000
4.667086e+002;0.000000e+000
4.686372e+002;0.000000e+000
4.705657e+002;0.000000e+000
4.724943e+002;0.000000e+000
4.744228e+002;0.000000e+000
4.763513e+002;0.000000e+000
4.782799e+002;0.000000e+000
4.802085e+002;0.000000e+000
4.821370e+002;0.000000e+000
4.840656e+002;0.000000e+000
4.859941e+002;0.000000e+000
4.879226e+002;0.000000e+000
4.898512e+002;0.000000e+000
4.917798e+002;0.000000e+000
4.937083e+002;0.000000e+000
4.956368e+002;0.000000e+000
4.975654e+002;0.000000e+000
4.994939e+002;0.000000e+000
5.014225e+002;0.000000e+000
5.033510e+002;0.000000e+000
5.052796e+002;0.000000e+000
5.072081e+002;0.000000e+000
5.091367e+002;0.000000e+000
5.110652e+002;0.000000e+000
5.129938e+002;0.000000e+000
5.149223e+002;0.000000e+000
5.168509e+002;0.000000e+000
5.187794e+002;0.000000e+000
5.207079e+002;0.000000e+000
5.226365e+002;0.000000e+000
5.245651e+002;0.000000e+000
5.264936e+002;0.000000e+000
5.284222e+002;0.000000e+000
5.303507e+002;0.000000e+000
5.322792e+002;0.000000e+000
5.342078e+002;0.000000e+000
5.361364e+002;0.000000e+000
5.380649e+002;0.000000e+000
5.399935e+002;0.000000e+000
5.419220e+002;0.000000e+000
5.438505e+002;0.000000e+000
5.457791e+002;0.000000e+000
5.477076e+002;0.000000e+000
5.496362e+002;0.000000e+000
5.515648e+002;0.000000e+000
5.534933e+002;0.000000e+000
5.554218e+002;0.000000e+000
5.573504e+002;0.000000e+000
5.592789e+002;0.000000e+000
5.612075e+002;0.000000e+000
5.631360e+002;0.000000e+000
5.650646e+002;0.000000e+000
5.669931e+002;0.000000e+000
5.689217e+002;0.000000e+000
5.708502e+002;0.000000e+000
5.727787e+002;0.000000e+000
5.747073e+002;0.000000e+000
5.766359e+002;0.000000e+000
5.785644e+002;0.000000e+000
5.804930e+002;0.000000e+000
5.824215e+002;0.000000e+000
5.843500e+002;0.000000e+000
5.862786e+002;0.000000e+000
5.882072e+002;0.000000e+000
5.901357e+002;0.000000e+000
5.920643e+002;0.000000e+000
5.939928e+002;0.000000e+000
5.959213e+002;0.000000e+000
5.978499e+002;0.000000e+000
5.997784e+002;7.786310e-002
6.017070e+002;8.919974e-002
6.036355e+002;9.016725e-002
6.055641e+002;8.394352e-002
6.074926e+002;8.084571e-002
6.094211e+002;7.796772e-002
6.113497e+002;8.098719e-002
6.132783e+002;8.595988e-002
6.152068e+002;8.533604e-002
6.171354e+002;8.508322e-002
6.190639e+002;8.380815e-002
6.209924e+002;8.193123e-002
6.229210e+002;8.496881e-002
6.248495e+002;8.812667e-002
6.267781e+002;9.009903e-002
6.287067e+002;9.063610e-002
6.306352e+002;8.825244e-002
6.325637e+002;8.917585e-002
6.344923e+002;8.947369e-002
6.364208e+002;8.787068e-002
6.383494e+002;8.820961e-002
6.402780e+002;9.170168e-002
6.422065e+002;9.394863e-002
6.441350e+002;9.511183e-002
6.460636e+002;9.660297e-002
6.479921e+002;9.489513e-002
6.499207e+002;9.298740e-002
6.518492e+002;9.455573e-002
6.537778e+002;9.435005e-002
6.557063e+002;9.275916e-002
6.576349e+002;9.314685e-002
6.595634e+002;9.875943e-002
6.614919e+002;1.026441e-001
6.634205e+002;1.059985e-001
6.653491e+002;1.086510e-001
6.672776e+002;1.083168e-001
6.692062e+002;1.093974e-001
6.711347e+002;1.078981e-001
6.730632e+002;1.072300e-001
6.749918e+002;1.103746e-001
6.769203e+002;1.115275e-001
6.788489e+002;1.104368e-001
6.807775e+002;1.100070e-001
6.827060e+002;1.101878e-001
6.846345e+002;1.096407e-001
6.865631e+002;1.097758e-001
6.884916e+002;1.104443e-001
6.904202e+002;1.089974e-001
6.923488e+002;1.067811e-001
6.942773e+002;1.044954e-001
6.962058e+002;1.009466e-001
6.981344e+002;9.748469e-002
7.000629e+002;9.509476e-002
7.019915e+002;9.398142e-002
7.039200e+002;9.263496e-002
7.058486e+002;9.155425e-002
7.077771e+002;9.059638e-002
7.097057e+002;8.825719e-002
7.116342e+002;8.651264e-002
7.135627e+002;8.570117e-002
7.154913e+002;8.522523e-002
7.174199e+002;8.473238e-002
7.193484e+002;8.469034e-002
7.212770e+002;8.495595e-002
7.232055e+002;8.516008e-002
7.251340e+002;8.597855e-002
7.270626e+002;8.716664e-002
7.289911e+002;8.738017e-002
7.309197e+002;8.541065e-002
7.328483e+002;8.043487e-002
7.347768e+002;7.429124e-002
7.367053e+002;7.029279e-002
7.386339e+002;6.873709e-002
7.405624e+002;6.846154e-002
7.424910e+002;6.767123e-002
7.444196e+002;6.600548e-002
7.463481e+002;6.369964e-002
7.482766e+002;6.082769e-002
7.502052e+002;5.887242e-002
7.521337e+002;5.884086e-002
7.540623e+002;5.843988e-002
7.559908e+002;5.713714e-002
7.579194e+002;5.618745e-002
7.598479e+002;5.542355e-002
7.617765e+002;5.412811e-002
7.637050e+002;5.292743e-002
7.656335e+002;5.183907e-002
7.675621e+002;5.068323e-002
7.694907e+002;5.056551e-002
7.714192e+002;5.052050e-002
7.733478e+002;4.940748e-002
7.752763e+002;4.867848e-002
7.772048e+002;4.826379e-002
7.791334e+002;4.787771e-002
7.810620e+002;4.690249e-002
7.829905e+002;4.579074e-002
7.849191e+002;4.561562e-002
7.868476e+002;4.482452e-002
7.887761e+002;4.386330e-002
7.907047e+002;4.372946e-002
7.926332e+002;4.382420e-002
7.945618e+002;4.334088e-002
7.964903e+002;4.256230e-002
7.984189e+002;4.147759e-002
8.003474e+002;4.071112e-002
8.022759e+002;4.016179e-002
8.042045e+002;3.951763e-002
8.061331e+002;3.838782e-002
8.080616e+002;3.747057e-002
8.099902e+002;3.681714e-002
8.119187e+002;3.656127e-002
8.138472e+002;3.735251e-002
8.157758e+002;3.785877e-002
8.177043e+002;3.814469e-002
8.196329e+002;3.915977e-002
8.215615e+002;4.013166e-002
8.234900e+002;4.071403e-002
8.254185e+002;4.172618e-002
8.273471e+002;4.287572e-002
8.292756e+002;4.363456e-002
8.312042e+002;4.432467e-002
8.331328e+002;4.484877e-002
8.350613e+002;4.361170e-002
8.369898e+002;4.127287e-002
8.389184e+002;3.902056e-002
8.408469e+002;3.693968e-002
8.427755e+002;3.572865e-002
8.447040e+002;3.463003e-002
8.466326e+002;3.391343e-002
8.485611e+002;3.416608e-002
8.504897e+002;3.390301e-002
8.524182e+002;3.327983e-002
8.543467e+002;3.267322e-002
8.562753e+002;3.215608e-002
8.582039e+002;3.208712e-002
8.601324e+002;3.202858e-002
8.620610e+002;3.209518e-002
8.639895e+002;3.285688e-002
8.659180e+002;3.353872e-002
8.678466e+002;3.340326e-002
8.697751e+002;3.314173e-002
8.717037e+002;3.367508e-002
8.736323e+002;3.413790e-002
8.755608e+002;3.440620e-002
8.774893e+002;3.493246e-002
8.794179e+002;3.545960e-002
8.813464e+002;3.598185e-002
8.832750e+002;3.654908e-002
8.852036e+002;3.642371e-002
8.871321e+002;3.580866e-002
8.890606e+002;3.525429e-002
8.909892e+002;3.526338e-002
8.929177e+002;3.579755e-002
8.948463e+002;3.598512e-002
8.967748e+002;3.556474e-002
8.987034e+002;3.541912e-002
9.006319e+002;3.574013e-002
9.025605e+002;3.627005e-002
9.044890e+002;3.684600e-002
9.064175e+002;3.704236e-002
9.083461e+002;3.671635e-002
9.102747e+002;3.696879e-002
9.122032e+002;3.768452e-002
9.141318e+002;3.762706e-002
9.160603e+002;3.753790e-002
9.179888e+002;3.783452e-002
9.199174e+002;3.830621e-002
9.218459e+002;3.896684e-002
9.237745e+002;4.020937e-002
9.257031e+002;4.153979e-002
9.276316e+002;4.201216e-002
9.295601e+002;4.182339e-002
9.314887e+002;4.090530e-002
9.334172e+002;3.968812e-002
9.353458e+002;3.904096e-002
9.372744e+002;3.895799e-002
9.392029e+002;3.886928e-002
9.411314e+002;3.911126e-002
9.430600e+002;4.005401e-002
9.449885e+002;4.095333e-002
9.469171e+002;4.180785e-002
9.488456e+002;4.296160e-002
9.507742e+002;4.383464e-002
9.527027e+002;4.421226e-002
9.546313e+002;4.462384e-002
9.565598e+002;4.534083e-002
9.584883e+002;4.570801e-002
9.604169e+002;4.521450e-002
9.623455e+002;4.440489e-002
9.642740e+002;4.351086e-002
9.662026e+002;4.298498e-002
9.681311e+002;4.273136e-002
9.700596e+002;4.230491e-002
9.719882e+002;4.238494e-002
9.739167e+002;4.238418e-002
9.758453e+002;4.199289e-002
9.777739e+002;4.157920e-002
9.797024e+002;4.146232e-002
9.816309e+002;4.139751e-002
9.835595e+002;4.156655e-002
9.854880e+002;4.192563e-002
9.874166e+002;4.258332e-002
9.893452e+002;4.288311e-002
9.912737e+002;4.219569e-002
9.932022e+002;4.080440e-002
9.951307e+002;3.930589e-002
9.970593e+002;3.781955e-002
9.989879e+002;3.679284e-002
1.000916e+003;3.615949e-002
1.002845e+003;3.571091e-002
1.004773e+003;3.556442e-002
1.006702e+003;3.585192e-002
1.008631e+003;3.628129e-002
1.010559e+003;3.661368e-002
1.012488e+003;3.720015e-002
1.014416e+003;3.777737e-002
1.016345e+003;3.773519e-002
1.018273e+003;3.741899e-002
1.020202e+003;3.766511e-002
1.022130e+003;3.885906e-002
1.024059e+003;4.046465e-002
1.025988e+003;4.206298e-002
1.027916e+003;4.381056e-002
1.029845e+003;4.543117e-002
1.031773e+003;4.689688e-002
1.033702e+003;4.811559e-002
1.035630e+003;4.942742e-002
1.037559e+003;5.118460e-002
1.039487e+003;5.387237e-002
1.041416e+003;5.711771e-002
1.043344e+003;5.932309e-002
1.045273e+003;5.923274e-002
1.047202e+003;5.650981e-002
1.049130e+003;5.228227e-002
1.051059e+003;4.764415e-002
1.052987e+003;4.390594e-002
1.054916e+003;4.196888e-002
1.056844e+003;4.175003e-002
1.058773e+003;4.190075e-002
1.060701e+003;4.183985e-002
1.062630e+003;4.197983e-002
1.064558e+003;4.235715e-002
1.066487e+003;4.303067e-002
1.068416e+003;4.395371e-002
1.070344e+003;4.386877e-002
1.072273e+003;4.366878e-002
1.074201e+003;4.420111e-002
1.076130e+003;4.431466e-002
1.078058e+003;4.314999e-002
1.079987e+003;4.236675e-002
1.081915e+003;4.240895e-002
1.083844e+003;4.241004e-002
1.085773e+003;4.270211e-002
1.087701e+003;4.338540e-002
1.089630e+003;4.381008e-002
1.091558e+003;4.357679e-002
1.093487e+003;4.406089e-002
1.095415e+003;4.520429e-002
1.097344e+003;4.552370e-002
1.099272e+003;4.580377e-002
1.101201e+003;4.708816e-002
1.103129e+003;4.845838e-002
1.105058e+003;4.903211e-002
1.106987e+003;4.948125e-002
1.108915e+003;4.971392e-002
1.110844e+003;4.973331e-002
1.112772e+003;5.026684e-002
1.114701e+003;5.074169e-002
1.116629e+003;5.129913e-002
1.118558e+003;5.170849e-002
1.120486e+003;5.096344e-002
1.122415e+003;4.967914e-002
1.124344e+003;4.812962e-002
1.126272e+003;4.654053e-002
1.128201e+003;4.485097e-002
1.130129e+003;4.338119e-002
1.132058e+003;4.275392e-002
1.133986e+003;4.260941e-002
1.135915e+003;4.329157e-002
1.137843e+003;4.503404e-002
1.139772e+003;4.704648e-002
1.141700e+003;4.793954e-002
1.143629e+003;4.841941e-002
1.145557e+003;4.921347e-002
1.147486e+003;5.069499e-002
1.149415e+003;5.255062e-002
1.151343e+003;5.389817e-002
1.153272e+003;5.493606e-002
1.155200e+003;5.572963e-002
1.157129e+003;5.710528e-002
1.159057e+003;5.926301e-002
1.160986e+003;6.177991e-002
1.162914e+003;6.483275e-002
1.164843e+003;6.830858e-002
1.166771e+003;7.137273e-002
1.168700e+003;7.287019e-002
1.170629e+003;7.277078e-002
1.172557e+003;7.129350e-002
1.174486e+003;6.913098e-002
1.176414e+003;6.710194e-002
1.178343e+003;6.595761e-002
1.180271e+003;6.570896e-002
1.182200e+003;6.603584e-002
1.184128e+003;6.656148e-002
1.186057e+003;6.785484e-002
1.187986e+003;6.973460e-002
1.189914e+003;7.175615e-002
1.191843e+003;7.382772e-002
1.193771e+003;7.607164e-002
1.195700e+003;7.876211e-002
1.197628e+003;8.108313e-002
1.199557e+003;8.229343e-002
1.201485e+003;8.095928e-002
1.203414e+003;7.770298e-002
1.205343e+003;7.490339e-002
1.207271e+003;7.330523e-002
1.209200e+003;7.253507e-002
1.211128e+003;7.201964e-002
1.213057e+003;7.166670e-002
1.214985e+003;7.074346e-002
1.216914e+003;6.845522e-002
1.218842e+003;6.656282e-002
1.220771e+003;6.552809e-002
1.222699e+003;6.511690e-002
1.224628e+003;6.572203e-002
1.226557e+003;6.692355e-002
1.228485e+003;6.825022e-002
1.230414e+003;6.983316e-002
1.232342e+003;7.138909e-002
1.234271e+003;7.282238e-002
1.236199e+003;7.414746e-002
1.238128e+003;7.435093e-002
1.240056e+003;7.369586e-002
1.241985e+003;7.314929e-002
1.243913e+003;7.271601e-002
1.245842e+003;7.287062e-002
1.247771e+003;7.348241e-002
1.249699e+003;7.435915e-002
1.251628e+003;7.594384e-002
1.253556e+003;7.769973e-002
1.255485e+003;7.953429e-002
1.257413e+003;8.186025e-002
1.259342e+003;8.400724e-002
1.261270e+003;8.488436e-002
1.263199e+003;8.455840e-002
1.265127e+003;8.286034e-002
1.267056e+003;7.939421e-002
1.268985e+003;7.531927e-002
1.270913e+003;7.251991e-002
1.272842e+003;7.110604e-002
1.274770e+003;7.078749e-002
1.276699e+003;7.104415e-002
1.278627e+003;7.144228e-002
1.280556e+003;7.163973e-002
1.282484e+003;7.121861e-002
1.284413e+003;7.060813e-002
1.286342e+003;7.004144e-002
1.288270e+003;6.992322e-002
1.290199e+003;7.024246e-002
1.292127e+003;7.043242e-002
1.294056e+003;7.040772e-002
1.295984e+003;7.017975e-002
1.297913e+003;6.947573e-002
1.299841e+003;6.869700e-002
1.301770e+003;6.783617e-002
1.303698e+003;6.683613e-002
1.305627e+003;6.600039e-002
1.307556e+003;6.544892e-002
1.309484e+003;6.518812e-002
1.311413e+003;6.530067e-002
1.313341e+003;6.581324e-002
1.315270e+003;6.684737e-002
1.317198e+003;6.806931e-002
1.319127e+003;6.917927e-002
1.321055e+003;7.030802e-002
1.322984e+003;7.147482e-002
1.324912e+003;7.229452e-002
1.326841e+003;7.290040e-002
1.328770e+003;7.327557e-002
1.330698e+003;7.297934e-002
1.332627e+003;7.196360e-002
1.334555e+003;7.039435e-002
1.336484e+003;6.865419e-002
1.338412e+003;6.731905e-002
1.340341e+003;6.618580e-002
1.342269e+003;6.527949e-002
1.344198e+003;6.474475e-002
1.346126e+003;6.435674e-002
1.348055e+003;6.401230e-002
1.349984e+003;6.390012e-002
1.351912e+003;6.426045e-002
1.353841e+003;6.475798e-002
1.355769e+003;6.502838e-002
1.357698e+003;6.553557e-002
1.359626e+003;6.634602e-002
1.361555e+003;6.707994e-002
1.363483e+003;6.795046e-002
1.365412e+003;6.909718e-002
1.367341e+003;7.037397e-002
1.369269e+003;7.155455e-002
1.371198e+003;7.228234e-002
1.373126e+003;7.221469e-002
1.375055e+003;7.164055e-002
1.376983e+003;7.044427e-002
1.378912e+003;6.862504e-002
1.380840e+003;6.679033e-002
1.382769e+003;6.492036e-002
1.384698e+003;6.297930e-002
1.386626e+003;6.142713e-002
1.388555e+003;6.009618e-002
1.390483e+003;5.868001e-002
1.392412e+003;5.763614e-002
1.394340e+003;5.729019e-002
1.396269e+003;5.753399e-002
1.398197e+003;5.819883e-002
1.400126e+003;5.932241e-002
1.402054e+003;6.089882e-002
1.403983e+003;6.301756e-002
1.405911e+003;6.570580e-002
1.407840e+003;6.916668e-002
1.409769e+003;7.349112e-002
1.411697e+003;7.795115e-002
1.413626e+003;8.169310e-002
1.415554e+003;8.392844e-002
1.417483e+003;8.409438e-002
1.419411e+003;8.241507e-002
1.421340e+003;7.962213e-002
1.423268e+003;7.675157e-002
1.425197e+003;7.472055e-002
1.427125e+003;7.387430e-002
1.429054e+003;7.435922e-002
1.430983e+003;7.621086e-002
1.432911e+003;7.801531e-002
1.434840e+003;7.870723e-002
1.436768e+003;7.850539e-002
1.438697e+003;7.795019e-002
1.440625e+003;7.692788e-002
1.442554e+003;7.588519e-002
1.444482e+003;7.537755e-002
1.446411e+003;7.524751e-002
1.448340e+003;7.580849e-002
1.450268e+003;7.748703e-002
1.452197e+003;7.971694e-002
1.454125e+003;8.221294e-002
1.456054e+003;8.495869e-002
1.457982e+003;8.825130e-002
1.459911e+003;9.155511e-002
1.461839e+003;9.297694e-002
1.463768e+003;9.072658e-002
1.465697e+003;8.538911e-002
1.467625e+003;7.986633e-002
1.469554e+003;7.599656e-002
1.471482e+003;7.475845e-002
1.473411e+003;7.577732e-002
1.475339e+003;7.707161e-002
1.477268e+003;7.684158e-002
1.479196e+003;7.487697e-002
1.481125e+003;7.146681e-002
1.483053e+003;6.706640e-002
1.484982e+003;6.314725e-002
1.486911e+003;6.077185e-002
1.488839e+003;5.980564e-002
1.490768e+003;6.017781e-002
1.492696e+003;6.170546e-002
1.494625e+003;6.382286e-002
1.496553e+003;6.650972e-002
1.498482e+003;6.902672e-002
1.500410e+003;7.107256e-002
1.502339e+003;7.324737e-002
1.504267e+003;7.544500e-002
1.506196e+003;7.804830e-002
1.508125e+003;8.152568e-002
1.510053e+003;8.520794e-002
1.511982e+003;8.900028e-002
1.513910e+003;9.300070e-002
1.515839e+003;9.691445e-002
1.517767e+003;1.006898e-001
1.519696e+003;1.045892e-001
1.521624e+003;1.087710e-001
1.523553e+003;1.134995e-001
1.525481e+003;1.187761e-001
1.527410e+003;1.243934e-001
1.529339e+003;1.299404e-001
1.531267e+003;1.354225e-001
1.533196e+003;1.406308e-001
1.535124e+003;1.446283e-001
1.537053e+003;1.471945e-001
1.538981e+003;1.483149e-001
1.540910e+003;1.481931e-001
1.542838e+003;1.461782e-001
1.544767e+003;1.421843e-001
1.546695e+003;1.370718e-001
1.548624e+003;1.310031e-001
1.550553e+003;1.245323e-001
1.552481e+003;1.185963e-001
1.554410e+003;1.131609e-001
1.556338e+003;1.083770e-001
1.558267e+003;1.034955e-001
1.560195e+003;9.867359e-002
1.562124e+003;9.444012e-002
1.564052e+003;9.035639e-002
1.565981e+003;8.641706e-002
1.567910e+003;8.258490e-002
1.569838e+003;7.911273e-002
1.571767e+003;7.623803e-002
1.573695e+003;7.343230e-002
1.575624e+003;7.080196e-002
1.577552e+003;6.907406e-002
1.579481e+003;6.778225e-002
1.581409e+003;6.670146e-002
1.583338e+003;6.638435e-002
1.585266e+003;6.647412e-002
1.587195e+003;6.666468e-002
1.589124e+003;6.678852e-002
1.591052e+003;6.717283e-002
1.592981e+003;6.803361e-002
1.594909e+003;6.896799e-002
1.596838e+003;7.014583e-002
1.598766e+003;7.209243e-002
1.600695e+003;7.485110e-002
1.602623e+003;7.834595e-002
1.604552e+003;8.266045e-002
1.606480e+003;8.738815e-002
1.608409e+003;9.200482e-002
1.610338e+003;9.674110e-002
1.612266e+003;1.016343e-001
1.614195e+003;1.067178e-001
1.616123e+003;1.127294e-001
1.618052e+003;1.197955e-001
1.619980e+003;1.274537e-001
1.621909e+003;1.352756e-001
1.623837e+003;1.433483e-001
1.625766e+003;1.513669e-001
1.627694e+003;1.591320e-001
1.629623e+003;1.669813e-001
1.631552e+003;1.745394e-001
1.633480e+003;1.802757e-001
1.635409e+003;1.827420e-001
1.637337e+003;1.808311e-001
1.639266e+003;1.745194e-001
1.641194e+003;1.650729e-001
1.643123e+003;1.544271e-001
1.645051e+003;1.433812e-001
1.646980e+003;1.328530e-001
1.648909e+003;1.237020e-001
1.650837e+003;1.154131e-001
1.652766e+003;1.080452e-001
1.654694e+003;1.027841e-001
1.656623e+003;9.853163e-002
1.658551e+003;9.390458e-002
1.660480e+003;8.953314e-002
1.662408e+003;8.482615e-002
1.664337e+003;7.988286e-002
1.666266e+003;7.496304e-002
1.668194e+003;6.978048e-002
1.670123e+003;6.491555e-002
1.672051e+003;6.088216e-002
1.673980e+003;5.731809e-002
1.675908e+003;5.392792e-002
1.677837e+003;5.083857e-002
1.679765e+003;4.733632e-002
1.681694e+003;4.338899e-002
1.683622e+003;3.989398e-002
1.685551e+003;3.714814e-002
1.687479e+003;3.501689e-002
1.689408e+003;3.326488e-002
1.691337e+003;3.173437e-002
1.693265e+003;3.021850e-002
1.695194e+003;2.885817e-002
1.697122e+003;2.804406e-002
1.699051e+003;2.745905e-002
1.700979e+003;2.689044e-002
1.702908e+003;2.671426e-002
1.704836e+003;2.663308e-002
1.706765e+003;2.647518e-002
1.708693e+003;2.615711e-002
1.710622e+003;2.583738e-002
1.712551e+003;2.558641e-002
1.714479e+003;2.540320e-002
1.716408e+003;2.513784e-002
1.718336e+003;2.506668e-002
1.720265e+003;2.522843e-002
1.722193e+003;2.514971e-002
1.724122e+003;2.499950e-002
1.726050e+003;2.488453e-002
1.727979e+003;2.450098e-002
1.729908e+003;2.416954e-002
1.731836e+003;2.398486e-002
1.733765e+003;2.362757e-002
1.735693e+003;2.349122e-002
1.737622e+003;2.337392e-002
1.739550e+003;2.317162e-002
1.741479e+003;2.279859e-002
1.743407e+003;2.217700e-002
1.745336e+003;2.159204e-002
1.747265e+003;2.092868e-002
1.749193e+003;2.027390e-002
1.751122e+003;1.973410e-002
1.753050e+003;1.945326e-002
1.754979e+003;1.915736e-002
1.756907e+003;1.848070e-002
1.758836e+003;1.774906e-002
1.760764e+003;1.724507e-002
1.762693e+003;1.686541e-002
1.764621e+003;1.661437e-002
1.766550e+003;1.627919e-002
1.768479e+003;1.599057e-002
1.770407e+003;1.558412e-002
1.772336e+003;1.501657e-002
1.774264e+003;1.461415e-002
1.776193e+003;1.445596e-002
1.778121e+003;1.428886e-002
1.780050e+003;1.404184e-002
1.781978e+003;1.400323e-002
1.783907e+003;1.391564e-002
1.785835e+003;1.350859e-002
1.787764e+003;1.331169e-002
1.789693e+003;1.322946e-002
1.791621e+003;1.286804e-002
1.793550e+003;1.252578e-002
1.795478e+003;1.253945e-002
1.797407e+003;1.251664e-002
1.799335e+003;1.215973e-002
1.801264e+003;1.189116e-002
1.803192e+003;1.208150e-002
1.805121e+003;1.218007e-002
1.807049e+003;1.203983e-002
1.808978e+003;1.199215e-002
1.810907e+003;1.174598e-002
1.812835e+003;1.134233e-002
1.814764e+003;1.127002e-002
1.816692e+003;1.131706e-002
1.818621e+003;1.126030e-002
1.820549e+003;1.121977e-002
1.822478e+003;1.132114e-002
1.824406e+003;1.138300e-002
1.826335e+003;1.127662e-002
1.828264e+003;1.120107e-002
1.830192e+003;1.123895e-002
1.832121e+003;1.115201e-002
1.834049e+003;1.101730e-002
1.835978e+003;1.091332e-002
1.837906e+003;1.072516e-002
1.839835e+003;1.061347e-002
1.841763e+003;1.060526e-002
1.843692e+003;1.042931e-002
1.845620e+003;1.015890e-002
1.847549e+003;1.000324e-002
1.849478e+003;1.001226e-002
1.851406e+003;1.012970e-002
1.853335e+003;1.029728e-002
1.855263e+003;1.020151e-002
1.857192e+003;1.004519e-002
1.859120e+003;9.991276e-003
1.861049e+003;9.934794e-003
1.862977e+003;9.886420e-003
1.864906e+003;9.956796e-003
1.866834e+003;9.848119e-003
1.868763e+003;9.759665e-003
1.870692e+003;9.877980e-003
1.872620e+003;1.005329e-002
1.874549e+003;1.004478e-002
1.876477e+003;9.838459e-003
1.878406e+003;9.589889e-003
1.880334e+003;9.640804e-003
1.882263e+003;9.637248e-003
1.884191e+003;9.465184e-003
1.886120e+003;9.544771e-003
1.888048e+003;9.652561e-003
1.889977e+003;9.758038e-003
1.891906e+003;9.834798e-003
1.893834e+003;9.789756e-003
1.895763e+003;9.883743e-003
1.897691e+003;9.929268e-003
1.899620e+003;9.849847e-003
1.901548e+003;9.786673e-003
1.903477e+003;9.813176e-003
1.905405e+003;9.799280e-003
1.907334e+003;9.853406e-003
1.909262e+003;9.854897e-003
1.911191e+003;9.738113e-003
1.913120e+003;9.623392e-003
1.915048e+003;9.388251e-003
1.916977e+003;9.406636e-003
1.918905e+003;9.610349e-003
1.920834e+003;9.547312e-003
1.922762e+003;9.493258e-003
1.924691e+003;9.472464e-003
1.926619e+003;9.474395e-003
1.928548e+003;9.587619e-003
1.930477e+003;9.486045e-003
1.932405e+003;9.504637e-003
1.934334e+003;9.599475e-003
1.936262e+003;9.622274e-003
1.938191e+003;9.644735e-003
1.940119e+003;9.626068e-003
1.942048e+003;9.450182e-003
1.943976e+003;9.223529e-003
1.945905e+003;9.127825e-003
1.947833e+003;9.056264e-003
1.949762e+003;9.023076e-003
1.951691e+003;9.190836e-003
1.953619e+003;9.247898e-003
1.955548e+003;9.208265e-003
1.957476e+003;9.192968e-003
1.959405e+003;9.140954e-003
1.961333e+003;9.067158e-003
1.963262e+003;9.158720e-003
1.965190e+003;9.235037e-003
1.967119e+003;9.120042e-003
1.969047e+003;9.231584e-003
1.970976e+003;9.221667e-003
1.972905e+003;9.157604e-003
1.974833e+003;9.241129e-003
1.976762e+003;9.376774e-003
1.978690e+003;9.447134e-003
1.980619e+003;9.578440e-003
1.982547e+003;9.594124e-003
1.984476e+003;9.598832e-003
1.986404e+003;9.526143e-003
1.988333e+003;9.407856e-003
1.990261e+003;9.503351e-003
1.992190e+003;9.473074e-003
1.994119e+003;9.275518e-003
1.996047e+003;9.272709e-003
1.997976e+003;9.280494e-003
1.999904e+003;9.297047e-003
2.001833e+003;9.453027e-003
2.003761e+003;9.445306e-003
2.005690e+003;9.419808e-003
2.007618e+003;9.479948e-003
2.009547e+003;9.571530e-003
2.011476e+003;9.721441e-003
2.013404e+003;9.860625e-003
2.015333e+003;9.953135e-003
2.017261e+003;9.891776e-003
2.019190e+003;9.812769e-003
2.021118e+003;9.766069e-003
2.023047e+003;9.811888e-003
2.024975e+003;9.989683e-003
2.026904e+003;1.019309e-002
2.028833e+003;1.016321e-002
2.030761e+003;1.014795e-002
2.032690e+003;1.031383e-002
2.034618e+003;1.042130e-002
2.036547e+003;1.051071e-002
2.038475e+003;1.056900e-002
2.040404e+003;1.047398e-002
2.042332e+003;1.056740e-002
2.044261e+003;1.073902e-002
2.046189e+003;1.092617e-002
2.048118e+003;1.073586e-002
2.050047e+003;1.028581e-002
2.051975e+003;1.034631e-002
2.053904e+003;1.050813e-002
2.055832e+003;1.033867e-002
2.057761e+003;1.034254e-002
2.059689e+003;1.058838e-002
2.061618e+003;1.086199e-002
2.063546e+003;1.087479e-002
2.065475e+003;1.074670e-002
2.067404e+003;1.067212e-002
2.069332e+003;1.062848e-002
2.071260e+003;1.080916e-002
2.073189e+003;1.102448e-002
2.075118e+003;1.101948e-002
2.077046e+003;1.105554e-002
2.078975e+003;1.107841e-002
2.080903e+003;1.102886e-002
2.082832e+003;1.095743e-002
2.084760e+003;1.075522e-002
2.086689e+003;1.061412e-002
2.088617e+003;1.071341e-002
2.090546e+003;1.069643e-002
2.092475e+003;1.063483e-002
2.094403e+003;1.070696e-002
2.096332e+003;1.068821e-002
2.098260e+003;1.066468e-002
2.100189e+003;1.071266e-002
2.102117e+003;1.085404e-002
2.104046e+003;1.087829e-002
2.105974e+003;1.076497e-002
2.107903e+003;1.078158e-002
2.109832e+003;1.087116e-002
2.111760e+003;1.088040e-002
2.113688e+003;1.088179e-002
2.115617e+003;1.092015e-002
2.117546e+003;1.095325e-002
2.119474e+003;1.097561e-002
2.121403e+003;1.128533e-002
2.123331e+003;1.123126e-002
2.125260e+003;1.094118e-002
2.127188e+003;1.085652e-002
2.129117e+003;1.091064e-002
2.131045e+003;1.100677e-002
2.132974e+003;1.093266e-002
2.134903e+003;1.090221e-002
2.136831e+003;1.111995e-002
2.138760e+003;1.109922e-002
2.140688e+003;1.102719e-002
2.142617e+003;1.128046e-002
2.144545e+003;1.158455e-002
2.146474e+003;1.153113e-002
2.148402e+003;1.144199e-002
2.150331e+003;1.151762e-002
2.152260e+003;1.151677e-002
2.154188e+003;1.137392e-002
2.156117e+003;1.134508e-002
2.158045e+003;1.144216e-002
2.159974e+003;1.148057e-002
2.161902e+003;1.149343e-002
2.163831e+003;1.164826e-002
2.165759e+003;1.169540e-002
2.167688e+003;1.160980e-002
2.169616e+003;1.176886e-002
2.171545e+003;1.188051e-002
2.173474e+003;1.190056e-002
2.175402e+003;1.201323e-002
2.177331e+003;1.204726e-002
2.179259e+003;1.188943e-002
2.181188e+003;1.174891e-002
2.183116e+003;1.171211e-002
2.185045e+003;1.189494e-002
2.186973e+003;1.211002e-002
2.188902e+003;1.211465e-002
2.190831e+003;1.209506e-002
2.192759e+003;1.208985e-002
2.194688e+003;1.202767e-002
2.196616e+003;1.199320e-002
2.198545e+003;1.202437e-002
2.200473e+003;1.223603e-002
2.202402e+003;1.229039e-002
2.204330e+003;1.206859e-002
2.206259e+003;1.199763e-002
2.208188e+003;1.218242e-002
2.210116e+003;1.226121e-002
2.212044e+003;1.205091e-002
2.213973e+003;1.189903e-002
2.215902e+003;1.206726e-002
2.217830e+003;1.219949e-002
2.219759e+003;1.205625e-002
2.221687e+003;1.194467e-002
2.223616e+003;1.201810e-002
2.225544e+003;1.179766e-002
2.227473e+003;1.147625e-002
2.229401e+003;1.142467e-002
2.231330e+003;1.158931e-002
2.233259e+003;1.171194e-002
2.235187e+003;1.165840e-002
2.237116e+003;1.148128e-002
2.239044e+003;1.147397e-002
2.240973e+003;1.163427e-002
2.242901e+003;1.166300e-002
2.244830e+003;1.165983e-002
2.246758e+003;1.165404e-002
2.248687e+003;1.160983e-002
2.250615e+003;1.154460e-002
2.252544e+003;1.163318e-002
2.254473e+003;1.187645e-002
2.256401e+003;1.194310e-002
2.258330e+003;1.200645e-002
2.260258e+003;1.203725e-002
2.262187e+003;1.216055e-002
2.264115e+003;1.217070e-002
2.266044e+003;1.194794e-002
2.267972e+003;1.182065e-002
2.269901e+003;1.198785e-002
2.271830e+003;1.216266e-002
2.273758e+003;1.219087e-002
2.275687e+003;1.228163e-002
2.277615e+003;1.219169e-002
2.279544e+003;1.206164e-002
2.281472e+003;1.221872e-002
2.283401e+003;1.241496e-002
2.285329e+003;1.245522e-002
2.287258e+003;1.262329e-002
2.289187e+003;1.256050e-002
2.291115e+003;1.236122e-002
2.293043e+003;1.253690e-002
2.294972e+003;1.249853e-002
2.296901e+003;1.231006e-002
2.298829e+003;1.237166e-002
2.300758e+003;1.251770e-002
2.302686e+003;1.248741e-002
2.304615e+003;1.234391e-002
2.306543e+003;1.248376e-002
2.308472e+003;1.262172e-002
2.310400e+003;1.243855e-002
2.312329e+003;1.242382e-002
2.314258e+003;1.240831e-002
2.316186e+003;1.217550e-002
2.318115e+003;1.201340e-002
2.320043e+003;1.190700e-002
2.321972e+003;1.176100e-002
2.323900e+003;1.156900e-002
2.325829e+003;1.123857e-002
2.327757e+003;1.083630e-002
2.329686e+003;1.058377e-002
2.331615e+003;1.065714e-002
2.333543e+003;1.068183e-002
2.335472e+003;1.045209e-002
2.337400e+003;1.030997e-002
2.339329e+003;1.046441e-002
2.341257e+003;1.068886e-002
2.343186e+003;1.105330e-002
2.345114e+003;1.161348e-002
2.347043e+003;1.220972e-002
2.348971e+003;1.238366e-002
2.350900e+003;1.174534e-002
2.352829e+003;1.099464e-002
2.354757e+003;1.045884e-002
2.356686e+003;9.770373e-003
2.358614e+003;9.461865e-003
2.360543e+003;9.537557e-003
2.362471e+003;9.632234e-003
2.364400e+003;9.860354e-003
2.366328e+003;1.008029e-002
2.368257e+003;1.042290e-002
2.370186e+003;1.100470e-002
2.372114e+003;1.153657e-002
2.374042e+003;1.200414e-002
2.375971e+003;1.236515e-002
2.377900e+003;1.275310e-002
2.379828e+003;1.305365e-002
2.381757e+003;1.321511e-002
2.383685e+003;1.334343e-002
2.385614e+003;1.349663e-002
2.387542e+003;1.361088e-002
2.389471e+003;1.357915e-002
2.391399e+003;1.364031e-002
2.393328e+003;1.356271e-002
2.395257e+003;1.341656e-002
2.397185e+003;1.344379e-002
2.399114e+003;1.359498e-002
2.401042e+003;1.378993e-002
2.402971e+003;1.377542e-002
2.404899e+003;1.361094e-002
2.406828e+003;1.366801e-002
2.408756e+003;1.378698e-002
2.410685e+003;1.385020e-002
2.412614e+003;1.369581e-002
2.414542e+003;1.353567e-002
2.416471e+003;1.357683e-002
2.418399e+003;1.376934e-002
2.420328e+003;1.388194e-002
2.422256e+003;1.409855e-002
2.424185e+003;1.399745e-002
2.426113e+003;1.390048e-002
2.428042e+003;1.410508e-002
2.429970e+003;1.415595e-002
2.431899e+003;1.419754e-002
2.433828e+003;1.433389e-002
2.435756e+003;1.446106e-002
2.437685e+003;1.442393e-002
2.439613e+003;1.441085e-002
2.441542e+003;1.456309e-002
2.443470e+003;1.470791e-002
2.445399e+003;1.482337e-002
2.447327e+003;1.476413e-002
2.449256e+003;1.454390e-002
2.451185e+003;1.478675e-002
2.453113e+003;1.517160e-002
2.455042e+003;1.523988e-002
2.456970e+003;1.545748e-002
2.458899e+003;1.547612e-002
2.460827e+003;1.515502e-002
2.462756e+003;1.499177e-002
2.464684e+003;1.516268e-002
2.466613e+003;1.546788e-002
2.468542e+003;1.559776e-002
2.470470e+003;1.585841e-002
2.472398e+003;1.603853e-002
2.474327e+003;1.610066e-002
2.476256e+003;1.595661e-002
2.478184e+003;1.581714e-002
2.480113e+003;1.562355e-002
2.482041e+003;1.557584e-002
2.483970e+003;1.571881e-002
2.485898e+003;1.573987e-002
2.487827e+003;1.586209e-002
2.489755e+003;1.588165e-002
2.491684e+003;1.575653e-002
2.493613e+003;1.565563e-002
2.495541e+003;1.580299e-002
2.497470e+003;1.597036e-002
2.499398e+003;1.604599e-002
2.501327e+003;1.600529e-002
2.503255e+003;1.588144e-002
2.505184e+003;1.605713e-002
2.507112e+003;1.610799e-002
2.509041e+003;1.599662e-002
2.510969e+003;1.602536e-002
2.512898e+003;1.634676e-002
2.514827e+003;1.660129e-002
2.516755e+003;1.670300e-002
2.518684e+003;1.706053e-002
2.520612e+003;1.710250e-002
2.522541e+003;1.685935e-002
2.524469e+003;1.673402e-002
2.526398e+003;1.696756e-002
2.528326e+003;1.732207e-002
2.530255e+003;1.746671e-002
2.532184e+003;1.740211e-002
2.534112e+003;1.755499e-002
2.536041e+003;1.782711e-002
2.537969e+003;1.794157e-002
2.539898e+003;1.799347e-002
2.541826e+003;1.801295e-002
2.543755e+003;1.805902e-002
2.545683e+003;1.817064e-002
2.547612e+003;1.807315e-002
2.549541e+003;1.790852e-002
2.551469e+003;1.781534e-002
2.553397e+003;1.783982e-002
2.555326e+003;1.802777e-002
2.557255e+003;1.812072e-002
2.559183e+003;1.813481e-002
2.561112e+003;1.809602e-002
2.563040e+003;1.809557e-002
2.564969e+003;1.815198e-002
2.566897e+003;1.818346e-002
2.568826e+003;1.810821e-002
2.570754e+003;1.801333e-002
2.572683e+003;1.824680e-002
2.574612e+003;1.849128e-002
2.576540e+003;1.861203e-002
2.578469e+003;1.878783e-002
2.580397e+003;1.893746e-002
2.582326e+003;1.897501e-002
2.584254e+003;1.905692e-002
2.586183e+003;1.912571e-002
2.588111e+003;1.903016e-002
2.590040e+003;1.904532e-002
2.591969e+003;1.928790e-002
2.593897e+003;1.944044e-002
2.595826e+003;1.937377e-002
2.597754e+003;1.927622e-002
2.599683e+003;1.919819e-002
2.601611e+003;1.918223e-002
2.603540e+003;1.921613e-002
2.605468e+003;1.916363e-002
2.607397e+003;1.922520e-002
2.609325e+003;1.941563e-002
2.611254e+003;1.953664e-002
2.613183e+003;1.972460e-002
2.615111e+003;1.986103e-002
2.617040e+003;1.995857e-002
2.618968e+003;1.993564e-002
2.620897e+003;1.986588e-002
2.622825e+003;1.973930e-002
2.624754e+003;1.974044e-002
2.626682e+003;2.014210e-002
2.628611e+003;2.037556e-002
2.630540e+003;2.037396e-002
2.632468e+003;2.044297e-002
2.634396e+003;2.055999e-002
2.636325e+003;2.054360e-002
2.638254e+003;2.033882e-002
2.640182e+003;2.028147e-002
2.642111e+003;2.056274e-002
2.644039e+003;2.076988e-002
2.645968e+003;2.099085e-002
2.647896e+003;2.099467e-002
2.649825e+003;2.085963e-002
2.651753e+003;2.079250e-002
2.653682e+003;2.084381e-002
2.655611e+003;2.095708e-002
2.657539e+003;2.097089e-002
2.659468e+003;2.108173e-002
2.661396e+003;2.107275e-002
2.663325e+003;2.106406e-002
2.665253e+003;2.129952e-002
2.667182e+003;2.139509e-002
2.669110e+003;2.123946e-002
2.671039e+003;2.098257e-002
2.672968e+003;2.088904e-002
2.674896e+003;2.112597e-002
2.676825e+003;2.110684e-002
2.678753e+003;2.102792e-002
2.680682e+003;2.123264e-002
2.682610e+003;2.158131e-002
2.684539e+003;2.186433e-002
2.686467e+003;2.204382e-002
2.688396e+003;2.224849e-002
2.690324e+003;2.224173e-002
2.692253e+003;2.215406e-002
2.694182e+003;2.239894e-002
2.696110e+003;2.273469e-002
2.698039e+003;2.263997e-002
2.699967e+003;2.262748e-002
2.701896e+003;2.280987e-002
2.703824e+003;2.296071e-002
2.705753e+003;2.329582e-002
2.707681e+003;2.362873e-002
2.709610e+003;2.370266e-002
2.711539e+003;2.351269e-002
2.713467e+003;2.358801e-002
2.715396e+003;2.381052e-002
2.717324e+003;2.406075e-002
2.719253e+003;2.417210e-002
2.721181e+003;2.437658e-002
2.723110e+003;2.481317e-002
2.725038e+003;2.509673e-002
2.726967e+003;2.522190e-002
2.728896e+003;2.545302e-002
2.730824e+003;2.585281e-002
2.732752e+003;2.598031e-002
2.734681e+003;2.596304e-002
2.736610e+003;2.630353e-002
2.738538e+003;2.671200e-002
2.740467e+003;2.673040e-002
2.742395e+003;2.667860e-002
2.744324e+003;2.679031e-002
2.746252e+003;2.703252e-002
2.748181e+003;2.717529e-002
2.750109e+003;2.713120e-002
2.752038e+003;2.726884e-002
2.753967e+003;2.743131e-002
2.755895e+003;2.719144e-002
2.757824e+003;2.701771e-002
2.759752e+003;2.710630e-002
2.761681e+003;2.730790e-002
2.763609e+003;2.744147e-002
2.765538e+003;2.750208e-002
2.767466e+003;2.775932e-002
2.769395e+003;2.816672e-002
2.771323e+003;2.826870e-002
2.773252e+003;2.822291e-002
2.775181e+003;2.840458e-002
2.777109e+003;2.866129e-002
2.779038e+003;2.883345e-002
2.780966e+003;2.907075e-002
2.782895e+003;2.947528e-002
2.784823e+003;2.948028e-002
2.786752e+003;2.950379e-002
2.788680e+003;2.990521e-002
2.790609e+003;3.025204e-002
2.792538e+003;3.038534e-002
2.794466e+003;3.044963e-002
2.796395e+003;3.067520e-002
2.798323e+003;3.081656e-002
2.800252e+003;3.106061e-002
2.802180e+003;3.149657e-002
2.804109e+003;3.174467e-002
2.806037e+003;3.210970e-002
2.807966e+003;3.251567e-002
2.809895e+003;3.286095e-002
2.811823e+003;3.329775e-002
2.813751e+003;3.373742e-002
2.815680e+003;3.420339e-002
2.817609e+003;3.490779e-002
2.819537e+003;3.553345e-002
2.821466e+003;3.581939e-002
2.823394e+003;3.603858e-002
2.825323e+003;3.643877e-002
2.827251e+003;3.681375e-002
2.829180e+003;3.717156e-002
2.831108e+003;3.780545e-002
2.833037e+003;3.851445e-002
2.834966e+003;3.940678e-002
2.836894e+003;4.051669e-002
2.838823e+003;4.177028e-002
2.840751e+003;4.357935e-002
2.842680e+003;4.602139e-002
2.844608e+003;4.874269e-002
2.846537e+003;5.177299e-002
2.848465e+003;5.480561e-002
2.850394e+003;5.734754e-002
2.852323e+003;5.941028e-002
2.854251e+003;6.131302e-002
2.856180e+003;6.271193e-002
2.858108e+003;6.390108e-002
2.860037e+003;6.478075e-002
2.861965e+003;6.517449e-002
2.863894e+003;6.506998e-002
2.865822e+003;6.457263e-002
2.867751e+003;6.403711e-002
2.869679e+003;6.287477e-002
2.871608e+003;6.137049e-002
2.873536e+003;5.981743e-002
2.875465e+003;5.795287e-002
2.877394e+003;5.594244e-002
2.879322e+003;5.440913e-002
2.881251e+003;5.323397e-002
2.883179e+003;5.231157e-002
2.885108e+003;5.175862e-002
2.887036e+003;5.188305e-002
2.888965e+003;5.262037e-002
2.890893e+003;5.394068e-002
2.892822e+003;5.577909e-002
2.894750e+003;5.733416e-002
2.896679e+003;5.834017e-002
2.898608e+003;5.887166e-002
2.900536e+003;5.907263e-002
2.902465e+003;5.915087e-002
2.904393e+003;5.952807e-002
2.906322e+003;6.041605e-002
2.908250e+003;6.163439e-002
2.910179e+003;6.314166e-002
2.912107e+003;6.463588e-002
2.914036e+003;6.621224e-002
2.915965e+003;6.801265e-002
2.917893e+003;7.001886e-002
2.919822e+003;7.252786e-002
2.921750e+003;7.510206e-002
2.923679e+003;7.699228e-002
2.925607e+003;7.862736e-002
2.927536e+003;8.049752e-002
2.929464e+003;8.275056e-002
2.931393e+003;8.424407e-002
2.933322e+003;8.462471e-002
2.935250e+003;8.396157e-002
2.937178e+003;8.276319e-002
2.939107e+003;8.174545e-002
2.941036e+003;8.024933e-002
2.942964e+003;7.830571e-002
2.944893e+003;7.586341e-002
2.946821e+003;7.247062e-002
2.948750e+003;6.827085e-002
2.950678e+003;6.409144e-002
2.952607e+003;6.006441e-002
2.954535e+003;5.623731e-002
2.956464e+003;5.296632e-002
2.958393e+003;5.030013e-002
2.960321e+003;4.845149e-002
2.962250e+003;4.710814e-002
2.964178e+003;4.570499e-002
2.966107e+003;4.390953e-002
2.968035e+003;4.222994e-002
2.969964e+003;4.067069e-002
2.971892e+003;3.916322e-002
2.973821e+003;3.789449e-002
2.975750e+003;3.675999e-002
2.977678e+003;3.576250e-002
2.979607e+003;3.492962e-002
2.981535e+003;3.426319e-002
2.983464e+003;3.377388e-002
2.985392e+003;3.327979e-002
2.987321e+003;3.268390e-002
2.989249e+003;3.200001e-002
2.991178e+003;3.145756e-002
2.993106e+003;3.102876e-002
2.995035e+003;3.083666e-002
2.996964e+003;3.067758e-002
2.998892e+003;3.032405e-002
3.000821e+003;3.021218e-002
3.002749e+003;3.035695e-002
3.004678e+003;3.047419e-002
3.006606e+003;3.050824e-002
3.008535e+003;3.044412e-002
3.010463e+003;3.040404e-002
3.012392e+003;3.048752e-002
3.014321e+003;3.078509e-002
3.016249e+003;3.109058e-002
3.018177e+003;3.111429e-002
3.020106e+003;3.110222e-002
3.022035e+003;3.127606e-002
3.023963e+003;3.168022e-002
3.025892e+003;3.218399e-002
3.027820e+003;3.251971e-002
3.029749e+003;3.270398e-002
3.031677e+003;3.306178e-002
3.033606e+003;3.363112e-002
3.035534e+003;3.416270e-002
3.037463e+003;3.446779e-002
3.039392e+003;3.461811e-002
3.041320e+003;3.504914e-002
3.043249e+003;3.554856e-002
3.045177e+003;3.595870e-002
3.047106e+003;3.693773e-002
3.049034e+003;3.775084e-002
3.050963e+003;3.805961e-002
3.052891e+003;3.822645e-002
3.054820e+003;3.870770e-002
3.056749e+003;3.934532e-002
3.058677e+003;3.969284e-002
3.060606e+003;4.004983e-002
3.062534e+003;4.021050e-002
3.064463e+003;4.003464e-002
3.066391e+003;3.976430e-002
3.068320e+003;4.002450e-002
3.070248e+003;4.061317e-002
3.072177e+003;4.073790e-002
3.074105e+003;4.059149e-002
3.076034e+003;4.024398e-002
3.077963e+003;3.992664e-002
3.079891e+003;3.979335e-002
3.081820e+003;3.989812e-002
3.083748e+003;3.997568e-002
3.085677e+003;3.968235e-002
3.087605e+003;3.918403e-002
3.089534e+003;3.892777e-002
3.091462e+003;3.912681e-002
3.093391e+003;3.917682e-002
3.095320e+003;3.882648e-002
3.097248e+003;3.809144e-002
3.099177e+003;3.751424e-002
3.101105e+003;3.729708e-002
3.103034e+003;3.701580e-002
3.104962e+003;3.668235e-002
3.106891e+003;3.634967e-002
3.108819e+003;3.594013e-002
3.110748e+003;3.552339e-002
3.112677e+003;3.518429e-002
3.114605e+003;3.494865e-002
3.116533e+003;3.456203e-002
3.118462e+003;3.396796e-002
3.120391e+003;3.369345e-002
3.122319e+003;3.363831e-002
3.124248e+003;3.356378e-002
3.126176e+003;3.351406e-002
3.128105e+003;3.365152e-002
3.130033e+003;3.339231e-002
3.131962e+003;3.283383e-002
3.133890e+003;3.278055e-002
3.135819e+003;3.331503e-002
3.137748e+003;3.339228e-002
3.139676e+003;3.294559e-002
3.141605e+003;3.272406e-002
3.143533e+003;3.288189e-002
3.145462e+003;3.307343e-002
3.147390e+003;3.339675e-002
3.149319e+003;3.360932e-002
3.151247e+003;3.357366e-002
3.153176e+003;3.375157e-002
3.155104e+003;3.393106e-002
3.157033e+003;3.418490e-002
3.158962e+003;3.454377e-002
3.160890e+003;3.483939e-002
3.162819e+003;3.517035e-002
3.164747e+003;3.521670e-002
3.166676e+003;3.508801e-002
3.168604e+003;3.530960e-002
3.170533e+003;3.587909e-002
3.172461e+003;3.622399e-002
3.174390e+003;3.644961e-002
3.176319e+003;3.682411e-002
3.178247e+003;3.742564e-002
3.180176e+003;3.789811e-002
3.182104e+003;3.813753e-002
3.184033e+003;3.832513e-002
3.185961e+003;3.899109e-002
3.187890e+003;3.935863e-002
3.189818e+003;3.915974e-002
3.191747e+003;3.927767e-002
3.193676e+003;3.958325e-002
3.195604e+003;3.996659e-002
3.197532e+003;4.015122e-002
3.199461e+003;4.007690e-002
3.201390e+003;4.015518e-002
3.203318e+003;4.038351e-002
3.205247e+003;4.049487e-002
3.207175e+003;4.054681e-002
3.209104e+003;4.073361e-002
3.211032e+003;4.100682e-002
3.212961e+003;4.129627e-002
3.214889e+003;4.180493e-002
3.216818e+003;4.229746e-002
3.218747e+003;4.255945e-002
3.220675e+003;4.273849e-002
3.222604e+003;4.293080e-002
3.224532e+003;4.310381e-002
3.226461e+003;4.349350e-002
3.228389e+003;4.432475e-002
3.230318e+003;4.499894e-002
3.232246e+003;4.572598e-002
3.234175e+003;4.679472e-002
3.236104e+003;4.750577e-002
3.238032e+003;4.806628e-002
3.239961e+003;4.923273e-002
3.241889e+003;5.023983e-002
3.243818e+003;5.085622e-002
3.245746e+003;5.161564e-002
3.247675e+003;5.281636e-002
3.249603e+003;5.361044e-002
3.251532e+003;5.419353e-002
3.253460e+003;5.554124e-002
3.255389e+003;5.675563e-002
3.257318e+003;5.768491e-002
3.259246e+003;5.889952e-002
3.261175e+003;6.028130e-002
3.263103e+003;6.172528e-002
3.265032e+003;6.281760e-002
3.266960e+003;6.390761e-002
3.268889e+003;6.514397e-002
3.270817e+003;6.630865e-002
3.272746e+003;6.779353e-002
3.274675e+003;6.979246e-002
3.276603e+003;7.191280e-002
3.278531e+003;7.351954e-002
3.280460e+003;7.472543e-002
3.282389e+003;7.650670e-002
3.284317e+003;7.885400e-002
3.286246e+003;8.080336e-002
3.288174e+003;8.236668e-002
3.290103e+003;8.353553e-002
3.292031e+003;8.483323e-002
3.293960e+003;8.567465e-002
3.295888e+003;8.547439e-002
3.297817e+003;8.477841e-002
3.299746e+003;8.413278e-002
3.301674e+003;8.270703e-002
3.303603e+003;8.019337e-002
3.305531e+003;7.805226e-002
3.307460e+003;7.597947e-002
3.309388e+003;7.336996e-002
3.311317e+003;7.098000e-002
3.313245e+003;6.916676e-002
3.315174e+003;6.686291e-002
3.317103e+003;6.473048e-002
3.319031e+003;6.277487e-002
3.320960e+003;6.059372e-002
3.322888e+003;5.844462e-002
3.324817e+003;5.655231e-002
3.326745e+003;5.526178e-002
3.328674e+003;5.377710e-002
3.330602e+003;5.187517e-002
3.332531e+003;5.046814e-002
3.334459e+003;4.961599e-002
3.336388e+003;4.829741e-002
3.338317e+003;4.727178e-002
3.340245e+003;4.628095e-002
3.342174e+003;4.495326e-002
3.344102e+003;4.399642e-002
3.346031e+003;4.316606e-002
3.347959e+003;4.231547e-002
3.349888e+003;4.182153e-002
3.351816e+003;4.118857e-002
3.353745e+003;4.018211e-002
3.355674e+003;3.934772e-002
3.357602e+003;3.892186e-002
3.359531e+003;3.877243e-002
3.361459e+003;3.847796e-002
3.363388e+003;3.748425e-002
3.365316e+003;3.641311e-002
3.367245e+003;3.606810e-002
3.369173e+003;3.556186e-002
3.371102e+003;3.489393e-002
3.373031e+003;3.430679e-002
3.374959e+003;3.395206e-002
3.376887e+003;3.354481e-002
3.378816e+003;3.359485e-002
3.380745e+003;3.353514e-002
3.382673e+003;3.298720e-002
3.384602e+003;3.281935e-002
3.386530e+003;3.289594e-002
3.388459e+003;3.288329e-002
3.390387e+003;3.255564e-002
3.392316e+003;3.182153e-002
3.394244e+003;3.129451e-002
3.396173e+003;3.088412e-002
3.398102e+003;3.070496e-002
3.400030e+003;3.076705e-002
3.401959e+003;3.096029e-002
3.403887e+003;3.109218e-002
3.405816e+003;3.059747e-002
3.407744e+003;3.039696e-002
3.409673e+003;3.053056e-002
3.411601e+003;3.020650e-002
3.413530e+003;2.950737e-002
3.415458e+003;2.947836e-002
3.417387e+003;3.003756e-002
3.419316e+003;3.016082e-002
3.421244e+003;2.926200e-002
3.423173e+003;2.874607e-002
3.425101e+003;2.871888e-002
3.427030e+003;2.854323e-002
3.428958e+003;2.855626e-002
3.430887e+003;2.864388e-002
3.432815e+003;2.840762e-002
3.434744e+003;2.812119e-002
3.436673e+003;2.815287e-002
3.438601e+003;2.811801e-002
3.440530e+003;2.812048e-002
3.442458e+003;2.815870e-002
3.444387e+003;2.796341e-002
3.446315e+003;2.756668e-002
3.448244e+003;2.750557e-002
3.450172e+003;2.756718e-002
3.452101e+003;2.714418e-002
3.454030e+003;2.672176e-002
3.455958e+003;2.649518e-002
3.457886e+003;2.645053e-002
3.459815e+003;2.616429e-002
3.461744e+003;2.572803e-002
3.463672e+003;2.562310e-002
3.465601e+003;2.581470e-002
3.467529e+003;2.532806e-002
3.469458e+003;2.508374e-002
3.471386e+003;2.525561e-002
3.473315e+003;2.550657e-002
3.475243e+003;2.594799e-002
3.477172e+003;2.593778e-002
3.479101e+003;2.565073e-002
3.481029e+003;2.564528e-002
3.482958e+003;2.574167e-002
3.484886e+003;2.538300e-002
3.486815e+003;2.488710e-002
3.488743e+003;2.480289e-002
3.490672e+003;2.499560e-002
3.492600e+003;2.521291e-002
3.494529e+003;2.495552e-002
3.496458e+003;2.482921e-002
3.498386e+003;2.470503e-002
3.500315e+003;2.425246e-002
3.502243e+003;2.392377e-002
3.504172e+003;2.420131e-002
3.506100e+003;2.435748e-002
3.508029e+003;2.418162e-002
3.509957e+003;2.422387e-002
3.511886e+003;2.411304e-002
3.513814e+003;2.383131e-002
3.515743e+003;2.364556e-002
3.517672e+003;2.354498e-002
3.519600e+003;2.332746e-002
3.521529e+003;2.283875e-002
3.523457e+003;2.261264e-002
3.525386e+003;2.227971e-002
3.527314e+003;2.170686e-002
3.529243e+003;2.183834e-002
3.531171e+003;2.213520e-002
3.533100e+003;2.203758e-002
3.535029e+003;2.191887e-002
3.536957e+003;2.164163e-002
3.538885e+003;2.139150e-002
3.540814e+003;2.132374e-002
3.542743e+003;2.131274e-002
3.544671e+003;2.094843e-002
3.546600e+003;2.064957e-002
3.548528e+003;2.027758e-002
3.550457e+003;2.008740e-002
3.552385e+003;2.011343e-002
3.554314e+003;1.990369e-002
3.556242e+003;1.972585e-002
3.558171e+003;1.917305e-002
3.560100e+003;1.865302e-002
3.562028e+003;1.842234e-002
3.563957e+003;1.827233e-002
3.565885e+003;1.803813e-002
3.567814e+003;1.805080e-002
3.569742e+003;1.809315e-002
3.571671e+003;1.788718e-002
3.573599e+003;1.787182e-002
3.575528e+003;1.789937e-002
3.577457e+003;1.727917e-002
3.579385e+003;1.678492e-002
3.581314e+003;1.661544e-002
3.583242e+003;1.614114e-002
3.585171e+003;1.601711e-002
3.587099e+003;1.610451e-002
3.589028e+003;1.579529e-002
3.590956e+003;1.558773e-002
3.592885e+003;1.548711e-002
3.594813e+003;1.530252e-002
3.596742e+003;1.544227e-002
3.598671e+003;1.547732e-002
3.600599e+003;1.493628e-002
3.602528e+003;1.454568e-002
3.604456e+003;1.426328e-002
3.606385e+003;1.387691e-002
3.608313e+003;1.371369e-002
3.610242e+003;1.376103e-002
3.612170e+003;1.340524e-002
3.614099e+003;1.327814e-002
3.616028e+003;1.329348e-002
3.617956e+003;1.289473e-002
3.619885e+003;1.282456e-002
3.621813e+003;1.279166e-002
3.623742e+003;1.265055e-002
3.625670e+003;1.257022e-002
3.627599e+003;1.258553e-002
3.629527e+003;1.227096e-002
3.631456e+003;1.191538e-002
3.633385e+003;1.184938e-002
3.635313e+003;1.172770e-002
3.637241e+003;1.145413e-002
3.639170e+003;1.129107e-002
3.641099e+003;1.117441e-002
3.643027e+003;1.106689e-002
3.644956e+003;1.087602e-002
3.646884e+003;1.081606e-002
3.648813e+003;1.037719e-002
3.650741e+003;9.835917e-003
3.652670e+003;1.000141e-002
3.654598e+003;1.029127e-002
3.656527e+003;1.033402e-002
3.658456e+003;1.027390e-002
3.660384e+003;1.021714e-002
3.662313e+003;1.040586e-002
3.664241e+003;1.039120e-002
3.666170e+003;1.017508e-002
3.668098e+003;9.887301e-003
3.670027e+003;9.601474e-003
3.671955e+003;9.674853e-003
3.673884e+003;9.713919e-003
3.675813e+003;9.622850e-003
3.677741e+003;9.629320e-003
3.679669e+003;9.532510e-003
3.681598e+003;9.179939e-003
3.683527e+003;8.723956e-003
3.685455e+003;8.429467e-003
3.687384e+003;8.091832e-003
3.689312e+003;8.001068e-003
3.691241e+003;8.218709e-003
3.693169e+003;8.234783e-003
3.695098e+003;8.029689e-003
3.697026e+003;7.929017e-003
3.698955e+003;8.020272e-003
3.700884e+003;7.896961e-003
3.702812e+003;7.811602e-003
3.704741e+003;7.875906e-003
3.706669e+003;7.981865e-003
3.708598e+003;7.811231e-003
3.710526e+003;7.426885e-003
3.712455e+003;7.399247e-003
3.714383e+003;7.841897e-003
3.716312e+003;8.070363e-003
3.718240e+003;8.276219e-003
3.720169e+003;8.171202e-003
3.722098e+003;7.738031e-003
3.724026e+003;7.573023e-003
3.725955e+003;7.676985e-003
3.727883e+003;7.904182e-003
3.729812e+003;7.613856e-003
3.731740e+003;6.874197e-003
3.733669e+003;6.584054e-003
3.735597e+003;6.713521e-003
3.737526e+003;7.228540e-003
3.739455e+003;7.494673e-003
3.741383e+003;7.563920e-003
3.743312e+003;6.928936e-003
3.745240e+003;6.792943e-003
3.747169e+003;7.478222e-003
3.749097e+003;7.555322e-003
3.751026e+003;7.843955e-003
3.752954e+003;8.047746e-003
3.754883e+003;7.935699e-003
3.756812e+003;8.263419e-003
3.758740e+003;8.313031e-003
3.760668e+003;7.987130e-003
3.762597e+003;7.862951e-003
3.764526e+003;7.622792e-003
3.766454e+003;7.566752e-003
3.768383e+003;7.877256e-003
3.770311e+003;7.964822e-003
3.772240e+003;7.958409e-003
3.774168e+003;7.733714e-003
3.776097e+003;7.730409e-003
3.778025e+003;7.992934e-003
3.779954e+003;7.937487e-003
3.781883e+003;8.016492e-003
3.783811e+003;8.071442e-003
3.785740e+003;7.890347e-003
3.787668e+003;7.761441e-003
3.789597e+003;7.566011e-003
3.791525e+003;7.424694e-003
3.793454e+003;7.680054e-003
3.795382e+003;8.154759e-003
3.797311e+003;8.000629e-003
3.799240e+003;7.503707e-003
3.801168e+003;7.368410e-003
3.803097e+003;7.663934e-003
3.805025e+003;7.892844e-003
3.806954e+003;7.660190e-003
3.808882e+003;7.626333e-003
3.810811e+003;7.758202e-003
3.812739e+003;7.914170e-003
3.814668e+003;8.038836e-003
3.816596e+003;8.250350e-003
3.818525e+003;8.392544e-003
3.820454e+003;8.022230e-003
3.822382e+003;7.821891e-003
3.824311e+003;8.016526e-003
3.826239e+003;8.090548e-003
3.828168e+003;8.094194e-003
3.830096e+003;8.218912e-003
3.832025e+003;8.049232e-003
3.833953e+003;7.988614e-003
3.835882e+003;7.915891e-003
3.837811e+003;7.779386e-003
3.839739e+003;8.229279e-003
3.841667e+003;8.478658e-003
3.843596e+003;8.380787e-003
3.845525e+003;8.408319e-003
3.847453e+003;8.692585e-003
3.849382e+003;8.608387e-003
3.851310e+003;8.283952e-003
3.853239e+003;7.998199e-003
3.855167e+003;7.969344e-003
3.857096e+003;8.465211e-003
3.859024e+003;8.736025e-003
3.860953e+003;8.254065e-003
3.862882e+003;8.122821e-003
3.864810e+003;7.930704e-003
3.866739e+003;7.601717e-003
3.868667e+003;7.802494e-003
3.870596e+003;8.223605e-003
3.872524e+003;8.750461e-003
3.874453e+003;8.745356e-003
3.876381e+003;8.432034e-003
3.878310e+003;8.081873e-003
3.880239e+003;8.118602e-003
3.882167e+003;8.264263e-003
3.884096e+003;8.169311e-003
3.886024e+003;8.178022e-003
3.887953e+003;8.655300e-003
3.889881e+003;8.602506e-003
3.891810e+003;8.375180e-003
3.893738e+003;8.742008e-003
3.895667e+003;9.019659e-003
3.897595e+003;8.682714e-003
3.899524e+003;8.273314e-003
3.901453e+003;8.540865e-003
3.903381e+003;8.505419e-003
3.905310e+003;8.388051e-003
3.907238e+003;8.906379e-003
3.909167e+003;8.987556e-003
3.911095e+003;8.654591e-003
3.913024e+003;8.520185e-003
3.914952e+003;8.678082e-003
3.916881e+003;8.878376e-003
3.918810e+003;8.817068e-003
3.920738e+003;8.843173e-003
3.922667e+003;9.145827e-003
3.924595e+003;9.536406e-003
3.926524e+003;9.386829e-003
3.928452e+003;9.061541e-003
3.930381e+003;9.207216e-003
3.932309e+003;9.140210e-003
3.934238e+003;9.338043e-003
3.936167e+003;9.522655e-003
3.938095e+003;9.105695e-003
3.940023e+003;8.949096e-003
3.941952e+003;8.958195e-003
3.943881e+003;8.956437e-003
3.945809e+003;8.944497e-003
3.947738e+003;9.074162e-003
3.949666e+003;9.403285e-003
3.951595e+003;9.611907e-003
3.953523e+003;9.283100e-003
3.955452e+003;9.077579e-003
3.957380e+003;9.239200e-003
3.959309e+003;9.247797e-003
3.961238e+003;8.816088e-003
3.963166e+003;8.825657e-003
3.965095e+003;9.385339e-003
3.967023e+003;9.736418e-003
3.968952e+003;1.020768e-002
3.970880e+003;1.040566e-002
3.972809e+003;1.017620e-002
3.974737e+003;9.945913e-003
3.976666e+003;9.675158e-003
3.978594e+003;9.667467e-003
3.980523e+003;9.984224e-003
3.982452e+003;1.018475e-002
3.984380e+003;1.036412e-002
3.986309e+003;1.060166e-002
3.988237e+003;1.030695e-002
3.990166e+003;1.073783e-002
3.992094e+003;1.136515e-002
3.994023e+003;1.123299e-002
3.995951e+003;1.062077e-002
3.997880e+003;1.017905e-002
3.999809e+003;1.062451e-002
4.001737e+003;0.000000e+000
