3.992094e+002;0.000000e+000
4.011380e+002;0.000000e+000
4.030665e+002;0.000000e+000
4.049951e+002;0.000000e+000
4.069236e+002;0.000000e+000
4.088522e+002;0.000000e+000
4.107807e+002;0.000000e+000
4.127093e+002;0.000000e+000
4.146378e+002;0.000000e+000
4.165664e+002;0.000000e+000
4.184949e+002;0.000000e+000
4.204235e+002;0.000000e+000
4.223520e+002;0.000000e+000
4.242806e+002;0.000000e+000
4.262091e+002;0.000000e+000
4.281377e+002;0.000000e+000
4.300662e+002;0.000000e+000
4.319948e+002;0.000000e+000
4.339233e+002;0.000000e+000
4.358519e+002;0.000000e+000
4.377804e+002;0.000000e+000
4.397090e+002;0.000000e+000
4.416375e+002;0.000000e+000
4.435660e+002;0.000000e+000
4.454946e+002;0.000000e+000
4.474232e+002;0.000000e+000
4.493517e+002;0.000000e+000
4.512802e+002;0.000000e+000
4.532088e+002;0.000000e+000
4.551373e+002;0.000000e+000
4.570659e+002;0.000000e+000
4.589944e+002;0.000000e+000
4.609230e+002;0.000000e+000
4.628515e+002;0.000000e+000
4.647801e+002;0.000000e+000
4.667086e+002;0.000000e+000
4.686372e+002;0.000000e+000
4.705657e+002;0.000000e+000
4.724943e+002;0.000000e+000
4.744228e+002;0.000000e+000
4.763513e+002;0.000000e+000
4.782799e+002;0.000000e+000
4.802085e+002;0.000000e+000
4.821370e+002;0.000000e+000
4.840656e+002;0.000000e+000
4.859941e+002;0.000000e+000
4.879226e+002;0.000000e+000
4.898512e+002;0.000000e+000
4.917798e+002;0.000000e+000
4.937083e+002;0.000000e+000
4.956368e+002;0.000000e+000
4.975654e+002;0.000000e+000
4.994939e+002;0.000000e+000
5.014225e+002;0.000000e+000
5.033510e+002;0.000000e+000
5.052796e+002;0.000000e+000
5.072081e+002;0.000000e+000
5.091367e+002;0.000000e+000
5.110652e+002;0.000000e+000
5.129938e+002;0.000000e+000
5.149223e+002;0.000000e+000
5.168509e+002;0.000000e+000
5.187794e+002;0.000000e+000
5.207079e+002;0.000000e+000
5.226365e+002;0.000000e+000
5.245651e+002;0.000000e+000
5.264936e+002;0.000000e+000
5.284222e+002;0.000000e+000
5.303507e+002;0.000000e+000
5.322792e+002;0.000000e+000
5.342078e+002;0.000000e+000
5.361364e+002;0.000000e+000
5.380649e+002;0.000000e+000
5.399935e+002;0.000000e+000
5.419220e+002;0.000000e+000
5.438505e+002;0.000000e+000
5.457791e+002;0.000000e+000
5.477076e+002;0.000000e+000
5.496362e+002;0.000000e+000
5.515648e+002;0.000000e+000
5.534933e+002;0.000000e+000
5.554218e+002;0.000000e+000
5.573504e+002;0.000000e+000
5.592789e+002;0.000000e+000
5.612075e+002;0.000000e+000
5.631360e+002;0.000000e+000
5.650646e+002;0.000000e+000
5.669931e+002;0.000000e+000
5.689217e+002;0.000000e+000
5.708502e+002;0.000000e+000
5.727787e+002;0.000000e+000
5.747073e+002;0.000000e+000
5.766359e+002;0.000000e+000
5.785644e+002;0.000000e+000
5.804930e+002;0.000000e+000
5.824215e+002;0.000000e+000
5.843500e+002;0.000000e+000
5.862786e+002;0.000000e+000
5.882072e+002;0.000000e+000
5.901357e+002;0.000000e+000
5.920643e+002;0.000000e+000
5.939928e+002;0.000000e+000
5.959213e+002;0.000000e+000
5.978499e+002;0.000000e+000
5.997784e+002;1.446591e-001
6.017070e+002;1.447856e-001
6.036355e+002;1.373428e-001
6.055641e+002;1.326920e-001
6.074926e+002;1.334079e-001
6.094211e+002;1.388025e-001
6.113497e+002;1.405440e-001
6.132783e+002;1.361596e-001
6.152068e+002;1.356339e-001
6.171354e+002;1.366020e-001
6.190639e+002;1.373320e-001
6.209924e+002;1.385866e-001
6.229210e+002;1.419615e-001
6.248495e+002;1.453684e-001
6.267781e+002;1.441578e-001
6.287067e+002;1.421894e-001
6.306352e+002;1.429641e-001
6.325637e+002;1.425652e-001
6.344923e+002;1.390679e-001
6.364208e+002;1.390767e-001
6.383494e+002;1.411332e-001
6.402780e+002;1.437554e-001
6.422065e+002;1.452926e-001
6.441350e+002;1.460449e-001
6.460636e+002;1.490413e-001
6.479921e+002;1.534507e-001
6.499207e+002;1.585007e-001
6.518492e+002;1.609615e-001
6.537778e+002;1.598783e-001
6.557063e+002;1.623868e-001
6.576349e+002;1.660613e-001
6.595634e+002;1.692001e-001
6.614919e+002;1.727232e-001
6.634205e+002;1.753296e-001
6.653491e+002;1.765610e-001
6.672776e+002;1.786916e-001
6.692062e+002;1.809015e-001
6.711347e+002;1.830915e-001
6.730632e+002;1.869157e-001
6.749918e+002;1.896149e-001
6.769203e+002;1.906607e-001
6.788489e+002;1.924906e-001
6.807775e+002;1.938334e-001
6.827060e+002;1.948105e-001
6.846345e+002;1.945136e-001
6.865631e+002;1.927119e-001
6.884916e+002;1.900678e-001
6.904202e+002;1.893253e-001
6.923488e+002;1.881230e-001
6.942773e+002;1.850315e-001
6.962058e+002;1.818206e-001
6.981344e+002;1.772687e-001
7.000629e+002;1.735784e-001
7.019915e+002;1.712579e-001
7.039200e+002;1.691415e-001
7.058486e+002;1.673628e-001
7.077771e+002;1.657086e-001
7.097057e+002;1.646654e-001
7.116342e+002;1.632918e-001
7.135627e+002;1.603810e-001
7.154913e+002;1.575730e-001
7.174199e+002;1.554275e-001
7.193484e+002;1.539026e-001
7.212770e+002;1.538004e-001
7.232055e+002;1.546621e-001
7.251340e+002;1.559695e-001
7.270626e+002;1.564251e-001
7.289911e+002;1.549319e-001
7.309197e+002;1.502825e-001
7.328483e+002;1.425763e-001
7.347768e+002;1.345727e-001
7.367053e+002;1.285381e-001
7.386339e+002;1.233990e-001
7.405624e+002;1.186789e-001
7.424910e+002;1.156971e-001
7.444196e+002;1.141438e-001
7.463481e+002;1.118738e-001
7.482766e+002;1.089798e-001
7.502052e+002;1.073750e-001
7.521337e+002;1.060690e-001
7.540623e+002;1.048697e-001
7.559908e+002;1.026324e-001
7.579194e+002;1.004315e-001
7.598479e+002;9.946027e-002
7.617765e+002;9.757569e-002
7.637050e+002;9.582094e-002
7.656335e+002;9.519780e-002
7.675621e+002;9.437414e-002
7.694907e+002;9.379691e-002
7.714192e+002;9.305882e-002
7.733478e+002;9.154775e-002
7.752763e+002;8.949748e-002
7.772048e+002;8.862315e-002
7.791334e+002;8.889890e-002
7.810620e+002;8.790496e-002
7.829905e+002;8.569854e-002
7.849191e+002;8.385196e-002
7.868476e+002;8.253673e-002
7.887761e+002;8.143627e-002
7.907047e+002;8.093468e-002
7.926332e+002;8.058084e-002
7.945618e+002;7.919185e-002
7.964903e+002;7.769224e-002
7.984189e+002;7.651895e-002
8.003474e+002;7.568880e-002
8.022759e+002;7.479820e-002
8.042045e+002;7.355729e-002
8.061331e+002;7.244768e-002
8.080616e+002;7.129197e-002
8.099902e+002;7.053765e-002
8.119187e+002;6.991364e-002
8.138472e+002;6.891238e-002
8.157758e+002;6.839960e-002
8.177043e+002;6.827678e-002
8.196329e+002;6.787630e-002
8.215615e+002;6.752682e-002
8.234900e+002;6.809302e-002
8.254185e+002;6.929252e-002
8.273471e+002;7.030448e-002
8.292756e+002;7.150459e-002
8.312042e+002;7.291886e-002
8.331328e+002;7.350133e-002
8.350613e+002;7.208391e-002
8.369898e+002;6.977316e-002
8.389184e+002;6.724005e-002
8.408469e+002;6.508899e-002
8.427755e+002;6.403445e-002
8.447040e+002;6.298225e-002
8.466326e+002;6.213439e-002
8.485611e+002;6.167903e-002
8.504897e+002;6.103829e-002
8.524182e+002;6.053118e-002
8.543467e+002;6.066470e-002
8.562753e+002;6.040668e-002
8.582039e+002;6.036849e-002
8.601324e+002;6.046719e-002
8.620610e+002;6.037884e-002
8.639895e+002;6.030201e-002
8.659180e+002;6.045702e-002
8.678466e+002;6.047283e-002
8.697751e+002;6.003835e-002
8.717037e+002;5.960537e-002
8.736323e+002;6.000920e-002
8.755608e+002;6.047755e-002
8.774893e+002;6.057822e-002
8.794179e+002;6.083249e-002
8.813464e+002;6.104878e-002
8.832750e+002;6.085673e-002
8.852036e+002;6.094140e-002
8.871321e+002;6.134290e-002
8.890606e+002;6.124583e-002
8.909892e+002;6.101678e-002
8.929177e+002;6.121783e-002
8.948463e+002;6.195310e-002
8.967748e+002;6.270033e-002
8.987034e+002;6.297611e-002
9.006319e+002;6.291877e-002
9.025605e+002;6.263117e-002
9.044890e+002;6.292935e-002
9.064175e+002;6.361547e-002
9.083461e+002;6.452689e-002
9.102747e+002;6.523124e-002
9.122032e+002;6.541722e-002
9.141318e+002;6.579843e-002
9.160603e+002;6.637528e-002
9.179888e+002;6.707545e-002
9.199174e+002;6.769651e-002
9.218459e+002;6.880572e-002
9.237745e+002;7.028651e-002
9.257031e+002;7.211582e-002
9.276316e+002;7.358210e-002
9.295601e+002;7.362425e-002
9.314887e+002;7.209884e-002
9.334172e+002;7.030642e-002
9.353458e+002;6.895199e-002
9.372744e+002;6.810632e-002
9.392029e+002;6.759205e-002
9.411314e+002;6.778949e-002
9.430600e+002;6.886318e-002
9.449885e+002;7.026540e-002
9.469171e+002;7.213437e-002
9.488456e+002;7.415323e-002
9.507742e+002;7.556446e-002
9.527027e+002;7.623203e-002
9.546313e+002;7.691056e-002
9.565598e+002;7.823826e-002
9.584883e+002;7.911070e-002
9.604169e+002;7.894349e-002
9.623455e+002;7.800836e-002
9.642740e+002;7.670955e-002
9.662026e+002;7.584498e-002
9.681311e+002;7.573120e-002
9.700596e+002;7.612218e-002
9.719882e+002;7.638955e-002
9.739167e+002;7.630873e-002
9.758453e+002;7.565492e-002
9.777739e+002;7.429019e-002
9.797024e+002;7.301474e-002
9.816309e+002;7.180732e-002
9.835595e+002;7.089729e-002
9.854880e+002;7.036649e-002
9.874166e+002;6.952465e-002
9.893452e+002;6.869265e-002
9.912737e+002;6.780646e-002
9.932022e+002;6.686615e-002
9.951307e+002;6.635211e-002
9.970593e+002;6.637292e-002
9.989879e+002;6.629811e-002
1.000916e+003;6.605277e-002
1.002845e+003;6.617512e-002
1.004773e+003;6.618881e-002
1.006702e+003;6.574935e-002
1.008631e+003;6.573351e-002
1.010559e+003;6.579276e-002
1.012488e+003;6.531385e-002
1.014416e+003;6.522374e-002
1.016345e+003;6.543197e-002
1.018273e+003;6.606925e-002
1.020202e+003;6.710252e-002
1.022130e+003;6.818129e-002
1.024059e+003;6.944800e-002
1.025988e+003;7.060988e-002
1.027916e+003;7.115057e-002
1.029845e+003;7.113472e-002
1.031773e+003;7.054404e-002
1.033702e+003;6.987352e-002
1.035630e+003;6.893129e-002
1.037559e+003;6.768715e-002
1.039487e+003;6.699228e-002
1.041416e+003;6.648791e-002
1.043344e+003;6.585376e-002
1.045273e+003;6.552833e-002
1.047202e+003;6.563465e-002
1.049130e+003;6.639701e-002
1.051059e+003;6.710152e-002
1.052987e+003;6.767731e-002
1.054916e+003;6.887844e-002
1.056844e+003;7.051037e-002
1.058773e+003;7.205609e-002
1.060701e+003;7.308310e-002
1.062630e+003;7.416738e-002
1.064558e+003;7.552306e-002
1.066487e+003;7.662281e-002
1.068416e+003;7.746077e-002
1.070344e+003;7.798191e-002
1.072273e+003;7.839206e-002
1.074201e+003;7.839429e-002
1.076130e+003;7.803358e-002
1.078058e+003;7.749496e-002
1.079987e+003;7.694042e-002
1.081915e+003;7.635558e-002
1.083844e+003;7.578166e-002
1.085773e+003;7.523439e-002
1.087701e+003;7.489838e-002
1.089630e+003;7.490614e-002
1.091558e+003;7.495642e-002
1.093487e+003;7.524747e-002
1.095415e+003;7.543739e-002
1.097344e+003;7.558224e-002
1.099272e+003;7.646762e-002
1.101201e+003;7.778545e-002
1.103129e+003;7.939874e-002
1.105058e+003;8.140645e-002
1.106987e+003;8.350629e-002
1.108915e+003;8.483517e-002
1.110844e+003;8.543732e-002
1.112772e+003;8.628730e-002
1.114701e+003;8.713336e-002
1.116629e+003;8.742567e-002
1.118558e+003;8.749850e-002
1.120486e+003;8.746146e-002
1.122415e+003;8.622260e-002
1.124344e+003;8.416282e-002
1.126272e+003;8.148056e-002
1.128201e+003;7.784752e-002
1.130129e+003;7.510348e-002
1.132058e+003;7.372347e-002
1.133986e+003;7.269866e-002
1.135915e+003;7.244768e-002
1.137843e+003;7.324231e-002
1.139772e+003;7.390227e-002
1.141700e+003;7.487430e-002
1.143629e+003;7.685091e-002
1.145557e+003;7.944823e-002
1.147486e+003;8.165791e-002
1.149415e+003;8.396189e-002
1.151343e+003;8.642336e-002
1.153272e+003;8.910144e-002
1.155200e+003;9.220054e-002
1.157129e+003;9.616179e-002
1.159057e+003;1.009424e-001
1.160986e+003;1.069538e-001
1.162914e+003;1.144153e-001
1.164843e+003;1.213336e-001
1.166771e+003;1.265737e-001
1.168700e+003;1.289990e-001
1.170629e+003;1.280370e-001
1.172557e+003;1.233451e-001
1.174486e+003;1.169066e-001
1.176414e+003;1.108086e-001
1.178343e+003;1.060510e-001
1.180271e+003;1.028900e-001
1.182200e+003;1.012512e-001
1.184128e+003;1.016251e-001
1.186057e+003;1.035527e-001
1.187986e+003;1.063642e-001
1.189914e+003;1.098289e-001
1.191843e+003;1.142211e-001
1.193771e+003;1.194275e-001
1.195700e+003;1.245013e-001
1.197628e+003;1.289408e-001
1.199557e+003;1.311581e-001
1.201485e+003;1.291139e-001
1.203414e+003;1.247858e-001
1.205343e+003;1.213509e-001
1.207271e+003;1.200743e-001
1.209200e+003;1.199915e-001
1.211128e+003;1.201636e-001
1.213057e+003;1.196375e-001
1.214985e+003;1.176806e-001
1.216914e+003;1.142475e-001
1.218842e+003;1.103082e-001
1.220771e+003;1.077057e-001
1.222699e+003;1.072865e-001
1.224628e+003;1.091772e-001
1.226557e+003;1.127186e-001
1.228485e+003;1.172751e-001
1.230414e+003;1.223052e-001
1.232342e+003;1.270774e-001
1.234271e+003;1.306983e-001
1.236199e+003;1.325223e-001
1.238128e+003;1.329081e-001
1.240056e+003;1.325488e-001
1.241985e+003;1.321258e-001
1.243913e+003;1.317587e-001
1.245842e+003;1.318939e-001
1.247771e+003;1.331274e-001
1.249699e+003;1.354258e-001
1.251628e+003;1.382412e-001
1.253556e+003;1.416529e-001
1.255485e+003;1.452518e-001
1.257413e+003;1.481441e-001
1.259342e+003;1.501493e-001
1.261270e+003;1.513424e-001
1.263199e+003;1.507925e-001
1.265127e+003;1.474389e-001
1.267056e+003;1.414249e-001
1.268985e+003;1.345666e-001
1.270913e+003;1.295188e-001
1.272842e+003;1.266486e-001
1.274770e+003;1.252525e-001
1.276699e+003;1.250023e-001
1.278627e+003;1.247687e-001
1.280556e+003;1.234544e-001
1.282484e+003;1.213544e-001
1.284413e+003;1.193758e-001
1.286342e+003;1.175960e-001
1.288270e+003;1.165618e-001
1.290199e+003;1.163792e-001
1.292127e+003;1.161661e-001
1.294056e+003;1.156474e-001
1.295984e+003;1.150170e-001
1.297913e+003;1.145806e-001
1.299841e+003;1.142902e-001
1.301770e+003;1.140269e-001
1.303698e+003;1.133724e-001
1.305627e+003;1.123825e-001
1.307556e+003;1.110992e-001
1.309484e+003;1.098353e-001
1.311413e+003;1.086697e-001
1.313341e+003;1.074773e-001
1.315270e+003;1.066797e-001
1.317198e+003;1.059419e-001
1.319127e+003;1.049196e-001
1.321055e+003;1.041227e-001
1.322984e+003;1.035244e-001
1.324912e+003;1.030703e-001
1.326841e+003;1.031819e-001
1.328770e+003;1.037512e-001
1.330698e+003;1.046280e-001
1.332627e+003;1.050142e-001
1.334555e+003;1.052822e-001
1.336484e+003;1.057307e-001
1.338412e+003;1.062662e-001
1.340341e+003;1.069366e-001
1.342269e+003;1.079311e-001
1.344198e+003;1.091912e-001
1.346126e+003;1.103268e-001
1.348055e+003;1.113795e-001
1.349984e+003;1.125911e-001
1.351912e+003;1.139313e-001
1.353841e+003;1.152632e-001
1.355769e+003;1.168049e-001
1.357698e+003;1.187103e-001
1.359626e+003;1.209103e-001
1.361555e+003;1.230961e-001
1.363483e+003;1.253326e-001
1.365412e+003;1.275955e-001
1.367341e+003;1.293589e-001
1.369269e+003;1.304390e-001
1.371198e+003;1.308080e-001
1.373126e+003;1.303230e-001
1.375055e+003;1.286344e-001
1.376983e+003;1.260648e-001
1.378912e+003;1.230997e-001
1.380840e+003;1.197362e-001
1.382769e+003;1.162960e-001
1.384698e+003;1.128150e-001
1.386626e+003;1.092180e-001
1.388555e+003;1.068300e-001
1.390483e+003;1.051705e-001
1.392412e+003;1.034422e-001
1.394340e+003;1.020772e-001
1.396269e+003;1.016815e-001
1.398197e+003;1.022685e-001
1.400126e+003;1.040996e-001
1.402054e+003;1.067238e-001
1.403983e+003;1.101912e-001
1.405911e+003;1.150852e-001
1.407840e+003;1.212486e-001
1.409769e+003;1.285103e-001
1.411697e+003;1.360019e-001
1.413626e+003;1.424213e-001
1.415554e+003;1.464204e-001
1.417483e+003;1.465962e-001
1.419411e+003;1.439700e-001
1.421340e+003;1.404167e-001
1.423268e+003;1.364360e-001
1.425197e+003;1.334153e-001
1.427125e+003;1.327159e-001
1.429054e+003;1.342452e-001
1.430983e+003;1.370888e-001
1.432911e+003;1.397578e-001
1.434840e+003;1.406613e-001
1.436768e+003;1.401767e-001
1.438697e+003;1.398636e-001
1.440625e+003;1.392733e-001
1.442554e+003;1.385531e-001
1.444482e+003;1.380059e-001
1.446411e+003;1.377802e-001
1.448340e+003;1.384819e-001
1.450268e+003;1.404863e-001
1.452197e+003;1.428390e-001
1.454125e+003;1.449616e-001
1.456054e+003;1.474027e-001
1.457982e+003;1.532498e-001
1.459911e+003;1.612316e-001
1.461839e+003;1.665226e-001
1.463768e+003;1.654239e-001
1.465697e+003;1.582895e-001
1.467625e+003;1.494915e-001
1.469554e+003;1.427283e-001
1.471482e+003;1.393258e-001
1.473411e+003;1.395215e-001
1.475339e+003;1.411289e-001
1.477268e+003;1.409876e-001
1.479196e+003;1.381384e-001
1.481125e+003;1.324340e-001
1.483053e+003;1.250013e-001
1.484982e+003;1.179380e-001
1.486911e+003;1.137487e-001
1.488839e+003;1.125238e-001
1.490768e+003;1.133120e-001
1.492696e+003;1.154893e-001
1.494625e+003;1.180597e-001
1.496553e+003;1.215844e-001
1.498482e+003;1.264779e-001
1.500410e+003;1.319118e-001
1.502339e+003;1.372391e-001
1.504267e+003;1.418127e-001
1.506196e+003;1.470989e-001
1.508125e+003;1.548250e-001
1.510053e+003;1.630682e-001
1.511982e+003;1.706620e-001
1.513910e+003;1.785226e-001
1.515839e+003;1.868335e-001
1.517767e+003;1.958132e-001
1.519696e+003;2.049771e-001
1.521624e+003;2.149195e-001
1.523553e+003;2.256719e-001
1.525481e+003;2.364264e-001
1.527410e+003;2.473897e-001
1.529339e+003;2.579104e-001
1.531267e+003;2.676056e-001
1.533196e+003;2.757030e-001
1.535124e+003;2.822150e-001
1.537053e+003;2.856521e-001
1.538981e+003;2.849667e-001
1.540910e+003;2.819907e-001
1.542838e+003;2.763678e-001
1.544767e+003;2.676247e-001
1.546695e+003;2.568682e-001
1.548624e+003;2.450192e-001
1.550553e+003;2.331693e-001
1.552481e+003;2.217350e-001
1.554410e+003;2.107697e-001
1.556338e+003;2.006738e-001
1.558267e+003;1.907669e-001
1.560195e+003;1.828458e-001
1.562124e+003;1.766134e-001
1.564052e+003;1.692824e-001
1.565981e+003;1.612251e-001
1.567910e+003;1.528354e-001
1.569838e+003;1.446006e-001
1.571767e+003;1.374660e-001
1.573695e+003;1.303241e-001
1.575624e+003;1.230461e-001
1.577552e+003;1.177240e-001
1.579481e+003;1.137457e-001
1.581409e+003;1.103248e-001
1.583338e+003;1.077191e-001
1.585266e+003;1.058713e-001
1.587195e+003;1.050218e-001
1.589124e+003;1.050296e-001
1.591052e+003;1.061498e-001
1.592981e+003;1.083526e-001
1.594909e+003;1.110423e-001
1.596838e+003;1.143001e-001
1.598766e+003;1.189348e-001
1.600695e+003;1.244913e-001
1.602623e+003;1.311383e-001
1.604552e+003;1.390378e-001
1.606480e+003;1.474513e-001
1.608409e+003;1.566608e-001
1.610338e+003;1.666850e-001
1.612266e+003;1.769393e-001
1.614195e+003;1.881243e-001
1.616123e+003;2.015024e-001
1.618052e+003;2.182122e-001
1.619980e+003;2.362368e-001
1.621909e+003;2.547131e-001
1.623837e+003;2.740884e-001
1.625766e+003;2.942351e-001
1.627694e+003;3.149813e-001
1.629623e+003;3.365276e-001
1.631552e+003;3.575507e-001
1.633480e+003;3.739629e-001
1.635409e+003;3.822885e-001
1.637337e+003;3.807985e-001
1.639266e+003;3.677593e-001
1.641194e+003;3.457855e-001
1.643123e+003;3.200699e-001
1.645051e+003;2.932417e-001
1.646980e+003;2.679283e-001
1.648909e+003;2.461174e-001
1.650837e+003;2.256152e-001
1.652766e+003;2.069621e-001
1.654694e+003;1.941407e-001
1.656623e+003;1.841786e-001
1.658551e+003;1.740094e-001
1.660480e+003;1.638406e-001
1.662408e+003;1.534271e-001
1.664337e+003;1.436312e-001
1.666266e+003;1.340746e-001
1.668194e+003;1.242563e-001
1.670123e+003;1.153786e-001
1.672051e+003;1.079930e-001
1.673980e+003;1.005186e-001
1.675908e+003;9.350722e-002
1.677837e+003;8.746137e-002
1.679765e+003;8.069462e-002
1.681694e+003;7.341900e-002
1.683622e+003;6.603414e-002
1.685551e+003;6.105290e-002
1.687479e+003;5.805504e-002
1.689408e+003;5.484260e-002
1.691337e+003;5.199090e-002
1.693265e+003;4.945779e-002
1.695194e+003;4.691851e-002
1.697122e+003;4.577582e-002
1.699051e+003;4.462130e-002
1.700979e+003;4.410423e-002
1.702908e+003;4.485696e-002
1.704836e+003;4.467135e-002
1.706765e+003;4.459953e-002
1.708693e+003;4.460823e-002
1.710622e+003;4.477732e-002
1.712551e+003;4.460236e-002
1.714479e+003;4.403727e-002
1.716408e+003;4.335025e-002
1.718336e+003;4.362013e-002
1.720265e+003;4.464796e-002
1.722193e+003;4.518259e-002
1.724122e+003;4.526216e-002
1.726050e+003;4.556418e-002
1.727979e+003;4.562608e-002
1.729908e+003;4.532781e-002
1.731836e+003;4.453553e-002
1.733765e+003;4.365959e-002
1.735693e+003;4.407687e-002
1.737622e+003;4.427371e-002
1.739550e+003;4.398773e-002
1.741479e+003;4.390997e-002
1.743407e+003;4.323753e-002
1.745336e+003;4.234834e-002
1.747265e+003;4.117414e-002
1.749193e+003;3.982937e-002
1.751122e+003;3.896434e-002
1.753050e+003;3.866256e-002
1.754979e+003;3.789543e-002
1.756907e+003;3.725877e-002
1.758836e+003;3.685253e-002
1.760764e+003;3.588330e-002
1.762693e+003;3.520567e-002
1.764621e+003;3.496758e-002
1.766550e+003;3.423125e-002
1.768479e+003;3.364182e-002
1.770407e+003;3.310364e-002
1.772336e+003;3.238746e-002
1.774264e+003;3.230818e-002
1.776193e+003;3.235051e-002
1.778121e+003;3.210703e-002
1.780050e+003;3.181187e-002
1.781978e+003;3.154067e-002
1.783907e+003;3.121293e-002
1.785835e+003;3.102737e-002
1.787764e+003;3.105965e-002
1.789693e+003;3.065560e-002
1.791621e+003;2.985189e-002
1.793550e+003;2.990244e-002
1.795478e+003;3.012094e-002
1.797407e+003;2.994003e-002
1.799335e+003;2.964446e-002
1.801264e+003;2.921716e-002
1.803192e+003;2.917822e-002
1.805121e+003;2.943822e-002
1.807049e+003;2.964496e-002
1.808978e+003;2.928993e-002
1.810907e+003;2.880158e-002
1.812835e+003;2.884914e-002
1.814764e+003;2.897461e-002
1.816692e+003;2.875899e-002
1.818621e+003;2.872596e-002
1.820549e+003;2.878300e-002
1.822478e+003;2.870865e-002
1.824406e+003;2.848485e-002
1.826335e+003;2.827404e-002
1.828264e+003;2.800395e-002
1.830192e+003;2.784682e-002
1.832121e+003;2.820699e-002
1.834049e+003;2.844908e-002
1.835978e+003;2.849904e-002
1.837906e+003;2.846210e-002
1.839835e+003;2.828818e-002
1.841763e+003;2.782933e-002
1.843692e+003;2.727643e-002
1.845620e+003;2.748161e-002
1.847549e+003;2.763691e-002
1.849478e+003;2.746502e-002
1.851406e+003;2.749368e-002
1.853335e+003;2.755454e-002
1.855263e+003;2.731972e-002
1.857192e+003;2.725773e-002
1.859120e+003;2.726528e-002
1.861049e+003;2.708478e-002
1.862977e+003;2.710729e-002
1.864906e+003;2.701792e-002
1.866834e+003;2.672578e-002
1.868763e+003;2.665094e-002
1.870692e+003;2.678745e-002
1.872620e+003;2.698499e-002
1.874549e+003;2.709427e-002
1.876477e+003;2.728324e-002
1.878406e+003;2.728966e-002
1.880334e+003;2.713719e-002
1.882263e+003;2.712478e-002
1.884191e+003;2.702685e-002
1.886120e+003;2.699659e-002
1.888048e+003;2.709335e-002
1.889977e+003;2.722245e-002
1.891906e+003;2.741800e-002
1.893834e+003;2.734569e-002
1.895763e+003;2.724923e-002
1.897691e+003;2.735515e-002
1.899620e+003;2.739065e-002
1.901548e+003;2.734509e-002
1.903477e+003;2.740974e-002
1.905405e+003;2.740113e-002
1.907334e+003;2.732967e-002
1.909262e+003;2.723773e-002
1.911191e+003;2.715388e-002
1.913120e+003;2.714538e-002
1.915048e+003;2.699233e-002
1.916977e+003;2.669231e-002
1.918905e+003;2.677061e-002
1.920834e+003;2.690683e-002
1.922762e+003;2.698662e-002
1.924691e+003;2.705456e-002
1.926619e+003;2.704360e-002
1.928548e+003;2.729128e-002
1.930477e+003;2.728680e-002
1.932405e+003;2.710037e-002
1.934334e+003;2.707957e-002
1.936262e+003;2.701881e-002
1.938191e+003;2.685234e-002
1.940119e+003;2.660737e-002
1.942048e+003;2.647222e-002
1.943976e+003;2.663787e-002
1.945905e+003;2.691311e-002
1.947833e+003;2.711624e-002
1.949762e+003;2.712175e-002
1.951691e+003;2.690599e-002
1.953619e+003;2.693793e-002
1.955548e+003;2.700537e-002
1.957476e+003;2.710492e-002
1.959405e+003;2.708327e-002
1.961333e+003;2.721652e-002
1.963262e+003;2.741910e-002
1.965190e+003;2.748337e-002
1.967119e+003;2.742968e-002
1.969047e+003;2.748319e-002
1.970976e+003;2.761611e-002
1.972905e+003;2.761470e-002
1.974833e+003;2.777246e-002
1.976762e+003;2.796999e-002
1.978690e+003;2.790486e-002
1.980619e+003;2.784445e-002
1.982547e+003;2.797069e-002
1.984476e+003;2.789525e-002
1.986404e+003;2.766654e-002
1.988333e+003;2.748605e-002
1.990261e+003;2.745612e-002
1.992190e+003;2.752474e-002
1.994119e+003;2.764069e-002
1.996047e+003;2.781640e-002
1.997976e+003;2.782626e-002
1.999904e+003;2.767056e-002
2.001833e+003;2.767102e-002
2.003761e+003;2.794366e-002
2.005690e+003;2.821385e-002
2.007618e+003;2.816909e-002
2.009547e+003;2.797175e-002
2.011476e+003;2.787254e-002
2.013404e+003;2.817422e-002
2.015333e+003;2.854497e-002
2.017261e+003;2.863337e-002
2.019190e+003;2.844749e-002
2.021118e+003;2.832723e-002
2.023047e+003;2.846430e-002
2.024975e+003;2.852423e-002
2.026904e+003;2.842467e-002
2.028833e+003;2.865075e-002
2.030761e+003;2.888632e-002
2.032690e+003;2.896948e-002
2.034618e+003;2.895184e-002
2.036547e+003;2.888164e-002
2.038475e+003;2.887580e-002
2.040404e+003;2.896661e-002
2.042332e+003;2.920370e-002
2.044261e+003;2.939291e-002
2.046189e+003;2.929677e-002
2.048118e+003;2.931389e-002
2.050047e+003;2.947074e-002
2.051975e+003;2.949517e-002
2.053904e+003;2.941716e-002
2.055832e+003;2.949659e-002
2.057761e+003;2.972883e-002
2.059689e+003;2.976129e-002
2.061618e+003;2.970793e-002
2.063546e+003;2.973745e-002
2.065475e+003;2.991483e-002
2.067404e+003;2.979873e-002
2.069332e+003;2.955589e-002
2.071260e+003;2.968792e-002
2.073189e+003;2.989151e-002
2.075118e+003;2.983600e-002
2.077046e+003;2.977045e-002
2.078975e+003;2.959650e-002
2.080903e+003;2.937958e-002
2.082832e+003;2.933456e-002
2.084760e+003;2.944578e-002
2.086689e+003;2.938064e-002
2.088617e+003;2.918226e-002
2.090546e+003;2.913056e-002
2.092475e+003;2.912659e-002
2.094403e+003;2.894688e-002
2.096332e+003;2.881313e-002
2.098260e+003;2.904539e-002
2.100189e+003;2.912305e-002
2.102117e+003;2.917652e-002
2.104046e+003;2.938568e-002
2.105974e+003;2.952500e-002
2.107903e+003;2.940582e-002
2.109832e+003;2.915391e-002
2.111760e+003;2.928167e-002
2.113688e+003;2.945847e-002
2.115617e+003;2.959079e-002
2.117546e+003;2.962633e-002
2.119474e+003;2.961903e-002
2.121403e+003;2.975040e-002
2.123331e+003;2.999229e-002
2.125260e+003;3.014011e-002
2.127188e+003;3.016217e-002
2.129117e+003;3.017765e-002
2.131045e+003;3.029037e-002
2.132974e+003;3.038470e-002
2.134903e+003;3.018089e-002
2.136831e+003;2.992920e-002
2.138760e+003;2.983820e-002
2.140688e+003;3.007541e-002
2.142617e+003;3.043485e-002
2.144545e+003;3.041228e-002
2.146474e+003;3.017378e-002
2.148402e+003;3.021228e-002
2.150331e+003;3.022255e-002
2.152260e+003;3.028852e-002
2.154188e+003;3.016174e-002
2.156117e+003;2.992491e-002
2.158045e+003;3.016998e-002
2.159974e+003;3.055175e-002
2.161902e+003;3.079711e-002
2.163831e+003;3.093137e-002
2.165759e+003;3.091795e-002
2.167688e+003;3.077947e-002
2.169616e+003;3.068743e-002
2.171545e+003;3.080461e-002
2.173474e+003;3.073949e-002
2.175402e+003;3.060917e-002
2.177331e+003;3.067765e-002
2.179259e+003;3.086758e-002
2.181188e+003;3.097559e-002
2.183116e+003;3.098876e-002
2.185045e+003;3.097833e-002
2.186973e+003;3.113094e-002
2.188902e+003;3.121208e-002
2.190831e+003;3.132029e-002
2.192759e+003;3.137631e-002
2.194688e+003;3.117519e-002
2.196616e+003;3.095873e-002
2.198545e+003;3.115917e-002
2.200473e+003;3.129219e-002
2.202402e+003;3.123607e-002
2.204330e+003;3.119121e-002
2.206259e+003;3.117256e-002
2.208188e+003;3.113194e-002
2.210116e+003;3.088177e-002
2.212044e+003;3.077623e-002
2.213973e+003;3.079529e-002
2.215902e+003;3.050124e-002
2.217830e+003;3.028486e-002
2.219759e+003;3.050582e-002
2.221687e+003;3.070300e-002
2.223616e+003;3.057539e-002
2.225544e+003;3.034132e-002
2.227473e+003;3.024187e-002
2.229401e+003;2.988263e-002
2.231330e+003;2.984135e-002
2.233259e+003;2.993517e-002
2.235187e+003;2.967266e-002
2.237116e+003;2.952397e-002
2.239044e+003;2.973582e-002
2.240973e+003;2.988455e-002
2.242901e+003;2.973592e-002
2.244830e+003;2.964521e-002
2.246758e+003;2.961924e-002
2.248687e+003;2.967869e-002
2.250615e+003;2.987507e-002
2.252544e+003;3.012083e-002
2.254473e+003;3.030515e-002
2.256401e+003;3.046644e-002
2.258330e+003;3.045251e-002
2.260258e+003;3.015013e-002
2.262187e+003;2.997535e-002
2.264115e+003;3.022749e-002
2.266044e+003;3.032739e-002
2.267972e+003;3.037127e-002
2.269901e+003;3.055296e-002
2.271830e+003;3.051905e-002
2.273758e+003;3.038243e-002
2.275687e+003;3.047355e-002
2.277615e+003;3.072214e-002
2.279544e+003;3.067164e-002
2.281472e+003;3.072740e-002
2.283401e+003;3.088686e-002
2.285329e+003;3.092279e-002
2.287258e+003;3.104944e-002
2.289187e+003;3.114048e-002
2.291115e+003;3.083680e-002
2.293043e+003;3.076524e-002
2.294972e+003;3.091528e-002
2.296901e+003;3.085669e-002
2.298829e+003;3.069809e-002
2.300758e+003;3.096328e-002
2.302686e+003;3.129169e-002
2.304615e+003;3.131466e-002
2.306543e+003;3.130041e-002
2.308472e+003;3.137385e-002
2.310400e+003;3.127047e-002
2.312329e+003;3.130822e-002
2.314258e+003;3.174934e-002
2.316186e+003;3.182306e-002
2.318115e+003;3.143722e-002
2.320043e+003;3.138429e-002
2.321972e+003;3.144370e-002
2.323900e+003;3.124679e-002
2.325829e+003;3.114753e-002
2.327757e+003;3.101684e-002
2.329686e+003;3.085609e-002
2.331615e+003;3.105150e-002
2.333543e+003;3.125455e-002
2.335472e+003;3.124989e-002
2.337400e+003;3.129735e-002
2.339329e+003;3.115323e-002
2.341257e+003;3.105296e-002
2.343186e+003;3.114031e-002
2.345114e+003;3.118107e-002
2.347043e+003;3.122938e-002
2.348971e+003;3.111101e-002
2.350900e+003;3.102595e-002
2.352829e+003;3.104826e-002
2.354757e+003;3.100353e-002
2.356686e+003;3.090063e-002
2.358614e+003;3.095723e-002
2.360543e+003;3.116441e-002
2.362471e+003;3.133151e-002
2.364400e+003;3.131139e-002
2.366328e+003;3.139608e-002
2.368257e+003;3.133824e-002
2.370186e+003;3.128966e-002
2.372114e+003;3.159352e-002
2.374042e+003;3.189905e-002
2.375971e+003;3.198795e-002
2.377900e+003;3.195318e-002
2.379828e+003;3.193617e-002
2.381757e+003;3.209889e-002
2.383685e+003;3.209122e-002
2.385614e+003;3.201574e-002
2.387542e+003;3.188692e-002
2.389471e+003;3.186235e-002
2.391399e+003;3.200500e-002
2.393328e+003;3.225065e-002
2.395257e+003;3.235312e-002
2.397185e+003;3.239331e-002
2.399114e+003;3.241599e-002
2.401042e+003;3.223005e-002
2.402971e+003;3.215044e-002
2.404899e+003;3.214038e-002
2.406828e+003;3.205166e-002
2.408756e+003;3.217467e-002
2.410685e+003;3.219983e-002
2.412614e+003;3.196466e-002
2.414542e+003;3.214481e-002
2.416471e+003;3.253721e-002
2.418399e+003;3.270880e-002
2.420328e+003;3.263836e-002
2.422256e+003;3.263139e-002
2.424185e+003;3.269123e-002
2.426113e+003;3.246769e-002
2.428042e+003;3.231985e-002
2.429970e+003;3.250843e-002
2.431899e+003;3.282743e-002
2.433828e+003;3.289851e-002
2.435756e+003;3.306735e-002
2.437685e+003;3.326019e-002
2.439613e+003;3.329704e-002
2.441542e+003;3.345966e-002
2.443470e+003;3.365339e-002
2.445399e+003;3.363957e-002
2.447327e+003;3.365922e-002
2.449256e+003;3.395901e-002
2.451185e+003;3.419612e-002
2.453113e+003;3.420974e-002
2.455042e+003;3.409589e-002
2.456970e+003;3.404053e-002
2.458899e+003;3.415253e-002
2.460827e+003;3.444135e-002
2.462756e+003;3.457897e-002
2.464684e+003;3.455381e-002
2.466613e+003;3.461607e-002
2.468542e+003;3.468138e-002
2.470470e+003;3.487673e-002
2.472398e+003;3.496363e-002
2.474327e+003;3.498158e-002
2.476256e+003;3.514836e-002
2.478184e+003;3.529202e-002
2.480113e+003;3.537519e-002
2.482041e+003;3.539917e-002
2.483970e+003;3.522360e-002
2.485898e+003;3.524225e-002
2.487827e+003;3.515810e-002
2.489755e+003;3.504846e-002
2.491684e+003;3.501865e-002
2.493613e+003;3.510123e-002
2.495541e+003;3.511955e-002
2.497470e+003;3.503890e-002
2.499398e+003;3.507953e-002
2.501327e+003;3.524836e-002
2.503255e+003;3.523650e-002
2.505184e+003;3.516873e-002
2.507112e+003;3.527053e-002
2.509041e+003;3.570318e-002
2.510969e+003;3.601867e-002
2.512898e+003;3.605003e-002
2.514827e+003;3.609705e-002
2.516755e+003;3.616744e-002
2.518684e+003;3.615027e-002
2.520612e+003;3.621873e-002
2.522541e+003;3.647563e-002
2.524469e+003;3.658224e-002
2.526398e+003;3.674762e-002
2.528326e+003;3.729239e-002
2.530255e+003;3.773204e-002
2.532184e+003;3.777003e-002
2.534112e+003;3.770310e-002
2.536041e+003;3.790860e-002
2.537969e+003;3.820673e-002
2.539898e+003;3.822001e-002
2.541826e+003;3.813890e-002
2.543755e+003;3.819772e-002
2.545683e+003;3.829462e-002
2.547612e+003;3.825960e-002
2.549541e+003;3.830389e-002
2.551469e+003;3.833103e-002
2.553397e+003;3.838615e-002
2.555326e+003;3.857369e-002
2.557255e+003;3.855139e-002
2.559183e+003;3.840038e-002
2.561112e+003;3.835745e-002
2.563040e+003;3.847897e-002
2.564969e+003;3.861831e-002
2.566897e+003;3.874903e-002
2.568826e+003;3.887243e-002
2.570754e+003;3.888341e-002
2.572683e+003;3.916072e-002
2.574612e+003;3.934043e-002
2.576540e+003;3.929860e-002
2.578469e+003;3.943900e-002
2.580397e+003;3.971651e-002
2.582326e+003;3.991309e-002
2.584254e+003;4.023725e-002
2.586183e+003;4.028952e-002
2.588111e+003;4.005161e-002
2.590040e+003;4.006182e-002
2.591969e+003;4.012897e-002
2.593897e+003;4.027328e-002
2.595826e+003;4.050702e-002
2.597754e+003;4.058512e-002
2.599683e+003;4.062037e-002
2.601611e+003;4.082223e-002
2.603540e+003;4.098945e-002
2.605468e+003;4.095300e-002
2.607397e+003;4.084837e-002
2.609325e+003;4.095333e-002
2.611254e+003;4.088717e-002
2.613183e+003;4.071687e-002
2.615111e+003;4.088463e-002
2.617040e+003;4.104043e-002
2.618968e+003;4.107113e-002
2.620897e+003;4.125043e-002
2.622825e+003;4.141745e-002
2.624754e+003;4.157147e-002
2.626682e+003;4.167533e-002
2.628611e+003;4.157705e-002
2.630540e+003;4.161607e-002
2.632468e+003;4.183875e-002
2.634396e+003;4.204980e-002
2.636325e+003;4.220679e-002
2.638254e+003;4.240971e-002
2.640182e+003;4.247230e-002
2.642111e+003;4.228161e-002
2.644039e+003;4.232628e-002
2.645968e+003;4.242287e-002
2.647896e+003;4.253990e-002
2.649825e+003;4.278298e-002
2.651753e+003;4.287192e-002
2.653682e+003;4.284921e-002
2.655611e+003;4.281835e-002
2.657539e+003;4.299284e-002
2.659468e+003;4.309880e-002
2.661396e+003;4.325873e-002
2.663325e+003;4.317597e-002
2.665253e+003;4.309141e-002
2.667182e+003;4.335310e-002
2.669110e+003;4.369904e-002
2.671039e+003;4.380704e-002
2.672968e+003;4.352804e-002
2.674896e+003;4.348259e-002
2.676825e+003;4.400779e-002
2.678753e+003;4.435836e-002
2.680682e+003;4.417653e-002
2.682610e+003;4.404721e-002
2.684539e+003;4.399356e-002
2.686467e+003;4.429092e-002
2.688396e+003;4.466842e-002
2.690324e+003;4.494110e-002
2.692253e+003;4.534109e-002
2.694182e+003;4.551031e-002
2.696110e+003;4.544666e-002
2.698039e+003;4.562037e-002
2.699967e+003;4.600758e-002
2.701896e+003;4.620901e-002
2.703824e+003;4.632969e-002
2.705753e+003;4.659397e-002
2.707681e+003;4.667697e-002
2.709610e+003;4.671155e-002
2.711539e+003;4.693014e-002
2.713467e+003;4.712310e-002
2.715396e+003;4.735476e-002
2.717324e+003;4.766530e-002
2.719253e+003;4.785533e-002
2.721181e+003;4.803109e-002
2.723110e+003;4.855586e-002
2.725038e+003;4.900481e-002
2.726967e+003;4.929838e-002
2.728896e+003;4.971499e-002
2.730824e+003;5.006124e-002
2.732752e+003;5.054678e-002
2.734681e+003;5.101717e-002
2.736610e+003;5.118128e-002
2.738538e+003;5.114001e-002
2.740467e+003;5.130417e-002
2.742395e+003;5.154075e-002
2.744324e+003;5.176672e-002
2.746252e+003;5.177613e-002
2.748181e+003;5.160366e-002
2.750109e+003;5.158795e-002
2.752038e+003;5.180375e-002
2.753967e+003;5.217809e-002
2.755895e+003;5.242999e-002
2.757824e+003;5.250193e-002
2.759752e+003;5.244087e-002
2.761681e+003;5.239070e-002
2.763609e+003;5.252268e-002
2.765538e+003;5.295292e-002
2.767466e+003;5.313416e-002
2.769395e+003;5.309406e-002
2.771323e+003;5.327588e-002
2.773252e+003;5.355017e-002
2.775181e+003;5.398825e-002
2.777109e+003;5.453350e-002
2.779038e+003;5.483842e-002
2.780966e+003;5.486688e-002
2.782895e+003;5.474246e-002
2.784823e+003;5.523996e-002
2.786752e+003;5.575298e-002
2.788680e+003;5.592823e-002
2.790609e+003;5.627940e-002
2.792538e+003;5.651566e-002
2.794466e+003;5.668012e-002
2.796395e+003;5.698777e-002
2.798323e+003;5.741300e-002
2.800252e+003;5.772885e-002
2.802180e+003;5.802149e-002
2.804109e+003;5.833338e-002
2.806037e+003;5.871646e-002
2.807966e+003;5.941157e-002
2.809895e+003;6.005878e-002
2.811823e+003;6.067407e-002
2.813751e+003;6.135652e-002
2.815680e+003;6.198512e-002
2.817609e+003;6.266677e-002
2.819537e+003;6.328239e-002
2.821466e+003;6.383146e-002
2.823394e+003;6.430644e-002
2.825323e+003;6.475498e-002
2.827251e+003;6.539723e-002
2.829180e+003;6.607380e-002
2.831108e+003;6.711087e-002
2.833037e+003;6.844168e-002
2.834966e+003;6.972838e-002
2.836894e+003;7.140186e-002
2.838823e+003;7.383114e-002
2.840751e+003;7.743756e-002
2.842680e+003;8.211325e-002
2.844608e+003;8.726458e-002
2.846537e+003;9.264378e-002
2.848465e+003;9.817567e-002
2.850394e+003;1.035205e-001
2.852323e+003;1.076742e-001
2.854251e+003;1.107754e-001
2.856180e+003;1.130116e-001
2.858108e+003;1.145213e-001
2.860037e+003;1.152743e-001
2.861965e+003;1.152689e-001
2.863894e+003;1.144949e-001
2.865822e+003;1.133423e-001
2.867751e+003;1.119598e-001
2.869679e+003;1.097807e-001
2.871608e+003;1.069259e-001
2.873536e+003;1.039296e-001
2.875465e+003;1.007404e-001
2.877394e+003;9.730067e-002
2.879322e+003;9.475593e-002
2.881251e+003;9.300838e-002
2.883179e+003;9.171129e-002
2.885108e+003;9.097429e-002
2.887036e+003;9.112773e-002
2.888965e+003;9.208927e-002
2.890893e+003;9.345577e-002
2.892822e+003;9.532892e-002
2.894750e+003;9.749933e-002
2.896679e+003;9.976755e-002
2.898608e+003;1.016107e-001
2.900536e+003;1.028429e-001
2.902465e+003;1.037511e-001
2.904393e+003;1.052583e-001
2.906322e+003;1.072978e-001
2.908250e+003;1.092287e-001
2.910179e+003;1.114567e-001
2.912107e+003;1.143833e-001
2.914036e+003;1.178561e-001
2.915965e+003;1.216259e-001
2.917893e+003;1.256672e-001
2.919822e+003;1.298423e-001
2.921750e+003;1.336836e-001
2.923679e+003;1.367308e-001
2.925607e+003;1.393595e-001
2.927536e+003;1.419687e-001
2.929464e+003;1.440577e-001
2.931393e+003;1.452895e-001
2.933322e+003;1.461748e-001
2.935250e+003;1.459734e-001
2.937178e+003;1.440725e-001
2.939107e+003;1.414256e-001
2.941036e+003;1.382921e-001
2.942964e+003;1.343697e-001
2.944893e+003;1.300467e-001
2.946821e+003;1.248138e-001
2.948750e+003;1.183905e-001
2.950678e+003;1.114022e-001
2.952607e+003;1.043053e-001
2.954535e+003;9.780245e-002
2.956464e+003;9.218644e-002
2.958393e+003;8.733750e-002
2.960321e+003;8.343654e-002
2.962250e+003;8.036812e-002
2.964178e+003;7.741436e-002
2.966107e+003;7.443485e-002
2.968035e+003;7.152017e-002
2.969964e+003;6.882020e-002
2.971892e+003;6.644215e-002
2.973821e+003;6.428673e-002
2.975750e+003;6.229586e-002
2.977678e+003;6.061212e-002
2.979607e+003;5.916978e-002
2.981535e+003;5.795022e-002
2.983464e+003;5.691958e-002
2.985392e+003;5.583644e-002
2.987321e+003;5.498657e-002
2.989249e+003;5.433812e-002
2.991178e+003;5.378685e-002
2.993106e+003;5.326790e-002
2.995035e+003;5.275429e-002
2.996964e+003;5.278882e-002
2.998892e+003;5.295468e-002
3.000821e+003;5.260810e-002
3.002749e+003;5.263155e-002
3.004678e+003;5.305231e-002
3.006606e+003;5.315670e-002
3.008535e+003;5.299533e-002
3.010463e+003;5.294087e-002
3.012392e+003;5.335406e-002
3.014321e+003;5.363230e-002
3.016249e+003;5.353048e-002
3.018177e+003;5.372442e-002
3.020106e+003;5.404491e-002
3.022035e+003;5.446051e-002
3.023963e+003;5.503493e-002
3.025892e+003;5.521403e-002
3.027820e+003;5.513367e-002
3.029749e+003;5.563828e-002
3.031677e+003;5.653943e-002
3.033606e+003;5.724951e-002
3.035534e+003;5.771946e-002
3.037463e+003;5.850278e-002
3.039392e+003;5.938197e-002
3.041320e+003;5.988102e-002
3.043249e+003;6.027099e-002
3.045177e+003;6.091193e-002
3.047106e+003;6.194725e-002
3.049034e+003;6.307070e-002
3.050963e+003;6.394895e-002
3.052891e+003;6.491432e-002
3.054820e+003;6.571011e-002
3.056749e+003;6.607422e-002
3.058677e+003;6.610219e-002
3.060606e+003;6.646211e-002
3.062534e+003;6.728620e-002
3.064463e+003;6.788514e-002
3.066391e+003;6.808493e-002
3.068320e+003;6.835360e-002
3.070248e+003;6.881124e-002
3.072177e+003;6.870790e-002
3.074105e+003;6.851240e-002
3.076034e+003;6.836931e-002
3.077963e+003;6.864635e-002
3.079891e+003;6.888007e-002
3.081820e+003;6.842232e-002
3.083748e+003;6.823487e-002
3.085677e+003;6.812733e-002
3.087605e+003;6.779271e-002
3.089534e+003;6.717909e-002
3.091462e+003;6.661849e-002
3.093391e+003;6.622775e-002
3.095320e+003;6.561822e-002
3.097248e+003;6.515308e-002
3.099177e+003;6.442691e-002
3.101105e+003;6.359533e-002
3.103034e+003;6.307116e-002
3.104962e+003;6.243927e-002
3.106891e+003;6.169225e-002
3.108819e+003;6.113539e-002
3.110748e+003;6.079758e-002
3.112677e+003;6.037309e-002
3.114605e+003;6.004428e-002
3.116533e+003;5.964627e-002
3.118462e+003;5.910885e-002
3.120391e+003;5.874237e-002
3.122319e+003;5.816746e-002
3.124248e+003;5.772737e-002
3.126176e+003;5.789668e-002
3.128105e+003;5.802039e-002
3.130033e+003;5.767576e-002
3.131962e+003;5.712523e-002
3.133890e+003;5.692128e-002
3.135819e+003;5.719795e-002
3.137748e+003;5.739988e-002
3.139676e+003;5.728232e-002
3.141605e+003;5.727835e-002
3.143533e+003;5.717723e-002
3.145462e+003;5.737723e-002
3.147390e+003;5.805970e-002
3.149319e+003;5.834202e-002
3.151247e+003;5.858801e-002
3.153176e+003;5.875773e-002
3.155104e+003;5.883342e-002
3.157033e+003;5.914548e-002
3.158962e+003;5.948114e-002
3.160890e+003;5.987965e-002
3.162819e+003;6.047305e-002
3.164747e+003;6.084175e-002
3.166676e+003;6.104420e-002
3.168604e+003;6.141346e-002
3.170533e+003;6.207639e-002
3.172461e+003;6.307959e-002
3.174390e+003;6.395391e-002
3.176319e+003;6.433468e-002
3.178247e+003;6.467003e-002
3.180176e+003;6.532632e-002
3.182104e+003;6.617372e-002
3.184033e+003;6.664904e-002
3.185961e+003;6.711254e-002
3.187890e+003;6.791043e-002
3.189818e+003;6.848110e-002
3.191747e+003;6.886847e-002
3.193676e+003;6.918211e-002
3.195604e+003;6.958123e-002
3.197532e+003;7.005098e-002
3.199461e+003;7.064778e-002
3.201390e+003;7.087174e-002
3.203318e+003;7.097644e-002
3.205247e+003;7.164325e-002
3.207175e+003;7.211950e-002
3.209104e+003;7.226133e-002
3.211032e+003;7.248006e-002
3.212961e+003;7.272396e-002
3.214889e+003;7.318000e-002
3.216818e+003;7.371294e-002
3.218747e+003;7.430442e-002
3.220675e+003;7.527860e-002
3.222604e+003;7.626868e-002
3.224532e+003;7.683240e-002
3.226461e+003;7.748858e-002
3.228389e+003;7.839202e-002
3.230318e+003;7.952657e-002
3.232246e+003;8.059596e-002
3.234175e+003;8.151197e-002
3.236104e+003;8.283929e-002
3.238032e+003;8.440892e-002
3.239961e+003;8.621933e-002
3.241889e+003;8.812282e-002
3.243818e+003;8.977114e-002
3.245746e+003;9.128372e-002
3.247675e+003;9.337927e-002
3.249603e+003;9.539842e-002
3.251532e+003;9.755959e-002
3.253460e+003;9.982209e-002
3.255389e+003;1.018100e-001
3.257318e+003;1.042414e-001
3.259246e+003;1.067223e-001
3.261175e+003;1.089340e-001
3.263103e+003;1.113365e-001
3.265032e+003;1.139387e-001
3.266960e+003;1.168661e-001
3.268889e+003;1.200965e-001
3.270817e+003;1.228553e-001
3.272746e+003;1.252434e-001
3.274675e+003;1.284667e-001
3.276603e+003;1.318146e-001
3.278531e+003;1.346799e-001
3.280460e+003;1.375224e-001
3.282389e+003;1.405141e-001
3.284317e+003;1.433318e-001
3.286246e+003;1.457369e-001
3.288174e+003;1.479763e-001
3.290103e+003;1.497705e-001
3.292031e+003;1.507133e-001
3.293960e+003;1.510146e-001
3.295888e+003;1.503640e-001
3.297817e+003;1.486806e-001
3.299746e+003;1.461328e-001
3.301674e+003;1.427003e-001
3.303603e+003;1.388543e-001
3.305531e+003;1.349704e-001
3.307460e+003;1.309340e-001
3.309388e+003;1.268433e-001
3.311317e+003;1.229336e-001
3.313245e+003;1.187453e-001
3.315174e+003;1.146451e-001
3.317103e+003;1.110790e-001
3.319031e+003;1.074735e-001
3.320960e+003;1.040727e-001
3.322888e+003;1.008813e-001
3.324817e+003;9.727161e-002
3.326745e+003;9.364939e-002
3.328674e+003;9.063871e-002
3.330602e+003;8.813548e-002
3.332531e+003;8.594748e-002
3.334459e+003;8.351364e-002
3.336388e+003;8.111836e-002
3.338317e+003;7.927289e-002
3.340245e+003;7.779726e-002
3.342174e+003;7.595461e-002
3.344102e+003;7.373791e-002
3.346031e+003;7.162062e-002
3.347959e+003;6.993182e-002
3.349888e+003;6.851861e-002
3.351816e+003;6.708434e-002
3.353745e+003;6.575707e-002
3.355674e+003;6.477141e-002
3.357602e+003;6.378168e-002
3.359531e+003;6.232600e-002
3.361459e+003;6.120844e-002
3.363388e+003;6.059475e-002
3.365316e+003;5.974773e-002
3.367245e+003;5.862442e-002
3.369173e+003;5.772987e-002
3.371102e+003;5.701504e-002
3.373031e+003;5.638242e-002
3.374959e+003;5.563632e-002
3.376887e+003;5.501342e-002
3.378816e+003;5.462885e-002
3.380745e+003;5.433984e-002
3.382673e+003;5.412428e-002
3.384602e+003;5.364171e-002
3.386530e+003;5.304538e-002
3.388459e+003;5.272929e-002
3.390387e+003;5.244716e-002
3.392316e+003;5.200475e-002
3.394244e+003;5.128683e-002
3.396173e+003;5.081518e-002
3.398102e+003;5.086080e-002
3.400030e+003;5.067686e-002
3.401959e+003;5.042162e-002
3.403887e+003;5.024906e-002
3.405816e+003;4.996704e-002
3.407744e+003;4.958617e-002
3.409673e+003;4.928127e-002
3.411601e+003;4.904439e-002
3.413530e+003;4.888780e-002
3.415458e+003;4.875792e-002
3.417387e+003;4.835774e-002
3.419316e+003;4.797495e-002
3.421244e+003;4.815623e-002
3.423173e+003;4.808801e-002
3.425101e+003;4.795315e-002
3.427030e+003;4.811066e-002
3.428958e+003;4.790217e-002
3.430887e+003;4.765961e-002
3.432815e+003;4.773774e-002
3.434744e+003;4.759667e-002
3.436673e+003;4.731127e-002
3.438601e+003;4.718537e-002
3.440530e+003;4.725153e-002
3.442458e+003;4.719948e-002
3.444387e+003;4.706254e-002
3.446315e+003;4.691674e-002
3.448244e+003;4.678959e-002
3.450172e+003;4.690467e-002
3.452101e+003;4.700460e-002
3.454030e+003;4.646179e-002
3.455958e+003;4.619331e-002
3.457886e+003;4.616633e-002
3.459815e+003;4.589778e-002
3.461744e+003;4.567128e-002
3.463672e+003;4.545302e-002
3.465601e+003;4.543599e-002
3.467529e+003;4.579298e-002
3.469458e+003;4.557949e-002
3.471386e+003;4.514432e-002
3.473315e+003;4.495984e-002
3.475243e+003;4.501923e-002
3.477172e+003;4.494647e-002
3.479101e+003;4.497730e-002
3.481029e+003;4.527694e-002
3.482958e+003;4.510598e-002
3.484886e+003;4.487566e-002
3.486815e+003;4.496877e-002
3.488743e+003;4.523186e-002
3.490672e+003;4.507495e-002
3.492600e+003;4.468299e-002
3.494529e+003;4.450539e-002
3.496458e+003;4.431557e-002
3.498386e+003;4.417220e-002
3.500315e+003;4.434533e-002
3.502243e+003;4.458903e-002
3.504172e+003;4.449636e-002
3.506100e+003;4.399162e-002
3.508029e+003;4.336888e-002
3.509957e+003;4.297199e-002
3.511886e+003;4.293121e-002
3.513814e+003;4.306612e-002
3.515743e+003;4.328084e-002
3.517672e+003;4.322923e-002
3.519600e+003;4.258167e-002
3.521529e+003;4.216772e-002
3.523457e+003;4.242403e-002
3.525386e+003;4.261811e-002
3.527314e+003;4.249203e-002
3.529243e+003;4.243412e-002
3.531171e+003;4.235905e-002
3.533100e+003;4.193351e-002
3.535029e+003;4.175922e-002
3.536957e+003;4.184408e-002
3.538885e+003;4.146418e-002
3.540814e+003;4.081317e-002
3.542743e+003;3.999090e-002
3.544671e+003;3.990114e-002
3.546600e+003;4.025855e-002
3.548528e+003;4.013028e-002
3.550457e+003;3.970787e-002
3.552385e+003;3.920681e-002
3.554314e+003;3.896180e-002
3.556242e+003;3.870480e-002
3.558171e+003;3.832122e-002
3.560100e+003;3.851297e-002
3.562028e+003;3.823970e-002
3.563957e+003;3.752688e-002
3.565885e+003;3.684715e-002
3.567814e+003;3.656862e-002
3.569742e+003;3.675595e-002
3.571671e+003;3.651283e-002
3.573599e+003;3.624106e-002
3.575528e+003;3.603332e-002
3.577457e+003;3.572318e-002
3.579385e+003;3.555251e-002
3.581314e+003;3.527714e-002
3.583242e+003;3.511100e-002
3.585171e+003;3.471982e-002
3.587099e+003;3.398061e-002
3.589028e+003;3.387127e-002
3.590956e+003;3.375483e-002
3.592885e+003;3.335542e-002
3.594813e+003;3.319949e-002
3.596742e+003;3.318261e-002
3.598671e+003;3.294734e-002
3.600599e+003;3.251239e-002
3.602528e+003;3.251864e-002
3.604456e+003;3.222909e-002
3.606385e+003;3.129005e-002
3.608313e+003;3.030593e-002
3.610242e+003;3.029627e-002
3.612170e+003;3.069966e-002
3.614099e+003;3.091432e-002
3.616028e+003;3.024987e-002
3.617956e+003;2.960239e-002
3.619885e+003;2.979838e-002
3.621813e+003;3.021111e-002
3.623742e+003;3.029818e-002
3.625670e+003;2.989456e-002
3.627599e+003;2.853651e-002
3.629527e+003;2.818468e-002
3.631456e+003;2.890236e-002
3.633385e+003;2.905105e-002
3.635313e+003;2.873711e-002
3.637241e+003;2.813247e-002
3.639170e+003;2.773120e-002
3.641099e+003;2.768437e-002
3.643027e+003;2.747458e-002
3.644956e+003;2.694639e-002
3.646884e+003;2.589326e-002
3.648813e+003;2.526017e-002
3.650741e+003;2.576449e-002
3.652670e+003;2.643662e-002
3.654598e+003;2.637250e-002
3.656527e+003;2.620599e-002
3.658456e+003;2.620874e-002
3.660384e+003;2.582581e-002
3.662313e+003;2.576913e-002
3.664241e+003;2.595931e-002
3.666170e+003;2.601236e-002
3.668098e+003;2.545952e-002
3.670027e+003;2.480682e-002
3.671955e+003;2.501947e-002
3.673884e+003;2.440984e-002
3.675813e+003;2.389982e-002
3.677741e+003;2.480033e-002
3.679669e+003;2.496384e-002
3.681598e+003;2.469524e-002
3.683527e+003;2.422261e-002
3.685455e+003;2.358864e-002
3.687384e+003;2.273787e-002
3.689312e+003;2.260657e-002
3.691241e+003;2.319049e-002
3.693169e+003;2.329124e-002
3.695098e+003;2.290807e-002
3.697026e+003;2.298447e-002
3.698955e+003;2.279555e-002
3.700884e+003;2.242664e-002
3.702812e+003;2.284985e-002
3.704741e+003;2.317893e-002
3.706669e+003;2.300131e-002
3.708598e+003;2.235673e-002
3.710526e+003;2.156557e-002
3.712455e+003;2.176751e-002
3.714383e+003;2.229366e-002
3.716312e+003;2.226433e-002
3.718240e+003;2.208496e-002
3.720169e+003;2.185914e-002
3.722098e+003;2.157452e-002
3.724026e+003;2.181883e-002
3.725955e+003;2.203413e-002
3.727883e+003;2.185179e-002
3.729812e+003;2.144427e-002
3.731740e+003;2.124022e-002
3.733669e+003;2.118267e-002
3.735597e+003;2.084260e-002
3.737526e+003;2.121872e-002
3.739455e+003;2.194068e-002
3.741383e+003;2.187134e-002
3.743312e+003;2.046530e-002
3.745240e+003;2.076327e-002
3.747169e+003;2.146554e-002
3.749097e+003;2.054718e-002
3.751026e+003;2.065297e-002
3.752954e+003;2.131493e-002
3.754883e+003;2.174717e-002
3.756812e+003;2.176183e-002
3.758740e+003;2.169279e-002
3.760668e+003;2.166879e-002
3.762597e+003;2.199861e-002
3.764526e+003;2.205794e-002
3.766454e+003;2.214813e-002
3.768383e+003;2.204337e-002
3.770311e+003;2.228344e-002
3.772240e+003;2.268906e-002
3.774168e+003;2.277432e-002
3.776097e+003;2.252532e-002
3.778025e+003;2.204396e-002
3.779954e+003;2.212847e-002
3.781883e+003;2.265244e-002
3.783811e+003;2.292135e-002
3.785740e+003;2.278029e-002
3.787668e+003;2.254015e-002
3.789597e+003;2.246792e-002
3.791525e+003;2.239482e-002
3.793454e+003;2.215392e-002
3.795382e+003;2.156487e-002
3.797311e+003;2.150171e-002
3.799240e+003;2.163884e-002
3.801168e+003;2.123643e-002
3.803097e+003;2.192312e-002
3.805025e+003;2.215553e-002
3.806954e+003;2.200210e-002
3.808882e+003;2.250065e-002
3.810811e+003;2.275058e-002
3.812739e+003;2.246338e-002
3.814668e+003;2.197278e-002
3.816596e+003;2.227224e-002
3.818525e+003;2.246711e-002
3.820454e+003;2.197787e-002
3.822382e+003;2.284538e-002
3.824311e+003;2.351406e-002
3.826239e+003;2.299282e-002
3.828168e+003;2.282586e-002
3.830096e+003;2.276632e-002
3.832025e+003;2.285348e-002
3.833953e+003;2.271650e-002
3.835882e+003;2.208436e-002
3.837811e+003;2.210302e-002
3.839739e+003;2.297102e-002
3.841667e+003;2.328064e-002
3.843596e+003;2.328592e-002
3.845525e+003;2.349171e-002
3.847453e+003;2.378970e-002
3.849382e+003;2.312567e-002
3.851310e+003;2.189883e-002
3.853239e+003;2.142544e-002
3.855167e+003;2.244067e-002
3.857096e+003;2.308461e-002
3.859024e+003;2.344449e-002
3.860953e+003;2.403739e-002
3.862882e+003;2.358237e-002
3.864810e+003;2.305637e-002
3.866739e+003;2.324957e-002
3.868667e+003;2.289875e-002
3.870596e+003;2.275396e-002
3.872524e+003;2.290112e-002
3.874453e+003;2.289973e-002
3.876381e+003;2.358405e-002
3.878310e+003;2.350682e-002
3.880239e+003;2.309208e-002
3.882167e+003;2.369356e-002
3.884096e+003;2.375382e-002
3.886024e+003;2.377857e-002
3.887953e+003;2.435275e-002
3.889881e+003;2.403294e-002
3.891810e+003;2.383212e-002
3.893738e+003;2.414075e-002
3.895667e+003;2.411185e-002
3.897595e+003;2.403953e-002
3.899524e+003;2.434119e-002
3.901453e+003;2.426578e-002
3.903381e+003;2.365035e-002
3.905310e+003;2.422055e-002
3.907238e+003;2.514662e-002
3.909167e+003;2.546423e-002
3.911095e+003;2.545495e-002
3.913024e+003;2.531763e-002
3.914952e+003;2.479988e-002
3.916881e+003;2.414376e-002
3.918810e+003;2.416803e-002
3.920738e+003;2.427387e-002
3.922667e+003;2.457461e-002
3.924595e+003;2.506886e-002
3.926524e+003;2.531415e-002
3.928452e+003;2.544016e-002
3.930381e+003;2.528929e-002
3.932309e+003;2.532662e-002
3.934238e+003;2.580735e-002
3.936167e+003;2.593610e-002
3.938095e+003;2.535539e-002
3.940023e+003;2.536217e-002
3.941952e+003;2.550755e-002
3.943881e+003;2.551110e-002
3.945809e+003;2.571797e-002
3.947738e+003;2.579279e-002
3.949666e+003;2.536365e-002
3.951595e+003;2.553225e-002
3.953523e+003;2.636493e-002
3.955452e+003;2.664020e-002
3.957380e+003;2.671405e-002
3.959309e+003;2.659937e-002
3.961238e+003;2.612213e-002
3.963166e+003;2.580281e-002
3.965095e+003;2.618727e-002
3.967023e+003;2.661624e-002
3.968952e+003;2.692277e-002
3.970880e+003;2.729301e-002
3.972809e+003;2.710009e-002
3.974737e+003;2.675196e-002
3.976666e+003;2.672846e-002
3.978594e+003;2.683764e-002
3.980523e+003;2.705456e-002
3.982452e+003;2.717680e-002
3.984380e+003;2.725812e-002
3.986309e+003;2.716735e-002
3.988237e+003;2.681142e-002
3.990166e+003;2.710080e-002
3.992094e+003;2.761039e-002
3.994023e+003;2.791684e-002
3.995951e+003;2.826732e-002
3.997880e+003;2.821184e-002
3.999809e+003;2.820763e-002
4.001737e+003;0.000000e+000
