3.992094e+002;0.000000e+000
4.011380e+002;0.000000e+000
4.030665e+002;0.000000e+000
4.049951e+002;0.000000e+000
4.069236e+002;0.000000e+000
4.088522e+002;0.000000e+000
4.107807e+002;0.000000e+000
4.127093e+002;0.000000e+000
4.146378e+002;0.000000e+000
4.165664e+002;0.000000e+000
4.184949e+002;0.000000e+000
4.204235e+002;0.000000e+000
4.223520e+002;0.000000e+000
4.242806e+002;0.000000e+000
4.262091e+002;0.000000e+000
4.281377e+002;0.000000e+000
4.300662e+002;0.000000e+000
4.319948e+002;0.000000e+000
4.339233e+002;0.000000e+000
4.358519e+002;0.000000e+000
4.377804e+002;0.000000e+000
4.397090e+002;0.000000e+000
4.416375e+002;0.000000e+000
4.435660e+002;0.000000e+000
4.454946e+002;0.000000e+000
4.474232e+002;0.000000e+000
4.493517e+002;0.000000e+000
4.512802e+002;0.000000e+000
4.532088e+002;0.000000e+000
4.551373e+002;0.000000e+000
4.570659e+002;0.000000e+000
4.589944e+002;0.000000e+000
4.609230e+002;0.000000e+000
4.628515e+002;0.000000e+000
4.647801e+002;0.000000e+000
4.667086e+002;0.000000e+000
4.686372e+002;0.000000e+000
4.705657e+002;0.000000e+000
4.724943e+002;0.000000e+000
4.744228e+002;0.000000e+000
4.763513e+002;0.000000e+000
4.782799e+002;0.000000e+000
4.802085e+002;0.000000e+000
4.821370e+002;0.000000e+000
4.840656e+002;0.000000e+000
4.859941e+002;0.000000e+000
4.879226e+002;0.000000e+000
4.898512e+002;0.000000e+000
4.917798e+002;0.000000e+000
4.937083e+002;0.000000e+000
4.956368e+002;0.000000e+000
4.975654e+002;0.000000e+000
4.994939e+002;0.000000e+000
5.014225e+002;0.000000e+000
5.033510e+002;0.000000e+000
5.052796e+002;0.000000e+000
5.072081e+002;0.000000e+000
5.091367e+002;0.000000e+000
5.110652e+002;0.000000e+000
5.129938e+002;0.000000e+000
5.149223e+002;0.000000e+000
5.168509e+002;0.000000e+000
5.187794e+002;0.000000e+000
5.207079e+002;0.000000e+000
5.226365e+002;0.000000e+000
5.245651e+002;0.000000e+000
5.264936e+002;0.000000e+000
5.284222e+002;0.000000e+000
5.303507e+002;0.000000e+000
5.322792e+002;0.000000e+000
5.342078e+002;0.000000e+000
5.361364e+002;0.000000e+000
5.380649e+002;0.000000e+000
5.399935e+002;0.000000e+000
5.419220e+002;0.000000e+000
5.438505e+002;0.000000e+000
5.457791e+002;0.000000e+000
5.477076e+002;0.000000e+000
5.496362e+002;0.000000e+000
5.515648e+002;0.000000e+000
5.534933e+002;0.000000e+000
5.554218e+002;0.000000e+000
5.573504e+002;0.000000e+000
5.592789e+002;0.000000e+000
5.612075e+002;0.000000e+000
5.631360e+002;0.000000e+000
5.650646e+002;0.000000e+000
5.669931e+002;0.000000e+000
5.689217e+002;0.000000e+000
5.708502e+002;0.000000e+000
5.727787e+002;0.000000e+000
5.747073e+002;0.000000e+000
5.766359e+002;0.000000e+000
5.785644e+002;0.000000e+000
5.804930e+002;0.000000e+000
5.824215e+002;0.000000e+000
5.843500e+002;0.000000e+000
5.862786e+002;0.000000e+000
5.882072e+002;0.000000e+000
5.901357e+002;0.000000e+000
5.920643e+002;0.000000e+000
5.939928e+002;0.000000e+000
5.959213e+002;0.000000e+000
5.978499e+002;0.000000e+000
5.997784e+002;1.373426e-001
6.017070e+002;1.378490e-001
6.036355e+002;1.390689e-001
6.055641e+002;1.376321e-001
6.074926e+002;1.354632e-001
6.094211e+002;1.369970e-001
6.113497e+002;1.370301e-001
6.132783e+002;1.363506e-001
6.152068e+002;1.335196e-001
6.171354e+002;1.346939e-001
6.190639e+002;1.379743e-001
6.209924e+002;1.385100e-001
6.229210e+002;1.415180e-001
6.248495e+002;1.400756e-001
6.267781e+002;1.351178e-001
6.287067e+002;1.341558e-001
6.306352e+002;1.352319e-001
6.325637e+002;1.376282e-001
6.344923e+002;1.359365e-001
6.364208e+002;1.372095e-001
6.383494e+002;1.400376e-001
6.402780e+002;1.388045e-001
6.422065e+002;1.420655e-001
6.441350e+002;1.436752e-001
6.460636e+002;1.409809e-001
6.479921e+002;1.446747e-001
6.499207e+002;1.534669e-001
6.518492e+002;1.549465e-001
6.537778e+002;1.519986e-001
6.557063e+002;1.561211e-001
6.576349e+002;1.635374e-001
6.595634e+002;1.660014e-001
6.614919e+002;1.681458e-001
6.634205e+002;1.709922e-001
6.653491e+002;1.737216e-001
6.672776e+002;1.758077e-001
6.692062e+002;1.766264e-001
6.711347e+002;1.785222e-001
6.730632e+002;1.812529e-001
6.749918e+002;1.824550e-001
6.769203e+002;1.848595e-001
6.788489e+002;1.871547e-001
6.807775e+002;1.886566e-001
6.827060e+002;1.905150e-001
6.846345e+002;1.919311e-001
6.865631e+002;1.900336e-001
6.884916e+002;1.865644e-001
6.904202e+002;1.851601e-001
6.923488e+002;1.835011e-001
6.942773e+002;1.808179e-001
6.962058e+002;1.788193e-001
6.981344e+002;1.757041e-001
7.000629e+002;1.714336e-001
7.019915e+002;1.674697e-001
7.039200e+002;1.656369e-001
7.058486e+002;1.649460e-001
7.077771e+002;1.637800e-001
7.097057e+002;1.618484e-001
7.116342e+002;1.590315e-001
7.135627e+002;1.558003e-001
7.154913e+002;1.540416e-001
7.174199e+002;1.529734e-001
7.193484e+002;1.520284e-001
7.212770e+002;1.511225e-001
7.232055e+002;1.505218e-001
7.251340e+002;1.517527e-001
7.270626e+002;1.529793e-001
7.289911e+002;1.512783e-001
7.309197e+002;1.465328e-001
7.328483e+002;1.404747e-001
7.347768e+002;1.326532e-001
7.367053e+002;1.255540e-001
7.386339e+002;1.197426e-001
7.405624e+002;1.148481e-001
7.424910e+002;1.122486e-001
7.444196e+002;1.103895e-001
7.463481e+002;1.079904e-001
7.482766e+002;1.056170e-001
7.502052e+002;1.035721e-001
7.521337e+002;1.018985e-001
7.540623e+002;1.006617e-001
7.559908e+002;9.861545e-002
7.579194e+002;9.634913e-002
7.598479e+002;9.515729e-002
7.617765e+002;9.369349e-002
7.637050e+002;9.215465e-002
7.656335e+002;9.167868e-002
7.675621e+002;9.105761e-002
7.694907e+002;8.976282e-002
7.714192e+002;8.827988e-002
7.733478e+002;8.740031e-002
7.752763e+002;8.604354e-002
7.772048e+002;8.463518e-002
7.791334e+002;8.388074e-002
7.810620e+002;8.312451e-002
7.829905e+002;8.180436e-002
7.849191e+002;7.978960e-002
7.868476e+002;7.820819e-002
7.887761e+002;7.719702e-002
7.907047e+002;7.619408e-002
7.926332e+002;7.592402e-002
7.945618e+002;7.490268e-002
7.964903e+002;7.303955e-002
7.984189e+002;7.154279e-002
8.003474e+002;7.113176e-002
8.022759e+002;7.038874e-002
8.042045e+002;6.958348e-002
8.061331e+002;6.891587e-002
8.080616e+002;6.771832e-002
8.099902e+002;6.678148e-002
8.119187e+002;6.631155e-002
8.138472e+002;6.531808e-002
8.157758e+002;6.434459e-002
8.177043e+002;6.423245e-002
8.196329e+002;6.439263e-002
8.215615e+002;6.414329e-002
8.234900e+002;6.430905e-002
8.254185e+002;6.523390e-002
8.273471e+002;6.567623e-002
8.292756e+002;6.663996e-002
8.312042e+002;6.812334e-002
8.331328e+002;6.831630e-002
8.350613e+002;6.719840e-002
8.369898e+002;6.498758e-002
8.389184e+002;6.252360e-002
8.408469e+002;6.101488e-002
8.427755e+002;6.024381e-002
8.447040e+002;5.938897e-002
8.466326e+002;5.829480e-002
8.485611e+002;5.684736e-002
8.504897e+002;5.584386e-002
8.524182e+002;5.587269e-002
8.543467e+002;5.633625e-002
8.562753e+002;5.636669e-002
8.582039e+002;5.613199e-002
8.601324e+002;5.609036e-002
8.620610e+002;5.606506e-002
8.639895e+002;5.597361e-002
8.659180e+002;5.602525e-002
8.678466e+002;5.603268e-002
8.697751e+002;5.569587e-002
8.717037e+002;5.545475e-002
8.736323e+002;5.599182e-002
8.755608e+002;5.655374e-002
8.774893e+002;5.685669e-002
8.794179e+002;5.716102e-002
8.813464e+002;5.722785e-002
8.832750e+002;5.712213e-002
8.852036e+002;5.721742e-002
8.871321e+002;5.769449e-002
8.890606e+002;5.793242e-002
8.909892e+002;5.810507e-002
8.929177e+002;5.802611e-002
8.948463e+002;5.824388e-002
8.967748e+002;5.875842e-002
8.987034e+002;5.866503e-002
9.006319e+002;5.857201e-002
9.025605e+002;5.859378e-002
9.044890e+002;5.912786e-002
9.064175e+002;6.037275e-002
9.083461e+002;6.077044e-002
9.102747e+002;6.076324e-002
9.122032e+002;6.101564e-002
9.141318e+002;6.155150e-002
9.160603e+002;6.230715e-002
9.179888e+002;6.286827e-002
9.199174e+002;6.366120e-002
9.218459e+002;6.462296e-002
9.237745e+002;6.590293e-002
9.257031e+002;6.761772e-002
9.276316e+002;6.897684e-002
9.295601e+002;6.871159e-002
9.314887e+002;6.731731e-002
9.334172e+002;6.573682e-002
9.353458e+002;6.448802e-002
9.372744e+002;6.407881e-002
9.392029e+002;6.371879e-002
9.411314e+002;6.394523e-002
9.430600e+002;6.481837e-002
9.449885e+002;6.585310e-002
9.469171e+002;6.734993e-002
9.488456e+002;6.938211e-002
9.507742e+002;7.097649e-002
9.527027e+002;7.143705e-002
9.546313e+002;7.184590e-002
9.565598e+002;7.293650e-002
9.584883e+002;7.395149e-002
9.604169e+002;7.399239e-002
9.623455e+002;7.314498e-002
9.642740e+002;7.218558e-002
9.662026e+002;7.149935e-002
9.681311e+002;7.145896e-002
9.700596e+002;7.183442e-002
9.719882e+002;7.238117e-002
9.739167e+002;7.230286e-002
9.758453e+002;7.133289e-002
9.777739e+002;7.021259e-002
9.797024e+002;6.937531e-002
9.816309e+002;6.833433e-002
9.835595e+002;6.721836e-002
9.854880e+002;6.645508e-002
9.874166e+002;6.566085e-002
9.893452e+002;6.464245e-002
9.912737e+002;6.405251e-002
9.932022e+002;6.362809e-002
9.951307e+002;6.297673e-002
9.970593e+002;6.270768e-002
9.989879e+002;6.285896e-002
1.000916e+003;6.299228e-002
1.002845e+003;6.287187e-002
1.004773e+003;6.251743e-002
1.006702e+003;6.213798e-002
1.008631e+003;6.193093e-002
1.010559e+003;6.198451e-002
1.012488e+003;6.177964e-002
1.014416e+003;6.152645e-002
1.016345e+003;6.182521e-002
1.018273e+003;6.267343e-002
1.020202e+003;6.357868e-002
1.022130e+003;6.436438e-002
1.024059e+003;6.533510e-002
1.025988e+003;6.674953e-002
1.027916e+003;6.741664e-002
1.029845e+003;6.750112e-002
1.031773e+003;6.707487e-002
1.033702e+003;6.619028e-002
1.035630e+003;6.549951e-002
1.037559e+003;6.475425e-002
1.039487e+003;6.407044e-002
1.041416e+003;6.315163e-002
1.043344e+003;6.245445e-002
1.045273e+003;6.241329e-002
1.047202e+003;6.284594e-002
1.049130e+003;6.362782e-002
1.051059e+003;6.451881e-002
1.052987e+003;6.553148e-002
1.054916e+003;6.693032e-002
1.056844e+003;6.824921e-002
1.058773e+003;6.936768e-002
1.060701e+003;7.029228e-002
1.062630e+003;7.115728e-002
1.064558e+003;7.266446e-002
1.066487e+003;7.412737e-002
1.068416e+003;7.492563e-002
1.070344e+003;7.535387e-002
1.072273e+003;7.579511e-002
1.074201e+003;7.615203e-002
1.076130e+003;7.583611e-002
1.078058e+003;7.533827e-002
1.079987e+003;7.472574e-002
1.081915e+003;7.404791e-002
1.083844e+003;7.320039e-002
1.085773e+003;7.220252e-002
1.087701e+003;7.186674e-002
1.089630e+003;7.188727e-002
1.091558e+003;7.238121e-002
1.093487e+003;7.279566e-002
1.095415e+003;7.263552e-002
1.097344e+003;7.275374e-002
1.099272e+003;7.381693e-002
1.101201e+003;7.558548e-002
1.103129e+003;7.826047e-002
1.105058e+003;8.038383e-002
1.106987e+003;8.169142e-002
1.108915e+003;8.271512e-002
1.110844e+003;8.356216e-002
1.112772e+003;8.444256e-002
1.114701e+003;8.517722e-002
1.116629e+003;8.551271e-002
1.118558e+003;8.533426e-002
1.120486e+003;8.502559e-002
1.122415e+003;8.391755e-002
1.124344e+003;8.133740e-002
1.126272e+003;7.784118e-002
1.128201e+003;7.450553e-002
1.130129e+003;7.204205e-002
1.132058e+003;7.061109e-002
1.133986e+003;6.987850e-002
1.135915e+003;6.940057e-002
1.137843e+003;6.989741e-002
1.139772e+003;7.057523e-002
1.141700e+003;7.182749e-002
1.143629e+003;7.407825e-002
1.145557e+003;7.629237e-002
1.147486e+003;7.814166e-002
1.149415e+003;8.052596e-002
1.151343e+003;8.334251e-002
1.153272e+003;8.635941e-002
1.155200e+003;8.962127e-002
1.157129e+003;9.338740e-002
1.159057e+003;9.844517e-002
1.160986e+003;1.042527e-001
1.162914e+003;1.107174e-001
1.164843e+003;1.171468e-001
1.166771e+003;1.224315e-001
1.168700e+003;1.256158e-001
1.170629e+003;1.248548e-001
1.172557e+003;1.204489e-001
1.174486e+003;1.145124e-001
1.176414e+003;1.084112e-001
1.178343e+003;1.035744e-001
1.180271e+003;1.002447e-001
1.182200e+003;9.866881e-002
1.184128e+003;9.899637e-002
1.186057e+003;1.009777e-001
1.187986e+003;1.037619e-001
1.189914e+003;1.071293e-001
1.191843e+003;1.112677e-001
1.193771e+003;1.160750e-001
1.195700e+003;1.213353e-001
1.197628e+003;1.258581e-001
1.199557e+003;1.279728e-001
1.201485e+003;1.261278e-001
1.203414e+003;1.218668e-001
1.205343e+003;1.185006e-001
1.207271e+003;1.170806e-001
1.209200e+003;1.162361e-001
1.211128e+003;1.161442e-001
1.213057e+003;1.158822e-001
1.214985e+003;1.139920e-001
1.216914e+003;1.107724e-001
1.218842e+003;1.075389e-001
1.220771e+003;1.054631e-001
1.222699e+003;1.052159e-001
1.224628e+003;1.073764e-001
1.226557e+003;1.111503e-001
1.228485e+003;1.155816e-001
1.230414e+003;1.204677e-001
1.232342e+003;1.252787e-001
1.234271e+003;1.287745e-001
1.236199e+003;1.306483e-001
1.238128e+003;1.309397e-001
1.240056e+003;1.306428e-001
1.241985e+003;1.304264e-001
1.243913e+003;1.301212e-001
1.245842e+003;1.302270e-001
1.247771e+003;1.309239e-001
1.249699e+003;1.327738e-001
1.251628e+003;1.356564e-001
1.253556e+003;1.387985e-001
1.255485e+003;1.420017e-001
1.257413e+003;1.449037e-001
1.259342e+003;1.469546e-001
1.261270e+003;1.483065e-001
1.263199e+003;1.475949e-001
1.265127e+003;1.440809e-001
1.267056e+003;1.380891e-001
1.268985e+003;1.310667e-001
1.270913e+003;1.257843e-001
1.272842e+003;1.231764e-001
1.274770e+003;1.217158e-001
1.276699e+003;1.208569e-001
1.278627e+003;1.204182e-001
1.280556e+003;1.193030e-001
1.282484e+003;1.174376e-001
1.284413e+003;1.155785e-001
1.286342e+003;1.137864e-001
1.288270e+003;1.125499e-001
1.290199e+003;1.122383e-001
1.292127e+003;1.117239e-001
1.294056e+003;1.106620e-001
1.295984e+003;1.101155e-001
1.297913e+003;1.096412e-001
1.299841e+003;1.092779e-001
1.301770e+003;1.089709e-001
1.303698e+003;1.082067e-001
1.305627e+003;1.073483e-001
1.307556e+003;1.061436e-001
1.309484e+003;1.048806e-001
1.311413e+003;1.037712e-001
1.313341e+003;1.025770e-001
1.315270e+003;1.016420e-001
1.317198e+003;1.005329e-001
1.319127e+003;9.954761e-002
1.321055e+003;9.887932e-002
1.322984e+003;9.824131e-002
1.324912e+003;9.775575e-002
1.326841e+003;9.795740e-002
1.328770e+003;9.854602e-002
1.330698e+003;9.916774e-002
1.332627e+003;9.949944e-002
1.334555e+003;9.976935e-002
1.336484e+003;1.000239e-001
1.338412e+003;1.004234e-001
1.340341e+003;1.013836e-001
1.342269e+003;1.025816e-001
1.344198e+003;1.035527e-001
1.346126e+003;1.045439e-001
1.348055e+003;1.055700e-001
1.349984e+003;1.066417e-001
1.351912e+003;1.081255e-001
1.353841e+003;1.099420e-001
1.355769e+003;1.118207e-001
1.357698e+003;1.136835e-001
1.359626e+003;1.155452e-001
1.361555e+003;1.173494e-001
1.363483e+003;1.194577e-001
1.365412e+003;1.217067e-001
1.367341e+003;1.234700e-001
1.369269e+003;1.248196e-001
1.371198e+003;1.254954e-001
1.373126e+003;1.249809e-001
1.375055e+003;1.233151e-001
1.376983e+003;1.206988e-001
1.378912e+003;1.174087e-001
1.380840e+003;1.139059e-001
1.382769e+003;1.104137e-001
1.384698e+003;1.068987e-001
1.386626e+003;1.032993e-001
1.388555e+003;1.008441e-001
1.390483e+003;9.895734e-002
1.392412e+003;9.716045e-002
1.394340e+003;9.586924e-002
1.396269e+003;9.538595e-002
1.398197e+003;9.575546e-002
1.400126e+003;9.728285e-002
1.402054e+003;9.945719e-002
1.403983e+003;1.024561e-001
1.405911e+003;1.069855e-001
1.407840e+003;1.129149e-001
1.409769e+003;1.198676e-001
1.411697e+003;1.274543e-001
1.413626e+003;1.342555e-001
1.415554e+003;1.384520e-001
1.417483e+003;1.392959e-001
1.419411e+003;1.374374e-001
1.421340e+003;1.345357e-001
1.423268e+003;1.311231e-001
1.425197e+003;1.288341e-001
1.427125e+003;1.289989e-001
1.429054e+003;1.307759e-001
1.430983e+003;1.335103e-001
1.432911e+003;1.361572e-001
1.434840e+003;1.372261e-001
1.436768e+003;1.366669e-001
1.438697e+003;1.362840e-001
1.440625e+003;1.355831e-001
1.442554e+003;1.347203e-001
1.444482e+003;1.339596e-001
1.446411e+003;1.338279e-001
1.448340e+003;1.349275e-001
1.450268e+003;1.368802e-001
1.452197e+003;1.391881e-001
1.454125e+003;1.412413e-001
1.456054e+003;1.430791e-001
1.457982e+003;1.481072e-001
1.459911e+003;1.554457e-001
1.461839e+003;1.602575e-001
1.463768e+003;1.595561e-001
1.465697e+003;1.534809e-001
1.467625e+003;1.452391e-001
1.469554e+003;1.382327e-001
1.471482e+003;1.341854e-001
1.473411e+003;1.338394e-001
1.475339e+003;1.349248e-001
1.477268e+003;1.343874e-001
1.479196e+003;1.314766e-001
1.481125e+003;1.261147e-001
1.483053e+003;1.193060e-001
1.484982e+003;1.131217e-001
1.486911e+003;1.096297e-001
1.488839e+003;1.085874e-001
1.490768e+003;1.095697e-001
1.492696e+003;1.121302e-001
1.494625e+003;1.146457e-001
1.496553e+003;1.179319e-001
1.498482e+003;1.228631e-001
1.500410e+003;1.284623e-001
1.502339e+003;1.341608e-001
1.504267e+003;1.391903e-001
1.506196e+003;1.442644e-001
1.508125e+003;1.515706e-001
1.510053e+003;1.600405e-001
1.511982e+003;1.681054e-001
1.513910e+003;1.763027e-001
1.515839e+003;1.847240e-001
1.517767e+003;1.935521e-001
1.519696e+003;2.026863e-001
1.521624e+003;2.128756e-001
1.523553e+003;2.241651e-001
1.525481e+003;2.352327e-001
1.527410e+003;2.464074e-001
1.529339e+003;2.569740e-001
1.531267e+003;2.666067e-001
1.533196e+003;2.748092e-001
1.535124e+003;2.814491e-001
1.537053e+003;2.844267e-001
1.538981e+003;2.831690e-001
1.540910e+003;2.798039e-001
1.542838e+003;2.739367e-001
1.544767e+003;2.649102e-001
1.546695e+003;2.540004e-001
1.548624e+003;2.421068e-001
1.550553e+003;2.301200e-001
1.552481e+003;2.187810e-001
1.554410e+003;2.080129e-001
1.556338e+003;1.975381e-001
1.558267e+003;1.868639e-001
1.560195e+003;1.783321e-001
1.562124e+003;1.717092e-001
1.564052e+003;1.640608e-001
1.565981e+003;1.556281e-001
1.567910e+003;1.473646e-001
1.569838e+003;1.390534e-001
1.571767e+003;1.317181e-001
1.573695e+003;1.244854e-001
1.575624e+003;1.171858e-001
1.577552e+003;1.121552e-001
1.579481e+003;1.085973e-001
1.581409e+003;1.051039e-001
1.583338e+003;1.022697e-001
1.585266e+003;1.005301e-001
1.587195e+003;9.959449e-002
1.589124e+003;9.931136e-002
1.591052e+003;1.001436e-001
1.592981e+003;1.019974e-001
1.594909e+003;1.043997e-001
1.596838e+003;1.074410e-001
1.598766e+003;1.116545e-001
1.600695e+003;1.166479e-001
1.602623e+003;1.228105e-001
1.604552e+003;1.300175e-001
1.606480e+003;1.377057e-001
1.608409e+003;1.465525e-001
1.610338e+003;1.561875e-001
1.612266e+003;1.663166e-001
1.614195e+003;1.775270e-001
1.616123e+003;1.903808e-001
1.618052e+003;2.067716e-001
1.619980e+003;2.246939e-001
1.621909e+003;2.424818e-001
1.623837e+003;2.609647e-001
1.625766e+003;2.803756e-001
1.627694e+003;3.007583e-001
1.629623e+003;3.223366e-001
1.631552e+003;3.443458e-001
1.633480e+003;3.630317e-001
1.635409e+003;3.745442e-001
1.637337e+003;3.766748e-001
1.639266e+003;3.670442e-001
1.641194e+003;3.470039e-001
1.643123e+003;3.215120e-001
1.645051e+003;2.946223e-001
1.646980e+003;2.692313e-001
1.648909e+003;2.469842e-001
1.650837e+003;2.263072e-001
1.652766e+003;2.076537e-001
1.654694e+003;1.949913e-001
1.656623e+003;1.851698e-001
1.658551e+003;1.747792e-001
1.660480e+003;1.642930e-001
1.662408e+003;1.536662e-001
1.664337e+003;1.438370e-001
1.666266e+003;1.342569e-001
1.668194e+003;1.242393e-001
1.670123e+003;1.152136e-001
1.672051e+003;1.078625e-001
1.673980e+003;1.003280e-001
1.675908e+003;9.302011e-002
1.677837e+003;8.658948e-002
1.679765e+003;7.933509e-002
1.681694e+003;7.153424e-002
1.683622e+003;6.371975e-002
1.685551e+003;5.854634e-002
1.687479e+003;5.514563e-002
1.689408e+003;5.153329e-002
1.691337e+003;4.876656e-002
1.693265e+003;4.626345e-002
1.695194e+003;4.358881e-002
1.697122e+003;4.218911e-002
1.699051e+003;4.079679e-002
1.700979e+003;4.035312e-002
1.702908e+003;4.126785e-002
1.704836e+003;4.111182e-002
1.706765e+003;4.106407e-002
1.708693e+003;4.113815e-002
1.710622e+003;4.143713e-002
1.712551e+003;4.129124e-002
1.714479e+003;4.070668e-002
1.716408e+003;4.011309e-002
1.718336e+003;4.071563e-002
1.720265e+003;4.205564e-002
1.722193e+003;4.263866e-002
1.724122e+003;4.281966e-002
1.726050e+003;4.311453e-002
1.727979e+003;4.329585e-002
1.729908e+003;4.321217e-002
1.731836e+003;4.224776e-002
1.733765e+003;4.105645e-002
1.735693e+003;4.164955e-002
1.737622e+003;4.205896e-002
1.739550e+003;4.152127e-002
1.741479e+003;4.116620e-002
1.743407e+003;4.048520e-002
1.745336e+003;3.941614e-002
1.747265e+003;3.823890e-002
1.749193e+003;3.700126e-002
1.751122e+003;3.592058e-002
1.753050e+003;3.535887e-002
1.754979e+003;3.449419e-002
1.756907e+003;3.368121e-002
1.758836e+003;3.320035e-002
1.760764e+003;3.228694e-002
1.762693e+003;3.150273e-002
1.764621e+003;3.124935e-002
1.766550e+003;3.066922e-002
1.768479e+003;3.008212e-002
1.770407e+003;2.929096e-002
1.772336e+003;2.839691e-002
1.774264e+003;2.857342e-002
1.776193e+003;2.871088e-002
1.778121e+003;2.847385e-002
1.780050e+003;2.824974e-002
1.781978e+003;2.799232e-002
1.783907e+003;2.773950e-002
1.785835e+003;2.752524e-002
1.787764e+003;2.737113e-002
1.789693e+003;2.682618e-002
1.791621e+003;2.587293e-002
1.793550e+003;2.583122e-002
1.795478e+003;2.629022e-002
1.797407e+003;2.602524e-002
1.799335e+003;2.574954e-002
1.801264e+003;2.552846e-002
1.803192e+003;2.543014e-002
1.805121e+003;2.557319e-002
1.807049e+003;2.567853e-002
1.808978e+003;2.539143e-002
1.810907e+003;2.497704e-002
1.812835e+003;2.484980e-002
1.814764e+003;2.493682e-002
1.816692e+003;2.483552e-002
1.818621e+003;2.474719e-002
1.820549e+003;2.480626e-002
1.822478e+003;2.476104e-002
1.824406e+003;2.437220e-002
1.826335e+003;2.418793e-002
1.828264e+003;2.410442e-002
1.830192e+003;2.416656e-002
1.832121e+003;2.446975e-002
1.834049e+003;2.452984e-002
1.835978e+003;2.438359e-002
1.837906e+003;2.411973e-002
1.839835e+003;2.399096e-002
1.841763e+003;2.358804e-002
1.843692e+003;2.305256e-002
1.845620e+003;2.327142e-002
1.847549e+003;2.340109e-002
1.849478e+003;2.320923e-002
1.851406e+003;2.328736e-002
1.853335e+003;2.336889e-002
1.855263e+003;2.314391e-002
1.857192e+003;2.302210e-002
1.859120e+003;2.294168e-002
1.861049e+003;2.286620e-002
1.862977e+003;2.288492e-002
1.864906e+003;2.280871e-002
1.866834e+003;2.261554e-002
1.868763e+003;2.251011e-002
1.870692e+003;2.272369e-002
1.872620e+003;2.287804e-002
1.874549e+003;2.289243e-002
1.876477e+003;2.299338e-002
1.878406e+003;2.301280e-002
1.880334e+003;2.297612e-002
1.882263e+003;2.297361e-002
1.884191e+003;2.294056e-002
1.886120e+003;2.297839e-002
1.888048e+003;2.294203e-002
1.889977e+003;2.301553e-002
1.891906e+003;2.324425e-002
1.893834e+003;2.322381e-002
1.895763e+003;2.306088e-002
1.897691e+003;2.295142e-002
1.899620e+003;2.313321e-002
1.901548e+003;2.346432e-002
1.903477e+003;2.355460e-002
1.905405e+003;2.346859e-002
1.907334e+003;2.334151e-002
1.909262e+003;2.313709e-002
1.911191e+003;2.287643e-002
1.913120e+003;2.280152e-002
1.915048e+003;2.257111e-002
1.916977e+003;2.217212e-002
1.918905e+003;2.223562e-002
1.920834e+003;2.248156e-002
1.922762e+003;2.270382e-002
1.924691e+003;2.284004e-002
1.926619e+003;2.281531e-002
1.928548e+003;2.287042e-002
1.930477e+003;2.281765e-002
1.932405e+003;2.270232e-002
1.934334e+003;2.268410e-002
1.936262e+003;2.265338e-002
1.938191e+003;2.262346e-002
1.940119e+003;2.259893e-002
1.942048e+003;2.241429e-002
1.943976e+003;2.227685e-002
1.945905e+003;2.237616e-002
1.947833e+003;2.245141e-002
1.949762e+003;2.245619e-002
1.951691e+003;2.246512e-002
1.953619e+003;2.259505e-002
1.955548e+003;2.271144e-002
1.957476e+003;2.279482e-002
1.959405e+003;2.272966e-002
1.961333e+003;2.278626e-002
1.963262e+003;2.307119e-002
1.965190e+003;2.307241e-002
1.967119e+003;2.301668e-002
1.969047e+003;2.316554e-002
1.970976e+003;2.327218e-002
1.972905e+003;2.327628e-002
1.974833e+003;2.332616e-002
1.976762e+003;2.339955e-002
1.978690e+003;2.342040e-002
1.980619e+003;2.335308e-002
1.982547e+003;2.321112e-002
1.984476e+003;2.315922e-002
1.986404e+003;2.312116e-002
1.988333e+003;2.313814e-002
1.990261e+003;2.319039e-002
1.992190e+003;2.319839e-002
1.994119e+003;2.328215e-002
1.996047e+003;2.332697e-002
1.997976e+003;2.329610e-002
1.999904e+003;2.330085e-002
2.001833e+003;2.337469e-002
2.003761e+003;2.360305e-002
2.005690e+003;2.372646e-002
2.007618e+003;2.352203e-002
2.009547e+003;2.334057e-002
2.011476e+003;2.335662e-002
2.013404e+003;2.362810e-002
2.015333e+003;2.396540e-002
2.017261e+003;2.396168e-002
2.019190e+003;2.380884e-002
2.021118e+003;2.386733e-002
2.023047e+003;2.397765e-002
2.024975e+003;2.402219e-002
2.026904e+003;2.401662e-002
2.028833e+003;2.420877e-002
2.030761e+003;2.441776e-002
2.032690e+003;2.446021e-002
2.034618e+003;2.442846e-002
2.036547e+003;2.431462e-002
2.038475e+003;2.446684e-002
2.040404e+003;2.477998e-002
2.042332e+003;2.489899e-002
2.044261e+003;2.485871e-002
2.046189e+003;2.475297e-002
2.048118e+003;2.488804e-002
2.050047e+003;2.499592e-002
2.051975e+003;2.478191e-002
2.053904e+003;2.478760e-002
2.055832e+003;2.502256e-002
2.057761e+003;2.514767e-002
2.059689e+003;2.484243e-002
2.061618e+003;2.476623e-002
2.063546e+003;2.503800e-002
2.065475e+003;2.530211e-002
2.067404e+003;2.529189e-002
2.069332e+003;2.518103e-002
2.071260e+003;2.525266e-002
2.073189e+003;2.523303e-002
2.075118e+003;2.498848e-002
2.077046e+003;2.489373e-002
2.078975e+003;2.484534e-002
2.080903e+003;2.487468e-002
2.082832e+003;2.509315e-002
2.084760e+003;2.501522e-002
2.086689e+003;2.474887e-002
2.088617e+003;2.466785e-002
2.090546e+003;2.457100e-002
2.092475e+003;2.456486e-002
2.094403e+003;2.461676e-002
2.096332e+003;2.462163e-002
2.098260e+003;2.468514e-002
2.100189e+003;2.463317e-002
2.102117e+003;2.466673e-002
2.104046e+003;2.470436e-002
2.105974e+003;2.467486e-002
2.107903e+003;2.470555e-002
2.109832e+003;2.468447e-002
2.111760e+003;2.493292e-002
2.113688e+003;2.507093e-002
2.115617e+003;2.502372e-002
2.117546e+003;2.511857e-002
2.119474e+003;2.522818e-002
2.121403e+003;2.524950e-002
2.123331e+003;2.522632e-002
2.125260e+003;2.532666e-002
2.127188e+003;2.554216e-002
2.129117e+003;2.564415e-002
2.131045e+003;2.575169e-002
2.132974e+003;2.588485e-002
2.134903e+003;2.582690e-002
2.136831e+003;2.565185e-002
2.138760e+003;2.555710e-002
2.140688e+003;2.547747e-002
2.142617e+003;2.549388e-002
2.144545e+003;2.571861e-002
2.146474e+003;2.577025e-002
2.148402e+003;2.574283e-002
2.150331e+003;2.569625e-002
2.152260e+003;2.574578e-002
2.154188e+003;2.574142e-002
2.156117e+003;2.573098e-002
2.158045e+003;2.588876e-002
2.159974e+003;2.593525e-002
2.161902e+003;2.613547e-002
2.163831e+003;2.626358e-002
2.165759e+003;2.616630e-002
2.167688e+003;2.611210e-002
2.169616e+003;2.629797e-002
2.171545e+003;2.632719e-002
2.173474e+003;2.629540e-002
2.175402e+003;2.616077e-002
2.177331e+003;2.604184e-002
2.179259e+003;2.624580e-002
2.181188e+003;2.635352e-002
2.183116e+003;2.640806e-002
2.185045e+003;2.635940e-002
2.186973e+003;2.632353e-002
2.188902e+003;2.644376e-002
2.190831e+003;2.673970e-002
2.192759e+003;2.694907e-002
2.194688e+003;2.697963e-002
2.196616e+003;2.683817e-002
2.198545e+003;2.674287e-002
2.200473e+003;2.669583e-002
2.202402e+003;2.671659e-002
2.204330e+003;2.670531e-002
2.206259e+003;2.653160e-002
2.208188e+003;2.631553e-002
2.210116e+003;2.623295e-002
2.212044e+003;2.621705e-002
2.213973e+003;2.611918e-002
2.215902e+003;2.590908e-002
2.217830e+003;2.581881e-002
2.219759e+003;2.598963e-002
2.221687e+003;2.603568e-002
2.223616e+003;2.594095e-002
2.225544e+003;2.574283e-002
2.227473e+003;2.562967e-002
2.229401e+003;2.540373e-002
2.231330e+003;2.526165e-002
2.233259e+003;2.516958e-002
2.235187e+003;2.497630e-002
2.237116e+003;2.493749e-002
2.239044e+003;2.510340e-002
2.240973e+003;2.511158e-002
2.242901e+003;2.523496e-002
2.244830e+003;2.532919e-002
2.246758e+003;2.509655e-002
2.248687e+003;2.502400e-002
2.250615e+003;2.536217e-002
2.252544e+003;2.559653e-002
2.254473e+003;2.568679e-002
2.256401e+003;2.582250e-002
2.258330e+003;2.590972e-002
2.260258e+003;2.570465e-002
2.262187e+003;2.567456e-002
2.264115e+003;2.597609e-002
2.266044e+003;2.605331e-002
2.267972e+003;2.604624e-002
2.269901e+003;2.598140e-002
2.271830e+003;2.596016e-002
2.273758e+003;2.613593e-002
2.275687e+003;2.613364e-002
2.277615e+003;2.630152e-002
2.279544e+003;2.642246e-002
2.281472e+003;2.631198e-002
2.283401e+003;2.621666e-002
2.285329e+003;2.632191e-002
2.287258e+003;2.641450e-002
2.289187e+003;2.657795e-002
2.291115e+003;2.658426e-002
2.293043e+003;2.655770e-002
2.294972e+003;2.647095e-002
2.296901e+003;2.632997e-002
2.298829e+003;2.636204e-002
2.300758e+003;2.665482e-002
2.302686e+003;2.675810e-002
2.304615e+003;2.669129e-002
2.306543e+003;2.667159e-002
2.308472e+003;2.678650e-002
2.310400e+003;2.696285e-002
2.312329e+003;2.693888e-002
2.314258e+003;2.693895e-002
2.316186e+003;2.690810e-002
2.318115e+003;2.673036e-002
2.320043e+003;2.679845e-002
2.321972e+003;2.695115e-002
2.323900e+003;2.682160e-002
2.325829e+003;2.662276e-002
2.327757e+003;2.669551e-002
2.329686e+003;2.690722e-002
2.331615e+003;2.707999e-002
2.333543e+003;2.710834e-002
2.335472e+003;2.688893e-002
2.337400e+003;2.669967e-002
2.339329e+003;2.651385e-002
2.341257e+003;2.643317e-002
2.343186e+003;2.635873e-002
2.345114e+003;2.633645e-002
2.347043e+003;2.668882e-002
2.348971e+003;2.682125e-002
2.350900e+003;2.685812e-002
2.352829e+003;2.681078e-002
2.354757e+003;2.634817e-002
2.356686e+003;2.619357e-002
2.358614e+003;2.654667e-002
2.360543e+003;2.665042e-002
2.362471e+003;2.655573e-002
2.364400e+003;2.653248e-002
2.366328e+003;2.671239e-002
2.368257e+003;2.686485e-002
2.370186e+003;2.705266e-002
2.372114e+003;2.742947e-002
2.374042e+003;2.756481e-002
2.375971e+003;2.748566e-002
2.377900e+003;2.752354e-002
2.379828e+003;2.753597e-002
2.381757e+003;2.761361e-002
2.383685e+003;2.771425e-002
2.385614e+003;2.769783e-002
2.387542e+003;2.768508e-002
2.389471e+003;2.774212e-002
2.391399e+003;2.768494e-002
2.393328e+003;2.768787e-002
2.395257e+003;2.767537e-002
2.397185e+003;2.786247e-002
2.399114e+003;2.813067e-002
2.401042e+003;2.809153e-002
2.402971e+003;2.797773e-002
2.404899e+003;2.798674e-002
2.406828e+003;2.782781e-002
2.408756e+003;2.770959e-002
2.410685e+003;2.769723e-002
2.412614e+003;2.773982e-002
2.414542e+003;2.775639e-002
2.416471e+003;2.782417e-002
2.418399e+003;2.792744e-002
2.420328e+003;2.789027e-002
2.422256e+003;2.798843e-002
2.424185e+003;2.830190e-002
2.426113e+003;2.830067e-002
2.428042e+003;2.810804e-002
2.429970e+003;2.809574e-002
2.431899e+003;2.829193e-002
2.433828e+003;2.852766e-002
2.435756e+003;2.861008e-002
2.437685e+003;2.862778e-002
2.439613e+003;2.861284e-002
2.441542e+003;2.894146e-002
2.443470e+003;2.931935e-002
2.445399e+003;2.920767e-002
2.447327e+003;2.917818e-002
2.449256e+003;2.945322e-002
2.451185e+003;2.961275e-002
2.453113e+003;2.965482e-002
2.455042e+003;2.973958e-002
2.456970e+003;2.977630e-002
2.458899e+003;2.992367e-002
2.460827e+003;3.023232e-002
2.462756e+003;3.030053e-002
2.464684e+003;3.015084e-002
2.466613e+003;3.025825e-002
2.468542e+003;3.056697e-002
2.470470e+003;3.066325e-002
2.472398e+003;3.055111e-002
2.474327e+003;3.058997e-002
2.476256e+003;3.077349e-002
2.478184e+003;3.072153e-002
2.480113e+003;3.060444e-002
2.482041e+003;3.070108e-002
2.483970e+003;3.062744e-002
2.485898e+003;3.074134e-002
2.487827e+003;3.085719e-002
2.489755e+003;3.078352e-002
2.491684e+003;3.074671e-002
2.493613e+003;3.086811e-002
2.495541e+003;3.092151e-002
2.497470e+003;3.095698e-002
2.499398e+003;3.096613e-002
2.501327e+003;3.110621e-002
2.503255e+003;3.114807e-002
2.505184e+003;3.085480e-002
2.507112e+003;3.086868e-002
2.509041e+003;3.130832e-002
2.510969e+003;3.141004e-002
2.512898e+003;3.130220e-002
2.514827e+003;3.132214e-002
2.516755e+003;3.137068e-002
2.518684e+003;3.153893e-002
2.520612e+003;3.175091e-002
2.522541e+003;3.195485e-002
2.524469e+003;3.207841e-002
2.526398e+003;3.245726e-002
2.528326e+003;3.305119e-002
2.530255e+003;3.334945e-002
2.532184e+003;3.330823e-002
2.534112e+003;3.313243e-002
2.536041e+003;3.307837e-002
2.537969e+003;3.344295e-002
2.539898e+003;3.385429e-002
2.541826e+003;3.385655e-002
2.543755e+003;3.403357e-002
2.545683e+003;3.432207e-002
2.547612e+003;3.425821e-002
2.549541e+003;3.411511e-002
2.551469e+003;3.408561e-002
2.553397e+003;3.411091e-002
2.555326e+003;3.415123e-002
2.557255e+003;3.425584e-002
2.559183e+003;3.442471e-002
2.561112e+003;3.447191e-002
2.563040e+003;3.433817e-002
2.564969e+003;3.419981e-002
2.566897e+003;3.416579e-002
2.568826e+003;3.413779e-002
2.570754e+003;3.414213e-002
2.572683e+003;3.441244e-002
2.574612e+003;3.484937e-002
2.576540e+003;3.494890e-002
2.578469e+003;3.478299e-002
2.580397e+003;3.490761e-002
2.582326e+003;3.530572e-002
2.584254e+003;3.563832e-002
2.586183e+003;3.590583e-002
2.588111e+003;3.592522e-002
2.590040e+003;3.583609e-002
2.591969e+003;3.570591e-002
2.593897e+003;3.573948e-002
2.595826e+003;3.614382e-002
2.597754e+003;3.630449e-002
2.599683e+003;3.618491e-002
2.601611e+003;3.633533e-002
2.603540e+003;3.659796e-002
2.605468e+003;3.637802e-002
2.607397e+003;3.616147e-002
2.609325e+003;3.636847e-002
2.611254e+003;3.652706e-002
2.613183e+003;3.662006e-002
2.615111e+003;3.673139e-002
2.617040e+003;3.664641e-002
2.618968e+003;3.655232e-002
2.620897e+003;3.678862e-002
2.622825e+003;3.690602e-002
2.624754e+003;3.685577e-002
2.626682e+003;3.703821e-002
2.628611e+003;3.726040e-002
2.630540e+003;3.750290e-002
2.632468e+003;3.781706e-002
2.634396e+003;3.790060e-002
2.636325e+003;3.772601e-002
2.638254e+003;3.761496e-002
2.640182e+003;3.762501e-002
2.642111e+003;3.771130e-002
2.644039e+003;3.769710e-002
2.645968e+003;3.781391e-002
2.647896e+003;3.808623e-002
2.649825e+003;3.822175e-002
2.651753e+003;3.824892e-002
2.653682e+003;3.828055e-002
2.655611e+003;3.831030e-002
2.657539e+003;3.832973e-002
2.659468e+003;3.850232e-002
2.661396e+003;3.864862e-002
2.663325e+003;3.850946e-002
2.665253e+003;3.861526e-002
2.667182e+003;3.896988e-002
2.669110e+003;3.905717e-002
2.671039e+003;3.903480e-002
2.672968e+003;3.889494e-002
2.674896e+003;3.912032e-002
2.676825e+003;3.962463e-002
2.678753e+003;3.985915e-002
2.680682e+003;3.964372e-002
2.682610e+003;3.948530e-002
2.684539e+003;3.941995e-002
2.686467e+003;3.964550e-002
2.688396e+003;4.009627e-002
2.690324e+003;4.051087e-002
2.692253e+003;4.071891e-002
2.694182e+003;4.075381e-002
2.696110e+003;4.074267e-002
2.698039e+003;4.077375e-002
2.699967e+003;4.116358e-002
2.701896e+003;4.157669e-002
2.703824e+003;4.184966e-002
2.705753e+003;4.232544e-002
2.707681e+003;4.232372e-002
2.709610e+003;4.201589e-002
2.711539e+003;4.209200e-002
2.713467e+003;4.259644e-002
2.715396e+003;4.325543e-002
2.717324e+003;4.352719e-002
2.719253e+003;4.353958e-002
2.721181e+003;4.367856e-002
2.723110e+003;4.396771e-002
2.725038e+003;4.407273e-002
2.726967e+003;4.438416e-002
2.728896e+003;4.485031e-002
2.730824e+003;4.534215e-002
2.732752e+003;4.606177e-002
2.734681e+003;4.632191e-002
2.736610e+003;4.630816e-002
2.738538e+003;4.627336e-002
2.740467e+003;4.632924e-002
2.742395e+003;4.671708e-002
2.744324e+003;4.691187e-002
2.746252e+003;4.676169e-002
2.748181e+003;4.677324e-002
2.750109e+003;4.683897e-002
2.752038e+003;4.691833e-002
2.753967e+003;4.711416e-002
2.755895e+003;4.729793e-002
2.757824e+003;4.749941e-002
2.759752e+003;4.756273e-002
2.761681e+003;4.738599e-002
2.763609e+003;4.748463e-002
2.765538e+003;4.787586e-002
2.767466e+003;4.813358e-002
2.769395e+003;4.830300e-002
2.771323e+003;4.857275e-002
2.773252e+003;4.871670e-002
2.775181e+003;4.897948e-002
2.777109e+003;4.948946e-002
2.779038e+003;4.976861e-002
2.780966e+003;4.986319e-002
2.782895e+003;5.000949e-002
2.784823e+003;5.064603e-002
2.786752e+003;5.115090e-002
2.788680e+003;5.120864e-002
2.790609e+003;5.146760e-002
2.792538e+003;5.179535e-002
2.794466e+003;5.209545e-002
2.796395e+003;5.268115e-002
2.798323e+003;5.299956e-002
2.800252e+003;5.309919e-002
2.802180e+003;5.339217e-002
2.804109e+003;5.385444e-002
2.806037e+003;5.449608e-002
2.807966e+003;5.494509e-002
2.809895e+003;5.531966e-002
2.811823e+003;5.575166e-002
2.813751e+003;5.629641e-002
2.815680e+003;5.705914e-002
2.817609e+003;5.805118e-002
2.819537e+003;5.905019e-002
2.821466e+003;5.949888e-002
2.823394e+003;5.956367e-002
2.825323e+003;5.984143e-002
2.827251e+003;6.045851e-002
2.829180e+003;6.135824e-002
2.831108e+003;6.256500e-002
2.833037e+003;6.393579e-002
2.834966e+003;6.523440e-002
2.836894e+003;6.710275e-002
2.838823e+003;6.980783e-002
2.840751e+003;7.317901e-002
2.842680e+003;7.759600e-002
2.844608e+003;8.280031e-002
2.846537e+003;8.828951e-002
2.848465e+003;9.429242e-002
2.850394e+003;1.000177e-001
2.852323e+003;1.040912e-001
2.854251e+003;1.067514e-001
2.856180e+003;1.089954e-001
2.858108e+003;1.106389e-001
2.860037e+003;1.111588e-001
2.861965e+003;1.104955e-001
2.863894e+003;1.096113e-001
2.865822e+003;1.086770e-001
2.867751e+003;1.073573e-001
2.869679e+003;1.054377e-001
2.871608e+003;1.026115e-001
2.873536e+003;9.937830e-002
2.875465e+003;9.594283e-002
2.877394e+003;9.253155e-002
2.879322e+003;8.984448e-002
2.881251e+003;8.808568e-002
2.883179e+003;8.694497e-002
2.885108e+003;8.650544e-002
2.887036e+003;8.673741e-002
2.888965e+003;8.749165e-002
2.890893e+003;8.921634e-002
2.892822e+003;9.155245e-002
2.894750e+003;9.381702e-002
2.896679e+003;9.605037e-002
2.898608e+003;9.804522e-002
2.900536e+003;9.957265e-002
2.902465e+003;1.007496e-001
2.904393e+003;1.021884e-001
2.906322e+003;1.038068e-001
2.908250e+003;1.058795e-001
2.910179e+003;1.084437e-001
2.912107e+003;1.116562e-001
2.914036e+003;1.156823e-001
2.915965e+003;1.196857e-001
2.917893e+003;1.235729e-001
2.919822e+003;1.276658e-001
2.921750e+003;1.312583e-001
2.923679e+003;1.340564e-001
2.925607e+003;1.365411e-001
2.927536e+003;1.385350e-001
2.929464e+003;1.404140e-001
2.931393e+003;1.420398e-001
2.933322e+003;1.426989e-001
2.935250e+003;1.420491e-001
2.937178e+003;1.400256e-001
2.939107e+003;1.371304e-001
2.941036e+003;1.339144e-001
2.942964e+003;1.302639e-001
2.944893e+003;1.262408e-001
2.946821e+003;1.210744e-001
2.948750e+003;1.145848e-001
2.950678e+003;1.077223e-001
2.952607e+003;1.006654e-001
2.954535e+003;9.415840e-002
2.956464e+003;8.873504e-002
2.958393e+003;8.378480e-002
2.960321e+003;7.942858e-002
2.962250e+003;7.604464e-002
2.964178e+003;7.323180e-002
2.966107e+003;6.985943e-002
2.968035e+003;6.665444e-002
2.969964e+003;6.441230e-002
2.971892e+003;6.235220e-002
2.973821e+003;6.009028e-002
2.975750e+003;5.787923e-002
2.977678e+003;5.618557e-002
2.979607e+003;5.451986e-002
2.981535e+003;5.303090e-002
2.983464e+003;5.194575e-002
2.985392e+003;5.084870e-002
2.987321e+003;4.983862e-002
2.989249e+003;4.923339e-002
2.991178e+003;4.906865e-002
2.993106e+003;4.894769e-002
2.995035e+003;4.831356e-002
2.996964e+003;4.800533e-002
2.998892e+003;4.776385e-002
3.000821e+003;4.750821e-002
3.002749e+003;4.762758e-002
3.004678e+003;4.775017e-002
3.006606e+003;4.780584e-002
3.008535e+003;4.794923e-002
3.010463e+003;4.801277e-002
3.012392e+003;4.806854e-002
3.014321e+003;4.798620e-002
3.016249e+003;4.803971e-002
3.018177e+003;4.826234e-002
3.020106e+003;4.870517e-002
3.022035e+003;4.915843e-002
3.023963e+003;4.957168e-002
3.025892e+003;5.000209e-002
3.027820e+003;5.032082e-002
3.029749e+003;5.072829e-002
3.031677e+003;5.134824e-002
3.033606e+003;5.193376e-002
3.035534e+003;5.229038e-002
3.037463e+003;5.295521e-002
3.039392e+003;5.375547e-002
3.041320e+003;5.419402e-002
3.043249e+003;5.471758e-002
3.045177e+003;5.548028e-002
3.047106e+003;5.636907e-002
3.049034e+003;5.742370e-002
3.050963e+003;5.834392e-002
3.052891e+003;5.917400e-002
3.054820e+003;5.997660e-002
3.056749e+003;6.038871e-002
3.058677e+003;6.085555e-002
3.060606e+003;6.163863e-002
3.062534e+003;6.212827e-002
3.064463e+003;6.231525e-002
3.066391e+003;6.275466e-002
3.068320e+003;6.323927e-002
3.070248e+003;6.336631e-002
3.072177e+003;6.325832e-002
3.074105e+003;6.331851e-002
3.076034e+003;6.308162e-002
3.077963e+003;6.310507e-002
3.079891e+003;6.349986e-002
3.081820e+003;6.344238e-002
3.083748e+003;6.305090e-002
3.085677e+003;6.272725e-002
3.087605e+003;6.230382e-002
3.089534e+003;6.187660e-002
3.091462e+003;6.169442e-002
3.093391e+003;6.106064e-002
3.095320e+003;6.018142e-002
3.097248e+003;5.963004e-002
3.099177e+003;5.900802e-002
3.101105e+003;5.824607e-002
3.103034e+003;5.758135e-002
3.104962e+003;5.729128e-002
3.106891e+003;5.674087e-002
3.108819e+003;5.578256e-002
3.110748e+003;5.529166e-002
3.112677e+003;5.479489e-002
3.114605e+003;5.420671e-002
3.116533e+003;5.395576e-002
3.118462e+003;5.343189e-002
3.120391e+003;5.300540e-002
3.122319e+003;5.246229e-002
3.124248e+003;5.210681e-002
3.126176e+003;5.199870e-002
3.128105e+003;5.208039e-002
3.130033e+003;5.218227e-002
3.131962e+003;5.189369e-002
3.133890e+003;5.213983e-002
3.135819e+003;5.230638e-002
3.137748e+003;5.194418e-002
3.139676e+003;5.181775e-002
3.141605e+003;5.197435e-002
3.143533e+003;5.219826e-002
3.145462e+003;5.258693e-002
3.147390e+003;5.285150e-002
3.149319e+003;5.273674e-002
3.151247e+003;5.289936e-002
3.153176e+003;5.331079e-002
3.155104e+003;5.351171e-002
3.157033e+003;5.356909e-002
3.158962e+003;5.393366e-002
3.160890e+003;5.467349e-002
3.162819e+003;5.523552e-002
3.164747e+003;5.548868e-002
3.166676e+003;5.562405e-002
3.168604e+003;5.588143e-002
3.170533e+003;5.666770e-002
3.172461e+003;5.768113e-002
3.174390e+003;5.853030e-002
3.176319e+003;5.887193e-002
3.178247e+003;5.928770e-002
3.180176e+003;5.981176e-002
3.182104e+003;6.042854e-002
3.184033e+003;6.123129e-002
3.185961e+003;6.202995e-002
3.187890e+003;6.234069e-002
3.189818e+003;6.260625e-002
3.191747e+003;6.325369e-002
3.193676e+003;6.357661e-002
3.195604e+003;6.385993e-002
3.197532e+003;6.443940e-002
3.199461e+003;6.514889e-002
3.201390e+003;6.554151e-002
3.203318e+003;6.542496e-002
3.205247e+003;6.592279e-002
3.207175e+003;6.658859e-002
3.209104e+003;6.685811e-002
3.211032e+003;6.709347e-002
3.212961e+003;6.724051e-002
3.214889e+003;6.747562e-002
3.216818e+003;6.817838e-002
3.218747e+003;6.870747e-002
3.220675e+003;6.943459e-002
3.222604e+003;7.033794e-002
3.224532e+003;7.106307e-002
3.226461e+003;7.151654e-002
3.228389e+003;7.238344e-002
3.230318e+003;7.351737e-002
3.232246e+003;7.475298e-002
3.234175e+003;7.604851e-002
3.236104e+003;7.732709e-002
3.238032e+003;7.862514e-002
3.239961e+003;8.026189e-002
3.241889e+003;8.203148e-002
3.243818e+003;8.344782e-002
3.245746e+003;8.515835e-002
3.247675e+003;8.705234e-002
3.249603e+003;8.882995e-002
3.251532e+003;9.077685e-002
3.253460e+003;9.273984e-002
3.255389e+003;9.475882e-002
3.257318e+003;9.716907e-002
3.259246e+003;9.970132e-002
3.261175e+003;1.017604e-001
3.263103e+003;1.038846e-001
3.265032e+003;1.060431e-001
3.266960e+003;1.085270e-001
3.268889e+003;1.110142e-001
3.270817e+003;1.133232e-001
3.272746e+003;1.158678e-001
3.274675e+003;1.186285e-001
3.276603e+003;1.214138e-001
3.278531e+003;1.240420e-001
3.280460e+003;1.267981e-001
3.282389e+003;1.294939e-001
3.284317e+003;1.320447e-001
3.286246e+003;1.345604e-001
3.288174e+003;1.369683e-001
3.290103e+003;1.389753e-001
3.292031e+003;1.400515e-001
3.293960e+003;1.404967e-001
3.295888e+003;1.396715e-001
3.297817e+003;1.375470e-001
3.299746e+003;1.350563e-001
3.301674e+003;1.319876e-001
3.303603e+003;1.281766e-001
3.305531e+003;1.241902e-001
3.307460e+003;1.207862e-001
3.309388e+003;1.171339e-001
3.311317e+003;1.134714e-001
3.313245e+003;1.102725e-001
3.315174e+003;1.072668e-001
3.317103e+003;1.039930e-001
3.319031e+003;1.005635e-001
3.320960e+003;9.717550e-002
3.322888e+003;9.389795e-002
3.324817e+003;9.075107e-002
3.326745e+003;8.792516e-002
3.328674e+003;8.541965e-002
3.330602e+003;8.312820e-002
3.332531e+003;8.053309e-002
3.334459e+003;7.779678e-002
3.336388e+003;7.584661e-002
3.338317e+003;7.425866e-002
3.340245e+003;7.248385e-002
3.342174e+003;7.052058e-002
3.344102e+003;6.878445e-002
3.346031e+003;6.693789e-002
3.347959e+003;6.543455e-002
3.349888e+003;6.408488e-002
3.351816e+003;6.249673e-002
3.353745e+003;6.109824e-002
3.355674e+003;5.988463e-002
3.357602e+003;5.872322e-002
3.359531e+003;5.756717e-002
3.361459e+003;5.660383e-002
3.363388e+003;5.599536e-002
3.365316e+003;5.504738e-002
3.367245e+003;5.381224e-002
3.369173e+003;5.288293e-002
3.371102e+003;5.237635e-002
3.373031e+003;5.155993e-002
3.374959e+003;5.045894e-002
3.376887e+003;5.005574e-002
3.378816e+003;4.988511e-002
3.380745e+003;4.918934e-002
3.382673e+003;4.888283e-002
3.384602e+003;4.865132e-002
3.386530e+003;4.790890e-002
3.388459e+003;4.723986e-002
3.390387e+003;4.701786e-002
3.392316e+003;4.679915e-002
3.394244e+003;4.629913e-002
3.396173e+003;4.611081e-002
3.398102e+003;4.616950e-002
3.400030e+003;4.577075e-002
3.401959e+003;4.534690e-002
3.403887e+003;4.516645e-002
3.405816e+003;4.503327e-002
3.407744e+003;4.443202e-002
3.409673e+003;4.397952e-002
3.411601e+003;4.383138e-002
3.413530e+003;4.370447e-002
3.415458e+003;4.335142e-002
3.417387e+003;4.295396e-002
3.419316e+003;4.281513e-002
3.421244e+003;4.290758e-002
3.423173e+003;4.283582e-002
3.425101e+003;4.265068e-002
3.427030e+003;4.255390e-002
3.428958e+003;4.241563e-002
3.430887e+003;4.223396e-002
3.432815e+003;4.224323e-002
3.434744e+003;4.203275e-002
3.436673e+003;4.185364e-002
3.438601e+003;4.180340e-002
3.440530e+003;4.163740e-002
3.442458e+003;4.184280e-002
3.444387e+003;4.179651e-002
3.446315e+003;4.134033e-002
3.448244e+003;4.115866e-002
3.450172e+003;4.139594e-002
3.452101e+003;4.155350e-002
3.454030e+003;4.096156e-002
3.455958e+003;4.071458e-002
3.457886e+003;4.081517e-002
3.459815e+003;4.069478e-002
3.461744e+003;4.016314e-002
3.463672e+003;3.985254e-002
3.465601e+003;3.995715e-002
3.467529e+003;4.013890e-002
3.469458e+003;3.976179e-002
3.471386e+003;3.950254e-002
3.473315e+003;3.947688e-002
3.475243e+003;3.938454e-002
3.477172e+003;3.960191e-002
3.479101e+003;3.961214e-002
3.481029e+003;3.960260e-002
3.482958e+003;3.970606e-002
3.484886e+003;3.976557e-002
3.486815e+003;3.967937e-002
3.488743e+003;3.925776e-002
3.490672e+003;3.908516e-002
3.492600e+003;3.941131e-002
3.494529e+003;3.949854e-002
3.496458e+003;3.899297e-002
3.498386e+003;3.875240e-002
3.500315e+003;3.908019e-002
3.502243e+003;3.904890e-002
3.504172e+003;3.874667e-002
3.506100e+003;3.852137e-002
3.508029e+003;3.800916e-002
3.509957e+003;3.745298e-002
3.511886e+003;3.737363e-002
3.513814e+003;3.772695e-002
3.515743e+003;3.784330e-002
3.517672e+003;3.756062e-002
3.519600e+003;3.718181e-002
3.521529e+003;3.694668e-002
3.523457e+003;3.687410e-002
3.525386e+003;3.666238e-002
3.527314e+003;3.634650e-002
3.529243e+003;3.631879e-002
3.531171e+003;3.653362e-002
3.533100e+003;3.639928e-002
3.535029e+003;3.623454e-002
3.536957e+003;3.585836e-002
3.538885e+003;3.535859e-002
3.540814e+003;3.498629e-002
3.542743e+003;3.454262e-002
3.544671e+003;3.413543e-002
3.546600e+003;3.389323e-002
3.548528e+003;3.379519e-002
3.550457e+003;3.340605e-002
3.552385e+003;3.296103e-002
3.554314e+003;3.278519e-002
3.556242e+003;3.264286e-002
3.558171e+003;3.281142e-002
3.560100e+003;3.275325e-002
3.562028e+003;3.229144e-002
3.563957e+003;3.202847e-002
3.565885e+003;3.146276e-002
3.567814e+003;3.107040e-002
3.569742e+003;3.117220e-002
3.571671e+003;3.079384e-002
3.573599e+003;3.035549e-002
3.575528e+003;3.052911e-002
3.577457e+003;3.043609e-002
3.579385e+003;2.984824e-002
3.581314e+003;2.960743e-002
3.583242e+003;2.964765e-002
3.585171e+003;2.912822e-002
3.587099e+003;2.830127e-002
3.589028e+003;2.817708e-002
3.590956e+003;2.814484e-002
3.592885e+003;2.742171e-002
3.594813e+003;2.692598e-002
3.596742e+003;2.679612e-002
3.598671e+003;2.680476e-002
3.600599e+003;2.657045e-002
3.602528e+003;2.626836e-002
3.604456e+003;2.613135e-002
3.606385e+003;2.572117e-002
3.608313e+003;2.509192e-002
3.610242e+003;2.486380e-002
3.612170e+003;2.457170e-002
3.614099e+003;2.461637e-002
3.616028e+003;2.406555e-002
3.617956e+003;2.348069e-002
3.619885e+003;2.381861e-002
3.621813e+003;2.406681e-002
3.623742e+003;2.384402e-002
3.625670e+003;2.367124e-002
3.627599e+003;2.262092e-002
3.629527e+003;2.226178e-002
3.631456e+003;2.293801e-002
3.633385e+003;2.290699e-002
3.635313e+003;2.279831e-002
3.637241e+003;2.268564e-002
3.639170e+003;2.237127e-002
3.641099e+003;2.213774e-002
3.643027e+003;2.158483e-002
3.644956e+003;2.074565e-002
3.646884e+003;1.985114e-002
3.648813e+003;1.969138e-002
3.650741e+003;2.031452e-002
3.652670e+003;2.073053e-002
3.654598e+003;2.035625e-002
3.656527e+003;2.009660e-002
3.658456e+003;2.036028e-002
3.660384e+003;2.010295e-002
3.662313e+003;1.983661e-002
3.664241e+003;1.995815e-002
3.666170e+003;2.012866e-002
3.668098e+003;1.967536e-002
3.670027e+003;1.903424e-002
3.671955e+003;1.912959e-002
3.673884e+003;1.846317e-002
3.675813e+003;1.791798e-002
3.677741e+003;1.871832e-002
3.679669e+003;1.886156e-002
3.681598e+003;1.864880e-002
3.683527e+003;1.866242e-002
3.685455e+003;1.854460e-002
3.687384e+003;1.715496e-002
3.689312e+003;1.655265e-002
3.691241e+003;1.698940e-002
3.693169e+003;1.719512e-002
3.695098e+003;1.697283e-002
3.697026e+003;1.669036e-002
3.698955e+003;1.646885e-002
3.700884e+003;1.629079e-002
3.702812e+003;1.633059e-002
3.704741e+003;1.616363e-002
3.706669e+003;1.611273e-002
3.708598e+003;1.606727e-002
3.710526e+003;1.548683e-002
3.712455e+003;1.538171e-002
3.714383e+003;1.557990e-002
3.716312e+003;1.572843e-002
3.718240e+003;1.579917e-002
3.720169e+003;1.567566e-002
3.722098e+003;1.536454e-002
3.724026e+003;1.525574e-002
3.725955e+003;1.558512e-002
3.727883e+003;1.581432e-002
3.729812e+003;1.540443e-002
3.731740e+003;1.525052e-002
3.733669e+003;1.527691e-002
3.735597e+003;1.500895e-002
3.737526e+003;1.575471e-002
3.739455e+003;1.636837e-002
3.741383e+003;1.563770e-002
3.743312e+003;1.408373e-002
3.745240e+003;1.424048e-002
3.747169e+003;1.480897e-002
3.749097e+003;1.420648e-002
3.751026e+003;1.407736e-002
3.752954e+003;1.473907e-002
3.754883e+003;1.562544e-002
3.756812e+003;1.577261e-002
3.758740e+003;1.586873e-002
3.760668e+003;1.628370e-002
3.762597e+003;1.673106e-002
3.764526e+003;1.657761e-002
3.766454e+003;1.631690e-002
3.768383e+003;1.600872e-002
3.770311e+003;1.617907e-002
3.772240e+003;1.655843e-002
3.774168e+003;1.666498e-002
3.776097e+003;1.660773e-002
3.778025e+003;1.646819e-002
3.779954e+003;1.628160e-002
3.781883e+003;1.637015e-002
3.783811e+003;1.640990e-002
3.785740e+003;1.614829e-002
3.787668e+003;1.618894e-002
3.789597e+003;1.636087e-002
3.791525e+003;1.600594e-002
3.793454e+003;1.577691e-002
3.795382e+003;1.551623e-002
3.797311e+003;1.561939e-002
3.799240e+003;1.560909e-002
3.801168e+003;1.543585e-002
3.803097e+003;1.612996e-002
3.805025e+003;1.574303e-002
3.806954e+003;1.541181e-002
3.808882e+003;1.629457e-002
3.810811e+003;1.644895e-002
3.812739e+003;1.614798e-002
3.814668e+003;1.569960e-002
3.816596e+003;1.589344e-002
3.818525e+003;1.609547e-002
3.820454e+003;1.580024e-002
3.822382e+003;1.636685e-002
3.824311e+003;1.685732e-002
3.826239e+003;1.653014e-002
3.828168e+003;1.686555e-002
3.830096e+003;1.717061e-002
3.832025e+003;1.698678e-002
3.833953e+003;1.652426e-002
3.835882e+003;1.552594e-002
3.837811e+003;1.538576e-002
3.839739e+003;1.639606e-002
3.841667e+003;1.678027e-002
3.843596e+003;1.700129e-002
3.845525e+003;1.745929e-002
3.847453e+003;1.753763e-002
3.849382e+003;1.678788e-002
3.851310e+003;1.565944e-002
3.853239e+003;1.513513e-002
3.855167e+003;1.631081e-002
3.857096e+003;1.691068e-002
3.859024e+003;1.692522e-002
3.860953e+003;1.736600e-002
3.862882e+003;1.745494e-002
3.864810e+003;1.699278e-002
3.866739e+003;1.674408e-002
3.868667e+003;1.669835e-002
3.870596e+003;1.710533e-002
3.872524e+003;1.751966e-002
3.874453e+003;1.729017e-002
3.876381e+003;1.724849e-002
3.878310e+003;1.719495e-002
3.880239e+003;1.718209e-002
3.882167e+003;1.749116e-002
3.884096e+003;1.737676e-002
3.886024e+003;1.721932e-002
3.887953e+003;1.743104e-002
3.889881e+003;1.737379e-002
3.891810e+003;1.764556e-002
3.893738e+003;1.819272e-002
3.895667e+003;1.836520e-002
3.897595e+003;1.795186e-002
3.899524e+003;1.761129e-002
3.901453e+003;1.742304e-002
3.903381e+003;1.727041e-002
3.905310e+003;1.821386e-002
3.907238e+003;1.915224e-002
3.909167e+003;1.889572e-002
3.911095e+003;1.851707e-002
3.913024e+003;1.848011e-002
3.914952e+003;1.804928e-002
3.916881e+003;1.764073e-002
3.918810e+003;1.784123e-002
3.920738e+003;1.813350e-002
3.922667e+003;1.847783e-002
3.924595e+003;1.869369e-002
3.926524e+003;1.890877e-002
3.928452e+003;1.916238e-002
3.930381e+003;1.932112e-002
3.932309e+003;1.966091e-002
3.934238e+003;2.015872e-002
3.936167e+003;2.016511e-002
3.938095e+003;1.965117e-002
3.940023e+003;1.978750e-002
3.941952e+003;1.957268e-002
3.943881e+003;1.933265e-002
3.945809e+003;1.987528e-002
3.947738e+003;1.999132e-002
3.949666e+003;1.936681e-002
3.951595e+003;1.947724e-002
3.953523e+003;2.025244e-002
3.955452e+003;2.030164e-002
3.957380e+003;2.044735e-002
3.959309e+003;2.054190e-002
3.961238e+003;2.018555e-002
3.963166e+003;2.007786e-002
3.965095e+003;2.045131e-002
3.967023e+003;2.067406e-002
3.968952e+003;2.125414e-002
3.970880e+003;2.148546e-002
3.972809e+003;2.084788e-002
3.974737e+003;2.066055e-002
3.976666e+003;2.094707e-002
3.978594e+003;2.111087e-002
3.980523e+003;2.129715e-002
3.982452e+003;2.106983e-002
3.984380e+003;2.075212e-002
3.986309e+003;2.123100e-002
3.988237e+003;2.162139e-002
3.990166e+003;2.134051e-002
3.992094e+003;2.140515e-002
3.994023e+003;2.191173e-002
3.995951e+003;2.232592e-002
3.997880e+003;2.231759e-002
3.999809e+003;2.238491e-002
4.001737e+003;0.000000e+000
