3.992094e+002;0.000000e+000
4.011380e+002;0.000000e+000
4.030665e+002;0.000000e+000
4.049951e+002;0.000000e+000
4.069236e+002;0.000000e+000
4.088522e+002;0.000000e+000
4.107807e+002;0.000000e+000
4.127093e+002;0.000000e+000
4.146378e+002;0.000000e+000
4.165664e+002;0.000000e+000
4.184949e+002;0.000000e+000
4.204235e+002;0.000000e+000
4.223520e+002;0.000000e+000
4.242806e+002;0.000000e+000
4.262091e+002;0.000000e+000
4.281377e+002;0.000000e+000
4.300662e+002;0.000000e+000
4.319948e+002;0.000000e+000
4.339233e+002;0.000000e+000
4.358519e+002;0.000000e+000
4.377804e+002;0.000000e+000
4.397090e+002;0.000000e+000
4.416375e+002;0.000000e+000
4.435660e+002;0.000000e+000
4.454946e+002;0.000000e+000
4.474232e+002;0.000000e+000
4.493517e+002;0.000000e+000
4.512802e+002;0.000000e+000
4.532088e+002;0.000000e+000
4.551373e+002;0.000000e+000
4.570659e+002;0.000000e+000
4.589944e+002;0.000000e+000
4.609230e+002;0.000000e+000
4.628515e+002;0.000000e+000
4.647801e+002;0.000000e+000
4.667086e+002;0.000000e+000
4.686372e+002;0.000000e+000
4.705657e+002;0.000000e+000
4.724943e+002;0.000000e+000
4.744228e+002;0.000000e+000
4.763513e+002;0.000000e+000
4.782799e+002;0.000000e+000
4.802085e+002;0.000000e+000
4.821370e+002;0.000000e+000
4.840656e+002;0.000000e+000
4.859941e+002;0.000000e+000
4.879226e+002;0.000000e+000
4.898512e+002;0.000000e+000
4.917798e+002;0.000000e+000
4.937083e+002;0.000000e+000
4.956368e+002;0.000000e+000
4.975654e+002;0.000000e+000
4.994939e+002;0.000000e+000
5.014225e+002;0.000000e+000
5.033510e+002;0.000000e+000
5.052796e+002;0.000000e+000
5.072081e+002;0.000000e+000
5.091367e+002;0.000000e+000
5.110652e+002;0.000000e+000
5.129938e+002;0.000000e+000
5.149223e+002;0.000000e+000
5.168509e+002;0.000000e+000
5.187794e+002;0.000000e+000
5.207079e+002;0.000000e+000
5.226365e+002;0.000000e+000
5.245651e+002;0.000000e+000
5.264936e+002;0.000000e+000
5.284222e+002;0.000000e+000
5.303507e+002;0.000000e+000
5.322792e+002;0.000000e+000
5.342078e+002;0.000000e+000
5.361364e+002;0.000000e+000
5.380649e+002;0.000000e+000
5.399935e+002;0.000000e+000
5.419220e+002;0.000000e+000
5.438505e+002;0.000000e+000
5.457791e+002;0.000000e+000
5.477076e+002;0.000000e+000
5.496362e+002;0.000000e+000
5.515648e+002;0.000000e+000
5.534933e+002;0.000000e+000
5.554218e+002;0.000000e+000
5.573504e+002;0.000000e+000
5.592789e+002;0.000000e+000
5.612075e+002;0.000000e+000
5.631360e+002;0.000000e+000
5.650646e+002;0.000000e+000
5.669931e+002;0.000000e+000
5.689217e+002;0.000000e+000
5.708502e+002;0.000000e+000
5.727787e+002;0.000000e+000
5.747073e+002;0.000000e+000
5.766359e+002;0.000000e+000
5.785644e+002;0.000000e+000
5.804930e+002;0.000000e+000
5.824215e+002;0.000000e+000
5.843500e+002;0.000000e+000
5.862786e+002;0.000000e+000
5.882072e+002;0.000000e+000
5.901357e+002;0.000000e+000
5.920643e+002;0.000000e+000
5.939928e+002;0.000000e+000
5.959213e+002;0.000000e+000
5.978499e+002;0.000000e+000
5.997784e+002;1.331864e-001
6.017070e+002;1.397062e-001
6.036355e+002;1.401393e-001
6.055641e+002;1.392520e-001
6.074926e+002;1.373840e-001
6.094211e+002;1.374974e-001
6.113497e+002;1.429548e-001
6.132783e+002;1.482857e-001
6.152068e+002;1.446969e-001
6.171354e+002;1.409376e-001
6.190639e+002;1.443014e-001
6.209924e+002;1.441540e-001
6.229210e+002;1.424755e-001
6.248495e+002;1.442436e-001
6.267781e+002;1.457350e-001
6.287067e+002;1.477272e-001
6.306352e+002;1.498365e-001
6.325637e+002;1.455284e-001
6.344923e+002;1.437107e-001
6.364208e+002;1.478707e-001
6.383494e+002;1.506533e-001
6.402780e+002;1.506022e-001
6.422065e+002;1.544265e-001
6.441350e+002;1.596827e-001
6.460636e+002;1.589596e-001
6.479921e+002;1.561070e-001
6.499207e+002;1.580975e-001
6.518492e+002;1.651169e-001
6.537778e+002;1.665607e-001
6.557063e+002;1.640209e-001
6.576349e+002;1.659003e-001
6.595634e+002;1.722926e-001
6.614919e+002;1.773187e-001
6.634205e+002;1.811729e-001
6.653491e+002;1.831954e-001
6.672776e+002;1.853547e-001
6.692062e+002;1.875732e-001
6.711347e+002;1.872082e-001
6.730632e+002;1.887136e-001
6.749918e+002;1.914375e-001
6.769203e+002;1.924631e-001
6.788489e+002;1.917889e-001
6.807775e+002;1.914199e-001
6.827060e+002;1.924678e-001
6.846345e+002;1.936200e-001
6.865631e+002;1.921678e-001
6.884916e+002;1.901459e-001
6.904202e+002;1.886592e-001
6.923488e+002;1.876566e-001
6.942773e+002;1.849118e-001
6.962058e+002;1.801208e-001
6.981344e+002;1.767394e-001
7.000629e+002;1.744446e-001
7.019915e+002;1.727862e-001
7.039200e+002;1.712122e-001
7.058486e+002;1.692515e-001
7.077771e+002;1.683810e-001
7.097057e+002;1.671441e-001
7.116342e+002;1.657892e-001
7.135627e+002;1.648508e-001
7.154913e+002;1.613514e-001
7.174199e+002;1.575052e-001
7.193484e+002;1.573583e-001
7.212770e+002;1.577203e-001
7.232055e+002;1.572436e-001
7.251340e+002;1.575693e-001
7.270626e+002;1.570819e-001
7.289911e+002;1.553318e-001
7.309197e+002;1.516026e-001
7.328483e+002;1.461407e-001
7.347768e+002;1.386378e-001
7.367053e+002;1.308892e-001
7.386339e+002;1.246128e-001
7.405624e+002;1.197367e-001
7.424910e+002;1.169992e-001
7.444196e+002;1.150666e-001
7.463481e+002;1.125453e-001
7.482766e+002;1.098920e-001
7.502052e+002;1.073097e-001
7.521337e+002;1.055338e-001
7.540623e+002;1.039041e-001
7.559908e+002;1.020611e-001
7.579194e+002;1.006410e-001
7.598479e+002;9.996401e-002
7.617765e+002;9.906521e-002
7.637050e+002;9.746681e-002
7.656335e+002;9.638946e-002
7.675621e+002;9.545736e-002
7.694907e+002;9.435327e-002
7.714192e+002;9.427780e-002
7.733478e+002;9.391848e-002
7.752763e+002;9.218337e-002
7.772048e+002;9.038756e-002
7.791334e+002;8.856785e-002
7.810620e+002;8.693558e-002
7.829905e+002;8.562005e-002
7.849191e+002;8.405034e-002
7.868476e+002;8.248161e-002
7.887761e+002;8.139926e-002
7.907047e+002;8.023781e-002
7.926332e+002;7.906574e-002
7.945618e+002;7.808082e-002
7.964903e+002;7.735160e-002
7.984189e+002;7.693662e-002
8.003474e+002;7.532577e-002
8.022759e+002;7.383915e-002
8.042045e+002;7.303767e-002
8.061331e+002;7.162105e-002
8.080616e+002;7.041594e-002
8.099902e+002;7.025921e-002
8.119187e+002;6.958830e-002
8.138472e+002;6.813140e-002
8.157758e+002;6.735267e-002
8.177043e+002;6.759650e-002
8.196329e+002;6.752822e-002
8.215615e+002;6.784806e-002
8.234900e+002;6.831645e-002
8.254185e+002;6.848090e-002
8.273471e+002;6.968252e-002
8.292756e+002;7.170600e-002
8.312042e+002;7.260156e-002
8.331328e+002;7.267610e-002
8.350613e+002;7.131454e-002
8.369898e+002;6.860758e-002
8.389184e+002;6.631498e-002
8.408469e+002;6.437349e-002
8.427755e+002;6.253041e-002
8.447040e+002;6.115378e-002
8.466326e+002;6.022836e-002
8.485611e+002;5.985055e-002
8.504897e+002;5.997527e-002
8.524182e+002;5.950827e-002
8.543467e+002;5.899303e-002
8.562753e+002;5.867315e-002
8.582039e+002;5.836666e-002
8.601324e+002;5.819250e-002
8.620610e+002;5.765915e-002
8.639895e+002;5.744284e-002
8.659180e+002;5.786216e-002
8.678466e+002;5.850009e-002
8.697751e+002;5.856556e-002
8.717037e+002;5.865741e-002
8.736323e+002;5.884347e-002
8.755608e+002;5.903285e-002
8.774893e+002;5.928284e-002
8.794179e+002;5.934102e-002
8.813464e+002;5.952419e-002
8.832750e+002;6.001948e-002
8.852036e+002;6.094346e-002
8.871321e+002;6.167521e-002
8.890606e+002;6.172009e-002
8.909892e+002;6.149576e-002
8.929177e+002;6.135133e-002
8.948463e+002;6.158990e-002
8.967748e+002;6.197779e-002
8.987034e+002;6.198034e-002
9.006319e+002;6.210143e-002
9.025605e+002;6.283924e-002
9.044890e+002;6.355820e-002
9.064175e+002;6.418443e-002
9.083461e+002;6.456894e-002
9.102747e+002;6.486192e-002
9.122032e+002;6.534304e-002
9.141318e+002;6.614401e-002
9.160603e+002;6.700756e-002
9.179888e+002;6.799199e-002
9.199174e+002;6.937876e-002
9.218459e+002;7.077283e-002
9.237745e+002;7.218722e-002
9.257031e+002;7.390946e-002
9.276316e+002;7.543980e-002
9.295601e+002;7.574466e-002
9.314887e+002;7.475274e-002
9.334172e+002;7.316482e-002
9.353458e+002;7.133059e-002
9.372744e+002;7.018372e-002
9.392029e+002;7.006060e-002
9.411314e+002;7.053024e-002
9.430600e+002;7.126070e-002
9.449885e+002;7.224615e-002
9.469171e+002;7.391375e-002
9.488456e+002;7.604089e-002
9.507742e+002;7.790092e-002
9.527027e+002;7.856939e-002
9.546313e+002;7.900915e-002
9.565598e+002;8.002602e-002
9.584883e+002;8.067930e-002
9.604169e+002;8.059193e-002
9.623455e+002;7.962479e-002
9.642740e+002;7.831888e-002
9.662026e+002;7.767738e-002
9.681311e+002;7.729974e-002
9.700596e+002;7.687104e-002
9.719882e+002;7.627796e-002
9.739167e+002;7.577413e-002
9.758453e+002;7.536786e-002
9.777739e+002;7.441865e-002
9.797024e+002;7.343383e-002
9.816309e+002;7.284974e-002
9.835595e+002;7.206873e-002
9.854880e+002;7.152650e-002
9.874166e+002;7.080547e-002
9.893452e+002;6.992046e-002
9.912737e+002;6.886124e-002
9.932022e+002;6.815679e-002
9.951307e+002;6.778810e-002
9.970593e+002;6.718219e-002
9.989879e+002;6.644338e-002
1.000916e+003;6.619117e-002
1.002845e+003;6.614301e-002
1.004773e+003;6.623335e-002
1.006702e+003;6.656862e-002
1.008631e+003;6.671962e-002
1.010559e+003;6.663386e-002
1.012488e+003;6.635227e-002
1.014416e+003;6.610648e-002
1.016345e+003;6.626005e-002
1.018273e+003;6.684049e-002
1.020202e+003;6.705550e-002
1.022130e+003;6.777048e-002
1.024059e+003;6.946134e-002
1.025988e+003;7.095312e-002
1.027916e+003;7.161675e-002
1.029845e+003;7.205875e-002
1.031773e+003;7.184900e-002
1.033702e+003;7.114300e-002
1.035630e+003;7.033825e-002
1.037559e+003;6.922365e-002
1.039487e+003;6.848811e-002
1.041416e+003;6.792818e-002
1.043344e+003;6.713028e-002
1.045273e+003;6.685781e-002
1.047202e+003;6.748587e-002
1.049130e+003;6.819544e-002
1.051059e+003;6.885414e-002
1.052987e+003;6.966567e-002
1.054916e+003;7.051672e-002
1.056844e+003;7.202875e-002
1.058773e+003;7.386594e-002
1.060701e+003;7.523620e-002
1.062630e+003;7.617461e-002
1.064558e+003;7.737564e-002
1.066487e+003;7.839456e-002
1.068416e+003;7.938171e-002
1.070344e+003;8.036458e-002
1.072273e+003;8.141656e-002
1.074201e+003;8.190050e-002
1.076130e+003;8.058064e-002
1.078058e+003;7.910232e-002
1.079987e+003;7.882623e-002
1.081915e+003;7.825464e-002
1.083844e+003;7.737203e-002
1.085773e+003;7.684086e-002
1.087701e+003;7.665290e-002
1.089630e+003;7.655425e-002
1.091558e+003;7.678016e-002
1.093487e+003;7.738732e-002
1.095415e+003;7.810394e-002
1.097344e+003;7.908852e-002
1.099272e+003;8.040421e-002
1.101201e+003;8.193635e-002
1.103129e+003;8.386844e-002
1.105058e+003;8.566629e-002
1.106987e+003;8.775367e-002
1.108915e+003;8.939338e-002
1.110844e+003;9.029458e-002
1.112772e+003;9.109634e-002
1.114701e+003;9.166354e-002
1.116629e+003;9.183208e-002
1.118558e+003;9.164783e-002
1.120486e+003;9.098639e-002
1.122415e+003;8.938971e-002
1.124344e+003;8.715478e-002
1.126272e+003;8.448140e-002
1.128201e+003;8.162820e-002
1.130129e+003;7.870528e-002
1.132058e+003;7.635151e-002
1.133986e+003;7.502605e-002
1.135915e+003;7.462846e-002
1.137843e+003;7.531489e-002
1.139772e+003;7.611744e-002
1.141700e+003;7.726593e-002
1.143629e+003;7.915018e-002
1.145557e+003;8.101601e-002
1.147486e+003;8.302256e-002
1.149415e+003;8.561226e-002
1.151343e+003;8.886723e-002
1.153272e+003;9.250752e-002
1.155200e+003;9.615294e-002
1.157129e+003;1.003342e-001
1.159057e+003;1.053755e-001
1.160986e+003;1.110273e-001
1.162914e+003;1.169973e-001
1.164843e+003;1.229011e-001
1.166771e+003;1.277355e-001
1.168700e+003;1.301170e-001
1.170629e+003;1.291605e-001
1.172557e+003;1.256501e-001
1.174486e+003;1.212299e-001
1.176414e+003;1.163789e-001
1.178343e+003;1.118810e-001
1.180271e+003;1.088473e-001
1.182200e+003;1.078288e-001
1.184128e+003;1.090189e-001
1.186057e+003;1.115631e-001
1.187986e+003;1.146178e-001
1.189914e+003;1.181515e-001
1.191843e+003;1.224409e-001
1.193771e+003;1.271551e-001
1.195700e+003;1.317021e-001
1.197628e+003;1.355797e-001
1.199557e+003;1.368019e-001
1.201485e+003;1.341476e-001
1.203414e+003;1.300522e-001
1.205343e+003;1.268305e-001
1.207271e+003;1.249011e-001
1.209200e+003;1.236852e-001
1.211128e+003;1.230182e-001
1.213057e+003;1.224925e-001
1.214985e+003;1.207937e-001
1.216914e+003;1.176849e-001
1.218842e+003;1.146292e-001
1.220771e+003;1.131849e-001
1.222699e+003;1.135207e-001
1.224628e+003;1.154321e-001
1.226557e+003;1.188628e-001
1.228485e+003;1.231251e-001
1.230414e+003;1.277785e-001
1.232342e+003;1.320993e-001
1.234271e+003;1.354912e-001
1.236199e+003;1.377593e-001
1.238128e+003;1.384329e-001
1.240056e+003;1.382389e-001
1.241985e+003;1.381251e-001
1.243913e+003;1.384909e-001
1.245842e+003;1.391574e-001
1.247771e+003;1.408332e-001
1.249699e+003;1.433895e-001
1.251628e+003;1.460294e-001
1.253556e+003;1.492336e-001
1.255485e+003;1.524116e-001
1.257413e+003;1.545553e-001
1.259342e+003;1.557533e-001
1.261270e+003;1.558467e-001
1.263199e+003;1.542158e-001
1.265127e+003;1.502841e-001
1.267056e+003;1.441669e-001
1.268985e+003;1.375751e-001
1.270913e+003;1.327664e-001
1.272842e+003;1.303495e-001
1.274770e+003;1.295571e-001
1.276699e+003;1.292458e-001
1.278627e+003;1.286561e-001
1.280556e+003;1.275188e-001
1.282484e+003;1.259248e-001
1.284413e+003;1.245069e-001
1.286342e+003;1.230202e-001
1.288270e+003;1.220001e-001
1.290199e+003;1.216361e-001
1.292127e+003;1.208510e-001
1.294056e+003;1.196031e-001
1.295984e+003;1.188863e-001
1.297913e+003;1.187811e-001
1.299841e+003;1.186884e-001
1.301770e+003;1.179619e-001
1.303698e+003;1.169245e-001
1.305627e+003;1.158200e-001
1.307556e+003;1.146821e-001
1.309484e+003;1.132617e-001
1.311413e+003;1.118397e-001
1.313341e+003;1.109285e-001
1.315270e+003;1.099862e-001
1.317198e+003;1.087322e-001
1.319127e+003;1.075461e-001
1.321055e+003;1.065533e-001
1.322984e+003;1.060605e-001
1.324912e+003;1.060203e-001
1.326841e+003;1.061253e-001
1.328770e+003;1.062869e-001
1.330698e+003;1.066762e-001
1.332627e+003;1.070924e-001
1.334555e+003;1.074732e-001
1.336484e+003;1.079365e-001
1.338412e+003;1.083895e-001
1.340341e+003;1.090727e-001
1.342269e+003;1.098749e-001
1.344198e+003;1.107585e-001
1.346126e+003;1.119470e-001
1.348055e+003;1.130776e-001
1.349984e+003;1.142457e-001
1.351912e+003;1.158082e-001
1.353841e+003;1.174685e-001
1.355769e+003;1.192485e-001
1.357698e+003;1.212533e-001
1.359626e+003;1.232078e-001
1.361555e+003;1.250495e-001
1.363483e+003;1.266165e-001
1.365412e+003;1.282359e-001
1.367341e+003;1.302164e-001
1.369269e+003;1.319774e-001
1.371198e+003;1.323616e-001
1.373126e+003;1.313827e-001
1.375055e+003;1.297735e-001
1.376983e+003;1.275348e-001
1.378912e+003;1.243854e-001
1.380840e+003;1.208931e-001
1.382769e+003;1.175673e-001
1.384698e+003;1.144930e-001
1.386626e+003;1.113070e-001
1.388555e+003;1.085643e-001
1.390483e+003;1.066418e-001
1.392412e+003;1.051384e-001
1.394340e+003;1.041455e-001
1.396269e+003;1.044178e-001
1.398197e+003;1.054953e-001
1.400126e+003;1.071366e-001
1.402054e+003;1.100462e-001
1.403983e+003;1.139021e-001
1.405911e+003;1.188438e-001
1.407840e+003;1.250532e-001
1.409769e+003;1.321440e-001
1.411697e+003;1.393985e-001
1.413626e+003;1.453887e-001
1.415554e+003;1.493671e-001
1.417483e+003;1.504876e-001
1.419411e+003;1.485913e-001
1.421340e+003;1.447121e-001
1.423268e+003;1.408690e-001
1.425197e+003;1.382148e-001
1.427125e+003;1.375538e-001
1.429054e+003;1.386821e-001
1.430983e+003;1.408423e-001
1.432911e+003;1.430793e-001
1.434840e+003;1.443826e-001
1.436768e+003;1.442306e-001
1.438697e+003;1.436593e-001
1.440625e+003;1.429832e-001
1.442554e+003;1.424564e-001
1.444482e+003;1.423247e-001
1.446411e+003;1.425020e-001
1.448340e+003;1.435212e-001
1.450268e+003;1.454956e-001
1.452197e+003;1.478565e-001
1.454125e+003;1.506591e-001
1.456054e+003;1.537045e-001
1.457982e+003;1.580664e-001
1.459911e+003;1.639272e-001
1.461839e+003;1.683040e-001
1.463768e+003;1.676941e-001
1.465697e+003;1.620540e-001
1.467625e+003;1.548949e-001
1.469554e+003;1.491739e-001
1.471482e+003;1.465010e-001
1.473411e+003;1.469053e-001
1.475339e+003;1.480795e-001
1.477268e+003;1.473950e-001
1.479196e+003;1.442358e-001
1.481125e+003;1.389131e-001
1.483053e+003;1.324099e-001
1.484982e+003;1.265063e-001
1.486911e+003;1.225394e-001
1.488839e+003;1.212117e-001
1.490768e+003;1.223975e-001
1.492696e+003;1.252634e-001
1.494625e+003;1.287829e-001
1.496553e+003;1.328515e-001
1.498482e+003;1.377630e-001
1.500410e+003;1.434235e-001
1.502339e+003;1.493699e-001
1.504267e+003;1.555501e-001
1.506196e+003;1.622202e-001
1.508125e+003;1.696796e-001
1.510053e+003;1.772706e-001
1.511982e+003;1.852017e-001
1.513910e+003;1.935989e-001
1.515839e+003;2.019830e-001
1.517767e+003;2.106885e-001
1.519696e+003;2.196723e-001
1.521624e+003;2.290586e-001
1.523553e+003;2.388151e-001
1.525481e+003;2.482259e-001
1.527410e+003;2.573599e-001
1.529339e+003;2.660381e-001
1.531267e+003;2.737628e-001
1.533196e+003;2.800443e-001
1.535124e+003;2.842765e-001
1.537053e+003;2.859124e-001
1.538981e+003;2.844481e-001
1.540910e+003;2.803246e-001
1.542838e+003;2.739611e-001
1.544767e+003;2.651525e-001
1.546695e+003;2.545044e-001
1.548624e+003;2.426002e-001
1.550553e+003;2.306921e-001
1.552481e+003;2.194719e-001
1.554410e+003;2.087124e-001
1.556338e+003;1.982986e-001
1.558267e+003;1.881070e-001
1.560195e+003;1.791569e-001
1.562124e+003;1.711980e-001
1.564052e+003;1.632060e-001
1.565981e+003;1.552480e-001
1.567910e+003;1.473576e-001
1.569838e+003;1.395508e-001
1.571767e+003;1.327889e-001
1.573695e+003;1.266595e-001
1.575624e+003;1.206911e-001
1.577552e+003;1.157046e-001
1.579481e+003;1.123013e-001
1.581409e+003;1.094615e-001
1.583338e+003;1.071499e-001
1.585266e+003;1.059961e-001
1.587195e+003;1.056951e-001
1.589124e+003;1.056035e-001
1.591052e+003;1.062708e-001
1.592981e+003;1.081090e-001
1.594909e+003;1.107100e-001
1.596838e+003;1.141950e-001
1.598766e+003;1.185261e-001
1.600695e+003;1.236713e-001
1.602623e+003;1.301119e-001
1.604552e+003;1.376426e-001
1.606480e+003;1.459189e-001
1.608409e+003;1.549961e-001
1.610338e+003;1.647751e-001
1.612266e+003;1.753745e-001
1.614195e+003;1.872317e-001
1.616123e+003;2.009604e-001
1.618052e+003;2.169490e-001
1.619980e+003;2.344308e-001
1.621909e+003;2.529161e-001
1.623837e+003;2.721013e-001
1.625766e+003;2.916549e-001
1.627694e+003;3.115974e-001
1.629623e+003;3.322413e-001
1.631552e+003;3.513357e-001
1.633480e+003;3.662683e-001
1.635409e+003;3.744410e-001
1.637337e+003;3.734698e-001
1.639266e+003;3.632371e-001
1.641194e+003;3.456330e-001
1.643123e+003;3.234423e-001
1.645051e+003;2.995051e-001
1.646980e+003;2.764455e-001
1.648909e+003;2.561908e-001
1.650837e+003;2.378246e-001
1.652766e+003;2.213110e-001
1.654694e+003;2.079377e-001
1.656623e+003;1.965099e-001
1.658551e+003;1.859180e-001
1.660480e+003;1.757057e-001
1.662408e+003;1.654971e-001
1.664337e+003;1.557040e-001
1.666266e+003;1.461762e-001
1.668194e+003;1.370078e-001
1.670123e+003;1.284331e-001
1.672051e+003;1.206650e-001
1.673980e+003;1.129295e-001
1.675908e+003;1.052569e-001
1.677837e+003;9.798738e-002
1.679765e+003;9.051765e-002
1.681694e+003;8.256339e-002
1.683622e+003;7.461651e-002
1.685551e+003;6.808384e-002
1.687479e+003;6.313258e-002
1.689408e+003;5.882352e-002
1.691337e+003;5.534759e-002
1.693265e+003;5.246278e-002
1.695194e+003;4.979384e-002
1.697122e+003;4.818026e-002
1.699051e+003;4.703396e-002
1.700979e+003;4.603226e-002
1.702908e+003;4.570695e-002
1.704836e+003;4.518461e-002
1.706765e+003;4.467896e-002
1.708693e+003;4.449023e-002
1.710622e+003;4.438460e-002
1.712551e+003;4.418148e-002
1.714479e+003;4.431814e-002
1.716408e+003;4.424865e-002
1.718336e+003;4.393028e-002
1.720265e+003;4.408069e-002
1.722193e+003;4.416560e-002
1.724122e+003;4.384967e-002
1.726050e+003;4.356774e-002
1.727979e+003;4.309916e-002
1.729908e+003;4.240533e-002
1.731836e+003;4.154256e-002
1.733765e+003;4.070122e-002
1.735693e+003;4.007403e-002
1.737622e+003;3.926715e-002
1.739550e+003;3.822743e-002
1.741479e+003;3.752038e-002
1.743407e+003;3.694267e-002
1.745336e+003;3.635114e-002
1.747265e+003;3.573718e-002
1.749193e+003;3.516209e-002
1.751122e+003;3.471271e-002
1.753050e+003;3.457312e-002
1.754979e+003;3.431716e-002
1.756907e+003;3.373155e-002
1.758836e+003;3.298873e-002
1.760764e+003;3.234326e-002
1.762693e+003;3.200668e-002
1.764621e+003;3.169173e-002
1.766550e+003;3.121186e-002
1.768479e+003;3.067263e-002
1.770407e+003;3.004143e-002
1.772336e+003;2.947333e-002
1.774264e+003;2.911642e-002
1.776193e+003;2.880736e-002
1.778121e+003;2.862374e-002
1.780050e+003;2.813498e-002
1.781978e+003;2.761760e-002
1.783907e+003;2.747236e-002
1.785835e+003;2.719645e-002
1.787764e+003;2.682206e-002
1.789693e+003;2.639109e-002
1.791621e+003;2.602794e-002
1.793550e+003;2.593958e-002
1.795478e+003;2.586066e-002
1.797407e+003;2.557762e-002
1.799335e+003;2.540060e-002
1.801264e+003;2.528602e-002
1.803192e+003;2.503709e-002
1.805121e+003;2.475434e-002
1.807049e+003;2.463590e-002
1.808978e+003;2.470769e-002
1.810907e+003;2.477381e-002
1.812835e+003;2.464162e-002
1.814764e+003;2.448885e-002
1.816692e+003;2.419164e-002
1.818621e+003;2.397152e-002
1.820549e+003;2.393161e-002
1.822478e+003;2.373454e-002
1.824406e+003;2.341484e-002
1.826335e+003;2.333980e-002
1.828264e+003;2.344921e-002
1.830192e+003;2.360186e-002
1.832121e+003;2.351336e-002
1.834049e+003;2.326984e-002
1.835978e+003;2.317980e-002
1.837906e+003;2.296148e-002
1.839835e+003;2.271308e-002
1.841763e+003;2.273947e-002
1.843692e+003;2.259453e-002
1.845620e+003;2.247587e-002
1.847549e+003;2.217115e-002
1.849478e+003;2.190462e-002
1.851406e+003;2.162435e-002
1.853335e+003;2.154726e-002
1.855263e+003;2.169060e-002
1.857192e+003;2.169230e-002
1.859120e+003;2.164459e-002
1.861049e+003;2.167203e-002
1.862977e+003;2.151550e-002
1.864906e+003;2.142144e-002
1.866834e+003;2.132771e-002
1.868763e+003;2.136199e-002
1.870692e+003;2.118281e-002
1.872620e+003;2.098845e-002
1.874549e+003;2.110266e-002
1.876477e+003;2.131820e-002
1.878406e+003;2.146109e-002
1.880334e+003;2.140671e-002
1.882263e+003;2.139996e-002
1.884191e+003;2.127714e-002
1.886120e+003;2.125567e-002
1.888048e+003;2.132523e-002
1.889977e+003;2.128949e-002
1.891906e+003;2.110736e-002
1.893834e+003;2.105961e-002
1.895763e+003;2.147163e-002
1.897691e+003;2.175476e-002
1.899620e+003;2.166033e-002
1.901548e+003;2.153162e-002
1.903477e+003;2.160461e-002
1.905405e+003;2.158995e-002
1.907334e+003;2.141615e-002
1.909262e+003;2.120418e-002
1.911191e+003;2.101039e-002
1.913120e+003;2.101919e-002
1.915048e+003;2.099068e-002
1.916977e+003;2.093500e-002
1.918905e+003;2.097513e-002
1.920834e+003;2.073377e-002
1.922762e+003;2.052796e-002
1.924691e+003;2.076477e-002
1.926619e+003;2.071875e-002
1.928548e+003;2.042102e-002
1.930477e+003;2.035119e-002
1.932405e+003;2.035480e-002
1.934334e+003;2.050466e-002
1.936262e+003;2.057261e-002
1.938191e+003;2.042606e-002
1.940119e+003;2.030577e-002
1.942048e+003;2.026938e-002
1.943976e+003;2.027973e-002
1.945905e+003;2.023522e-002
1.947833e+003;2.041321e-002
1.949762e+003;2.063827e-002
1.951691e+003;2.049524e-002
1.953619e+003;2.035830e-002
1.955548e+003;2.042074e-002
1.957476e+003;2.058879e-002
1.959405e+003;2.060679e-002
1.961333e+003;2.058664e-002
1.963262e+003;2.057952e-002
1.965190e+003;2.062406e-002
1.967119e+003;2.080853e-002
1.969047e+003;2.094978e-002
1.970976e+003;2.083936e-002
1.972905e+003;2.079449e-002
1.974833e+003;2.093650e-002
1.976762e+003;2.104667e-002
1.978690e+003;2.118772e-002
1.980619e+003;2.114093e-002
1.982547e+003;2.098094e-002
1.984476e+003;2.086509e-002
1.986404e+003;2.077506e-002
1.988333e+003;2.087750e-002
1.990261e+003;2.078371e-002
1.992190e+003;2.066312e-002
1.994119e+003;2.088852e-002
1.996047e+003;2.118862e-002
1.997976e+003;2.124175e-002
1.999904e+003;2.103491e-002
2.001833e+003;2.103196e-002
2.003761e+003;2.106207e-002
2.005690e+003;2.092962e-002
2.007618e+003;2.107658e-002
2.009547e+003;2.113926e-002
2.011476e+003;2.112068e-002
2.013404e+003;2.102712e-002
2.015333e+003;2.114183e-002
2.017261e+003;2.150265e-002
2.019190e+003;2.159427e-002
2.021118e+003;2.139954e-002
2.023047e+003;2.149287e-002
2.024975e+003;2.172529e-002
2.026904e+003;2.185207e-002
2.028833e+003;2.181618e-002
2.030761e+003;2.172675e-002
2.032690e+003;2.180987e-002
2.034618e+003;2.207324e-002
2.036547e+003;2.233946e-002
2.038475e+003;2.239486e-002
2.040404e+003;2.248003e-002
2.042332e+003;2.241896e-002
2.044261e+003;2.227971e-002
2.046189e+003;2.218949e-002
2.048118e+003;2.218248e-002
2.050047e+003;2.222966e-002
2.051975e+003;2.210173e-002
2.053904e+003;2.202217e-002
2.055832e+003;2.225045e-002
2.057761e+003;2.244855e-002
2.059689e+003;2.252811e-002
2.061618e+003;2.260388e-002
2.063546e+003;2.247996e-002
2.065475e+003;2.235715e-002
2.067404e+003;2.251307e-002
2.069332e+003;2.262427e-002
2.071260e+003;2.265362e-002
2.073189e+003;2.265338e-002
2.075118e+003;2.265806e-002
2.077046e+003;2.274230e-002
2.078975e+003;2.261404e-002
2.080903e+003;2.240431e-002
2.082832e+003;2.223716e-002
2.084760e+003;2.214147e-002
2.086689e+003;2.206773e-002
2.088617e+003;2.211536e-002
2.090546e+003;2.214336e-002
2.092475e+003;2.199300e-002
2.094403e+003;2.190580e-002
2.096332e+003;2.210201e-002
2.098260e+003;2.210040e-002
2.100189e+003;2.183263e-002
2.102117e+003;2.183688e-002
2.104046e+003;2.215577e-002
2.105974e+003;2.214520e-002
2.107903e+003;2.214744e-002
2.109832e+003;2.238163e-002
2.111760e+003;2.262221e-002
2.113688e+003;2.258926e-002
2.115617e+003;2.240065e-002
2.117546e+003;2.248379e-002
2.119474e+003;2.269590e-002
2.121403e+003;2.265956e-002
2.123331e+003;2.257966e-002
2.125260e+003;2.269845e-002
2.127188e+003;2.279132e-002
2.129117e+003;2.282939e-002
2.131045e+003;2.277812e-002
2.132974e+003;2.287206e-002
2.134903e+003;2.282352e-002
2.136831e+003;2.277404e-002
2.138760e+003;2.280561e-002
2.140688e+003;2.280875e-002
2.142617e+003;2.292694e-002
2.144545e+003;2.319913e-002
2.146474e+003;2.338291e-002
2.148402e+003;2.323118e-002
2.150331e+003;2.314642e-002
2.152260e+003;2.328148e-002
2.154188e+003;2.340837e-002
2.156117e+003;2.327687e-002
2.158045e+003;2.320172e-002
2.159974e+003;2.314803e-002
2.161902e+003;2.306242e-002
2.163831e+003;2.319025e-002
2.165759e+003;2.356369e-002
2.167688e+003;2.366778e-002
2.169616e+003;2.354015e-002
2.171545e+003;2.372114e-002
2.173474e+003;2.392856e-002
2.175402e+003;2.397485e-002
2.177331e+003;2.403228e-002
2.179259e+003;2.410088e-002
2.181188e+003;2.418078e-002
2.183116e+003;2.406800e-002
2.185045e+003;2.397201e-002
2.186973e+003;2.395114e-002
2.188902e+003;2.401183e-002
2.190831e+003;2.411052e-002
2.192759e+003;2.418618e-002
2.194688e+003;2.413146e-002
2.196616e+003;2.396102e-002
2.198545e+003;2.390322e-002
2.200473e+003;2.397145e-002
2.202402e+003;2.399159e-002
2.204330e+003;2.398136e-002
2.206259e+003;2.392272e-002
2.208188e+003;2.378420e-002
2.210116e+003;2.354480e-002
2.212044e+003;2.334351e-002
2.213973e+003;2.323219e-002
2.215902e+003;2.318015e-002
2.217830e+003;2.313458e-002
2.219759e+003;2.298810e-002
2.221687e+003;2.298898e-002
2.223616e+003;2.324600e-002
2.225544e+003;2.327655e-002
2.227473e+003;2.308988e-002
2.229401e+003;2.287926e-002
2.231330e+003;2.297172e-002
2.233259e+003;2.319993e-002
2.235187e+003;2.305899e-002
2.237116e+003;2.292743e-002
2.239044e+003;2.297836e-002
2.240973e+003;2.288104e-002
2.242901e+003;2.275511e-002
2.244830e+003;2.281999e-002
2.246758e+003;2.272331e-002
2.248687e+003;2.268717e-002
2.250615e+003;2.273074e-002
2.252544e+003;2.279261e-002
2.254473e+003;2.289662e-002
2.256401e+003;2.295911e-002
2.258330e+003;2.322388e-002
2.260258e+003;2.338190e-002
2.262187e+003;2.330735e-002
2.264115e+003;2.333399e-002
2.266044e+003;2.350605e-002
2.267972e+003;2.346135e-002
2.269901e+003;2.344537e-002
2.271830e+003;2.350836e-002
2.273758e+003;2.346198e-002
2.275687e+003;2.336022e-002
2.277615e+003;2.335774e-002
2.279544e+003;2.344610e-002
2.281472e+003;2.352042e-002
2.283401e+003;2.359455e-002
2.285329e+003;2.390609e-002
2.287258e+003;2.401375e-002
2.289187e+003;2.387944e-002
2.291115e+003;2.379047e-002
2.293043e+003;2.383831e-002
2.294972e+003;2.391008e-002
2.296901e+003;2.403088e-002
2.298829e+003;2.411521e-002
2.300758e+003;2.410463e-002
2.302686e+003;2.420275e-002
2.304615e+003;2.426431e-002
2.306543e+003;2.421505e-002
2.308472e+003;2.428918e-002
2.310400e+003;2.427317e-002
2.312329e+003;2.420440e-002
2.314258e+003;2.420699e-002
2.316186e+003;2.414260e-002
2.318115e+003;2.423939e-002
2.320043e+003;2.445040e-002
2.321972e+003;2.451153e-002
2.323900e+003;2.429879e-002
2.325829e+003;2.435377e-002
2.327757e+003;2.449471e-002
2.329686e+003;2.451308e-002
2.331615e+003;2.454284e-002
2.333543e+003;2.436747e-002
2.335472e+003;2.411496e-002
2.337400e+003;2.393283e-002
2.339329e+003;2.389243e-002
2.341257e+003;2.392125e-002
2.343186e+003;2.388312e-002
2.345114e+003;2.386912e-002
2.347043e+003;2.402513e-002
2.348971e+003;2.407878e-002
2.350900e+003;2.395223e-002
2.352829e+003;2.392800e-002
2.354757e+003;2.374129e-002
2.356686e+003;2.378427e-002
2.358614e+003;2.386975e-002
2.360543e+003;2.381990e-002
2.362471e+003;2.375760e-002
2.364400e+003;2.376551e-002
2.366328e+003;2.389198e-002
2.368257e+003;2.407129e-002
2.370186e+003;2.414155e-002
2.372114e+003;2.430625e-002
2.374042e+003;2.436113e-002
2.375971e+003;2.423162e-002
2.377900e+003;2.421393e-002
2.379828e+003;2.432377e-002
2.381757e+003;2.457191e-002
2.383685e+003;2.477307e-002
2.385614e+003;2.481991e-002
2.387542e+003;2.458110e-002
2.389471e+003;2.441622e-002
2.391399e+003;2.437560e-002
2.393328e+003;2.438797e-002
2.395257e+003;2.468335e-002
2.397185e+003;2.476567e-002
2.399114e+003;2.446351e-002
2.401042e+003;2.451055e-002
2.402971e+003;2.476645e-002
2.404899e+003;2.483057e-002
2.406828e+003;2.479823e-002
2.408756e+003;2.473098e-002
2.410685e+003;2.463646e-002
2.412614e+003;2.465814e-002
2.414542e+003;2.469942e-002
2.416471e+003;2.470832e-002
2.418399e+003;2.476315e-002
2.420328e+003;2.476269e-002
2.422256e+003;2.473859e-002
2.424185e+003;2.475701e-002
2.426113e+003;2.486338e-002
2.428042e+003;2.485482e-002
2.429970e+003;2.493594e-002
2.431899e+003;2.511295e-002
2.433828e+003;2.526881e-002
2.435756e+003;2.530941e-002
2.437685e+003;2.539937e-002
2.439613e+003;2.550657e-002
2.441542e+003;2.582468e-002
2.443470e+003;2.602618e-002
2.445399e+003;2.583513e-002
2.447327e+003;2.585366e-002
2.449256e+003;2.605848e-002
2.451185e+003;2.610306e-002
2.453113e+003;2.624531e-002
2.455042e+003;2.638179e-002
2.456970e+003;2.628012e-002
2.458899e+003;2.636401e-002
2.460827e+003;2.634933e-002
2.462756e+003;2.630592e-002
2.464684e+003;2.652388e-002
2.466613e+003;2.686566e-002
2.468542e+003;2.729933e-002
2.470470e+003;2.747741e-002
2.472398e+003;2.746611e-002
2.474327e+003;2.755373e-002
2.476256e+003;2.756817e-002
2.478184e+003;2.757367e-002
2.480113e+003;2.750967e-002
2.482041e+003;2.746127e-002
2.483970e+003;2.754511e-002
2.485898e+003;2.748965e-002
2.487827e+003;2.741356e-002
2.489755e+003;2.744769e-002
2.491684e+003;2.754614e-002
2.493613e+003;2.757950e-002
2.495541e+003;2.771722e-002
2.497470e+003;2.772191e-002
2.499398e+003;2.765054e-002
2.501327e+003;2.760097e-002
2.503255e+003;2.756425e-002
2.505184e+003;2.762847e-002
2.507112e+003;2.764807e-002
2.509041e+003;2.783979e-002
2.510969e+003;2.830548e-002
2.512898e+003;2.850580e-002
2.514827e+003;2.855718e-002
2.516755e+003;2.855817e-002
2.518684e+003;2.874246e-002
2.520612e+003;2.918446e-002
2.522541e+003;2.938834e-002
2.524469e+003;2.947120e-002
2.526398e+003;2.965301e-002
2.528326e+003;2.964116e-002
2.530255e+003;2.947117e-002
2.532184e+003;2.972617e-002
2.534112e+003;3.002950e-002
2.536041e+003;3.014722e-002
2.537969e+003;3.035795e-002
2.539898e+003;3.042710e-002
2.541826e+003;3.056309e-002
2.543755e+003;3.073156e-002
2.545683e+003;3.082503e-002
2.547612e+003;3.097442e-002
2.549541e+003;3.135373e-002
2.551469e+003;3.166835e-002
2.553397e+003;3.158699e-002
2.555326e+003;3.137353e-002
2.557255e+003;3.133304e-002
2.559183e+003;3.134543e-002
2.561112e+003;3.122372e-002
2.563040e+003;3.119559e-002
2.564969e+003;3.138988e-002
2.566897e+003;3.182933e-002
2.568826e+003;3.189088e-002
2.570754e+003;3.195364e-002
2.572683e+003;3.228766e-002
2.574612e+003;3.239363e-002
2.576540e+003;3.244148e-002
2.578469e+003;3.264415e-002
2.580397e+003;3.267979e-002
2.582326e+003;3.259485e-002
2.584254e+003;3.276318e-002
2.586183e+003;3.288125e-002
2.588111e+003;3.295370e-002
2.590040e+003;3.325604e-002
2.591969e+003;3.350862e-002
2.593897e+003;3.335424e-002
2.595826e+003;3.335964e-002
2.597754e+003;3.351095e-002
2.599683e+003;3.350794e-002
2.601611e+003;3.347763e-002
2.603540e+003;3.358948e-002
2.605468e+003;3.369445e-002
2.607397e+003;3.368926e-002
2.609325e+003;3.406360e-002
2.611254e+003;3.424247e-002
2.613183e+003;3.406443e-002
2.615111e+003;3.425753e-002
2.617040e+003;3.457782e-002
2.618968e+003;3.452156e-002
2.620897e+003;3.443475e-002
2.622825e+003;3.449272e-002
2.624754e+003;3.469846e-002
2.626682e+003;3.484280e-002
2.628611e+003;3.480335e-002
2.630540e+003;3.483207e-002
2.632468e+003;3.528588e-002
2.634396e+003;3.558988e-002
2.636325e+003;3.533792e-002
2.638254e+003;3.538314e-002
2.640182e+003;3.565368e-002
2.642111e+003;3.577074e-002
2.644039e+003;3.574311e-002
2.645968e+003;3.576995e-002
2.647896e+003;3.582648e-002
2.649825e+003;3.585692e-002
2.651753e+003;3.610612e-002
2.653682e+003;3.619060e-002
2.655611e+003;3.632073e-002
2.657539e+003;3.626303e-002
2.659468e+003;3.630971e-002
2.661396e+003;3.646933e-002
2.663325e+003;3.628608e-002
2.665253e+003;3.624124e-002
2.667182e+003;3.648608e-002
2.669110e+003;3.659619e-002
2.671039e+003;3.679042e-002
2.672968e+003;3.716489e-002
2.674896e+003;3.736208e-002
2.676825e+003;3.739100e-002
2.678753e+003;3.739241e-002
2.680682e+003;3.761933e-002
2.682610e+003;3.779497e-002
2.684539e+003;3.795911e-002
2.686467e+003;3.820040e-002
2.688396e+003;3.834862e-002
2.690324e+003;3.848614e-002
2.692253e+003;3.897662e-002
2.694182e+003;3.936513e-002
2.696110e+003;3.955327e-002
2.698039e+003;3.976804e-002
2.699967e+003;4.010801e-002
2.701896e+003;4.056344e-002
2.703824e+003;4.081593e-002
2.705753e+003;4.064897e-002
2.707681e+003;4.071832e-002
2.709610e+003;4.118012e-002
2.711539e+003;4.180796e-002
2.713467e+003;4.226551e-002
2.715396e+003;4.234729e-002
2.717324e+003;4.251863e-002
2.719253e+003;4.326404e-002
2.721181e+003;4.373708e-002
2.723110e+003;4.357056e-002
2.725038e+003;4.389685e-002
2.726967e+003;4.434141e-002
2.728896e+003;4.454361e-002
2.730824e+003;4.496554e-002
2.732752e+003;4.548698e-002
2.734681e+003;4.572410e-002
2.736610e+003;4.602088e-002
2.738538e+003;4.636213e-002
2.740467e+003;4.670893e-002
2.742395e+003;4.688957e-002
2.744324e+003;4.687436e-002
2.746252e+003;4.697163e-002
2.748181e+003;4.743384e-002
2.750109e+003;4.762396e-002
2.752038e+003;4.707328e-002
2.753967e+003;4.689795e-002
2.755895e+003;4.711922e-002
2.757824e+003;4.728456e-002
2.759752e+003;4.755874e-002
2.761681e+003;4.780558e-002
2.763609e+003;4.793717e-002
2.765538e+003;4.806173e-002
2.767466e+003;4.818700e-002
2.769395e+003;4.836611e-002
2.771323e+003;4.857609e-002
2.773252e+003;4.864012e-002
2.775181e+003;4.884160e-002
2.777109e+003;4.940061e-002
2.779038e+003;5.006887e-002
2.780966e+003;5.034571e-002
2.782895e+003;5.034615e-002
2.784823e+003;5.063375e-002
2.786752e+003;5.153669e-002
2.788680e+003;5.220566e-002
2.790609e+003;5.227035e-002
2.792538e+003;5.254411e-002
2.794466e+003;5.308167e-002
2.796395e+003;5.354848e-002
2.798323e+003;5.392680e-002
2.800252e+003;5.431145e-002
2.802180e+003;5.481831e-002
2.804109e+003;5.539166e-002
2.806037e+003;5.579868e-002
2.807966e+003;5.612765e-002
2.809895e+003;5.665362e-002
2.811823e+003;5.730289e-002
2.813751e+003;5.793822e-002
2.815680e+003;5.867516e-002
2.817609e+003;5.949466e-002
2.819537e+003;6.009375e-002
2.821466e+003;6.064954e-002
2.823394e+003;6.134019e-002
2.825323e+003;6.223311e-002
2.827251e+003;6.290871e-002
2.829180e+003;6.337045e-002
2.831108e+003;6.411437e-002
2.833037e+003;6.541795e-002
2.834966e+003;6.695699e-002
2.836894e+003;6.868353e-002
2.838823e+003;7.100707e-002
2.840751e+003;7.367498e-002
2.842680e+003;7.670421e-002
2.844608e+003;8.039077e-002
2.846537e+003;8.447721e-002
2.848465e+003;8.886211e-002
2.850394e+003;9.351116e-002
2.852323e+003;9.773621e-002
2.854251e+003;1.015644e-001
2.856180e+003;1.049191e-001
2.858108e+003;1.075164e-001
2.860037e+003;1.094184e-001
2.861965e+003;1.106358e-001
2.863894e+003;1.108231e-001
2.865822e+003;1.098141e-001
2.867751e+003;1.079236e-001
2.869679e+003;1.060939e-001
2.871608e+003;1.043752e-001
2.873536e+003;1.017655e-001
2.875465e+003;9.880697e-002
2.877394e+003;9.607406e-002
2.879322e+003;9.358251e-002
2.881251e+003;9.126647e-002
2.883179e+003;8.959688e-002
2.885108e+003;8.866221e-002
2.887036e+003;8.847450e-002
2.888965e+003;8.919311e-002
2.890893e+003;9.050332e-002
2.892822e+003;9.228749e-002
2.894750e+003;9.424014e-002
2.896679e+003;9.612437e-002
2.898608e+003;9.747167e-002
2.900536e+003;9.846878e-002
2.902465e+003;9.967788e-002
2.904393e+003;1.009785e-001
2.906322e+003;1.022627e-001
2.908250e+003;1.039011e-001
2.910179e+003;1.054023e-001
2.912107e+003;1.071001e-001
2.914036e+003;1.090026e-001
2.915965e+003;1.108875e-001
2.917893e+003;1.132476e-001
2.919822e+003;1.166375e-001
2.921750e+003;1.202502e-001
2.923679e+003;1.242782e-001
2.925607e+003;1.279115e-001
2.927536e+003;1.309202e-001
2.929464e+003;1.339276e-001
2.931393e+003;1.366436e-001
2.933322e+003;1.386582e-001
2.935250e+003;1.396896e-001
2.937178e+003;1.390413e-001
2.939107e+003;1.370907e-001
2.941036e+003;1.344248e-001
2.942964e+003;1.308284e-001
2.944893e+003;1.267804e-001
2.946821e+003;1.223975e-001
2.948750e+003;1.168041e-001
2.950678e+003;1.105828e-001
2.952607e+003;1.041833e-001
2.954535e+003;9.806801e-002
2.956464e+003;9.216326e-002
2.958393e+003;8.671977e-002
2.960321e+003;8.241431e-002
2.962250e+003;7.866398e-002
2.964178e+003;7.564408e-002
2.966107e+003;7.291416e-002
2.968035e+003;7.008708e-002
2.969964e+003;6.735809e-002
2.971892e+003;6.519282e-002
2.973821e+003;6.343602e-002
2.975750e+003;6.137183e-002
2.977678e+003;5.926153e-002
2.979607e+003;5.736883e-002
2.981535e+003;5.609334e-002
2.983464e+003;5.489955e-002
2.985392e+003;5.361865e-002
2.987321e+003;5.276716e-002
2.989249e+003;5.209967e-002
2.991178e+003;5.138035e-002
2.993106e+003;5.069105e-002
2.995035e+003;5.017113e-002
2.996964e+003;4.977541e-002
2.998892e+003;4.950810e-002
3.000821e+003;4.939036e-002
3.002749e+003;4.918085e-002
3.004678e+003;4.931408e-002
3.006606e+003;4.970192e-002
3.008535e+003;4.986114e-002
3.010463e+003;4.969434e-002
3.012392e+003;4.952649e-002
3.014321e+003;4.967803e-002
3.016249e+003;4.986199e-002
3.018177e+003;5.007225e-002
3.020106e+003;5.070345e-002
3.022035e+003;5.148692e-002
3.023963e+003;5.197084e-002
3.025892e+003;5.194713e-002
3.027820e+003;5.236988e-002
3.029749e+003;5.319419e-002
3.031677e+003;5.369187e-002
3.033606e+003;5.396976e-002
3.035534e+003;5.439666e-002
3.037463e+003;5.521802e-002
3.039392e+003;5.596706e-002
3.041320e+003;5.681526e-002
3.043249e+003;5.757856e-002
3.045177e+003;5.814988e-002
3.047106e+003;5.913922e-002
3.049034e+003;6.015734e-002
3.050963e+003;6.097671e-002
3.052891e+003;6.158815e-002
3.054820e+003;6.219621e-002
3.056749e+003;6.288645e-002
3.058677e+003;6.348448e-002
3.060606e+003;6.380578e-002
3.062534e+003;6.397732e-002
3.064463e+003;6.455430e-002
3.066391e+003;6.518523e-002
3.068320e+003;6.542484e-002
3.070248e+003;6.552494e-002
3.072177e+003;6.547847e-002
3.074105e+003;6.552829e-002
3.076034e+003;6.563175e-002
3.077963e+003;6.560123e-002
3.079891e+003;6.523640e-002
3.081820e+003;6.495533e-002
3.083748e+003;6.459212e-002
3.085677e+003;6.421381e-002
3.087605e+003;6.378951e-002
3.089534e+003;6.348123e-002
3.091462e+003;6.297504e-002
3.093391e+003;6.240308e-002
3.095320e+003;6.174694e-002
3.097248e+003;6.118692e-002
3.099177e+003;6.070871e-002
3.101105e+003;5.986542e-002
3.103034e+003;5.894570e-002
3.104962e+003;5.881597e-002
3.106891e+003;5.854092e-002
3.108819e+003;5.773759e-002
3.110748e+003;5.704168e-002
3.112677e+003;5.645109e-002
3.114605e+003;5.619873e-002
3.116533e+003;5.592948e-002
3.118462e+003;5.535933e-002
3.120391e+003;5.486196e-002
3.122319e+003;5.460999e-002
3.124248e+003;5.435899e-002
3.126176e+003;5.398097e-002
3.128105e+003;5.378022e-002
3.130033e+003;5.354795e-002
3.131962e+003;5.360069e-002
3.133890e+003;5.361501e-002
3.135819e+003;5.355526e-002
3.137748e+003;5.370244e-002
3.139676e+003;5.393231e-002
3.141605e+003;5.396529e-002
3.143533e+003;5.367001e-002
3.145462e+003;5.356703e-002
3.147390e+003;5.381959e-002
3.149319e+003;5.418794e-002
3.151247e+003;5.496660e-002
3.153176e+003;5.560608e-002
3.155104e+003;5.568194e-002
3.157033e+003;5.583519e-002
3.158962e+003;5.630909e-002
3.160890e+003;5.656031e-002
3.162819e+003;5.697556e-002
3.164747e+003;5.754364e-002
3.166676e+003;5.775931e-002
3.168604e+003;5.823346e-002
3.170533e+003;5.922492e-002
3.172461e+003;6.029333e-002
3.174390e+003;6.091628e-002
3.176319e+003;6.108360e-002
3.178247e+003;6.131035e-002
3.180176e+003;6.204776e-002
3.182104e+003;6.298397e-002
3.184033e+003;6.395870e-002
3.185961e+003;6.428757e-002
3.187890e+003;6.436350e-002
3.189818e+003;6.472798e-002
3.191747e+003;6.544276e-002
3.193676e+003;6.609578e-002
3.195604e+003;6.630950e-002
3.197532e+003;6.664629e-002
3.199461e+003;6.701081e-002
3.201390e+003;6.724013e-002
3.203318e+003;6.759178e-002
3.205247e+003;6.810163e-002
3.207175e+003;6.862683e-002
3.209104e+003;6.891677e-002
3.211032e+003;6.929854e-002
3.212961e+003;6.969135e-002
3.214889e+003;7.019280e-002
3.216818e+003;7.084525e-002
3.218747e+003;7.160995e-002
3.220675e+003;7.254580e-002
3.222604e+003;7.316988e-002
3.224532e+003;7.369064e-002
3.226461e+003;7.486551e-002
3.228389e+003;7.596404e-002
3.230318e+003;7.680769e-002
3.232246e+003;7.790500e-002
3.234175e+003;7.910935e-002
3.236104e+003;8.048974e-002
3.238032e+003;8.219028e-002
3.239961e+003;8.354509e-002
3.241889e+003;8.492094e-002
3.243818e+003;8.674122e-002
3.245746e+003;8.869874e-002
3.247675e+003;9.088810e-002
3.249603e+003;9.287392e-002
3.251532e+003;9.449337e-002
3.253460e+003;9.627526e-002
3.255389e+003;9.842086e-002
3.257318e+003;1.011967e-001
3.259246e+003;1.037501e-001
3.261175e+003;1.062746e-001
3.263103e+003;1.088619e-001
3.265032e+003;1.115046e-001
3.266960e+003;1.141395e-001
3.268889e+003;1.162497e-001
3.270817e+003;1.184184e-001
3.272746e+003;1.213195e-001
3.274675e+003;1.243096e-001
3.276603e+003;1.265272e-001
3.278531e+003;1.288787e-001
3.280460e+003;1.312474e-001
3.282389e+003;1.336496e-001
3.284317e+003;1.360431e-001
3.286246e+003;1.378464e-001
3.288174e+003;1.389604e-001
3.290103e+003;1.394335e-001
3.292031e+003;1.396000e-001
3.293960e+003;1.398454e-001
3.295888e+003;1.394324e-001
3.297817e+003;1.377222e-001
3.299746e+003;1.353102e-001
3.301674e+003;1.325171e-001
3.303603e+003;1.294798e-001
3.305531e+003;1.264170e-001
3.307460e+003;1.229594e-001
3.309388e+003;1.196266e-001
3.311317e+003;1.163584e-001
3.313245e+003;1.133996e-001
3.315174e+003;1.105500e-001
3.317103e+003;1.076318e-001
3.319031e+003;1.042703e-001
3.320960e+003;1.009956e-001
3.322888e+003;9.825186e-002
3.324817e+003;9.561025e-002
3.326745e+003;9.262381e-002
3.328674e+003;8.998974e-002
3.330602e+003;8.775833e-002
3.332531e+003;8.541311e-002
3.334459e+003;8.291901e-002
3.336388e+003;8.048723e-002
3.338317e+003;7.838102e-002
3.340245e+003;7.638291e-002
3.342174e+003;7.466014e-002
3.344102e+003;7.295296e-002
3.346031e+003;7.121545e-002
3.347959e+003;6.961849e-002
3.349888e+003;6.804869e-002
3.351816e+003;6.650648e-002
3.353745e+003;6.488831e-002
3.355674e+003;6.347789e-002
3.357602e+003;6.212349e-002
3.359531e+003;6.075623e-002
3.361459e+003;5.989528e-002
3.363388e+003;5.880678e-002
3.365316e+003;5.744582e-002
3.367245e+003;5.640457e-002
3.369173e+003;5.575890e-002
3.371102e+003;5.517426e-002
3.373031e+003;5.445236e-002
3.374959e+003;5.371710e-002
3.376887e+003;5.283432e-002
3.378816e+003;5.209829e-002
3.380745e+003;5.149449e-002
3.382673e+003;5.075138e-002
3.384602e+003;5.067005e-002
3.386530e+003;5.039538e-002
3.388459e+003;4.942913e-002
3.390387e+003;4.861429e-002
3.392316e+003;4.825823e-002
3.394244e+003;4.821032e-002
3.396173e+003;4.818078e-002
3.398102e+003;4.744696e-002
3.400030e+003;4.678767e-002
3.401959e+003;4.670756e-002
3.403887e+003;4.633065e-002
3.405816e+003;4.602073e-002
3.407744e+003;4.584162e-002
3.409673e+003;4.523826e-002
3.411601e+003;4.496344e-002
3.413530e+003;4.483635e-002
3.415458e+003;4.441737e-002
3.417387e+003;4.416130e-002
3.419316e+003;4.420672e-002
3.421244e+003;4.385180e-002
3.423173e+003;4.326100e-002
3.425101e+003;4.305105e-002
3.427030e+003;4.322099e-002
3.428958e+003;4.305771e-002
3.430887e+003;4.313078e-002
3.432815e+003;4.324306e-002
3.434744e+003;4.297331e-002
3.436673e+003;4.268950e-002
3.438601e+003;4.282954e-002
3.440530e+003;4.260192e-002
3.442458e+003;4.228121e-002
3.444387e+003;4.209587e-002
3.446315e+003;4.172625e-002
3.448244e+003;4.163445e-002
3.450172e+003;4.106239e-002
3.452101e+003;4.029821e-002
3.454030e+003;4.030374e-002
3.455958e+003;4.019512e-002
3.457886e+003;3.972788e-002
3.459815e+003;3.948998e-002
3.461744e+003;3.928845e-002
3.463672e+003;3.905445e-002
3.465601e+003;3.843111e-002
3.467529e+003;3.784044e-002
3.469458e+003;3.747212e-002
3.471386e+003;3.756066e-002
3.473315e+003;3.746309e-002
3.475243e+003;3.709508e-002
3.477172e+003;3.692308e-002
3.479101e+003;3.678083e-002
3.481029e+003;3.685224e-002
3.482958e+003;3.690039e-002
3.484886e+003;3.673979e-002
3.486815e+003;3.648839e-002
3.488743e+003;3.617155e-002
3.490672e+003;3.594409e-002
3.492600e+003;3.585537e-002
3.494529e+003;3.560315e-002
3.496458e+003;3.561790e-002
3.498386e+003;3.576715e-002
3.500315e+003;3.577923e-002
3.502243e+003;3.559876e-002
3.504172e+003;3.527258e-002
3.506100e+003;3.481616e-002
3.508029e+003;3.440158e-002
3.509957e+003;3.406446e-002
3.511886e+003;3.393980e-002
3.513814e+003;3.410070e-002
3.515743e+003;3.399484e-002
3.517672e+003;3.361429e-002
3.519600e+003;3.300958e-002
3.521529e+003;3.275068e-002
3.523457e+003;3.253085e-002
3.525386e+003;3.214113e-002
3.527314e+003;3.200497e-002
3.529243e+003;3.201392e-002
3.531171e+003;3.195143e-002
3.533100e+003;3.196637e-002
3.535029e+003;3.142770e-002
3.536957e+003;3.068138e-002
3.538885e+003;3.026326e-002
3.540814e+003;2.998029e-002
3.542743e+003;2.968036e-002
3.544671e+003;2.949106e-002
3.546600e+003;2.922567e-002
3.548528e+003;2.902140e-002
3.550457e+003;2.881362e-002
3.552385e+003;2.851178e-002
3.554314e+003;2.818567e-002
3.556242e+003;2.764245e-002
3.558171e+003;2.748521e-002
3.560100e+003;2.740618e-002
3.562028e+003;2.669865e-002
3.563957e+003;2.617337e-002
3.565885e+003;2.603104e-002
3.567814e+003;2.582468e-002
3.569742e+003;2.539877e-002
3.571671e+003;2.520157e-002
3.573599e+003;2.516308e-002
3.575528e+003;2.505492e-002
3.577457e+003;2.483622e-002
3.579385e+003;2.432412e-002
3.581314e+003;2.394474e-002
3.583242e+003;2.323296e-002
3.585171e+003;2.222942e-002
3.587099e+003;2.176911e-002
3.589028e+003;2.179677e-002
3.590956e+003;2.177813e-002
3.592885e+003;2.144462e-002
3.594813e+003;2.148894e-002
3.596742e+003;2.186705e-002
3.598671e+003;2.164967e-002
3.600599e+003;2.112868e-002
3.602528e+003;2.121260e-002
3.604456e+003;2.132127e-002
3.606385e+003;2.114159e-002
3.608313e+003;2.053200e-002
3.610242e+003;1.987358e-002
3.612170e+003;1.944394e-002
3.614099e+003;1.929538e-002
3.616028e+003;1.941022e-002
3.617956e+003;1.921956e-002
3.619885e+003;1.862009e-002
3.621813e+003;1.781454e-002
3.623742e+003;1.754157e-002
3.625670e+003;1.778762e-002
3.627599e+003;1.753401e-002
3.629527e+003;1.717185e-002
3.631456e+003;1.731293e-002
3.633385e+003;1.721249e-002
3.635313e+003;1.685425e-002
3.637241e+003;1.645198e-002
3.639170e+003;1.644018e-002
3.641099e+003;1.635429e-002
3.643027e+003;1.608309e-002
3.644956e+003;1.561249e-002
3.646884e+003;1.521940e-002
3.648813e+003;1.519805e-002
3.650741e+003;1.521706e-002
3.652670e+003;1.495878e-002
3.654598e+003;1.483712e-002
3.656527e+003;1.456024e-002
3.658456e+003;1.446843e-002
3.660384e+003;1.490093e-002
3.662313e+003;1.514333e-002
3.664241e+003;1.544762e-002
3.666170e+003;1.526706e-002
3.668098e+003;1.466243e-002
3.670027e+003;1.436886e-002
3.671955e+003;1.443017e-002
3.673884e+003;1.466339e-002
3.675813e+003;1.463926e-002
3.677741e+003;1.399447e-002
3.679669e+003;1.330342e-002
3.681598e+003;1.325853e-002
3.683527e+003;1.332153e-002
3.685455e+003;1.358353e-002
3.687384e+003;1.369772e-002
3.689312e+003;1.334838e-002
3.691241e+003;1.297160e-002
3.693169e+003;1.285804e-002
3.695098e+003;1.287743e-002
3.697026e+003;1.265771e-002
3.698955e+003;1.211755e-002
3.700884e+003;1.209734e-002
3.702812e+003;1.236941e-002
3.704741e+003;1.241976e-002
3.706669e+003;1.237391e-002
3.708598e+003;1.224451e-002
3.710526e+003;1.216034e-002
3.712455e+003;1.207305e-002
3.714383e+003;1.178571e-002
3.716312e+003;1.199191e-002
3.718240e+003;1.230276e-002
3.720169e+003;1.205240e-002
3.722098e+003;1.177935e-002
3.724026e+003;1.172862e-002
3.725955e+003;1.163281e-002
3.727883e+003;1.162590e-002
3.729812e+003;1.157860e-002
3.731740e+003;1.166824e-002
3.733669e+003;1.168583e-002
3.735597e+003;1.162552e-002
3.737526e+003;1.201115e-002
3.739455e+003;1.199637e-002
3.741383e+003;1.195339e-002
3.743312e+003;1.185129e-002
3.745240e+003;1.169057e-002
3.747169e+003;1.208041e-002
3.749097e+003;1.214020e-002
3.751026e+003;1.159224e-002
3.752954e+003;1.149146e-002
3.754883e+003;1.192719e-002
3.756812e+003;1.206641e-002
3.758740e+003;1.204924e-002
3.760668e+003;1.192250e-002
3.762597e+003;1.230539e-002
3.764526e+003;1.260286e-002
3.766454e+003;1.251428e-002
3.768383e+003;1.235775e-002
3.770311e+003;1.236266e-002
3.772240e+003;1.252479e-002
3.774168e+003;1.264260e-002
3.776097e+003;1.257656e-002
3.778025e+003;1.219823e-002
3.779954e+003;1.202607e-002
3.781883e+003;1.223712e-002
3.783811e+003;1.223681e-002
3.785740e+003;1.241424e-002
3.787668e+003;1.257731e-002
3.789597e+003;1.243466e-002
3.791525e+003;1.238352e-002
3.793454e+003;1.231698e-002
3.795382e+003;1.201374e-002
3.797311e+003;1.191769e-002
3.799240e+003;1.192920e-002
3.801168e+003;1.214368e-002
3.803097e+003;1.236300e-002
3.805025e+003;1.200138e-002
3.806954e+003;1.173369e-002
3.808882e+003;1.214603e-002
3.810811e+003;1.265321e-002
3.812739e+003;1.315497e-002
3.814668e+003;1.288548e-002
3.816596e+003;1.264983e-002
3.818525e+003;1.277603e-002
3.820454e+003;1.240302e-002
3.822382e+003;1.252643e-002
3.824311e+003;1.282722e-002
3.826239e+003;1.302923e-002
3.828168e+003;1.311347e-002
3.830096e+003;1.306078e-002
3.832025e+003;1.321470e-002
3.833953e+003;1.316381e-002
3.835882e+003;1.266794e-002
3.837811e+003;1.257765e-002
3.839739e+003;1.314633e-002
3.841667e+003;1.335307e-002
3.843596e+003;1.308400e-002
3.845525e+003;1.328077e-002
3.847453e+003;1.402746e-002
3.849382e+003;1.410385e-002
3.851310e+003;1.287374e-002
3.853239e+003;1.200199e-002
3.855167e+003;1.217053e-002
3.857096e+003;1.282009e-002
3.859024e+003;1.329652e-002
3.860953e+003;1.363149e-002
3.862882e+003;1.379393e-002
3.864810e+003;1.369222e-002
3.866739e+003;1.331634e-002
3.868667e+003;1.314882e-002
3.870596e+003;1.350750e-002
3.872524e+003;1.380460e-002
3.874453e+003;1.379837e-002
3.876381e+003;1.400587e-002
3.878310e+003;1.378196e-002
3.880239e+003;1.360999e-002
3.882167e+003;1.339557e-002
3.884096e+003;1.314233e-002
3.886024e+003;1.343901e-002
3.887953e+003;1.407627e-002
3.889881e+003;1.425143e-002
3.891810e+003;1.396549e-002
3.893738e+003;1.409574e-002
3.895667e+003;1.452016e-002
3.897595e+003;1.445534e-002
3.899524e+003;1.405563e-002
3.901453e+003;1.407849e-002
3.903381e+003;1.428763e-002
3.905310e+003;1.431249e-002
3.907238e+003;1.447672e-002
3.909167e+003;1.451310e-002
3.911095e+003;1.472077e-002
3.913024e+003;1.491505e-002
3.914952e+003;1.486849e-002
3.916881e+003;1.483976e-002
3.918810e+003;1.500364e-002
3.920738e+003;1.517572e-002
3.922667e+003;1.496776e-002
3.924595e+003;1.498649e-002
3.926524e+003;1.528625e-002
3.928452e+003;1.518302e-002
3.930381e+003;1.541607e-002
3.932309e+003;1.588247e-002
3.934238e+003;1.603499e-002
3.936167e+003;1.585237e-002
3.938095e+003;1.557299e-002
3.940023e+003;1.571922e-002
3.941952e+003;1.544161e-002
3.943881e+003;1.559594e-002
3.945809e+003;1.631294e-002
3.947738e+003;1.682336e-002
3.949666e+003;1.643491e-002
3.951595e+003;1.630138e-002
3.953523e+003;1.678151e-002
3.955452e+003;1.670238e-002
3.957380e+003;1.671705e-002
3.959309e+003;1.704671e-002
3.961238e+003;1.698465e-002
3.963166e+003;1.669459e-002
3.965095e+003;1.662518e-002
3.967023e+003;1.694038e-002
3.968952e+003;1.734241e-002
3.970880e+003;1.736714e-002
3.972809e+003;1.739066e-002
3.974737e+003;1.749389e-002
3.976666e+003;1.749524e-002
3.978594e+003;1.782714e-002
3.980523e+003;1.820626e-002
3.982452e+003;1.801723e-002
3.984380e+003;1.761085e-002
3.986309e+003;1.754533e-002
3.988237e+003;1.771334e-002
3.990166e+003;1.833900e-002
3.992094e+003;1.901904e-002
3.994023e+003;1.922694e-002
3.995951e+003;1.889752e-002
3.997880e+003;1.825094e-002
3.999809e+003;1.820225e-002
4.001737e+003;0.000000e+000
