3.992094e+002;0.000000e+000
4.011380e+002;0.000000e+000
4.030665e+002;0.000000e+000
4.049951e+002;0.000000e+000
4.069236e+002;0.000000e+000
4.088522e+002;0.000000e+000
4.107807e+002;0.000000e+000
4.127093e+002;0.000000e+000
4.146378e+002;0.000000e+000
4.165664e+002;0.000000e+000
4.184949e+002;0.000000e+000
4.204235e+002;0.000000e+000
4.223520e+002;0.000000e+000
4.242806e+002;0.000000e+000
4.262091e+002;0.000000e+000
4.281377e+002;0.000000e+000
4.300662e+002;0.000000e+000
4.319948e+002;0.000000e+000
4.339233e+002;0.000000e+000
4.358519e+002;0.000000e+000
4.377804e+002;0.000000e+000
4.397090e+002;0.000000e+000
4.416375e+002;0.000000e+000
4.435660e+002;0.000000e+000
4.454946e+002;0.000000e+000
4.474232e+002;0.000000e+000
4.493517e+002;0.000000e+000
4.512802e+002;0.000000e+000
4.532088e+002;0.000000e+000
4.551373e+002;0.000000e+000
4.570659e+002;0.000000e+000
4.589944e+002;0.000000e+000
4.609230e+002;0.000000e+000
4.628515e+002;0.000000e+000
4.647801e+002;0.000000e+000
4.667086e+002;0.000000e+000
4.686372e+002;0.000000e+000
4.705657e+002;0.000000e+000
4.724943e+002;0.000000e+000
4.744228e+002;0.000000e+000
4.763513e+002;0.000000e+000
4.782799e+002;0.000000e+000
4.802085e+002;0.000000e+000
4.821370e+002;0.000000e+000
4.840656e+002;0.000000e+000
4.859941e+002;0.000000e+000
4.879226e+002;0.000000e+000
4.898512e+002;0.000000e+000
4.917798e+002;0.000000e+000
4.937083e+002;0.000000e+000
4.956368e+002;0.000000e+000
4.975654e+002;0.000000e+000
4.994939e+002;0.000000e+000
5.014225e+002;0.000000e+000
5.033510e+002;0.000000e+000
5.052796e+002;0.000000e+000
5.072081e+002;0.000000e+000
5.091367e+002;0.000000e+000
5.110652e+002;0.000000e+000
5.129938e+002;0.000000e+000
5.149223e+002;0.000000e+000
5.168509e+002;0.000000e+000
5.187794e+002;0.000000e+000
5.207079e+002;0.000000e+000
5.226365e+002;0.000000e+000
5.245651e+002;0.000000e+000
5.264936e+002;0.000000e+000
5.284222e+002;0.000000e+000
5.303507e+002;0.000000e+000
5.322792e+002;0.000000e+000
5.342078e+002;0.000000e+000
5.361364e+002;0.000000e+000
5.380649e+002;0.000000e+000
5.399935e+002;0.000000e+000
5.419220e+002;0.000000e+000
5.438505e+002;0.000000e+000
5.457791e+002;0.000000e+000
5.477076e+002;0.000000e+000
5.496362e+002;0.000000e+000
5.515648e+002;0.000000e+000
5.534933e+002;0.000000e+000
5.554218e+002;0.000000e+000
5.573504e+002;0.000000e+000
5.592789e+002;0.000000e+000
5.612075e+002;0.000000e+000
5.631360e+002;0.000000e+000
5.650646e+002;0.000000e+000
5.669931e+002;0.000000e+000
5.689217e+002;0.000000e+000
5.708502e+002;0.000000e+000
5.727787e+002;0.000000e+000
5.747073e+002;0.000000e+000
5.766359e+002;0.000000e+000
5.785644e+002;0.000000e+000
5.804930e+002;0.000000e+000
5.824215e+002;0.000000e+000
5.843500e+002;0.000000e+000
5.862786e+002;0.000000e+000
5.882072e+002;0.000000e+000
5.901357e+002;0.000000e+000
5.920643e+002;0.000000e+000
5.939928e+002;0.000000e+000
5.959213e+002;0.000000e+000
5.978499e+002;0.000000e+000
5.997784e+002;1.286329e-001
6.017070e+002;1.346747e-001
6.036355e+002;1.292866e-001
6.055641e+002;1.229630e-001
6.074926e+002;1.196306e-001
6.094211e+002;1.204036e-001
6.113497e+002;1.259374e-001
6.132783e+002;1.288714e-001
6.152068e+002;1.244469e-001
6.171354e+002;1.215297e-001
6.190639e+002;1.234333e-001
6.209924e+002;1.249456e-001
6.229210e+002;1.272389e-001
6.248495e+002;1.292307e-001
6.267781e+002;1.284568e-001
6.287067e+002;1.263312e-001
6.306352e+002;1.255001e-001
6.325637e+002;1.235538e-001
6.344923e+002;1.221330e-001
6.364208e+002;1.264173e-001
6.383494e+002;1.281771e-001
6.402780e+002;1.272530e-001
6.422065e+002;1.289184e-001
6.441350e+002;1.310625e-001
6.460636e+002;1.322791e-001
6.479921e+002;1.359187e-001
6.499207e+002;1.379864e-001
6.518492e+002;1.404293e-001
6.537778e+002;1.416051e-001
6.557063e+002;1.426256e-001
6.576349e+002;1.449651e-001
6.595634e+002;1.493632e-001
6.614919e+002;1.533891e-001
6.634205e+002;1.564490e-001
6.653491e+002;1.615504e-001
6.672776e+002;1.614422e-001
6.692062e+002;1.588077e-001
6.711347e+002;1.586889e-001
6.730632e+002;1.599342e-001
6.749918e+002;1.615890e-001
6.769203e+002;1.628155e-001
6.788489e+002;1.631438e-001
6.807775e+002;1.653341e-001
6.827060e+002;1.668481e-001
6.846345e+002;1.663462e-001
6.865631e+002;1.635316e-001
6.884916e+002;1.606201e-001
6.904202e+002;1.590428e-001
6.923488e+002;1.577420e-001
6.942773e+002;1.558581e-001
6.962058e+002;1.534825e-001
6.981344e+002;1.509290e-001
7.000629e+002;1.487494e-001
7.019915e+002;1.467676e-001
7.039200e+002;1.449001e-001
7.058486e+002;1.428789e-001
7.077771e+002;1.415862e-001
7.097057e+002;1.412465e-001
7.116342e+002;1.416167e-001
7.135627e+002;1.408111e-001
7.154913e+002;1.374394e-001
7.174199e+002;1.340190e-001
7.193484e+002;1.331370e-001
7.212770e+002;1.332970e-001
7.232055e+002;1.338844e-001
7.251340e+002;1.338899e-001
7.270626e+002;1.342300e-001
7.289911e+002;1.330432e-001
7.309197e+002;1.282885e-001
7.328483e+002;1.221485e-001
7.347768e+002;1.164914e-001
7.367053e+002;1.116530e-001
7.386339e+002;1.072313e-001
7.405624e+002;1.029109e-001
7.424910e+002;9.963916e-002
7.444196e+002;9.743053e-002
7.463481e+002;9.530016e-002
7.482766e+002;9.322660e-002
7.502052e+002;9.125722e-002
7.521337e+002;8.974682e-002
7.540623e+002;8.915702e-002
7.559908e+002;8.780745e-002
7.579194e+002;8.594935e-002
7.598479e+002;8.472574e-002
7.617765e+002;8.388021e-002
7.637050e+002;8.250789e-002
7.656335e+002;8.188130e-002
7.675621e+002;8.173049e-002
7.694907e+002;8.100327e-002
7.714192e+002;7.996643e-002
7.733478e+002;7.899205e-002
7.752763e+002;7.773500e-002
7.772048e+002;7.612585e-002
7.791334e+002;7.527754e-002
7.810620e+002;7.500651e-002
7.829905e+002;7.375794e-002
7.849191e+002;7.170738e-002
7.868476e+002;7.017384e-002
7.887761e+002;6.894869e-002
7.907047e+002;6.728814e-002
7.926332e+002;6.625249e-002
7.945618e+002;6.612017e-002
7.964903e+002;6.600081e-002
7.984189e+002;6.520537e-002
8.003474e+002;6.352215e-002
8.022759e+002;6.210021e-002
8.042045e+002;6.111620e-002
8.061331e+002;5.981971e-002
8.080616e+002;5.892904e-002
8.099902e+002;5.887038e-002
8.119187e+002;5.830454e-002
8.138472e+002;5.705929e-002
8.157758e+002;5.661730e-002
8.177043e+002;5.671591e-002
8.196329e+002;5.728119e-002
8.215615e+002;5.757999e-002
8.234900e+002;5.748308e-002
8.254185e+002;5.748785e-002
8.273471e+002;5.824903e-002
8.292756e+002;5.979138e-002
8.312042e+002;6.121550e-002
8.331328e+002;6.149724e-002
8.350613e+002;6.039636e-002
8.369898e+002;5.842226e-002
8.389184e+002;5.642061e-002
8.408469e+002;5.479335e-002
8.427755e+002;5.324348e-002
8.447040e+002;5.188257e-002
8.466326e+002;5.104103e-002
8.485611e+002;5.115869e-002
8.504897e+002;5.201219e-002
8.524182e+002;5.187192e-002
8.543467e+002;5.109156e-002
8.562753e+002;5.068189e-002
8.582039e+002;5.068439e-002
8.601324e+002;5.046613e-002
8.620610e+002;4.984743e-002
8.639895e+002;4.983687e-002
8.659180e+002;5.053070e-002
8.678466e+002;5.101833e-002
8.697751e+002;5.055732e-002
8.717037e+002;5.024854e-002
8.736323e+002;5.059890e-002
8.755608e+002;5.074411e-002
8.774893e+002;5.085265e-002
8.794179e+002;5.099839e-002
8.813464e+002;5.135611e-002
8.832750e+002;5.213531e-002
8.852036e+002;5.282556e-002
8.871321e+002;5.303786e-002
8.890606e+002;5.306800e-002
8.909892e+002;5.294446e-002
8.929177e+002;5.274643e-002
8.948463e+002;5.299425e-002
8.967748e+002;5.336823e-002
8.987034e+002;5.354754e-002
9.006319e+002;5.339767e-002
9.025605e+002;5.380036e-002
9.044890e+002;5.457035e-002
9.064175e+002;5.523781e-002
9.083461e+002;5.546838e-002
9.102747e+002;5.567384e-002
9.122032e+002;5.617508e-002
9.141318e+002;5.673097e-002
9.160603e+002;5.707104e-002
9.179888e+002;5.799536e-002
9.199174e+002;5.945690e-002
9.218459e+002;6.037683e-002
9.237745e+002;6.158162e-002
9.257031e+002;6.317937e-002
9.276316e+002;6.375375e-002
9.295601e+002;6.341846e-002
9.314887e+002;6.263446e-002
9.334172e+002;6.129619e-002
9.353458e+002;6.006411e-002
9.372744e+002;5.948224e-002
9.392029e+002;5.928903e-002
9.411314e+002;5.943972e-002
9.430600e+002;6.022889e-002
9.449885e+002;6.095372e-002
9.469171e+002;6.203450e-002
9.488456e+002;6.361178e-002
9.507742e+002;6.484214e-002
9.527027e+002;6.541090e-002
9.546313e+002;6.581517e-002
9.565598e+002;6.654862e-002
9.584883e+002;6.704011e-002
9.604169e+002;6.717333e-002
9.623455e+002;6.694783e-002
9.642740e+002;6.605972e-002
9.662026e+002;6.552710e-002
9.681311e+002;6.543217e-002
9.700596e+002;6.535247e-002
9.719882e+002;6.513807e-002
9.739167e+002;6.458278e-002
9.758453e+002;6.422188e-002
9.777739e+002;6.380594e-002
9.797024e+002;6.325445e-002
9.816309e+002;6.284303e-002
9.835595e+002;6.207196e-002
9.854880e+002;6.129447e-002
9.874166e+002;6.077784e-002
9.893452e+002;6.017404e-002
9.912737e+002;5.911389e-002
9.932022e+002;5.836188e-002
9.951307e+002;5.812443e-002
9.970593e+002;5.787503e-002
9.989879e+002;5.755775e-002
1.000916e+003;5.734346e-002
1.002845e+003;5.711703e-002
1.004773e+003;5.718642e-002
1.006702e+003;5.735590e-002
1.008631e+003;5.721900e-002
1.010559e+003;5.700620e-002
1.012488e+003;5.686666e-002
1.014416e+003;5.652456e-002
1.016345e+003;5.616098e-002
1.018273e+003;5.632301e-002
1.020202e+003;5.681616e-002
1.022130e+003;5.747241e-002
1.024059e+003;5.842017e-002
1.025988e+003;5.960176e-002
1.027916e+003;6.048067e-002
1.029845e+003;6.101758e-002
1.031773e+003;6.094826e-002
1.033702e+003;6.036894e-002
1.035630e+003;5.992768e-002
1.037559e+003;5.924562e-002
1.039487e+003;5.837355e-002
1.041416e+003;5.795810e-002
1.043344e+003;5.770209e-002
1.045273e+003;5.760859e-002
1.047202e+003;5.799036e-002
1.049130e+003;5.833349e-002
1.051059e+003;5.908656e-002
1.052987e+003;6.014223e-002
1.054916e+003;6.110518e-002
1.056844e+003;6.248499e-002
1.058773e+003;6.377381e-002
1.060701e+003;6.469987e-002
1.062630e+003;6.553496e-002
1.064558e+003;6.663416e-002
1.066487e+003;6.755485e-002
1.068416e+003;6.803342e-002
1.070344e+003;6.832548e-002
1.072273e+003;6.889902e-002
1.074201e+003;6.913354e-002
1.076130e+003;6.844199e-002
1.078058e+003;6.746625e-002
1.079987e+003;6.669250e-002
1.081915e+003;6.639126e-002
1.083844e+003;6.621478e-002
1.085773e+003;6.553426e-002
1.087701e+003;6.502330e-002
1.089630e+003;6.457055e-002
1.091558e+003;6.445666e-002
1.093487e+003;6.474156e-002
1.095415e+003;6.562331e-002
1.097344e+003;6.696565e-002
1.099272e+003;6.813066e-002
1.101201e+003;6.934312e-002
1.103129e+003;7.071044e-002
1.105058e+003;7.205863e-002
1.106987e+003;7.361884e-002
1.108915e+003;7.512144e-002
1.110844e+003;7.615357e-002
1.112772e+003;7.682271e-002
1.114701e+003;7.741401e-002
1.116629e+003;7.796205e-002
1.118558e+003;7.799619e-002
1.120486e+003;7.732689e-002
1.122415e+003;7.561632e-002
1.124344e+003;7.328895e-002
1.126272e+003;7.074549e-002
1.128201e+003;6.836690e-002
1.130129e+003;6.654344e-002
1.132058e+003;6.511220e-002
1.133986e+003;6.453538e-002
1.135915e+003;6.438275e-002
1.137843e+003;6.464561e-002
1.139772e+003;6.530587e-002
1.141700e+003;6.617346e-002
1.143629e+003;6.758640e-002
1.145557e+003;6.934331e-002
1.147486e+003;7.109421e-002
1.149415e+003;7.317250e-002
1.151343e+003;7.593203e-002
1.153272e+003;7.889342e-002
1.155200e+003;8.172461e-002
1.157129e+003;8.504602e-002
1.159057e+003;8.909392e-002
1.160986e+003;9.372223e-002
1.162914e+003;9.834792e-002
1.164843e+003;1.031431e-001
1.166771e+003;1.074971e-001
1.168700e+003;1.095693e-001
1.170629e+003;1.087523e-001
1.172557e+003;1.062189e-001
1.174486e+003;1.023788e-001
1.176414e+003;9.781472e-002
1.178343e+003;9.395048e-002
1.180271e+003;9.140541e-002
1.182200e+003;9.072299e-002
1.184128e+003;9.167065e-002
1.186057e+003;9.358975e-002
1.187986e+003;9.639686e-002
1.189914e+003;9.945574e-002
1.191843e+003;1.031893e-001
1.193771e+003;1.072358e-001
1.195700e+003;1.112484e-001
1.197628e+003;1.142758e-001
1.199557e+003;1.151827e-001
1.201485e+003;1.134650e-001
1.203414e+003;1.105384e-001
1.205343e+003;1.078591e-001
1.207271e+003;1.059814e-001
1.209200e+003;1.051388e-001
1.211128e+003;1.048919e-001
1.213057e+003;1.044525e-001
1.214985e+003;1.030070e-001
1.216914e+003;1.004871e-001
1.218842e+003;9.765866e-002
1.220771e+003;9.636410e-002
1.222699e+003;9.698573e-002
1.224628e+003;9.892792e-002
1.226557e+003;1.018128e-001
1.228485e+003;1.054053e-001
1.230414e+003;1.095328e-001
1.232342e+003;1.130899e-001
1.234271e+003;1.157991e-001
1.236199e+003;1.175248e-001
1.238128e+003;1.182315e-001
1.240056e+003;1.179646e-001
1.241985e+003;1.174152e-001
1.243913e+003;1.177344e-001
1.245842e+003;1.187360e-001
1.247771e+003;1.202077e-001
1.249699e+003;1.220107e-001
1.251628e+003;1.240580e-001
1.253556e+003;1.266942e-001
1.255485e+003;1.293209e-001
1.257413e+003;1.313454e-001
1.259342e+003;1.325395e-001
1.261270e+003;1.326296e-001
1.263199e+003;1.310258e-001
1.265127e+003;1.273899e-001
1.267056e+003;1.220356e-001
1.268985e+003;1.166812e-001
1.270913e+003;1.129996e-001
1.272842e+003;1.112476e-001
1.274770e+003;1.104844e-001
1.276699e+003;1.100719e-001
1.278627e+003;1.096679e-001
1.280556e+003;1.088893e-001
1.282484e+003;1.075922e-001
1.284413e+003;1.064093e-001
1.286342e+003;1.052608e-001
1.288270e+003;1.040694e-001
1.290199e+003;1.034335e-001
1.292127e+003;1.029810e-001
1.294056e+003;1.021122e-001
1.295984e+003;1.014778e-001
1.297913e+003;1.013143e-001
1.299841e+003;1.012217e-001
1.301770e+003;1.008765e-001
1.303698e+003;1.001403e-001
1.305627e+003;9.913452e-002
1.307556e+003;9.811167e-002
1.309484e+003;9.706125e-002
1.311413e+003;9.592304e-002
1.313341e+003;9.507838e-002
1.315270e+003;9.430724e-002
1.317198e+003;9.354124e-002
1.319127e+003;9.282530e-002
1.321055e+003;9.195957e-002
1.322984e+003;9.142205e-002
1.324912e+003;9.141653e-002
1.326841e+003;9.163612e-002
1.328770e+003;9.185603e-002
1.330698e+003;9.208506e-002
1.332627e+003;9.232245e-002
1.334555e+003;9.267183e-002
1.336484e+003;9.297775e-002
1.338412e+003;9.327756e-002
1.340341e+003;9.391963e-002
1.342269e+003;9.446120e-002
1.344198e+003;9.506984e-002
1.346126e+003;9.609903e-002
1.348055e+003;9.728442e-002
1.349984e+003;9.842376e-002
1.351912e+003;9.968805e-002
1.353841e+003;1.009649e-001
1.355769e+003;1.023580e-001
1.357698e+003;1.039071e-001
1.359626e+003;1.055351e-001
1.361555e+003;1.071048e-001
1.363483e+003;1.083979e-001
1.365412e+003;1.097877e-001
1.367341e+003;1.112942e-001
1.369269e+003;1.125810e-001
1.371198e+003;1.128254e-001
1.373126e+003;1.120551e-001
1.375055e+003;1.108140e-001
1.376983e+003;1.088848e-001
1.378912e+003;1.060554e-001
1.380840e+003;1.029906e-001
1.382769e+003;1.002164e-001
1.384698e+003;9.749252e-002
1.386626e+003;9.476130e-002
1.388555e+003;9.278661e-002
1.390483e+003;9.125698e-002
1.392412e+003;9.005308e-002
1.394340e+003;8.936045e-002
1.396269e+003;8.922301e-002
1.398197e+003;8.970245e-002
1.400126e+003;9.075847e-002
1.402054e+003;9.272696e-002
1.403983e+003;9.538002e-002
1.405911e+003;9.888781e-002
1.407840e+003;1.036918e-001
1.409769e+003;1.094038e-001
1.411697e+003;1.151710e-001
1.413626e+003;1.203433e-001
1.415554e+003;1.240465e-001
1.417483e+003;1.253387e-001
1.419411e+003;1.241569e-001
1.421340e+003;1.217291e-001
1.423268e+003;1.194231e-001
1.425197e+003;1.179318e-001
1.427125e+003;1.179350e-001
1.429054e+003;1.193362e-001
1.430983e+003;1.214039e-001
1.432911e+003;1.234186e-001
1.434840e+003;1.246372e-001
1.436768e+003;1.244029e-001
1.438697e+003;1.237292e-001
1.440625e+003;1.231218e-001
1.442554e+003;1.224031e-001
1.444482e+003;1.218134e-001
1.446411e+003;1.217830e-001
1.448340e+003;1.226433e-001
1.450268e+003;1.243362e-001
1.452197e+003;1.260938e-001
1.454125e+003;1.280830e-001
1.456054e+003;1.303620e-001
1.457982e+003;1.336901e-001
1.459911e+003;1.381084e-001
1.461839e+003;1.412655e-001
1.463768e+003;1.405777e-001
1.465697e+003;1.360917e-001
1.467625e+003;1.305006e-001
1.469554e+003;1.261185e-001
1.471482e+003;1.240648e-001
1.473411e+003;1.245053e-001
1.475339e+003;1.253999e-001
1.477268e+003;1.244693e-001
1.479196e+003;1.214998e-001
1.481125e+003;1.173019e-001
1.483053e+003;1.124237e-001
1.484982e+003;1.080573e-001
1.486911e+003;1.054624e-001
1.488839e+003;1.050957e-001
1.490768e+003;1.066434e-001
1.492696e+003;1.093827e-001
1.494625e+003;1.124227e-001
1.496553e+003;1.158024e-001
1.498482e+003;1.199048e-001
1.500410e+003;1.245241e-001
1.502339e+003;1.295008e-001
1.504267e+003;1.346978e-001
1.506196e+003;1.401205e-001
1.508125e+003;1.463487e-001
1.510053e+003;1.527682e-001
1.511982e+003;1.593844e-001
1.513910e+003;1.663334e-001
1.515839e+003;1.732359e-001
1.517767e+003;1.803214e-001
1.519696e+003;1.878090e-001
1.521624e+003;1.955020e-001
1.523553e+003;2.033031e-001
1.525481e+003;2.107551e-001
1.527410e+003;2.178958e-001
1.529339e+003;2.245413e-001
1.531267e+003;2.303056e-001
1.533196e+003;2.350023e-001
1.535124e+003;2.380829e-001
1.537053e+003;2.388095e-001
1.538981e+003;2.367485e-001
1.540910e+003;2.330349e-001
1.542838e+003;2.280295e-001
1.544767e+003;2.209600e-001
1.546695e+003;2.126559e-001
1.548624e+003;2.037904e-001
1.550553e+003;1.948577e-001
1.552481e+003;1.863239e-001
1.554410e+003;1.781067e-001
1.556338e+003;1.698099e-001
1.558267e+003;1.614527e-001
1.560195e+003;1.543961e-001
1.562124e+003;1.484248e-001
1.564052e+003;1.418342e-001
1.565981e+003;1.347759e-001
1.567910e+003;1.276872e-001
1.569838e+003;1.209835e-001
1.571767e+003;1.152145e-001
1.573695e+003;1.100885e-001
1.575624e+003;1.052752e-001
1.577552e+003;1.011271e-001
1.579481e+003;9.794677e-002
1.581409e+003;9.529661e-002
1.583338e+003;9.324212e-002
1.585266e+003;9.195700e-002
1.587195e+003;9.149723e-002
1.589124e+003;9.139220e-002
1.591052e+003;9.192153e-002
1.592981e+003;9.326889e-002
1.594909e+003;9.515807e-002
1.596838e+003;9.786474e-002
1.598766e+003;1.014216e-001
1.600695e+003;1.054753e-001
1.602623e+003;1.104148e-001
1.604552e+003;1.163431e-001
1.606480e+003;1.227221e-001
1.608409e+003;1.294691e-001
1.610338e+003;1.371816e-001
1.612266e+003;1.458381e-001
1.614195e+003;1.551035e-001
1.616123e+003;1.657017e-001
1.618052e+003;1.781269e-001
1.619980e+003;1.914429e-001
1.621909e+003;2.053215e-001
1.623837e+003;2.192602e-001
1.625766e+003;2.328348e-001
1.627694e+003;2.465539e-001
1.629623e+003;2.605300e-001
1.631552e+003;2.736554e-001
1.633480e+003;2.848551e-001
1.635409e+003;2.923318e-001
1.637337e+003;2.943422e-001
1.639266e+003;2.892681e-001
1.641194e+003;2.778039e-001
1.643123e+003;2.630248e-001
1.645051e+003;2.463228e-001
1.646980e+003;2.289504e-001
1.648909e+003;2.129781e-001
1.650837e+003;1.987155e-001
1.652766e+003;1.854222e-001
1.654694e+003;1.742905e-001
1.656623e+003;1.650405e-001
1.658551e+003;1.561449e-001
1.660480e+003;1.472699e-001
1.662408e+003;1.388471e-001
1.664337e+003;1.307970e-001
1.666266e+003;1.226426e-001
1.668194e+003;1.146515e-001
1.670123e+003;1.073131e-001
1.672051e+003;1.008163e-001
1.673980e+003;9.458221e-002
1.675908e+003;8.819727e-002
1.677837e+003;8.208627e-002
1.679765e+003;7.594707e-002
1.681694e+003;6.949614e-002
1.683622e+003;6.301856e-002
1.685551e+003;5.759108e-002
1.687479e+003;5.364137e-002
1.689408e+003;5.027413e-002
1.691337e+003;4.749379e-002
1.693265e+003;4.524219e-002
1.695194e+003;4.338932e-002
1.697122e+003;4.226701e-002
1.699051e+003;4.129015e-002
1.700979e+003;4.057791e-002
1.702908e+003;4.042482e-002
1.704836e+003;3.998806e-002
1.706765e+003;3.983983e-002
1.708693e+003;3.987357e-002
1.710622e+003;3.986213e-002
1.712551e+003;3.979138e-002
1.714479e+003;3.967690e-002
1.716408e+003;3.941850e-002
1.718336e+003;3.938690e-002
1.720265e+003;3.964960e-002
1.722193e+003;3.978285e-002
1.724122e+003;3.964685e-002
1.726050e+003;3.936792e-002
1.727979e+003;3.897590e-002
1.729908e+003;3.845526e-002
1.731836e+003;3.762204e-002
1.733765e+003;3.681361e-002
1.735693e+003;3.645628e-002
1.737622e+003;3.600863e-002
1.739550e+003;3.529454e-002
1.741479e+003;3.477987e-002
1.743407e+003;3.438174e-002
1.745336e+003;3.413754e-002
1.747265e+003;3.400899e-002
1.749193e+003;3.381700e-002
1.751122e+003;3.364261e-002
1.753050e+003;3.372278e-002
1.754979e+003;3.364501e-002
1.756907e+003;3.334565e-002
1.758836e+003;3.302820e-002
1.760764e+003;3.272913e-002
1.762693e+003;3.247547e-002
1.764621e+003;3.211937e-002
1.766550e+003;3.186132e-002
1.768479e+003;3.161002e-002
1.770407e+003;3.110012e-002
1.772336e+003;3.050430e-002
1.774264e+003;3.034348e-002
1.776193e+003;3.027484e-002
1.778121e+003;2.994500e-002
1.780050e+003;2.959246e-002
1.781978e+003;2.934693e-002
1.783907e+003;2.923808e-002
1.785835e+003;2.898336e-002
1.787764e+003;2.858113e-002
1.789693e+003;2.823104e-002
1.791621e+003;2.799642e-002
1.793550e+003;2.800494e-002
1.795478e+003;2.817521e-002
1.797407e+003;2.816132e-002
1.799335e+003;2.788985e-002
1.801264e+003;2.751027e-002
1.803192e+003;2.719465e-002
1.805121e+003;2.703591e-002
1.807049e+003;2.704924e-002
1.808978e+003;2.709371e-002
1.810907e+003;2.716541e-002
1.812835e+003;2.712319e-002
1.814764e+003;2.701637e-002
1.816692e+003;2.658841e-002
1.818621e+003;2.650603e-002
1.820549e+003;2.681159e-002
1.822478e+003;2.681321e-002
1.824406e+003;2.662008e-002
1.826335e+003;2.650638e-002
1.828264e+003;2.646426e-002
1.830192e+003;2.647754e-002
1.832121e+003;2.644113e-002
1.834049e+003;2.636116e-002
1.835978e+003;2.634532e-002
1.837906e+003;2.636947e-002
1.839835e+003;2.618850e-002
1.841763e+003;2.606070e-002
1.843692e+003;2.584016e-002
1.845620e+003;2.572588e-002
1.847549e+003;2.565846e-002
1.849478e+003;2.543556e-002
1.851406e+003;2.532497e-002
1.853335e+003;2.534134e-002
1.855263e+003;2.539505e-002
1.857192e+003;2.544560e-002
1.859120e+003;2.551444e-002
1.861049e+003;2.552941e-002
1.862977e+003;2.533821e-002
1.864906e+003;2.536927e-002
1.866834e+003;2.522232e-002
1.868763e+003;2.506545e-002
1.870692e+003;2.498469e-002
1.872620e+003;2.491682e-002
1.874549e+003;2.511060e-002
1.876477e+003;2.522021e-002
1.878406e+003;2.526218e-002
1.880334e+003;2.522790e-002
1.882263e+003;2.492773e-002
1.884191e+003;2.474021e-002
1.886120e+003;2.487324e-002
1.888048e+003;2.491829e-002
1.889977e+003;2.485401e-002
1.891906e+003;2.485759e-002
1.893834e+003;2.497402e-002
1.895763e+003;2.546718e-002
1.897691e+003;2.573713e-002
1.899620e+003;2.552842e-002
1.901548e+003;2.538743e-002
1.903477e+003;2.565055e-002
1.905405e+003;2.572149e-002
1.907334e+003;2.545829e-002
1.909262e+003;2.531598e-002
1.911191e+003;2.526467e-002
1.913120e+003;2.523408e-002
1.915048e+003;2.501726e-002
1.916977e+003;2.488103e-002
1.918905e+003;2.506008e-002
1.920834e+003;2.500245e-002
1.922762e+003;2.487071e-002
1.924691e+003;2.493419e-002
1.926619e+003;2.476830e-002
1.928548e+003;2.475940e-002
1.930477e+003;2.506394e-002
1.932405e+003;2.499020e-002
1.934334e+003;2.484345e-002
1.936262e+003;2.478132e-002
1.938191e+003;2.466883e-002
1.940119e+003;2.466778e-002
1.942048e+003;2.476637e-002
1.943976e+003;2.487976e-002
1.945905e+003;2.481626e-002
1.947833e+003;2.491829e-002
1.949762e+003;2.492377e-002
1.951691e+003;2.476301e-002
1.953619e+003;2.482419e-002
1.955548e+003;2.506900e-002
1.957476e+003;2.526720e-002
1.959405e+003;2.523327e-002
1.961333e+003;2.500525e-002
1.963262e+003;2.485580e-002
1.965190e+003;2.496616e-002
1.967119e+003;2.518770e-002
1.969047e+003;2.526253e-002
1.970976e+003;2.516463e-002
1.972905e+003;2.512362e-002
1.974833e+003;2.527124e-002
1.976762e+003;2.534197e-002
1.978690e+003;2.549100e-002
1.980619e+003;2.540099e-002
1.982547e+003;2.522576e-002
1.984476e+003;2.546440e-002
1.986404e+003;2.564053e-002
1.988333e+003;2.549729e-002
1.990261e+003;2.533193e-002
1.992190e+003;2.536807e-002
1.994119e+003;2.533828e-002
1.996047e+003;2.543190e-002
1.997976e+003;2.565069e-002
1.999904e+003;2.574670e-002
2.001833e+003;2.586132e-002
2.003761e+003;2.583854e-002
2.005690e+003;2.572026e-002
2.007618e+003;2.573214e-002
2.009547e+003;2.575591e-002
2.011476e+003;2.584610e-002
2.013404e+003;2.581768e-002
2.015333e+003;2.586723e-002
2.017261e+003;2.598154e-002
2.019190e+003;2.604684e-002
2.021118e+003;2.604518e-002
2.023047e+003;2.611270e-002
2.024975e+003;2.622722e-002
2.026904e+003;2.625182e-002
2.028833e+003;2.637376e-002
2.030761e+003;2.658387e-002
2.032690e+003;2.669759e-002
2.034618e+003;2.665348e-002
2.036547e+003;2.676151e-002
2.038475e+003;2.687243e-002
2.040404e+003;2.686894e-002
2.042332e+003;2.664760e-002
2.044261e+003;2.669093e-002
2.046189e+003;2.705093e-002
2.048118e+003;2.708637e-002
2.050047e+003;2.694279e-002
2.051975e+003;2.678823e-002
2.053904e+003;2.680500e-002
2.055832e+003;2.705287e-002
2.057761e+003;2.721187e-002
2.059689e+003;2.724161e-002
2.061618e+003;2.740738e-002
2.063546e+003;2.746131e-002
2.065475e+003;2.749495e-002
2.067404e+003;2.762544e-002
2.069332e+003;2.759722e-002
2.071260e+003;2.744783e-002
2.073189e+003;2.738645e-002
2.075118e+003;2.737495e-002
2.077046e+003;2.738338e-002
2.078975e+003;2.730113e-002
2.080903e+003;2.712873e-002
2.082832e+003;2.685463e-002
2.084760e+003;2.672078e-002
2.086689e+003;2.691498e-002
2.088617e+003;2.709991e-002
2.090546e+003;2.704610e-002
2.092475e+003;2.686302e-002
2.094403e+003;2.691339e-002
2.096332e+003;2.707667e-002
2.098260e+003;2.699472e-002
2.100189e+003;2.698249e-002
2.102117e+003;2.701673e-002
2.104046e+003;2.701898e-002
2.105974e+003;2.689513e-002
2.107903e+003;2.697974e-002
2.109832e+003;2.726380e-002
2.111760e+003;2.749770e-002
2.113688e+003;2.753452e-002
2.115617e+003;2.742965e-002
2.117546e+003;2.743381e-002
2.119474e+003;2.755027e-002
2.121403e+003;2.755020e-002
2.123331e+003;2.747631e-002
2.125260e+003;2.749107e-002
2.127188e+003;2.761675e-002
2.129117e+003;2.781555e-002
2.131045e+003;2.787208e-002
2.132974e+003;2.781276e-002
2.134903e+003;2.780315e-002
2.136831e+003;2.779044e-002
2.138760e+003;2.784438e-002
2.140688e+003;2.794172e-002
2.142617e+003;2.791847e-002
2.144545e+003;2.801642e-002
2.146474e+003;2.816124e-002
2.148402e+003;2.797642e-002
2.150331e+003;2.799119e-002
2.152260e+003;2.815128e-002
2.154188e+003;2.815820e-002
2.156117e+003;2.816248e-002
2.158045e+003;2.809182e-002
2.159974e+003;2.813519e-002
2.161902e+003;2.817535e-002
2.163831e+003;2.812738e-002
2.165759e+003;2.842538e-002
2.167688e+003;2.871258e-002
2.169616e+003;2.863662e-002
2.171545e+003;2.867998e-002
2.173474e+003;2.874218e-002
2.175402e+003;2.889492e-002
2.177331e+003;2.892283e-002
2.179259e+003;2.880551e-002
2.181188e+003;2.877832e-002
2.183116e+003;2.873435e-002
2.185045e+003;2.884333e-002
2.186973e+003;2.899611e-002
2.188902e+003;2.890374e-002
2.190831e+003;2.888179e-002
2.192759e+003;2.897274e-002
2.194688e+003;2.903940e-002
2.196616e+003;2.894061e-002
2.198545e+003;2.882853e-002
2.200473e+003;2.881932e-002
2.202402e+003;2.866873e-002
2.204330e+003;2.874306e-002
2.206259e+003;2.904804e-002
2.208188e+003;2.893640e-002
2.210116e+003;2.860215e-002
2.212044e+003;2.836617e-002
2.213973e+003;2.809309e-002
2.215902e+003;2.793557e-002
2.217830e+003;2.810811e-002
2.219759e+003;2.817008e-002
2.221687e+003;2.806308e-002
2.223616e+003;2.818567e-002
2.225544e+003;2.812904e-002
2.227473e+003;2.789476e-002
2.229401e+003;2.779648e-002
2.231330e+003;2.795151e-002
2.233259e+003;2.814583e-002
2.235187e+003;2.816227e-002
2.237116e+003;2.801476e-002
2.239044e+003;2.794688e-002
2.240973e+003;2.779584e-002
2.242901e+003;2.776998e-002
2.244830e+003;2.789497e-002
2.246758e+003;2.787808e-002
2.248687e+003;2.785236e-002
2.250615e+003;2.775038e-002
2.252544e+003;2.762236e-002
2.254473e+003;2.784487e-002
2.256401e+003;2.820714e-002
2.258330e+003;2.828967e-002
2.260258e+003;2.831817e-002
2.262187e+003;2.838640e-002
2.264115e+003;2.838725e-002
2.266044e+003;2.846348e-002
2.267972e+003;2.833094e-002
2.269901e+003;2.827411e-002
2.271830e+003;2.849688e-002
2.273758e+003;2.844678e-002
2.275687e+003;2.836518e-002
2.277615e+003;2.866657e-002
2.279544e+003;2.878477e-002
2.281472e+003;2.866706e-002
2.283401e+003;2.859663e-002
2.285329e+003;2.870218e-002
2.287258e+003;2.870133e-002
2.289187e+003;2.863517e-002
2.291115e+003;2.855732e-002
2.293043e+003;2.879868e-002
2.294972e+003;2.910838e-002
2.296901e+003;2.918775e-002
2.298829e+003;2.918832e-002
2.300758e+003;2.908443e-002
2.302686e+003;2.903501e-002
2.304615e+003;2.890781e-002
2.306543e+003;2.895651e-002
2.308472e+003;2.920462e-002
2.310400e+003;2.920147e-002
2.312329e+003;2.900408e-002
2.314258e+003;2.902307e-002
2.316186e+003;2.925881e-002
2.318115e+003;2.930028e-002
2.320043e+003;2.927497e-002
2.321972e+003;2.944088e-002
2.323900e+003;2.939376e-002
2.325829e+003;2.933984e-002
2.327757e+003;2.940085e-002
2.329686e+003;2.932212e-002
2.331615e+003;2.927813e-002
2.333543e+003;2.925349e-002
2.335472e+003;2.910856e-002
2.337400e+003;2.897801e-002
2.339329e+003;2.913297e-002
2.341257e+003;2.924874e-002
2.343186e+003;2.896994e-002
2.345114e+003;2.862321e-002
2.347043e+003;2.863319e-002
2.348971e+003;2.889298e-002
2.350900e+003;2.887938e-002
2.352829e+003;2.873106e-002
2.354757e+003;2.864554e-002
2.356686e+003;2.875510e-002
2.358614e+003;2.887647e-002
2.360543e+003;2.867138e-002
2.362471e+003;2.846299e-002
2.364400e+003;2.853209e-002
2.366328e+003;2.880569e-002
2.368257e+003;2.892510e-002
2.370186e+003;2.895347e-002
2.372114e+003;2.919994e-002
2.374042e+003;2.932733e-002
2.375971e+003;2.928493e-002
2.377900e+003;2.932034e-002
2.379828e+003;2.949528e-002
2.381757e+003;2.987617e-002
2.383685e+003;3.002683e-002
2.385614e+003;2.988490e-002
2.387542e+003;2.964485e-002
2.389471e+003;2.951181e-002
2.391399e+003;2.935959e-002
2.393328e+003;2.951674e-002
2.395257e+003;2.976161e-002
2.397185e+003;2.975076e-002
2.399114e+003;2.943230e-002
2.401042e+003;2.923251e-002
2.402971e+003;2.940688e-002
2.404899e+003;2.974341e-002
2.406828e+003;2.977038e-002
2.408756e+003;2.973248e-002
2.410685e+003;2.983642e-002
2.412614e+003;2.997478e-002
2.414542e+003;2.991834e-002
2.416471e+003;2.994266e-002
2.418399e+003;3.012804e-002
2.420328e+003;3.007427e-002
2.422256e+003;2.997003e-002
2.424185e+003;2.999719e-002
2.426113e+003;3.001153e-002
2.428042e+003;2.991451e-002
2.429970e+003;3.013805e-002
2.431899e+003;3.042710e-002
2.433828e+003;3.056625e-002
2.435756e+003;3.048521e-002
2.437685e+003;3.044512e-002
2.439613e+003;3.056789e-002
2.441542e+003;3.087530e-002
2.443470e+003;3.105812e-002
2.445399e+003;3.104969e-002
2.447327e+003;3.126758e-002
2.449256e+003;3.122443e-002
2.451185e+003;3.102367e-002
2.453113e+003;3.116551e-002
2.455042e+003;3.144370e-002
2.456970e+003;3.143105e-002
2.458899e+003;3.146571e-002
2.460827e+003;3.162377e-002
2.462756e+003;3.161864e-002
2.464684e+003;3.171971e-002
2.466613e+003;3.183429e-002
2.468542e+003;3.206785e-002
2.470470e+003;3.229033e-002
2.472398e+003;3.235765e-002
2.474327e+003;3.225764e-002
2.476256e+003;3.220600e-002
2.478184e+003;3.213182e-002
2.480113e+003;3.207884e-002
2.482041e+003;3.210310e-002
2.483970e+003;3.229197e-002
2.485898e+003;3.235801e-002
2.487827e+003;3.220386e-002
2.489755e+003;3.221182e-002
2.491684e+003;3.239942e-002
2.493613e+003;3.236547e-002
2.495541e+003;3.219533e-002
2.497470e+003;3.216208e-002
2.499398e+003;3.214067e-002
2.501327e+003;3.207235e-002
2.503255e+003;3.212608e-002
2.505184e+003;3.226874e-002
2.507112e+003;3.223269e-002
2.509041e+003;3.228119e-002
2.510969e+003;3.255257e-002
2.512898e+003;3.281689e-002
2.514827e+003;3.297393e-002
2.516755e+003;3.318583e-002
2.518684e+003;3.337410e-002
2.520612e+003;3.355150e-002
2.522541e+003;3.354223e-002
2.524469e+003;3.345884e-002
2.526398e+003;3.362893e-002
2.528326e+003;3.377642e-002
2.530255e+003;3.407023e-002
2.532184e+003;3.437694e-002
2.534112e+003;3.442249e-002
2.536041e+003;3.436790e-002
2.537969e+003;3.453093e-002
2.539898e+003;3.476655e-002
2.541826e+003;3.487220e-002
2.543755e+003;3.495828e-002
2.545683e+003;3.504623e-002
2.547612e+003;3.529637e-002
2.549541e+003;3.565725e-002
2.551469e+003;3.565505e-002
2.553397e+003;3.550221e-002
2.555326e+003;3.532200e-002
2.557255e+003;3.514164e-002
2.559183e+003;3.501297e-002
2.561112e+003;3.508467e-002
2.563040e+003;3.528541e-002
2.564969e+003;3.552720e-002
2.566897e+003;3.575398e-002
2.568826e+003;3.575545e-002
2.570754e+003;3.558830e-002
2.572683e+003;3.578272e-002
2.574612e+003;3.602155e-002
2.576540e+003;3.618970e-002
2.578469e+003;3.629595e-002
2.580397e+003;3.634444e-002
2.582326e+003;3.656508e-002
2.584254e+003;3.668271e-002
2.586183e+003;3.661256e-002
2.588111e+003;3.672508e-002
2.590040e+003;3.702832e-002
2.591969e+003;3.690342e-002
2.593897e+003;3.658704e-002
2.595826e+003;3.663260e-002
2.597754e+003;3.678743e-002
2.599683e+003;3.691410e-002
2.601611e+003;3.695963e-002
2.603540e+003;3.704702e-002
2.605468e+003;3.727264e-002
2.607397e+003;3.720665e-002
2.609325e+003;3.717091e-002
2.611254e+003;3.723235e-002
2.613183e+003;3.727441e-002
2.615111e+003;3.749300e-002
2.617040e+003;3.787204e-002
2.618968e+003;3.790740e-002
2.620897e+003;3.765605e-002
2.622825e+003;3.747588e-002
2.624754e+003;3.767848e-002
2.626682e+003;3.794468e-002
2.628611e+003;3.785603e-002
2.630540e+003;3.788799e-002
2.632468e+003;3.821599e-002
2.634396e+003;3.832940e-002
2.636325e+003;3.803603e-002
2.638254e+003;3.821411e-002
2.640182e+003;3.864210e-002
2.642111e+003;3.865876e-002
2.644039e+003;3.864750e-002
2.645968e+003;3.862330e-002
2.647896e+003;3.848115e-002
2.649825e+003;3.848306e-002
2.651753e+003;3.868640e-002
2.653682e+003;3.885932e-002
2.655611e+003;3.905046e-002
2.657539e+003;3.917167e-002
2.659468e+003;3.924728e-002
2.661396e+003;3.906145e-002
2.663325e+003;3.896318e-002
2.665253e+003;3.906960e-002
2.667182e+003;3.922229e-002
2.669110e+003;3.927836e-002
2.671039e+003;3.936027e-002
2.672968e+003;3.977348e-002
2.674896e+003;4.001343e-002
2.676825e+003;3.994040e-002
2.678753e+003;4.000165e-002
2.680682e+003;4.027633e-002
2.682610e+003;4.030392e-002
2.684539e+003;4.036446e-002
2.686467e+003;4.061342e-002
2.688396e+003;4.054074e-002
2.690324e+003;4.055678e-002
2.692253e+003;4.095373e-002
2.694182e+003;4.143279e-002
2.696110e+003;4.180654e-002
2.698039e+003;4.178932e-002
2.699967e+003;4.196209e-002
2.701896e+003;4.192059e-002
2.703824e+003;4.191509e-002
2.705753e+003;4.231985e-002
2.707681e+003;4.256833e-002
2.709610e+003;4.262290e-002
2.711539e+003;4.281363e-002
2.713467e+003;4.304904e-002
2.715396e+003;4.318205e-002
2.717324e+003;4.350145e-002
2.719253e+003;4.398645e-002
2.721181e+003;4.425525e-002
2.723110e+003;4.420796e-002
2.725038e+003;4.453928e-002
2.726967e+003;4.500346e-002
2.728896e+003;4.502838e-002
2.730824e+003;4.513108e-002
2.732752e+003;4.540829e-002
2.734681e+003;4.571413e-002
2.736610e+003;4.599133e-002
2.738538e+003;4.611984e-002
2.740467e+003;4.635033e-002
2.742395e+003;4.659253e-002
2.744324e+003;4.663348e-002
2.746252e+003;4.661518e-002
2.748181e+003;4.680439e-002
2.750109e+003;4.708089e-002
2.752038e+003;4.686122e-002
2.753967e+003;4.675767e-002
2.755895e+003;4.664617e-002
2.757824e+003;4.649233e-002
2.759752e+003;4.677549e-002
2.761681e+003;4.718212e-002
2.763609e+003;4.732232e-002
2.765538e+003;4.742076e-002
2.767466e+003;4.763657e-002
2.769395e+003;4.798657e-002
2.771323e+003;4.807809e-002
2.773252e+003;4.792448e-002
2.775181e+003;4.823661e-002
2.777109e+003;4.874799e-002
2.779038e+003;4.919595e-002
2.780966e+003;4.943261e-002
2.782895e+003;4.955527e-002
2.784823e+003;4.980893e-002
2.786752e+003;5.027033e-002
2.788680e+003;5.058148e-002
2.790609e+003;5.078069e-002
2.792538e+003;5.114426e-002
2.794466e+003;5.145036e-002
2.796395e+003;5.172682e-002
2.798323e+003;5.207299e-002
2.800252e+003;5.211704e-002
2.802180e+003;5.235288e-002
2.804109e+003;5.290950e-002
2.806037e+003;5.342833e-002
2.807966e+003;5.385762e-002
2.809895e+003;5.429910e-002
2.811823e+003;5.450130e-002
2.813751e+003;5.459831e-002
2.815680e+003;5.516926e-002
2.817609e+003;5.607792e-002
2.819537e+003;5.686912e-002
2.821466e+003;5.728667e-002
2.823394e+003;5.780303e-002
2.825323e+003;5.854319e-002
2.827251e+003;5.873501e-002
2.829180e+003;5.916192e-002
2.831108e+003;6.013857e-002
2.833037e+003;6.111281e-002
2.834966e+003;6.208308e-002
2.836894e+003;6.324196e-002
2.838823e+003;6.509308e-002
2.840751e+003;6.723885e-002
2.842680e+003;6.983203e-002
2.844608e+003;7.304065e-002
2.846537e+003;7.614101e-002
2.848465e+003;7.937229e-002
2.850394e+003;8.319810e-002
2.852323e+003;8.713235e-002
2.854251e+003;9.074001e-002
2.856180e+003;9.336986e-002
2.858108e+003;9.522177e-002
2.860037e+003;9.673854e-002
2.861965e+003;9.747445e-002
2.863894e+003;9.741577e-002
2.865822e+003;9.673179e-002
2.867751e+003;9.514392e-002
2.869679e+003;9.298830e-002
2.871608e+003;9.091771e-002
2.873536e+003;8.862104e-002
2.875465e+003;8.612118e-002
2.877394e+003;8.381173e-002
2.879322e+003;8.193848e-002
2.881251e+003;8.042187e-002
2.883179e+003;7.933024e-002
2.885108e+003;7.844561e-002
2.887036e+003;7.821973e-002
2.888965e+003;7.902504e-002
2.890893e+003;8.038527e-002
2.892822e+003;8.221149e-002
2.894750e+003;8.406655e-002
2.896679e+003;8.567392e-002
2.898608e+003;8.690571e-002
2.900536e+003;8.785944e-002
2.902465e+003;8.854912e-002
2.904393e+003;8.952443e-002
2.906322e+003;9.053198e-002
2.908250e+003;9.172304e-002
2.910179e+003;9.282034e-002
2.912107e+003;9.412847e-002
2.914036e+003;9.572010e-002
2.915965e+003;9.732012e-002
2.917893e+003;9.925319e-002
2.919822e+003;1.021856e-001
2.921750e+003;1.053095e-001
2.923679e+003;1.087177e-001
2.925607e+003;1.117658e-001
2.927536e+003;1.141332e-001
2.929464e+003;1.160413e-001
2.931393e+003;1.180404e-001
2.933322e+003;1.194220e-001
2.935250e+003;1.196475e-001
2.937178e+003;1.190996e-001
2.939107e+003;1.176495e-001
2.941036e+003;1.152367e-001
2.942964e+003;1.122550e-001
2.944893e+003;1.087204e-001
2.946821e+003;1.045511e-001
2.948750e+003;9.956269e-002
2.950678e+003;9.421042e-002
2.952607e+003;8.929598e-002
2.954535e+003;8.464995e-002
2.956464e+003;7.992078e-002
2.958393e+003;7.560563e-002
2.960321e+003;7.210162e-002
2.962250e+003;6.894729e-002
2.964178e+003;6.662030e-002
2.966107e+003;6.466376e-002
2.968035e+003;6.257835e-002
2.969964e+003;6.040458e-002
2.971892e+003;5.842230e-002
2.973821e+003;5.699695e-002
2.975750e+003;5.556191e-002
2.977678e+003;5.380928e-002
2.979607e+003;5.214562e-002
2.981535e+003;5.135253e-002
2.983464e+003;5.087235e-002
2.985392e+003;4.980291e-002
2.987321e+003;4.912307e-002
2.989249e+003;4.868883e-002
2.991178e+003;4.800814e-002
2.993106e+003;4.741740e-002
2.995035e+003;4.717850e-002
2.996964e+003;4.711365e-002
2.998892e+003;4.698360e-002
3.000821e+003;4.691124e-002
3.002749e+003;4.680206e-002
3.004678e+003;4.689157e-002
3.006606e+003;4.710899e-002
3.008535e+003;4.728194e-002
3.010463e+003;4.736248e-002
3.012392e+003;4.735639e-002
3.014321e+003;4.747834e-002
3.016249e+003;4.759464e-002
3.018177e+003;4.793935e-002
3.020106e+003;4.828134e-002
3.022035e+003;4.880323e-002
3.023963e+003;4.942296e-002
3.025892e+003;4.949448e-002
3.027820e+003;4.934552e-002
3.029749e+003;4.976489e-002
3.031677e+003;5.033946e-002
3.033606e+003;5.077778e-002
3.035534e+003;5.131174e-002
3.037463e+003;5.200446e-002
3.039392e+003;5.242494e-002
3.041320e+003;5.292410e-002
3.043249e+003;5.360399e-002
3.045177e+003;5.431615e-002
3.047106e+003;5.505306e-002
3.049034e+003;5.564635e-002
3.050963e+003;5.634168e-002
3.052891e+003;5.692498e-002
3.054820e+003;5.747022e-002
3.056749e+003;5.807136e-002
3.058677e+003;5.867778e-002
3.060606e+003;5.905380e-002
3.062534e+003;5.913853e-002
3.064463e+003;5.942251e-002
3.066391e+003;5.989292e-002
3.068320e+003;6.043870e-002
3.070248e+003;6.063273e-002
3.072177e+003;6.064500e-002
3.074105e+003;6.058397e-002
3.076034e+003;6.054512e-002
3.077963e+003;6.071953e-002
3.079891e+003;6.067918e-002
3.081820e+003;6.049179e-002
3.083748e+003;6.016107e-002
3.085677e+003;5.994511e-002
3.087605e+003;5.955216e-002
3.089534e+003;5.906507e-002
3.091462e+003;5.856397e-002
3.093391e+003;5.815894e-002
3.095320e+003;5.751273e-002
3.097248e+003;5.670330e-002
3.099177e+003;5.617075e-002
3.101105e+003;5.592842e-002
3.103034e+003;5.530634e-002
3.104962e+003;5.488813e-002
3.106891e+003;5.453218e-002
3.108819e+003;5.392076e-002
3.110748e+003;5.344687e-002
3.112677e+003;5.301682e-002
3.114605e+003;5.267120e-002
3.116533e+003;5.248955e-002
3.118462e+003;5.225611e-002
3.120391e+003;5.192114e-002
3.122319e+003;5.155284e-002
3.124248e+003;5.099064e-002
3.126176e+003;5.094485e-002
3.128105e+003;5.118169e-002
3.130033e+003;5.081562e-002
3.131962e+003;5.054131e-002
3.133890e+003;5.086092e-002
3.135819e+003;5.105913e-002
3.137748e+003;5.086978e-002
3.139676e+003;5.065072e-002
3.141605e+003;5.065668e-002
3.143533e+003;5.066662e-002
3.145462e+003;5.078121e-002
3.147390e+003;5.102113e-002
3.149319e+003;5.141474e-002
3.151247e+003;5.225424e-002
3.153176e+003;5.269267e-002
3.155104e+003;5.238670e-002
3.157033e+003;5.247781e-002
3.158962e+003;5.258177e-002
3.160890e+003;5.274819e-002
3.162819e+003;5.344931e-002
3.164747e+003;5.394462e-002
3.166676e+003;5.382743e-002
3.168604e+003;5.417064e-002
3.170533e+003;5.504392e-002
3.172461e+003;5.581658e-002
3.174390e+003;5.627337e-002
3.176319e+003;5.655381e-002
3.178247e+003;5.678184e-002
3.180176e+003;5.726236e-002
3.182104e+003;5.803830e-002
3.184033e+003;5.878050e-002
3.185961e+003;5.922325e-002
3.187890e+003;5.922906e-002
3.189818e+003;5.943311e-002
3.191747e+003;5.997984e-002
3.193676e+003;6.038852e-002
3.195604e+003;6.058763e-002
3.197532e+003;6.113760e-002
3.199461e+003;6.201998e-002
3.201390e+003;6.249528e-002
3.203318e+003;6.230959e-002
3.205247e+003;6.213530e-002
3.207175e+003;6.240908e-002
3.209104e+003;6.309354e-002
3.211032e+003;6.367838e-002
3.212961e+003;6.388059e-002
3.214889e+003;6.412754e-002
3.216818e+003;6.480671e-002
3.218747e+003;6.552428e-002
3.220675e+003;6.614645e-002
3.222604e+003;6.669447e-002
3.224532e+003;6.743765e-002
3.226461e+003;6.852548e-002
3.228389e+003;6.897005e-002
3.230318e+003;6.918456e-002
3.232246e+003;7.028098e-002
3.234175e+003;7.147794e-002
3.236104e+003;7.244945e-002
3.238032e+003;7.343006e-002
3.239961e+003;7.484438e-002
3.241889e+003;7.651852e-002
3.243818e+003;7.806154e-002
3.245746e+003;7.949896e-002
3.247675e+003;8.106453e-002
3.249603e+003;8.245260e-002
3.251532e+003;8.381647e-002
3.253460e+003;8.515420e-002
3.255389e+003;8.649990e-002
3.257318e+003;8.824801e-002
3.259246e+003;9.033795e-002
3.261175e+003;9.226503e-002
3.263103e+003;9.408917e-002
3.265032e+003;9.576277e-002
3.266960e+003;9.737389e-002
3.268889e+003;9.902405e-002
3.270817e+003;1.005862e-001
3.272746e+003;1.023928e-001
3.274675e+003;1.042656e-001
3.276603e+003;1.059160e-001
3.278531e+003;1.080133e-001
3.280460e+003;1.101621e-001
3.282389e+003;1.118859e-001
3.284317e+003;1.134180e-001
3.286246e+003;1.149201e-001
3.288174e+003;1.159957e-001
3.290103e+003;1.166649e-001
3.292031e+003;1.173172e-001
3.293960e+003;1.178556e-001
3.295888e+003;1.175645e-001
3.297817e+003;1.165962e-001
3.299746e+003;1.153251e-001
3.301674e+003;1.137484e-001
3.303603e+003;1.118847e-001
3.305531e+003;1.095929e-001
3.307460e+003;1.068576e-001
3.309388e+003;1.046297e-001
3.311317e+003;1.024159e-001
3.313245e+003;9.982797e-002
3.315174e+003;9.717923e-002
3.317103e+003;9.464270e-002
3.319031e+003;9.226253e-002
3.320960e+003;9.000897e-002
3.322888e+003;8.778871e-002
3.324817e+003;8.533221e-002
3.326745e+003;8.278660e-002
3.328674e+003;8.059037e-002
3.330602e+003;7.859924e-002
3.332531e+003;7.683636e-002
3.334459e+003;7.487823e-002
3.336388e+003;7.271398e-002
3.338317e+003;7.059920e-002
3.340245e+003;6.887941e-002
3.342174e+003;6.763007e-002
3.344102e+003;6.641485e-002
3.346031e+003;6.503346e-002
3.347959e+003;6.349155e-002
3.349888e+003;6.217010e-002
3.351816e+003;6.102902e-002
3.353745e+003;5.966246e-002
3.355674e+003;5.835108e-002
3.357602e+003;5.719315e-002
3.359531e+003;5.608893e-002
3.361459e+003;5.514300e-002
3.363388e+003;5.399752e-002
3.365316e+003;5.287429e-002
3.367245e+003;5.238431e-002
3.369173e+003;5.199747e-002
3.371102e+003;5.150643e-002
3.373031e+003;5.062332e-002
3.374959e+003;4.991094e-002
3.376887e+003;4.954431e-002
3.378816e+003;4.936505e-002
3.380745e+003;4.919862e-002
3.382673e+003;4.854819e-002
3.384602e+003;4.772868e-002
3.386530e+003;4.737169e-002
3.388459e+003;4.695329e-002
3.390387e+003;4.628663e-002
3.392316e+003;4.595306e-002
3.394244e+003;4.587900e-002
3.396173e+003;4.570768e-002
3.398102e+003;4.545747e-002
3.400030e+003;4.526040e-002
3.401959e+003;4.505165e-002
3.403887e+003;4.491670e-002
3.405816e+003;4.437568e-002
3.407744e+003;4.377531e-002
3.409673e+003;4.332224e-002
3.411601e+003;4.345241e-002
3.413530e+003;4.353829e-002
3.415458e+003;4.360947e-002
3.417387e+003;4.353368e-002
3.419316e+003;4.330207e-002
3.421244e+003;4.297265e-002
3.423173e+003;4.243156e-002
3.425101e+003;4.219470e-002
3.427030e+003;4.254341e-002
3.428958e+003;4.242089e-002
3.430887e+003;4.222862e-002
3.432815e+003;4.231985e-002
3.434744e+003;4.209641e-002
3.436673e+003;4.182478e-002
3.438601e+003;4.232837e-002
3.440530e+003;4.230101e-002
3.442458e+003;4.214270e-002
3.444387e+003;4.198417e-002
3.446315e+003;4.168864e-002
3.448244e+003;4.181942e-002
3.450172e+003;4.123578e-002
3.452101e+003;4.040962e-002
3.454030e+003;4.047948e-002
3.455958e+003;4.048072e-002
3.457886e+003;4.031370e-002
3.459815e+003;4.041355e-002
3.461744e+003;4.055045e-002
3.463672e+003;4.053066e-002
3.465601e+003;3.997779e-002
3.467529e+003;3.976575e-002
3.469458e+003;3.989380e-002
3.471386e+003;3.983173e-002
3.473315e+003;3.946675e-002
3.475243e+003;3.902817e-002
3.477172e+003;3.898250e-002
3.479101e+003;3.891516e-002
3.481029e+003;3.882279e-002
3.482958e+003;3.907283e-002
3.484886e+003;3.934576e-002
3.486815e+003;3.932621e-002
3.488743e+003;3.856210e-002
3.490672e+003;3.813539e-002
3.492600e+003;3.818061e-002
3.494529e+003;3.810240e-002
3.496458e+003;3.813582e-002
3.498386e+003;3.782776e-002
3.500315e+003;3.768358e-002
3.502243e+003;3.796323e-002
3.504172e+003;3.773833e-002
3.506100e+003;3.759361e-002
3.508029e+003;3.782909e-002
3.509957e+003;3.766974e-002
3.511886e+003;3.729315e-002
3.513814e+003;3.710050e-002
3.515743e+003;3.704976e-002
3.517672e+003;3.663224e-002
3.519600e+003;3.589568e-002
3.521529e+003;3.575243e-002
3.523457e+003;3.589892e-002
3.525386e+003;3.592940e-002
3.527314e+003;3.587455e-002
3.529243e+003;3.550861e-002
3.531171e+003;3.573966e-002
3.533100e+003;3.610436e-002
3.535029e+003;3.544756e-002
3.536957e+003;3.464955e-002
3.538885e+003;3.429414e-002
3.540814e+003;3.427033e-002
3.542743e+003;3.411718e-002
3.544671e+003;3.391730e-002
3.546600e+003;3.374326e-002
3.548528e+003;3.334143e-002
3.550457e+003;3.287368e-002
3.552385e+003;3.278962e-002
3.554314e+003;3.334333e-002
3.556242e+003;3.320807e-002
3.558171e+003;3.266047e-002
3.560100e+003;3.210834e-002
3.562028e+003;3.149511e-002
3.563957e+003;3.100965e-002
3.565885e+003;3.091272e-002
3.567814e+003;3.105584e-002
3.569742e+003;3.109015e-002
3.571671e+003;3.091930e-002
3.573599e+003;3.051890e-002
3.575528e+003;3.007676e-002
3.577457e+003;2.994102e-002
3.579385e+003;2.971964e-002
3.581314e+003;2.942468e-002
3.583242e+003;2.888458e-002
3.585171e+003;2.836783e-002
3.587099e+003;2.800374e-002
3.589028e+003;2.795988e-002
3.590956e+003;2.762367e-002
3.592885e+003;2.746050e-002
3.594813e+003;2.778676e-002
3.596742e+003;2.769733e-002
3.598671e+003;2.755076e-002
3.600599e+003;2.748397e-002
3.602528e+003;2.751186e-002
3.604456e+003;2.738391e-002
3.606385e+003;2.689199e-002
3.608313e+003;2.617460e-002
3.610242e+003;2.587159e-002
3.612170e+003;2.564489e-002
3.614099e+003;2.540865e-002
3.616028e+003;2.539424e-002
3.617956e+003;2.522014e-002
3.619885e+003;2.480956e-002
3.621813e+003;2.458246e-002
3.623742e+003;2.457997e-002
3.625670e+003;2.417889e-002
3.627599e+003;2.380895e-002
3.629527e+003;2.366858e-002
3.631456e+003;2.358825e-002
3.633385e+003;2.360700e-002
3.635313e+003;2.349713e-002
3.637241e+003;2.280051e-002
3.639170e+003;2.261456e-002
3.641099e+003;2.291111e-002
3.643027e+003;2.288418e-002
3.644956e+003;2.238313e-002
3.646884e+003;2.203315e-002
3.648813e+003;2.172236e-002
3.650741e+003;2.178740e-002
3.652670e+003;2.203075e-002
3.654598e+003;2.205020e-002
3.656527e+003;2.196585e-002
3.658456e+003;2.176897e-002
3.660384e+003;2.161582e-002
3.662313e+003;2.147564e-002
3.664241e+003;2.145479e-002
3.666170e+003;2.134591e-002
3.668098e+003;2.104308e-002
3.670027e+003;2.070805e-002
3.671955e+003;2.046336e-002
3.673884e+003;2.060144e-002
3.675813e+003;2.091484e-002
3.677741e+003;2.100650e-002
3.679669e+003;2.103383e-002
3.681598e+003;2.056027e-002
3.683527e+003;1.984743e-002
3.685455e+003;1.987754e-002
3.687384e+003;1.973857e-002
3.689312e+003;1.935621e-002
3.691241e+003;1.921336e-002
3.693169e+003;1.928145e-002
3.695098e+003;1.925520e-002
3.697026e+003;1.932309e-002
3.698955e+003;1.915788e-002
3.700884e+003;1.909507e-002
3.702812e+003;1.910175e-002
3.704741e+003;1.890763e-002
3.706669e+003;1.855628e-002
3.708598e+003;1.816736e-002
3.710526e+003;1.832673e-002
3.712455e+003;1.853713e-002
3.714383e+003;1.838829e-002
3.716312e+003;1.867771e-002
3.718240e+003;1.901202e-002
3.720169e+003;1.870092e-002
3.722098e+003;1.870885e-002
3.724026e+003;1.862988e-002
3.725955e+003;1.848042e-002
3.727883e+003;1.827226e-002
3.729812e+003;1.795386e-002
3.731740e+003;1.798705e-002
3.733669e+003;1.820357e-002
3.735597e+003;1.816898e-002
3.737526e+003;1.823667e-002
3.739455e+003;1.837799e-002
3.741383e+003;1.847880e-002
3.743312e+003;1.798698e-002
3.745240e+003;1.788691e-002
3.747169e+003;1.815347e-002
3.749097e+003;1.814970e-002
3.751026e+003;1.812221e-002
3.752954e+003;1.817879e-002
3.754883e+003;1.848170e-002
3.756812e+003;1.868764e-002
3.758740e+003;1.846936e-002
3.760668e+003;1.816114e-002
3.762597e+003;1.850580e-002
3.764526e+003;1.924990e-002
3.766454e+003;1.920945e-002
3.768383e+003;1.850535e-002
3.770311e+003;1.842497e-002
3.772240e+003;1.849913e-002
3.774168e+003;1.846922e-002
3.776097e+003;1.866353e-002
3.778025e+003;1.827931e-002
3.779954e+003;1.800891e-002
3.781883e+003;1.817655e-002
3.783811e+003;1.827447e-002
3.785740e+003;1.842092e-002
3.787668e+003;1.845936e-002
3.789597e+003;1.846054e-002
3.791525e+003;1.835365e-002
3.793454e+003;1.817061e-002
3.795382e+003;1.814356e-002
3.797311e+003;1.843693e-002
3.799240e+003;1.841861e-002
3.801168e+003;1.845311e-002
3.803097e+003;1.866948e-002
3.805025e+003;1.818315e-002
3.806954e+003;1.764246e-002
3.808882e+003;1.791764e-002
3.810811e+003;1.858571e-002
3.812739e+003;1.907578e-002
3.814668e+003;1.880257e-002
3.816596e+003;1.871569e-002
3.818525e+003;1.888392e-002
3.820454e+003;1.879738e-002
3.822382e+003;1.922593e-002
3.824311e+003;1.933695e-002
3.826239e+003;1.913884e-002
3.828168e+003;1.908766e-002
3.830096e+003;1.910636e-002
3.832025e+003;1.925821e-002
3.833953e+003;1.926413e-002
3.835882e+003;1.869743e-002
3.837811e+003;1.836489e-002
3.839739e+003;1.886862e-002
3.841667e+003;1.907603e-002
3.843596e+003;1.887367e-002
3.845525e+003;1.915771e-002
3.847453e+003;1.960953e-002
3.849382e+003;1.964337e-002
3.851310e+003;1.908264e-002
3.853239e+003;1.872227e-002
3.855167e+003;1.904352e-002
3.857096e+003;1.940444e-002
3.859024e+003;1.945184e-002
3.860953e+003;1.957591e-002
3.862882e+003;1.958083e-002
3.864810e+003;1.938590e-002
3.866739e+003;1.904148e-002
3.868667e+003;1.851420e-002
3.870596e+003;1.864527e-002
3.872524e+003;1.951720e-002
3.874453e+003;1.966690e-002
3.876381e+003;1.949751e-002
3.878310e+003;1.965591e-002
3.880239e+003;1.955383e-002
3.882167e+003;1.884710e-002
3.884096e+003;1.886371e-002
3.886024e+003;1.971302e-002
3.887953e+003;1.992974e-002
3.889881e+003;1.930702e-002
3.891810e+003;1.930428e-002
3.893738e+003;1.983269e-002
3.895667e+003;1.966638e-002
3.897595e+003;1.938597e-002
3.899524e+003;1.903812e-002
3.901453e+003;1.907717e-002
3.903381e+003;1.949626e-002
3.905310e+003;1.988471e-002
3.907238e+003;2.008122e-002
3.909167e+003;1.986879e-002
3.911095e+003;1.994837e-002
3.913024e+003;2.010826e-002
3.914952e+003;2.025095e-002
3.916881e+003;2.041005e-002
3.918810e+003;2.078604e-002
3.920738e+003;2.088862e-002
3.922667e+003;2.047086e-002
3.924595e+003;2.056013e-002
3.926524e+003;2.089582e-002
3.928452e+003;2.113787e-002
3.930381e+003;2.171021e-002
3.932309e+003;2.154976e-002
3.934238e+003;2.157769e-002
3.936167e+003;2.207527e-002
3.938095e+003;2.163024e-002
3.940023e+003;2.103255e-002
3.941952e+003;2.063525e-002
3.943881e+003;2.124360e-002
3.945809e+003;2.231682e-002
3.947738e+003;2.251709e-002
3.949666e+003;2.178200e-002
3.951595e+003;2.151766e-002
3.953523e+003;2.178625e-002
3.955452e+003;2.176333e-002
3.957380e+003;2.169007e-002
3.959309e+003;2.176159e-002
3.961238e+003;2.188890e-002
3.963166e+003;2.179245e-002
3.965095e+003;2.161958e-002
3.967023e+003;2.169732e-002
3.968952e+003;2.200855e-002
3.970880e+003;2.237187e-002
3.972809e+003;2.259191e-002
3.974737e+003;2.269932e-002
3.976666e+003;2.297584e-002
3.978594e+003;2.296875e-002
3.980523e+003;2.257526e-002
3.982452e+003;2.249091e-002
3.984380e+003;2.247458e-002
3.986309e+003;2.244866e-002
3.988237e+003;2.267495e-002
3.990166e+003;2.312472e-002
3.992094e+003;2.377405e-002
3.994023e+003;2.412852e-002
3.995951e+003;2.379789e-002
3.997880e+003;2.330833e-002
3.999809e+003;2.316005e-002
4.001737e+003;0.000000e+000
