3.992094e+002;0.000000e+000
4.011380e+002;0.000000e+000
4.030665e+002;0.000000e+000
4.049951e+002;0.000000e+000
4.069236e+002;0.000000e+000
4.088522e+002;0.000000e+000
4.107807e+002;0.000000e+000
4.127093e+002;0.000000e+000
4.146378e+002;0.000000e+000
4.165664e+002;0.000000e+000
4.184949e+002;0.000000e+000
4.204235e+002;0.000000e+000
4.223520e+002;0.000000e+000
4.242806e+002;0.000000e+000
4.262091e+002;0.000000e+000
4.281377e+002;0.000000e+000
4.300662e+002;0.000000e+000
4.319948e+002;0.000000e+000
4.339233e+002;0.000000e+000
4.358519e+002;0.000000e+000
4.377804e+002;0.000000e+000
4.397090e+002;0.000000e+000
4.416375e+002;0.000000e+000
4.435660e+002;0.000000e+000
4.454946e+002;0.000000e+000
4.474232e+002;0.000000e+000
4.493517e+002;0.000000e+000
4.512802e+002;0.000000e+000
4.532088e+002;0.000000e+000
4.551373e+002;0.000000e+000
4.570659e+002;0.000000e+000
4.589944e+002;0.000000e+000
4.609230e+002;0.000000e+000
4.628515e+002;0.000000e+000
4.647801e+002;0.000000e+000
4.667086e+002;0.000000e+000
4.686372e+002;0.000000e+000
4.705657e+002;0.000000e+000
4.724943e+002;0.000000e+000
4.744228e+002;0.000000e+000
4.763513e+002;0.000000e+000
4.782799e+002;0.000000e+000
4.802085e+002;0.000000e+000
4.821370e+002;0.000000e+000
4.840656e+002;0.000000e+000
4.859941e+002;0.000000e+000
4.879226e+002;0.000000e+000
4.898512e+002;0.000000e+000
4.917798e+002;0.000000e+000
4.937083e+002;0.000000e+000
4.956368e+002;0.000000e+000
4.975654e+002;0.000000e+000
4.994939e+002;0.000000e+000
5.014225e+002;0.000000e+000
5.033510e+002;0.000000e+000
5.052796e+002;0.000000e+000
5.072081e+002;0.000000e+000
5.091367e+002;0.000000e+000
5.110652e+002;0.000000e+000
5.129938e+002;0.000000e+000
5.149223e+002;0.000000e+000
5.168509e+002;0.000000e+000
5.187794e+002;0.000000e+000
5.207079e+002;0.000000e+000
5.226365e+002;0.000000e+000
5.245651e+002;0.000000e+000
5.264936e+002;0.000000e+000
5.284222e+002;0.000000e+000
5.303507e+002;0.000000e+000
5.322792e+002;0.000000e+000
5.342078e+002;0.000000e+000
5.361364e+002;0.000000e+000
5.380649e+002;0.000000e+000
5.399935e+002;0.000000e+000
5.419220e+002;0.000000e+000
5.438505e+002;0.000000e+000
5.457791e+002;0.000000e+000
5.477076e+002;0.000000e+000
5.496362e+002;0.000000e+000
5.515648e+002;0.000000e+000
5.534933e+002;0.000000e+000
5.554218e+002;0.000000e+000
5.573504e+002;0.000000e+000
5.592789e+002;0.000000e+000
5.612075e+002;0.000000e+000
5.631360e+002;0.000000e+000
5.650646e+002;0.000000e+000
5.669931e+002;0.000000e+000
5.689217e+002;0.000000e+000
5.708502e+002;0.000000e+000
5.727787e+002;0.000000e+000
5.747073e+002;0.000000e+000
5.766359e+002;0.000000e+000
5.785644e+002;0.000000e+000
5.804930e+002;0.000000e+000
5.824215e+002;0.000000e+000
5.843500e+002;0.000000e+000
5.862786e+002;0.000000e+000
5.882072e+002;0.000000e+000
5.901357e+002;0.000000e+000
5.920643e+002;0.000000e+000
5.939928e+002;0.000000e+000
5.959213e+002;0.000000e+000
5.978499e+002;0.000000e+000
5.997784e+002;1.778765e-001
6.017070e+002;1.746106e-001
6.036355e+002;1.704451e-001
6.055641e+002;1.717031e-001
6.074926e+002;1.696246e-001
6.094211e+002;1.691874e-001
6.113497e+002;1.744465e-001
6.132783e+002;1.743132e-001
6.152068e+002;1.702080e-001
6.171354e+002;1.680230e-001
6.190639e+002;1.761338e-001
6.209924e+002;1.799151e-001
6.229210e+002;1.755347e-001
6.248495e+002;1.733826e-001
6.267781e+002;1.742230e-001
6.287067e+002;1.752262e-001
6.306352e+002;1.775848e-001
6.325637e+002;1.796633e-001
6.344923e+002;1.818324e-001
6.364208e+002;1.854875e-001
6.383494e+002;1.883710e-001
6.402780e+002;1.886446e-001
6.422065e+002;1.852172e-001
6.441350e+002;1.832748e-001
6.460636e+002;1.858596e-001
6.479921e+002;1.893676e-001
6.499207e+002;1.934610e-001
6.518492e+002;1.963901e-001
6.537778e+002;1.969936e-001
6.557063e+002;1.979938e-001
6.576349e+002;2.027728e-001
6.595634e+002;2.065999e-001
6.614919e+002;2.089547e-001
6.634205e+002;2.121676e-001
6.653491e+002;2.141349e-001
6.672776e+002;2.140405e-001
6.692062e+002;2.171001e-001
6.711347e+002;2.199991e-001
6.730632e+002;2.213752e-001
6.749918e+002;2.219622e-001
6.769203e+002;2.230423e-001
6.788489e+002;2.263879e-001
6.807775e+002;2.284169e-001
6.827060e+002;2.261130e-001
6.846345e+002;2.239141e-001
6.865631e+002;2.218617e-001
6.884916e+002;2.209803e-001
6.904202e+002;2.192747e-001
6.923488e+002;2.169660e-001
6.942773e+002;2.140110e-001
6.962058e+002;2.091854e-001
6.981344e+002;2.046180e-001
7.000629e+002;2.014796e-001
7.019915e+002;1.988244e-001
7.039200e+002;1.972542e-001
7.058486e+002;1.954488e-001
7.077771e+002;1.933958e-001
7.097057e+002;1.927431e-001
7.116342e+002;1.916100e-001
7.135627e+002;1.893657e-001
7.154913e+002;1.868515e-001
7.174199e+002;1.851594e-001
7.193484e+002;1.845254e-001
7.212770e+002;1.835786e-001
7.232055e+002;1.844819e-001
7.251340e+002;1.861097e-001
7.270626e+002;1.857945e-001
7.289911e+002;1.833373e-001
7.309197e+002;1.775832e-001
7.328483e+002;1.700572e-001
7.347768e+002;1.636590e-001
7.367053e+002;1.571505e-001
7.386339e+002;1.518447e-001
7.405624e+002;1.484875e-001
7.424910e+002;1.454801e-001
7.444196e+002;1.424572e-001
7.463481e+002;1.401646e-001
7.482766e+002;1.377854e-001
7.502052e+002;1.353024e-001
7.521337e+002;1.341883e-001
7.540623e+002;1.335791e-001
7.559908e+002;1.313491e-001
7.579194e+002;1.283622e-001
7.598479e+002;1.261295e-001
7.617765e+002;1.247623e-001
7.637050e+002;1.235918e-001
7.656335e+002;1.224029e-001
7.675621e+002;1.213742e-001
7.694907e+002;1.205491e-001
7.714192e+002;1.200930e-001
7.733478e+002;1.190914e-001
7.752763e+002;1.170314e-001
7.772048e+002;1.156703e-001
7.791334e+002;1.147010e-001
7.810620e+002;1.137558e-001
7.829905e+002;1.122587e-001
7.849191e+002;1.109659e-001
7.868476e+002;1.097092e-001
7.887761e+002;1.083181e-001
7.907047e+002;1.067554e-001
7.926332e+002;1.048465e-001
7.945618e+002;1.031361e-001
7.964903e+002;1.018829e-001
7.984189e+002;1.004378e-001
8.003474e+002;9.915267e-002
8.022759e+002;9.826740e-002
8.042045e+002;9.708524e-002
8.061331e+002;9.564469e-002
8.080616e+002;9.437365e-002
8.099902e+002;9.277607e-002
8.119187e+002;9.118311e-002
8.138472e+002;9.046508e-002
8.157758e+002;9.079167e-002
8.177043e+002;9.088670e-002
8.196329e+002;9.068158e-002
8.215615e+002;9.050773e-002
8.234900e+002;9.031853e-002
8.254185e+002;9.103664e-002
8.273471e+002;9.356973e-002
8.292756e+002;9.608150e-002
8.312042e+002;9.738541e-002
8.331328e+002;9.745429e-002
8.350613e+002;9.565675e-002
8.369898e+002;9.249645e-002
8.389184e+002;8.998781e-002
8.408469e+002;8.792378e-002
8.427755e+002;8.667066e-002
8.447040e+002;8.560015e-002
8.466326e+002;8.417927e-002
8.485611e+002;8.371191e-002
8.504897e+002;8.353192e-002
8.524182e+002;8.262610e-002
8.543467e+002;8.164431e-002
8.562753e+002;8.096199e-002
8.582039e+002;8.084311e-002
8.601324e+002;8.114093e-002
8.620610e+002;8.095009e-002
8.639895e+002;8.118714e-002
8.659180e+002;8.162864e-002
8.678466e+002;8.134895e-002
8.697751e+002;8.132941e-002
8.717037e+002;8.138324e-002
8.736323e+002;8.150602e-002
8.755608e+002;8.163208e-002
8.774893e+002;8.133316e-002
8.794179e+002;8.124766e-002
8.813464e+002;8.156446e-002
8.832750e+002;8.243241e-002
8.852036e+002;8.292414e-002
8.871321e+002;8.240730e-002
8.890606e+002;8.232562e-002
8.909892e+002;8.233235e-002
8.929177e+002;8.217518e-002
8.948463e+002;8.257232e-002
8.967748e+002;8.244579e-002
8.987034e+002;8.241659e-002
9.006319e+002;8.292241e-002
9.025605e+002;8.392973e-002
9.044890e+002;8.465028e-002
9.064175e+002;8.451336e-002
9.083461e+002;8.491389e-002
9.102747e+002;8.607133e-002
9.122032e+002;8.701440e-002
9.141318e+002;8.770833e-002
9.160603e+002;8.849594e-002
9.179888e+002;8.911084e-002
9.199174e+002;9.007257e-002
9.218459e+002;9.141535e-002
9.237745e+002;9.300706e-002
9.257031e+002;9.434075e-002
9.276316e+002;9.538988e-002
9.295601e+002;9.584887e-002
9.314887e+002;9.529504e-002
9.334172e+002;9.387077e-002
9.353458e+002;9.267142e-002
9.372744e+002;9.199139e-002
9.392029e+002;9.114081e-002
9.411314e+002;9.093344e-002
9.430600e+002;9.191613e-002
9.449885e+002;9.312820e-002
9.469171e+002;9.497470e-002
9.488456e+002;9.701361e-002
9.507742e+002;9.830612e-002
9.527027e+002;9.930853e-002
9.546313e+002;9.978364e-002
9.565598e+002;9.968460e-002
9.584883e+002;9.988602e-002
9.604169e+002;9.969060e-002
9.623455e+002;9.864015e-002
9.642740e+002;9.757996e-002
9.662026e+002;9.675742e-002
9.681311e+002;9.627311e-002
9.700596e+002;9.630962e-002
9.719882e+002;9.641565e-002
9.739167e+002;9.611060e-002
9.758453e+002;9.525981e-002
9.777739e+002;9.473735e-002
9.797024e+002;9.471650e-002
9.816309e+002;9.484323e-002
9.835595e+002;9.464439e-002
9.854880e+002;9.396183e-002
9.874166e+002;9.330381e-002
9.893452e+002;9.294512e-002
9.912737e+002;9.219095e-002
9.932022e+002;9.145951e-002
9.951307e+002;9.123167e-002
9.970593e+002;9.144741e-002
9.989879e+002;9.158526e-002
1.000916e+003;9.155168e-002
1.002845e+003;9.159987e-002
1.004773e+003;9.158903e-002
1.006702e+003;9.173855e-002
1.008631e+003;9.215678e-002
1.010559e+003;9.262795e-002
1.012488e+003;9.300308e-002
1.014416e+003;9.323801e-002
1.016345e+003;9.364490e-002
1.018273e+003;9.403667e-002
1.020202e+003;9.426195e-002
1.022130e+003;9.465177e-002
1.024059e+003;9.528580e-002
1.025988e+003;9.595858e-002
1.027916e+003;9.644783e-002
1.029845e+003;9.672678e-002
1.031773e+003;9.644887e-002
1.033702e+003;9.561347e-002
1.035630e+003;9.513707e-002
1.037559e+003;9.448863e-002
1.039487e+003;9.409095e-002
1.041416e+003;9.426842e-002
1.043344e+003;9.477852e-002
1.045273e+003;9.546591e-002
1.047202e+003;9.604541e-002
1.049130e+003;9.591357e-002
1.051059e+003;9.561801e-002
1.052987e+003;9.581123e-002
1.054916e+003;9.668376e-002
1.056844e+003;9.805635e-002
1.058773e+003;9.943186e-002
1.060701e+003;1.010986e-001
1.062630e+003;1.025073e-001
1.064558e+003;1.033069e-001
1.066487e+003;1.040484e-001
1.068416e+003;1.046429e-001
1.070344e+003;1.050022e-001
1.072273e+003;1.057671e-001
1.074201e+003;1.064236e-001
1.076130e+003;1.061621e-001
1.078058e+003;1.051065e-001
1.079987e+003;1.042963e-001
1.081915e+003;1.042423e-001
1.083844e+003;1.036977e-001
1.085773e+003;1.025417e-001
1.087701e+003;1.021812e-001
1.089630e+003;1.026068e-001
1.091558e+003;1.032807e-001
1.093487e+003;1.033155e-001
1.095415e+003;1.032770e-001
1.097344e+003;1.039643e-001
1.099272e+003;1.051065e-001
1.101201e+003;1.070250e-001
1.103129e+003;1.093116e-001
1.105058e+003;1.107780e-001
1.106987e+003;1.119162e-001
1.108915e+003;1.131681e-001
1.110844e+003;1.140610e-001
1.112772e+003;1.147766e-001
1.114701e+003;1.155053e-001
1.116629e+003;1.161648e-001
1.118558e+003;1.160886e-001
1.120486e+003;1.152975e-001
1.122415e+003;1.139089e-001
1.124344e+003;1.114445e-001
1.126272e+003;1.084257e-001
1.128201e+003;1.049678e-001
1.130129e+003;1.019025e-001
1.132058e+003;9.960028e-002
1.133986e+003;9.825290e-002
1.135915e+003;9.790879e-002
1.137843e+003;9.836658e-002
1.139772e+003;9.914813e-002
1.141700e+003;1.000810e-001
1.143629e+003;1.013037e-001
1.145557e+003;1.023782e-001
1.147486e+003;1.036953e-001
1.149415e+003;1.057578e-001
1.151343e+003;1.078594e-001
1.153272e+003;1.103759e-001
1.155200e+003;1.140298e-001
1.157129e+003;1.184082e-001
1.159057e+003;1.228221e-001
1.160986e+003;1.277612e-001
1.162914e+003;1.334394e-001
1.164843e+003;1.388700e-001
1.166771e+003;1.432500e-001
1.168700e+003;1.455197e-001
1.170629e+003;1.447705e-001
1.172557e+003;1.415749e-001
1.174486e+003;1.366492e-001
1.176414e+003;1.316400e-001
1.178343e+003;1.277166e-001
1.180271e+003;1.249433e-001
1.182200e+003;1.238206e-001
1.184128e+003;1.246555e-001
1.186057e+003;1.270295e-001
1.187986e+003;1.306969e-001
1.189914e+003;1.349680e-001
1.191843e+003;1.394417e-001
1.193771e+003;1.448850e-001
1.195700e+003;1.505749e-001
1.197628e+003;1.551019e-001
1.199557e+003;1.567766e-001
1.201485e+003;1.544669e-001
1.203414e+003;1.502343e-001
1.205343e+003;1.465376e-001
1.207271e+003;1.441420e-001
1.209200e+003;1.426026e-001
1.211128e+003;1.415718e-001
1.213057e+003;1.405206e-001
1.214985e+003;1.386774e-001
1.216914e+003;1.360467e-001
1.218842e+003;1.330622e-001
1.220771e+003;1.309872e-001
1.222699e+003;1.311508e-001
1.224628e+003;1.332863e-001
1.226557e+003;1.367568e-001
1.228485e+003;1.412179e-001
1.230414e+003;1.459382e-001
1.232342e+003;1.505635e-001
1.234271e+003;1.547162e-001
1.236199e+003;1.572830e-001
1.238128e+003;1.580500e-001
1.240056e+003;1.584543e-001
1.241985e+003;1.587230e-001
1.243913e+003;1.588548e-001
1.245842e+003;1.593592e-001
1.247771e+003;1.603433e-001
1.249699e+003;1.623824e-001
1.251628e+003;1.656695e-001
1.253556e+003;1.694272e-001
1.255485e+003;1.727947e-001
1.257413e+003;1.753756e-001
1.259342e+003;1.775047e-001
1.261270e+003;1.780701e-001
1.263199e+003;1.755146e-001
1.265127e+003;1.701727e-001
1.267056e+003;1.632182e-001
1.268985e+003;1.565479e-001
1.270913e+003;1.519819e-001
1.272842e+003;1.495631e-001
1.274770e+003;1.485656e-001
1.276699e+003;1.483851e-001
1.278627e+003;1.483204e-001
1.280556e+003;1.477340e-001
1.282484e+003;1.464249e-001
1.284413e+003;1.451898e-001
1.286342e+003;1.441683e-001
1.288270e+003;1.431179e-001
1.290199e+003;1.424329e-001
1.292127e+003;1.414663e-001
1.294056e+003;1.403029e-001
1.295984e+003;1.400926e-001
1.297913e+003;1.402531e-001
1.299841e+003;1.401011e-001
1.301770e+003;1.396047e-001
1.303698e+003;1.386831e-001
1.305627e+003;1.378729e-001
1.307556e+003;1.370886e-001
1.309484e+003;1.359998e-001
1.311413e+003;1.348749e-001
1.313341e+003;1.338153e-001
1.315270e+003;1.331436e-001
1.317198e+003;1.323589e-001
1.319127e+003;1.311933e-001
1.321055e+003;1.302827e-001
1.322984e+003;1.299729e-001
1.324912e+003;1.301930e-001
1.326841e+003;1.302989e-001
1.328770e+003;1.304882e-001
1.330698e+003;1.313545e-001
1.332627e+003;1.320856e-001
1.334555e+003;1.323526e-001
1.336484e+003;1.323027e-001
1.338412e+003;1.324516e-001
1.340341e+003;1.334360e-001
1.342269e+003;1.350245e-001
1.344198e+003;1.364011e-001
1.346126e+003;1.376647e-001
1.348055e+003;1.389034e-001
1.349984e+003;1.404435e-001
1.351912e+003;1.422341e-001
1.353841e+003;1.443318e-001
1.355769e+003;1.464697e-001
1.357698e+003;1.483352e-001
1.359626e+003;1.499902e-001
1.361555e+003;1.514390e-001
1.363483e+003;1.532956e-001
1.365412e+003;1.554965e-001
1.367341e+003;1.576311e-001
1.369269e+003;1.595962e-001
1.371198e+003;1.607461e-001
1.373126e+003;1.600714e-001
1.375055e+003;1.584707e-001
1.376983e+003;1.564825e-001
1.378912e+003;1.531320e-001
1.380840e+003;1.490411e-001
1.382769e+003;1.451586e-001
1.384698e+003;1.416712e-001
1.386626e+003;1.380656e-001
1.388555e+003;1.353097e-001
1.390483e+003;1.335057e-001
1.392412e+003;1.316681e-001
1.394340e+003;1.302735e-001
1.396269e+003;1.307407e-001
1.398197e+003;1.317661e-001
1.400126e+003;1.338146e-001
1.402054e+003;1.369610e-001
1.403983e+003;1.405358e-001
1.405911e+003;1.458462e-001
1.407840e+003;1.527685e-001
1.409769e+003;1.604320e-001
1.411697e+003;1.684620e-001
1.413626e+003;1.752949e-001
1.415554e+003;1.789055e-001
1.417483e+003;1.782024e-001
1.419411e+003;1.751154e-001
1.421340e+003;1.729058e-001
1.423268e+003;1.697791e-001
1.425197e+003;1.670688e-001
1.427125e+003;1.662563e-001
1.429054e+003;1.672844e-001
1.430983e+003;1.698726e-001
1.432911e+003;1.719647e-001
1.434840e+003;1.711432e-001
1.436768e+003;1.694060e-001
1.438697e+003;1.704454e-001
1.440625e+003;1.706412e-001
1.442554e+003;1.698007e-001
1.444482e+003;1.693806e-001
1.446411e+003;1.691660e-001
1.448340e+003;1.700746e-001
1.450268e+003;1.727359e-001
1.452197e+003;1.751270e-001
1.454125e+003;1.758526e-001
1.456054e+003;1.748707e-001
1.457982e+003;1.799264e-001
1.459911e+003;1.891073e-001
1.461839e+003;1.942100e-001
1.463768e+003;1.921627e-001
1.465697e+003;1.858041e-001
1.467625e+003;1.784479e-001
1.469554e+003;1.712422e-001
1.471482e+003;1.661713e-001
1.473411e+003;1.661816e-001
1.475339e+003;1.687276e-001
1.477268e+003;1.687945e-001
1.479196e+003;1.660396e-001
1.481125e+003;1.606249e-001
1.483053e+003;1.540399e-001
1.484982e+003;1.475012e-001
1.486911e+003;1.427829e-001
1.488839e+003;1.410562e-001
1.490768e+003;1.428072e-001
1.492696e+003;1.469149e-001
1.494625e+003;1.499855e-001
1.496553e+003;1.533922e-001
1.498482e+003;1.598954e-001
1.500410e+003;1.671352e-001
1.502339e+003;1.734402e-001
1.504267e+003;1.767222e-001
1.506196e+003;1.801603e-001
1.508125e+003;1.902264e-001
1.510053e+003;2.021453e-001
1.511982e+003;2.115855e-001
1.513910e+003;2.202398e-001
1.515839e+003;2.278691e-001
1.517767e+003;2.363959e-001
1.519696e+003;2.443741e-001
1.521624e+003;2.532552e-001
1.523553e+003;2.658689e-001
1.525481e+003;2.772768e-001
1.527410e+003;2.883811e-001
1.529339e+003;2.989255e-001
1.531267e+003;3.070799e-001
1.533196e+003;3.132037e-001
1.535124e+003;3.195899e-001
1.537053e+003;3.203548e-001
1.538981e+003;3.141600e-001
1.540910e+003;3.098742e-001
1.542838e+003;3.059016e-001
1.544767e+003;2.980760e-001
1.546695e+003;2.879784e-001
1.548624e+003;2.750788e-001
1.550553e+003;2.613726e-001
1.552481e+003;2.481196e-001
1.554410e+003;2.352307e-001
1.556338e+003;2.218060e-001
1.558267e+003;2.065361e-001
1.560195e+003;1.986369e-001
1.562124e+003;1.954416e-001
1.564052e+003;1.882728e-001
1.565981e+003;1.799690e-001
1.567910e+003;1.713880e-001
1.569838e+003;1.631129e-001
1.571767e+003;1.576763e-001
1.573695e+003;1.508942e-001
1.575624e+003;1.426829e-001
1.577552e+003;1.400865e-001
1.579481e+003;1.395590e-001
1.581409e+003;1.373073e-001
1.583338e+003;1.354558e-001
1.585266e+003;1.346389e-001
1.587195e+003;1.348203e-001
1.589124e+003;1.352273e-001
1.591052e+003;1.362152e-001
1.592981e+003;1.378267e-001
1.594909e+003;1.404269e-001
1.596838e+003;1.442787e-001
1.598766e+003;1.489652e-001
1.600695e+003;1.543020e-001
1.602623e+003;1.607730e-001
1.604552e+003;1.683094e-001
1.606480e+003;1.764233e-001
1.608409e+003;1.851540e-001
1.610338e+003;1.947275e-001
1.612266e+003;2.052520e-001
1.614195e+003;2.158495e-001
1.616123e+003;2.267850e-001
1.618052e+003;2.438274e-001
1.619980e+003;2.627541e-001
1.621909e+003;2.796196e-001
1.623837e+003;2.977219e-001
1.625766e+003;3.165514e-001
1.627694e+003;3.351344e-001
1.629623e+003;3.549224e-001
1.631552e+003;3.744614e-001
1.633480e+003;3.883553e-001
1.635409e+003;3.947878e-001
1.637337e+003;3.964062e-001
1.639266e+003;3.875339e-001
1.641194e+003;3.688079e-001
1.643123e+003;3.454602e-001
1.645051e+003;3.193816e-001
1.646980e+003;2.961436e-001
1.648909e+003;2.775098e-001
1.650837e+003;2.561827e-001
1.652766e+003;2.349558e-001
1.654694e+003;2.259512e-001
1.656623e+003;2.201231e-001
1.658551e+003;2.107522e-001
1.660480e+003;1.999037e-001
1.662408e+003;1.886238e-001
1.664337e+003;1.794346e-001
1.666266e+003;1.697930e-001
1.668194e+003;1.583660e-001
1.670123e+003;1.489992e-001
1.672051e+003;1.417045e-001
1.673980e+003;1.329926e-001
1.675908e+003;1.251553e-001
1.677837e+003;1.189948e-001
1.679765e+003;1.109740e-001
1.681694e+003;1.010495e-001
1.683622e+003;8.953983e-002
1.685551e+003;8.427984e-002
1.687479e+003;8.278861e-002
1.689408e+003;7.898899e-002
1.691337e+003;7.564877e-002
1.693265e+003;7.124926e-002
1.695194e+003;6.512310e-002
1.697122e+003;6.373674e-002
1.699051e+003;6.156788e-002
1.700979e+003;6.095112e-002
1.702908e+003;6.428673e-002
1.704836e+003;6.414229e-002
1.706765e+003;6.420379e-002
1.708693e+003;6.463549e-002
1.710622e+003;6.452715e-002
1.712551e+003;6.352636e-002
1.714479e+003;6.155761e-002
1.716408e+003;5.868946e-002
1.718336e+003;5.932826e-002
1.720265e+003;6.290193e-002
1.722193e+003;6.402463e-002
1.724122e+003;6.368472e-002
1.726050e+003;6.361727e-002
1.727979e+003;6.301963e-002
1.729908e+003;6.212257e-002
1.731836e+003;5.962829e-002
1.733765e+003;5.682058e-002
1.735693e+003;5.917153e-002
1.737622e+003;6.072997e-002
1.739550e+003;5.946943e-002
1.741479e+003;5.984424e-002
1.743407e+003;6.000361e-002
1.745336e+003;5.940853e-002
1.747265e+003;5.808201e-002
1.749193e+003;5.615838e-002
1.751122e+003;5.466072e-002
1.753050e+003;5.518942e-002
1.754979e+003;5.498228e-002
1.756907e+003;5.411160e-002
1.758836e+003;5.357663e-002
1.760764e+003;5.228851e-002
1.762693e+003;5.191908e-002
1.764621e+003;5.224987e-002
1.766550e+003;5.103245e-002
1.768479e+003;4.991525e-002
1.770407e+003;4.839059e-002
1.772336e+003;4.675948e-002
1.774264e+003;4.798461e-002
1.776193e+003;4.904587e-002
1.778121e+003;4.886555e-002
1.780050e+003;4.831963e-002
1.781978e+003;4.820788e-002
1.783907e+003;4.774322e-002
1.785835e+003;4.720647e-002
1.787764e+003;4.709396e-002
1.789693e+003;4.621627e-002
1.791621e+003;4.461844e-002
1.793550e+003;4.485538e-002
1.795478e+003;4.605179e-002
1.797407e+003;4.611077e-002
1.799335e+003;4.552639e-002
1.801264e+003;4.510579e-002
1.803192e+003;4.552109e-002
1.805121e+003;4.570695e-002
1.807049e+003;4.537750e-002
1.808978e+003;4.486589e-002
1.810907e+003;4.466202e-002
1.812835e+003;4.492982e-002
1.814764e+003;4.490667e-002
1.816692e+003;4.467253e-002
1.818621e+003;4.480990e-002
1.820549e+003;4.470588e-002
1.822478e+003;4.434563e-002
1.824406e+003;4.363009e-002
1.826335e+003;4.355621e-002
1.828264e+003;4.307044e-002
1.830192e+003;4.279776e-002
1.832121e+003;4.355928e-002
1.834049e+003;4.385278e-002
1.835978e+003;4.379132e-002
1.837906e+003;4.386187e-002
1.839835e+003;4.358214e-002
1.841763e+003;4.262878e-002
1.843692e+003;4.155003e-002
1.845620e+003;4.231039e-002
1.847549e+003;4.334450e-002
1.849478e+003;4.359668e-002
1.851406e+003;4.329193e-002
1.853335e+003;4.301000e-002
1.855263e+003;4.303268e-002
1.857192e+003;4.284998e-002
1.859120e+003;4.266698e-002
1.861049e+003;4.263836e-002
1.862977e+003;4.250709e-002
1.864906e+003;4.226631e-002
1.866834e+003;4.179191e-002
1.868763e+003;4.140651e-002
1.870692e+003;4.205523e-002
1.872620e+003;4.275308e-002
1.874549e+003;4.291734e-002
1.876477e+003;4.281260e-002
1.878406e+003;4.259801e-002
1.880334e+003;4.247376e-002
1.882263e+003;4.239572e-002
1.884191e+003;4.269868e-002
1.886120e+003;4.276339e-002
1.888048e+003;4.230035e-002
1.889977e+003;4.227946e-002
1.891906e+003;4.296808e-002
1.893834e+003;4.317550e-002
1.895763e+003;4.332868e-002
1.897691e+003;4.333956e-002
1.899620e+003;4.332144e-002
1.901548e+003;4.334370e-002
1.903477e+003;4.335208e-002
1.905405e+003;4.329896e-002
1.907334e+003;4.308050e-002
1.909262e+003;4.283520e-002
1.911191e+003;4.288721e-002
1.913120e+003;4.294108e-002
1.915048e+003;4.253822e-002
1.916977e+003;4.178994e-002
1.918905e+003;4.200917e-002
1.920834e+003;4.236164e-002
1.922762e+003;4.203709e-002
1.924691e+003;4.207706e-002
1.926619e+003;4.226507e-002
1.928548e+003;4.224151e-002
1.930477e+003;4.227876e-002
1.932405e+003;4.225864e-002
1.934334e+003;4.226284e-002
1.936262e+003;4.237888e-002
1.938191e+003;4.242590e-002
1.940119e+003;4.206878e-002
1.942048e+003;4.161023e-002
1.943976e+003;4.187290e-002
1.945905e+003;4.201574e-002
1.947833e+003;4.183831e-002
1.949762e+003;4.203220e-002
1.951691e+003;4.233297e-002
1.953619e+003;4.234188e-002
1.955548e+003;4.244899e-002
1.957476e+003;4.248820e-002
1.959405e+003;4.220562e-002
1.961333e+003;4.215128e-002
1.963262e+003;4.241070e-002
1.965190e+003;4.244230e-002
1.967119e+003;4.248312e-002
1.969047e+003;4.256431e-002
1.970976e+003;4.259812e-002
1.972905e+003;4.271586e-002
1.974833e+003;4.290440e-002
1.976762e+003;4.312192e-002
1.978690e+003;4.315877e-002
1.980619e+003;4.308255e-002
1.982547e+003;4.332583e-002
1.984476e+003;4.345343e-002
1.986404e+003;4.304102e-002
1.988333e+003;4.279271e-002
1.990261e+003;4.281403e-002
1.992190e+003;4.291603e-002
1.994119e+003;4.289035e-002
1.996047e+003;4.290670e-002
1.997976e+003;4.317323e-002
1.999904e+003;4.358364e-002
2.001833e+003;4.353569e-002
2.003761e+003;4.331968e-002
2.005690e+003;4.332846e-002
2.007618e+003;4.326433e-002
2.009547e+003;4.315896e-002
2.011476e+003;4.306462e-002
2.013404e+003;4.329628e-002
2.015333e+003;4.369413e-002
2.017261e+003;4.367941e-002
2.019190e+003;4.367149e-002
2.021118e+003;4.378626e-002
2.023047e+003;4.398527e-002
2.024975e+003;4.403848e-002
2.026904e+003;4.414168e-002
2.028833e+003;4.427503e-002
2.030761e+003;4.426186e-002
2.032690e+003;4.433374e-002
2.034618e+003;4.458958e-002
2.036547e+003;4.483624e-002
2.038475e+003;4.490553e-002
2.040404e+003;4.498446e-002
2.042332e+003;4.482257e-002
2.044261e+003;4.463313e-002
2.046189e+003;4.477181e-002
2.048118e+003;4.476688e-002
2.050047e+003;4.506565e-002
2.051975e+003;4.529254e-002
2.053904e+003;4.521572e-002
2.055832e+003;4.514064e-002
2.057761e+003;4.528169e-002
2.059689e+003;4.559564e-002
2.061618e+003;4.555844e-002
2.063546e+003;4.532711e-002
2.065475e+003;4.539159e-002
2.067404e+003;4.542381e-002
2.069332e+003;4.538706e-002
2.071260e+003;4.534322e-002
2.073189e+003;4.526845e-002
2.075118e+003;4.538066e-002
2.077046e+003;4.543555e-002
2.078975e+003;4.526010e-002
2.080903e+003;4.506929e-002
2.082832e+003;4.495933e-002
2.084760e+003;4.478583e-002
2.086689e+003;4.473507e-002
2.088617e+003;4.488315e-002
2.090546e+003;4.469904e-002
2.092475e+003;4.457350e-002
2.094403e+003;4.469673e-002
2.096332e+003;4.476905e-002
2.098260e+003;4.465468e-002
2.100189e+003;4.436287e-002
2.102117e+003;4.444641e-002
2.104046e+003;4.464087e-002
2.105974e+003;4.451105e-002
2.107903e+003;4.453359e-002
2.109832e+003;4.437987e-002
2.111760e+003;4.423166e-002
2.113688e+003;4.453032e-002
2.115617e+003;4.469372e-002
2.117546e+003;4.463750e-002
2.119474e+003;4.447742e-002
2.121403e+003;4.443227e-002
2.123331e+003;4.447423e-002
2.125260e+003;4.442395e-002
2.127188e+003;4.436427e-002
2.129117e+003;4.466309e-002
2.131045e+003;4.500549e-002
2.132974e+003;4.475105e-002
2.134903e+003;4.442207e-002
2.136831e+003;4.427950e-002
2.138760e+003;4.423860e-002
2.140688e+003;4.427727e-002
2.142617e+003;4.410394e-002
2.144545e+003;4.394978e-002
2.146474e+003;4.414693e-002
2.148402e+003;4.432691e-002
2.150331e+003;4.428251e-002
2.152260e+003;4.436897e-002
2.154188e+003;4.461638e-002
2.156117e+003;4.447386e-002
2.158045e+003;4.432739e-002
2.159974e+003;4.459887e-002
2.161902e+003;4.471484e-002
2.163831e+003;4.466794e-002
2.165759e+003;4.470492e-002
2.167688e+003;4.468674e-002
2.169616e+003;4.498887e-002
2.171545e+003;4.516744e-002
2.173474e+003;4.506495e-002
2.175402e+003;4.521469e-002
2.177331e+003;4.532946e-002
2.179259e+003;4.508984e-002
2.181188e+003;4.499791e-002
2.183116e+003;4.511013e-002
2.185045e+003;4.514175e-002
2.186973e+003;4.524345e-002
2.188902e+003;4.545034e-002
2.190831e+003;4.545578e-002
2.192759e+003;4.531287e-002
2.194688e+003;4.542473e-002
2.196616e+003;4.554221e-002
2.198545e+003;4.544706e-002
2.200473e+003;4.512664e-002
2.202402e+003;4.470573e-002
2.204330e+003;4.474011e-002
2.206259e+003;4.473059e-002
2.208188e+003;4.464569e-002
2.210116e+003;4.481354e-002
2.212044e+003;4.504411e-002
2.213973e+003;4.512053e-002
2.215902e+003;4.487397e-002
2.217830e+003;4.457959e-002
2.219759e+003;4.441084e-002
2.221687e+003;4.418441e-002
2.223616e+003;4.415665e-002
2.225544e+003;4.408513e-002
2.227473e+003;4.384490e-002
2.229401e+003;4.394535e-002
2.231330e+003;4.418331e-002
2.233259e+003;4.400280e-002
2.235187e+003;4.355415e-002
2.237116e+003;4.364574e-002
2.239044e+003;4.375049e-002
2.240973e+003;4.355349e-002
2.242901e+003;4.386964e-002
2.244830e+003;4.405568e-002
2.246758e+003;4.388981e-002
2.248687e+003;4.382775e-002
2.250615e+003;4.375775e-002
2.252544e+003;4.378575e-002
2.254473e+003;4.388431e-002
2.256401e+003;4.430978e-002
2.258330e+003;4.436820e-002
2.260258e+003;4.401585e-002
2.262187e+003;4.410827e-002
2.264115e+003;4.396496e-002
2.266044e+003;4.383039e-002
2.267972e+003;4.395840e-002
2.269901e+003;4.407838e-002
2.271830e+003;4.403859e-002
2.273758e+003;4.409917e-002
2.275687e+003;4.439928e-002
2.277615e+003;4.439300e-002
2.279544e+003;4.446208e-002
2.281472e+003;4.456645e-002
2.283401e+003;4.443550e-002
2.285329e+003;4.455929e-002
2.287258e+003;4.471436e-002
2.289187e+003;4.492284e-002
2.291115e+003;4.465913e-002
2.293043e+003;4.446336e-002
2.294972e+003;4.476942e-002
2.296901e+003;4.504514e-002
2.298829e+003;4.506826e-002
2.300758e+003;4.501566e-002
2.302686e+003;4.506826e-002
2.304615e+003;4.515204e-002
2.306543e+003;4.535532e-002
2.308472e+003;4.560120e-002
2.310400e+003;4.563804e-002
2.312329e+003;4.570521e-002
2.314258e+003;4.577752e-002
2.316186e+003;4.557919e-002
2.318115e+003;4.550593e-002
2.320043e+003;4.537128e-002
2.321972e+003;4.519447e-002
2.323900e+003;4.508252e-002
2.325829e+003;4.519605e-002
2.327757e+003;4.547248e-002
2.329686e+003;4.531810e-002
2.331615e+003;4.509359e-002
2.333543e+003;4.493320e-002
2.335472e+003;4.487772e-002
2.337400e+003;4.487320e-002
2.339329e+003;4.508885e-002
2.341257e+003;4.493739e-002
2.343186e+003;4.473078e-002
2.345114e+003;4.478459e-002
2.347043e+003;4.489054e-002
2.348971e+003;4.501757e-002
2.350900e+003;4.491203e-002
2.352829e+003;4.479028e-002
2.354757e+003;4.460500e-002
2.356686e+003;4.453711e-002
2.358614e+003;4.466662e-002
2.360543e+003;4.452573e-002
2.362471e+003;4.439620e-002
2.364400e+003;4.443635e-002
2.366328e+003;4.447045e-002
2.368257e+003;4.474466e-002
2.370186e+003;4.500706e-002
2.372114e+003;4.506223e-002
2.374042e+003;4.535576e-002
2.375971e+003;4.547429e-002
2.377900e+003;4.542591e-002
2.379828e+003;4.545990e-002
2.381757e+003;4.551115e-002
2.383685e+003;4.551914e-002
2.385614e+003;4.543065e-002
2.387542e+003;4.546321e-002
2.389471e+003;4.554537e-002
2.391399e+003;4.580712e-002
2.393328e+003;4.608785e-002
2.395257e+003;4.615104e-002
2.397185e+003;4.588828e-002
2.399114e+003;4.572222e-002
2.401042e+003;4.609614e-002
2.402971e+003;4.617920e-002
2.404899e+003;4.590500e-002
2.406828e+003;4.562523e-002
2.408756e+003;4.557750e-002
2.410685e+003;4.590997e-002
2.412614e+003;4.634889e-002
2.414542e+003;4.633599e-002
2.416471e+003;4.610613e-002
2.418399e+003;4.623897e-002
2.420328e+003;4.656343e-002
2.422256e+003;4.647709e-002
2.424185e+003;4.624332e-002
2.426113e+003;4.626732e-002
2.428042e+003;4.638967e-002
2.429970e+003;4.647334e-002
2.431899e+003;4.665724e-002
2.433828e+003;4.667775e-002
2.435756e+003;4.676339e-002
2.437685e+003;4.702550e-002
2.439613e+003;4.738211e-002
2.441542e+003;4.745620e-002
2.443470e+003;4.742749e-002
2.445399e+003;4.767635e-002
2.447327e+003;4.819596e-002
2.449256e+003;4.834992e-002
2.451185e+003;4.823787e-002
2.453113e+003;4.829952e-002
2.455042e+003;4.846975e-002
2.456970e+003;4.868972e-002
2.458899e+003;4.880823e-002
2.460827e+003;4.863030e-002
2.462756e+003;4.841845e-002
2.464684e+003;4.862578e-002
2.466613e+003;4.904027e-002
2.468542e+003;4.938550e-002
2.470470e+003;4.951163e-002
2.472398e+003;4.929934e-002
2.474327e+003;4.927462e-002
2.476256e+003;4.948976e-002
2.478184e+003;4.955694e-002
2.480113e+003;4.951048e-002
2.482041e+003;4.956028e-002
2.483970e+003;4.968293e-002
2.485898e+003;4.969055e-002
2.487827e+003;4.980911e-002
2.489755e+003;4.977258e-002
2.491684e+003;4.953926e-002
2.493613e+003;4.967706e-002
2.495541e+003;4.973870e-002
2.497470e+003;4.961952e-002
2.499398e+003;4.975081e-002
2.501327e+003;4.981387e-002
2.503255e+003;4.970641e-002
2.505184e+003;4.977563e-002
2.507112e+003;5.004232e-002
2.509041e+003;5.008806e-002
2.510969e+003;5.007682e-002
2.512898e+003;5.021536e-002
2.514827e+003;5.052460e-002
2.516755e+003;5.072121e-002
2.518684e+003;5.074747e-002
2.520612e+003;5.097544e-002
2.522541e+003;5.154807e-002
2.524469e+003;5.197151e-002
2.526398e+003;5.187379e-002
2.528326e+003;5.201099e-002
2.530255e+003;5.239997e-002
2.532184e+003;5.245915e-002
2.534112e+003;5.252197e-002
2.536041e+003;5.260843e-002
2.537969e+003;5.286250e-002
2.539898e+003;5.314424e-002
2.541826e+003;5.324401e-002
2.543755e+003;5.326933e-002
2.545683e+003;5.311394e-002
2.547612e+003;5.318580e-002
2.549541e+003;5.341757e-002
2.551469e+003;5.338640e-002
2.553397e+003;5.319865e-002
2.555326e+003;5.340929e-002
2.557255e+003;5.363706e-002
2.559183e+003;5.365606e-002
2.561112e+003;5.365464e-002
2.563040e+003;5.355736e-002
2.564969e+003;5.355177e-002
2.566897e+003;5.363901e-002
2.568826e+003;5.354323e-002
2.570754e+003;5.373000e-002
2.572683e+003;5.379424e-002
2.574612e+003;5.389427e-002
2.576540e+003;5.435787e-002
2.578469e+003;5.489365e-002
2.580397e+003;5.507047e-002
2.582326e+003;5.523081e-002
2.584254e+003;5.530374e-002
2.586183e+003;5.526882e-002
2.588111e+003;5.544613e-002
2.590040e+003;5.554594e-002
2.591969e+003;5.561972e-002
2.593897e+003;5.577446e-002
2.595826e+003;5.578738e-002
2.597754e+003;5.589288e-002
2.599683e+003;5.574680e-002
2.601611e+003;5.549737e-002
2.603540e+003;5.579687e-002
2.605468e+003;5.593570e-002
2.607397e+003;5.602808e-002
2.609325e+003;5.620442e-002
2.611254e+003;5.622509e-002
2.613183e+003;5.649754e-002
2.615111e+003;5.675926e-002
2.617040e+003;5.681511e-002
2.618968e+003;5.684989e-002
2.620897e+003;5.673649e-002
2.622825e+003;5.680231e-002
2.624754e+003;5.714133e-002
2.626682e+003;5.731219e-002
2.628611e+003;5.733972e-002
2.630540e+003;5.754383e-002
2.632468e+003;5.759963e-002
2.634396e+003;5.769297e-002
2.636325e+003;5.762812e-002
2.638254e+003;5.754459e-002
2.640182e+003;5.750975e-002
2.642111e+003;5.770501e-002
2.644039e+003;5.786765e-002
2.645968e+003;5.765324e-002
2.647896e+003;5.757148e-002
2.649825e+003;5.762691e-002
2.651753e+003;5.795681e-002
2.653682e+003;5.821963e-002
2.655611e+003;5.812575e-002
2.657539e+003;5.813325e-002
2.659468e+003;5.858312e-002
2.661396e+003;5.883824e-002
2.663325e+003;5.864512e-002
2.665253e+003;5.870342e-002
2.667182e+003;5.905220e-002
2.669110e+003;5.922613e-002
2.671039e+003;5.925017e-002
2.672968e+003;5.933730e-002
2.674896e+003;5.955246e-002
2.676825e+003;5.962148e-002
2.678753e+003;5.954433e-002
2.680682e+003;5.987835e-002
2.682610e+003;6.032512e-002
2.684539e+003;6.070383e-002
2.686467e+003;6.087800e-002
2.688396e+003;6.058854e-002
2.690324e+003;6.067826e-002
2.692253e+003;6.107051e-002
2.694182e+003;6.142713e-002
2.696110e+003;6.173449e-002
2.698039e+003;6.211064e-002
2.699967e+003;6.239745e-002
2.701896e+003;6.256090e-002
2.703824e+003;6.287343e-002
2.705753e+003;6.302224e-002
2.707681e+003;6.300496e-002
2.709610e+003;6.308258e-002
2.711539e+003;6.361769e-002
2.713467e+003;6.417774e-002
2.715396e+003;6.439631e-002
2.717324e+003;6.448268e-002
2.719253e+003;6.499801e-002
2.721181e+003;6.567261e-002
2.723110e+003;6.600895e-002
2.725038e+003;6.615173e-002
2.726967e+003;6.629495e-002
2.728896e+003;6.648254e-002
2.730824e+003;6.679489e-002
2.732752e+003;6.718300e-002
2.734681e+003;6.763653e-002
2.736610e+003;6.799103e-002
2.738538e+003;6.817191e-002
2.740467e+003;6.809330e-002
2.742395e+003;6.801784e-002
2.744324e+003;6.820451e-002
2.746252e+003;6.844149e-002
2.748181e+003;6.869874e-002
2.750109e+003;6.869730e-002
2.752038e+003;6.859520e-002
2.753967e+003;6.879663e-002
2.755895e+003;6.911361e-002
2.757824e+003;6.941119e-002
2.759752e+003;6.949388e-002
2.761681e+003;6.951912e-002
2.763609e+003;6.935050e-002
2.765538e+003;6.927168e-002
2.767466e+003;6.971721e-002
2.769395e+003;7.008423e-002
2.771323e+003;7.032014e-002
2.773252e+003;7.065675e-002
2.775181e+003;7.105660e-002
2.777109e+003;7.149454e-002
2.779038e+003;7.192500e-002
2.780966e+003;7.200959e-002
2.782895e+003;7.192516e-002
2.784823e+003;7.239554e-002
2.786752e+003;7.308158e-002
2.788680e+003;7.343037e-002
2.790609e+003;7.370403e-002
2.792538e+003;7.410882e-002
2.794466e+003;7.476155e-002
2.796395e+003;7.529882e-002
2.798323e+003;7.563438e-002
2.800252e+003;7.599048e-002
2.802180e+003;7.606316e-002
2.804109e+003;7.644696e-002
2.806037e+003;7.701447e-002
2.807966e+003;7.762084e-002
2.809895e+003;7.829166e-002
2.811823e+003;7.893653e-002
2.813751e+003;7.955005e-002
2.815680e+003;8.029852e-002
2.817609e+003;8.088179e-002
2.819537e+003;8.140805e-002
2.821466e+003;8.191463e-002
2.823394e+003;8.271296e-002
2.825323e+003;8.355255e-002
2.827251e+003;8.419009e-002
2.829180e+003;8.496196e-002
2.831108e+003;8.592568e-002
2.833037e+003;8.730291e-002
2.834966e+003;8.891070e-002
2.836894e+003;9.098316e-002
2.838823e+003;9.370197e-002
2.840751e+003;9.668646e-002
2.842680e+003;1.004330e-001
2.844608e+003;1.051890e-001
2.846537e+003;1.102788e-001
2.848465e+003;1.154932e-001
2.850394e+003;1.205365e-001
2.852323e+003;1.247155e-001
2.854251e+003;1.281727e-001
2.856180e+003;1.314936e-001
2.858108e+003;1.341336e-001
2.860037e+003;1.353613e-001
2.861965e+003;1.356625e-001
2.863894e+003;1.352367e-001
2.865822e+003;1.338747e-001
2.867751e+003;1.321859e-001
2.869679e+003;1.300321e-001
2.871608e+003;1.268224e-001
2.873536e+003;1.237797e-001
2.875465e+003;1.210507e-001
2.877394e+003;1.182039e-001
2.879322e+003;1.155491e-001
2.881251e+003;1.136655e-001
2.883179e+003;1.123986e-001
2.885108e+003;1.117867e-001
2.887036e+003;1.119730e-001
2.888965e+003;1.128601e-001
2.890893e+003;1.145923e-001
2.892822e+003;1.167837e-001
2.894750e+003;1.192162e-001
2.896679e+003;1.216339e-001
2.898608e+003;1.234074e-001
2.900536e+003;1.249510e-001
2.902465e+003;1.264614e-001
2.904393e+003;1.276441e-001
2.906322e+003;1.289004e-001
2.908250e+003;1.307835e-001
2.910179e+003;1.334031e-001
2.912107e+003;1.357178e-001
2.914036e+003;1.377993e-001
2.915965e+003;1.404904e-001
2.917893e+003;1.439947e-001
2.919822e+003;1.474416e-001
2.921750e+003;1.512216e-001
2.923679e+003;1.551929e-001
2.925607e+003;1.588071e-001
2.927536e+003;1.615295e-001
2.929464e+003;1.636580e-001
2.931393e+003;1.655258e-001
2.933322e+003;1.664378e-001
2.935250e+003;1.657815e-001
2.937178e+003;1.643361e-001
2.939107e+003;1.627195e-001
2.941036e+003;1.596492e-001
2.942964e+003;1.553531e-001
2.944893e+003;1.507445e-001
2.946821e+003;1.455211e-001
2.948750e+003;1.390583e-001
2.950678e+003;1.316026e-001
2.952607e+003;1.244324e-001
2.954535e+003;1.181923e-001
2.956464e+003;1.125477e-001
2.958393e+003;1.074893e-001
2.960321e+003;1.026932e-001
2.962250e+003;9.856377e-002
2.964178e+003;9.545472e-002
2.966107e+003;9.239806e-002
2.968035e+003;8.915535e-002
2.969964e+003;8.647859e-002
2.971892e+003;8.432582e-002
2.973821e+003;8.227873e-002
2.975750e+003;8.001841e-002
2.977678e+003;7.806614e-002
2.979607e+003;7.686020e-002
2.981535e+003;7.564613e-002
2.983464e+003;7.419894e-002
2.985392e+003;7.295813e-002
2.987321e+003;7.197889e-002
2.989249e+003;7.105105e-002
2.991178e+003;7.035235e-002
2.993106e+003;6.982398e-002
2.995035e+003;6.952445e-002
2.996964e+003;6.923729e-002
2.998892e+003;6.891603e-002
3.000821e+003;6.914695e-002
3.002749e+003;6.909733e-002
3.004678e+003;6.896236e-002
3.006606e+003;6.922567e-002
3.008535e+003;6.945150e-002
3.010463e+003;6.947705e-002
3.012392e+003;6.984285e-002
3.014321e+003;6.996296e-002
3.016249e+003;6.959752e-002
3.018177e+003;6.964478e-002
3.020106e+003;7.043839e-002
3.022035e+003;7.101578e-002
3.023963e+003;7.136054e-002
3.025892e+003;7.148708e-002
3.027820e+003;7.166541e-002
3.029749e+003;7.206564e-002
3.031677e+003;7.305700e-002
3.033606e+003;7.393283e-002
3.035534e+003;7.410654e-002
3.037463e+003;7.458109e-002
3.039392e+003;7.542493e-002
3.041320e+003;7.624285e-002
3.043249e+003;7.690612e-002
3.045177e+003;7.767988e-002
3.047106e+003;7.846902e-002
3.049034e+003;7.937642e-002
3.050963e+003;8.017197e-002
3.052891e+003;8.072060e-002
3.054820e+003;8.187122e-002
3.056749e+003;8.278159e-002
3.058677e+003;8.302907e-002
3.060606e+003;8.352280e-002
3.062534e+003;8.419090e-002
3.064463e+003;8.457652e-002
3.066391e+003;8.473657e-002
3.068320e+003;8.483770e-002
3.070248e+003;8.487658e-002
3.072177e+003;8.503848e-002
3.074105e+003;8.512207e-002
3.076034e+003;8.483852e-002
3.077963e+003;8.472364e-002
3.079891e+003;8.479138e-002
3.081820e+003;8.437689e-002
3.083748e+003;8.363353e-002
3.085677e+003;8.315553e-002
3.087605e+003;8.299084e-002
3.089534e+003;8.294383e-002
3.091462e+003;8.272082e-002
3.093391e+003;8.218591e-002
3.095320e+003;8.125234e-002
3.097248e+003;8.055280e-002
3.099177e+003;7.958802e-002
3.101105e+003;7.853889e-002
3.103034e+003;7.791650e-002
3.104962e+003;7.774102e-002
3.106891e+003;7.742640e-002
3.108819e+003;7.665175e-002
3.110748e+003;7.591483e-002
3.112677e+003;7.572529e-002
3.114605e+003;7.546554e-002
3.116533e+003;7.491063e-002
3.118462e+003;7.450191e-002
3.120391e+003;7.377926e-002
3.122319e+003;7.308589e-002
3.124248e+003;7.334591e-002
3.126176e+003;7.362673e-002
3.128105e+003;7.330978e-002
3.130033e+003;7.289946e-002
3.131962e+003;7.277125e-002
3.133890e+003;7.307111e-002
3.135819e+003;7.332817e-002
3.137748e+003;7.331080e-002
3.139676e+003;7.352059e-002
3.141605e+003;7.370556e-002
3.143533e+003;7.387646e-002
3.145462e+003;7.398155e-002
3.147390e+003;7.391657e-002
3.149319e+003;7.411731e-002
3.151247e+003;7.431480e-002
3.153176e+003;7.458606e-002
3.155104e+003;7.517025e-002
3.157033e+003;7.565295e-002
3.158962e+003;7.578446e-002
3.160890e+003;7.584498e-002
3.162819e+003;7.677941e-002
3.164747e+003;7.778410e-002
3.166676e+003;7.770183e-002
3.168604e+003;7.783947e-002
3.170533e+003;7.861731e-002
3.172461e+003;7.937889e-002
3.174390e+003;7.979251e-002
3.176319e+003;8.052751e-002
3.178247e+003;8.174601e-002
3.180176e+003;8.233228e-002
3.182104e+003;8.262498e-002
3.184033e+003;8.313555e-002
3.185961e+003;8.373952e-002
3.187890e+003;8.419605e-002
3.189818e+003;8.444505e-002
3.191747e+003;8.455981e-002
3.193676e+003;8.530410e-002
3.195604e+003;8.596595e-002
3.197532e+003;8.629680e-002
3.199461e+003;8.703569e-002
3.201390e+003;8.739796e-002
3.203318e+003;8.767926e-002
3.205247e+003;8.806337e-002
3.207175e+003;8.825459e-002
3.209104e+003;8.821886e-002
3.211032e+003;8.876210e-002
3.212961e+003;8.962681e-002
3.214889e+003;9.012615e-002
3.216818e+003;9.040061e-002
3.218747e+003;9.126123e-002
3.220675e+003;9.231396e-002
3.222604e+003;9.279034e-002
3.224532e+003;9.332056e-002
3.226461e+003;9.410794e-002
3.228389e+003;9.500638e-002
3.230318e+003;9.584367e-002
3.232246e+003;9.700707e-002
3.234175e+003;9.862593e-002
3.236104e+003;1.000466e-001
3.238032e+003;1.014600e-001
3.239961e+003;1.028074e-001
3.241889e+003;1.041666e-001
3.243818e+003;1.055589e-001
3.245746e+003;1.075172e-001
3.247675e+003;1.093512e-001
3.249603e+003;1.107943e-001
3.251532e+003;1.129079e-001
3.253460e+003;1.152308e-001
3.255389e+003;1.175183e-001
3.257318e+003;1.199549e-001
3.259246e+003;1.220624e-001
3.261175e+003;1.239056e-001
3.263103e+003;1.262892e-001
3.265032e+003;1.284580e-001
3.266960e+003;1.305501e-001
3.268889e+003;1.328255e-001
3.270817e+003;1.353937e-001
3.272746e+003;1.378277e-001
3.274675e+003;1.398106e-001
3.276603e+003;1.422099e-001
3.278531e+003;1.447344e-001
3.280460e+003;1.473822e-001
3.282389e+003;1.495215e-001
3.284317e+003;1.513170e-001
3.286246e+003;1.538194e-001
3.288174e+003;1.558217e-001
3.290103e+003;1.568827e-001
3.292031e+003;1.572239e-001
3.293960e+003;1.574507e-001
3.295888e+003;1.569363e-001
3.297817e+003;1.555419e-001
3.299746e+003;1.538631e-001
3.301674e+003;1.512992e-001
3.303603e+003;1.480186e-001
3.305531e+003;1.448485e-001
3.307460e+003;1.410914e-001
3.309388e+003;1.375063e-001
3.311317e+003;1.341740e-001
3.313245e+003;1.309300e-001
3.315174e+003;1.279237e-001
3.317103e+003;1.249923e-001
3.319031e+003;1.219902e-001
3.320960e+003;1.188584e-001
3.322888e+003;1.153443e-001
3.324817e+003;1.122354e-001
3.326745e+003;1.096582e-001
3.328674e+003;1.075404e-001
3.330602e+003;1.054569e-001
3.332531e+003;1.034956e-001
3.334459e+003;1.012697e-001
3.336388e+003;9.892051e-002
3.338317e+003;9.673192e-002
3.340245e+003;9.394468e-002
3.342174e+003;9.179430e-002
3.344102e+003;9.082017e-002
3.346031e+003;8.934893e-002
3.347959e+003;8.773574e-002
3.349888e+003;8.611479e-002
3.351816e+003;8.423112e-002
3.353745e+003;8.236820e-002
3.355674e+003;8.092634e-002
3.357602e+003;8.020645e-002
3.359531e+003;7.930109e-002
3.361459e+003;7.788613e-002
3.363388e+003;7.674070e-002
3.365316e+003;7.585118e-002
3.367245e+003;7.513141e-002
3.369173e+003;7.424410e-002
3.371102e+003;7.350643e-002
3.373031e+003;7.291306e-002
3.374959e+003;7.172152e-002
3.376887e+003;7.049719e-002
3.378816e+003;6.977966e-002
3.380745e+003;6.932508e-002
3.382673e+003;6.863987e-002
3.384602e+003;6.830610e-002
3.386530e+003;6.822556e-002
3.388459e+003;6.770306e-002
3.390387e+003;6.760549e-002
3.392316e+003;6.705623e-002
3.394244e+003;6.621031e-002
3.396173e+003;6.567322e-002
3.398102e+003;6.535421e-002
3.400030e+003;6.513011e-002
3.401959e+003;6.497739e-002
3.403887e+003;6.522731e-002
3.405816e+003;6.489392e-002
3.407744e+003;6.409909e-002
3.409673e+003;6.377470e-002
3.411601e+003;6.351943e-002
3.413530e+003;6.319776e-002
3.415458e+003;6.299929e-002
3.417387e+003;6.281243e-002
3.419316e+003;6.279743e-002
3.421244e+003;6.258126e-002
3.423173e+003;6.238460e-002
3.425101e+003;6.201803e-002
3.427030e+003;6.147950e-002
3.428958e+003;6.134775e-002
3.430887e+003;6.148370e-002
3.432815e+003;6.159521e-002
3.434744e+003;6.129752e-002
3.436673e+003;6.101324e-002
3.438601e+003;6.118280e-002
3.440530e+003;6.144209e-002
3.442458e+003;6.122595e-002
3.444387e+003;6.101491e-002
3.446315e+003;6.029386e-002
3.448244e+003;5.976564e-002
3.450172e+003;5.983124e-002
3.452101e+003;5.898684e-002
3.454030e+003;5.825146e-002
3.455958e+003;5.909005e-002
3.457886e+003;5.948467e-002
3.459815e+003;5.876908e-002
3.461744e+003;5.825316e-002
3.463672e+003;5.787453e-002
3.465601e+003;5.761768e-002
3.467529e+003;5.740332e-002
3.469458e+003;5.713396e-002
3.471386e+003;5.708888e-002
3.473315e+003;5.702430e-002
3.475243e+003;5.681228e-002
3.477172e+003;5.643740e-002
3.479101e+003;5.636567e-002
3.481029e+003;5.622135e-002
3.482958e+003;5.596962e-002
3.484886e+003;5.631972e-002
3.486815e+003;5.627257e-002
3.488743e+003;5.559057e-002
3.490672e+003;5.516602e-002
3.492600e+003;5.512321e-002
3.494529e+003;5.522224e-002
3.496458e+003;5.544203e-002
3.498386e+003;5.521448e-002
3.500315e+003;5.466568e-002
3.502243e+003;5.431352e-002
3.504172e+003;5.452437e-002
3.506100e+003;5.500308e-002
3.508029e+003;5.487173e-002
3.509957e+003;5.465963e-002
3.511886e+003;5.428022e-002
3.513814e+003;5.383467e-002
3.515743e+003;5.373840e-002
3.517672e+003;5.362457e-002
3.519600e+003;5.326715e-002
3.521529e+003;5.283155e-002
3.523457e+003;5.230312e-002
3.525386e+003;5.212918e-002
3.527314e+003;5.188570e-002
3.529243e+003;5.187976e-002
3.531171e+003;5.193667e-002
3.533100e+003;5.185546e-002
3.535029e+003;5.181032e-002
3.536957e+003;5.131110e-002
3.538885e+003;5.095517e-002
3.540814e+003;5.067880e-002
3.542743e+003;5.024459e-002
3.544671e+003;4.942277e-002
3.546600e+003;4.886318e-002
3.548528e+003;4.930614e-002
3.550457e+003;4.962197e-002
3.552385e+003;4.934645e-002
3.554314e+003;4.902914e-002
3.556242e+003;4.888038e-002
3.558171e+003;4.848268e-002
3.560100e+003;4.796200e-002
3.562028e+003;4.747317e-002
3.563957e+003;4.716406e-002
3.565885e+003;4.600728e-002
3.567814e+003;4.551840e-002
3.569742e+003;4.624686e-002
3.571671e+003;4.651239e-002
3.573599e+003;4.635575e-002
3.575528e+003;4.623960e-002
3.577457e+003;4.586736e-002
3.579385e+003;4.511237e-002
3.581314e+003;4.493360e-002
3.583242e+003;4.484050e-002
3.585171e+003;4.365541e-002
3.587099e+003;4.261643e-002
3.589028e+003;4.289924e-002
3.590956e+003;4.351086e-002
3.592885e+003;4.309788e-002
3.594813e+003;4.267356e-002
3.596742e+003;4.275947e-002
3.598671e+003;4.288892e-002
3.600599e+003;4.245739e-002
3.602528e+003;4.215136e-002
3.604456e+003;4.197946e-002
3.606385e+003;4.153939e-002
3.608313e+003;4.032228e-002
3.610242e+003;3.999152e-002
3.612170e+003;4.010343e-002
3.614099e+003;4.019396e-002
3.616028e+003;3.965523e-002
3.617956e+003;3.834135e-002
3.619885e+003;3.836480e-002
3.621813e+003;3.994847e-002
3.623742e+003;4.033188e-002
3.625670e+003;3.875671e-002
3.627599e+003;3.554482e-002
3.629527e+003;3.553443e-002
3.631456e+003;3.844733e-002
3.633385e+003;3.899283e-002
3.635313e+003;3.891762e-002
3.637241e+003;3.909161e-002
3.639170e+003;3.882185e-002
3.641099e+003;3.855816e-002
3.643027e+003;3.854480e-002
3.644956e+003;3.705380e-002
3.646884e+003;3.408002e-002
3.648813e+003;3.273020e-002
3.650741e+003;3.439677e-002
3.652670e+003;3.628529e-002
3.654598e+003;3.554816e-002
3.656527e+003;3.565329e-002
3.658456e+003;3.734843e-002
3.660384e+003;3.742484e-002
3.662313e+003;3.739295e-002
3.664241e+003;3.774350e-002
3.666170e+003;3.691508e-002
3.668098e+003;3.430927e-002
3.670027e+003;3.234102e-002
3.671955e+003;3.353922e-002
3.673884e+003;3.280888e-002
3.675813e+003;3.239953e-002
3.677741e+003;3.482004e-002
3.679669e+003;3.560865e-002
3.681598e+003;3.550408e-002
3.683527e+003;3.540190e-002
3.685455e+003;3.430776e-002
3.687384e+003;3.100410e-002
3.689312e+003;3.078004e-002
3.691241e+003;3.315371e-002
3.693169e+003;3.445211e-002
3.695098e+003;3.458786e-002
3.697026e+003;3.480482e-002
3.698955e+003;3.465525e-002
3.700884e+003;3.372701e-002
3.702812e+003;3.365965e-002
3.704741e+003;3.409651e-002
3.706669e+003;3.382381e-002
3.708598e+003;3.244105e-002
3.710526e+003;3.068064e-002
3.712455e+003;3.071460e-002
3.714383e+003;3.281042e-002
3.716312e+003;3.390057e-002
3.718240e+003;3.386228e-002
3.720169e+003;3.314227e-002
3.722098e+003;3.282768e-002
3.724026e+003;3.298948e-002
3.725955e+003;3.282879e-002
3.727883e+003;3.293486e-002
3.729812e+003;3.196484e-002
3.731740e+003;3.010779e-002
3.733669e+003;2.972933e-002
3.735597e+003;2.929627e-002
3.737526e+003;3.072153e-002
3.739455e+003;3.249179e-002
3.741383e+003;3.178049e-002
3.743312e+003;2.714675e-002
3.745240e+003;2.750466e-002
3.747169e+003;3.017630e-002
3.749097e+003;2.819840e-002
3.751026e+003;2.760273e-002
3.752954e+003;3.071051e-002
3.754883e+003;3.377119e-002
3.756812e+003;3.325822e-002
3.758740e+003;3.248304e-002
3.760668e+003;3.318046e-002
3.762597e+003;3.433293e-002
3.764526e+003;3.350676e-002
3.766454e+003;3.326158e-002
3.768383e+003;3.281692e-002
3.770311e+003;3.325847e-002
3.772240e+003;3.429234e-002
3.774168e+003;3.436116e-002
3.776097e+003;3.386815e-002
3.778025e+003;3.355648e-002
3.779954e+003;3.371300e-002
3.781883e+003;3.420461e-002
3.783811e+003;3.420558e-002
3.785740e+003;3.434699e-002
3.787668e+003;3.419769e-002
3.789597e+003;3.460541e-002
3.791525e+003;3.454965e-002
3.793454e+003;3.420160e-002
3.795382e+003;3.346932e-002
3.797311e+003;3.326058e-002
3.799240e+003;3.168076e-002
3.801168e+003;3.004885e-002
3.803097e+003;3.228733e-002
3.805025e+003;3.255082e-002
3.806954e+003;3.185665e-002
3.808882e+003;3.397534e-002
3.810811e+003;3.508919e-002
3.812739e+003;3.412106e-002
3.814668e+003;3.182745e-002
3.816596e+003;3.215227e-002
3.818525e+003;3.329371e-002
3.820454e+003;3.238693e-002
3.822382e+003;3.352759e-002
3.824311e+003;3.435660e-002
3.826239e+003;3.379637e-002
3.828168e+003;3.416228e-002
3.830096e+003;3.409593e-002
3.832025e+003;3.379637e-002
3.833953e+003;3.359389e-002
3.835882e+003;3.212436e-002
3.837811e+003;3.084303e-002
3.839739e+003;3.226949e-002
3.841667e+003;3.364855e-002
3.843596e+003;3.449584e-002
3.845525e+003;3.585249e-002
3.847453e+003;3.627600e-002
3.849382e+003;3.478307e-002
3.851310e+003;3.064984e-002
3.853239e+003;2.679933e-002
3.855167e+003;3.034149e-002
3.857096e+003;3.474706e-002
3.859024e+003;3.545780e-002
3.860953e+003;3.501380e-002
3.862882e+003;3.435811e-002
3.864810e+003;3.406783e-002
3.866739e+003;3.409134e-002
3.868667e+003;3.248629e-002
3.870596e+003;3.309017e-002
3.872524e+003;3.489195e-002
3.874453e+003;3.529479e-002
3.876381e+003;3.562944e-002
3.878310e+003;3.524128e-002
3.880239e+003;3.495066e-002
3.882167e+003;3.553737e-002
3.884096e+003;3.516190e-002
3.886024e+003;3.494549e-002
3.887953e+003;3.637517e-002
3.889881e+003;3.623587e-002
3.891810e+003;3.559704e-002
3.893738e+003;3.628958e-002
3.895667e+003;3.675302e-002
3.897595e+003;3.560617e-002
3.899524e+003;3.455026e-002
3.901453e+003;3.424258e-002
3.903381e+003;3.471687e-002
3.905310e+003;3.671347e-002
3.907238e+003;3.814129e-002
3.909167e+003;3.850902e-002
3.911095e+003;3.856583e-002
3.913024e+003;3.789717e-002
3.914952e+003;3.702428e-002
3.916881e+003;3.650590e-002
3.918810e+003;3.687027e-002
3.920738e+003;3.740086e-002
3.922667e+003;3.745742e-002
3.924595e+003;3.733070e-002
3.926524e+003;3.768007e-002
3.928452e+003;3.790863e-002
3.930381e+003;3.782223e-002
3.932309e+003;3.751193e-002
3.934238e+003;3.807270e-002
3.936167e+003;3.895067e-002
3.938095e+003;3.908004e-002
3.940023e+003;3.863656e-002
3.941952e+003;3.841598e-002
3.943881e+003;3.877018e-002
3.945809e+003;3.875975e-002
3.947738e+003;3.866673e-002
3.949666e+003;3.901443e-002
3.951595e+003;3.945917e-002
3.953523e+003;3.987684e-002
3.955452e+003;3.995508e-002
3.957380e+003;4.004707e-002
3.959309e+003;4.039511e-002
3.961238e+003;4.036500e-002
3.963166e+003;4.045275e-002
3.965095e+003;4.071148e-002
3.967023e+003;4.094834e-002
3.968952e+003;4.092937e-002
3.970880e+003;4.040759e-002
3.972809e+003;3.984604e-002
3.974737e+003;3.980900e-002
3.976666e+003;4.067360e-002
3.978594e+003;4.121101e-002
3.980523e+003;4.121265e-002
3.982452e+003;4.114576e-002
3.984380e+003;4.142077e-002
3.986309e+003;4.191935e-002
3.988237e+003;4.217809e-002
3.990166e+003;4.200227e-002
3.992094e+003;4.216830e-002
3.994023e+003;4.226025e-002
3.995951e+003;4.264721e-002
3.997880e+003;4.294485e-002
3.999809e+003;4.232449e-002
4.001737e+003;0.000000e+000
