3.992094e+002;0.000000e+000
4.011380e+002;0.000000e+000
4.030665e+002;0.000000e+000
4.049951e+002;0.000000e+000
4.069236e+002;0.000000e+000
4.088522e+002;0.000000e+000
4.107807e+002;0.000000e+000
4.127093e+002;0.000000e+000
4.146378e+002;0.000000e+000
4.165664e+002;0.000000e+000
4.184949e+002;0.000000e+000
4.204235e+002;0.000000e+000
4.223520e+002;0.000000e+000
4.242806e+002;0.000000e+000
4.262091e+002;0.000000e+000
4.281377e+002;0.000000e+000
4.300662e+002;0.000000e+000
4.319948e+002;0.000000e+000
4.339233e+002;0.000000e+000
4.358519e+002;0.000000e+000
4.377804e+002;0.000000e+000
4.397090e+002;0.000000e+000
4.416375e+002;0.000000e+000
4.435660e+002;0.000000e+000
4.454946e+002;0.000000e+000
4.474232e+002;0.000000e+000
4.493517e+002;0.000000e+000
4.512802e+002;0.000000e+000
4.532088e+002;0.000000e+000
4.551373e+002;0.000000e+000
4.570659e+002;0.000000e+000
4.589944e+002;0.000000e+000
4.609230e+002;0.000000e+000
4.628515e+002;0.000000e+000
4.647801e+002;0.000000e+000
4.667086e+002;0.000000e+000
4.686372e+002;0.000000e+000
4.705657e+002;0.000000e+000
4.724943e+002;0.000000e+000
4.744228e+002;0.000000e+000
4.763513e+002;0.000000e+000
4.782799e+002;0.000000e+000
4.802085e+002;0.000000e+000
4.821370e+002;0.000000e+000
4.840656e+002;0.000000e+000
4.859941e+002;0.000000e+000
4.879226e+002;0.000000e+000
4.898512e+002;0.000000e+000
4.917798e+002;0.000000e+000
4.937083e+002;0.000000e+000
4.956368e+002;0.000000e+000
4.975654e+002;0.000000e+000
4.994939e+002;0.000000e+000
5.014225e+002;0.000000e+000
5.033510e+002;0.000000e+000
5.052796e+002;0.000000e+000
5.072081e+002;0.000000e+000
5.091367e+002;0.000000e+000
5.110652e+002;0.000000e+000
5.129938e+002;0.000000e+000
5.149223e+002;0.000000e+000
5.168509e+002;0.000000e+000
5.187794e+002;0.000000e+000
5.207079e+002;0.000000e+000
5.226365e+002;0.000000e+000
5.245651e+002;0.000000e+000
5.264936e+002;0.000000e+000
5.284222e+002;0.000000e+000
5.303507e+002;0.000000e+000
5.322792e+002;0.000000e+000
5.342078e+002;0.000000e+000
5.361364e+002;0.000000e+000
5.380649e+002;0.000000e+000
5.399935e+002;0.000000e+000
5.419220e+002;0.000000e+000
5.438505e+002;0.000000e+000
5.457791e+002;0.000000e+000
5.477076e+002;0.000000e+000
5.496362e+002;0.000000e+000
5.515648e+002;0.000000e+000
5.534933e+002;0.000000e+000
5.554218e+002;0.000000e+000
5.573504e+002;0.000000e+000
5.592789e+002;0.000000e+000
5.612075e+002;0.000000e+000
5.631360e+002;0.000000e+000
5.650646e+002;0.000000e+000
5.669931e+002;0.000000e+000
5.689217e+002;0.000000e+000
5.708502e+002;0.000000e+000
5.727787e+002;0.000000e+000
5.747073e+002;0.000000e+000
5.766359e+002;0.000000e+000
5.785644e+002;0.000000e+000
5.804930e+002;0.000000e+000
5.824215e+002;0.000000e+000
5.843500e+002;0.000000e+000
5.862786e+002;0.000000e+000
5.882072e+002;0.000000e+000
5.901357e+002;0.000000e+000
5.920643e+002;0.000000e+000
5.939928e+002;0.000000e+000
5.959213e+002;0.000000e+000
5.978499e+002;0.000000e+000
5.997784e+002;1.397799e-001
6.017070e+002;1.406641e-001
6.036355e+002;1.392955e-001
6.055641e+002;1.413595e-001
6.074926e+002;1.396083e-001
6.094211e+002;1.395432e-001
6.113497e+002;1.392824e-001
6.132783e+002;1.370245e-001
6.152068e+002;1.387365e-001
6.171354e+002;1.386838e-001
6.190639e+002;1.391895e-001
6.209924e+002;1.388737e-001
6.229210e+002;1.372180e-001
6.248495e+002;1.356925e-001
6.267781e+002;1.373734e-001
6.287067e+002;1.417796e-001
6.306352e+002;1.437565e-001
6.325637e+002;1.435569e-001
6.344923e+002;1.414300e-001
6.364208e+002;1.415727e-001
6.383494e+002;1.443265e-001
6.402780e+002;1.420003e-001
6.422065e+002;1.417951e-001
6.441350e+002;1.483689e-001
6.460636e+002;1.539485e-001
6.479921e+002;1.559477e-001
6.499207e+002;1.563826e-001
6.518492e+002;1.550693e-001
6.537778e+002;1.544158e-001
6.557063e+002;1.601438e-001
6.576349e+002;1.672868e-001
6.595634e+002;1.702702e-001
6.614919e+002;1.741178e-001
6.634205e+002;1.756878e-001
6.653491e+002;1.763267e-001
6.672776e+002;1.772830e-001
6.692062e+002;1.791657e-001
6.711347e+002;1.799491e-001
6.730632e+002;1.815531e-001
6.749918e+002;1.830824e-001
6.769203e+002;1.865318e-001
6.788489e+002;1.897866e-001
6.807775e+002;1.896696e-001
6.827060e+002;1.892211e-001
6.846345e+002;1.889094e-001
6.865631e+002;1.878406e-001
6.884916e+002;1.862780e-001
6.904202e+002;1.853980e-001
6.923488e+002;1.835780e-001
6.942773e+002;1.800112e-001
6.962058e+002;1.770061e-001
6.981344e+002;1.741254e-001
7.000629e+002;1.703700e-001
7.019915e+002;1.668761e-001
7.039200e+002;1.645295e-001
7.058486e+002;1.624244e-001
7.077771e+002;1.625958e-001
7.097057e+002;1.625902e-001
7.116342e+002;1.603726e-001
7.135627e+002;1.581311e-001
7.154913e+002;1.560615e-001
7.174199e+002;1.545430e-001
7.193484e+002;1.539924e-001
7.212770e+002;1.527869e-001
7.232055e+002;1.523139e-001
7.251340e+002;1.536018e-001
7.270626e+002;1.546106e-001
7.289911e+002;1.531763e-001
7.309197e+002;1.480697e-001
7.328483e+002;1.410290e-001
7.347768e+002;1.337606e-001
7.367053e+002;1.271423e-001
7.386339e+002;1.213341e-001
7.405624e+002;1.169988e-001
7.424910e+002;1.151182e-001
7.444196e+002;1.126825e-001
7.463481e+002;1.093736e-001
7.482766e+002;1.066192e-001
7.502052e+002;1.047547e-001
7.521337e+002;1.026507e-001
7.540623e+002;1.011503e-001
7.559908e+002;9.959061e-002
7.579194e+002;9.757374e-002
7.598479e+002;9.677211e-002
7.617765e+002;9.557118e-002
7.637050e+002;9.390289e-002
7.656335e+002;9.277803e-002
7.675621e+002;9.186344e-002
7.694907e+002;9.055912e-002
7.714192e+002;8.980243e-002
7.733478e+002;8.924153e-002
7.752763e+002;8.754073e-002
7.772048e+002;8.563526e-002
7.791334e+002;8.505605e-002
7.810620e+002;8.446305e-002
7.829905e+002;8.301739e-002
7.849191e+002;8.131862e-002
7.868476e+002;8.001905e-002
7.887761e+002;7.869543e-002
7.907047e+002;7.731466e-002
7.926332e+002;7.681710e-002
7.945618e+002;7.577385e-002
7.964903e+002;7.440425e-002
7.984189e+002;7.339797e-002
8.003474e+002;7.271100e-002
8.022759e+002;7.130958e-002
8.042045e+002;6.937538e-002
8.061331e+002;6.797882e-002
8.080616e+002;6.704193e-002
8.099902e+002;6.664842e-002
8.119187e+002;6.625782e-002
8.138472e+002;6.551264e-002
8.157758e+002;6.591634e-002
8.177043e+002;6.619078e-002
8.196329e+002;6.550845e-002
8.215615e+002;6.471132e-002
8.234900e+002;6.522647e-002
8.254185e+002;6.667141e-002
8.273471e+002;6.801052e-002
8.292756e+002;6.893285e-002
8.312042e+002;7.014494e-002
8.331328e+002;7.058220e-002
8.350613e+002;6.890628e-002
8.369898e+002;6.631691e-002
8.389184e+002;6.386972e-002
8.408469e+002;6.235082e-002
8.427755e+002;6.168881e-002
8.447040e+002;6.057841e-002
8.466326e+002;5.923380e-002
8.485611e+002;5.799380e-002
8.504897e+002;5.705063e-002
8.524182e+002;5.632655e-002
8.543467e+002;5.612535e-002
8.562753e+002;5.576911e-002
8.582039e+002;5.587623e-002
8.601324e+002;5.648509e-002
8.620610e+002;5.647641e-002
8.639895e+002;5.627193e-002
8.659180e+002;5.646207e-002
8.678466e+002;5.662912e-002
8.697751e+002;5.621212e-002
8.717037e+002;5.616038e-002
8.736323e+002;5.681828e-002
8.755608e+002;5.713328e-002
8.774893e+002;5.714726e-002
8.794179e+002;5.756947e-002
8.813464e+002;5.793791e-002
8.832750e+002;5.793049e-002
8.852036e+002;5.784016e-002
8.871321e+002;5.795484e-002
8.890606e+002;5.835404e-002
8.909892e+002;5.870011e-002
8.929177e+002;5.871449e-002
8.948463e+002;5.842499e-002
8.967748e+002;5.873050e-002
8.987034e+002;5.932442e-002
9.006319e+002;5.953437e-002
9.025605e+002;5.957105e-002
9.044890e+002;6.011818e-002
9.064175e+002;6.082917e-002
9.083461e+002;6.107620e-002
9.102747e+002;6.134316e-002
9.122032e+002;6.161438e-002
9.141318e+002;6.226779e-002
9.160603e+002;6.315036e-002
9.179888e+002;6.370455e-002
9.199174e+002;6.425392e-002
9.218459e+002;6.511552e-002
9.237745e+002;6.623127e-002
9.257031e+002;6.775503e-002
9.276316e+002;6.917737e-002
9.295601e+002;6.961857e-002
9.314887e+002;6.912026e-002
9.334172e+002;6.803168e-002
9.353458e+002;6.687725e-002
9.372744e+002;6.614448e-002
9.392029e+002;6.570483e-002
9.411314e+002;6.570306e-002
9.430600e+002;6.635690e-002
9.449885e+002;6.747902e-002
9.469171e+002;6.910192e-002
9.488456e+002;7.093751e-002
9.507742e+002;7.195335e-002
9.527027e+002;7.242854e-002
9.546313e+002;7.338883e-002
9.565598e+002;7.486866e-002
9.584883e+002;7.601180e-002
9.604169e+002;7.592533e-002
9.623455e+002;7.507665e-002
9.642740e+002;7.380263e-002
9.662026e+002;7.301321e-002
9.681311e+002;7.291737e-002
9.700596e+002;7.321364e-002
9.719882e+002;7.341688e-002
9.739167e+002;7.270994e-002
9.758453e+002;7.175908e-002
9.777739e+002;7.093611e-002
9.797024e+002;7.003988e-002
9.816309e+002;6.913319e-002
9.835595e+002;6.862792e-002
9.854880e+002;6.800071e-002
9.874166e+002;6.685533e-002
9.893452e+002;6.599252e-002
9.912737e+002;6.537805e-002
9.932022e+002;6.476248e-002
9.951307e+002;6.413358e-002
9.970593e+002;6.378406e-002
9.989879e+002;6.361121e-002
1.000916e+003;6.339257e-002
1.002845e+003;6.331183e-002
1.004773e+003;6.309281e-002
1.006702e+003;6.271189e-002
1.008631e+003;6.268445e-002
1.010559e+003;6.281592e-002
1.012488e+003;6.258383e-002
1.014416e+003;6.209157e-002
1.016345e+003;6.205178e-002
1.018273e+003;6.253037e-002
1.020202e+003;6.341542e-002
1.022130e+003;6.448776e-002
1.024059e+003;6.555815e-002
1.025988e+003;6.665611e-002
1.027916e+003;6.734698e-002
1.029845e+003;6.759952e-002
1.031773e+003;6.719901e-002
1.033702e+003;6.646423e-002
1.035630e+003;6.567438e-002
1.037559e+003;6.487388e-002
1.039487e+003;6.424120e-002
1.041416e+003;6.359303e-002
1.043344e+003;6.279666e-002
1.045273e+003;6.235695e-002
1.047202e+003;6.289706e-002
1.049130e+003;6.405415e-002
1.051059e+003;6.492940e-002
1.052987e+003;6.559984e-002
1.054916e+003;6.677781e-002
1.056844e+003;6.826565e-002
1.058773e+003;6.995926e-002
1.060701e+003;7.097672e-002
1.062630e+003;7.161597e-002
1.064558e+003;7.308558e-002
1.066487e+003;7.463367e-002
1.068416e+003;7.551020e-002
1.070344e+003;7.562203e-002
1.072273e+003;7.579914e-002
1.074201e+003;7.575322e-002
1.076130e+003;7.547173e-002
1.078058e+003;7.526635e-002
1.079987e+003;7.486382e-002
1.081915e+003;7.448842e-002
1.083844e+003;7.391885e-002
1.085773e+003;7.304464e-002
1.087701e+003;7.224669e-002
1.089630e+003;7.190616e-002
1.091558e+003;7.206247e-002
1.093487e+003;7.226877e-002
1.095415e+003;7.242756e-002
1.097344e+003;7.270622e-002
1.099272e+003;7.378177e-002
1.101201e+003;7.543038e-002
1.103129e+003;7.726411e-002
1.105058e+003;7.935920e-002
1.106987e+003;8.099545e-002
1.108915e+003;8.198237e-002
1.110844e+003;8.284370e-002
1.112772e+003;8.389673e-002
1.114701e+003;8.451601e-002
1.116629e+003;8.435198e-002
1.118558e+003;8.411677e-002
1.120486e+003;8.373979e-002
1.122415e+003;8.255132e-002
1.124344e+003;8.039883e-002
1.126272e+003;7.736328e-002
1.128201e+003;7.446037e-002
1.130129e+003;7.224083e-002
1.132058e+003;7.114671e-002
1.133986e+003;7.057394e-002
1.135915e+003;6.968559e-002
1.137843e+003;6.996533e-002
1.139772e+003;7.077501e-002
1.141700e+003;7.184954e-002
1.143629e+003;7.375731e-002
1.145557e+003;7.571973e-002
1.147486e+003;7.786737e-002
1.149415e+003;8.053338e-002
1.151343e+003;8.294716e-002
1.153272e+003;8.586159e-002
1.155200e+003;8.913000e-002
1.157129e+003;9.298481e-002
1.159057e+003;9.788425e-002
1.160986e+003;1.038910e-001
1.162914e+003;1.108379e-001
1.164843e+003;1.174721e-001
1.166771e+003;1.226106e-001
1.168700e+003;1.252853e-001
1.170629e+003;1.242673e-001
1.172557e+003;1.201278e-001
1.174486e+003;1.145400e-001
1.176414e+003;1.086364e-001
1.178343e+003;1.035588e-001
1.180271e+003;9.994544e-002
1.182200e+003;9.827525e-002
1.184128e+003;9.860373e-002
1.186057e+003;1.007119e-001
1.187986e+003;1.037594e-001
1.189914e+003;1.073046e-001
1.191843e+003;1.117121e-001
1.193771e+003;1.169682e-001
1.195700e+003;1.222608e-001
1.197628e+003;1.271909e-001
1.199557e+003;1.298690e-001
1.201485e+003;1.283561e-001
1.203414e+003;1.244245e-001
1.205343e+003;1.213186e-001
1.207271e+003;1.199126e-001
1.209200e+003;1.189042e-001
1.211128e+003;1.182347e-001
1.213057e+003;1.172255e-001
1.214985e+003;1.148204e-001
1.216914e+003;1.115330e-001
1.218842e+003;1.080507e-001
1.220771e+003;1.053569e-001
1.222699e+003;1.052011e-001
1.224628e+003;1.075508e-001
1.226557e+003;1.109531e-001
1.228485e+003;1.152462e-001
1.230414e+003;1.201417e-001
1.232342e+003;1.247227e-001
1.234271e+003;1.284673e-001
1.236199e+003;1.310667e-001
1.238128e+003;1.321864e-001
1.240056e+003;1.321187e-001
1.241985e+003;1.317357e-001
1.243913e+003;1.313926e-001
1.245842e+003;1.316350e-001
1.247771e+003;1.325122e-001
1.249699e+003;1.343925e-001
1.251628e+003;1.373632e-001
1.253556e+003;1.407723e-001
1.255485e+003;1.442025e-001
1.257413e+003;1.472969e-001
1.259342e+003;1.498264e-001
1.261270e+003;1.509611e-001
1.263199e+003;1.499504e-001
1.265127e+003;1.463935e-001
1.267056e+003;1.404676e-001
1.268985e+003;1.340034e-001
1.270913e+003;1.291787e-001
1.272842e+003;1.264448e-001
1.274770e+003;1.250239e-001
1.276699e+003;1.246754e-001
1.278627e+003;1.243944e-001
1.280556e+003;1.229417e-001
1.282484e+003;1.208812e-001
1.284413e+003;1.189891e-001
1.286342e+003;1.171273e-001
1.288270e+003;1.156315e-001
1.290199e+003;1.148907e-001
1.292127e+003;1.147534e-001
1.294056e+003;1.145554e-001
1.295984e+003;1.140773e-001
1.297913e+003;1.133702e-001
1.299841e+003;1.129840e-001
1.301770e+003;1.126282e-001
1.303698e+003;1.117741e-001
1.305627e+003;1.109737e-001
1.307556e+003;1.099614e-001
1.309484e+003;1.088381e-001
1.311413e+003;1.080015e-001
1.313341e+003;1.070150e-001
1.315270e+003;1.060577e-001
1.317198e+003;1.049461e-001
1.319127e+003;1.036573e-001
1.321055e+003;1.027176e-001
1.322984e+003;1.021721e-001
1.324912e+003;1.016905e-001
1.326841e+003;1.017935e-001
1.328770e+003;1.023025e-001
1.330698e+003;1.029749e-001
1.332627e+003;1.033437e-001
1.334555e+003;1.035167e-001
1.336484e+003;1.037099e-001
1.338412e+003;1.041946e-001
1.340341e+003;1.050033e-001
1.342269e+003;1.060373e-001
1.344198e+003;1.069796e-001
1.346126e+003;1.080290e-001
1.348055e+003;1.090866e-001
1.349984e+003;1.099772e-001
1.351912e+003;1.112826e-001
1.353841e+003;1.129097e-001
1.355769e+003;1.148621e-001
1.357698e+003;1.168640e-001
1.359626e+003;1.188690e-001
1.361555e+003;1.207843e-001
1.363483e+003;1.227590e-001
1.365412e+003;1.249513e-001
1.367341e+003;1.268756e-001
1.369269e+003;1.284393e-001
1.371198e+003;1.292472e-001
1.373126e+003;1.289807e-001
1.375055e+003;1.276613e-001
1.376983e+003;1.251929e-001
1.378912e+003;1.218793e-001
1.380840e+003;1.183784e-001
1.382769e+003;1.148530e-001
1.384698e+003;1.112503e-001
1.386626e+003;1.077744e-001
1.388555e+003;1.053253e-001
1.390483e+003;1.035748e-001
1.392412e+003;1.019348e-001
1.394340e+003;1.005791e-001
1.396269e+003;1.002454e-001
1.398197e+003;1.010223e-001
1.400126e+003;1.031112e-001
1.402054e+003;1.059412e-001
1.403983e+003;1.094517e-001
1.405911e+003;1.143886e-001
1.407840e+003;1.208312e-001
1.409769e+003;1.282072e-001
1.411697e+003;1.356041e-001
1.413626e+003;1.418084e-001
1.415554e+003;1.453632e-001
1.417483e+003;1.450345e-001
1.419411e+003;1.422496e-001
1.421340e+003;1.389714e-001
1.423268e+003;1.353414e-001
1.425197e+003;1.329413e-001
1.427125e+003;1.326435e-001
1.429054e+003;1.339036e-001
1.430983e+003;1.363998e-001
1.432911e+003;1.387573e-001
1.434840e+003;1.393543e-001
1.436768e+003;1.388416e-001
1.438697e+003;1.388364e-001
1.440625e+003;1.383612e-001
1.442554e+003;1.376054e-001
1.444482e+003;1.369852e-001
1.446411e+003;1.368048e-001
1.448340e+003;1.375896e-001
1.450268e+003;1.397846e-001
1.452197e+003;1.425282e-001
1.454125e+003;1.448233e-001
1.456054e+003;1.470354e-001
1.457982e+003;1.525357e-001
1.459911e+003;1.601192e-001
1.461839e+003;1.646558e-001
1.463768e+003;1.632177e-001
1.465697e+003;1.564235e-001
1.467625e+003;1.478775e-001
1.469554e+003;1.413252e-001
1.471482e+003;1.379713e-001
1.473411e+003;1.378628e-001
1.475339e+003;1.388616e-001
1.477268e+003;1.380944e-001
1.479196e+003;1.348422e-001
1.481125e+003;1.287021e-001
1.483053e+003;1.214244e-001
1.484982e+003;1.149375e-001
1.486911e+003;1.109131e-001
1.488839e+003;1.098031e-001
1.490768e+003;1.111132e-001
1.492696e+003;1.137892e-001
1.494625e+003;1.164061e-001
1.496553e+003;1.197791e-001
1.498482e+003;1.246573e-001
1.500410e+003;1.304103e-001
1.502339e+003;1.364227e-001
1.504267e+003;1.415237e-001
1.506196e+003;1.467969e-001
1.508125e+003;1.548857e-001
1.510053e+003;1.637519e-001
1.511982e+003;1.720362e-001
1.513910e+003;1.806795e-001
1.515839e+003;1.891807e-001
1.517767e+003;1.981861e-001
1.519696e+003;2.076808e-001
1.521624e+003;2.180575e-001
1.523553e+003;2.295627e-001
1.525481e+003;2.407330e-001
1.527410e+003;2.521119e-001
1.529339e+003;2.633241e-001
1.531267e+003;2.736843e-001
1.533196e+003;2.823150e-001
1.535124e+003;2.895294e-001
1.537053e+003;2.935814e-001
1.538981e+003;2.937177e-001
1.540910e+003;2.917674e-001
1.542838e+003;2.873020e-001
1.544767e+003;2.796236e-001
1.546695e+003;2.696789e-001
1.548624e+003;2.576028e-001
1.550553e+003;2.445887e-001
1.552481e+003;2.318416e-001
1.554410e+003;2.194088e-001
1.556338e+003;2.077492e-001
1.558267e+003;1.962124e-001
1.560195e+003;1.872030e-001
1.562124e+003;1.799720e-001
1.564052e+003;1.714182e-001
1.565981e+003;1.627309e-001
1.567910e+003;1.543302e-001
1.569838e+003;1.458403e-001
1.571767e+003;1.384741e-001
1.573695e+003;1.311282e-001
1.575624e+003;1.238361e-001
1.577552e+003;1.186673e-001
1.579481e+003;1.148573e-001
1.581409e+003;1.116462e-001
1.583338e+003;1.090820e-001
1.585266e+003;1.073979e-001
1.587195e+003;1.069846e-001
1.589124e+003;1.072817e-001
1.591052e+003;1.084510e-001
1.592981e+003;1.104206e-001
1.594909e+003;1.134656e-001
1.596838e+003;1.172374e-001
1.598766e+003;1.218449e-001
1.600695e+003;1.276551e-001
1.602623e+003;1.346288e-001
1.604552e+003;1.427916e-001
1.606480e+003;1.516966e-001
1.608409e+003;1.614400e-001
1.610338e+003;1.718794e-001
1.612266e+003;1.832263e-001
1.614195e+003;1.958836e-001
1.616123e+003;2.103382e-001
1.618052e+003;2.283978e-001
1.619980e+003;2.480026e-001
1.621909e+003;2.674096e-001
1.623837e+003;2.874207e-001
1.625766e+003;3.080118e-001
1.627694e+003;3.286701e-001
1.629623e+003;3.491638e-001
1.631552e+003;3.678577e-001
1.633480e+003;3.806624e-001
1.635409e+003;3.846004e-001
1.637337e+003;3.793547e-001
1.639266e+003;3.643035e-001
1.641194e+003;3.423244e-001
1.643123e+003;3.172931e-001
1.645051e+003;2.910182e-001
1.646980e+003;2.669528e-001
1.648909e+003;2.466548e-001
1.650837e+003;2.273106e-001
1.652766e+003;2.095126e-001
1.654694e+003;1.974331e-001
1.656623e+003;1.879245e-001
1.658551e+003;1.777791e-001
1.660480e+003;1.674340e-001
1.662408e+003;1.572882e-001
1.664337e+003;1.480755e-001
1.666266e+003;1.388655e-001
1.668194e+003;1.292951e-001
1.670123e+003;1.205977e-001
1.672051e+003;1.130368e-001
1.673980e+003;1.051668e-001
1.675908e+003;9.766056e-002
1.677837e+003;9.103391e-002
1.679765e+003;8.348111e-002
1.681694e+003;7.525543e-002
1.683622e+003;6.685174e-002
1.685551e+003;6.108299e-002
1.687479e+003;5.741652e-002
1.689408e+003;5.370792e-002
1.691337e+003;5.070635e-002
1.693265e+003;4.772458e-002
1.695194e+003;4.455654e-002
1.697122e+003;4.313996e-002
1.699051e+003;4.172439e-002
1.700979e+003;4.108705e-002
1.702908e+003;4.212456e-002
1.704836e+003;4.211595e-002
1.706765e+003;4.211036e-002
1.708693e+003;4.218663e-002
1.710622e+003;4.231920e-002
1.712551e+003;4.203848e-002
1.714479e+003;4.138067e-002
1.716408e+003;4.053481e-002
1.718336e+003;4.085350e-002
1.720265e+003;4.214898e-002
1.722193e+003;4.267875e-002
1.724122e+003;4.268493e-002
1.726050e+003;4.294130e-002
1.727979e+003;4.304439e-002
1.729908e+003;4.267638e-002
1.731836e+003;4.154066e-002
1.733765e+003;4.042253e-002
1.735693e+003;4.102404e-002
1.737622e+003;4.137065e-002
1.739550e+003;4.077411e-002
1.741479e+003;4.060647e-002
1.743407e+003;4.003213e-002
1.745336e+003;3.921856e-002
1.747265e+003;3.822703e-002
1.749193e+003;3.705643e-002
1.751122e+003;3.627873e-002
1.753050e+003;3.612578e-002
1.754979e+003;3.559283e-002
1.756907e+003;3.493712e-002
1.758836e+003;3.437303e-002
1.760764e+003;3.354459e-002
1.762693e+003;3.291763e-002
1.764621e+003;3.277744e-002
1.766550e+003;3.235108e-002
1.768479e+003;3.185808e-002
1.770407e+003;3.113593e-002
1.772336e+003;3.035617e-002
1.774264e+003;3.052118e-002
1.776193e+003;3.072743e-002
1.778121e+003;3.061550e-002
1.780050e+003;3.020387e-002
1.781978e+003;2.961143e-002
1.783907e+003;2.909934e-002
1.785835e+003;2.893746e-002
1.787764e+003;2.914076e-002
1.789693e+003;2.887067e-002
1.791621e+003;2.800957e-002
1.793550e+003;2.787543e-002
1.795478e+003;2.819101e-002
1.797407e+003;2.796949e-002
1.799335e+003;2.797896e-002
1.801264e+003;2.785565e-002
1.803192e+003;2.768730e-002
1.805121e+003;2.778821e-002
1.807049e+003;2.782488e-002
1.808978e+003;2.743297e-002
1.810907e+003;2.724309e-002
1.812835e+003;2.733437e-002
1.814764e+003;2.737075e-002
1.816692e+003;2.721603e-002
1.818621e+003;2.695062e-002
1.820549e+003;2.681533e-002
1.822478e+003;2.698164e-002
1.824406e+003;2.697551e-002
1.826335e+003;2.679845e-002
1.828264e+003;2.654812e-002
1.830192e+003;2.653709e-002
1.832121e+003;2.684846e-002
1.834049e+003;2.701877e-002
1.835978e+003;2.705142e-002
1.837906e+003;2.689672e-002
1.839835e+003;2.663146e-002
1.841763e+003;2.615683e-002
1.843692e+003;2.580738e-002
1.845620e+003;2.607319e-002
1.847549e+003;2.619670e-002
1.849478e+003;2.598879e-002
1.851406e+003;2.592016e-002
1.853335e+003;2.590483e-002
1.855263e+003;2.575155e-002
1.857192e+003;2.568282e-002
1.859120e+003;2.571063e-002
1.861049e+003;2.550277e-002
1.862977e+003;2.542291e-002
1.864906e+003;2.527903e-002
1.866834e+003;2.498458e-002
1.868763e+003;2.484899e-002
1.870692e+003;2.501350e-002
1.872620e+003;2.527211e-002
1.874549e+003;2.542481e-002
1.876477e+003;2.551964e-002
1.878406e+003;2.555453e-002
1.880334e+003;2.548524e-002
1.882263e+003;2.542027e-002
1.884191e+003;2.558827e-002
1.886120e+003;2.575580e-002
1.888048e+003;2.572961e-002
1.889977e+003;2.564387e-002
1.891906e+003;2.566159e-002
1.893834e+003;2.575615e-002
1.895763e+003;2.586657e-002
1.897691e+003;2.580555e-002
1.899620e+003;2.579518e-002
1.901548e+003;2.592797e-002
1.903477e+003;2.596248e-002
1.905405e+003;2.580288e-002
1.907334e+003;2.584258e-002
1.909262e+003;2.600406e-002
1.911191e+003;2.592533e-002
1.913120e+003;2.573253e-002
1.915048e+003;2.534081e-002
1.916977e+003;2.501628e-002
1.918905e+003;2.529842e-002
1.920834e+003;2.551342e-002
1.922762e+003;2.535286e-002
1.924691e+003;2.522467e-002
1.926619e+003;2.537731e-002
1.928548e+003;2.576730e-002
1.930477e+003;2.588805e-002
1.932405e+003;2.561354e-002
1.934334e+003;2.545593e-002
1.936262e+003;2.543232e-002
1.938191e+003;2.533663e-002
1.940119e+003;2.516203e-002
1.942048e+003;2.496756e-002
1.943976e+003;2.500452e-002
1.945905e+003;2.525979e-002
1.947833e+003;2.536540e-002
1.949762e+003;2.538110e-002
1.951691e+003;2.533238e-002
1.953619e+003;2.538964e-002
1.955548e+003;2.547178e-002
1.957476e+003;2.555235e-002
1.959405e+003;2.559259e-002
1.961333e+003;2.572036e-002
1.963262e+003;2.590367e-002
1.965190e+003;2.592519e-002
1.967119e+003;2.583355e-002
1.969047e+003;2.593311e-002
1.970976e+003;2.602861e-002
1.972905e+003;2.606105e-002
1.974833e+003;2.610771e-002
1.976762e+003;2.620617e-002
1.978690e+003;2.620381e-002
1.980619e+003;2.607023e-002
1.982547e+003;2.616338e-002
1.984476e+003;2.624654e-002
1.986404e+003;2.605183e-002
1.988333e+003;2.597489e-002
1.990261e+003;2.601739e-002
1.992190e+003;2.582985e-002
1.994119e+003;2.568053e-002
1.996047e+003;2.573123e-002
1.997976e+003;2.578203e-002
1.999904e+003;2.589730e-002
2.001833e+003;2.605412e-002
2.003761e+003;2.621800e-002
2.005690e+003;2.622771e-002
2.007618e+003;2.614483e-002
2.009547e+003;2.611766e-002
2.011476e+003;2.617794e-002
2.013404e+003;2.642042e-002
2.015333e+003;2.668420e-002
2.017261e+003;2.669562e-002
2.019190e+003;2.679630e-002
2.021118e+003;2.686101e-002
2.023047e+003;2.676359e-002
2.024975e+003;2.663812e-002
2.026904e+003;2.659778e-002
2.028833e+003;2.664478e-002
2.030761e+003;2.671056e-002
2.032690e+003;2.677209e-002
2.034618e+003;2.690095e-002
2.036547e+003;2.689030e-002
2.038475e+003;2.720241e-002
2.040404e+003;2.748623e-002
2.042332e+003;2.753053e-002
2.044261e+003;2.756118e-002
2.046189e+003;2.743854e-002
2.048118e+003;2.736687e-002
2.050047e+003;2.754095e-002
2.051975e+003;2.756940e-002
2.053904e+003;2.753470e-002
2.055832e+003;2.788769e-002
2.057761e+003;2.803120e-002
2.059689e+003;2.770842e-002
2.061618e+003;2.756241e-002
2.063546e+003;2.772128e-002
2.065475e+003;2.796228e-002
2.067404e+003;2.787183e-002
2.069332e+003;2.779672e-002
2.071260e+003;2.791645e-002
2.073189e+003;2.782739e-002
2.075118e+003;2.758331e-002
2.077046e+003;2.749237e-002
2.078975e+003;2.745672e-002
2.080903e+003;2.731044e-002
2.082832e+003;2.751189e-002
2.084760e+003;2.772746e-002
2.086689e+003;2.759461e-002
2.088617e+003;2.751733e-002
2.090546e+003;2.749707e-002
2.092475e+003;2.735677e-002
2.094403e+003;2.721247e-002
2.096332e+003;2.727181e-002
2.098260e+003;2.725050e-002
2.100189e+003;2.708218e-002
2.102117e+003;2.712559e-002
2.104046e+003;2.737858e-002
2.105974e+003;2.755472e-002
2.107903e+003;2.737523e-002
2.109832e+003;2.738204e-002
2.111760e+003;2.761876e-002
2.113688e+003;2.765143e-002
2.115617e+003;2.766276e-002
2.117546e+003;2.779545e-002
2.119474e+003;2.809687e-002
2.121403e+003;2.817906e-002
2.123331e+003;2.797656e-002
2.125260e+003;2.790278e-002
2.127188e+003;2.798292e-002
2.129117e+003;2.806085e-002
2.131045e+003;2.820940e-002
2.132974e+003;2.831580e-002
2.134903e+003;2.808485e-002
2.136831e+003;2.792988e-002
2.138760e+003;2.802766e-002
2.140688e+003;2.814544e-002
2.142617e+003;2.821537e-002
2.144545e+003;2.826937e-002
2.146474e+003;2.839071e-002
2.148402e+003;2.858414e-002
2.150331e+003;2.851517e-002
2.152260e+003;2.835817e-002
2.154188e+003;2.823864e-002
2.156117e+003;2.817638e-002
2.158045e+003;2.839507e-002
2.159974e+003;2.840975e-002
2.161902e+003;2.843985e-002
2.163831e+003;2.871499e-002
2.165759e+003;2.893388e-002
2.167688e+003;2.890771e-002
2.169616e+003;2.874735e-002
2.171545e+003;2.867609e-002
2.173474e+003;2.870872e-002
2.175402e+003;2.867807e-002
2.177331e+003;2.870302e-002
2.179259e+003;2.885494e-002
2.181188e+003;2.889592e-002
2.183116e+003;2.902934e-002
2.185045e+003;2.912815e-002
2.186973e+003;2.899076e-002
2.188902e+003;2.887718e-002
2.190831e+003;2.902176e-002
2.192759e+003;2.933278e-002
2.194688e+003;2.942989e-002
2.196616e+003;2.920356e-002
2.198545e+003;2.922223e-002
2.200473e+003;2.933367e-002
2.202402e+003;2.933559e-002
2.204330e+003;2.913470e-002
2.206259e+003;2.893703e-002
2.208188e+003;2.880785e-002
2.210116e+003;2.871290e-002
2.212044e+003;2.872218e-002
2.213973e+003;2.887396e-002
2.215902e+003;2.872154e-002
2.217830e+003;2.825876e-002
2.219759e+003;2.829317e-002
2.221687e+003;2.855353e-002
2.223616e+003;2.832666e-002
2.225544e+003;2.804989e-002
2.227473e+003;2.794211e-002
2.229401e+003;2.792553e-002
2.231330e+003;2.794380e-002
2.233259e+003;2.786370e-002
2.235187e+003;2.788048e-002
2.237116e+003;2.784957e-002
2.239044e+003;2.781633e-002
2.240973e+003;2.784841e-002
2.242901e+003;2.784339e-002
2.244830e+003;2.778249e-002
2.246758e+003;2.751655e-002
2.248687e+003;2.758522e-002
2.250615e+003;2.802780e-002
2.252544e+003;2.821226e-002
2.254473e+003;2.823097e-002
2.256401e+003;2.833833e-002
2.258330e+003;2.840624e-002
2.260258e+003;2.820123e-002
2.262187e+003;2.834965e-002
2.264115e+003;2.855286e-002
2.266044e+003;2.850693e-002
2.267972e+003;2.868589e-002
2.269901e+003;2.888837e-002
2.271830e+003;2.865683e-002
2.273758e+003;2.859982e-002
2.275687e+003;2.888366e-002
2.277615e+003;2.893211e-002
2.279544e+003;2.874320e-002
2.281472e+003;2.877924e-002
2.283401e+003;2.896222e-002
2.285329e+003;2.895541e-002
2.287258e+003;2.904737e-002
2.289187e+003;2.918694e-002
2.291115e+003;2.908004e-002
2.293043e+003;2.902937e-002
2.294972e+003;2.904521e-002
2.296901e+003;2.913509e-002
2.298829e+003;2.915770e-002
2.300758e+003;2.919282e-002
2.302686e+003;2.932403e-002
2.304615e+003;2.942358e-002
2.306543e+003;2.952851e-002
2.308472e+003;2.955326e-002
2.310400e+003;2.952620e-002
2.312329e+003;2.966575e-002
2.314258e+003;2.972659e-002
2.316186e+003;2.943181e-002
2.318115e+003;2.902672e-002
2.320043e+003;2.905382e-002
2.321972e+003;2.924552e-002
2.323900e+003;2.914576e-002
2.325829e+003;2.920047e-002
2.327757e+003;2.942454e-002
2.329686e+003;2.927593e-002
2.331615e+003;2.934314e-002
2.333543e+003;2.963354e-002
2.335472e+003;2.940415e-002
2.337400e+003;2.905456e-002
2.339329e+003;2.909112e-002
2.341257e+003;2.924477e-002
2.343186e+003;2.918718e-002
2.345114e+003;2.881387e-002
2.347043e+003;2.888961e-002
2.348971e+003;2.919122e-002
2.350900e+003;2.930390e-002
2.352829e+003;2.923010e-002
2.354757e+003;2.909938e-002
2.356686e+003;2.913704e-002
2.358614e+003;2.921174e-002
2.360543e+003;2.916940e-002
2.362471e+003;2.916376e-002
2.364400e+003;2.916684e-002
2.366328e+003;2.921933e-002
2.368257e+003;2.930790e-002
2.370186e+003;2.934356e-002
2.372114e+003;2.949386e-002
2.374042e+003;2.982663e-002
2.375971e+003;3.004512e-002
2.377900e+003;3.008986e-002
2.379828e+003;2.995703e-002
2.381757e+003;2.995359e-002
2.383685e+003;3.001686e-002
2.385614e+003;3.004661e-002
2.387542e+003;2.997237e-002
2.389471e+003;3.005364e-002
2.391399e+003;3.013361e-002
2.393328e+003;3.013844e-002
2.395257e+003;3.012260e-002
2.397185e+003;3.019772e-002
2.399114e+003;3.043396e-002
2.401042e+003;3.053028e-002
2.402971e+003;3.019790e-002
2.404899e+003;3.000936e-002
2.406828e+003;3.007516e-002
2.408756e+003;3.009213e-002
2.410685e+003;3.013365e-002
2.412614e+003;3.023331e-002
2.414542e+003;3.029023e-002
2.416471e+003;3.034739e-002
2.418399e+003;3.029868e-002
2.420328e+003;3.015989e-002
2.422256e+003;3.026198e-002
2.424185e+003;3.062300e-002
2.426113e+003;3.073120e-002
2.428042e+003;3.064298e-002
2.429970e+003;3.080120e-002
2.431899e+003;3.095898e-002
2.433828e+003;3.092169e-002
2.435756e+003;3.076570e-002
2.437685e+003;3.069664e-002
2.439613e+003;3.070464e-002
2.441542e+003;3.097830e-002
2.443470e+003;3.135384e-002
2.445399e+003;3.156693e-002
2.447327e+003;3.169712e-002
2.449256e+003;3.168981e-002
2.451185e+003;3.167085e-002
2.453113e+003;3.177076e-002
2.455042e+003;3.175721e-002
2.456970e+003;3.176135e-002
2.458899e+003;3.208705e-002
2.460827e+003;3.233577e-002
2.462756e+003;3.218220e-002
2.464684e+003;3.213714e-002
2.466613e+003;3.239139e-002
2.468542e+003;3.258650e-002
2.470470e+003;3.284740e-002
2.472398e+003;3.290105e-002
2.474327e+003;3.295989e-002
2.476256e+003;3.315439e-002
2.478184e+003;3.294609e-002
2.480113e+003;3.267387e-002
2.482041e+003;3.283293e-002
2.483970e+003;3.311856e-002
2.485898e+003;3.329185e-002
2.487827e+003;3.318586e-002
2.489755e+003;3.313905e-002
2.491684e+003;3.320546e-002
2.493613e+003;3.294998e-002
2.495541e+003;3.277297e-002
2.497470e+003;3.291856e-002
2.499398e+003;3.296189e-002
2.501327e+003;3.302842e-002
2.503255e+003;3.306038e-002
2.505184e+003;3.295621e-002
2.507112e+003;3.312142e-002
2.509041e+003;3.334905e-002
2.510969e+003;3.354893e-002
2.512898e+003;3.365432e-002
2.514827e+003;3.372503e-002
2.516755e+003;3.372224e-002
2.518684e+003;3.369012e-002
2.520612e+003;3.387378e-002
2.522541e+003;3.422074e-002
2.524469e+003;3.447625e-002
2.526398e+003;3.472904e-002
2.528326e+003;3.507213e-002
2.530255e+003;3.525209e-002
2.532184e+003;3.528753e-002
2.534112e+003;3.533037e-002
2.536041e+003;3.527129e-002
2.537969e+003;3.528925e-002
2.539898e+003;3.545273e-002
2.541826e+003;3.559463e-002
2.543755e+003;3.576254e-002
2.545683e+003;3.590108e-002
2.547612e+003;3.584602e-002
2.549541e+003;3.583493e-002
2.551469e+003;3.588625e-002
2.553397e+003;3.593808e-002
2.555326e+003;3.605125e-002
2.557255e+003;3.597490e-002
2.559183e+003;3.592058e-002
2.561112e+003;3.600942e-002
2.563040e+003;3.609399e-002
2.564969e+003;3.609132e-002
2.566897e+003;3.609143e-002
2.568826e+003;3.625622e-002
2.570754e+003;3.645203e-002
2.572683e+003;3.669133e-002
2.574612e+003;3.688301e-002
2.576540e+003;3.683489e-002
2.578469e+003;3.685465e-002
2.580397e+003;3.702937e-002
2.582326e+003;3.733893e-002
2.584254e+003;3.758837e-002
2.586183e+003;3.753281e-002
2.588111e+003;3.723184e-002
2.590040e+003;3.725506e-002
2.591969e+003;3.765330e-002
2.593897e+003;3.788365e-002
2.595826e+003;3.814400e-002
2.597754e+003;3.817446e-002
2.599683e+003;3.806167e-002
2.601611e+003;3.824563e-002
2.603540e+003;3.828920e-002
2.605468e+003;3.827602e-002
2.607397e+003;3.828272e-002
2.609325e+003;3.817269e-002
2.611254e+003;3.812978e-002
2.613183e+003;3.833147e-002
2.615111e+003;3.841258e-002
2.617040e+003;3.815590e-002
2.618968e+003;3.819516e-002
2.620897e+003;3.864416e-002
2.622825e+003;3.882674e-002
2.624754e+003;3.882902e-002
2.626682e+003;3.897416e-002
2.628611e+003;3.922186e-002
2.630540e+003;3.946908e-002
2.632468e+003;3.962561e-002
2.634396e+003;3.959218e-002
2.636325e+003;3.941716e-002
2.638254e+003;3.941559e-002
2.640182e+003;3.944462e-002
2.642111e+003;3.936433e-002
2.644039e+003;3.953933e-002
2.645968e+003;3.995962e-002
2.647896e+003;4.006407e-002
2.649825e+003;3.981691e-002
2.651753e+003;3.977606e-002
2.653682e+003;3.982287e-002
2.655611e+003;4.004216e-002
2.657539e+003;4.019941e-002
2.659468e+003;4.028883e-002
2.661396e+003;4.070279e-002
2.663325e+003;4.071705e-002
2.665253e+003;4.062434e-002
2.667182e+003;4.071196e-002
2.669110e+003;4.096982e-002
2.671039e+003;4.114984e-002
2.672968e+003;4.097842e-002
2.674896e+003;4.117600e-002
2.676825e+003;4.152907e-002
2.678753e+003;4.163117e-002
2.680682e+003;4.147027e-002
2.682610e+003;4.136230e-002
2.684539e+003;4.131912e-002
2.686467e+003;4.164714e-002
2.688396e+003;4.214519e-002
2.690324e+003;4.254768e-002
2.692253e+003;4.292075e-002
2.694182e+003;4.305182e-002
2.696110e+003;4.286435e-002
2.698039e+003;4.290498e-002
2.699967e+003;4.319705e-002
2.701896e+003;4.341143e-002
2.703824e+003;4.356291e-002
2.705753e+003;4.401120e-002
2.707681e+003;4.435344e-002
2.709610e+003;4.421622e-002
2.711539e+003;4.440045e-002
2.713467e+003;4.469324e-002
2.715396e+003;4.509796e-002
2.717324e+003;4.542249e-002
2.719253e+003;4.562210e-002
2.721181e+003;4.580414e-002
2.723110e+003;4.615119e-002
2.725038e+003;4.630071e-002
2.726967e+003;4.659132e-002
2.728896e+003;4.711686e-002
2.730824e+003;4.748366e-002
2.732752e+003;4.799867e-002
2.734681e+003;4.840904e-002
2.736610e+003;4.836930e-002
2.738538e+003;4.827890e-002
2.740467e+003;4.826583e-002
2.742395e+003;4.862204e-002
2.744324e+003;4.891190e-002
2.746252e+003;4.892362e-002
2.748181e+003;4.888754e-002
2.750109e+003;4.906572e-002
2.752038e+003;4.921703e-002
2.753967e+003;4.931438e-002
2.755895e+003;4.958546e-002
2.757824e+003;4.984538e-002
2.759752e+003;4.965251e-002
2.761681e+003;4.962472e-002
2.763609e+003;5.004652e-002
2.765538e+003;5.043088e-002
2.767466e+003;5.044975e-002
2.769395e+003;5.031178e-002
2.771323e+003;5.042887e-002
2.773252e+003;5.066927e-002
2.775181e+003;5.104073e-002
2.777109e+003;5.159101e-002
2.779038e+003;5.205705e-002
2.780966e+003;5.221299e-002
2.782895e+003;5.226807e-002
2.784823e+003;5.263948e-002
2.786752e+003;5.298841e-002
2.788680e+003;5.322520e-002
2.790609e+003;5.363207e-002
2.792538e+003;5.398499e-002
2.794466e+003;5.436354e-002
2.796395e+003;5.467575e-002
2.798323e+003;5.487403e-002
2.800252e+003;5.514729e-002
2.802180e+003;5.549752e-002
2.804109e+003;5.606091e-002
2.806037e+003;5.668601e-002
2.807966e+003;5.713872e-002
2.809895e+003;5.766489e-002
2.811823e+003;5.833046e-002
2.813751e+003;5.906507e-002
2.815680e+003;5.962855e-002
2.817609e+003;6.018253e-002
2.819537e+003;6.098861e-002
2.821466e+003;6.158533e-002
2.823394e+003;6.214861e-002
2.825323e+003;6.267687e-002
2.827251e+003;6.311376e-002
2.829180e+003;6.398996e-002
2.831108e+003;6.516287e-002
2.833037e+003;6.638238e-002
2.834966e+003;6.755880e-002
2.836894e+003;6.949338e-002
2.838823e+003;7.234872e-002
2.840751e+003;7.576639e-002
2.842680e+003;8.002216e-002
2.844608e+003;8.489197e-002
2.846537e+003;9.029185e-002
2.848465e+003;9.600234e-002
2.850394e+003;1.012942e-001
2.852323e+003;1.056508e-001
2.854251e+003;1.090764e-001
2.856180e+003;1.117896e-001
2.858108e+003;1.136727e-001
2.860037e+003;1.147806e-001
2.861965e+003;1.145639e-001
2.863894e+003;1.134370e-001
2.865822e+003;1.121621e-001
2.867751e+003;1.105097e-001
2.869679e+003;1.081021e-001
2.871608e+003;1.051677e-001
2.873536e+003;1.023659e-001
2.875465e+003;9.922866e-002
2.877394e+003;9.582143e-002
2.879322e+003;9.307069e-002
2.881251e+003;9.108997e-002
2.883179e+003;8.956796e-002
2.885108e+003;8.880145e-002
2.887036e+003;8.919615e-002
2.888965e+003;9.044619e-002
2.890893e+003;9.203226e-002
2.892822e+003;9.398425e-002
2.894750e+003;9.602880e-002
2.896679e+003;9.824160e-002
2.898608e+003;1.003499e-001
2.900536e+003;1.020227e-001
2.902465e+003;1.033447e-001
2.904393e+003;1.045698e-001
2.906322e+003;1.062123e-001
2.908250e+003;1.084381e-001
2.910179e+003;1.108600e-001
2.912107e+003;1.133497e-001
2.914036e+003;1.163916e-001
2.915965e+003;1.198820e-001
2.917893e+003;1.236708e-001
2.919822e+003;1.278249e-001
2.921750e+003;1.315612e-001
2.923679e+003;1.347423e-001
2.925607e+003;1.380665e-001
2.927536e+003;1.412385e-001
2.929464e+003;1.434996e-001
2.931393e+003;1.452033e-001
2.933322e+003;1.465149e-001
2.935250e+003;1.460404e-001
2.937178e+003;1.437607e-001
2.939107e+003;1.409848e-001
2.941036e+003;1.376787e-001
2.942964e+003;1.337572e-001
2.944893e+003;1.296069e-001
2.946821e+003;1.244898e-001
2.948750e+003;1.181505e-001
2.950678e+003;1.110623e-001
2.952607e+003;1.039336e-001
2.954535e+003;9.760273e-002
2.956464e+003;9.163588e-002
2.958393e+003;8.622296e-002
2.960321e+003;8.174373e-002
2.962250e+003;7.806329e-002
2.964178e+003;7.485051e-002
2.966107e+003;7.162777e-002
2.968035e+003;6.872773e-002
2.969964e+003;6.641732e-002
2.971892e+003;6.437445e-002
2.973821e+003;6.226359e-002
2.975750e+003;6.004942e-002
2.977678e+003;5.798987e-002
2.979607e+003;5.641427e-002
2.981535e+003;5.492817e-002
2.983464e+003;5.381397e-002
2.985392e+003;5.291763e-002
2.987321e+003;5.204887e-002
2.989249e+003;5.104263e-002
2.991178e+003;5.044510e-002
2.993106e+003;5.034764e-002
2.995035e+003;5.004057e-002
2.996964e+003;5.006448e-002
2.998892e+003;4.992864e-002
3.000821e+003;4.936920e-002
3.002749e+003;4.947658e-002
3.004678e+003;4.984516e-002
3.006606e+003;4.971317e-002
3.008535e+003;4.952652e-002
3.010463e+003;4.973762e-002
3.012392e+003;4.993957e-002
3.014321e+003;5.025918e-002
3.016249e+003;5.051239e-002
3.018177e+003;5.059987e-002
3.020106e+003;5.106368e-002
3.022035e+003;5.122885e-002
3.023963e+003;5.138502e-002
3.025892e+003;5.175157e-002
3.027820e+003;5.211928e-002
3.029749e+003;5.289562e-002
3.031677e+003;5.386906e-002
3.033606e+003;5.447076e-002
3.035534e+003;5.465271e-002
3.037463e+003;5.514879e-002
3.039392e+003;5.594237e-002
3.041320e+003;5.656310e-002
3.043249e+003;5.705729e-002
3.045177e+003;5.770111e-002
3.047106e+003;5.874491e-002
3.049034e+003;5.979378e-002
3.050963e+003;6.048075e-002
3.052891e+003;6.128749e-002
3.054820e+003;6.225292e-002
3.056749e+003;6.277920e-002
3.058677e+003;6.278938e-002
3.060606e+003;6.336853e-002
3.062534e+003;6.429653e-002
3.064463e+003;6.470852e-002
3.066391e+003;6.503326e-002
3.068320e+003;6.525200e-002
3.070248e+003;6.526590e-002
3.072177e+003;6.533526e-002
3.074105e+003;6.549816e-002
3.076034e+003;6.526832e-002
3.077963e+003;6.524129e-002
3.079891e+003;6.530356e-002
3.081820e+003;6.496596e-002
3.083748e+003;6.459766e-002
3.085677e+003;6.428020e-002
3.087605e+003;6.402125e-002
3.089534e+003;6.361137e-002
3.091462e+003;6.327707e-002
3.093391e+003;6.287673e-002
3.095320e+003;6.230936e-002
3.097248e+003;6.183748e-002
3.099177e+003;6.087419e-002
3.101105e+003;5.988140e-002
3.103034e+003;5.917665e-002
3.104962e+003;5.871112e-002
3.106891e+003;5.816469e-002
3.108819e+003;5.758620e-002
3.110748e+003;5.705997e-002
3.112677e+003;5.648992e-002
3.114605e+003;5.596140e-002
3.116533e+003;5.556854e-002
3.118462e+003;5.517945e-002
3.120391e+003;5.467413e-002
3.122319e+003;5.440594e-002
3.124248e+003;5.429167e-002
3.126176e+003;5.418783e-002
3.128105e+003;5.419849e-002
3.130033e+003;5.396641e-002
3.131962e+003;5.365831e-002
3.133890e+003;5.366019e-002
3.135819e+003;5.359537e-002
3.137748e+003;5.377512e-002
3.139676e+003;5.411832e-002
3.141605e+003;5.394585e-002
3.143533e+003;5.352389e-002
3.145462e+003;5.386820e-002
3.147390e+003;5.467507e-002
3.149319e+003;5.495821e-002
3.151247e+003;5.488346e-002
3.153176e+003;5.487530e-002
3.155104e+003;5.506115e-002
3.157033e+003;5.558006e-002
3.158962e+003;5.592220e-002
3.160890e+003;5.644513e-002
3.162819e+003;5.698244e-002
3.164747e+003;5.727056e-002
3.166676e+003;5.744560e-002
3.168604e+003;5.772484e-002
3.170533e+003;5.847279e-002
3.172461e+003;5.939125e-002
3.174390e+003;6.024918e-002
3.176319e+003;6.065452e-002
3.178247e+003;6.124991e-002
3.180176e+003;6.207211e-002
3.182104e+003;6.290621e-002
3.184033e+003;6.371154e-002
3.185961e+003;6.423187e-002
3.187890e+003;6.464907e-002
3.189818e+003;6.508903e-002
3.191747e+003;6.565214e-002
3.193676e+003;6.602535e-002
3.195604e+003;6.618199e-002
3.197532e+003;6.649802e-002
3.199461e+003;6.706084e-002
3.201390e+003;6.737214e-002
3.203318e+003;6.758443e-002
3.205247e+003;6.825999e-002
3.207175e+003;6.883790e-002
3.209104e+003;6.918588e-002
3.211032e+003;6.931230e-002
3.212961e+003;6.956940e-002
3.214889e+003;7.015841e-002
3.216818e+003;7.105757e-002
3.218747e+003;7.165892e-002
3.220675e+003;7.240501e-002
3.222604e+003;7.336937e-002
3.224532e+003;7.426404e-002
3.226461e+003;7.509836e-002
3.228389e+003;7.564779e-002
3.230318e+003;7.658306e-002
3.232246e+003;7.802185e-002
3.234175e+003;7.951798e-002
3.236104e+003;8.124151e-002
3.238032e+003;8.291014e-002
3.239961e+003;8.436578e-002
3.241889e+003;8.593298e-002
3.243818e+003;8.772974e-002
3.245746e+003;8.971206e-002
3.247675e+003;9.171076e-002
3.249603e+003;9.367837e-002
3.251532e+003;9.623394e-002
3.253460e+003;9.885053e-002
3.255389e+003;1.009353e-001
3.257318e+003;1.031565e-001
3.259246e+003;1.056064e-001
3.261175e+003;1.078765e-001
3.263103e+003;1.104781e-001
3.265032e+003;1.130381e-001
3.266960e+003;1.157057e-001
3.268889e+003;1.183555e-001
3.270817e+003;1.207094e-001
3.272746e+003;1.231682e-001
3.274675e+003;1.264127e-001
3.276603e+003;1.293002e-001
3.278531e+003;1.318238e-001
3.280460e+003;1.344326e-001
3.282389e+003;1.368551e-001
3.284317e+003;1.393209e-001
3.286246e+003;1.411171e-001
3.288174e+003;1.428514e-001
3.290103e+003;1.443165e-001
3.292031e+003;1.444893e-001
3.293960e+003;1.439705e-001
3.295888e+003;1.428730e-001
3.297817e+003;1.412050e-001
3.299746e+003;1.388554e-001
3.301674e+003;1.357462e-001
3.303603e+003;1.320458e-001
3.305531e+003;1.282208e-001
3.307460e+003;1.248014e-001
3.309388e+003;1.213338e-001
3.311317e+003;1.177884e-001
3.313245e+003;1.144224e-001
3.315174e+003;1.112171e-001
3.317103e+003;1.080543e-001
3.319031e+003;1.045671e-001
3.320960e+003;1.012805e-001
3.322888e+003;9.822547e-002
3.324817e+003;9.513905e-002
3.326745e+003;9.212168e-002
3.328674e+003;8.940151e-002
3.330602e+003;8.672790e-002
3.332531e+003;8.426061e-002
3.334459e+003;8.185177e-002
3.336388e+003;7.954770e-002
3.338317e+003;7.760563e-002
3.340245e+003;7.563040e-002
3.342174e+003;7.340162e-002
3.344102e+003;7.147326e-002
3.346031e+003;6.977075e-002
3.347959e+003;6.810907e-002
3.349888e+003;6.635825e-002
3.351816e+003;6.508649e-002
3.353745e+003;6.400336e-002
3.355674e+003;6.243858e-002
3.357602e+003;6.066329e-002
3.359531e+003;5.925564e-002
3.361459e+003;5.834479e-002
3.363388e+003;5.748799e-002
3.365316e+003;5.648845e-002
3.367245e+003;5.537288e-002
3.369173e+003;5.429186e-002
3.371102e+003;5.353199e-002
3.373031e+003;5.273363e-002
3.374959e+003;5.198376e-002
3.376887e+003;5.163116e-002
3.378816e+003;5.132889e-002
3.380745e+003;5.078616e-002
3.382673e+003;5.024482e-002
3.384602e+003;4.994525e-002
3.386530e+003;4.936913e-002
3.388459e+003;4.849743e-002
3.390387e+003;4.816819e-002
3.392316e+003;4.785792e-002
3.394244e+003;4.716757e-002
3.396173e+003;4.657147e-002
3.398102e+003;4.633912e-002
3.400030e+003;4.632818e-002
3.401959e+003;4.611025e-002
3.403887e+003;4.583131e-002
3.405816e+003;4.578617e-002
3.407744e+003;4.565913e-002
3.409673e+003;4.532865e-002
3.411601e+003;4.508620e-002
3.413530e+003;4.475054e-002
3.415458e+003;4.428864e-002
3.417387e+003;4.399924e-002
3.419316e+003;4.392537e-002
3.421244e+003;4.404156e-002
3.423173e+003;4.399752e-002
3.425101e+003;4.370674e-002
3.427030e+003;4.352031e-002
3.428958e+003;4.343941e-002
3.430887e+003;4.319296e-002
3.432815e+003;4.316474e-002
3.434744e+003;4.309499e-002
3.436673e+003;4.294258e-002
3.438601e+003;4.306005e-002
3.440530e+003;4.314318e-002
3.442458e+003;4.280024e-002
3.444387e+003;4.247252e-002
3.446315e+003;4.232146e-002
3.448244e+003;4.224031e-002
3.450172e+003;4.241191e-002
3.452101e+003;4.244161e-002
3.454030e+003;4.210306e-002
3.455958e+003;4.198610e-002
3.457886e+003;4.154941e-002
3.459815e+003;4.102677e-002
3.461744e+003;4.082857e-002
3.463672e+003;4.046097e-002
3.465601e+003;3.984989e-002
3.467529e+003;3.999402e-002
3.469458e+003;4.017193e-002
3.471386e+003;3.998331e-002
3.473315e+003;3.974639e-002
3.475243e+003;3.965526e-002
3.477172e+003;3.985813e-002
3.479101e+003;4.016459e-002
3.481029e+003;4.014831e-002
3.482958e+003;3.983623e-002
3.484886e+003;3.936154e-002
3.486815e+003;3.933796e-002
3.488743e+003;3.943893e-002
3.490672e+003;3.920779e-002
3.492600e+003;3.907105e-002
3.494529e+003;3.922291e-002
3.496458e+003;3.920619e-002
3.498386e+003;3.912514e-002
3.500315e+003;3.914734e-002
3.502243e+003;3.938494e-002
3.504172e+003;3.928914e-002
3.506100e+003;3.871248e-002
3.508029e+003;3.826723e-002
3.509957e+003;3.787154e-002
3.511886e+003;3.791850e-002
3.513814e+003;3.836158e-002
3.515743e+003;3.827599e-002
3.517672e+003;3.798467e-002
3.519600e+003;3.773551e-002
3.521529e+003;3.710681e-002
3.523457e+003;3.670204e-002
3.525386e+003;3.688773e-002
3.527314e+003;3.722946e-002
3.529243e+003;3.711984e-002
3.531171e+003;3.700852e-002
3.533100e+003;3.667907e-002
3.535029e+003;3.619683e-002
3.536957e+003;3.619524e-002
3.538885e+003;3.605226e-002
3.540814e+003;3.550832e-002
3.542743e+003;3.519841e-002
3.544671e+003;3.523675e-002
3.546600e+003;3.500665e-002
3.548528e+003;3.482733e-002
3.550457e+003;3.464151e-002
3.552385e+003;3.426789e-002
3.554314e+003;3.397370e-002
3.556242e+003;3.360216e-002
3.558171e+003;3.333864e-002
3.560100e+003;3.339904e-002
3.562028e+003;3.320135e-002
3.563957e+003;3.276893e-002
3.565885e+003;3.194597e-002
3.567814e+003;3.149183e-002
3.569742e+003;3.198963e-002
3.571671e+003;3.182025e-002
3.573599e+003;3.126491e-002
3.575528e+003;3.122689e-002
3.577457e+003;3.118459e-002
3.579385e+003;3.099677e-002
3.581314e+003;3.072331e-002
3.583242e+003;3.034348e-002
3.585171e+003;2.971815e-002
3.587099e+003;2.915678e-002
3.589028e+003;2.944677e-002
3.590956e+003;2.951532e-002
3.592885e+003;2.890619e-002
3.594813e+003;2.859083e-002
3.596742e+003;2.868019e-002
3.598671e+003;2.864682e-002
3.600599e+003;2.843950e-002
3.602528e+003;2.839227e-002
3.604456e+003;2.821675e-002
3.606385e+003;2.739937e-002
3.608313e+003;2.653030e-002
3.610242e+003;2.659092e-002
3.612170e+003;2.669819e-002
3.614099e+003;2.677307e-002
3.616028e+003;2.615236e-002
3.617956e+003;2.533593e-002
3.619885e+003;2.557857e-002
3.621813e+003;2.615085e-002
3.623742e+003;2.632106e-002
3.625670e+003;2.591665e-002
3.627599e+003;2.448931e-002
3.629527e+003;2.408498e-002
3.631456e+003;2.485829e-002
3.633385e+003;2.494528e-002
3.635313e+003;2.477304e-002
3.637241e+003;2.457706e-002
3.639170e+003;2.447339e-002
3.641099e+003;2.463169e-002
3.643027e+003;2.450519e-002
3.644956e+003;2.373982e-002
3.646884e+003;2.242430e-002
3.648813e+003;2.178678e-002
3.650741e+003;2.225153e-002
3.652670e+003;2.289407e-002
3.654598e+003;2.286375e-002
3.656527e+003;2.275173e-002
3.658456e+003;2.290863e-002
3.660384e+003;2.263456e-002
3.662313e+003;2.255861e-002
3.664241e+003;2.277963e-002
3.666170e+003;2.260081e-002
3.668098e+003;2.184071e-002
3.670027e+003;2.132106e-002
3.671955e+003;2.155272e-002
3.673884e+003;2.075712e-002
3.675813e+003;2.029917e-002
3.677741e+003;2.120779e-002
3.679669e+003;2.154088e-002
3.681598e+003;2.159440e-002
3.683527e+003;2.135325e-002
3.685455e+003;2.074881e-002
3.687384e+003;1.978119e-002
3.689312e+003;1.983050e-002
3.691241e+003;2.058456e-002
3.693169e+003;2.071472e-002
3.695098e+003;2.028029e-002
3.697026e+003;2.005062e-002
3.698955e+003;1.982676e-002
3.700884e+003;1.947686e-002
3.702812e+003;1.963765e-002
3.704741e+003;1.968365e-002
3.706669e+003;1.963591e-002
3.708598e+003;1.937720e-002
3.710526e+003;1.887876e-002
3.712455e+003;1.909396e-002
3.714383e+003;1.964160e-002
3.716312e+003;1.995156e-002
3.718240e+003;1.992832e-002
3.720169e+003;1.956683e-002
3.722098e+003;1.914863e-002
3.724026e+003;1.906716e-002
3.725955e+003;1.938247e-002
3.727883e+003;1.968046e-002
3.729812e+003;1.947530e-002
3.731740e+003;1.885762e-002
3.733669e+003;1.865730e-002
3.735597e+003;1.848858e-002
3.737526e+003;1.885859e-002
3.739455e+003;1.926878e-002
3.741383e+003;1.892403e-002
3.743312e+003;1.768076e-002
3.745240e+003;1.812770e-002
3.747169e+003;1.882364e-002
3.749097e+003;1.809312e-002
3.751026e+003;1.790307e-002
3.752954e+003;1.857928e-002
3.754883e+003;1.923466e-002
3.756812e+003;1.927456e-002
3.758740e+003;1.922531e-002
3.760668e+003;1.940295e-002
3.762597e+003;1.982853e-002
3.764526e+003;2.000815e-002
3.766454e+003;2.014102e-002
3.768383e+003;1.977793e-002
3.770311e+003;1.973035e-002
3.772240e+003;1.991618e-002
3.774168e+003;2.030219e-002
3.776097e+003;2.044401e-002
3.778025e+003;2.010930e-002
3.779954e+003;2.000690e-002
3.781883e+003;2.002817e-002
3.783811e+003;1.983054e-002
3.785740e+003;1.966049e-002
3.787668e+003;1.982371e-002
3.789597e+003;2.026397e-002
3.791525e+003;2.015865e-002
3.793454e+003;1.964496e-002
3.795382e+003;1.904740e-002
3.797311e+003;1.897349e-002
3.799240e+003;1.885575e-002
3.801168e+003;1.869466e-002
3.803097e+003;1.962440e-002
3.805025e+003;1.988010e-002
3.806954e+003;1.944096e-002
3.808882e+003;1.954912e-002
3.810811e+003;1.979312e-002
3.812739e+003;1.988590e-002
3.814668e+003;1.943347e-002
3.816596e+003;1.977880e-002
3.818525e+003;2.007782e-002
3.820454e+003;1.933857e-002
3.822382e+003;1.990112e-002
3.824311e+003;2.060280e-002
3.826239e+003;2.035289e-002
3.828168e+003;2.040911e-002
3.830096e+003;2.038487e-002
3.832025e+003;2.028181e-002
3.833953e+003;2.002411e-002
3.835882e+003;1.921145e-002
3.837811e+003;1.909348e-002
3.839739e+003;2.018572e-002
3.841667e+003;2.078409e-002
3.843596e+003;2.087541e-002
3.845525e+003;2.107133e-002
3.847453e+003;2.092847e-002
3.849382e+003;2.003014e-002
3.851310e+003;1.903303e-002
3.853239e+003;1.834570e-002
3.855167e+003;1.971669e-002
3.857096e+003;2.112580e-002
3.859024e+003;2.113275e-002
3.860953e+003;2.115958e-002
3.862882e+003;2.085960e-002
3.864810e+003;2.033198e-002
3.866739e+003;2.044540e-002
3.868667e+003;2.006748e-002
3.870596e+003;2.003046e-002
3.872524e+003;2.060308e-002
3.874453e+003;2.075424e-002
3.876381e+003;2.076008e-002
3.878310e+003;2.063497e-002
3.880239e+003;2.066200e-002
3.882167e+003;2.099252e-002
3.884096e+003;2.116392e-002
3.886024e+003;2.128007e-002
3.887953e+003;2.153507e-002
3.889881e+003;2.133870e-002
3.891810e+003;2.141688e-002
3.893738e+003;2.187461e-002
3.895667e+003;2.175873e-002
3.897595e+003;2.120132e-002
3.899524e+003;2.103988e-002
3.901453e+003;2.135548e-002
3.903381e+003;2.121458e-002
3.905310e+003;2.135864e-002
3.907238e+003;2.206554e-002
3.909167e+003;2.238498e-002
3.911095e+003;2.232261e-002
3.913024e+003;2.228211e-002
3.914952e+003;2.182872e-002
3.916881e+003;2.151369e-002
3.918810e+003;2.168098e-002
3.920738e+003;2.173236e-002
3.922667e+003;2.167252e-002
3.924595e+003;2.171839e-002
3.926524e+003;2.210113e-002
3.928452e+003;2.272352e-002
3.930381e+003;2.274747e-002
3.932309e+003;2.273668e-002
3.934238e+003;2.327239e-002
3.936167e+003;2.331662e-002
3.938095e+003;2.275717e-002
3.940023e+003;2.278734e-002
3.941952e+003;2.316229e-002
3.943881e+003;2.318669e-002
3.945809e+003;2.316774e-002
3.947738e+003;2.327792e-002
3.949666e+003;2.302999e-002
3.951595e+003;2.332557e-002
3.953523e+003;2.400577e-002
3.955452e+003;2.363968e-002
3.957380e+003;2.355866e-002
3.959309e+003;2.422205e-002
3.961238e+003;2.427272e-002
3.963166e+003;2.375648e-002
3.965095e+003;2.381483e-002
3.967023e+003;2.412295e-002
3.968952e+003;2.431203e-002
3.970880e+003;2.452261e-002
3.972809e+003;2.437020e-002
3.974737e+003;2.420107e-002
3.976666e+003;2.437297e-002
3.978594e+003;2.410067e-002
3.980523e+003;2.436144e-002
3.982452e+003;2.498848e-002
3.984380e+003;2.477788e-002
3.986309e+003;2.464590e-002
3.988237e+003;2.473754e-002
3.990166e+003;2.482443e-002
3.992094e+003;2.508111e-002
3.994023e+003;2.542224e-002
3.995951e+003;2.559611e-002
3.997880e+003;2.560162e-002
3.999809e+003;2.585957e-002
4.001737e+003;0.000000e+000
