3.992094e+002;0.000000e+000
4.011380e+002;0.000000e+000
4.030665e+002;0.000000e+000
4.049951e+002;0.000000e+000
4.069236e+002;0.000000e+000
4.088522e+002;0.000000e+000
4.107807e+002;0.000000e+000
4.127093e+002;0.000000e+000
4.146378e+002;0.000000e+000
4.165664e+002;0.000000e+000
4.184949e+002;0.000000e+000
4.204235e+002;0.000000e+000
4.223520e+002;0.000000e+000
4.242806e+002;0.000000e+000
4.262091e+002;0.000000e+000
4.281377e+002;0.000000e+000
4.300662e+002;0.000000e+000
4.319948e+002;0.000000e+000
4.339233e+002;0.000000e+000
4.358519e+002;0.000000e+000
4.377804e+002;0.000000e+000
4.397090e+002;0.000000e+000
4.416375e+002;0.000000e+000
4.435660e+002;0.000000e+000
4.454946e+002;0.000000e+000
4.474232e+002;0.000000e+000
4.493517e+002;0.000000e+000
4.512802e+002;0.000000e+000
4.532088e+002;0.000000e+000
4.551373e+002;0.000000e+000
4.570659e+002;0.000000e+000
4.589944e+002;0.000000e+000
4.609230e+002;0.000000e+000
4.628515e+002;0.000000e+000
4.647801e+002;0.000000e+000
4.667086e+002;0.000000e+000
4.686372e+002;0.000000e+000
4.705657e+002;0.000000e+000
4.724943e+002;0.000000e+000
4.744228e+002;0.000000e+000
4.763513e+002;0.000000e+000
4.782799e+002;0.000000e+000
4.802085e+002;0.000000e+000
4.821370e+002;0.000000e+000
4.840656e+002;0.000000e+000
4.859941e+002;0.000000e+000
4.879226e+002;0.000000e+000
4.898512e+002;0.000000e+000
4.917798e+002;0.000000e+000
4.937083e+002;0.000000e+000
4.956368e+002;0.000000e+000
4.975654e+002;0.000000e+000
4.994939e+002;0.000000e+000
5.014225e+002;0.000000e+000
5.033510e+002;0.000000e+000
5.052796e+002;0.000000e+000
5.072081e+002;0.000000e+000
5.091367e+002;0.000000e+000
5.110652e+002;0.000000e+000
5.129938e+002;0.000000e+000
5.149223e+002;0.000000e+000
5.168509e+002;0.000000e+000
5.187794e+002;0.000000e+000
5.207079e+002;0.000000e+000
5.226365e+002;0.000000e+000
5.245651e+002;0.000000e+000
5.264936e+002;0.000000e+000
5.284222e+002;0.000000e+000
5.303507e+002;0.000000e+000
5.322792e+002;0.000000e+000
5.342078e+002;0.000000e+000
5.361364e+002;0.000000e+000
5.380649e+002;0.000000e+000
5.399935e+002;0.000000e+000
5.419220e+002;0.000000e+000
5.438505e+002;0.000000e+000
5.457791e+002;0.000000e+000
5.477076e+002;0.000000e+000
5.496362e+002;0.000000e+000
5.515648e+002;0.000000e+000
5.534933e+002;0.000000e+000
5.554218e+002;0.000000e+000
5.573504e+002;0.000000e+000
5.592789e+002;0.000000e+000
5.612075e+002;0.000000e+000
5.631360e+002;0.000000e+000
5.650646e+002;0.000000e+000
5.669931e+002;0.000000e+000
5.689217e+002;0.000000e+000
5.708502e+002;0.000000e+000
5.727787e+002;0.000000e+000
5.747073e+002;0.000000e+000
5.766359e+002;0.000000e+000
5.785644e+002;0.000000e+000
5.804930e+002;0.000000e+000
5.824215e+002;0.000000e+000
5.843500e+002;0.000000e+000
5.862786e+002;0.000000e+000
5.882072e+002;0.000000e+000
5.901357e+002;0.000000e+000
5.920643e+002;0.000000e+000
5.939928e+002;0.000000e+000
5.959213e+002;0.000000e+000
5.978499e+002;0.000000e+000
5.997784e+002;1.374398e-001
6.017070e+002;1.421987e-001
6.036355e+002;1.390899e-001
6.055641e+002;1.394736e-001
6.074926e+002;1.406182e-001
6.094211e+002;1.396492e-001
6.113497e+002;1.426159e-001
6.132783e+002;1.428638e-001
6.152068e+002;1.393766e-001
6.171354e+002;1.408030e-001
6.190639e+002;1.440665e-001
6.209924e+002;1.424961e-001
6.229210e+002;1.413638e-001
6.248495e+002;1.416467e-001
6.267781e+002;1.435146e-001
6.287067e+002;1.441731e-001
6.306352e+002;1.418568e-001
6.325637e+002;1.408603e-001
6.344923e+002;1.431141e-001
6.364208e+002;1.450841e-001
6.383494e+002;1.469194e-001
6.402780e+002;1.459527e-001
6.422065e+002;1.458796e-001
6.441350e+002;1.483650e-001
6.460636e+002;1.512948e-001
6.479921e+002;1.549014e-001
6.499207e+002;1.588116e-001
6.518492e+002;1.595904e-001
6.537778e+002;1.600251e-001
6.557063e+002;1.625621e-001
6.576349e+002;1.656345e-001
6.595634e+002;1.675761e-001
6.614919e+002;1.702831e-001
6.634205e+002;1.743815e-001
6.653491e+002;1.774366e-001
6.672776e+002;1.793855e-001
6.692062e+002;1.796501e-001
6.711347e+002;1.805242e-001
6.730632e+002;1.827631e-001
6.749918e+002;1.838520e-001
6.769203e+002;1.863397e-001
6.788489e+002;1.890319e-001
6.807775e+002;1.897879e-001
6.827060e+002;1.894203e-001
6.846345e+002;1.884321e-001
6.865631e+002;1.863166e-001
6.884916e+002;1.855089e-001
6.904202e+002;1.847908e-001
6.923488e+002;1.833815e-001
6.942773e+002;1.816114e-001
6.962058e+002;1.778740e-001
6.981344e+002;1.738131e-001
7.000629e+002;1.702860e-001
7.019915e+002;1.673804e-001
7.039200e+002;1.656499e-001
7.058486e+002;1.646853e-001
7.077771e+002;1.635540e-001
7.097057e+002;1.622435e-001
7.116342e+002;1.613058e-001
7.135627e+002;1.598111e-001
7.154913e+002;1.565520e-001
7.174199e+002;1.542226e-001
7.193484e+002;1.544788e-001
7.212770e+002;1.542089e-001
7.232055e+002;1.543270e-001
7.251340e+002;1.555312e-001
7.270626e+002;1.562568e-001
7.289911e+002;1.546535e-001
7.309197e+002;1.495756e-001
7.328483e+002;1.432873e-001
7.347768e+002;1.365673e-001
7.367053e+002;1.294444e-001
7.386339e+002;1.240860e-001
7.405624e+002;1.206054e-001
7.424910e+002;1.177120e-001
7.444196e+002;1.140129e-001
7.463481e+002;1.109038e-001
7.482766e+002;1.089571e-001
7.502052e+002;1.067292e-001
7.521337e+002;1.053065e-001
7.540623e+002;1.043668e-001
7.559908e+002;1.024082e-001
7.579194e+002;1.001358e-001
7.598479e+002;9.869808e-002
7.617765e+002;9.774202e-002
7.637050e+002;9.685460e-002
7.656335e+002;9.567831e-002
7.675621e+002;9.443311e-002
7.694907e+002;9.315937e-002
7.714192e+002;9.211139e-002
7.733478e+002;9.146900e-002
7.752763e+002;9.049390e-002
7.772048e+002;8.923318e-002
7.791334e+002;8.819252e-002
7.810620e+002;8.745287e-002
7.829905e+002;8.596146e-002
7.849191e+002;8.352192e-002
7.868476e+002;8.158801e-002
7.887761e+002;8.024749e-002
7.907047e+002;7.845660e-002
7.926332e+002;7.716634e-002
7.945618e+002;7.613694e-002
7.964903e+002;7.538658e-002
7.984189e+002;7.494855e-002
8.003474e+002;7.360761e-002
8.022759e+002;7.247536e-002
8.042045e+002;7.175182e-002
8.061331e+002;7.050020e-002
8.080616e+002;6.958418e-002
8.099902e+002;6.934347e-002
8.119187e+002;6.865236e-002
8.138472e+002;6.739706e-002
8.157758e+002;6.620379e-002
8.177043e+002;6.578220e-002
8.196329e+002;6.603745e-002
8.215615e+002;6.629742e-002
8.234900e+002;6.624940e-002
8.254185e+002;6.655371e-002
8.273471e+002;6.801780e-002
8.292756e+002;6.960612e-002
8.312042e+002;7.027409e-002
8.331328e+002;7.040355e-002
8.350613e+002;6.933527e-002
8.369898e+002;6.693020e-002
8.389184e+002;6.508334e-002
8.408469e+002;6.344234e-002
8.427755e+002;6.119036e-002
8.447040e+002;5.976340e-002
8.466326e+002;5.905983e-002
8.485611e+002;5.894145e-002
8.504897e+002;5.905885e-002
8.524182e+002;5.866985e-002
8.543467e+002;5.822342e-002
8.562753e+002;5.799634e-002
8.582039e+002;5.807905e-002
8.601324e+002;5.794583e-002
8.620610e+002;5.686458e-002
8.639895e+002;5.652373e-002
8.659180e+002;5.711234e-002
8.678466e+002;5.763735e-002
8.697751e+002;5.744802e-002
8.717037e+002;5.756055e-002
8.736323e+002;5.813454e-002
8.755608e+002;5.844447e-002
8.774893e+002;5.836286e-002
8.794179e+002;5.817080e-002
8.813464e+002;5.811666e-002
8.832750e+002;5.860966e-002
8.852036e+002;5.932678e-002
8.871321e+002;5.984337e-002
8.890606e+002;5.975074e-002
8.909892e+002;5.921573e-002
8.929177e+002;5.928473e-002
8.948463e+002;5.979583e-002
8.967748e+002;6.031355e-002
8.987034e+002;6.031911e-002
9.006319e+002;6.024202e-002
9.025605e+002;6.077349e-002
9.044890e+002;6.136042e-002
9.064175e+002;6.183580e-002
9.083461e+002;6.217392e-002
9.102747e+002;6.253254e-002
9.122032e+002;6.297876e-002
9.141318e+002;6.344963e-002
9.160603e+002;6.379795e-002
9.179888e+002;6.433234e-002
9.199174e+002;6.543659e-002
9.218459e+002;6.660489e-002
9.237745e+002;6.770623e-002
9.257031e+002;6.904388e-002
9.276316e+002;7.038921e-002
9.295601e+002;7.056194e-002
9.314887e+002;6.991489e-002
9.334172e+002;6.891782e-002
9.353458e+002;6.767471e-002
9.372744e+002;6.692243e-002
9.392029e+002;6.724531e-002
9.411314e+002;6.798157e-002
9.430600e+002;6.866059e-002
9.449885e+002;6.936026e-002
9.469171e+002;7.047778e-002
9.488456e+002;7.233126e-002
9.507742e+002;7.405844e-002
9.527027e+002;7.492134e-002
9.546313e+002;7.525858e-002
9.565598e+002;7.580553e-002
9.584883e+002;7.661175e-002
9.604169e+002;7.697958e-002
9.623455e+002;7.657646e-002
9.642740e+002;7.595334e-002
9.662026e+002;7.545044e-002
9.681311e+002;7.518179e-002
9.700596e+002;7.518416e-002
9.719882e+002;7.513728e-002
9.739167e+002;7.475298e-002
9.758453e+002;7.392517e-002
9.777739e+002;7.311024e-002
9.797024e+002;7.266055e-002
9.816309e+002;7.216199e-002
9.835595e+002;7.137374e-002
9.854880e+002;7.052089e-002
9.874166e+002;6.981160e-002
9.893452e+002;6.916808e-002
9.912737e+002;6.808117e-002
9.932022e+002;6.733251e-002
9.951307e+002;6.691103e-002
9.970593e+002;6.641223e-002
9.989879e+002;6.604035e-002
1.000916e+003;6.582985e-002
1.002845e+003;6.579439e-002
1.004773e+003;6.584219e-002
1.006702e+003;6.568028e-002
1.008631e+003;6.558636e-002
1.010559e+003;6.530710e-002
1.012488e+003;6.489474e-002
1.014416e+003;6.493309e-002
1.016345e+003;6.503426e-002
1.018273e+003;6.512444e-002
1.020202e+003;6.524657e-002
1.022130e+003;6.574835e-002
1.024059e+003;6.695146e-002
1.025988e+003;6.815520e-002
1.027916e+003;6.905904e-002
1.029845e+003;6.966948e-002
1.031773e+003;6.914672e-002
1.033702e+003;6.830400e-002
1.035630e+003;6.776042e-002
1.037559e+003;6.707189e-002
1.039487e+003;6.653266e-002
1.041416e+003;6.634007e-002
1.043344e+003;6.581605e-002
1.045273e+003;6.540643e-002
1.047202e+003;6.564412e-002
1.049130e+003;6.650238e-002
1.051059e+003;6.765969e-002
1.052987e+003;6.853754e-002
1.054916e+003;6.963754e-002
1.056844e+003;7.126800e-002
1.058773e+003;7.260254e-002
1.060701e+003;7.356196e-002
1.062630e+003;7.461556e-002
1.064558e+003;7.595702e-002
1.066487e+003;7.721870e-002
1.068416e+003;7.817407e-002
1.070344e+003;7.863364e-002
1.072273e+003;7.893825e-002
1.074201e+003;7.914975e-002
1.076130e+003;7.843302e-002
1.078058e+003;7.729087e-002
1.079987e+003;7.643285e-002
1.081915e+003;7.580549e-002
1.083844e+003;7.542864e-002
1.085773e+003;7.513889e-002
1.087701e+003;7.483595e-002
1.089630e+003;7.405938e-002
1.091558e+003;7.378955e-002
1.093487e+003;7.410277e-002
1.095415e+003;7.455529e-002
1.097344e+003;7.576225e-002
1.099272e+003;7.655986e-002
1.101201e+003;7.755314e-002
1.103129e+003;7.917344e-002
1.105058e+003;8.087420e-002
1.106987e+003;8.311464e-002
1.108915e+003;8.491546e-002
1.110844e+003;8.573362e-002
1.112772e+003;8.642870e-002
1.114701e+003;8.742288e-002
1.116629e+003;8.770894e-002
1.118558e+003;8.718438e-002
1.120486e+003;8.602568e-002
1.122415e+003;8.422799e-002
1.124344e+003;8.193719e-002
1.126272e+003;7.972515e-002
1.128201e+003;7.731300e-002
1.130129e+003;7.484245e-002
1.132058e+003;7.309934e-002
1.133986e+003;7.204882e-002
1.135915e+003;7.144286e-002
1.137843e+003;7.182945e-002
1.139772e+003;7.265009e-002
1.141700e+003;7.376697e-002
1.143629e+003;7.577397e-002
1.145557e+003;7.776928e-002
1.147486e+003;7.948273e-002
1.149415e+003;8.191091e-002
1.151343e+003;8.483255e-002
1.153272e+003;8.812635e-002
1.155200e+003;9.169926e-002
1.157129e+003;9.575104e-002
1.159057e+003;1.009612e-001
1.160986e+003;1.069310e-001
1.162914e+003;1.128239e-001
1.164843e+003;1.189059e-001
1.166771e+003;1.241464e-001
1.168700e+003;1.265616e-001
1.170629e+003;1.256281e-001
1.172557e+003;1.220995e-001
1.174486e+003;1.173816e-001
1.176414e+003;1.121594e-001
1.178343e+003;1.070380e-001
1.180271e+003;1.029339e-001
1.182200e+003;1.010200e-001
1.184128e+003;1.014849e-001
1.186057e+003;1.037255e-001
1.187986e+003;1.067042e-001
1.189914e+003;1.097894e-001
1.191843e+003;1.137334e-001
1.193771e+003;1.185256e-001
1.195700e+003;1.236349e-001
1.197628e+003;1.287408e-001
1.199557e+003;1.316812e-001
1.201485e+003;1.307189e-001
1.203414e+003;1.274710e-001
1.205343e+003;1.243818e-001
1.207271e+003;1.223740e-001
1.209200e+003;1.214492e-001
1.211128e+003;1.208146e-001
1.213057e+003;1.197168e-001
1.214985e+003;1.173980e-001
1.216914e+003;1.142354e-001
1.218842e+003;1.112834e-001
1.220771e+003;1.095175e-001
1.222699e+003;1.093503e-001
1.224628e+003;1.110494e-001
1.226557e+003;1.143586e-001
1.228485e+003;1.187551e-001
1.230414e+003;1.237524e-001
1.232342e+003;1.282562e-001
1.234271e+003;1.316487e-001
1.236199e+003;1.339285e-001
1.238128e+003;1.347788e-001
1.240056e+003;1.346629e-001
1.241985e+003;1.341172e-001
1.243913e+003;1.343691e-001
1.245842e+003;1.351197e-001
1.247771e+003;1.362766e-001
1.249699e+003;1.382309e-001
1.251628e+003;1.406085e-001
1.253556e+003;1.435905e-001
1.255485e+003;1.470793e-001
1.257413e+003;1.500782e-001
1.259342e+003;1.521694e-001
1.261270e+003;1.533268e-001
1.263199e+003;1.525302e-001
1.265127e+003;1.488102e-001
1.267056e+003;1.430040e-001
1.268985e+003;1.369462e-001
1.270913e+003;1.324578e-001
1.272842e+003;1.300546e-001
1.274770e+003;1.289789e-001
1.276699e+003;1.284350e-001
1.278627e+003;1.279574e-001
1.280556e+003;1.269642e-001
1.282484e+003;1.252535e-001
1.284413e+003;1.234898e-001
1.286342e+003;1.217894e-001
1.288270e+003;1.202106e-001
1.290199e+003;1.191512e-001
1.292127e+003;1.184191e-001
1.294056e+003;1.175278e-001
1.295984e+003;1.171727e-001
1.297913e+003;1.173565e-001
1.299841e+003;1.169803e-001
1.301770e+003;1.160927e-001
1.303698e+003;1.150715e-001
1.305627e+003;1.140284e-001
1.307556e+003;1.130178e-001
1.309484e+003;1.119289e-001
1.311413e+003;1.108469e-001
1.313341e+003;1.099971e-001
1.315270e+003;1.090668e-001
1.317198e+003;1.078894e-001
1.319127e+003;1.067642e-001
1.321055e+003;1.059771e-001
1.322984e+003;1.053624e-001
1.324912e+003;1.049705e-001
1.326841e+003;1.048689e-001
1.328770e+003;1.050559e-001
1.330698e+003;1.054822e-001
1.332627e+003;1.059897e-001
1.334555e+003;1.063401e-001
1.336484e+003;1.062928e-001
1.338412e+003;1.065566e-001
1.340341e+003;1.074093e-001
1.342269e+003;1.082466e-001
1.344198e+003;1.090604e-001
1.346126e+003;1.099898e-001
1.348055e+003;1.110614e-001
1.349984e+003;1.123757e-001
1.351912e+003;1.138715e-001
1.353841e+003;1.153355e-001
1.355769e+003;1.170834e-001
1.357698e+003;1.192190e-001
1.359626e+003;1.211061e-001
1.361555e+003;1.226494e-001
1.363483e+003;1.241599e-001
1.365412e+003;1.259959e-001
1.367341e+003;1.276700e-001
1.369269e+003;1.292519e-001
1.371198e+003;1.301592e-001
1.373126e+003;1.296231e-001
1.375055e+003;1.280802e-001
1.376983e+003;1.256602e-001
1.378912e+003;1.225416e-001
1.380840e+003;1.192611e-001
1.382769e+003;1.158166e-001
1.384698e+003;1.123169e-001
1.386626e+003;1.091860e-001
1.388555e+003;1.066945e-001
1.390483e+003;1.047639e-001
1.392412e+003;1.033409e-001
1.394340e+003;1.023540e-001
1.396269e+003;1.021763e-001
1.398197e+003;1.030717e-001
1.400126e+003;1.046088e-001
1.402054e+003;1.071026e-001
1.403983e+003;1.104766e-001
1.405911e+003;1.148359e-001
1.407840e+003;1.206243e-001
1.409769e+003;1.272784e-001
1.411697e+003;1.341703e-001
1.413626e+003;1.402709e-001
1.415554e+003;1.442614e-001
1.417483e+003;1.453276e-001
1.419411e+003;1.438411e-001
1.421340e+003;1.407746e-001
1.423268e+003;1.378044e-001
1.425197e+003;1.360531e-001
1.427125e+003;1.361887e-001
1.429054e+003;1.378995e-001
1.430983e+003;1.402838e-001
1.432911e+003;1.425281e-001
1.434840e+003;1.439593e-001
1.436768e+003;1.439102e-001
1.438697e+003;1.431267e-001
1.440625e+003;1.420918e-001
1.442554e+003;1.409641e-001
1.444482e+003;1.401237e-001
1.446411e+003;1.400597e-001
1.448340e+003;1.409288e-001
1.450268e+003;1.429707e-001
1.452197e+003;1.457184e-001
1.454125e+003;1.486000e-001
1.456054e+003;1.517261e-001
1.457982e+003;1.557992e-001
1.459911e+003;1.605936e-001
1.461839e+003;1.638619e-001
1.463768e+003;1.624815e-001
1.465697e+003;1.560231e-001
1.467625e+003;1.484384e-001
1.469554e+003;1.427699e-001
1.471482e+003;1.398372e-001
1.473411e+003;1.396359e-001
1.475339e+003;1.401236e-001
1.477268e+003;1.385296e-001
1.479196e+003;1.343785e-001
1.481125e+003;1.286216e-001
1.483053e+003;1.224219e-001
1.484982e+003;1.172138e-001
1.486911e+003;1.140871e-001
1.488839e+003;1.135195e-001
1.490768e+003;1.150494e-001
1.492696e+003;1.177960e-001
1.494625e+003;1.210198e-001
1.496553e+003;1.248217e-001
1.498482e+003;1.294536e-001
1.500410e+003;1.348713e-001
1.502339e+003;1.408183e-001
1.504267e+003;1.470218e-001
1.506196e+003;1.537060e-001
1.508125e+003;1.610193e-001
1.510053e+003;1.686642e-001
1.511982e+003;1.765218e-001
1.513910e+003;1.850872e-001
1.515839e+003;1.941575e-001
1.517767e+003;2.035079e-001
1.519696e+003;2.131144e-001
1.521624e+003;2.230472e-001
1.523553e+003;2.336044e-001
1.525481e+003;2.442269e-001
1.527410e+003;2.548928e-001
1.529339e+003;2.653435e-001
1.531267e+003;2.752083e-001
1.533196e+003;2.839633e-001
1.535124e+003;2.902677e-001
1.537053e+003;2.940150e-001
1.538981e+003;2.951135e-001
1.540910e+003;2.934371e-001
1.542838e+003;2.887838e-001
1.544767e+003;2.812772e-001
1.546695e+003;2.717082e-001
1.548624e+003;2.604636e-001
1.550553e+003;2.488282e-001
1.552481e+003;2.374025e-001
1.554410e+003;2.260809e-001
1.556338e+003;2.150902e-001
1.558267e+003;2.045300e-001
1.560195e+003;1.946931e-001
1.562124e+003;1.853099e-001
1.564052e+003;1.762138e-001
1.565981e+003;1.672410e-001
1.567910e+003;1.581284e-001
1.569838e+003;1.494384e-001
1.571767e+003;1.418273e-001
1.573695e+003;1.348114e-001
1.575624e+003;1.282058e-001
1.577552e+003;1.225879e-001
1.579481e+003;1.183739e-001
1.581409e+003;1.150556e-001
1.583338e+003;1.124981e-001
1.585266e+003;1.109120e-001
1.587195e+003;1.101318e-001
1.589124e+003;1.099895e-001
1.591052e+003;1.107304e-001
1.592981e+003;1.125728e-001
1.594909e+003;1.152161e-001
1.596838e+003;1.188586e-001
1.598766e+003;1.234386e-001
1.600695e+003;1.289228e-001
1.602623e+003;1.355639e-001
1.604552e+003;1.432959e-001
1.606480e+003;1.520665e-001
1.608409e+003;1.617545e-001
1.610338e+003;1.725383e-001
1.612266e+003;1.845371e-001
1.614195e+003;1.975952e-001
1.616123e+003;2.125870e-001
1.618052e+003;2.301484e-001
1.619980e+003;2.486587e-001
1.621909e+003;2.672353e-001
1.623837e+003;2.859068e-001
1.625766e+003;3.042057e-001
1.627694e+003;3.225049e-001
1.629623e+003;3.407216e-001
1.631552e+003;3.571943e-001
1.633480e+003;3.693307e-001
1.635409e+003;3.749460e-001
1.637337e+003;3.719658e-001
1.639266e+003;3.600837e-001
1.641194e+003;3.411362e-001
1.643123e+003;3.184461e-001
1.645051e+003;2.945306e-001
1.646980e+003;2.717219e-001
1.648909e+003;2.521338e-001
1.650837e+003;2.347333e-001
1.652766e+003;2.185404e-001
1.654694e+003;2.051182e-001
1.656623e+003;1.937885e-001
1.658551e+003;1.831110e-001
1.660480e+003;1.728934e-001
1.662408e+003;1.629720e-001
1.664337e+003;1.536807e-001
1.666266e+003;1.443523e-001
1.668194e+003;1.352006e-001
1.670123e+003;1.265688e-001
1.672051e+003;1.188113e-001
1.673980e+003;1.114013e-001
1.675908e+003;1.037348e-001
1.677837e+003;9.604666e-002
1.679765e+003;8.834205e-002
1.681694e+003;8.060949e-002
1.683622e+003;7.317803e-002
1.685551e+003;6.657994e-002
1.687479e+003;6.148018e-002
1.689408e+003;5.746247e-002
1.691337e+003;5.421797e-002
1.693265e+003;5.180577e-002
1.695194e+003;4.974349e-002
1.697122e+003;4.816142e-002
1.699051e+003;4.709175e-002
1.700979e+003;4.640132e-002
1.702908e+003;4.611165e-002
1.704836e+003;4.557548e-002
1.706765e+003;4.512178e-002
1.708693e+003;4.505800e-002
1.710622e+003;4.500177e-002
1.712551e+003;4.475157e-002
1.714479e+003;4.477122e-002
1.716408e+003;4.484818e-002
1.718336e+003;4.501239e-002
1.720265e+003;4.546737e-002
1.722193e+003;4.558026e-002
1.724122e+003;4.537647e-002
1.726050e+003;4.513608e-002
1.727979e+003;4.463845e-002
1.729908e+003;4.410181e-002
1.731836e+003;4.333981e-002
1.733765e+003;4.263346e-002
1.735693e+003;4.223775e-002
1.737622e+003;4.165607e-002
1.739550e+003;4.085048e-002
1.741479e+003;4.012839e-002
1.743407e+003;3.957617e-002
1.745336e+003;3.925591e-002
1.747265e+003;3.885185e-002
1.749193e+003;3.828561e-002
1.751122e+003;3.800898e-002
1.753050e+003;3.811314e-002
1.754979e+003;3.807187e-002
1.756907e+003;3.770541e-002
1.758836e+003;3.714247e-002
1.760764e+003;3.654750e-002
1.762693e+003;3.608909e-002
1.764621e+003;3.574196e-002
1.766550e+003;3.550699e-002
1.768479e+003;3.528501e-002
1.770407e+003;3.483594e-002
1.772336e+003;3.421573e-002
1.774264e+003;3.390716e-002
1.776193e+003;3.368088e-002
1.778121e+003;3.334859e-002
1.780050e+003;3.307132e-002
1.781978e+003;3.279370e-002
1.783907e+003;3.256621e-002
1.785835e+003;3.234912e-002
1.787764e+003;3.211241e-002
1.789693e+003;3.190218e-002
1.791621e+003;3.156775e-002
1.793550e+003;3.136164e-002
1.795478e+003;3.137502e-002
1.797407e+003;3.129600e-002
1.799335e+003;3.105901e-002
1.801264e+003;3.061439e-002
1.803192e+003;3.028635e-002
1.805121e+003;3.026443e-002
1.807049e+003;3.028181e-002
1.808978e+003;3.042010e-002
1.810907e+003;3.063508e-002
1.812835e+003;3.045638e-002
1.814764e+003;3.013731e-002
1.816692e+003;2.988395e-002
1.818621e+003;2.984622e-002
1.820549e+003;2.985583e-002
1.822478e+003;2.973922e-002
1.824406e+003;2.975831e-002
1.826335e+003;2.988622e-002
1.828264e+003;2.987972e-002
1.830192e+003;2.987901e-002
1.832121e+003;2.980476e-002
1.834049e+003;2.956802e-002
1.835978e+003;2.946259e-002
1.837906e+003;2.945879e-002
1.839835e+003;2.933364e-002
1.841763e+003;2.939908e-002
1.843692e+003;2.928071e-002
1.845620e+003;2.913839e-002
1.847549e+003;2.896466e-002
1.849478e+003;2.877662e-002
1.851406e+003;2.867269e-002
1.853335e+003;2.862480e-002
1.855263e+003;2.859072e-002
1.857192e+003;2.848216e-002
1.859120e+003;2.837770e-002
1.861049e+003;2.832776e-002
1.862977e+003;2.826580e-002
1.864906e+003;2.829331e-002
1.866834e+003;2.822687e-002
1.868763e+003;2.826746e-002
1.870692e+003;2.828479e-002
1.872620e+003;2.815764e-002
1.874549e+003;2.818974e-002
1.876477e+003;2.832917e-002
1.878406e+003;2.825756e-002
1.880334e+003;2.812642e-002
1.882263e+003;2.808962e-002
1.884191e+003;2.812819e-002
1.886120e+003;2.814830e-002
1.888048e+003;2.819381e-002
1.889977e+003;2.828397e-002
1.891906e+003;2.829724e-002
1.893834e+003;2.848627e-002
1.895763e+003;2.882913e-002
1.897691e+003;2.892078e-002
1.899620e+003;2.878101e-002
1.901548e+003;2.875312e-002
1.903477e+003;2.888844e-002
1.905405e+003;2.880831e-002
1.907334e+003;2.861999e-002
1.909262e+003;2.856503e-002
1.911191e+003;2.855955e-002
1.913120e+003;2.852066e-002
1.915048e+003;2.831198e-002
1.916977e+003;2.813717e-002
1.918905e+003;2.811285e-002
1.920834e+003;2.811981e-002
1.922762e+003;2.808931e-002
1.924691e+003;2.824228e-002
1.926619e+003;2.828596e-002
1.928548e+003;2.816379e-002
1.930477e+003;2.791158e-002
1.932405e+003;2.766795e-002
1.934334e+003;2.767812e-002
1.936262e+003;2.779379e-002
1.938191e+003;2.798776e-002
1.940119e+003;2.806325e-002
1.942048e+003;2.782406e-002
1.943976e+003;2.775020e-002
1.945905e+003;2.800720e-002
1.947833e+003;2.825781e-002
1.949762e+003;2.811992e-002
1.951691e+003;2.790451e-002
1.953619e+003;2.811172e-002
1.955548e+003;2.834155e-002
1.957476e+003;2.845124e-002
1.959405e+003;2.848963e-002
1.961333e+003;2.840494e-002
1.963262e+003;2.834095e-002
1.965190e+003;2.853287e-002
1.967119e+003;2.886575e-002
1.969047e+003;2.896133e-002
1.970976e+003;2.866996e-002
1.972905e+003;2.857229e-002
1.974833e+003;2.879627e-002
1.976762e+003;2.895269e-002
1.978690e+003;2.895375e-002
1.980619e+003;2.881221e-002
1.982547e+003;2.879486e-002
1.984476e+003;2.891376e-002
1.986404e+003;2.901542e-002
1.988333e+003;2.897468e-002
1.990261e+003;2.861033e-002
1.992190e+003;2.844792e-002
1.994119e+003;2.870377e-002
1.996047e+003;2.897412e-002
1.997976e+003;2.894401e-002
1.999904e+003;2.876639e-002
2.001833e+003;2.877691e-002
2.003761e+003;2.888749e-002
2.005690e+003;2.885484e-002
2.007618e+003;2.887240e-002
2.009547e+003;2.895081e-002
2.011476e+003;2.903228e-002
2.013404e+003;2.910523e-002
2.015333e+003;2.920473e-002
2.017261e+003;2.945315e-002
2.019190e+003;2.959898e-002
2.021118e+003;2.955114e-002
2.023047e+003;2.973851e-002
2.024975e+003;2.980799e-002
2.026904e+003;2.978447e-002
2.028833e+003;2.974845e-002
2.030761e+003;2.983539e-002
2.032690e+003;3.007182e-002
2.034618e+003;3.018827e-002
2.036547e+003;3.003802e-002
2.038475e+003;3.012122e-002
2.040404e+003;3.029083e-002
2.042332e+003;3.035514e-002
2.044261e+003;3.047647e-002
2.046189e+003;3.048542e-002
2.048118e+003;3.029303e-002
2.050047e+003;3.017741e-002
2.051975e+003;3.009075e-002
2.053904e+003;3.007676e-002
2.055832e+003;3.026749e-002
2.057761e+003;3.042127e-002
2.059689e+003;3.053998e-002
2.061618e+003;3.084043e-002
2.063546e+003;3.093503e-002
2.065475e+003;3.066122e-002
2.067404e+003;3.067125e-002
2.069332e+003;3.089977e-002
2.071260e+003;3.092820e-002
2.073189e+003;3.083424e-002
2.075118e+003;3.087387e-002
2.077046e+003;3.100780e-002
2.078975e+003;3.089646e-002
2.080903e+003;3.061059e-002
2.082832e+003;3.052626e-002
2.084760e+003;3.049996e-002
2.086689e+003;3.036687e-002
2.088617e+003;3.044576e-002
2.090546e+003;3.051155e-002
2.092475e+003;3.028689e-002
2.094403e+003;3.017762e-002
2.096332e+003;3.031542e-002
2.098260e+003;3.021275e-002
2.100189e+003;2.995054e-002
2.102117e+003;2.995423e-002
2.104046e+003;3.025097e-002
2.105974e+003;3.045660e-002
2.107903e+003;3.031900e-002
2.109832e+003;3.043335e-002
2.111760e+003;3.076001e-002
2.113688e+003;3.075051e-002
2.115617e+003;3.062687e-002
2.117546e+003;3.072918e-002
2.119474e+003;3.092542e-002
2.121403e+003;3.098833e-002
2.123331e+003;3.102499e-002
2.125260e+003;3.093379e-002
2.127188e+003;3.090016e-002
2.129117e+003;3.117423e-002
2.131045e+003;3.121393e-002
2.132974e+003;3.119723e-002
2.134903e+003;3.106431e-002
2.136831e+003;3.092201e-002
2.138760e+003;3.102666e-002
2.140688e+003;3.116046e-002
2.142617e+003;3.115604e-002
2.144545e+003;3.114209e-002
2.146474e+003;3.125733e-002
2.148402e+003;3.115803e-002
2.150331e+003;3.113383e-002
2.152260e+003;3.121144e-002
2.154188e+003;3.129785e-002
2.156117e+003;3.138300e-002
2.158045e+003;3.131840e-002
2.159974e+003;3.133300e-002
2.161902e+003;3.127335e-002
2.163831e+003;3.117295e-002
2.165759e+003;3.151673e-002
2.167688e+003;3.184517e-002
2.169616e+003;3.184010e-002
2.171545e+003;3.200547e-002
2.173474e+003;3.209300e-002
2.175402e+003;3.197793e-002
2.177331e+003;3.196969e-002
2.179259e+003;3.213139e-002
2.181188e+003;3.216736e-002
2.183116e+003;3.197276e-002
2.185045e+003;3.206575e-002
2.186973e+003;3.212219e-002
2.188902e+003;3.196441e-002
2.190831e+003;3.203782e-002
2.192759e+003;3.226203e-002
2.194688e+003;3.215248e-002
2.196616e+003;3.179482e-002
2.198545e+003;3.170710e-002
2.200473e+003;3.186424e-002
2.202402e+003;3.204188e-002
2.204330e+003;3.208462e-002
2.206259e+003;3.205134e-002
2.208188e+003;3.198770e-002
2.210116e+003;3.171298e-002
2.212044e+003;3.149183e-002
2.213973e+003;3.144573e-002
2.215902e+003;3.133663e-002
2.217830e+003;3.122429e-002
2.219759e+003;3.117736e-002
2.221687e+003;3.106463e-002
2.223616e+003;3.108360e-002
2.225544e+003;3.096677e-002
2.227473e+003;3.069475e-002
2.229401e+003;3.068000e-002
2.231330e+003;3.086039e-002
2.233259e+003;3.116455e-002
2.235187e+003;3.127307e-002
2.237116e+003;3.111208e-002
2.239044e+003;3.107848e-002
2.240973e+003;3.104332e-002
2.242901e+003;3.090475e-002
2.244830e+003;3.081344e-002
2.246758e+003;3.077940e-002
2.248687e+003;3.063612e-002
2.250615e+003;3.071545e-002
2.252544e+003;3.094119e-002
2.254473e+003;3.097663e-002
2.256401e+003;3.110987e-002
2.258330e+003;3.131922e-002
2.260258e+003;3.131174e-002
2.262187e+003;3.130426e-002
2.264115e+003;3.142877e-002
2.266044e+003;3.146796e-002
2.267972e+003;3.147117e-002
2.269901e+003;3.145072e-002
2.271830e+003;3.143006e-002
2.273758e+003;3.137527e-002
2.275687e+003;3.140712e-002
2.277615e+003;3.154128e-002
2.279544e+003;3.141727e-002
2.281472e+003;3.130312e-002
2.283401e+003;3.138015e-002
2.285329e+003;3.171982e-002
2.287258e+003;3.194009e-002
2.289187e+003;3.179368e-002
2.291115e+003;3.147394e-002
2.293043e+003;3.162997e-002
2.294972e+003;3.189184e-002
2.296901e+003;3.193856e-002
2.298829e+003;3.198221e-002
2.300758e+003;3.214424e-002
2.302686e+003;3.216240e-002
2.304615e+003;3.201963e-002
2.306543e+003;3.196256e-002
2.308472e+003;3.214167e-002
2.310400e+003;3.223737e-002
2.312329e+003;3.207153e-002
2.314258e+003;3.187323e-002
2.316186e+003;3.201303e-002
2.318115e+003;3.227402e-002
2.320043e+003;3.247029e-002
2.321972e+003;3.273735e-002
2.323900e+003;3.293765e-002
2.325829e+003;3.301001e-002
2.327757e+003;3.303381e-002
2.329686e+003;3.304061e-002
2.331615e+003;3.308144e-002
2.333543e+003;3.313240e-002
2.335472e+003;3.304847e-002
2.337400e+003;3.298451e-002
2.339329e+003;3.302438e-002
2.341257e+003;3.297336e-002
2.343186e+003;3.241559e-002
2.345114e+003;3.203068e-002
2.347043e+003;3.195632e-002
2.348971e+003;3.206125e-002
2.350900e+003;3.235148e-002
2.352829e+003;3.256617e-002
2.354757e+003;3.266040e-002
2.356686e+003;3.272770e-002
2.358614e+003;3.301376e-002
2.360543e+003;3.326530e-002
2.362471e+003;3.323182e-002
2.364400e+003;3.322453e-002
2.366328e+003;3.322871e-002
2.368257e+003;3.319659e-002
2.370186e+003;3.314953e-002
2.372114e+003;3.301977e-002
2.374042e+003;3.248875e-002
2.375971e+003;3.208469e-002
2.377900e+003;3.216807e-002
2.379828e+003;3.229205e-002
2.381757e+003;3.231546e-002
2.383685e+003;3.219059e-002
2.385614e+003;3.230175e-002
2.387542e+003;3.247629e-002
2.389471e+003;3.241399e-002
2.391399e+003;3.225832e-002
2.393328e+003;3.217460e-002
2.395257e+003;3.217146e-002
2.397185e+003;3.210517e-002
2.399114e+003;3.182377e-002
2.401042e+003;3.182131e-002
2.402971e+003;3.208284e-002
2.404899e+003;3.227545e-002
2.406828e+003;3.234930e-002
2.408756e+003;3.238346e-002
2.410685e+003;3.234491e-002
2.412614e+003;3.242334e-002
2.414542e+003;3.233727e-002
2.416471e+003;3.230415e-002
2.418399e+003;3.255496e-002
2.420328e+003;3.263243e-002
2.422256e+003;3.262068e-002
2.424185e+003;3.260289e-002
2.426113e+003;3.259492e-002
2.428042e+003;3.255835e-002
2.429970e+003;3.272209e-002
2.431899e+003;3.284183e-002
2.433828e+003;3.286760e-002
2.435756e+003;3.293579e-002
2.437685e+003;3.312396e-002
2.439613e+003;3.324763e-002
2.441542e+003;3.345157e-002
2.443470e+003;3.353858e-002
2.445399e+003;3.352806e-002
2.447327e+003;3.384548e-002
2.449256e+003;3.407833e-002
2.451185e+003;3.406830e-002
2.453113e+003;3.403590e-002
2.455042e+003;3.418400e-002
2.456970e+003;3.401017e-002
2.458899e+003;3.396442e-002
2.460827e+003;3.407765e-002
2.462756e+003;3.420264e-002
2.464684e+003;3.441632e-002
2.466613e+003;3.455249e-002
2.468542e+003;3.473669e-002
2.470470e+003;3.482517e-002
2.472398e+003;3.492308e-002
2.474327e+003;3.502838e-002
2.476256e+003;3.525425e-002
2.478184e+003;3.534284e-002
2.480113e+003;3.514466e-002
2.482041e+003;3.507529e-002
2.483970e+003;3.510349e-002
2.485898e+003;3.508769e-002
2.487827e+003;3.484693e-002
2.489755e+003;3.470180e-002
2.491684e+003;3.487612e-002
2.493613e+003;3.488671e-002
2.495541e+003;3.520995e-002
2.497470e+003;3.546402e-002
2.499398e+003;3.531333e-002
2.501327e+003;3.500066e-002
2.503255e+003;3.490258e-002
2.505184e+003;3.492168e-002
2.507112e+003;3.490376e-002
2.509041e+003;3.510848e-002
2.510969e+003;3.556758e-002
2.512898e+003;3.572383e-002
2.514827e+003;3.566818e-002
2.516755e+003;3.574390e-002
2.518684e+003;3.589946e-002
2.520612e+003;3.621848e-002
2.522541e+003;3.641747e-002
2.524469e+003;3.647643e-002
2.526398e+003;3.675919e-002
2.528326e+003;3.678418e-002
2.530255e+003;3.702252e-002
2.532184e+003;3.742585e-002
2.534112e+003;3.739350e-002
2.536041e+003;3.736428e-002
2.537969e+003;3.757457e-002
2.539898e+003;3.772500e-002
2.541826e+003;3.784348e-002
2.543755e+003;3.801306e-002
2.545683e+003;3.810443e-002
2.547612e+003;3.805892e-002
2.549541e+003;3.819859e-002
2.551469e+003;3.840929e-002
2.553397e+003;3.854125e-002
2.555326e+003;3.850384e-002
2.557255e+003;3.836958e-002
2.559183e+003;3.826553e-002
2.561112e+003;3.833016e-002
2.563040e+003;3.827957e-002
2.564969e+003;3.838246e-002
2.566897e+003;3.871979e-002
2.568826e+003;3.882141e-002
2.570754e+003;3.876435e-002
2.572683e+003;3.890925e-002
2.574612e+003;3.910358e-002
2.576540e+003;3.932758e-002
2.578469e+003;3.929182e-002
2.580397e+003;3.914418e-002
2.582326e+003;3.940605e-002
2.584254e+003;3.971292e-002
2.586183e+003;3.950635e-002
2.588111e+003;3.949818e-002
2.590040e+003;3.996387e-002
2.591969e+003;3.993146e-002
2.593897e+003;3.971549e-002
2.595826e+003;3.971005e-002
2.597754e+003;3.975195e-002
2.599683e+003;3.996667e-002
2.601611e+003;4.017324e-002
2.603540e+003;4.032326e-002
2.605468e+003;4.034261e-002
2.607397e+003;4.036617e-002
2.609325e+003;4.056093e-002
2.611254e+003;4.064468e-002
2.613183e+003;4.067389e-002
2.615111e+003;4.087523e-002
2.617040e+003;4.112770e-002
2.618968e+003;4.103934e-002
2.620897e+003;4.087523e-002
2.622825e+003;4.095293e-002
2.624754e+003;4.120263e-002
2.626682e+003;4.128020e-002
2.628611e+003;4.105110e-002
2.630540e+003;4.093247e-002
2.632468e+003;4.125845e-002
2.634396e+003;4.163788e-002
2.636325e+003;4.163015e-002
2.638254e+003;4.180873e-002
2.640182e+003;4.217502e-002
2.642111e+003;4.203443e-002
2.644039e+003;4.182412e-002
2.645968e+003;4.196370e-002
2.647896e+003;4.214701e-002
2.649825e+003;4.218119e-002
2.651753e+003;4.228391e-002
2.653682e+003;4.260949e-002
2.655611e+003;4.290077e-002
2.657539e+003;4.283217e-002
2.659468e+003;4.262754e-002
2.661396e+003;4.244830e-002
2.663325e+003;4.260071e-002
2.665253e+003;4.300671e-002
2.667182e+003;4.309155e-002
2.669110e+003;4.302921e-002
2.671039e+003;4.317206e-002
2.672968e+003;4.373807e-002
2.674896e+003;4.402264e-002
2.676825e+003;4.387364e-002
2.678753e+003;4.372437e-002
2.680682e+003;4.371726e-002
2.682610e+003;4.383248e-002
2.684539e+003;4.395162e-002
2.686467e+003;4.410119e-002
2.688396e+003;4.429928e-002
2.690324e+003;4.451501e-002
2.692253e+003;4.486471e-002
2.694182e+003;4.523469e-002
2.696110e+003;4.552506e-002
2.698039e+003;4.585687e-002
2.699967e+003;4.612536e-002
2.701896e+003;4.608067e-002
2.703824e+003;4.603366e-002
2.705753e+003;4.611291e-002
2.707681e+003;4.624159e-002
2.709610e+003;4.632191e-002
2.711539e+003;4.664683e-002
2.713467e+003;4.710659e-002
2.715396e+003;4.739637e-002
2.717324e+003;4.773449e-002
2.719253e+003;4.817404e-002
2.721181e+003;4.862738e-002
2.723110e+003;4.871344e-002
2.725038e+003;4.898986e-002
2.726967e+003;4.927971e-002
2.728896e+003;4.933331e-002
2.730824e+003;4.934496e-002
2.732752e+003;4.951598e-002
2.734681e+003;5.002544e-002
2.736610e+003;5.042411e-002
2.738538e+003;5.063568e-002
2.740467e+003;5.097257e-002
2.742395e+003;5.125450e-002
2.744324e+003;5.111814e-002
2.746252e+003;5.108873e-002
2.748181e+003;5.119496e-002
2.750109e+003;5.131196e-002
2.752038e+003;5.122713e-002
2.753967e+003;5.129883e-002
2.755895e+003;5.151542e-002
2.757824e+003;5.163337e-002
2.759752e+003;5.155930e-002
2.761681e+003;5.167326e-002
2.763609e+003;5.186464e-002
2.765538e+003;5.204524e-002
2.767466e+003;5.239706e-002
2.769395e+003;5.273603e-002
2.771323e+003;5.297707e-002
2.773252e+003;5.311918e-002
2.775181e+003;5.335691e-002
2.777109e+003;5.393880e-002
2.779038e+003;5.453523e-002
2.780966e+003;5.445769e-002
2.782895e+003;5.444195e-002
2.784823e+003;5.476208e-002
2.786752e+003;5.522024e-002
2.788680e+003;5.560597e-002
2.790609e+003;5.591387e-002
2.792538e+003;5.631897e-002
2.794466e+003;5.676179e-002
2.796395e+003;5.702940e-002
2.798323e+003;5.742476e-002
2.800252e+003;5.777949e-002
2.802180e+003;5.785103e-002
2.804109e+003;5.830602e-002
2.806037e+003;5.919678e-002
2.807966e+003;5.981591e-002
2.809895e+003;6.002172e-002
2.811823e+003;6.014550e-002
2.813751e+003;6.063658e-002
2.815680e+003;6.154867e-002
2.817609e+003;6.246826e-002
2.819537e+003;6.310281e-002
2.821466e+003;6.363618e-002
2.823394e+003;6.433138e-002
2.825323e+003;6.496830e-002
2.827251e+003;6.541514e-002
2.829180e+003;6.621467e-002
2.831108e+003;6.719100e-002
2.833037e+003;6.815268e-002
2.834966e+003;6.944311e-002
2.836894e+003;7.133910e-002
2.838823e+003;7.386849e-002
2.840751e+003;7.679693e-002
2.842680e+003;8.005012e-002
2.844608e+003;8.376294e-002
2.846537e+003;8.811519e-002
2.848465e+003;9.292198e-002
2.850394e+003;9.745189e-002
2.852323e+003;1.015244e-001
2.854251e+003;1.054616e-001
2.856180e+003;1.086335e-001
2.858108e+003;1.109622e-001
2.860037e+003;1.126323e-001
2.861965e+003;1.132508e-001
2.863894e+003;1.127068e-001
2.865822e+003;1.113532e-001
2.867751e+003;1.092909e-001
2.869679e+003;1.068460e-001
2.871608e+003;1.042917e-001
2.873536e+003;1.012473e-001
2.875465e+003;9.815095e-002
2.877394e+003;9.528176e-002
2.879322e+003;9.269973e-002
2.881251e+003;9.087694e-002
2.883179e+003;8.973981e-002
2.885108e+003;8.902895e-002
2.887036e+003;8.899992e-002
2.888965e+003;9.004929e-002
2.890893e+003;9.157716e-002
2.892822e+003;9.355707e-002
2.894750e+003;9.564320e-002
2.896679e+003;9.738824e-002
2.898608e+003;9.872607e-002
2.900536e+003;1.001516e-001
2.902465e+003;1.016279e-001
2.904393e+003;1.028777e-001
2.906322e+003;1.041910e-001
2.908250e+003;1.058972e-001
2.910179e+003;1.078296e-001
2.912107e+003;1.102003e-001
2.914036e+003;1.126072e-001
2.915965e+003;1.149484e-001
2.917893e+003;1.172547e-001
2.919822e+003;1.206848e-001
2.921750e+003;1.246476e-001
2.923679e+003;1.285300e-001
2.925607e+003;1.321117e-001
2.927536e+003;1.349847e-001
2.929464e+003;1.372264e-001
2.931393e+003;1.391501e-001
2.933322e+003;1.405277e-001
2.935250e+003;1.410239e-001
2.937178e+003;1.402938e-001
2.939107e+003;1.380050e-001
2.941036e+003;1.347223e-001
2.942964e+003;1.311298e-001
2.944893e+003;1.272005e-001
2.946821e+003;1.222991e-001
2.948750e+003;1.161257e-001
2.950678e+003;1.098699e-001
2.952607e+003;1.036769e-001
2.954535e+003;9.777754e-002
2.956464e+003;9.214514e-002
2.958393e+003;8.687321e-002
2.960321e+003;8.268249e-002
2.962250e+003;7.915050e-002
2.964178e+003;7.610824e-002
2.966107e+003;7.352797e-002
2.968035e+003;7.096493e-002
2.969964e+003;6.839169e-002
2.971892e+003;6.616651e-002
2.973821e+003;6.434755e-002
2.975750e+003;6.256178e-002
2.977678e+003;6.070757e-002
2.979607e+003;5.877010e-002
2.981535e+003;5.732240e-002
2.983464e+003;5.658431e-002
2.985392e+003;5.563629e-002
2.987321e+003;5.490335e-002
2.989249e+003;5.444376e-002
2.991178e+003;5.371774e-002
2.993106e+003;5.281400e-002
2.995035e+003;5.232720e-002
2.996964e+003;5.221048e-002
2.998892e+003;5.206892e-002
3.000821e+003;5.204741e-002
3.002749e+003;5.187147e-002
3.004678e+003;5.186147e-002
3.006606e+003;5.203964e-002
3.008535e+003;5.228354e-002
3.010463e+003;5.207419e-002
3.012392e+003;5.214057e-002
3.014321e+003;5.261528e-002
3.016249e+003;5.288050e-002
3.018177e+003;5.315831e-002
3.020106e+003;5.363334e-002
3.022035e+003;5.408533e-002
3.023963e+003;5.430579e-002
3.025892e+003;5.435276e-002
3.027820e+003;5.462194e-002
3.029749e+003;5.513965e-002
3.031677e+003;5.585882e-002
3.033606e+003;5.669050e-002
3.035534e+003;5.697133e-002
3.037463e+003;5.736414e-002
3.039392e+003;5.803410e-002
3.041320e+003;5.877211e-002
3.043249e+003;5.962133e-002
3.045177e+003;6.036887e-002
3.047106e+003;6.116400e-002
3.049034e+003;6.201210e-002
3.050963e+003;6.304434e-002
3.052891e+003;6.390584e-002
3.054820e+003;6.474160e-002
3.056749e+003;6.562679e-002
3.058677e+003;6.605922e-002
3.060606e+003;6.628356e-002
3.062534e+003;6.655649e-002
3.064463e+003;6.712360e-002
3.066391e+003;6.799486e-002
3.068320e+003;6.860611e-002
3.070248e+003;6.856494e-002
3.072177e+003;6.823371e-002
3.074105e+003;6.819157e-002
3.076034e+003;6.830966e-002
3.077963e+003;6.839331e-002
3.079891e+003;6.827015e-002
3.081820e+003;6.810636e-002
3.083748e+003;6.785016e-002
3.085677e+003;6.761187e-002
3.087605e+003;6.707050e-002
3.089534e+003;6.655371e-002
3.091462e+003;6.598449e-002
3.093391e+003;6.545216e-002
3.095320e+003;6.482706e-002
3.097248e+003;6.417318e-002
3.099177e+003;6.376917e-002
3.101105e+003;6.336071e-002
3.103034e+003;6.264690e-002
3.104962e+003;6.196945e-002
3.106891e+003;6.139690e-002
3.108819e+003;6.036822e-002
3.110748e+003;5.961719e-002
3.112677e+003;5.921185e-002
3.114605e+003;5.882651e-002
3.116533e+003;5.859855e-002
3.118462e+003;5.853462e-002
3.120391e+003;5.837204e-002
3.122319e+003;5.785595e-002
3.124248e+003;5.705290e-002
3.126176e+003;5.661153e-002
3.128105e+003;5.693140e-002
3.130033e+003;5.708680e-002
3.131962e+003;5.685741e-002
3.133890e+003;5.693763e-002
3.135819e+003;5.704784e-002
3.137748e+003;5.700065e-002
3.139676e+003;5.699800e-002
3.141605e+003;5.673366e-002
3.143533e+003;5.642159e-002
3.145462e+003;5.665939e-002
3.147390e+003;5.730508e-002
3.149319e+003;5.775095e-002
3.151247e+003;5.787791e-002
3.153176e+003;5.814674e-002
3.155104e+003;5.818720e-002
3.157033e+003;5.845425e-002
3.158962e+003;5.929328e-002
3.160890e+003;5.978328e-002
3.162819e+003;5.994108e-002
3.164747e+003;6.021222e-002
3.166676e+003;6.063372e-002
3.168604e+003;6.134286e-002
3.170533e+003;6.218046e-002
3.172461e+003;6.276469e-002
3.174390e+003;6.317454e-002
3.176319e+003;6.367570e-002
3.178247e+003;6.428627e-002
3.180176e+003;6.501667e-002
3.182104e+003;6.553379e-002
3.184033e+003;6.609004e-002
3.185961e+003;6.697910e-002
3.187890e+003;6.756422e-002
3.189818e+003;6.793492e-002
3.191747e+003;6.856921e-002
3.193676e+003;6.901187e-002
3.195604e+003;6.911688e-002
3.197532e+003;6.971344e-002
3.199461e+003;7.040632e-002
3.201390e+003;7.070622e-002
3.203318e+003;7.093958e-002
3.205247e+003;7.088321e-002
3.207175e+003;7.114460e-002
3.209104e+003;7.187629e-002
3.211032e+003;7.242587e-002
3.212961e+003;7.263274e-002
3.214889e+003;7.314725e-002
3.216818e+003;7.394670e-002
3.218747e+003;7.477750e-002
3.220675e+003;7.559597e-002
3.222604e+003;7.652010e-002
3.224532e+003;7.737251e-002
3.226461e+003;7.835460e-002
3.228389e+003;7.946864e-002
3.230318e+003;8.041178e-002
3.232246e+003;8.123847e-002
3.234175e+003;8.253954e-002
3.236104e+003;8.412872e-002
3.238032e+003;8.591042e-002
3.239961e+003;8.753850e-002
3.241889e+003;8.889866e-002
3.243818e+003;9.050030e-002
3.245746e+003;9.247410e-002
3.247675e+003;9.451561e-002
3.249603e+003;9.622406e-002
3.251532e+003;9.820936e-002
3.253460e+003;1.004399e-001
3.255389e+003;1.022089e-001
3.257318e+003;1.040263e-001
3.259246e+003;1.064277e-001
3.261175e+003;1.090133e-001
3.263103e+003;1.113354e-001
3.265032e+003;1.138568e-001
3.266960e+003;1.161740e-001
3.268889e+003;1.181247e-001
3.270817e+003;1.200802e-001
3.272746e+003;1.223581e-001
3.274675e+003;1.245994e-001
3.276603e+003;1.266970e-001
3.278531e+003;1.292143e-001
3.280460e+003;1.314483e-001
3.282389e+003;1.332673e-001
3.284317e+003;1.352283e-001
3.286246e+003;1.373459e-001
3.288174e+003;1.386971e-001
3.290103e+003;1.389545e-001
3.292031e+003;1.390024e-001
3.293960e+003;1.387485e-001
3.295888e+003;1.381726e-001
3.297817e+003;1.369140e-001
3.299746e+003;1.344322e-001
3.301674e+003;1.317830e-001
3.303603e+003;1.292429e-001
3.305531e+003;1.264053e-001
3.307460e+003;1.231321e-001
3.309388e+003;1.201072e-001
3.311317e+003;1.170429e-001
3.313245e+003;1.140269e-001
3.315174e+003;1.110160e-001
3.317103e+003;1.079161e-001
3.319031e+003;1.049923e-001
3.320960e+003;1.020022e-001
3.322888e+003;9.941841e-002
3.324817e+003;9.724782e-002
3.326745e+003;9.426356e-002
3.328674e+003;9.115503e-002
3.330602e+003;8.889126e-002
3.332531e+003;8.664235e-002
3.334459e+003;8.429895e-002
3.336388e+003;8.250733e-002
3.338317e+003;8.025602e-002
3.340245e+003;7.785489e-002
3.342174e+003;7.603130e-002
3.344102e+003;7.421289e-002
3.346031e+003;7.278454e-002
3.347959e+003;7.151693e-002
3.349888e+003;6.989738e-002
3.351816e+003;6.840235e-002
3.353745e+003;6.687497e-002
3.355674e+003;6.527830e-002
3.357602e+003;6.426568e-002
3.359531e+003;6.339035e-002
3.361459e+003;6.229150e-002
3.363388e+003;6.090111e-002
3.365316e+003;5.962472e-002
3.367245e+003;5.899777e-002
3.369173e+003;5.824680e-002
3.371102e+003;5.747113e-002
3.373031e+003;5.662040e-002
3.374959e+003;5.586571e-002
3.376887e+003;5.520692e-002
3.378816e+003;5.451505e-002
3.380745e+003;5.409204e-002
3.382673e+003;5.366600e-002
3.384602e+003;5.314659e-002
3.386530e+003;5.267696e-002
3.388459e+003;5.196151e-002
3.390387e+003;5.119474e-002
3.392316e+003;5.081443e-002
3.394244e+003;5.099057e-002
3.396173e+003;5.130256e-002
3.398102e+003;5.076158e-002
3.400030e+003;4.983438e-002
3.401959e+003;4.953763e-002
3.403887e+003;4.945070e-002
3.405816e+003;4.872382e-002
3.407744e+003;4.808749e-002
3.409673e+003;4.790121e-002
3.411601e+003;4.810397e-002
3.413530e+003;4.823513e-002
3.415458e+003;4.793395e-002
3.417387e+003;4.771677e-002
3.419316e+003;4.762610e-002
3.421244e+003;4.738961e-002
3.423173e+003;4.688806e-002
3.425101e+003;4.662666e-002
3.427030e+003;4.680682e-002
3.428958e+003;4.659951e-002
3.430887e+003;4.657446e-002
3.432815e+003;4.673734e-002
3.434744e+003;4.662178e-002
3.436673e+003;4.611770e-002
3.438601e+003;4.593476e-002
3.440530e+003;4.583868e-002
3.442458e+003;4.578444e-002
3.444387e+003;4.569922e-002
3.446315e+003;4.582336e-002
3.448244e+003;4.580878e-002
3.450172e+003;4.510373e-002
3.452101e+003;4.457952e-002
3.454030e+003;4.471487e-002
3.455958e+003;4.465329e-002
3.457886e+003;4.444509e-002
3.459815e+003;4.417429e-002
3.461744e+003;4.391814e-002
3.463672e+003;4.381140e-002
3.465601e+003;4.330449e-002
3.467529e+003;4.340338e-002
3.469458e+003;4.375306e-002
3.471386e+003;4.316331e-002
3.473315e+003;4.271593e-002
3.475243e+003;4.286270e-002
3.477172e+003;4.272416e-002
3.479101e+003;4.247950e-002
3.481029e+003;4.256322e-002
3.482958e+003;4.276057e-002
3.484886e+003;4.284881e-002
3.486815e+003;4.256106e-002
3.488743e+003;4.219459e-002
3.490672e+003;4.209459e-002
3.492600e+003;4.212295e-002
3.494529e+003;4.216019e-002
3.496458e+003;4.210963e-002
3.498386e+003;4.184744e-002
3.500315e+003;4.185871e-002
3.502243e+003;4.221851e-002
3.504172e+003;4.184127e-002
3.506100e+003;4.143527e-002
3.508029e+003;4.123724e-002
3.509957e+003;4.085598e-002
3.511886e+003;4.068197e-002
3.513814e+003;4.074165e-002
3.515743e+003;4.059530e-002
3.517672e+003;4.004125e-002
3.519600e+003;3.956949e-002
3.521529e+003;3.967701e-002
3.523457e+003;3.939335e-002
3.525386e+003;3.901584e-002
3.527314e+003;3.903571e-002
3.529243e+003;3.909585e-002
3.531171e+003;3.916177e-002
3.533100e+003;3.924692e-002
3.535029e+003;3.887051e-002
3.536957e+003;3.847448e-002
3.538885e+003;3.827975e-002
3.540814e+003;3.783264e-002
3.542743e+003;3.765532e-002
3.544671e+003;3.768972e-002
3.546600e+003;3.711576e-002
3.548528e+003;3.673911e-002
3.550457e+003;3.644032e-002
3.552385e+003;3.612700e-002
3.554314e+003;3.604934e-002
3.556242e+003;3.587408e-002
3.558171e+003;3.557492e-002
3.560100e+003;3.507687e-002
3.562028e+003;3.457283e-002
3.563957e+003;3.435520e-002
3.565885e+003;3.430410e-002
3.567814e+003;3.433785e-002
3.569742e+003;3.425312e-002
3.571671e+003;3.379512e-002
3.573599e+003;3.366162e-002
3.575528e+003;3.373545e-002
3.577457e+003;3.341976e-002
3.579385e+003;3.285220e-002
3.581314e+003;3.241516e-002
3.583242e+003;3.196866e-002
3.585171e+003;3.170296e-002
3.587099e+003;3.137128e-002
3.589028e+003;3.100015e-002
3.590956e+003;3.050494e-002
3.592885e+003;3.024323e-002
3.594813e+003;3.032803e-002
3.596742e+003;3.043509e-002
3.598671e+003;3.025836e-002
3.600599e+003;2.989385e-002
3.602528e+003;2.970907e-002
3.604456e+003;2.986716e-002
3.606385e+003;2.966635e-002
3.608313e+003;2.901563e-002
3.610242e+003;2.868359e-002
3.612170e+003;2.838619e-002
3.614099e+003;2.826191e-002
3.616028e+003;2.834686e-002
3.617956e+003;2.819009e-002
3.619885e+003;2.809482e-002
3.621813e+003;2.786127e-002
3.623742e+003;2.758755e-002
3.625670e+003;2.732946e-002
3.627599e+003;2.731655e-002
3.629527e+003;2.720696e-002
3.631456e+003;2.682224e-002
3.633385e+003;2.648564e-002
3.635313e+003;2.624108e-002
3.637241e+003;2.574480e-002
3.639170e+003;2.530105e-002
3.641099e+003;2.498876e-002
3.643027e+003;2.514261e-002
3.644956e+003;2.493808e-002
3.646884e+003;2.485527e-002
3.648813e+003;2.493791e-002
3.650741e+003;2.512801e-002
3.652670e+003;2.512689e-002
3.654598e+003;2.468255e-002
3.656527e+003;2.407083e-002
3.658456e+003;2.379169e-002
3.660384e+003;2.408075e-002
3.662313e+003;2.413279e-002
3.664241e+003;2.411738e-002
3.666170e+003;2.401025e-002
3.668098e+003;2.360536e-002
3.670027e+003;2.324492e-002
3.671955e+003;2.325436e-002
3.673884e+003;2.347341e-002
3.675813e+003;2.367873e-002
3.677741e+003;2.353683e-002
3.679669e+003;2.311071e-002
3.681598e+003;2.283850e-002
3.683527e+003;2.281266e-002
3.685455e+003;2.288666e-002
3.687384e+003;2.240389e-002
3.689312e+003;2.195849e-002
3.691241e+003;2.206233e-002
3.693169e+003;2.187569e-002
3.695098e+003;2.166329e-002
3.697026e+003;2.168185e-002
3.698955e+003;2.143091e-002
3.700884e+003;2.138795e-002
3.702812e+003;2.141075e-002
3.704741e+003;2.126385e-002
3.706669e+003;2.107884e-002
3.708598e+003;2.097517e-002
3.710526e+003;2.096779e-002
3.712455e+003;2.066332e-002
3.714383e+003;2.010583e-002
3.716312e+003;2.058793e-002
3.718240e+003;2.124106e-002
3.720169e+003;2.102823e-002
3.722098e+003;2.070780e-002
3.724026e+003;2.049191e-002
3.725955e+003;2.083269e-002
3.727883e+003;2.096689e-002
3.729812e+003;2.047711e-002
3.731740e+003;2.045280e-002
3.733669e+003;2.071309e-002
3.735597e+003;2.054922e-002
3.737526e+003;2.083561e-002
3.739455e+003;2.100097e-002
3.741383e+003;2.092791e-002
3.743312e+003;2.065745e-002
3.745240e+003;2.049865e-002
3.747169e+003;2.099635e-002
3.749097e+003;2.125713e-002
3.751026e+003;2.104928e-002
3.752954e+003;2.092110e-002
3.754883e+003;2.129057e-002
3.756812e+003;2.143581e-002
3.758740e+003;2.105491e-002
3.760668e+003;2.092273e-002
3.762597e+003;2.138576e-002
3.764526e+003;2.143512e-002
3.766454e+003;2.126795e-002
3.768383e+003;2.117398e-002
3.770311e+003;2.103293e-002
3.772240e+003;2.091407e-002
3.774168e+003;2.102184e-002
3.776097e+003;2.143480e-002
3.778025e+003;2.130815e-002
3.779954e+003;2.090594e-002
3.781883e+003;2.081743e-002
3.783811e+003;2.088191e-002
3.785740e+003;2.114145e-002
3.787668e+003;2.112274e-002
3.789597e+003;2.087934e-002
3.791525e+003;2.058633e-002
3.793454e+003;2.053193e-002
3.795382e+003;2.064988e-002
3.797311e+003;2.088553e-002
3.799240e+003;2.067848e-002
3.801168e+003;2.077523e-002
3.803097e+003;2.091776e-002
3.805025e+003;2.040091e-002
3.806954e+003;1.995937e-002
3.808882e+003;2.037147e-002
3.810811e+003;2.096021e-002
3.812739e+003;2.135450e-002
3.814668e+003;2.144459e-002
3.816596e+003;2.155930e-002
3.818525e+003;2.148521e-002
3.820454e+003;2.125028e-002
3.822382e+003;2.160732e-002
3.824311e+003;2.202019e-002
3.826239e+003;2.199729e-002
3.828168e+003;2.177228e-002
3.830096e+003;2.186482e-002
3.832025e+003;2.192810e-002
3.833953e+003;2.210099e-002
3.835882e+003;2.173435e-002
3.837811e+003;2.163619e-002
3.839739e+003;2.218715e-002
3.841667e+003;2.214262e-002
3.843596e+003;2.181799e-002
3.845525e+003;2.213133e-002
3.847453e+003;2.256622e-002
3.849382e+003;2.258737e-002
3.851310e+003;2.231518e-002
3.853239e+003;2.201109e-002
3.855167e+003;2.182008e-002
3.857096e+003;2.222621e-002
3.859024e+003;2.219678e-002
3.860953e+003;2.215974e-002
3.862882e+003;2.260957e-002
3.864810e+003;2.241938e-002
3.866739e+003;2.190465e-002
3.868667e+003;2.194288e-002
3.870596e+003;2.249468e-002
3.872524e+003;2.249915e-002
3.874453e+003;2.243149e-002
3.876381e+003;2.259449e-002
3.878310e+003;2.254263e-002
3.880239e+003;2.212753e-002
3.882167e+003;2.154517e-002
3.884096e+003;2.123191e-002
3.886024e+003;2.170460e-002
3.887953e+003;2.257320e-002
3.889881e+003;2.279834e-002
3.891810e+003;2.259861e-002
3.893738e+003;2.297004e-002
3.895667e+003;2.334207e-002
3.897595e+003;2.343459e-002
3.899524e+003;2.305882e-002
3.901453e+003;2.264374e-002
3.903381e+003;2.288136e-002
3.905310e+003;2.300505e-002
3.907238e+003;2.293965e-002
3.909167e+003;2.265788e-002
3.911095e+003;2.282391e-002
3.913024e+003;2.320853e-002
3.914952e+003;2.344935e-002
3.916881e+003;2.348107e-002
3.918810e+003;2.369122e-002
3.920738e+003;2.374560e-002
3.922667e+003;2.356345e-002
3.924595e+003;2.381710e-002
3.926524e+003;2.420278e-002
3.928452e+003;2.412064e-002
3.930381e+003;2.431070e-002
3.932309e+003;2.425821e-002
3.934238e+003;2.416505e-002
3.936167e+003;2.438363e-002
3.938095e+003;2.404580e-002
3.940023e+003;2.397212e-002
3.941952e+003;2.399309e-002
3.943881e+003;2.426970e-002
3.945809e+003;2.482008e-002
3.947738e+003;2.503899e-002
3.949666e+003;2.493945e-002
3.951595e+003;2.535265e-002
3.953523e+003;2.551598e-002
3.955452e+003;2.514170e-002
3.957380e+003;2.517327e-002
3.959309e+003;2.525013e-002
3.961238e+003;2.527988e-002
3.963166e+003;2.525891e-002
3.965095e+003;2.542077e-002
3.967023e+003;2.555864e-002
3.968952e+003;2.566377e-002
3.970880e+003;2.585218e-002
3.972809e+003;2.605648e-002
3.974737e+003;2.586653e-002
3.976666e+003;2.572258e-002
3.978594e+003;2.605521e-002
3.980523e+003;2.596068e-002
3.982452e+003;2.588749e-002
3.984380e+003;2.606337e-002
3.986309e+003;2.633162e-002
3.988237e+003;2.649106e-002
3.990166e+003;2.647659e-002
3.992094e+003;2.678241e-002
3.994023e+003;2.677406e-002
3.995951e+003;2.675168e-002
3.997880e+003;2.710401e-002
3.999809e+003;2.736334e-002
4.001737e+003;0.000000e+000
