3.992094e+002;0.000000e+000
4.011380e+002;0.000000e+000
4.030665e+002;0.000000e+000
4.049951e+002;0.000000e+000
4.069236e+002;0.000000e+000
4.088522e+002;0.000000e+000
4.107807e+002;0.000000e+000
4.127093e+002;0.000000e+000
4.146378e+002;0.000000e+000
4.165664e+002;0.000000e+000
4.184949e+002;0.000000e+000
4.204235e+002;0.000000e+000
4.223520e+002;0.000000e+000
4.242806e+002;0.000000e+000
4.262091e+002;0.000000e+000
4.281377e+002;0.000000e+000
4.300662e+002;0.000000e+000
4.319948e+002;0.000000e+000
4.339233e+002;0.000000e+000
4.358519e+002;0.000000e+000
4.377804e+002;0.000000e+000
4.397090e+002;0.000000e+000
4.416375e+002;0.000000e+000
4.435660e+002;0.000000e+000
4.454946e+002;0.000000e+000
4.474232e+002;0.000000e+000
4.493517e+002;0.000000e+000
4.512802e+002;0.000000e+000
4.532088e+002;0.000000e+000
4.551373e+002;0.000000e+000
4.570659e+002;0.000000e+000
4.589944e+002;0.000000e+000
4.609230e+002;0.000000e+000
4.628515e+002;0.000000e+000
4.647801e+002;0.000000e+000
4.667086e+002;0.000000e+000
4.686372e+002;0.000000e+000
4.705657e+002;0.000000e+000
4.724943e+002;0.000000e+000
4.744228e+002;0.000000e+000
4.763513e+002;0.000000e+000
4.782799e+002;0.000000e+000
4.802085e+002;0.000000e+000
4.821370e+002;0.000000e+000
4.840656e+002;0.000000e+000
4.859941e+002;0.000000e+000
4.879226e+002;0.000000e+000
4.898512e+002;0.000000e+000
4.917798e+002;0.000000e+000
4.937083e+002;0.000000e+000
4.956368e+002;0.000000e+000
4.975654e+002;0.000000e+000
4.994939e+002;0.000000e+000
5.014225e+002;0.000000e+000
5.033510e+002;0.000000e+000
5.052796e+002;0.000000e+000
5.072081e+002;0.000000e+000
5.091367e+002;0.000000e+000
5.110652e+002;0.000000e+000
5.129938e+002;0.000000e+000
5.149223e+002;0.000000e+000
5.168509e+002;0.000000e+000
5.187794e+002;0.000000e+000
5.207079e+002;0.000000e+000
5.226365e+002;0.000000e+000
5.245651e+002;0.000000e+000
5.264936e+002;0.000000e+000
5.284222e+002;0.000000e+000
5.303507e+002;0.000000e+000
5.322792e+002;0.000000e+000
5.342078e+002;0.000000e+000
5.361364e+002;0.000000e+000
5.380649e+002;0.000000e+000
5.399935e+002;0.000000e+000
5.419220e+002;0.000000e+000
5.438505e+002;0.000000e+000
5.457791e+002;0.000000e+000
5.477076e+002;0.000000e+000
5.496362e+002;0.000000e+000
5.515648e+002;0.000000e+000
5.534933e+002;0.000000e+000
5.554218e+002;0.000000e+000
5.573504e+002;0.000000e+000
5.592789e+002;0.000000e+000
5.612075e+002;0.000000e+000
5.631360e+002;0.000000e+000
5.650646e+002;0.000000e+000
5.669931e+002;0.000000e+000
5.689217e+002;0.000000e+000
5.708502e+002;0.000000e+000
5.727787e+002;0.000000e+000
5.747073e+002;0.000000e+000
5.766359e+002;0.000000e+000
5.785644e+002;0.000000e+000
5.804930e+002;0.000000e+000
5.824215e+002;0.000000e+000
5.843500e+002;0.000000e+000
5.862786e+002;0.000000e+000
5.882072e+002;0.000000e+000
5.901357e+002;0.000000e+000
5.920643e+002;0.000000e+000
5.939928e+002;0.000000e+000
5.959213e+002;0.000000e+000
5.978499e+002;0.000000e+000
5.997784e+002;1.410937e-001
6.017070e+002;1.404530e-001
6.036355e+002;1.389811e-001
6.055641e+002;1.393261e-001
6.074926e+002;1.427247e-001
6.094211e+002;1.450400e-001
6.113497e+002;1.415669e-001
6.132783e+002;1.387214e-001
6.152068e+002;1.433235e-001
6.171354e+002;1.455913e-001
6.190639e+002;1.442929e-001
6.209924e+002;1.440506e-001
6.229210e+002;1.455422e-001
6.248495e+002;1.435797e-001
6.267781e+002;1.391227e-001
6.287067e+002;1.406266e-001
6.306352e+002;1.436633e-001
6.325637e+002;1.470036e-001
6.344923e+002;1.487904e-001
6.364208e+002;1.471150e-001
6.383494e+002;1.448442e-001
6.402780e+002;1.450661e-001
6.422065e+002;1.490098e-001
6.441350e+002;1.504164e-001
6.460636e+002;1.531292e-001
6.479921e+002;1.571789e-001
6.499207e+002;1.589893e-001
6.518492e+002;1.584646e-001
6.537778e+002;1.570461e-001
6.557063e+002;1.594035e-001
6.576349e+002;1.658392e-001
6.595634e+002;1.699002e-001
6.614919e+002;1.712061e-001
6.634205e+002;1.723045e-001
6.653491e+002;1.742131e-001
6.672776e+002;1.758752e-001
6.692062e+002;1.775873e-001
6.711347e+002;1.794042e-001
6.730632e+002;1.806951e-001
6.749918e+002;1.813456e-001
6.769203e+002;1.830203e-001
6.788489e+002;1.849705e-001
6.807775e+002;1.848790e-001
6.827060e+002;1.846672e-001
6.846345e+002;1.860040e-001
6.865631e+002;1.864514e-001
6.884916e+002;1.841474e-001
6.904202e+002;1.821747e-001
6.923488e+002;1.799966e-001
6.942773e+002;1.769313e-001
6.962058e+002;1.746015e-001
6.981344e+002;1.705812e-001
7.000629e+002;1.669065e-001
7.019915e+002;1.662237e-001
7.039200e+002;1.644065e-001
7.058486e+002;1.611371e-001
7.077771e+002;1.590449e-001
7.097057e+002;1.589208e-001
7.116342e+002;1.588116e-001
7.135627e+002;1.567870e-001
7.154913e+002;1.548147e-001
7.174199e+002;1.528516e-001
7.193484e+002;1.504477e-001
7.212770e+002;1.502943e-001
7.232055e+002;1.509867e-001
7.251340e+002;1.513804e-001
7.270626e+002;1.519020e-001
7.289911e+002;1.502625e-001
7.309197e+002;1.454805e-001
7.328483e+002;1.391081e-001
7.347768e+002;1.320232e-001
7.367053e+002;1.261823e-001
7.386339e+002;1.216344e-001
7.405624e+002;1.170969e-001
7.424910e+002;1.144888e-001
7.444196e+002;1.132029e-001
7.463481e+002;1.106567e-001
7.482766e+002;1.082710e-001
7.502052e+002;1.070708e-001
7.521337e+002;1.049638e-001
7.540623e+002;1.035687e-001
7.559908e+002;1.018429e-001
7.579194e+002;9.937638e-002
7.598479e+002;9.818830e-002
7.617765e+002;9.746395e-002
7.637050e+002;9.610908e-002
7.656335e+002;9.499479e-002
7.675621e+002;9.406453e-002
7.694907e+002;9.382553e-002
7.714192e+002;9.398828e-002
7.733478e+002;9.280080e-002
7.752763e+002;9.072645e-002
7.772048e+002;8.928165e-002
7.791334e+002;8.839042e-002
7.810620e+002;8.775282e-002
7.829905e+002;8.650205e-002
7.849191e+002;8.481298e-002
7.868476e+002;8.426736e-002
7.887761e+002;8.328058e-002
7.907047e+002;8.181637e-002
7.926332e+002;8.126472e-002
7.945618e+002;8.034755e-002
7.964903e+002;7.932471e-002
7.984189e+002;7.793795e-002
8.003474e+002;7.678693e-002
8.022759e+002;7.548068e-002
8.042045e+002;7.394651e-002
8.061331e+002;7.331923e-002
8.080616e+002;7.304414e-002
8.099902e+002;7.257058e-002
8.119187e+002;7.189509e-002
8.138472e+002;7.081319e-002
8.157758e+002;7.052121e-002
8.177043e+002;7.054400e-002
8.196329e+002;6.989298e-002
8.215615e+002;6.938596e-002
8.234900e+002;6.994494e-002
8.254185e+002;7.069640e-002
8.273471e+002;7.115041e-002
8.292756e+002;7.243413e-002
8.312042e+002;7.388208e-002
8.331328e+002;7.423577e-002
8.350613e+002;7.283637e-002
8.369898e+002;7.070002e-002
8.389184e+002;6.872316e-002
8.408469e+002;6.681889e-002
8.427755e+002;6.566694e-002
8.447040e+002;6.441192e-002
8.466326e+002;6.367589e-002
8.485611e+002;6.284824e-002
8.504897e+002;6.203764e-002
8.524182e+002;6.191087e-002
8.543467e+002;6.174870e-002
8.562753e+002;6.146747e-002
8.582039e+002;6.147118e-002
8.601324e+002;6.160682e-002
8.620610e+002;6.160621e-002
8.639895e+002;6.178980e-002
8.659180e+002;6.226397e-002
8.678466e+002;6.243819e-002
8.697751e+002;6.215729e-002
8.717037e+002;6.174538e-002
8.736323e+002;6.197263e-002
8.755608e+002;6.265406e-002
8.774893e+002;6.315017e-002
8.794179e+002;6.311978e-002
8.813464e+002;6.293739e-002
8.832750e+002;6.268258e-002
8.852036e+002;6.296489e-002
8.871321e+002;6.338797e-002
8.890606e+002;6.355368e-002
8.909892e+002;6.367574e-002
8.929177e+002;6.379814e-002
8.948463e+002;6.407190e-002
8.967748e+002;6.446285e-002
8.987034e+002;6.458009e-002
9.006319e+002;6.467864e-002
9.025605e+002;6.468406e-002
9.044890e+002;6.482452e-002
9.064175e+002;6.560227e-002
9.083461e+002;6.612522e-002
9.102747e+002;6.623285e-002
9.122032e+002;6.660921e-002
9.141318e+002;6.744748e-002
9.160603e+002;6.824111e-002
9.179888e+002;6.867088e-002
9.199174e+002;6.923263e-002
9.218459e+002;7.000208e-002
9.237745e+002;7.102764e-002
9.257031e+002;7.257074e-002
9.276316e+002;7.392093e-002
9.295601e+002;7.405993e-002
9.314887e+002;7.334771e-002
9.334172e+002;7.208695e-002
9.353458e+002;7.070213e-002
9.372744e+002;7.009868e-002
9.392029e+002;7.017750e-002
9.411314e+002;7.047132e-002
9.430600e+002;7.122408e-002
9.449885e+002;7.242744e-002
9.469171e+002;7.391496e-002
9.488456e+002;7.561509e-002
9.507742e+002;7.671659e-002
9.527027e+002;7.700019e-002
9.546313e+002;7.764085e-002
9.565598e+002;7.866648e-002
9.584883e+002;7.919452e-002
9.604169e+002;7.858936e-002
9.623455e+002;7.768741e-002
9.642740e+002;7.719911e-002
9.662026e+002;7.688698e-002
9.681311e+002;7.665871e-002
9.700596e+002;7.664903e-002
9.719882e+002;7.672378e-002
9.739167e+002;7.627835e-002
9.758453e+002;7.532927e-002
9.777739e+002;7.435030e-002
9.797024e+002;7.361598e-002
9.816309e+002;7.284656e-002
9.835595e+002;7.216637e-002
9.854880e+002;7.167947e-002
9.874166e+002;7.063273e-002
9.893452e+002;6.947775e-002
9.912737e+002;6.888970e-002
9.932022e+002;6.856160e-002
9.951307e+002;6.818633e-002
9.970593e+002;6.783195e-002
9.989879e+002;6.769086e-002
1.000916e+003;6.749087e-002
1.002845e+003;6.720563e-002
1.004773e+003;6.726462e-002
1.006702e+003;6.716811e-002
1.008631e+003;6.700021e-002
1.010559e+003;6.717344e-002
1.012488e+003;6.701235e-002
1.014416e+003;6.681572e-002
1.016345e+003;6.689592e-002
1.018273e+003;6.769767e-002
1.020202e+003;6.878360e-002
1.022130e+003;7.010689e-002
1.024059e+003;7.121373e-002
1.025988e+003;7.175685e-002
1.027916e+003;7.180940e-002
1.029845e+003;7.185192e-002
1.031773e+003;7.176620e-002
1.033702e+003;7.104774e-002
1.035630e+003;7.017524e-002
1.037559e+003;6.946582e-002
1.039487e+003;6.868683e-002
1.041416e+003;6.796115e-002
1.043344e+003;6.782196e-002
1.045273e+003;6.800858e-002
1.047202e+003;6.801331e-002
1.049130e+003;6.842524e-002
1.051059e+003;6.930619e-002
1.052987e+003;7.029649e-002
1.054916e+003;7.122853e-002
1.056844e+003;7.242630e-002
1.058773e+003;7.380271e-002
1.060701e+003;7.505472e-002
1.062630e+003;7.610607e-002
1.064558e+003;7.740022e-002
1.066487e+003;7.850904e-002
1.068416e+003;7.890685e-002
1.070344e+003;7.881300e-002
1.072273e+003;7.905263e-002
1.074201e+003;7.986606e-002
1.076130e+003;7.977742e-002
1.078058e+003;7.883196e-002
1.079987e+003;7.799801e-002
1.081915e+003;7.765428e-002
1.083844e+003;7.720849e-002
1.085773e+003;7.683972e-002
1.087701e+003;7.646778e-002
1.089630e+003;7.591696e-002
1.091558e+003;7.606951e-002
1.093487e+003;7.627914e-002
1.095415e+003;7.602759e-002
1.097344e+003;7.605720e-002
1.099272e+003;7.743032e-002
1.101201e+003;7.946800e-002
1.103129e+003;8.156978e-002
1.105058e+003;8.325746e-002
1.106987e+003;8.432168e-002
1.108915e+003;8.504968e-002
1.110844e+003;8.583115e-002
1.112772e+003;8.648312e-002
1.114701e+003;8.697744e-002
1.116629e+003;8.754183e-002
1.118558e+003;8.783442e-002
1.120486e+003;8.737879e-002
1.122415e+003;8.569128e-002
1.124344e+003;8.317563e-002
1.126272e+003;8.053696e-002
1.128201e+003;7.781719e-002
1.130129e+003;7.564676e-002
1.132058e+003;7.447945e-002
1.133986e+003;7.358928e-002
1.135915e+003;7.309052e-002
1.137843e+003;7.365346e-002
1.139772e+003;7.435231e-002
1.141700e+003;7.575681e-002
1.143629e+003;7.775929e-002
1.145557e+003;7.967781e-002
1.147486e+003;8.180445e-002
1.149415e+003;8.419093e-002
1.151343e+003;8.647010e-002
1.153272e+003;8.904490e-002
1.155200e+003;9.227946e-002
1.157129e+003;9.611887e-002
1.159057e+003;1.003239e-001
1.160986e+003;1.055947e-001
1.162914e+003;1.120747e-001
1.164843e+003;1.181348e-001
1.166771e+003;1.225604e-001
1.168700e+003;1.249217e-001
1.170629e+003;1.240523e-001
1.172557e+003;1.201002e-001
1.174486e+003;1.150135e-001
1.176414e+003;1.099297e-001
1.178343e+003;1.055180e-001
1.180271e+003;1.023910e-001
1.182200e+003;1.011213e-001
1.184128e+003;1.015354e-001
1.186057e+003;1.033987e-001
1.187986e+003;1.062035e-001
1.189914e+003;1.092909e-001
1.191843e+003;1.132948e-001
1.193771e+003;1.182820e-001
1.195700e+003;1.234992e-001
1.197628e+003;1.279838e-001
1.199557e+003;1.302227e-001
1.201485e+003;1.286963e-001
1.203414e+003;1.250197e-001
1.205343e+003;1.215864e-001
1.207271e+003;1.195564e-001
1.209200e+003;1.186358e-001
1.211128e+003;1.182208e-001
1.213057e+003;1.173282e-001
1.214985e+003;1.151231e-001
1.216914e+003;1.122835e-001
1.218842e+003;1.092540e-001
1.220771e+003;1.068831e-001
1.222699e+003;1.070503e-001
1.224628e+003;1.094547e-001
1.226557e+003;1.128003e-001
1.228485e+003;1.169814e-001
1.230414e+003;1.214872e-001
1.232342e+003;1.256741e-001
1.234271e+003;1.291902e-001
1.236199e+003;1.313934e-001
1.238128e+003;1.319289e-001
1.240056e+003;1.317596e-001
1.241985e+003;1.314027e-001
1.243913e+003;1.310885e-001
1.245842e+003;1.312971e-001
1.247771e+003;1.323411e-001
1.249699e+003;1.340462e-001
1.251628e+003;1.363614e-001
1.253556e+003;1.393975e-001
1.255485e+003;1.426941e-001
1.257413e+003;1.454777e-001
1.259342e+003;1.474289e-001
1.261270e+003;1.484721e-001
1.263199e+003;1.477585e-001
1.265127e+003;1.442998e-001
1.267056e+003;1.383956e-001
1.268985e+003;1.321207e-001
1.270913e+003;1.274282e-001
1.272842e+003;1.246527e-001
1.274770e+003;1.231583e-001
1.276699e+003;1.229330e-001
1.278627e+003;1.230919e-001
1.280556e+003;1.221257e-001
1.282484e+003;1.200069e-001
1.284413e+003;1.177983e-001
1.286342e+003;1.158132e-001
1.288270e+003;1.145534e-001
1.290199e+003;1.142172e-001
1.292127e+003;1.138007e-001
1.294056e+003;1.129836e-001
1.295984e+003;1.124994e-001
1.297913e+003;1.120962e-001
1.299841e+003;1.117041e-001
1.301770e+003;1.111722e-001
1.303698e+003;1.104910e-001
1.305627e+003;1.097573e-001
1.307556e+003;1.087249e-001
1.309484e+003;1.077697e-001
1.311413e+003;1.070229e-001
1.313341e+003;1.060846e-001
1.315270e+003;1.050473e-001
1.317198e+003;1.038990e-001
1.319127e+003;1.029650e-001
1.321055e+003;1.023664e-001
1.322984e+003;1.018040e-001
1.324912e+003;1.012847e-001
1.326841e+003;1.014231e-001
1.328770e+003;1.018016e-001
1.330698e+003;1.023597e-001
1.332627e+003;1.026722e-001
1.334555e+003;1.027341e-001
1.336484e+003;1.029528e-001
1.338412e+003;1.033738e-001
1.340341e+003;1.039852e-001
1.342269e+003;1.049620e-001
1.344198e+003;1.060187e-001
1.346126e+003;1.069504e-001
1.348055e+003;1.077899e-001
1.349984e+003;1.087989e-001
1.351912e+003;1.102175e-001
1.353841e+003;1.116841e-001
1.355769e+003;1.131324e-001
1.357698e+003;1.148021e-001
1.359626e+003;1.166873e-001
1.361555e+003;1.185471e-001
1.363483e+003;1.205517e-001
1.365412e+003;1.225271e-001
1.367341e+003;1.240994e-001
1.369269e+003;1.255819e-001
1.371198e+003;1.264959e-001
1.373126e+003;1.261244e-001
1.375055e+003;1.247003e-001
1.376983e+003;1.225116e-001
1.378912e+003;1.194351e-001
1.380840e+003;1.161826e-001
1.382769e+003;1.130461e-001
1.384698e+003;1.097684e-001
1.386626e+003;1.062637e-001
1.388555e+003;1.036933e-001
1.390483e+003;1.019461e-001
1.392412e+003;1.006499e-001
1.394340e+003;9.952240e-002
1.396269e+003;9.900557e-002
1.398197e+003;9.969740e-002
1.400126e+003;1.015311e-001
1.402054e+003;1.040366e-001
1.403983e+003;1.073229e-001
1.405911e+003;1.118537e-001
1.407840e+003;1.175055e-001
1.409769e+003;1.241695e-001
1.411697e+003;1.309225e-001
1.413626e+003;1.366504e-001
1.415554e+003;1.403374e-001
1.417483e+003;1.407100e-001
1.419411e+003;1.383353e-001
1.421340e+003;1.352232e-001
1.423268e+003;1.319023e-001
1.425197e+003;1.295911e-001
1.427125e+003;1.292045e-001
1.429054e+003;1.306445e-001
1.430983e+003;1.332691e-001
1.432911e+003;1.354715e-001
1.434840e+003;1.360879e-001
1.436768e+003;1.356113e-001
1.438697e+003;1.354478e-001
1.440625e+003;1.348725e-001
1.442554e+003;1.340300e-001
1.444482e+003;1.334800e-001
1.446411e+003;1.336565e-001
1.448340e+003;1.348147e-001
1.450268e+003;1.367923e-001
1.452197e+003;1.389809e-001
1.454125e+003;1.410034e-001
1.456054e+003;1.427577e-001
1.457982e+003;1.476551e-001
1.459911e+003;1.546459e-001
1.461839e+003;1.589424e-001
1.463768e+003;1.576484e-001
1.465697e+003;1.515959e-001
1.467625e+003;1.439683e-001
1.469554e+003;1.377658e-001
1.471482e+003;1.345441e-001
1.473411e+003;1.345984e-001
1.475339e+003;1.356341e-001
1.477268e+003;1.347390e-001
1.479196e+003;1.314765e-001
1.481125e+003;1.259869e-001
1.483053e+003;1.195685e-001
1.484982e+003;1.138293e-001
1.486911e+003;1.104350e-001
1.488839e+003;1.096216e-001
1.490768e+003;1.110346e-001
1.492696e+003;1.136827e-001
1.494625e+003;1.160797e-001
1.496553e+003;1.194393e-001
1.498482e+003;1.244064e-001
1.500410e+003;1.296964e-001
1.502339e+003;1.350557e-001
1.504267e+003;1.396305e-001
1.506196e+003;1.445939e-001
1.508125e+003;1.521540e-001
1.510053e+003;1.601693e-001
1.511982e+003;1.677753e-001
1.513910e+003;1.756386e-001
1.515839e+003;1.832740e-001
1.517767e+003;1.912573e-001
1.519696e+003;1.996510e-001
1.521624e+003;2.091837e-001
1.523553e+003;2.199486e-001
1.525481e+003;2.300499e-001
1.527410e+003;2.401950e-001
1.529339e+003;2.502770e-001
1.531267e+003;2.591466e-001
1.533196e+003;2.664700e-001
1.535124e+003;2.727959e-001
1.537053e+003;2.755565e-001
1.538981e+003;2.743934e-001
1.540910e+003;2.718803e-001
1.542838e+003;2.674834e-001
1.544767e+003;2.601531e-001
1.546695e+003;2.506162e-001
1.548624e+003;2.397032e-001
1.550553e+003;2.283535e-001
1.552481e+003;2.170627e-001
1.554410e+003;2.058742e-001
1.556338e+003;1.954337e-001
1.558267e+003;1.849850e-001
1.560195e+003;1.765077e-001
1.562124e+003;1.698986e-001
1.564052e+003;1.623879e-001
1.565981e+003;1.545609e-001
1.567910e+003;1.467108e-001
1.569838e+003;1.388848e-001
1.571767e+003;1.321730e-001
1.573695e+003;1.254999e-001
1.575624e+003;1.187013e-001
1.577552e+003;1.144527e-001
1.579481e+003;1.116046e-001
1.581409e+003;1.085463e-001
1.583338e+003;1.060021e-001
1.585266e+003;1.044892e-001
1.587195e+003;1.040861e-001
1.589124e+003;1.043494e-001
1.591052e+003;1.053994e-001
1.592981e+003;1.073546e-001
1.594909e+003;1.098024e-001
1.596838e+003;1.129388e-001
1.598766e+003;1.172865e-001
1.600695e+003;1.225092e-001
1.602623e+003;1.288594e-001
1.604552e+003;1.361141e-001
1.606480e+003;1.439552e-001
1.608409e+003;1.526809e-001
1.610338e+003;1.622147e-001
1.612266e+003;1.726392e-001
1.614195e+003;1.838455e-001
1.616123e+003;1.965885e-001
1.618052e+003;2.127347e-001
1.619980e+003;2.304090e-001
1.621909e+003;2.476863e-001
1.623837e+003;2.649703e-001
1.625766e+003;2.827608e-001
1.627694e+003;3.006899e-001
1.629623e+003;3.191926e-001
1.631552e+003;3.366575e-001
1.633480e+003;3.495281e-001
1.635409e+003;3.557957e-001
1.637337e+003;3.546283e-001
1.639266e+003;3.441051e-001
1.641194e+003;3.257030e-001
1.643123e+003;3.034754e-001
1.645051e+003;2.797320e-001
1.646980e+003;2.575097e-001
1.648909e+003;2.384544e-001
1.650837e+003;2.202482e-001
1.652766e+003;2.035946e-001
1.654694e+003;1.926167e-001
1.656623e+003;1.837619e-001
1.658551e+003;1.741308e-001
1.660480e+003;1.645215e-001
1.662408e+003;1.549016e-001
1.664337e+003;1.458402e-001
1.666266e+003;1.367644e-001
1.668194e+003;1.274885e-001
1.670123e+003;1.191138e-001
1.672051e+003;1.120340e-001
1.673980e+003;1.048878e-001
1.675908e+003;9.785615e-002
1.677837e+003;9.156792e-002
1.679765e+003;8.452149e-002
1.681694e+003;7.694983e-002
1.683622e+003;6.916676e-002
1.685551e+003;6.386542e-002
1.687479e+003;6.054062e-002
1.689408e+003;5.719349e-002
1.691337e+003;5.434626e-002
1.693265e+003;5.133400e-002
1.695194e+003;4.855371e-002
1.697122e+003;4.769673e-002
1.699051e+003;4.638860e-002
1.700979e+003;4.555373e-002
1.702908e+003;4.635940e-002
1.704836e+003;4.623175e-002
1.706765e+003;4.620621e-002
1.708693e+003;4.620584e-002
1.710622e+003;4.632796e-002
1.712551e+003;4.623263e-002
1.714479e+003;4.569550e-002
1.716408e+003;4.492170e-002
1.718336e+003;4.535550e-002
1.720265e+003;4.667377e-002
1.722193e+003;4.720827e-002
1.724122e+003;4.729125e-002
1.726050e+003;4.763309e-002
1.727979e+003;4.766925e-002
1.729908e+003;4.733355e-002
1.731836e+003;4.630680e-002
1.733765e+003;4.511892e-002
1.735693e+003;4.575208e-002
1.737622e+003;4.634746e-002
1.739550e+003;4.589734e-002
1.741479e+003;4.564176e-002
1.743407e+003;4.498858e-002
1.745336e+003;4.410962e-002
1.747265e+003;4.296376e-002
1.749193e+003;4.167077e-002
1.751122e+003;4.064315e-002
1.753050e+003;4.006760e-002
1.754979e+003;3.923937e-002
1.756907e+003;3.844979e-002
1.758836e+003;3.795925e-002
1.760764e+003;3.712605e-002
1.762693e+003;3.630662e-002
1.764621e+003;3.598883e-002
1.766550e+003;3.539295e-002
1.768479e+003;3.474110e-002
1.770407e+003;3.400802e-002
1.772336e+003;3.315053e-002
1.774264e+003;3.324760e-002
1.776193e+003;3.353464e-002
1.778121e+003;3.336859e-002
1.780050e+003;3.298133e-002
1.781978e+003;3.256264e-002
1.783907e+003;3.213150e-002
1.785835e+003;3.206008e-002
1.787764e+003;3.223844e-002
1.789693e+003;3.176356e-002
1.791621e+003;3.078391e-002
1.793550e+003;3.068330e-002
1.795478e+003;3.101136e-002
1.797407e+003;3.074813e-002
1.799335e+003;3.037888e-002
1.801264e+003;3.012264e-002
1.803192e+003;3.018501e-002
1.805121e+003;3.036487e-002
1.807049e+003;3.037582e-002
1.808978e+003;3.000180e-002
1.810907e+003;2.977812e-002
1.812835e+003;2.971882e-002
1.814764e+003;2.957338e-002
1.816692e+003;2.935806e-002
1.818621e+003;2.938461e-002
1.820549e+003;2.944585e-002
1.822478e+003;2.940440e-002
1.824406e+003;2.913793e-002
1.826335e+003;2.885894e-002
1.828264e+003;2.863160e-002
1.830192e+003;2.867297e-002
1.832121e+003;2.890240e-002
1.834049e+003;2.905205e-002
1.835978e+003;2.901142e-002
1.837906e+003;2.861974e-002
1.839835e+003;2.839751e-002
1.841763e+003;2.816071e-002
1.843692e+003;2.783374e-002
1.845620e+003;2.817595e-002
1.847549e+003;2.817309e-002
1.849478e+003;2.786812e-002
1.851406e+003;2.799285e-002
1.853335e+003;2.807874e-002
1.855263e+003;2.778531e-002
1.857192e+003;2.761308e-002
1.859120e+003;2.751867e-002
1.861049e+003;2.750730e-002
1.862977e+003;2.759189e-002
1.864906e+003;2.753540e-002
1.866834e+003;2.730741e-002
1.868763e+003;2.711952e-002
1.870692e+003;2.719419e-002
1.872620e+003;2.743244e-002
1.874549e+003;2.752330e-002
1.876477e+003;2.754070e-002
1.878406e+003;2.763935e-002
1.880334e+003;2.768296e-002
1.882263e+003;2.762431e-002
1.884191e+003;2.745386e-002
1.886120e+003;2.737414e-002
1.888048e+003;2.733521e-002
1.889977e+003;2.735868e-002
1.891906e+003;2.747320e-002
1.893834e+003;2.751892e-002
1.895763e+003;2.757735e-002
1.897691e+003;2.766502e-002
1.899620e+003;2.777984e-002
1.901548e+003;2.796985e-002
1.903477e+003;2.788412e-002
1.905405e+003;2.763839e-002
1.907334e+003;2.769694e-002
1.909262e+003;2.771241e-002
1.911191e+003;2.741070e-002
1.913120e+003;2.723945e-002
1.915048e+003;2.713589e-002
1.916977e+003;2.684814e-002
1.918905e+003;2.676846e-002
1.920834e+003;2.688967e-002
1.922762e+003;2.697798e-002
1.924691e+003;2.699617e-002
1.926619e+003;2.705178e-002
1.928548e+003;2.723363e-002
1.930477e+003;2.712446e-002
1.932405e+003;2.699564e-002
1.934334e+003;2.709265e-002
1.936262e+003;2.705216e-002
1.938191e+003;2.702910e-002
1.940119e+003;2.678069e-002
1.942048e+003;2.633792e-002
1.943976e+003;2.641528e-002
1.945905e+003;2.679968e-002
1.947833e+003;2.681166e-002
1.949762e+003;2.674752e-002
1.951691e+003;2.675073e-002
1.953619e+003;2.694124e-002
1.955548e+003;2.703640e-002
1.957476e+003;2.702515e-002
1.959405e+003;2.696684e-002
1.961333e+003;2.703168e-002
1.963262e+003;2.715857e-002
1.965190e+003;2.721765e-002
1.967119e+003;2.726687e-002
1.969047e+003;2.755154e-002
1.970976e+003;2.771725e-002
1.972905e+003;2.753777e-002
1.974833e+003;2.744398e-002
1.976762e+003;2.745460e-002
1.978690e+003;2.727484e-002
1.980619e+003;2.725819e-002
1.982547e+003;2.735939e-002
1.984476e+003;2.741225e-002
1.986404e+003;2.726475e-002
1.988333e+003;2.707935e-002
1.990261e+003;2.722693e-002
1.992190e+003;2.736048e-002
1.994119e+003;2.729174e-002
1.996047e+003;2.730430e-002
1.997976e+003;2.738829e-002
1.999904e+003;2.730035e-002
2.001833e+003;2.718516e-002
2.003761e+003;2.729358e-002
2.005690e+003;2.739294e-002
2.007618e+003;2.715180e-002
2.009547e+003;2.694522e-002
2.011476e+003;2.705692e-002
2.013404e+003;2.742054e-002
2.015333e+003;2.771121e-002
2.017261e+003;2.773240e-002
2.019190e+003;2.770796e-002
2.021118e+003;2.770263e-002
2.023047e+003;2.780718e-002
2.024975e+003;2.788112e-002
2.026904e+003;2.780050e-002
2.028833e+003;2.780760e-002
2.030761e+003;2.796755e-002
2.032690e+003;2.817083e-002
2.034618e+003;2.819395e-002
2.036547e+003;2.804986e-002
2.038475e+003;2.817185e-002
2.040404e+003;2.834162e-002
2.042332e+003;2.841052e-002
2.044261e+003;2.855420e-002
2.046189e+003;2.846815e-002
2.048118e+003;2.840402e-002
2.050047e+003;2.847392e-002
2.051975e+003;2.842949e-002
2.053904e+003;2.832136e-002
2.055832e+003;2.847643e-002
2.057761e+003;2.870256e-002
2.059689e+003;2.863227e-002
2.061618e+003;2.859246e-002
2.063546e+003;2.861606e-002
2.065475e+003;2.873835e-002
2.067404e+003;2.870338e-002
2.069332e+003;2.860452e-002
2.071260e+003;2.886065e-002
2.073189e+003;2.888207e-002
2.075118e+003;2.845457e-002
2.077046e+003;2.833427e-002
2.078975e+003;2.842039e-002
2.080903e+003;2.850902e-002
2.082832e+003;2.851535e-002
2.084760e+003;2.831506e-002
2.086689e+003;2.811352e-002
2.088617e+003;2.807690e-002
2.090546e+003;2.808779e-002
2.092475e+003;2.805318e-002
2.094403e+003;2.789398e-002
2.096332e+003;2.792529e-002
2.098260e+003;2.809903e-002
2.100189e+003;2.817988e-002
2.102117e+003;2.822969e-002
2.104046e+003;2.822549e-002
2.105974e+003;2.828397e-002
2.107903e+003;2.823005e-002
2.109832e+003;2.808231e-002
2.111760e+003;2.824455e-002
2.113688e+003;2.861539e-002
2.115617e+003;2.881614e-002
2.117546e+003;2.861033e-002
2.119474e+003;2.861886e-002
2.121403e+003;2.885725e-002
2.123331e+003;2.869467e-002
2.125260e+003;2.865156e-002
2.127188e+003;2.877230e-002
2.129117e+003;2.885941e-002
2.131045e+003;2.900451e-002
2.132974e+003;2.913747e-002
2.134903e+003;2.907019e-002
2.136831e+003;2.878038e-002
2.138760e+003;2.858368e-002
2.140688e+003;2.879086e-002
2.142617e+003;2.900553e-002
2.144545e+003;2.904007e-002
2.146474e+003;2.905010e-002
2.148402e+003;2.900090e-002
2.150331e+003;2.892811e-002
2.152260e+003;2.885721e-002
2.154188e+003;2.863712e-002
2.156117e+003;2.850063e-002
2.158045e+003;2.875906e-002
2.159974e+003;2.892032e-002
2.161902e+003;2.917315e-002
2.163831e+003;2.955248e-002
2.165759e+003;2.949014e-002
2.167688e+003;2.913736e-002
2.169616e+003;2.922720e-002
2.171545e+003;2.950287e-002
2.173474e+003;2.960647e-002
2.175402e+003;2.947014e-002
2.177331e+003;2.929415e-002
2.179259e+003;2.949372e-002
2.181188e+003;2.959338e-002
2.183116e+003;2.948329e-002
2.185045e+003;2.950351e-002
2.186973e+003;2.953397e-002
2.188902e+003;2.947393e-002
2.190831e+003;2.967433e-002
2.192759e+003;2.992090e-002
2.194688e+003;2.993417e-002
2.196616e+003;2.984430e-002
2.198545e+003;2.982251e-002
2.200473e+003;2.984096e-002
2.202402e+003;2.981438e-002
2.204330e+003;2.965333e-002
2.206259e+003;2.943759e-002
2.208188e+003;2.932999e-002
2.210116e+003;2.926760e-002
2.212044e+003;2.931641e-002
2.213973e+003;2.930818e-002
2.215902e+003;2.896469e-002
2.217830e+003;2.872752e-002
2.219759e+003;2.887272e-002
2.221687e+003;2.898524e-002
2.223616e+003;2.881221e-002
2.225544e+003;2.851585e-002
2.227473e+003;2.845089e-002
2.229401e+003;2.840688e-002
2.231330e+003;2.828419e-002
2.233259e+003;2.820753e-002
2.235187e+003;2.810390e-002
2.237116e+003;2.814795e-002
2.239044e+003;2.843593e-002
2.240973e+003;2.827064e-002
2.242901e+003;2.800473e-002
2.244830e+003;2.807598e-002
2.246758e+003;2.809196e-002
2.248687e+003;2.815863e-002
2.250615e+003;2.829897e-002
2.252544e+003;2.839581e-002
2.254473e+003;2.846178e-002
2.256401e+003;2.870855e-002
2.258330e+003;2.885859e-002
2.260258e+003;2.864806e-002
2.262187e+003;2.858828e-002
2.264115e+003;2.884963e-002
2.266044e+003;2.886047e-002
2.267972e+003;2.893923e-002
2.269901e+003;2.911316e-002
2.271830e+003;2.906367e-002
2.273758e+003;2.905219e-002
2.275687e+003;2.906640e-002
2.277615e+003;2.914137e-002
2.279544e+003;2.914183e-002
2.281472e+003;2.916521e-002
2.283401e+003;2.929184e-002
2.285329e+003;2.929085e-002
2.287258e+003;2.934353e-002
2.289187e+003;2.948627e-002
2.291115e+003;2.930861e-002
2.293043e+003;2.919282e-002
2.294972e+003;2.918860e-002
2.296901e+003;2.934480e-002
2.298829e+003;2.942394e-002
2.300758e+003;2.953869e-002
2.302686e+003;2.974863e-002
2.304615e+003;2.966259e-002
2.306543e+003;2.959682e-002
2.308472e+003;2.969012e-002
2.310400e+003;2.970498e-002
2.312329e+003;2.970140e-002
2.314258e+003;2.994546e-002
2.316186e+003;3.005073e-002
2.318115e+003;2.976381e-002
2.320043e+003;2.974430e-002
2.321972e+003;3.001380e-002
2.323900e+003;2.994820e-002
2.325829e+003;2.974898e-002
2.327757e+003;2.956188e-002
2.329686e+003;2.942794e-002
2.331615e+003;2.957756e-002
2.333543e+003;2.970878e-002
2.335472e+003;2.960409e-002
2.337400e+003;2.964084e-002
2.339329e+003;2.955663e-002
2.341257e+003;2.936037e-002
2.343186e+003;2.933732e-002
2.345114e+003;2.917581e-002
2.347043e+003;2.917538e-002
2.348971e+003;2.929518e-002
2.350900e+003;2.938490e-002
2.352829e+003;2.935512e-002
2.354757e+003;2.920313e-002
2.356686e+003;2.909166e-002
2.358614e+003;2.914597e-002
2.360543e+003;2.926707e-002
2.362471e+003;2.941833e-002
2.364400e+003;2.955703e-002
2.366328e+003;2.966603e-002
2.368257e+003;2.959349e-002
2.370186e+003;2.962023e-002
2.372114e+003;2.987422e-002
2.374042e+003;3.003074e-002
2.375971e+003;3.008319e-002
2.377900e+003;3.023093e-002
2.379828e+003;3.026141e-002
2.381757e+003;3.027520e-002
2.383685e+003;3.029843e-002
2.385614e+003;3.032888e-002
2.387542e+003;3.038723e-002
2.389471e+003;3.042621e-002
2.391399e+003;3.031627e-002
2.393328e+003;3.049292e-002
2.395257e+003;3.069539e-002
2.397185e+003;3.068913e-002
2.399114e+003;3.067416e-002
2.401042e+003;3.061450e-002
2.402971e+003;3.034448e-002
2.404899e+003;3.025342e-002
2.406828e+003;3.051720e-002
2.408756e+003;3.050117e-002
2.410685e+003;3.045400e-002
2.412614e+003;3.056953e-002
2.414542e+003;3.050010e-002
2.416471e+003;3.079882e-002
2.418399e+003;3.121791e-002
2.420328e+003;3.122365e-002
2.422256e+003;3.120521e-002
2.424185e+003;3.121080e-002
2.426113e+003;3.115586e-002
2.428042e+003;3.112874e-002
2.429970e+003;3.112037e-002
2.431899e+003;3.126890e-002
2.433828e+003;3.137941e-002
2.435756e+003;3.139650e-002
2.437685e+003;3.136178e-002
2.439613e+003;3.136687e-002
2.441542e+003;3.164105e-002
2.443470e+003;3.198143e-002
2.445399e+003;3.203100e-002
2.447327e+003;3.212518e-002
2.449256e+003;3.216325e-002
2.451185e+003;3.222235e-002
2.453113e+003;3.225457e-002
2.455042e+003;3.215612e-002
2.456970e+003;3.229415e-002
2.458899e+003;3.254339e-002
2.460827e+003;3.260550e-002
2.462756e+003;3.256621e-002
2.464684e+003;3.266443e-002
2.466613e+003;3.303535e-002
2.468542e+003;3.324105e-002
2.470470e+003;3.337023e-002
2.472398e+003;3.348811e-002
2.474327e+003;3.359610e-002
2.476256e+003;3.342688e-002
2.478184e+003;3.312478e-002
2.480113e+003;3.318533e-002
2.482041e+003;3.342688e-002
2.483970e+003;3.360162e-002
2.485898e+003;3.374906e-002
2.487827e+003;3.363760e-002
2.489755e+003;3.349799e-002
2.491684e+003;3.337803e-002
2.493613e+003;3.336973e-002
2.495541e+003;3.355461e-002
2.497470e+003;3.356006e-002
2.499398e+003;3.350164e-002
2.501327e+003;3.364043e-002
2.503255e+003;3.367168e-002
2.505184e+003;3.360792e-002
2.507112e+003;3.385014e-002
2.509041e+003;3.424183e-002
2.510969e+003;3.450025e-002
2.512898e+003;3.465235e-002
2.514827e+003;3.459820e-002
2.516755e+003;3.456763e-002
2.518684e+003;3.457520e-002
2.520612e+003;3.460850e-002
2.522541e+003;3.487465e-002
2.524469e+003;3.504049e-002
2.526398e+003;3.515343e-002
2.528326e+003;3.550117e-002
2.530255e+003;3.578484e-002
2.532184e+003;3.599966e-002
2.534112e+003;3.610803e-002
2.536041e+003;3.625723e-002
2.537969e+003;3.653362e-002
2.539898e+003;3.658448e-002
2.541826e+003;3.640227e-002
2.543755e+003;3.648100e-002
2.545683e+003;3.684950e-002
2.547612e+003;3.690032e-002
2.549541e+003;3.682613e-002
2.551469e+003;3.673604e-002
2.553397e+003;3.671585e-002
2.555326e+003;3.675267e-002
2.557255e+003;3.672696e-002
2.559183e+003;3.683640e-002
2.561112e+003;3.685592e-002
2.563040e+003;3.698463e-002
2.564969e+003;3.713944e-002
2.566897e+003;3.713655e-002
2.568826e+003;3.712103e-002
2.570754e+003;3.704561e-002
2.572683e+003;3.723921e-002
2.574612e+003;3.754339e-002
2.576540e+003;3.747884e-002
2.578469e+003;3.763364e-002
2.580397e+003;3.801292e-002
2.582326e+003;3.806102e-002
2.584254e+003;3.809614e-002
2.586183e+003;3.824653e-002
2.588111e+003;3.821100e-002
2.590040e+003;3.826984e-002
2.591969e+003;3.834974e-002
2.593897e+003;3.858825e-002
2.595826e+003;3.906272e-002
2.597754e+003;3.919016e-002
2.599683e+003;3.887551e-002
2.601611e+003;3.886464e-002
2.603540e+003;3.896597e-002
2.605468e+003;3.890367e-002
2.607397e+003;3.893078e-002
2.609325e+003;3.907751e-002
2.611254e+003;3.919448e-002
2.613183e+003;3.918320e-002
2.615111e+003;3.903698e-002
2.617040e+003;3.912903e-002
2.618968e+003;3.941585e-002
2.620897e+003;3.938225e-002
2.622825e+003;3.935029e-002
2.624754e+003;3.943370e-002
2.626682e+003;3.946156e-002
2.628611e+003;3.970489e-002
2.630540e+003;4.007999e-002
2.632468e+003;4.024655e-002
2.634396e+003;4.025310e-002
2.636325e+003;4.015369e-002
2.638254e+003;4.029850e-002
2.640182e+003;4.032421e-002
2.642111e+003;4.005405e-002
2.644039e+003;4.012781e-002
2.645968e+003;4.046075e-002
2.647896e+003;4.064806e-002
2.649825e+003;4.058046e-002
2.651753e+003;4.071345e-002
2.653682e+003;4.077230e-002
2.655611e+003;4.068729e-002
2.657539e+003;4.077845e-002
2.659468e+003;4.093523e-002
2.661396e+003;4.111950e-002
2.663325e+003;4.106498e-002
2.665253e+003;4.097813e-002
2.667182e+003;4.119731e-002
2.669110e+003;4.150198e-002
2.671039e+003;4.160739e-002
2.672968e+003;4.152685e-002
2.674896e+003;4.169258e-002
2.676825e+003;4.203067e-002
2.678753e+003;4.233461e-002
2.680682e+003;4.237695e-002
2.682610e+003;4.239229e-002
2.684539e+003;4.233424e-002
2.686467e+003;4.241870e-002
2.688396e+003;4.267305e-002
2.690324e+003;4.303740e-002
2.692253e+003;4.342755e-002
2.694182e+003;4.353910e-002
2.696110e+003;4.342139e-002
2.698039e+003;4.347057e-002
2.699967e+003;4.399910e-002
2.701896e+003;4.437642e-002
2.703824e+003;4.448924e-002
2.705753e+003;4.475072e-002
2.707681e+003;4.483951e-002
2.709610e+003;4.487404e-002
2.711539e+003;4.509767e-002
2.713467e+003;4.539788e-002
2.715396e+003;4.559977e-002
2.717324e+003;4.588434e-002
2.719253e+003;4.636921e-002
2.721181e+003;4.664418e-002
2.723110e+003;4.672036e-002
2.725038e+003;4.692386e-002
2.726967e+003;4.758211e-002
2.728896e+003;4.810433e-002
2.730824e+003;4.835974e-002
2.732752e+003;4.876415e-002
2.734681e+003;4.907217e-002
2.736610e+003;4.923929e-002
2.738538e+003;4.913457e-002
2.740467e+003;4.889937e-002
2.742395e+003;4.914348e-002
2.744324e+003;4.963048e-002
2.746252e+003;4.967156e-002
2.748181e+003;4.953028e-002
2.750109e+003;4.967134e-002
2.752038e+003;4.970091e-002
2.753967e+003;4.979469e-002
2.755895e+003;5.005347e-002
2.757824e+003;5.019966e-002
2.759752e+003;5.003228e-002
2.761681e+003;4.995785e-002
2.763609e+003;5.013729e-002
2.765538e+003;5.059771e-002
2.767466e+003;5.080132e-002
2.769395e+003;5.084412e-002
2.771323e+003;5.123575e-002
2.773252e+003;5.166217e-002
2.775181e+003;5.171928e-002
2.777109e+003;5.195348e-002
2.779038e+003;5.242494e-002
2.780966e+003;5.252470e-002
2.782895e+003;5.260137e-002
2.784823e+003;5.304804e-002
2.786752e+003;5.335376e-002
2.788680e+003;5.352966e-002
2.790609e+003;5.393663e-002
2.792538e+003;5.421245e-002
2.794466e+003;5.456885e-002
2.796395e+003;5.512581e-002
2.798323e+003;5.545600e-002
2.800252e+003;5.569512e-002
2.802180e+003;5.604523e-002
2.804109e+003;5.645811e-002
2.806037e+003;5.712058e-002
2.807966e+003;5.759823e-002
2.809895e+003;5.786083e-002
2.811823e+003;5.822660e-002
2.813751e+003;5.907950e-002
2.815680e+003;5.990087e-002
2.817609e+003;6.052862e-002
2.819537e+003;6.104081e-002
2.821466e+003;6.134339e-002
2.823394e+003;6.162175e-002
2.825323e+003;6.219659e-002
2.827251e+003;6.301840e-002
2.829180e+003;6.374706e-002
2.831108e+003;6.460362e-002
2.833037e+003;6.577908e-002
2.834966e+003;6.739798e-002
2.836894e+003;6.923570e-002
2.838823e+003;7.176757e-002
2.840751e+003;7.515945e-002
2.842680e+003;7.922831e-002
2.844608e+003;8.383697e-002
2.846537e+003;8.892448e-002
2.848465e+003;9.448846e-002
2.850394e+003;9.963121e-002
2.852323e+003;1.036097e-001
2.854251e+003;1.062811e-001
2.856180e+003;1.083320e-001
2.858108e+003;1.098308e-001
2.860037e+003;1.107178e-001
2.861965e+003;1.110490e-001
2.863894e+003;1.103913e-001
2.865822e+003;1.091288e-001
2.867751e+003;1.073650e-001
2.869679e+003;1.052377e-001
2.871608e+003;1.026453e-001
2.873536e+003;9.988910e-002
2.875465e+003;9.684540e-002
2.877394e+003;9.380879e-002
2.879322e+003;9.135634e-002
2.881251e+003;8.963247e-002
2.883179e+003;8.836800e-002
2.885108e+003;8.768765e-002
2.887036e+003;8.809064e-002
2.888965e+003;8.896071e-002
2.890893e+003;9.051067e-002
2.892822e+003;9.279334e-002
2.894750e+003;9.488796e-002
2.896679e+003;9.660545e-002
2.898608e+003;9.861632e-002
2.900536e+003;1.004279e-001
2.902465e+003;1.015881e-001
2.904393e+003;1.027578e-001
2.906322e+003;1.041838e-001
2.908250e+003;1.059057e-001
2.910179e+003;1.082028e-001
2.912107e+003;1.111440e-001
2.914036e+003;1.144352e-001
2.915965e+003;1.181060e-001
2.917893e+003;1.218297e-001
2.919822e+003;1.255095e-001
2.921750e+003;1.288957e-001
2.923679e+003;1.316475e-001
2.925607e+003;1.342164e-001
2.927536e+003;1.369082e-001
2.929464e+003;1.394045e-001
2.931393e+003;1.408238e-001
2.933322e+003;1.413185e-001
2.935250e+003;1.408632e-001
2.937178e+003;1.392306e-001
2.939107e+003;1.365502e-001
2.941036e+003;1.335571e-001
2.942964e+003;1.303933e-001
2.944893e+003;1.261878e-001
2.946821e+003;1.207062e-001
2.948750e+003;1.146534e-001
2.950678e+003;1.082614e-001
2.952607e+003;1.018229e-001
2.954535e+003;9.596147e-002
2.956464e+003;9.076998e-002
2.958393e+003;8.599074e-002
2.960321e+003;8.171445e-002
2.962250e+003;7.821108e-002
2.964178e+003;7.524168e-002
2.966107e+003;7.243222e-002
2.968035e+003;6.968947e-002
2.969964e+003;6.718346e-002
2.971892e+003;6.503595e-002
2.973821e+003;6.279348e-002
2.975750e+003;6.052291e-002
2.977678e+003;5.873293e-002
2.979607e+003;5.722206e-002
2.981535e+003;5.612931e-002
2.983464e+003;5.529542e-002
2.985392e+003;5.430744e-002
2.987321e+003;5.345205e-002
2.989249e+003;5.252369e-002
2.991178e+003;5.189814e-002
2.993106e+003;5.178034e-002
2.995035e+003;5.155389e-002
2.996964e+003;5.140396e-002
2.998892e+003;5.131561e-002
3.000821e+003;5.121241e-002
3.002749e+003;5.115325e-002
3.004678e+003;5.111068e-002
3.006606e+003;5.119619e-002
3.008535e+003;5.135693e-002
3.010463e+003;5.137577e-002
3.012392e+003;5.158493e-002
3.014321e+003;5.172323e-002
3.016249e+003;5.148431e-002
3.018177e+003;5.143638e-002
3.020106e+003;5.190755e-002
3.022035e+003;5.250092e-002
3.023963e+003;5.293683e-002
3.025892e+003;5.295068e-002
3.027820e+003;5.310350e-002
3.029749e+003;5.378010e-002
3.031677e+003;5.454796e-002
3.033606e+003;5.520560e-002
3.035534e+003;5.534318e-002
3.037463e+003;5.581085e-002
3.039392e+003;5.690341e-002
3.041320e+003;5.756240e-002
3.043249e+003;5.791800e-002
3.045177e+003;5.858369e-002
3.047106e+003;5.954456e-002
3.049034e+003;6.025001e-002
3.050963e+003;6.084221e-002
3.052891e+003;6.178965e-002
3.054820e+003;6.273337e-002
3.056749e+003;6.315918e-002
3.058677e+003;6.332321e-002
3.060606e+003;6.374373e-002
3.062534e+003;6.425907e-002
3.064463e+003;6.442849e-002
3.066391e+003;6.472352e-002
3.068320e+003;6.513942e-002
3.070248e+003;6.522770e-002
3.072177e+003;6.499801e-002
3.074105e+003;6.508210e-002
3.076034e+003;6.523829e-002
3.077963e+003;6.527260e-002
3.079891e+003;6.514878e-002
3.081820e+003;6.480522e-002
3.083748e+003;6.457432e-002
3.085677e+003;6.457625e-002
3.087605e+003;6.417590e-002
3.089534e+003;6.348207e-002
3.091462e+003;6.304507e-002
3.093391e+003;6.247102e-002
3.095320e+003;6.175210e-002
3.097248e+003;6.133950e-002
3.099177e+003;6.099574e-002
3.101105e+003;6.036114e-002
3.103034e+003;5.978161e-002
3.104962e+003;5.921964e-002
3.106891e+003;5.837154e-002
3.108819e+003;5.768790e-002
3.110748e+003;5.749635e-002
3.112677e+003;5.721775e-002
3.114605e+003;5.700941e-002
3.116533e+003;5.676496e-002
3.118462e+003;5.621860e-002
3.120391e+003;5.606148e-002
3.122319e+003;5.578764e-002
3.124248e+003;5.546119e-002
3.126176e+003;5.543970e-002
3.128105e+003;5.555445e-002
3.130033e+003;5.531977e-002
3.131962e+003;5.477978e-002
3.133890e+003;5.470950e-002
3.135819e+003;5.503734e-002
3.137748e+003;5.518638e-002
3.139676e+003;5.533310e-002
3.141605e+003;5.526201e-002
3.143533e+003;5.489835e-002
3.145462e+003;5.489658e-002
3.147390e+003;5.548969e-002
3.149319e+003;5.593472e-002
3.151247e+003;5.600192e-002
3.153176e+003;5.594033e-002
3.155104e+003;5.613511e-002
3.157033e+003;5.698980e-002
3.158962e+003;5.781348e-002
3.160890e+003;5.805727e-002
3.162819e+003;5.822808e-002
3.164747e+003;5.832565e-002
3.166676e+003;5.849785e-002
3.168604e+003;5.897310e-002
3.170533e+003;5.982991e-002
3.172461e+003;6.052089e-002
3.174390e+003;6.134961e-002
3.176319e+003;6.191573e-002
3.178247e+003;6.242450e-002
3.180176e+003;6.296972e-002
3.182104e+003;6.344852e-002
3.184033e+003;6.398416e-002
3.185961e+003;6.463384e-002
3.187890e+003;6.502230e-002
3.189818e+003;6.522994e-002
3.191747e+003;6.554185e-002
3.193676e+003;6.600220e-002
3.195604e+003;6.633362e-002
3.197532e+003;6.665773e-002
3.199461e+003;6.736672e-002
3.201390e+003;6.788614e-002
3.203318e+003;6.797092e-002
3.205247e+003;6.824247e-002
3.207175e+003;6.869017e-002
3.209104e+003;6.908455e-002
3.211032e+003;6.943560e-002
3.212961e+003;6.973822e-002
3.214889e+003;7.020565e-002
3.216818e+003;7.051485e-002
3.218747e+003;7.098042e-002
3.220675e+003;7.196501e-002
3.222604e+003;7.283425e-002
3.224532e+003;7.356232e-002
3.226461e+003;7.416502e-002
3.228389e+003;7.474774e-002
3.230318e+003;7.556489e-002
3.232246e+003;7.687587e-002
3.234175e+003;7.819422e-002
3.236104e+003;7.947309e-002
3.238032e+003;8.067427e-002
3.239961e+003;8.208771e-002
3.241889e+003;8.390196e-002
3.243818e+003;8.573563e-002
3.245746e+003;8.743439e-002
3.247675e+003;8.914302e-002
3.249603e+003;9.067823e-002
3.251532e+003;9.262426e-002
3.253460e+003;9.464962e-002
3.255389e+003;9.654590e-002
3.257318e+003;9.867296e-002
3.259246e+003;1.009504e-001
3.261175e+003;1.033691e-001
3.263103e+003;1.056828e-001
3.265032e+003;1.073718e-001
3.266960e+003;1.093337e-001
3.268889e+003;1.122336e-001
3.270817e+003;1.150531e-001
3.272746e+003;1.172034e-001
3.274675e+003;1.196661e-001
3.276603e+003;1.222075e-001
3.278531e+003;1.243645e-001
3.280460e+003;1.262391e-001
3.282389e+003;1.281573e-001
3.284317e+003;1.302321e-001
3.286246e+003;1.324752e-001
3.288174e+003;1.347671e-001
3.290103e+003;1.361113e-001
3.292031e+003;1.365721e-001
3.293960e+003;1.365885e-001
3.295888e+003;1.359942e-001
3.297817e+003;1.347481e-001
3.299746e+003;1.327882e-001
3.301674e+003;1.302865e-001
3.303603e+003;1.271930e-001
3.305531e+003;1.236967e-001
3.307460e+003;1.204411e-001
3.309388e+003;1.173395e-001
3.311317e+003;1.140260e-001
3.313245e+003;1.109873e-001
3.315174e+003;1.080967e-001
3.317103e+003;1.050384e-001
3.319031e+003;1.017511e-001
3.320960e+003;9.858996e-002
3.322888e+003;9.587349e-002
3.324817e+003;9.313165e-002
3.326745e+003;9.035683e-002
3.328674e+003;8.793750e-002
3.330602e+003;8.533854e-002
3.332531e+003;8.302040e-002
3.334459e+003;8.117448e-002
3.336388e+003;7.922275e-002
3.338317e+003;7.727883e-002
3.340245e+003;7.563319e-002
3.342174e+003;7.372629e-002
3.344102e+003;7.174916e-002
3.346031e+003;6.986768e-002
3.347959e+003;6.819843e-002
3.349888e+003;6.704827e-002
3.351816e+003;6.598978e-002
3.353745e+003;6.465503e-002
3.355674e+003;6.330359e-002
3.357602e+003;6.215056e-002
3.359531e+003;6.066622e-002
3.361459e+003;5.945591e-002
3.363388e+003;5.892388e-002
3.365316e+003;5.831860e-002
3.367245e+003;5.727782e-002
3.369173e+003;5.626993e-002
3.371102e+003;5.587675e-002
3.373031e+003;5.533573e-002
3.374959e+003;5.443144e-002
3.376887e+003;5.404836e-002
3.378816e+003;5.370548e-002
3.380745e+003;5.311802e-002
3.382673e+003;5.269795e-002
3.384602e+003;5.209025e-002
3.386530e+003;5.146827e-002
3.388459e+003;5.080892e-002
3.390387e+003;5.024020e-002
3.392316e+003;4.974661e-002
3.394244e+003;4.918738e-002
3.396173e+003;4.869009e-002
3.398102e+003;4.895863e-002
3.400030e+003;4.896256e-002
3.401959e+003;4.855141e-002
3.403887e+003;4.826660e-002
3.405816e+003;4.848631e-002
3.407744e+003;4.851091e-002
3.409673e+003;4.790920e-002
3.411601e+003;4.740679e-002
3.413530e+003;4.720624e-002
3.415458e+003;4.689640e-002
3.417387e+003;4.668351e-002
3.419316e+003;4.644302e-002
3.421244e+003;4.664794e-002
3.423173e+003;4.663536e-002
3.425101e+003;4.634152e-002
3.427030e+003;4.652840e-002
3.428958e+003;4.641526e-002
3.430887e+003;4.598828e-002
3.432815e+003;4.595056e-002
3.434744e+003;4.579607e-002
3.436673e+003;4.568648e-002
3.438601e+003;4.588305e-002
3.440530e+003;4.582549e-002
3.442458e+003;4.552867e-002
3.444387e+003;4.526746e-002
3.446315e+003;4.496587e-002
3.448244e+003;4.491486e-002
3.450172e+003;4.522377e-002
3.452101e+003;4.519700e-002
3.454030e+003;4.451769e-002
3.455958e+003;4.416571e-002
3.457886e+003;4.437135e-002
3.459815e+003;4.416784e-002
3.461744e+003;4.353412e-002
3.463672e+003;4.336284e-002
3.465601e+003;4.346801e-002
3.467529e+003;4.350365e-002
3.469458e+003;4.336215e-002
3.471386e+003;4.312690e-002
3.473315e+003;4.281114e-002
3.475243e+003;4.260269e-002
3.477172e+003;4.244972e-002
3.479101e+003;4.238162e-002
3.481029e+003;4.246466e-002
3.482958e+003;4.264893e-002
3.484886e+003;4.280785e-002
3.486815e+003;4.279944e-002
3.488743e+003;4.286252e-002
3.490672e+003;4.263438e-002
3.492600e+003;4.272164e-002
3.494529e+003;4.290103e-002
3.496458e+003;4.229695e-002
3.498386e+003;4.201727e-002
3.500315e+003;4.210335e-002
3.502243e+003;4.224151e-002
3.504172e+003;4.214610e-002
3.506100e+003;4.176809e-002
3.508029e+003;4.138122e-002
3.509957e+003;4.075708e-002
3.511886e+003;4.058257e-002
3.513814e+003;4.081142e-002
3.515743e+003;4.083166e-002
3.517672e+003;4.063856e-002
3.519600e+003;4.050873e-002
3.521529e+003;4.031007e-002
3.523457e+003;4.018142e-002
3.525386e+003;4.005175e-002
3.527314e+003;3.998741e-002
3.529243e+003;3.992591e-002
3.531171e+003;3.965897e-002
3.533100e+003;3.954764e-002
3.535029e+003;3.967948e-002
3.536957e+003;3.942637e-002
3.538885e+003;3.901679e-002
3.540814e+003;3.837088e-002
3.542743e+003;3.788245e-002
3.544671e+003;3.793709e-002
3.546600e+003;3.790198e-002
3.548528e+003;3.757663e-002
3.550457e+003;3.686951e-002
3.552385e+003;3.644943e-002
3.554314e+003;3.649502e-002
3.556242e+003;3.623612e-002
3.558171e+003;3.589427e-002
3.560100e+003;3.608581e-002
3.562028e+003;3.595812e-002
3.563957e+003;3.546841e-002
3.565885e+003;3.471540e-002
3.567814e+003;3.424254e-002
3.569742e+003;3.441542e-002
3.571671e+003;3.431594e-002
3.573599e+003;3.391759e-002
3.575528e+003;3.380171e-002
3.577457e+003;3.353997e-002
3.579385e+003;3.313977e-002
3.581314e+003;3.286617e-002
3.583242e+003;3.272806e-002
3.585171e+003;3.223152e-002
3.587099e+003;3.166996e-002
3.589028e+003;3.165463e-002
3.590956e+003;3.146999e-002
3.592885e+003;3.115038e-002
3.594813e+003;3.092158e-002
3.596742e+003;3.068053e-002
3.598671e+003;3.061784e-002
3.600599e+003;3.047451e-002
3.602528e+003;3.017126e-002
3.604456e+003;2.959544e-002
3.606385e+003;2.890261e-002
3.608313e+003;2.842153e-002
3.610242e+003;2.847095e-002
3.612170e+003;2.856666e-002
3.614099e+003;2.863800e-002
3.616028e+003;2.762681e-002
3.617956e+003;2.678911e-002
3.619885e+003;2.713081e-002
3.621813e+003;2.749908e-002
3.623742e+003;2.773986e-002
3.625670e+003;2.756015e-002
3.627599e+003;2.613237e-002
3.629527e+003;2.587339e-002
3.631456e+003;2.666542e-002
3.633385e+003;2.623922e-002
3.635313e+003;2.586421e-002
3.637241e+003;2.600687e-002
3.639170e+003;2.584321e-002
3.641099e+003;2.550470e-002
3.643027e+003;2.518450e-002
3.644956e+003;2.447364e-002
3.646884e+003;2.358293e-002
3.648813e+003;2.331365e-002
3.650741e+003;2.369748e-002
3.652670e+003;2.388032e-002
3.654598e+003;2.372222e-002
3.656527e+003;2.382491e-002
3.658456e+003;2.402223e-002
3.660384e+003;2.375851e-002
3.662313e+003;2.368789e-002
3.664241e+003;2.400213e-002
3.666170e+003;2.411143e-002
3.668098e+003;2.318179e-002
3.670027e+003;2.231263e-002
3.671955e+003;2.256092e-002
3.673884e+003;2.174724e-002
3.675813e+003;2.147230e-002
3.677741e+003;2.258524e-002
3.679669e+003;2.254420e-002
3.681598e+003;2.217237e-002
3.683527e+003;2.199084e-002
3.685455e+003;2.170300e-002
3.687384e+003;2.089001e-002
3.689312e+003;2.083641e-002
3.691241e+003;2.116257e-002
3.693169e+003;2.121381e-002
3.695098e+003;2.106183e-002
3.697026e+003;2.106976e-002
3.698955e+003;2.092680e-002
3.700884e+003;2.043783e-002
3.702812e+003;2.033511e-002
3.704741e+003;2.028622e-002
3.706669e+003;2.002969e-002
3.708598e+003;1.989027e-002
3.710526e+003;1.946223e-002
3.712455e+003;1.948008e-002
3.714383e+003;2.004899e-002
3.716312e+003;2.034792e-002
3.718240e+003;2.019326e-002
3.720169e+003;1.976298e-002
3.722098e+003;1.943067e-002
3.724026e+003;1.955005e-002
3.725955e+003;1.960794e-002
3.727883e+003;1.964683e-002
3.729812e+003;1.950739e-002
3.731740e+003;1.904459e-002
3.733669e+003;1.889098e-002
3.735597e+003;1.862383e-002
3.737526e+003;1.916706e-002
3.739455e+003;1.990875e-002
3.741383e+003;1.957414e-002
3.743312e+003;1.809288e-002
3.745240e+003;1.823408e-002
3.747169e+003;1.878482e-002
3.749097e+003;1.822530e-002
3.751026e+003;1.805940e-002
3.752954e+003;1.854674e-002
3.754883e+003;1.943974e-002
3.756812e+003;1.955913e-002
3.758740e+003;1.916571e-002
3.760668e+003;1.924446e-002
3.762597e+003;1.995628e-002
3.764526e+003;2.031799e-002
3.766454e+003;2.038015e-002
3.768383e+003;1.984108e-002
3.770311e+003;1.987348e-002
3.772240e+003;2.048826e-002
3.774168e+003;2.069418e-002
3.776097e+003;2.031122e-002
3.778025e+003;1.999264e-002
3.779954e+003;2.008861e-002
3.781883e+003;2.034938e-002
3.783811e+003;2.032098e-002
3.785740e+003;2.027619e-002
3.787668e+003;2.010843e-002
3.789597e+003;1.987743e-002
3.791525e+003;1.974214e-002
3.793454e+003;1.965415e-002
3.795382e+003;1.946223e-002
3.797311e+003;1.931699e-002
3.799240e+003;1.909916e-002
3.801168e+003;1.887554e-002
3.803097e+003;1.963196e-002
3.805025e+003;1.978684e-002
3.806954e+003;1.986800e-002
3.808882e+003;2.073154e-002
3.810811e+003;2.067298e-002
3.812739e+003;2.012721e-002
3.814668e+003;1.961924e-002
3.816596e+003;1.996440e-002
3.818525e+003;2.008459e-002
3.820454e+003;1.928034e-002
3.822382e+003;2.004791e-002
3.824311e+003;2.090816e-002
3.826239e+003;2.066736e-002
3.828168e+003;2.080836e-002
3.830096e+003;2.080676e-002
3.832025e+003;2.060123e-002
3.833953e+003;2.036341e-002
3.835882e+003;1.976708e-002
3.837811e+003;1.948718e-002
3.839739e+003;2.021346e-002
3.841667e+003;2.075813e-002
3.843596e+003;2.116674e-002
3.845525e+003;2.150958e-002
3.847453e+003;2.123970e-002
3.849382e+003;2.044415e-002
3.851310e+003;1.934613e-002
3.853239e+003;1.863683e-002
3.855167e+003;2.005076e-002
3.857096e+003;2.123925e-002
3.859024e+003;2.128410e-002
3.860953e+003;2.148918e-002
3.862882e+003;2.140560e-002
3.864810e+003;2.114865e-002
3.866739e+003;2.096863e-002
3.868667e+003;2.082195e-002
3.870596e+003;2.129934e-002
3.872524e+003;2.161659e-002
3.874453e+003;2.162132e-002
3.876381e+003;2.160635e-002
3.878310e+003;2.121969e-002
3.880239e+003;2.118000e-002
3.882167e+003;2.165486e-002
3.884096e+003;2.138614e-002
3.886024e+003;2.123041e-002
3.887953e+003;2.193650e-002
3.889881e+003;2.221254e-002
3.891810e+003;2.217149e-002
3.893738e+003;2.231312e-002
3.895667e+003;2.214778e-002
3.897595e+003;2.167816e-002
3.899524e+003;2.157003e-002
3.901453e+003;2.162216e-002
3.903381e+003;2.124649e-002
3.905310e+003;2.155530e-002
3.907238e+003;2.265495e-002
3.909167e+003;2.304145e-002
3.911095e+003;2.287311e-002
3.913024e+003;2.292463e-002
3.914952e+003;2.239140e-002
3.916881e+003;2.214025e-002
3.918810e+003;2.232697e-002
3.920738e+003;2.236381e-002
3.922667e+003;2.267618e-002
3.924595e+003;2.321346e-002
3.926524e+003;2.363562e-002
3.928452e+003;2.366830e-002
3.930381e+003;2.318403e-002
3.932309e+003;2.299761e-002
3.934238e+003;2.336169e-002
3.936167e+003;2.334099e-002
3.938095e+003;2.293672e-002
3.940023e+003;2.317652e-002
3.941952e+003;2.349989e-002
3.943881e+003;2.364601e-002
3.945809e+003;2.416036e-002
3.947738e+003;2.429977e-002
3.949666e+003;2.401186e-002
3.951595e+003;2.424419e-002
3.953523e+003;2.441689e-002
3.955452e+003;2.417171e-002
3.957380e+003;2.443242e-002
3.959309e+003;2.467560e-002
3.961238e+003;2.437508e-002
3.963166e+003;2.397338e-002
3.965095e+003;2.429539e-002
3.967023e+003;2.480398e-002
3.968952e+003;2.514286e-002
3.970880e+003;2.534700e-002
3.972809e+003;2.511800e-002
3.974737e+003;2.508497e-002
3.976666e+003;2.519472e-002
3.978594e+003;2.516884e-002
3.980523e+003;2.523756e-002
3.982452e+003;2.534419e-002
3.984380e+003;2.504916e-002
3.986309e+003;2.526362e-002
3.988237e+003;2.543703e-002
3.990166e+003;2.551591e-002
3.992094e+003;2.584831e-002
3.994023e+003;2.626520e-002
3.995951e+003;2.671362e-002
3.997880e+003;2.673265e-002
3.999809e+003;2.635405e-002
4.001737e+003;0.000000e+000
