3.992094e+002;0.000000e+000
4.011380e+002;0.000000e+000
4.030665e+002;0.000000e+000
4.049951e+002;0.000000e+000
4.069236e+002;0.000000e+000
4.088522e+002;0.000000e+000
4.107807e+002;0.000000e+000
4.127093e+002;0.000000e+000
4.146378e+002;0.000000e+000
4.165664e+002;0.000000e+000
4.184949e+002;0.000000e+000
4.204235e+002;0.000000e+000
4.223520e+002;0.000000e+000
4.242806e+002;0.000000e+000
4.262091e+002;0.000000e+000
4.281377e+002;0.000000e+000
4.300662e+002;0.000000e+000
4.319948e+002;0.000000e+000
4.339233e+002;0.000000e+000
4.358519e+002;0.000000e+000
4.377804e+002;0.000000e+000
4.397090e+002;0.000000e+000
4.416375e+002;0.000000e+000
4.435660e+002;0.000000e+000
4.454946e+002;0.000000e+000
4.474232e+002;0.000000e+000
4.493517e+002;0.000000e+000
4.512802e+002;0.000000e+000
4.532088e+002;0.000000e+000
4.551373e+002;0.000000e+000
4.570659e+002;0.000000e+000
4.589944e+002;0.000000e+000
4.609230e+002;0.000000e+000
4.628515e+002;0.000000e+000
4.647801e+002;0.000000e+000
4.667086e+002;0.000000e+000
4.686372e+002;0.000000e+000
4.705657e+002;0.000000e+000
4.724943e+002;0.000000e+000
4.744228e+002;0.000000e+000
4.763513e+002;0.000000e+000
4.782799e+002;0.000000e+000
4.802085e+002;0.000000e+000
4.821370e+002;0.000000e+000
4.840656e+002;0.000000e+000
4.859941e+002;0.000000e+000
4.879226e+002;0.000000e+000
4.898512e+002;0.000000e+000
4.917798e+002;0.000000e+000
4.937083e+002;0.000000e+000
4.956368e+002;0.000000e+000
4.975654e+002;0.000000e+000
4.994939e+002;0.000000e+000
5.014225e+002;0.000000e+000
5.033510e+002;0.000000e+000
5.052796e+002;0.000000e+000
5.072081e+002;0.000000e+000
5.091367e+002;0.000000e+000
5.110652e+002;0.000000e+000
5.129938e+002;0.000000e+000
5.149223e+002;0.000000e+000
5.168509e+002;0.000000e+000
5.187794e+002;0.000000e+000
5.207079e+002;0.000000e+000
5.226365e+002;0.000000e+000
5.245651e+002;0.000000e+000
5.264936e+002;0.000000e+000
5.284222e+002;0.000000e+000
5.303507e+002;0.000000e+000
5.322792e+002;0.000000e+000
5.342078e+002;0.000000e+000
5.361364e+002;0.000000e+000
5.380649e+002;0.000000e+000
5.399935e+002;0.000000e+000
5.419220e+002;0.000000e+000
5.438505e+002;0.000000e+000
5.457791e+002;0.000000e+000
5.477076e+002;0.000000e+000
5.496362e+002;0.000000e+000
5.515648e+002;0.000000e+000
5.534933e+002;0.000000e+000
5.554218e+002;0.000000e+000
5.573504e+002;0.000000e+000
5.592789e+002;0.000000e+000
5.612075e+002;0.000000e+000
5.631360e+002;0.000000e+000
5.650646e+002;0.000000e+000
5.669931e+002;0.000000e+000
5.689217e+002;0.000000e+000
5.708502e+002;0.000000e+000
5.727787e+002;0.000000e+000
5.747073e+002;0.000000e+000
5.766359e+002;0.000000e+000
5.785644e+002;0.000000e+000
5.804930e+002;0.000000e+000
5.824215e+002;0.000000e+000
5.843500e+002;0.000000e+000
5.862786e+002;0.000000e+000
5.882072e+002;0.000000e+000
5.901357e+002;0.000000e+000
5.920643e+002;0.000000e+000
5.939928e+002;0.000000e+000
5.959213e+002;0.000000e+000
5.978499e+002;0.000000e+000
5.997784e+002;1.257000e-001
6.017070e+002;1.242937e-001
6.036355e+002;1.194682e-001
6.055641e+002;1.128073e-001
6.074926e+002;1.101707e-001
6.094211e+002;1.151672e-001
6.113497e+002;1.179820e-001
6.132783e+002;1.154695e-001
6.152068e+002;1.148983e-001
6.171354e+002;1.146998e-001
6.190639e+002;1.152792e-001
6.209924e+002;1.167010e-001
6.229210e+002;1.178640e-001
6.248495e+002;1.195960e-001
6.267781e+002;1.233911e-001
6.287067e+002;1.289818e-001
6.306352e+002;1.306782e-001
6.325637e+002;1.263035e-001
6.344923e+002;1.233873e-001
6.364208e+002;1.223737e-001
6.383494e+002;1.213781e-001
6.402780e+002;1.241856e-001
6.422065e+002;1.292569e-001
6.441350e+002;1.346472e-001
6.460636e+002;1.373317e-001
6.479921e+002;1.359401e-001
6.499207e+002;1.320518e-001
6.518492e+002;1.307831e-001
6.537778e+002;1.325371e-001
6.557063e+002;1.343745e-001
6.576349e+002;1.386842e-001
6.595634e+002;1.423787e-001
6.614919e+002;1.451336e-001
6.634205e+002;1.473262e-001
6.653491e+002;1.493024e-001
6.672776e+002;1.493433e-001
6.692062e+002;1.486215e-001
6.711347e+002;1.495966e-001
6.730632e+002;1.491337e-001
6.749918e+002;1.491898e-001
6.769203e+002;1.512157e-001
6.788489e+002;1.528136e-001
6.807775e+002;1.526370e-001
6.827060e+002;1.531965e-001
6.846345e+002;1.541352e-001
6.865631e+002;1.528465e-001
6.884916e+002;1.520134e-001
6.904202e+002;1.520380e-001
6.923488e+002;1.514188e-001
6.942773e+002;1.493582e-001
6.962058e+002;1.469510e-001
6.981344e+002;1.450632e-001
7.000629e+002;1.435083e-001
7.019915e+002;1.424561e-001
7.039200e+002;1.412576e-001
7.058486e+002;1.392303e-001
7.077771e+002;1.378391e-001
7.097057e+002;1.375157e-001
7.116342e+002;1.370651e-001
7.135627e+002;1.366861e-001
7.154913e+002;1.358048e-001
7.174199e+002;1.346005e-001
7.193484e+002;1.343282e-001
7.212770e+002;1.344093e-001
7.232055e+002;1.334284e-001
7.251340e+002;1.327515e-001
7.270626e+002;1.322320e-001
7.289911e+002;1.304719e-001
7.309197e+002;1.266612e-001
7.328483e+002;1.218346e-001
7.347768e+002;1.162838e-001
7.367053e+002;1.105089e-001
7.386339e+002;1.063249e-001
7.405624e+002;1.038146e-001
7.424910e+002;1.020319e-001
7.444196e+002;1.004424e-001
7.463481e+002;9.824841e-002
7.482766e+002;9.514029e-002
7.502052e+002;9.247448e-002
7.521337e+002;9.025269e-002
7.540623e+002;8.850281e-002
7.559908e+002;8.725308e-002
7.579194e+002;8.543804e-002
7.598479e+002;8.384227e-002
7.617765e+002;8.323266e-002
7.637050e+002;8.186530e-002
7.656335e+002;7.999271e-002
7.675621e+002;7.811005e-002
7.694907e+002;7.657519e-002
7.714192e+002;7.582202e-002
7.733478e+002;7.515933e-002
7.752763e+002;7.441102e-002
7.772048e+002;7.319949e-002
7.791334e+002;7.161617e-002
7.810620e+002;7.052510e-002
7.829905e+002;6.937822e-002
7.849191e+002;6.822541e-002
7.868476e+002;6.648439e-002
7.887761e+002;6.600000e-002
7.907047e+002;6.640644e-002
7.926332e+002;6.600687e-002
7.945618e+002;6.458924e-002
7.964903e+002;6.237010e-002
7.984189e+002;6.036875e-002
8.003474e+002;5.949314e-002
8.022759e+002;5.876892e-002
8.042045e+002;5.731733e-002
8.061331e+002;5.666577e-002
8.080616e+002;5.661402e-002
8.099902e+002;5.634749e-002
8.119187e+002;5.622098e-002
8.138472e+002;5.627080e-002
8.157758e+002;5.639068e-002
8.177043e+002;5.750740e-002
8.196329e+002;5.871066e-002
8.215615e+002;5.961829e-002
8.234900e+002;6.087309e-002
8.254185e+002;6.181681e-002
8.273471e+002;6.264900e-002
8.292756e+002;6.408561e-002
8.312042e+002;6.542327e-002
8.331328e+002;6.487996e-002
8.350613e+002;6.328584e-002
8.369898e+002;6.086078e-002
8.389184e+002;5.787544e-002
8.408469e+002;5.559008e-002
8.427755e+002;5.382593e-002
8.447040e+002;5.178908e-002
8.466326e+002;5.007935e-002
8.485611e+002;4.872367e-002
8.504897e+002;4.776019e-002
8.524182e+002;4.737009e-002
8.543467e+002;4.667277e-002
8.562753e+002;4.592691e-002
8.582039e+002;4.559182e-002
8.601324e+002;4.573997e-002
8.620610e+002;4.636287e-002
8.639895e+002;4.682664e-002
8.659180e+002;4.724913e-002
8.678466e+002;4.730765e-002
8.697751e+002;4.684797e-002
8.717037e+002;4.693678e-002
8.736323e+002;4.741211e-002
8.755608e+002;4.817311e-002
8.774893e+002;4.883845e-002
8.794179e+002;4.962160e-002
8.813464e+002;5.094418e-002
8.832750e+002;5.167815e-002
8.852036e+002;5.171360e-002
8.871321e+002;5.179408e-002
8.890606e+002;5.165001e-002
8.909892e+002;5.148334e-002
8.929177e+002;5.142839e-002
8.948463e+002;5.137532e-002
8.967748e+002;5.100305e-002
8.987034e+002;5.095923e-002
9.006319e+002;5.116134e-002
9.025605e+002;5.163949e-002
9.044890e+002;5.272305e-002
9.064175e+002;5.381074e-002
9.083461e+002;5.422732e-002
9.102747e+002;5.458222e-002
9.122032e+002;5.501451e-002
9.141318e+002;5.532602e-002
9.160603e+002;5.588222e-002
9.179888e+002;5.637307e-002
9.199174e+002;5.640906e-002
9.218459e+002;5.692131e-002
9.237745e+002;5.809382e-002
9.257031e+002;5.924664e-002
9.276316e+002;5.995880e-002
9.295601e+002;6.027232e-002
9.314887e+002;6.015402e-002
9.334172e+002;5.954684e-002
9.353458e+002;5.878565e-002
9.372744e+002;5.793424e-002
9.392029e+002;5.769812e-002
9.411314e+002;5.792477e-002
9.430600e+002;5.829817e-002
9.449885e+002;5.931083e-002
9.469171e+002;6.070345e-002
9.488456e+002;6.225150e-002
9.507742e+002;6.376269e-002
9.527027e+002;6.483926e-002
9.546313e+002;6.549003e-002
9.565598e+002;6.612314e-002
9.584883e+002;6.662466e-002
9.604169e+002;6.682044e-002
9.623455e+002;6.640520e-002
9.642740e+002;6.557330e-002
9.662026e+002;6.484272e-002
9.681311e+002;6.434371e-002
9.700596e+002;6.397905e-002
9.719882e+002;6.348407e-002
9.739167e+002;6.279428e-002
9.758453e+002;6.213538e-002
9.777739e+002;6.202040e-002
9.797024e+002;6.200381e-002
9.816309e+002;6.204360e-002
9.835595e+002;6.199838e-002
9.854880e+002;6.208155e-002
9.874166e+002;6.283645e-002
9.893452e+002;6.340043e-002
9.912737e+002;6.290966e-002
9.932022e+002;6.130604e-002
9.951307e+002;5.875770e-002
9.970593e+002;5.649358e-002
9.989879e+002;5.518931e-002
1.000916e+003;5.455961e-002
1.002845e+003;5.434927e-002
1.004773e+003;5.422803e-002
1.006702e+003;5.420498e-002
1.008631e+003;5.432873e-002
1.010559e+003;5.410578e-002
1.012488e+003;5.415198e-002
1.014416e+003;5.465703e-002
1.016345e+003;5.484083e-002
1.018273e+003;5.510222e-002
1.020202e+003;5.608260e-002
1.022130e+003;5.696540e-002
1.024059e+003;5.732629e-002
1.025988e+003;5.887508e-002
1.027916e+003;6.128703e-002
1.029845e+003;6.376380e-002
1.031773e+003;6.643203e-002
1.033702e+003;6.936784e-002
1.035630e+003;7.160695e-002
1.037559e+003;7.329856e-002
1.039487e+003;7.637130e-002
1.041416e+003;8.090921e-002
1.043344e+003;8.441962e-002
1.045273e+003;8.584024e-002
1.047202e+003;8.443149e-002
1.049130e+003;8.016097e-002
1.051059e+003;7.486461e-002
1.052987e+003;7.049447e-002
1.054916e+003;6.741454e-002
1.056844e+003;6.575857e-002
1.058773e+003;6.508195e-002
1.060701e+003;6.542855e-002
1.062630e+003;6.620599e-002
1.064558e+003;6.673481e-002
1.066487e+003;6.754672e-002
1.068416e+003;6.844843e-002
1.070344e+003;6.898799e-002
1.072273e+003;6.925789e-002
1.074201e+003;6.931883e-002
1.076130e+003;6.902990e-002
1.078058e+003;6.882482e-002
1.079987e+003;6.882731e-002
1.081915e+003;6.881069e-002
1.083844e+003;6.875355e-002
1.085773e+003;6.933022e-002
1.087701e+003;6.913891e-002
1.089630e+003;6.909955e-002
1.091558e+003;6.993116e-002
1.093487e+003;7.116923e-002
1.095415e+003;7.224486e-002
1.097344e+003;7.321780e-002
1.099272e+003;7.482595e-002
1.101201e+003;7.653049e-002
1.103129e+003;7.746255e-002
1.105058e+003;7.864217e-002
1.106987e+003;7.998949e-002
1.108915e+003;8.065017e-002
1.110844e+003;8.115990e-002
1.112772e+003;8.148059e-002
1.114701e+003;8.136173e-002
1.116629e+003;8.133956e-002
1.118558e+003;8.099604e-002
1.120486e+003;7.995531e-002
1.122415e+003;7.811274e-002
1.124344e+003;7.564254e-002
1.126272e+003;7.254948e-002
1.128201e+003;6.948580e-002
1.130129e+003;6.727046e-002
1.132058e+003;6.646458e-002
1.133986e+003;6.642898e-002
1.135915e+003;6.704297e-002
1.137843e+003;6.870844e-002
1.139772e+003;7.110975e-002
1.141700e+003;7.352954e-002
1.143629e+003;7.579649e-002
1.145557e+003;7.772437e-002
1.147486e+003;7.996208e-002
1.149415e+003;8.300913e-002
1.151343e+003;8.608276e-002
1.153272e+003;8.866972e-002
1.155200e+003;9.090934e-002
1.157129e+003;9.367882e-002
1.159057e+003;9.737405e-002
1.160986e+003;1.024526e-001
1.162914e+003;1.081975e-001
1.164843e+003;1.126921e-001
1.166771e+003;1.159525e-001
1.168700e+003;1.179060e-001
1.170629e+003;1.174391e-001
1.172557e+003;1.153311e-001
1.174486e+003;1.124398e-001
1.176414e+003;1.092576e-001
1.178343e+003;1.071090e-001
1.180271e+003;1.057898e-001
1.182200e+003;1.057668e-001
1.184128e+003;1.075637e-001
1.186057e+003;1.102594e-001
1.187986e+003;1.133214e-001
1.189914e+003;1.166246e-001
1.191843e+003;1.197808e-001
1.193771e+003;1.226135e-001
1.195700e+003;1.251062e-001
1.197628e+003;1.267536e-001
1.199557e+003;1.267074e-001
1.201485e+003;1.247711e-001
1.203414e+003;1.220098e-001
1.205343e+003;1.192064e-001
1.207271e+003;1.167013e-001
1.209200e+003;1.149565e-001
1.211128e+003;1.137717e-001
1.213057e+003;1.125661e-001
1.214985e+003;1.108454e-001
1.216914e+003;1.086840e-001
1.218842e+003;1.069905e-001
1.220771e+003;1.064555e-001
1.222699e+003;1.070046e-001
1.224628e+003;1.083983e-001
1.226557e+003;1.111896e-001
1.228485e+003;1.145427e-001
1.230414e+003;1.176508e-001
1.232342e+003;1.203383e-001
1.234271e+003;1.224127e-001
1.236199e+003;1.239048e-001
1.238128e+003;1.242950e-001
1.240056e+003;1.238307e-001
1.241985e+003;1.230914e-001
1.243913e+003;1.222259e-001
1.245842e+003;1.221188e-001
1.247771e+003;1.229529e-001
1.249699e+003;1.242907e-001
1.251628e+003;1.263255e-001
1.253556e+003;1.285813e-001
1.255485e+003;1.306309e-001
1.257413e+003;1.321465e-001
1.259342e+003;1.325846e-001
1.261270e+003;1.317752e-001
1.263199e+003;1.296655e-001
1.265127e+003;1.262502e-001
1.267056e+003;1.216422e-001
1.268985e+003;1.165313e-001
1.270913e+003;1.128097e-001
1.272842e+003;1.111707e-001
1.274770e+003;1.108699e-001
1.276699e+003;1.114481e-001
1.278627e+003;1.121426e-001
1.280556e+003;1.124678e-001
1.282484e+003;1.123631e-001
1.284413e+003;1.115441e-001
1.286342e+003;1.106017e-001
1.288270e+003;1.098962e-001
1.290199e+003;1.096786e-001
1.292127e+003;1.100823e-001
1.294056e+003;1.101765e-001
1.295984e+003;1.098607e-001
1.297913e+003;1.093997e-001
1.299841e+003;1.087082e-001
1.301770e+003;1.073687e-001
1.303698e+003;1.055264e-001
1.305627e+003;1.037955e-001
1.307556e+003;1.023870e-001
1.309484e+003;1.015262e-001
1.311413e+003;1.015163e-001
1.313341e+003;1.021969e-001
1.315270e+003;1.031515e-001
1.317198e+003;1.043291e-001
1.319127e+003;1.058116e-001
1.321055e+003;1.069487e-001
1.322984e+003;1.077144e-001
1.324912e+003;1.086569e-001
1.326841e+003;1.093436e-001
1.328770e+003;1.094903e-001
1.330698e+003;1.093794e-001
1.332627e+003;1.086778e-001
1.334555e+003;1.069235e-001
1.336484e+003;1.048215e-001
1.338412e+003;1.029727e-001
1.340341e+003;1.014518e-001
1.342269e+003;1.003545e-001
1.344198e+003;9.968548e-002
1.346126e+003;9.934160e-002
1.348055e+003;9.936638e-002
1.349984e+003;9.968022e-002
1.351912e+003;1.002249e-001
1.353841e+003;1.012205e-001
1.355769e+003;1.022491e-001
1.357698e+003;1.032623e-001
1.359626e+003;1.044119e-001
1.361555e+003;1.055513e-001
1.363483e+003;1.069155e-001
1.365412e+003;1.084534e-001
1.367341e+003;1.097973e-001
1.369269e+003;1.108151e-001
1.371198e+003;1.114297e-001
1.373126e+003;1.113211e-001
1.375055e+003;1.101794e-001
1.376983e+003;1.084004e-001
1.378912e+003;1.062286e-001
1.380840e+003;1.036186e-001
1.382769e+003;1.010814e-001
1.384698e+003;9.854095e-002
1.386626e+003;9.559658e-002
1.388555e+003;9.293257e-002
1.390483e+003;9.105192e-002
1.392412e+003;8.981302e-002
1.394340e+003;8.889439e-002
1.396269e+003;8.872475e-002
1.398197e+003;8.992484e-002
1.400126e+003;9.208522e-002
1.402054e+003;9.465300e-002
1.403983e+003;9.785644e-002
1.405911e+003;1.021747e-001
1.407840e+003;1.075146e-001
1.409769e+003;1.138228e-001
1.411697e+003;1.205815e-001
1.413626e+003;1.264645e-001
1.415554e+003;1.304287e-001
1.417483e+003;1.318581e-001
1.419411e+003;1.304415e-001
1.421340e+003;1.274154e-001
1.423268e+003;1.245118e-001
1.425197e+003;1.226547e-001
1.427125e+003;1.222141e-001
1.429054e+003;1.229511e-001
1.430983e+003;1.248701e-001
1.432911e+003;1.272117e-001
1.434840e+003;1.286930e-001
1.436768e+003;1.289198e-001
1.438697e+003;1.282601e-001
1.440625e+003;1.269187e-001
1.442554e+003;1.256523e-001
1.444482e+003;1.246674e-001
1.446411e+003;1.242471e-001
1.448340e+003;1.251577e-001
1.450268e+003;1.272172e-001
1.452197e+003;1.302122e-001
1.454125e+003;1.340830e-001
1.456054e+003;1.382335e-001
1.457982e+003;1.426201e-001
1.459911e+003;1.467197e-001
1.461839e+003;1.484049e-001
1.463768e+003;1.463500e-001
1.465697e+003;1.411942e-001
1.467625e+003;1.349779e-001
1.469554e+003;1.302281e-001
1.471482e+003;1.277572e-001
1.473411e+003;1.269975e-001
1.475339e+003;1.265002e-001
1.477268e+003;1.246866e-001
1.479196e+003;1.215359e-001
1.481125e+003;1.174094e-001
1.483053e+003;1.127683e-001
1.484982e+003;1.085619e-001
1.486911e+003;1.059875e-001
1.488839e+003;1.054270e-001
1.490768e+003;1.065348e-001
1.492696e+003;1.092926e-001
1.494625e+003;1.133172e-001
1.496553e+003;1.180199e-001
1.498482e+003;1.229713e-001
1.500410e+003;1.278977e-001
1.502339e+003;1.327519e-001
1.504267e+003;1.376137e-001
1.506196e+003;1.429193e-001
1.508125e+003;1.486864e-001
1.510053e+003;1.548479e-001
1.511982e+003;1.612849e-001
1.513910e+003;1.675980e-001
1.515839e+003;1.734795e-001
1.517767e+003;1.792159e-001
1.519696e+003;1.846906e-001
1.521624e+003;1.904641e-001
1.523553e+003;1.967998e-001
1.525481e+003;2.028082e-001
1.527410e+003;2.084090e-001
1.529339e+003;2.135305e-001
1.531267e+003;2.181287e-001
1.533196e+003;2.220125e-001
1.535124e+003;2.246930e-001
1.537053e+003;2.258793e-001
1.538981e+003;2.249391e-001
1.540910e+003;2.225181e-001
1.542838e+003;2.188065e-001
1.544767e+003;2.132861e-001
1.546695e+003;2.063936e-001
1.548624e+003;1.988034e-001
1.550553e+003;1.905589e-001
1.552481e+003;1.821148e-001
1.554410e+003;1.742318e-001
1.556338e+003;1.669662e-001
1.558267e+003;1.593590e-001
1.560195e+003;1.517590e-001
1.562124e+003;1.445831e-001
1.564052e+003;1.377120e-001
1.565981e+003;1.312782e-001
1.567910e+003;1.250884e-001
1.569838e+003;1.191544e-001
1.571767e+003;1.140519e-001
1.573695e+003;1.099090e-001
1.575624e+003;1.059912e-001
1.577552e+003;1.027223e-001
1.579481e+003;1.005524e-001
1.581409e+003;9.898730e-002
1.583338e+003;9.798189e-002
1.585266e+003;9.742215e-002
1.587195e+003;9.750082e-002
1.589124e+003;9.853289e-002
1.591052e+003;9.970819e-002
1.592981e+003;1.011137e-001
1.594909e+003;1.028278e-001
1.596838e+003;1.050859e-001
1.598766e+003;1.082358e-001
1.600695e+003;1.123154e-001
1.602623e+003;1.178473e-001
1.604552e+003;1.246612e-001
1.606480e+003;1.320674e-001
1.608409e+003;1.399272e-001
1.610338e+003;1.482287e-001
1.612266e+003;1.567626e-001
1.614195e+003;1.661392e-001
1.616123e+003;1.763832e-001
1.618052e+003;1.873319e-001
1.619980e+003;1.988021e-001
1.621909e+003;2.103429e-001
1.623837e+003;2.217077e-001
1.625766e+003;2.324213e-001
1.627694e+003;2.430657e-001
1.629623e+003;2.537048e-001
1.631552e+003;2.636043e-001
1.633480e+003;2.716798e-001
1.635409e+003;2.758736e-001
1.637337e+003;2.747762e-001
1.639266e+003;2.686899e-001
1.641194e+003;2.588974e-001
1.643123e+003;2.467356e-001
1.645051e+003;2.331561e-001
1.646980e+003;2.190603e-001
1.648909e+003;2.057316e-001
1.650837e+003;1.937087e-001
1.652766e+003;1.824638e-001
1.654694e+003;1.725508e-001
1.656623e+003;1.639968e-001
1.658551e+003;1.559984e-001
1.660480e+003;1.482497e-001
1.662408e+003;1.403456e-001
1.664337e+003;1.328804e-001
1.666266e+003;1.256988e-001
1.668194e+003;1.181269e-001
1.670123e+003;1.105293e-001
1.672051e+003;1.037120e-001
1.673980e+003;9.734445e-002
1.675908e+003;9.069171e-002
1.677837e+003;8.386996e-002
1.679765e+003;7.734297e-002
1.681694e+003;7.084287e-002
1.683622e+003;6.447280e-002
1.685551e+003;5.883410e-002
1.687479e+003;5.408296e-002
1.689408e+003;4.984204e-002
1.691337e+003;4.659814e-002
1.693265e+003;4.408557e-002
1.695194e+003;4.193826e-002
1.697122e+003;4.031425e-002
1.699051e+003;3.893013e-002
1.700979e+003;3.785411e-002
1.702908e+003;3.722589e-002
1.704836e+003;3.660921e-002
1.706765e+003;3.614256e-002
1.708693e+003;3.551361e-002
1.710622e+003;3.499390e-002
1.712551e+003;3.477003e-002
1.714479e+003;3.444652e-002
1.716408e+003;3.386844e-002
1.718336e+003;3.372915e-002
1.720265e+003;3.369431e-002
1.722193e+003;3.340910e-002
1.724122e+003;3.309850e-002
1.726050e+003;3.300082e-002
1.727979e+003;3.279370e-002
1.729908e+003;3.242262e-002
1.731836e+003;3.199109e-002
1.733765e+003;3.143746e-002
1.735693e+003;3.121542e-002
1.737622e+003;3.085352e-002
1.739550e+003;2.999832e-002
1.741479e+003;2.919743e-002
1.743407e+003;2.842068e-002
1.745336e+003;2.780372e-002
1.747265e+003;2.716231e-002
1.749193e+003;2.633486e-002
1.751122e+003;2.554009e-002
1.753050e+003;2.483489e-002
1.754979e+003;2.422317e-002
1.756907e+003;2.374857e-002
1.758836e+003;2.333578e-002
1.760764e+003;2.273954e-002
1.762693e+003;2.202510e-002
1.764621e+003;2.139136e-002
1.766550e+003;2.090010e-002
1.768479e+003;2.054745e-002
1.770407e+003;1.993775e-002
1.772336e+003;1.923113e-002
1.774264e+003;1.885212e-002
1.776193e+003;1.867712e-002
1.778121e+003;1.826286e-002
1.780050e+003;1.774209e-002
1.781978e+003;1.732624e-002
1.783907e+003;1.698837e-002
1.785835e+003;1.686479e-002
1.787764e+003;1.666161e-002
1.789693e+003;1.631779e-002
1.791621e+003;1.610211e-002
1.793550e+003;1.580804e-002
1.795478e+003;1.560222e-002
1.797407e+003;1.563856e-002
1.799335e+003;1.540481e-002
1.801264e+003;1.502065e-002
1.803192e+003;1.495758e-002
1.805121e+003;1.479495e-002
1.807049e+003;1.447000e-002
1.808978e+003;1.416102e-002
1.810907e+003;1.418792e-002
1.812835e+003;1.430855e-002
1.814764e+003;1.403013e-002
1.816692e+003;1.375271e-002
1.818621e+003;1.361395e-002
1.820549e+003;1.359662e-002
1.822478e+003;1.359539e-002
1.824406e+003;1.361891e-002
1.826335e+003;1.365967e-002
1.828264e+003;1.360202e-002
1.830192e+003;1.332990e-002
1.832121e+003;1.308298e-002
1.834049e+003;1.294235e-002
1.835978e+003;1.286695e-002
1.837906e+003;1.286077e-002
1.839835e+003;1.301561e-002
1.841763e+003;1.303934e-002
1.843692e+003;1.287196e-002
1.845620e+003;1.254191e-002
1.847549e+003;1.214351e-002
1.849478e+003;1.206273e-002
1.851406e+003;1.216770e-002
1.853335e+003;1.207523e-002
1.855263e+003;1.186508e-002
1.857192e+003;1.168825e-002
1.859120e+003;1.149336e-002
1.861049e+003;1.153123e-002
1.862977e+003;1.148734e-002
1.864906e+003;1.133855e-002
1.866834e+003;1.114912e-002
1.868763e+003;1.130549e-002
1.870692e+003;1.165316e-002
1.872620e+003;1.167835e-002
1.874549e+003;1.141423e-002
1.876477e+003;1.118138e-002
1.878406e+003;1.124282e-002
1.880334e+003;1.128774e-002
1.882263e+003;1.116037e-002
1.884191e+003;1.130015e-002
1.886120e+003;1.137158e-002
1.888048e+003;1.133580e-002
1.889977e+003;1.132257e-002
1.891906e+003;1.139005e-002
1.893834e+003;1.153746e-002
1.895763e+003;1.137885e-002
1.897691e+003;1.116408e-002
1.899620e+003;1.128281e-002
1.901548e+003;1.143661e-002
1.903477e+003;1.122133e-002
1.905405e+003;1.100823e-002
1.907334e+003;1.115928e-002
1.909262e+003;1.126530e-002
1.911191e+003;1.120270e-002
1.913120e+003;1.120821e-002
1.915048e+003;1.125986e-002
1.916977e+003;1.116428e-002
1.918905e+003;1.102760e-002
1.920834e+003;1.105377e-002
1.922762e+003;1.089494e-002
1.924691e+003;1.094353e-002
1.926619e+003;1.116510e-002
1.928548e+003;1.131063e-002
1.930477e+003;1.151963e-002
1.932405e+003;1.146788e-002
1.934334e+003;1.130366e-002
1.936262e+003;1.130332e-002
1.938191e+003;1.108739e-002
1.940119e+003;1.108990e-002
1.942048e+003;1.112400e-002
1.943976e+003;1.095325e-002
1.945905e+003;1.089260e-002
1.947833e+003;1.103861e-002
1.949762e+003;1.112583e-002
1.951691e+003;1.113185e-002
1.953619e+003;1.107641e-002
1.955548e+003;1.111139e-002
1.957476e+003;1.104276e-002
1.959405e+003;1.099018e-002
1.961333e+003;1.095209e-002
1.963262e+003;1.091838e-002
1.965190e+003;1.108708e-002
1.967119e+003;1.140345e-002
1.969047e+003;1.136603e-002
1.970976e+003;1.118461e-002
1.972905e+003;1.129733e-002
1.974833e+003;1.129043e-002
1.976762e+003;1.126418e-002
1.978690e+003;1.129669e-002
1.980619e+003;1.121956e-002
1.982547e+003;1.137460e-002
1.984476e+003;1.151493e-002
1.986404e+003;1.147210e-002
1.988333e+003;1.135794e-002
1.990261e+003;1.135226e-002
1.992190e+003;1.139709e-002
1.994119e+003;1.131063e-002
1.996047e+003;1.138321e-002
1.997976e+003;1.150309e-002
1.999904e+003;1.151874e-002
2.001833e+003;1.172498e-002
2.003761e+003;1.185504e-002
2.005690e+003;1.175296e-002
2.007618e+003;1.184135e-002
2.009547e+003;1.202999e-002
2.011476e+003;1.198462e-002
2.013404e+003;1.201998e-002
2.015333e+003;1.227747e-002
2.017261e+003;1.231681e-002
2.019190e+003;1.203861e-002
2.021118e+003;1.207244e-002
2.023047e+003;1.214395e-002
2.024975e+003;1.218491e-002
2.026904e+003;1.228487e-002
2.028833e+003;1.227492e-002
2.030761e+003;1.239927e-002
2.032690e+003;1.267504e-002
2.034618e+003;1.274573e-002
2.036547e+003;1.289275e-002
2.038475e+003;1.295283e-002
2.040404e+003;1.277972e-002
2.042332e+003;1.281685e-002
2.044261e+003;1.300291e-002
2.046189e+003;1.315961e-002
2.048118e+003;1.338074e-002
2.050047e+003;1.330328e-002
2.051975e+003;1.316542e-002
2.053904e+003;1.332782e-002
2.055832e+003;1.342031e-002
2.057761e+003;1.328791e-002
2.059689e+003;1.318892e-002
2.061618e+003;1.339346e-002
2.063546e+003;1.345357e-002
2.065475e+003;1.346348e-002
2.067404e+003;1.362154e-002
2.069332e+003;1.368771e-002
2.071260e+003;1.374574e-002
2.073189e+003;1.376930e-002
2.075118e+003;1.366613e-002
2.077046e+003;1.360609e-002
2.078975e+003;1.348751e-002
2.080903e+003;1.340227e-002
2.082832e+003;1.345487e-002
2.084760e+003;1.329481e-002
2.086689e+003;1.309469e-002
2.088617e+003;1.311798e-002
2.090546e+003;1.320108e-002
2.092475e+003;1.321170e-002
2.094403e+003;1.327469e-002
2.096332e+003;1.320097e-002
2.098260e+003;1.309828e-002
2.100189e+003;1.323578e-002
2.102117e+003;1.328412e-002
2.104046e+003;1.341990e-002
2.105974e+003;1.351030e-002
2.107903e+003;1.346963e-002
2.109832e+003;1.358647e-002
2.111760e+003;1.362407e-002
2.113688e+003;1.377317e-002
2.115617e+003;1.380412e-002
2.117546e+003;1.361491e-002
2.119474e+003;1.365734e-002
2.121403e+003;1.377430e-002
2.123331e+003;1.387089e-002
2.125260e+003;1.409591e-002
2.127188e+003;1.403102e-002
2.129117e+003;1.406915e-002
2.131045e+003;1.429348e-002
2.132974e+003;1.423787e-002
2.134903e+003;1.407671e-002
2.136831e+003;1.416930e-002
2.138760e+003;1.411018e-002
2.140688e+003;1.388813e-002
2.142617e+003;1.384075e-002
2.144545e+003;1.393042e-002
2.146474e+003;1.405402e-002
2.148402e+003;1.430622e-002
2.150331e+003;1.430612e-002
2.152260e+003;1.417967e-002
2.154188e+003;1.420069e-002
2.156117e+003;1.435430e-002
2.158045e+003;1.456826e-002
2.159974e+003;1.486355e-002
2.161902e+003;1.504075e-002
2.163831e+003;1.495624e-002
2.165759e+003;1.478113e-002
2.167688e+003;1.473729e-002
2.169616e+003;1.475395e-002
2.171545e+003;1.481195e-002
2.173474e+003;1.504809e-002
2.175402e+003;1.521291e-002
2.177331e+003;1.519373e-002
2.179259e+003;1.501921e-002
2.181188e+003;1.497366e-002
2.183116e+003;1.513523e-002
2.185045e+003;1.528910e-002
2.186973e+003;1.542606e-002
2.188902e+003;1.552227e-002
2.190831e+003;1.549480e-002
2.192759e+003;1.527743e-002
2.194688e+003;1.509413e-002
2.196616e+003;1.526940e-002
2.198545e+003;1.554260e-002
2.200473e+003;1.554700e-002
2.202402e+003;1.534913e-002
2.204330e+003;1.520728e-002
2.206259e+003;1.515890e-002
2.208188e+003;1.511029e-002
2.210116e+003;1.508003e-002
2.212044e+003;1.515472e-002
2.213973e+003;1.515986e-002
2.215902e+003;1.495134e-002
2.217830e+003;1.492181e-002
2.219759e+003;1.524513e-002
2.221687e+003;1.517836e-002
2.223616e+003;1.480211e-002
2.225544e+003;1.461935e-002
2.227473e+003;1.451221e-002
2.229401e+003;1.453054e-002
2.231330e+003;1.467909e-002
2.233259e+003;1.464859e-002
2.235187e+003;1.467744e-002
2.237116e+003;1.491907e-002
2.239044e+003;1.497555e-002
2.240973e+003;1.482755e-002
2.242901e+003;1.472258e-002
2.244830e+003;1.468149e-002
2.246758e+003;1.483400e-002
2.248687e+003;1.509529e-002
2.250615e+003;1.516539e-002
2.252544e+003;1.497195e-002
2.254473e+003;1.483976e-002
2.256401e+003;1.499630e-002
2.258330e+003;1.513513e-002
2.260258e+003;1.521531e-002
2.262187e+003;1.539729e-002
2.264115e+003;1.533842e-002
2.266044e+003;1.534305e-002
2.267972e+003;1.549027e-002
2.269901e+003;1.560998e-002
2.271830e+003;1.562884e-002
2.273758e+003;1.579412e-002
2.275687e+003;1.577663e-002
2.277615e+003;1.560672e-002
2.279544e+003;1.567861e-002
2.281472e+003;1.576340e-002
2.283401e+003;1.599442e-002
2.285329e+003;1.617518e-002
2.287258e+003;1.609289e-002
2.289187e+003;1.598844e-002
2.291115e+003;1.615967e-002
2.293043e+003;1.628539e-002
2.294972e+003;1.621401e-002
2.296901e+003;1.611094e-002
2.298829e+003;1.594643e-002
2.300758e+003;1.616731e-002
2.302686e+003;1.652078e-002
2.304615e+003;1.651486e-002
2.306543e+003;1.643612e-002
2.308472e+003;1.638268e-002
2.310400e+003;1.619479e-002
2.312329e+003;1.625721e-002
2.314258e+003;1.647621e-002
2.316186e+003;1.651737e-002
2.318115e+003;1.644606e-002
2.320043e+003;1.645591e-002
2.321972e+003;1.631404e-002
2.323900e+003;1.605638e-002
2.325829e+003;1.583484e-002
2.327757e+003;1.578099e-002
2.329686e+003;1.567442e-002
2.331615e+003;1.567473e-002
2.333543e+003;1.576371e-002
2.335472e+003;1.573760e-002
2.337400e+003;1.565845e-002
2.339329e+003;1.561355e-002
2.341257e+003;1.552261e-002
2.343186e+003;1.547131e-002
2.345114e+003;1.583999e-002
2.347043e+003;1.631734e-002
2.348971e+003;1.639593e-002
2.350900e+003;1.610884e-002
2.352829e+003;1.588777e-002
2.354757e+003;1.579690e-002
2.356686e+003;1.567188e-002
2.358614e+003;1.540395e-002
2.360543e+003;1.521953e-002
2.362471e+003;1.550177e-002
2.364400e+003;1.581288e-002
2.366328e+003;1.589753e-002
2.368257e+003;1.590220e-002
2.370186e+003;1.622110e-002
2.372114e+003;1.663011e-002
2.374042e+003;1.677104e-002
2.375971e+003;1.686025e-002
2.377900e+003;1.682398e-002
2.379828e+003;1.697011e-002
2.381757e+003;1.727479e-002
2.383685e+003;1.765992e-002
2.385614e+003;1.792368e-002
2.387542e+003;1.776435e-002
2.389471e+003;1.763283e-002
2.391399e+003;1.760426e-002
2.393328e+003;1.741780e-002
2.395257e+003;1.740214e-002
2.397185e+003;1.745839e-002
2.399114e+003;1.765750e-002
2.401042e+003;1.800007e-002
2.402971e+003;1.813133e-002
2.404899e+003;1.813744e-002
2.406828e+003;1.793328e-002
2.408756e+003;1.766658e-002
2.410685e+003;1.769940e-002
2.412614e+003;1.797165e-002
2.414542e+003;1.815744e-002
2.416471e+003;1.821248e-002
2.418399e+003;1.828851e-002
2.420328e+003;1.849214e-002
2.422256e+003;1.864683e-002
2.424185e+003;1.874479e-002
2.426113e+003;1.881827e-002
2.428042e+003;1.881149e-002
2.429970e+003;1.867301e-002
2.431899e+003;1.871649e-002
2.433828e+003;1.879160e-002
2.435756e+003;1.887949e-002
2.437685e+003;1.904452e-002
2.439613e+003;1.925447e-002
2.441542e+003;1.932278e-002
2.443470e+003;1.920193e-002
2.445399e+003;1.923854e-002
2.447327e+003;1.955747e-002
2.449256e+003;1.999757e-002
2.451185e+003;2.017451e-002
2.453113e+003;2.010479e-002
2.455042e+003;2.015674e-002
2.456970e+003;2.011450e-002
2.458899e+003;2.006613e-002
2.460827e+003;2.018742e-002
2.462756e+003;2.034487e-002
2.464684e+003;2.042092e-002
2.466613e+003;2.053276e-002
2.468542e+003;2.070986e-002
2.470470e+003;2.071681e-002
2.472398e+003;2.079118e-002
2.474327e+003;2.093181e-002
2.476256e+003;2.079880e-002
2.478184e+003;2.093400e-002
2.480113e+003;2.118483e-002
2.482041e+003;2.121548e-002
2.483970e+003;2.121197e-002
2.485898e+003;2.133957e-002
2.487827e+003;2.138927e-002
2.489755e+003;2.118041e-002
2.491684e+003;2.094773e-002
2.493613e+003;2.088657e-002
2.495541e+003;2.076491e-002
2.497470e+003;2.069217e-002
2.499398e+003;2.093862e-002
2.501327e+003;2.109491e-002
2.503255e+003;2.121726e-002
2.505184e+003;2.143790e-002
2.507112e+003;2.167663e-002
2.509041e+003;2.178413e-002
2.510969e+003;2.174459e-002
2.512898e+003;2.189116e-002
2.514827e+003;2.198763e-002
2.516755e+003;2.224647e-002
2.518684e+003;2.255247e-002
2.520612e+003;2.255945e-002
2.522541e+003;2.276531e-002
2.524469e+003;2.298807e-002
2.526398e+003;2.309869e-002
2.528326e+003;2.343323e-002
2.530255e+003;2.383894e-002
2.532184e+003;2.399600e-002
2.534112e+003;2.417448e-002
2.536041e+003;2.442299e-002
2.537969e+003;2.440788e-002
2.539898e+003;2.442138e-002
2.541826e+003;2.443575e-002
2.543755e+003;2.457272e-002
2.545683e+003;2.497412e-002
2.547612e+003;2.502916e-002
2.549541e+003;2.485110e-002
2.551469e+003;2.471597e-002
2.553397e+003;2.467690e-002
2.555326e+003;2.467108e-002
2.557255e+003;2.482328e-002
2.559183e+003;2.509073e-002
2.561112e+003;2.525041e-002
2.563040e+003;2.522197e-002
2.564969e+003;2.511814e-002
2.566897e+003;2.522081e-002
2.568826e+003;2.542698e-002
2.570754e+003;2.540099e-002
2.572683e+003;2.553081e-002
2.574612e+003;2.577960e-002
2.576540e+003;2.597581e-002
2.578469e+003;2.595112e-002
2.580397e+003;2.601338e-002
2.582326e+003;2.630459e-002
2.584254e+003;2.635662e-002
2.586183e+003;2.636606e-002
2.588111e+003;2.664622e-002
2.590040e+003;2.676648e-002
2.591969e+003;2.669400e-002
2.593897e+003;2.677695e-002
2.595826e+003;2.687380e-002
2.597754e+003;2.672772e-002
2.599683e+003;2.665996e-002
2.601611e+003;2.693546e-002
2.603540e+003;2.715381e-002
2.605468e+003;2.716781e-002
2.607397e+003;2.723462e-002
2.609325e+003;2.740078e-002
2.611254e+003;2.762671e-002
2.613183e+003;2.750942e-002
2.615111e+003;2.747363e-002
2.617040e+003;2.777217e-002
2.618968e+003;2.806152e-002
2.620897e+003;2.812045e-002
2.622825e+003;2.812823e-002
2.624754e+003;2.806350e-002
2.626682e+003;2.810044e-002
2.628611e+003;2.832917e-002
2.630540e+003;2.846783e-002
2.632468e+003;2.853103e-002
2.634396e+003;2.859603e-002
2.636325e+003;2.852551e-002
2.638254e+003;2.879305e-002
2.640182e+003;2.900107e-002
2.642111e+003;2.881907e-002
2.644039e+003;2.860647e-002
2.645968e+003;2.843851e-002
2.647896e+003;2.888558e-002
2.649825e+003;2.950904e-002
2.651753e+003;2.972138e-002
2.653682e+003;2.986194e-002
2.655611e+003;2.975821e-002
2.657539e+003;2.948971e-002
2.659468e+003;2.955195e-002
2.661396e+003;2.963815e-002
2.663325e+003;2.969232e-002
2.665253e+003;2.979664e-002
2.667182e+003;2.995270e-002
2.669110e+003;3.023214e-002
2.671039e+003;3.040290e-002
2.672968e+003;3.051887e-002
2.674896e+003;3.065635e-002
2.676825e+003;3.067377e-002
2.678753e+003;3.080995e-002
2.680682e+003;3.091646e-002
2.682610e+003;3.123034e-002
2.684539e+003;3.173440e-002
2.686467e+003;3.186374e-002
2.688396e+003;3.194780e-002
2.690324e+003;3.225982e-002
2.692253e+003;3.262785e-002
2.694182e+003;3.295009e-002
2.696110e+003;3.299832e-002
2.698039e+003;3.298952e-002
2.699967e+003;3.319516e-002
2.701896e+003;3.365979e-002
2.703824e+003;3.420863e-002
2.705753e+003;3.450445e-002
2.707681e+003;3.427936e-002
2.709610e+003;3.394148e-002
2.711539e+003;3.439749e-002
2.713467e+003;3.529119e-002
2.715396e+003;3.569527e-002
2.717324e+003;3.582032e-002
2.719253e+003;3.590194e-002
2.721181e+003;3.625413e-002
2.723110e+003;3.675368e-002
2.725038e+003;3.685361e-002
2.726967e+003;3.693935e-002
2.728896e+003;3.738465e-002
2.730824e+003;3.774881e-002
2.732752e+003;3.800051e-002
2.734681e+003;3.836748e-002
2.736610e+003;3.868343e-002
2.738538e+003;3.907986e-002
2.740467e+003;3.924006e-002
2.742395e+003;3.933433e-002
2.744324e+003;3.950159e-002
2.746252e+003;3.961167e-002
2.748181e+003;3.974149e-002
2.750109e+003;3.992206e-002
2.752038e+003;4.024816e-002
2.753967e+003;4.038540e-002
2.755895e+003;4.020606e-002
2.757824e+003;4.049840e-002
2.759752e+003;4.088379e-002
2.761681e+003;4.090571e-002
2.763609e+003;4.106057e-002
2.765538e+003;4.136048e-002
2.767466e+003;4.151150e-002
2.769395e+003;4.145357e-002
2.771323e+003;4.151959e-002
2.773252e+003;4.194063e-002
2.775181e+003;4.233845e-002
2.777109e+003;4.263675e-002
2.779038e+003;4.306254e-002
2.780966e+003;4.341498e-002
2.782895e+003;4.386899e-002
2.784823e+003;4.436493e-002
2.786752e+003;4.436743e-002
2.788680e+003;4.449277e-002
2.790609e+003;4.498748e-002
2.792538e+003;4.545975e-002
2.794466e+003;4.572811e-002
2.796395e+003;4.607411e-002
2.798323e+003;4.653868e-002
2.800252e+003;4.712247e-002
2.802180e+003;4.770305e-002
2.804109e+003;4.819600e-002
2.806037e+003;4.858728e-002
2.807966e+003;4.888157e-002
2.809895e+003;4.942051e-002
2.811823e+003;5.016474e-002
2.813751e+003;5.101468e-002
2.815680e+003;5.174339e-002
2.817609e+003;5.252029e-002
2.819537e+003;5.339824e-002
2.821466e+003;5.409955e-002
2.823394e+003;5.446273e-002
2.825323e+003;5.501658e-002
2.827251e+003;5.570085e-002
2.829180e+003;5.639970e-002
2.831108e+003;5.765097e-002
2.833037e+003;5.908660e-002
2.834966e+003;6.058805e-002
2.836894e+003;6.220799e-002
2.838823e+003;6.416534e-002
2.840751e+003;6.671301e-002
2.842680e+003;6.948389e-002
2.844608e+003;7.274218e-002
2.846537e+003;7.676107e-002
2.848465e+003;8.113545e-002
2.850394e+003;8.523205e-002
2.852323e+003;8.817262e-002
2.854251e+003;9.058063e-002
2.856180e+003;9.338970e-002
2.858108e+003;9.592589e-002
2.860037e+003;9.733301e-002
2.861965e+003;9.750008e-002
2.863894e+003;9.717446e-002
2.865822e+003;9.670943e-002
2.867751e+003;9.586535e-002
2.869679e+003;9.443212e-002
2.871608e+003;9.286338e-002
2.873536e+003;9.096016e-002
2.875465e+003;8.872239e-002
2.877394e+003;8.641949e-002
2.879322e+003;8.414111e-002
2.881251e+003;8.232591e-002
2.883179e+003;8.143762e-002
2.885108e+003;8.083932e-002
2.887036e+003;8.039348e-002
2.888965e+003;8.070723e-002
2.890893e+003;8.183801e-002
2.892822e+003;8.332995e-002
2.894750e+003;8.495853e-002
2.896679e+003;8.632695e-002
2.898608e+003;8.729023e-002
2.900536e+003;8.857264e-002
2.902465e+003;9.033411e-002
2.904393e+003;9.191613e-002
2.906322e+003;9.300435e-002
2.908250e+003;9.412942e-002
2.910179e+003;9.591234e-002
2.912107e+003;9.794001e-002
2.914036e+003;9.981054e-002
2.915965e+003;1.018441e-001
2.917893e+003;1.039737e-001
2.919822e+003;1.065152e-001
2.921750e+003;1.091535e-001
2.923679e+003;1.115968e-001
2.925607e+003;1.139872e-001
2.927536e+003;1.163076e-001
2.929464e+003;1.181773e-001
2.931393e+003;1.192598e-001
2.933322e+003;1.201533e-001
2.935250e+003;1.209743e-001
2.937178e+003;1.206237e-001
2.939107e+003;1.195140e-001
2.941036e+003;1.175125e-001
2.942964e+003;1.146868e-001
2.944893e+003;1.118321e-001
2.946821e+003;1.085919e-001
2.948750e+003;1.046090e-001
2.950678e+003;1.001388e-001
2.952607e+003;9.534935e-002
2.954535e+003;9.041599e-002
2.956464e+003;8.558317e-002
2.958393e+003;8.113494e-002
2.960321e+003;7.754902e-002
2.962250e+003;7.450812e-002
2.964178e+003;7.152912e-002
2.966107e+003;6.861173e-002
2.968035e+003;6.595618e-002
2.969964e+003;6.341565e-002
2.971892e+003;6.122137e-002
2.973821e+003;5.956033e-002
2.975750e+003;5.788461e-002
2.977678e+003;5.594859e-002
2.979607e+003;5.415649e-002
2.981535e+003;5.251681e-002
2.983464e+003;5.109212e-002
2.985392e+003;5.019412e-002
2.987321e+003;4.929868e-002
2.989249e+003;4.824268e-002
2.991178e+003;4.743610e-002
2.993106e+003;4.686532e-002
2.995035e+003;4.643174e-002
2.996964e+003;4.610045e-002
2.998892e+003;4.588714e-002
3.000821e+003;4.571670e-002
3.002749e+003;4.539199e-002
3.004678e+003;4.521653e-002
3.006606e+003;4.535929e-002
3.008535e+003;4.558191e-002
3.010463e+003;4.568416e-002
3.012392e+003;4.564389e-002
3.014321e+003;4.560469e-002
3.016249e+003;4.573128e-002
3.018177e+003;4.620090e-002
3.020106e+003;4.650070e-002
3.022035e+003;4.661068e-002
3.023963e+003;4.707565e-002
3.025892e+003;4.762303e-002
3.027820e+003;4.805129e-002
3.029749e+003;4.846179e-002
3.031677e+003;4.900848e-002
3.033606e+003;4.975003e-002
3.035534e+003;5.043580e-002
3.037463e+003;5.114765e-002
3.039392e+003;5.192577e-002
3.041320e+003;5.258730e-002
3.043249e+003;5.288001e-002
3.045177e+003;5.352790e-002
3.047106e+003;5.454146e-002
3.049034e+003;5.573460e-002
3.050963e+003;5.647309e-002
3.052891e+003;5.659326e-002
3.054820e+003;5.722573e-002
3.056749e+003;5.811344e-002
3.058677e+003;5.876331e-002
3.060606e+003;5.930331e-002
3.062534e+003;5.978929e-002
3.064463e+003;5.998292e-002
3.066391e+003;5.999243e-002
3.068320e+003;5.995066e-002
3.070248e+003;5.999753e-002
3.072177e+003;6.026349e-002
3.074105e+003;6.007137e-002
3.076034e+003;5.987512e-002
3.077963e+003;5.993339e-002
3.079891e+003;5.978967e-002
3.081820e+003;5.950663e-002
3.083748e+003;5.945131e-002
3.085677e+003;5.939227e-002
3.087605e+003;5.918501e-002
3.089534e+003;5.860128e-002
3.091462e+003;5.768730e-002
3.093391e+003;5.727529e-002
3.095320e+003;5.722044e-002
3.097248e+003;5.674041e-002
3.099177e+003;5.593019e-002
3.101105e+003;5.527604e-002
3.103034e+003;5.499066e-002
3.104962e+003;5.455243e-002
3.106891e+003;5.393726e-002
3.108819e+003;5.322831e-002
3.110748e+003;5.249737e-002
3.112677e+003;5.200841e-002
3.114605e+003;5.200883e-002
3.116533e+003;5.168528e-002
3.118462e+003;5.105340e-002
3.120391e+003;5.053271e-002
3.122319e+003;5.032584e-002
3.124248e+003;4.998823e-002
3.126176e+003;4.968780e-002
3.128105e+003;4.969136e-002
3.130033e+003;4.962182e-002
3.131962e+003;4.969475e-002
3.133890e+003;4.957889e-002
3.135819e+003;4.934567e-002
3.137748e+003;4.901683e-002
3.139676e+003;4.903927e-002
3.141605e+003;4.937797e-002
3.143533e+003;4.961722e-002
3.145462e+003;4.994577e-002
3.147390e+003;5.028562e-002
3.149319e+003;5.015176e-002
3.151247e+003;5.006017e-002
3.153176e+003;5.049006e-002
3.155104e+003;5.128832e-002
3.157033e+003;5.183097e-002
3.158962e+003;5.189089e-002
3.160890e+003;5.203998e-002
3.162819e+003;5.234592e-002
3.164747e+003;5.279350e-002
3.166676e+003;5.339003e-002
3.168604e+003;5.403275e-002
3.170533e+003;5.463779e-002
3.172461e+003;5.508488e-002
3.174390e+003;5.554572e-002
3.176319e+003;5.612244e-002
3.178247e+003;5.677969e-002
3.180176e+003;5.758816e-002
3.182104e+003;5.815841e-002
3.184033e+003;5.869814e-002
3.185961e+003;5.938672e-002
3.187890e+003;5.946431e-002
3.189818e+003;5.939603e-002
3.191747e+003;5.995941e-002
3.193676e+003;6.081999e-002
3.195604e+003;6.122423e-002
3.197532e+003;6.156837e-002
3.199461e+003;6.204750e-002
3.201390e+003;6.225578e-002
3.203318e+003;6.259041e-002
3.205247e+003;6.312568e-002
3.207175e+003;6.335891e-002
3.209104e+003;6.359407e-002
3.211032e+003;6.378705e-002
3.212961e+003;6.416918e-002
3.214889e+003;6.479394e-002
3.216818e+003;6.555911e-002
3.218747e+003;6.623231e-002
3.220675e+003;6.677043e-002
3.222604e+003;6.716590e-002
3.224532e+003;6.774314e-002
3.226461e+003;6.885783e-002
3.228389e+003;6.992388e-002
3.230318e+003;7.083987e-002
3.232246e+003;7.188074e-002
3.234175e+003;7.283273e-002
3.236104e+003;7.364506e-002
3.238032e+003;7.480773e-002
3.239961e+003;7.628471e-002
3.241889e+003;7.767718e-002
3.243818e+003;7.927413e-002
3.245746e+003;8.103517e-002
3.247675e+003;8.248072e-002
3.249603e+003;8.401568e-002
3.251532e+003;8.558704e-002
3.253460e+003;8.712222e-002
3.255389e+003;8.899772e-002
3.257318e+003;9.068873e-002
3.259246e+003;9.183306e-002
3.261175e+003;9.338338e-002
3.263103e+003;9.512775e-002
3.265032e+003;9.715258e-002
3.266960e+003;9.936018e-002
3.268889e+003;1.013877e-001
3.270817e+003;1.031299e-001
3.272746e+003;1.046628e-001
3.274675e+003;1.063162e-001
3.276603e+003;1.080298e-001
3.278531e+003;1.095046e-001
3.280460e+003;1.105073e-001
3.282389e+003;1.113565e-001
3.284317e+003;1.126679e-001
3.286246e+003;1.140388e-001
3.288174e+003;1.148591e-001
3.290103e+003;1.147061e-001
3.292031e+003;1.145809e-001
3.293960e+003;1.139871e-001
3.295888e+003;1.128366e-001
3.297817e+003;1.115436e-001
3.299746e+003;1.098082e-001
3.301674e+003;1.078484e-001
3.303603e+003;1.058032e-001
3.305531e+003;1.036994e-001
3.307460e+003;1.016516e-001
3.309388e+003;9.947602e-002
3.311317e+003;9.697210e-002
3.313245e+003;9.432173e-002
3.315174e+003;9.238683e-002
3.317103e+003;9.067652e-002
3.319031e+003;8.871483e-002
3.320960e+003;8.658531e-002
3.322888e+003;8.460084e-002
3.324817e+003;8.275517e-002
3.326745e+003;8.068257e-002
3.328674e+003;7.855903e-002
3.330602e+003;7.674035e-002
3.332531e+003;7.493693e-002
3.334459e+003;7.302387e-002
3.336388e+003;7.117138e-002
3.338317e+003;6.994046e-002
3.340245e+003;6.897879e-002
3.342174e+003;6.754950e-002
3.344102e+003;6.624913e-002
3.346031e+003;6.498547e-002
3.347959e+003;6.325982e-002
3.349888e+003;6.165807e-002
3.351816e+003;6.092181e-002
3.353745e+003;6.036289e-002
3.355674e+003;5.930395e-002
3.357602e+003;5.809371e-002
3.359531e+003;5.735185e-002
3.361459e+003;5.669767e-002
3.363388e+003;5.550178e-002
3.365316e+003;5.412488e-002
3.367245e+003;5.350050e-002
3.369173e+003;5.292317e-002
3.371102e+003;5.230107e-002
3.373031e+003;5.170707e-002
3.374959e+003;5.114464e-002
3.376887e+003;5.072140e-002
3.378816e+003;5.024180e-002
3.380745e+003;4.993373e-002
3.382673e+003;4.958335e-002
3.384602e+003;4.866458e-002
3.386530e+003;4.799327e-002
3.388459e+003;4.746481e-002
3.390387e+003;4.684879e-002
3.392316e+003;4.664724e-002
3.394244e+003;4.654182e-002
3.396173e+003;4.643749e-002
3.398102e+003;4.630348e-002
3.400030e+003;4.583164e-002
3.401959e+003;4.557765e-002
3.403887e+003;4.537470e-002
3.405816e+003;4.494757e-002
3.407744e+003;4.456127e-002
3.409673e+003;4.469769e-002
3.411601e+003;4.468759e-002
3.413530e+003;4.393446e-002
3.415458e+003;4.325126e-002
3.417387e+003;4.309287e-002
3.419316e+003;4.315786e-002
3.421244e+003;4.318275e-002
3.423173e+003;4.293278e-002
3.425101e+003;4.212463e-002
3.427030e+003;4.181073e-002
3.428958e+003;4.201019e-002
3.430887e+003;4.174073e-002
3.432815e+003;4.160735e-002
3.434744e+003;4.171250e-002
3.436673e+003;4.157968e-002
3.438601e+003;4.131416e-002
3.440530e+003;4.085510e-002
3.442458e+003;4.053739e-002
3.444387e+003;4.034697e-002
3.446315e+003;4.038639e-002
3.448244e+003;4.010648e-002
3.450172e+003;3.977958e-002
3.452101e+003;3.929911e-002
3.454030e+003;3.870918e-002
3.455958e+003;3.831153e-002
3.457886e+003;3.797903e-002
3.459815e+003;3.740606e-002
3.461744e+003;3.713139e-002
3.463672e+003;3.715052e-002
3.465601e+003;3.681974e-002
3.467529e+003;3.648785e-002
3.469458e+003;3.635543e-002
3.471386e+003;3.628601e-002
3.473315e+003;3.595442e-002
3.475243e+003;3.526611e-002
3.477172e+003;3.488664e-002
3.479101e+003;3.467697e-002
3.481029e+003;3.457211e-002
3.482958e+003;3.456225e-002
3.484886e+003;3.453419e-002
3.486815e+003;3.395944e-002
3.488743e+003;3.374616e-002
3.490672e+003;3.419565e-002
3.492600e+003;3.415353e-002
3.494529e+003;3.359585e-002
3.496458e+003;3.345780e-002
3.498386e+003;3.342287e-002
3.500315e+003;3.280313e-002
3.502243e+003;3.240152e-002
3.504172e+003;3.252482e-002
3.506100e+003;3.253910e-002
3.508029e+003;3.207755e-002
3.509957e+003;3.151085e-002
3.511886e+003;3.140883e-002
3.513814e+003;3.166447e-002
3.515743e+003;3.171284e-002
3.517672e+003;3.139034e-002
3.519600e+003;3.106389e-002
3.521529e+003;3.080664e-002
3.523457e+003;3.041818e-002
3.525386e+003;2.990439e-002
3.527314e+003;2.942113e-002
3.529243e+003;2.923453e-002
3.531171e+003;2.926987e-002
3.533100e+003;2.895577e-002
3.535029e+003;2.861578e-002
3.536957e+003;2.822245e-002
3.538885e+003;2.799487e-002
3.540814e+003;2.776560e-002
3.542743e+003;2.724750e-002
3.544671e+003;2.648021e-002
3.546600e+003;2.599266e-002
3.548528e+003;2.544571e-002
3.550457e+003;2.540555e-002
3.552385e+003;2.577602e-002
3.554314e+003;2.540352e-002
3.556242e+003;2.484064e-002
3.558171e+003;2.438885e-002
3.560100e+003;2.373832e-002
3.562028e+003;2.323660e-002
3.563957e+003;2.308275e-002
3.565885e+003;2.297158e-002
3.567814e+003;2.313737e-002
3.569742e+003;2.297710e-002
3.571671e+003;2.205445e-002
3.573599e+003;2.121552e-002
3.575528e+003;2.104069e-002
3.577457e+003;2.100052e-002
3.579385e+003;2.048715e-002
3.581314e+003;2.000860e-002
3.583242e+003;1.989516e-002
3.585171e+003;1.966181e-002
3.587099e+003;1.933882e-002
3.589028e+003;1.907551e-002
3.590956e+003;1.886343e-002
3.592885e+003;1.844453e-002
3.594813e+003;1.814459e-002
3.596742e+003;1.803941e-002
3.598671e+003;1.789930e-002
3.600599e+003;1.748382e-002
3.602528e+003;1.673574e-002
3.604456e+003;1.616146e-002
3.606385e+003;1.600676e-002
3.608313e+003;1.591756e-002
3.610242e+003;1.571056e-002
3.612170e+003;1.547382e-002
3.614099e+003;1.556341e-002
3.616028e+003;1.542496e-002
3.617956e+003;1.488502e-002
3.619885e+003;1.454102e-002
3.621813e+003;1.450817e-002
3.623742e+003;1.426979e-002
3.625670e+003;1.374533e-002
3.627599e+003;1.342424e-002
3.629527e+003;1.334951e-002
3.631456e+003;1.280879e-002
3.633385e+003;1.233215e-002
3.635313e+003;1.241420e-002
3.637241e+003;1.215922e-002
3.639170e+003;1.195904e-002
3.641099e+003;1.181884e-002
3.643027e+003;1.138903e-002
3.644956e+003;1.125333e-002
3.646884e+003;1.104708e-002
3.648813e+003;1.047225e-002
3.650741e+003;1.002491e-002
3.652670e+003;1.034485e-002
3.654598e+003;1.031539e-002
3.656527e+003;9.767729e-003
3.658456e+003;9.711954e-003
3.660384e+003;9.773524e-003
3.662313e+003;9.751294e-003
3.664241e+003;9.986258e-003
3.666170e+003;1.014917e-002
3.668098e+003;9.874523e-003
3.670027e+003;9.303445e-003
3.671955e+003;8.728181e-003
3.673884e+003;8.387645e-003
3.675813e+003;8.331777e-003
3.677741e+003;8.087747e-003
3.679669e+003;7.646499e-003
3.681598e+003;7.568236e-003
3.683527e+003;7.680458e-003
3.685455e+003;7.700627e-003
3.687384e+003;7.514832e-003
3.689312e+003;7.063287e-003
3.691241e+003;6.856760e-003
3.693169e+003;6.980820e-003
3.695098e+003;6.859857e-003
3.697026e+003;7.272710e-003
3.698955e+003;7.332419e-003
3.700884e+003;6.859318e-003
3.702812e+003;6.756763e-003
3.704741e+003;6.657295e-003
3.706669e+003;6.520445e-003
3.708598e+003;6.279986e-003
3.710526e+003;6.025851e-003
3.712455e+003;5.978046e-003
3.714383e+003;5.948417e-003
3.716312e+003;5.719353e-003
3.718240e+003;5.879494e-003
3.720169e+003;6.075242e-003
3.722098e+003;5.938810e-003
3.724026e+003;6.105080e-003
3.725955e+003;6.215648e-003
3.727883e+003;6.027095e-003
3.729812e+003;5.838891e-003
3.731740e+003;5.712303e-003
3.733669e+003;5.923057e-003
3.735597e+003;6.005156e-003
3.737526e+003;5.936425e-003
3.739455e+003;6.047388e-003
3.741383e+003;6.219514e-003
3.743312e+003;5.901392e-003
3.745240e+003;5.996387e-003
3.747169e+003;6.132602e-003
3.749097e+003;6.018292e-003
3.751026e+003;6.132232e-003
3.752954e+003;6.198305e-003
3.754883e+003;6.345678e-003
3.756812e+003;6.362388e-003
3.758740e+003;6.317840e-003
3.760668e+003;6.392885e-003
3.762597e+003;6.643500e-003
3.764526e+003;6.679603e-003
3.766454e+003;6.115934e-003
3.768383e+003;5.713847e-003
3.770311e+003;5.646539e-003
3.772240e+003;5.951978e-003
3.774168e+003;6.550953e-003
3.776097e+003;6.505847e-003
3.778025e+003;6.126956e-003
3.779954e+003;6.238303e-003
3.781883e+003;6.664630e-003
3.783811e+003;6.841915e-003
3.785740e+003;6.480522e-003
3.787668e+003;6.095940e-003
3.789597e+003;5.833014e-003
3.791525e+003;5.717809e-003
3.793454e+003;6.169670e-003
3.795382e+003;6.662510e-003
3.797311e+003;6.784461e-003
3.799240e+003;6.587351e-003
3.801168e+003;6.203985e-003
3.803097e+003;6.148431e-003
3.805025e+003;6.243345e-003
3.806954e+003;6.253194e-003
3.808882e+003;6.380915e-003
3.810811e+003;6.295181e-003
3.812739e+003;6.203111e-003
3.814668e+003;6.297433e-003
3.816596e+003;6.470466e-003
3.818525e+003;6.696225e-003
3.820454e+003;6.677988e-003
3.822382e+003;6.618940e-003
3.824311e+003;6.586510e-003
3.826239e+003;6.778672e-003
3.828168e+003;7.076018e-003
3.830096e+003;7.124315e-003
3.832025e+003;7.291141e-003
3.833953e+003;7.027187e-003
3.835882e+003;6.815796e-003
3.837811e+003;6.658001e-003
3.839739e+003;6.533126e-003
3.841667e+003;6.800078e-003
3.843596e+003;7.088142e-003
3.845525e+003;7.056383e-003
3.847453e+003;7.270857e-003
3.849382e+003;7.375015e-003
3.851310e+003;6.928531e-003
3.853239e+003;6.654401e-003
3.855167e+003;6.576451e-003
3.857096e+003;6.911126e-003
3.859024e+003;7.284874e-003
3.860953e+003;7.641407e-003
3.862882e+003;8.011295e-003
3.864810e+003;8.016728e-003
3.866739e+003;7.929017e-003
3.868667e+003;7.874590e-003
3.870596e+003;7.482031e-003
3.872524e+003;7.096899e-003
3.874453e+003;7.062445e-003
3.876381e+003;7.147590e-003
3.878310e+003;7.253673e-003
3.880239e+003;7.363523e-003
3.882167e+003;7.446536e-003
3.884096e+003;7.590017e-003
3.886024e+003;7.710070e-003
3.887953e+003;7.903372e-003
3.889881e+003;7.956723e-003
3.891810e+003;7.932392e-003
3.893738e+003;7.791665e-003
3.895667e+003;7.730037e-003
3.897595e+003;7.626333e-003
3.899524e+003;7.456682e-003
3.901453e+003;7.778273e-003
3.903381e+003;8.160532e-003
3.905310e+003;8.222829e-003
3.907238e+003;7.815212e-003
3.909167e+003;7.524002e-003
3.911095e+003;7.613924e-003
3.913024e+003;7.806036e-003
3.914952e+003;8.143011e-003
3.916881e+003;8.222593e-003
3.918810e+003;8.385821e-003
3.920738e+003;8.360013e-003
3.922667e+003;8.216447e-003
3.924595e+003;8.108170e-003
3.926524e+003;8.411765e-003
3.928452e+003;8.936447e-003
3.930381e+003;8.970339e-003
3.932309e+003;8.600816e-003
3.934238e+003;8.862652e-003
3.936167e+003;9.103124e-003
3.938095e+003;8.718243e-003
3.940023e+003;8.719020e-003
3.941952e+003;9.063605e-003
3.943881e+003;9.235443e-003
3.945809e+003;9.440023e-003
3.947738e+003;9.190599e-003
3.949666e+003;9.440565e-003
3.951595e+003;9.829748e-003
3.953523e+003;9.657472e-003
3.955452e+003;9.482861e-003
3.957380e+003;9.410462e-003
3.959309e+003;9.420790e-003
3.961238e+003;9.765967e-003
3.963166e+003;1.015158e-002
3.965095e+003;1.039365e-002
3.967023e+003;1.030155e-002
3.968952e+003;9.782301e-003
3.970880e+003;9.647377e-003
3.972809e+003;1.022841e-002
3.974737e+003;1.080461e-002
3.976666e+003;1.079972e-002
3.978594e+003;1.004658e-002
3.980523e+003;1.006119e-002
3.982452e+003;1.055997e-002
3.984380e+003;1.030342e-002
3.986309e+003;1.054051e-002
3.988237e+003;1.129254e-002
3.990166e+003;1.107213e-002
3.992094e+003;1.034967e-002
3.994023e+003;1.034668e-002
3.995951e+003;1.067881e-002
3.997880e+003;1.070669e-002
3.999809e+003;1.069990e-002
4.001737e+003;0.000000e+000
