3.992094e+002;0.000000e+000
4.011380e+002;0.000000e+000
4.030665e+002;0.000000e+000
4.049951e+002;0.000000e+000
4.069236e+002;0.000000e+000
4.088522e+002;0.000000e+000
4.107807e+002;0.000000e+000
4.127093e+002;0.000000e+000
4.146378e+002;0.000000e+000
4.165664e+002;0.000000e+000
4.184949e+002;0.000000e+000
4.204235e+002;0.000000e+000
4.223520e+002;0.000000e+000
4.242806e+002;0.000000e+000
4.262091e+002;0.000000e+000
4.281377e+002;0.000000e+000
4.300662e+002;0.000000e+000
4.319948e+002;0.000000e+000
4.339233e+002;0.000000e+000
4.358519e+002;0.000000e+000
4.377804e+002;0.000000e+000
4.397090e+002;0.000000e+000
4.416375e+002;0.000000e+000
4.435660e+002;0.000000e+000
4.454946e+002;0.000000e+000
4.474232e+002;0.000000e+000
4.493517e+002;0.000000e+000
4.512802e+002;0.000000e+000
4.532088e+002;0.000000e+000
4.551373e+002;0.000000e+000
4.570659e+002;0.000000e+000
4.589944e+002;0.000000e+000
4.609230e+002;0.000000e+000
4.628515e+002;0.000000e+000
4.647801e+002;0.000000e+000
4.667086e+002;0.000000e+000
4.686372e+002;0.000000e+000
4.705657e+002;0.000000e+000
4.724943e+002;0.000000e+000
4.744228e+002;0.000000e+000
4.763513e+002;0.000000e+000
4.782799e+002;0.000000e+000
4.802085e+002;0.000000e+000
4.821370e+002;0.000000e+000
4.840656e+002;0.000000e+000
4.859941e+002;0.000000e+000
4.879226e+002;0.000000e+000
4.898512e+002;0.000000e+000
4.917798e+002;0.000000e+000
4.937083e+002;0.000000e+000
4.956368e+002;0.000000e+000
4.975654e+002;0.000000e+000
4.994939e+002;0.000000e+000
5.014225e+002;0.000000e+000
5.033510e+002;0.000000e+000
5.052796e+002;0.000000e+000
5.072081e+002;0.000000e+000
5.091367e+002;0.000000e+000
5.110652e+002;0.000000e+000
5.129938e+002;0.000000e+000
5.149223e+002;0.000000e+000
5.168509e+002;0.000000e+000
5.187794e+002;0.000000e+000
5.207079e+002;0.000000e+000
5.226365e+002;0.000000e+000
5.245651e+002;0.000000e+000
5.264936e+002;0.000000e+000
5.284222e+002;0.000000e+000
5.303507e+002;0.000000e+000
5.322792e+002;0.000000e+000
5.342078e+002;0.000000e+000
5.361364e+002;0.000000e+000
5.380649e+002;0.000000e+000
5.399935e+002;0.000000e+000
5.419220e+002;0.000000e+000
5.438505e+002;0.000000e+000
5.457791e+002;0.000000e+000
5.477076e+002;0.000000e+000
5.496362e+002;0.000000e+000
5.515648e+002;0.000000e+000
5.534933e+002;0.000000e+000
5.554218e+002;0.000000e+000
5.573504e+002;0.000000e+000
5.592789e+002;0.000000e+000
5.612075e+002;0.000000e+000
5.631360e+002;0.000000e+000
5.650646e+002;0.000000e+000
5.669931e+002;0.000000e+000
5.689217e+002;0.000000e+000
5.708502e+002;0.000000e+000
5.727787e+002;0.000000e+000
5.747073e+002;0.000000e+000
5.766359e+002;0.000000e+000
5.785644e+002;0.000000e+000
5.804930e+002;0.000000e+000
5.824215e+002;0.000000e+000
5.843500e+002;0.000000e+000
5.862786e+002;0.000000e+000
5.882072e+002;0.000000e+000
5.901357e+002;0.000000e+000
5.920643e+002;0.000000e+000
5.939928e+002;0.000000e+000
5.959213e+002;0.000000e+000
5.978499e+002;0.000000e+000
5.997784e+002;1.388302e-001
6.017070e+002;1.448052e-001
6.036355e+002;1.453111e-001
6.055641e+002;1.458229e-001
6.074926e+002;1.449614e-001
6.094211e+002;1.421433e-001
6.113497e+002;1.421534e-001
6.132783e+002;1.434280e-001
6.152068e+002;1.421022e-001
6.171354e+002;1.410356e-001
6.190639e+002;1.425052e-001
6.209924e+002;1.399472e-001
6.229210e+002;1.419897e-001
6.248495e+002;1.454997e-001
6.267781e+002;1.427940e-001
6.287067e+002;1.442433e-001
6.306352e+002;1.442600e-001
6.325637e+002;1.401625e-001
6.344923e+002;1.415034e-001
6.364208e+002;1.442658e-001
6.383494e+002;1.453829e-001
6.402780e+002;1.427821e-001
6.422065e+002;1.436885e-001
6.441350e+002;1.496452e-001
6.460636e+002;1.496579e-001
6.479921e+002;1.486468e-001
6.499207e+002;1.543923e-001
6.518492e+002;1.591733e-001
6.537778e+002;1.602886e-001
6.557063e+002;1.637587e-001
6.576349e+002;1.667568e-001
6.595634e+002;1.688879e-001
6.614919e+002;1.711548e-001
6.634205e+002;1.752475e-001
6.653491e+002;1.796338e-001
6.672776e+002;1.817685e-001
6.692062e+002;1.814381e-001
6.711347e+002;1.800213e-001
6.730632e+002;1.823067e-001
6.749918e+002;1.852644e-001
6.769203e+002;1.880090e-001
6.788489e+002;1.898192e-001
6.807775e+002;1.898011e-001
6.827060e+002;1.901859e-001
6.846345e+002;1.896997e-001
6.865631e+002;1.862406e-001
6.884916e+002;1.838445e-001
6.904202e+002;1.824994e-001
6.923488e+002;1.811785e-001
6.942773e+002;1.786334e-001
6.962058e+002;1.743846e-001
6.981344e+002;1.713849e-001
7.000629e+002;1.690703e-001
7.019915e+002;1.664042e-001
7.039200e+002;1.638657e-001
7.058486e+002;1.625648e-001
7.077771e+002;1.618859e-001
7.097057e+002;1.599762e-001
7.116342e+002;1.589995e-001
7.135627e+002;1.584756e-001
7.154913e+002;1.556552e-001
7.174199e+002;1.521343e-001
7.193484e+002;1.510834e-001
7.212770e+002;1.516328e-001
7.232055e+002;1.519445e-001
7.251340e+002;1.528297e-001
7.270626e+002;1.535989e-001
7.289911e+002;1.522768e-001
7.309197e+002;1.470382e-001
7.328483e+002;1.396931e-001
7.347768e+002;1.326008e-001
7.367053e+002;1.257763e-001
7.386339e+002;1.202719e-001
7.405624e+002;1.159443e-001
7.424910e+002;1.131092e-001
7.444196e+002;1.109072e-001
7.463481e+002;1.083031e-001
7.482766e+002;1.064051e-001
7.502052e+002;1.051527e-001
7.521337e+002;1.032522e-001
7.540623e+002;1.016498e-001
7.559908e+002;9.998953e-002
7.579194e+002;9.857396e-002
7.598479e+002;9.791439e-002
7.617765e+002;9.681307e-002
7.637050e+002;9.515931e-002
7.656335e+002;9.344784e-002
7.675621e+002;9.247538e-002
7.694907e+002;9.130723e-002
7.714192e+002;9.009406e-002
7.733478e+002;8.924616e-002
7.752763e+002;8.867988e-002
7.772048e+002;8.745141e-002
7.791334e+002;8.600011e-002
7.810620e+002;8.490264e-002
7.829905e+002;8.321737e-002
7.849191e+002;8.117576e-002
7.868476e+002;7.954954e-002
7.887761e+002;7.874250e-002
7.907047e+002;7.772350e-002
7.926332e+002;7.660040e-002
7.945618e+002;7.552957e-002
7.964903e+002;7.478635e-002
7.984189e+002;7.375484e-002
8.003474e+002;7.201687e-002
8.022759e+002;7.094485e-002
8.042045e+002;7.043258e-002
8.061331e+002;6.945010e-002
8.080616e+002;6.889082e-002
8.099902e+002;6.858756e-002
8.119187e+002;6.775623e-002
8.138472e+002;6.692537e-002
8.157758e+002;6.655023e-002
8.177043e+002;6.628595e-002
8.196329e+002;6.611615e-002
8.215615e+002;6.629545e-002
8.234900e+002;6.673504e-002
8.254185e+002;6.661358e-002
8.273471e+002;6.686357e-002
8.292756e+002;6.868776e-002
8.312042e+002;7.064146e-002
8.331328e+002;7.074498e-002
8.350613e+002;6.923733e-002
8.369898e+002;6.685406e-002
8.389184e+002;6.468695e-002
8.408469e+002;6.304940e-002
8.427755e+002;6.150607e-002
8.447040e+002;6.016632e-002
8.466326e+002;5.930570e-002
8.485611e+002;5.917320e-002
8.504897e+002;5.929936e-002
8.524182e+002;5.938779e-002
8.543467e+002;5.933445e-002
8.562753e+002;5.893716e-002
8.582039e+002;5.889644e-002
8.601324e+002;5.890938e-002
8.620610e+002;5.813288e-002
8.639895e+002;5.798116e-002
8.659180e+002;5.887045e-002
8.678466e+002;5.966086e-002
8.697751e+002;5.949748e-002
8.717037e+002;5.942270e-002
8.736323e+002;5.993666e-002
8.755608e+002;5.999604e-002
8.774893e+002;5.966546e-002
8.794179e+002;5.926123e-002
8.813464e+002;5.950625e-002
8.832750e+002;6.042023e-002
8.852036e+002;6.115244e-002
8.871321e+002;6.154149e-002
8.890606e+002;6.150324e-002
8.909892e+002;6.133458e-002
8.929177e+002;6.130730e-002
8.948463e+002;6.137183e-002
8.967748e+002;6.186697e-002
8.987034e+002;6.227582e-002
9.006319e+002;6.221823e-002
9.025605e+002;6.231904e-002
9.044890e+002;6.262010e-002
9.064175e+002;6.319316e-002
9.083461e+002;6.389229e-002
9.102747e+002;6.437200e-002
9.122032e+002;6.477498e-002
9.141318e+002;6.559206e-002
9.160603e+002;6.616990e-002
9.179888e+002;6.657924e-002
9.199174e+002;6.769067e-002
9.218459e+002;6.885021e-002
9.237745e+002;6.963634e-002
9.257031e+002;7.075430e-002
9.276316e+002;7.207733e-002
9.295601e+002;7.241413e-002
9.314887e+002;7.168076e-002
9.334172e+002;7.077696e-002
9.353458e+002;6.977382e-002
9.372744e+002;6.900085e-002
9.392029e+002;6.886450e-002
9.411314e+002;6.941947e-002
9.430600e+002;7.062041e-002
9.449885e+002;7.165204e-002
9.469171e+002;7.298663e-002
9.488456e+002;7.458176e-002
9.507742e+002;7.582624e-002
9.527027e+002;7.678210e-002
9.546313e+002;7.751408e-002
9.565598e+002;7.814757e-002
9.584883e+002;7.840722e-002
9.604169e+002;7.836749e-002
9.623455e+002;7.753017e-002
9.642740e+002;7.645387e-002
9.662026e+002;7.625490e-002
9.681311e+002;7.649343e-002
9.700596e+002;7.670366e-002
9.719882e+002;7.629451e-002
9.739167e+002;7.544902e-002
9.758453e+002;7.499694e-002
9.777739e+002;7.437201e-002
9.797024e+002;7.369044e-002
9.816309e+002;7.355466e-002
9.835595e+002;7.296907e-002
9.854880e+002;7.207225e-002
9.874166e+002;7.147302e-002
9.893452e+002;7.052112e-002
9.912737e+002;6.950758e-002
9.932022e+002;6.893374e-002
9.951307e+002;6.848691e-002
9.970593e+002;6.815059e-002
9.989879e+002;6.808683e-002
1.000916e+003;6.804109e-002
1.002845e+003;6.791171e-002
1.004773e+003;6.793663e-002
1.006702e+003;6.789234e-002
1.008631e+003;6.783633e-002
1.010559e+003;6.772010e-002
1.012488e+003;6.738003e-002
1.014416e+003;6.710809e-002
1.016345e+003;6.731940e-002
1.018273e+003;6.745363e-002
1.020202e+003;6.725251e-002
1.022130e+003;6.780809e-002
1.024059e+003;6.919917e-002
1.025988e+003;7.043215e-002
1.027916e+003;7.105526e-002
1.029845e+003;7.151256e-002
1.031773e+003;7.140581e-002
1.033702e+003;7.068922e-002
1.035630e+003;6.983884e-002
1.037559e+003;6.920134e-002
1.039487e+003;6.873674e-002
1.041416e+003;6.831331e-002
1.043344e+003;6.770581e-002
1.045273e+003;6.741489e-002
1.047202e+003;6.768765e-002
1.049130e+003;6.829248e-002
1.051059e+003;6.956886e-002
1.052987e+003;7.086066e-002
1.054916e+003;7.180724e-002
1.056844e+003;7.291283e-002
1.058773e+003;7.422075e-002
1.060701e+003;7.519739e-002
1.062630e+003;7.584976e-002
1.064558e+003;7.698472e-002
1.066487e+003;7.826746e-002
1.068416e+003;7.946482e-002
1.070344e+003;7.996857e-002
1.072273e+003;8.039858e-002
1.074201e+003;8.045266e-002
1.076130e+003;7.962368e-002
1.078058e+003;7.864869e-002
1.079987e+003;7.753401e-002
1.081915e+003;7.672698e-002
1.083844e+003;7.636158e-002
1.085773e+003;7.592643e-002
1.087701e+003;7.563130e-002
1.089630e+003;7.524180e-002
1.091558e+003;7.527351e-002
1.093487e+003;7.545552e-002
1.095415e+003;7.563442e-002
1.097344e+003;7.656495e-002
1.099272e+003;7.796193e-002
1.101201e+003;7.939771e-002
1.103129e+003;8.093612e-002
1.105058e+003;8.251663e-002
1.106987e+003;8.420035e-002
1.108915e+003;8.528450e-002
1.110844e+003;8.586898e-002
1.112772e+003;8.655846e-002
1.114701e+003;8.744407e-002
1.116629e+003;8.772849e-002
1.118558e+003;8.726884e-002
1.120486e+003;8.649828e-002
1.122415e+003;8.509225e-002
1.124344e+003;8.308391e-002
1.126272e+003;8.103585e-002
1.128201e+003;7.908180e-002
1.130129e+003;7.706690e-002
1.132058e+003;7.545134e-002
1.133986e+003;7.431275e-002
1.135915e+003;7.368939e-002
1.137843e+003;7.388923e-002
1.139772e+003;7.465385e-002
1.141700e+003;7.598452e-002
1.143629e+003;7.764608e-002
1.145557e+003;7.944349e-002
1.147486e+003;8.115287e-002
1.149415e+003;8.312780e-002
1.151343e+003;8.581194e-002
1.153272e+003;8.897775e-002
1.155200e+003;9.230650e-002
1.157129e+003;9.623597e-002
1.159057e+003;1.010419e-001
1.160986e+003;1.067205e-001
1.162914e+003;1.128160e-001
1.164843e+003;1.185208e-001
1.166771e+003;1.229643e-001
1.168700e+003;1.248812e-001
1.170629e+003;1.237769e-001
1.172557e+003;1.203693e-001
1.174486e+003;1.158194e-001
1.176414e+003;1.109178e-001
1.178343e+003;1.063507e-001
1.180271e+003;1.030615e-001
1.182200e+003;1.016987e-001
1.184128e+003;1.022363e-001
1.186057e+003;1.041969e-001
1.187986e+003;1.071649e-001
1.189914e+003;1.104580e-001
1.191843e+003;1.142403e-001
1.193771e+003;1.187332e-001
1.195700e+003;1.238721e-001
1.197628e+003;1.288175e-001
1.199557e+003;1.312663e-001
1.201485e+003;1.302147e-001
1.203414e+003;1.273288e-001
1.205343e+003;1.245456e-001
1.207271e+003;1.225644e-001
1.209200e+003;1.214159e-001
1.211128e+003;1.208078e-001
1.213057e+003;1.198193e-001
1.214985e+003;1.175159e-001
1.216914e+003;1.142953e-001
1.218842e+003;1.110481e-001
1.220771e+003;1.090418e-001
1.222699e+003;1.088563e-001
1.224628e+003;1.102387e-001
1.226557e+003;1.133845e-001
1.228485e+003;1.175905e-001
1.230414e+003;1.220970e-001
1.232342e+003;1.261705e-001
1.234271e+003;1.296775e-001
1.236199e+003;1.319198e-001
1.238128e+003;1.325576e-001
1.240056e+003;1.326156e-001
1.241985e+003;1.324409e-001
1.243913e+003;1.323174e-001
1.245842e+003;1.329224e-001
1.247771e+003;1.343683e-001
1.249699e+003;1.361312e-001
1.251628e+003;1.384526e-001
1.253556e+003;1.416773e-001
1.255485e+003;1.448801e-001
1.257413e+003;1.477325e-001
1.259342e+003;1.501259e-001
1.261270e+003;1.513992e-001
1.263199e+003;1.505487e-001
1.265127e+003;1.470916e-001
1.267056e+003;1.415997e-001
1.268985e+003;1.355633e-001
1.270913e+003;1.309098e-001
1.272842e+003;1.285167e-001
1.274770e+003;1.275546e-001
1.276699e+003;1.269374e-001
1.278627e+003;1.262112e-001
1.280556e+003;1.251438e-001
1.282484e+003;1.235059e-001
1.284413e+003;1.215471e-001
1.286342e+003;1.197816e-001
1.288270e+003;1.186778e-001
1.290199e+003;1.178858e-001
1.292127e+003;1.171453e-001
1.294056e+003;1.163329e-001
1.295984e+003;1.157247e-001
1.297913e+003;1.156383e-001
1.299841e+003;1.155577e-001
1.301770e+003;1.149565e-001
1.303698e+003;1.139027e-001
1.305627e+003;1.127723e-001
1.307556e+003;1.116418e-001
1.309484e+003;1.103762e-001
1.311413e+003;1.091599e-001
1.313341e+003;1.081962e-001
1.315270e+003;1.072462e-001
1.317198e+003;1.061069e-001
1.319127e+003;1.052147e-001
1.321055e+003;1.045107e-001
1.322984e+003;1.036491e-001
1.324912e+003;1.031518e-001
1.326841e+003;1.031584e-001
1.328770e+003;1.034962e-001
1.330698e+003;1.038659e-001
1.332627e+003;1.040557e-001
1.334555e+003;1.042152e-001
1.336484e+003;1.046020e-001
1.338412e+003;1.050713e-001
1.340341e+003;1.056396e-001
1.342269e+003;1.063852e-001
1.344198e+003;1.071849e-001
1.346126e+003;1.079274e-001
1.348055e+003;1.088865e-001
1.349984e+003;1.100845e-001
1.351912e+003;1.114818e-001
1.353841e+003;1.129781e-001
1.355769e+003;1.144629e-001
1.357698e+003;1.161442e-001
1.359626e+003;1.179343e-001
1.361555e+003;1.196992e-001
1.363483e+003;1.210304e-001
1.365412e+003;1.226336e-001
1.367341e+003;1.245568e-001
1.369269e+003;1.262234e-001
1.371198e+003;1.269403e-001
1.373126e+003;1.263249e-001
1.375055e+003;1.250706e-001
1.376983e+003;1.231031e-001
1.378912e+003;1.202404e-001
1.380840e+003;1.171405e-001
1.382769e+003;1.139025e-001
1.384698e+003;1.105848e-001
1.386626e+003;1.073087e-001
1.388555e+003;1.047568e-001
1.390483e+003;1.028126e-001
1.392412e+003;1.013725e-001
1.394340e+003;1.006335e-001
1.396269e+003;1.005292e-001
1.398197e+003;1.012138e-001
1.400126e+003;1.027010e-001
1.402054e+003;1.052476e-001
1.403983e+003;1.091033e-001
1.405911e+003;1.141060e-001
1.407840e+003;1.202558e-001
1.409769e+003;1.274926e-001
1.411697e+003;1.348132e-001
1.413626e+003;1.408533e-001
1.415554e+003;1.446182e-001
1.417483e+003;1.453839e-001
1.419411e+003;1.430169e-001
1.421340e+003;1.389775e-001
1.423268e+003;1.352718e-001
1.425197e+003;1.328447e-001
1.427125e+003;1.321904e-001
1.429054e+003;1.333886e-001
1.430983e+003;1.355011e-001
1.432911e+003;1.375846e-001
1.434840e+003;1.388311e-001
1.436768e+003;1.387249e-001
1.438697e+003;1.381412e-001
1.440625e+003;1.372004e-001
1.442554e+003;1.360945e-001
1.444482e+003;1.355695e-001
1.446411e+003;1.355870e-001
1.448340e+003;1.364946e-001
1.450268e+003;1.385910e-001
1.452197e+003;1.413996e-001
1.454125e+003;1.442904e-001
1.456054e+003;1.474317e-001
1.457982e+003;1.521402e-001
1.459911e+003;1.580099e-001
1.461839e+003;1.617108e-001
1.463768e+003;1.600265e-001
1.465697e+003;1.535067e-001
1.467625e+003;1.458898e-001
1.469554e+003;1.400141e-001
1.471482e+003;1.373132e-001
1.473411e+003;1.376777e-001
1.475339e+003;1.385700e-001
1.477268e+003;1.373896e-001
1.479196e+003;1.336055e-001
1.481125e+003;1.277120e-001
1.483053e+003;1.207217e-001
1.484982e+003;1.146578e-001
1.486911e+003;1.109540e-001
1.488839e+003;1.100251e-001
1.490768e+003;1.113929e-001
1.492696e+003;1.139145e-001
1.494625e+003;1.168206e-001
1.496553e+003;1.203491e-001
1.498482e+003;1.247859e-001
1.500410e+003;1.298381e-001
1.502339e+003;1.351536e-001
1.504267e+003;1.407134e-001
1.506196e+003;1.469002e-001
1.508125e+003;1.538854e-001
1.510053e+003;1.611632e-001
1.511982e+003;1.687524e-001
1.513910e+003;1.764934e-001
1.515839e+003;1.845049e-001
1.517767e+003;1.932406e-001
1.519696e+003;2.023897e-001
1.521624e+003;2.121005e-001
1.523553e+003;2.221810e-001
1.525481e+003;2.322581e-001
1.527410e+003;2.426855e-001
1.529339e+003;2.531039e-001
1.531267e+003;2.626445e-001
1.533196e+003;2.713315e-001
1.535124e+003;2.788089e-001
1.537053e+003;2.838092e-001
1.538981e+003;2.852728e-001
1.540910e+003;2.841427e-001
1.542838e+003;2.806176e-001
1.544767e+003;2.739320e-001
1.546695e+003;2.646790e-001
1.548624e+003;2.535251e-001
1.550553e+003;2.413138e-001
1.552481e+003;2.296376e-001
1.554410e+003;2.187305e-001
1.556338e+003;2.081162e-001
1.558267e+003;1.974305e-001
1.560195e+003;1.874688e-001
1.562124e+003;1.787949e-001
1.564052e+003;1.700933e-001
1.565981e+003;1.611438e-001
1.567910e+003;1.524553e-001
1.569838e+003;1.441261e-001
1.571767e+003;1.368896e-001
1.573695e+003;1.302439e-001
1.575624e+003;1.239154e-001
1.577552e+003;1.186262e-001
1.579481e+003;1.148061e-001
1.581409e+003;1.117046e-001
1.583338e+003;1.094546e-001
1.585266e+003;1.082947e-001
1.587195e+003;1.077345e-001
1.589124e+003;1.077059e-001
1.591052e+003;1.084891e-001
1.592981e+003;1.103757e-001
1.594909e+003;1.131757e-001
1.596838e+003;1.169386e-001
1.598766e+003;1.217993e-001
1.600695e+003;1.276966e-001
1.602623e+003;1.348544e-001
1.604552e+003;1.430202e-001
1.606480e+003;1.520804e-001
1.608409e+003;1.620106e-001
1.610338e+003;1.728685e-001
1.612266e+003;1.851078e-001
1.614195e+003;1.985456e-001
1.616123e+003;2.137194e-001
1.618052e+003;2.321249e-001
1.619980e+003;2.520394e-001
1.621909e+003;2.721350e-001
1.623837e+003;2.926351e-001
1.625766e+003;3.131664e-001
1.627694e+003;3.332975e-001
1.629623e+003;3.532675e-001
1.631552e+003;3.713249e-001
1.633480e+003;3.844599e-001
1.635409e+003;3.890808e-001
1.637337e+003;3.830179e-001
1.639266e+003;3.669643e-001
1.641194e+003;3.444063e-001
1.643123e+003;3.192328e-001
1.645051e+003;2.935427e-001
1.646980e+003;2.692508e-001
1.648909e+003;2.478919e-001
1.650837e+003;2.293099e-001
1.652766e+003;2.128272e-001
1.654694e+003;1.994870e-001
1.656623e+003;1.885108e-001
1.658551e+003;1.778616e-001
1.660480e+003;1.675495e-001
1.662408e+003;1.577035e-001
1.664337e+003;1.484412e-001
1.666266e+003;1.392642e-001
1.668194e+003;1.302839e-001
1.670123e+003;1.219964e-001
1.672051e+003;1.145737e-001
1.673980e+003;1.074424e-001
1.675908e+003;1.002316e-001
1.677837e+003;9.295485e-002
1.679765e+003;8.530273e-002
1.681694e+003;7.778767e-002
1.683622e+003;7.068291e-002
1.685551e+003;6.457982e-002
1.687479e+003;5.985690e-002
1.689408e+003;5.583647e-002
1.691337e+003;5.279091e-002
1.693265e+003;5.032305e-002
1.695194e+003;4.816268e-002
1.697122e+003;4.682531e-002
1.699051e+003;4.585171e-002
1.700979e+003;4.508572e-002
1.702908e+003;4.499725e-002
1.704836e+003;4.469937e-002
1.706765e+003;4.449038e-002
1.708693e+003;4.443510e-002
1.710622e+003;4.429227e-002
1.712551e+003;4.403210e-002
1.714479e+003;4.400320e-002
1.716408e+003;4.400804e-002
1.718336e+003;4.408256e-002
1.720265e+003;4.451534e-002
1.722193e+003;4.483356e-002
1.724122e+003;4.483863e-002
1.726050e+003;4.464594e-002
1.727979e+003;4.396338e-002
1.729908e+003;4.323003e-002
1.731836e+003;4.255141e-002
1.733765e+003;4.181745e-002
1.735693e+003;4.140695e-002
1.737622e+003;4.096859e-002
1.739550e+003;4.050087e-002
1.741479e+003;4.006138e-002
1.743407e+003;3.943522e-002
1.745336e+003;3.904890e-002
1.747265e+003;3.885515e-002
1.749193e+003;3.857666e-002
1.751122e+003;3.828800e-002
1.753050e+003;3.833092e-002
1.754979e+003;3.817374e-002
1.756907e+003;3.781435e-002
1.758836e+003;3.746544e-002
1.760764e+003;3.709234e-002
1.762693e+003;3.685779e-002
1.764621e+003;3.653178e-002
1.766550e+003;3.609543e-002
1.768479e+003;3.577074e-002
1.770407e+003;3.557711e-002
1.772336e+003;3.509537e-002
1.774264e+003;3.464912e-002
1.776193e+003;3.452461e-002
1.778121e+003;3.443170e-002
1.780050e+003;3.413156e-002
1.781978e+003;3.383173e-002
1.783907e+003;3.358501e-002
1.785835e+003;3.355064e-002
1.787764e+003;3.350218e-002
1.789693e+003;3.320475e-002
1.791621e+003;3.281781e-002
1.793550e+003;3.253657e-002
1.795478e+003;3.241295e-002
1.797407e+003;3.242041e-002
1.799335e+003;3.234769e-002
1.801264e+003;3.207991e-002
1.803192e+003;3.187148e-002
1.805121e+003;3.171259e-002
1.807049e+003;3.168885e-002
1.808978e+003;3.179418e-002
1.810907e+003;3.196292e-002
1.812835e+003;3.197893e-002
1.814764e+003;3.169387e-002
1.816692e+003;3.140947e-002
1.818621e+003;3.129233e-002
1.820549e+003;3.132267e-002
1.822478e+003;3.126719e-002
1.824406e+003;3.119520e-002
1.826335e+003;3.122048e-002
1.828264e+003;3.108901e-002
1.830192e+003;3.109983e-002
1.832121e+003;3.123607e-002
1.834049e+003;3.108613e-002
1.835978e+003;3.098897e-002
1.837906e+003;3.107517e-002
1.839835e+003;3.098453e-002
1.841763e+003;3.086637e-002
1.843692e+003;3.068771e-002
1.845620e+003;3.046253e-002
1.847549e+003;3.023591e-002
1.849478e+003;3.023573e-002
1.851406e+003;3.017193e-002
1.853335e+003;2.994876e-002
1.855263e+003;2.989789e-002
1.857192e+003;3.000709e-002
1.859120e+003;3.006692e-002
1.861049e+003;3.006419e-002
1.862977e+003;2.998554e-002
1.864906e+003;2.982797e-002
1.866834e+003;2.960313e-002
1.868763e+003;2.971158e-002
1.870692e+003;2.967902e-002
1.872620e+003;2.949712e-002
1.874549e+003;2.953830e-002
1.876477e+003;2.974401e-002
1.878406e+003;2.980427e-002
1.880334e+003;2.985403e-002
1.882263e+003;2.980675e-002
1.884191e+003;2.980367e-002
1.886120e+003;2.987280e-002
1.888048e+003;2.982957e-002
1.889977e+003;2.979852e-002
1.891906e+003;2.963673e-002
1.893834e+003;2.965610e-002
1.895763e+003;3.006660e-002
1.897691e+003;3.032444e-002
1.899620e+003;3.026468e-002
1.901548e+003;3.020529e-002
1.903477e+003;3.039487e-002
1.905405e+003;3.043549e-002
1.907334e+003;3.009799e-002
1.909262e+003;2.986925e-002
1.911191e+003;2.993328e-002
1.913120e+003;3.007314e-002
1.915048e+003;2.988068e-002
1.916977e+003;2.955727e-002
1.918905e+003;2.962385e-002
1.920834e+003;2.971950e-002
1.922762e+003;2.953475e-002
1.924691e+003;2.961754e-002
1.926619e+003;2.963396e-002
1.928548e+003;2.949858e-002
1.930477e+003;2.948280e-002
1.932405e+003;2.947921e-002
1.934334e+003;2.947609e-002
1.936262e+003;2.942833e-002
1.938191e+003;2.935781e-002
1.940119e+003;2.924091e-002
1.942048e+003;2.912422e-002
1.943976e+003;2.905020e-002
1.945905e+003;2.905949e-002
1.947833e+003;2.921720e-002
1.949762e+003;2.931010e-002
1.951691e+003;2.939876e-002
1.953619e+003;2.959168e-002
1.955548e+003;2.956107e-002
1.957476e+003;2.964925e-002
1.959405e+003;2.978248e-002
1.961333e+003;2.973302e-002
1.963262e+003;2.971645e-002
1.965190e+003;2.984948e-002
1.967119e+003;3.005982e-002
1.969047e+003;3.016103e-002
1.970976e+003;3.000372e-002
1.972905e+003;2.998025e-002
1.974833e+003;3.020944e-002
1.976762e+003;3.033172e-002
1.978690e+003;3.031620e-002
1.980619e+003;3.017677e-002
1.982547e+003;3.010971e-002
1.984476e+003;3.028699e-002
1.986404e+003;3.047835e-002
1.988333e+003;3.050515e-002
1.990261e+003;3.018021e-002
1.992190e+003;3.004860e-002
1.994119e+003;3.011752e-002
1.996047e+003;3.019293e-002
1.997976e+003;3.028411e-002
1.999904e+003;3.025978e-002
2.001833e+003;3.022042e-002
2.003761e+003;3.026557e-002
2.005690e+003;3.028657e-002
2.007618e+003;3.022397e-002
2.009547e+003;3.012967e-002
2.011476e+003;3.035798e-002
2.013404e+003;3.053487e-002
2.015333e+003;3.045631e-002
2.017261e+003;3.062794e-002
2.019190e+003;3.089582e-002
2.021118e+003;3.074034e-002
2.023047e+003;3.058183e-002
2.024975e+003;3.063889e-002
2.026904e+003;3.087985e-002
2.028833e+003;3.122671e-002
2.030761e+003;3.144591e-002
2.032690e+003;3.144975e-002
2.034618e+003;3.141118e-002
2.036547e+003;3.159950e-002
2.038475e+003;3.177461e-002
2.040404e+003;3.173044e-002
2.042332e+003;3.168618e-002
2.044261e+003;3.165103e-002
2.046189e+003;3.141990e-002
2.048118e+003;3.135918e-002
2.050047e+003;3.143187e-002
2.051975e+003;3.146785e-002
2.053904e+003;3.157517e-002
2.055832e+003;3.179354e-002
2.057761e+003;3.203222e-002
2.059689e+003;3.198064e-002
2.061618e+003;3.193602e-002
2.063546e+003;3.194922e-002
2.065475e+003;3.186592e-002
2.067404e+003;3.185269e-002
2.069332e+003;3.197172e-002
2.071260e+003;3.204192e-002
2.073189e+003;3.207806e-002
2.075118e+003;3.207602e-002
2.077046e+003;3.216789e-002
2.078975e+003;3.206100e-002
2.080903e+003;3.179736e-002
2.082832e+003;3.167338e-002
2.084760e+003;3.166048e-002
2.086689e+003;3.165150e-002
2.088617e+003;3.154007e-002
2.090546e+003;3.148599e-002
2.092475e+003;3.153921e-002
2.094403e+003;3.169730e-002
2.096332e+003;3.179543e-002
2.098260e+003;3.164276e-002
2.100189e+003;3.153868e-002
2.102117e+003;3.155069e-002
2.104046e+003;3.158853e-002
2.105974e+003;3.164269e-002
2.107903e+003;3.161543e-002
2.109832e+003;3.174873e-002
2.111760e+003;3.201588e-002
2.113688e+003;3.200771e-002
2.115617e+003;3.193378e-002
2.117546e+003;3.188296e-002
2.119474e+003;3.197668e-002
2.121403e+003;3.213739e-002
2.123331e+003;3.217735e-002
2.125260e+003;3.212879e-002
2.127188e+003;3.227584e-002
2.129117e+003;3.246736e-002
2.131045e+003;3.241534e-002
2.132974e+003;3.233320e-002
2.134903e+003;3.225639e-002
2.136831e+003;3.219283e-002
2.138760e+003;3.231910e-002
2.140688e+003;3.240895e-002
2.142617e+003;3.231132e-002
2.144545e+003;3.240388e-002
2.146474e+003;3.259107e-002
2.148402e+003;3.237786e-002
2.150331e+003;3.219619e-002
2.152260e+003;3.257096e-002
2.154188e+003;3.297136e-002
2.156117e+003;3.279584e-002
2.158045e+003;3.245708e-002
2.159974e+003;3.235951e-002
2.161902e+003;3.228491e-002
2.163831e+003;3.249472e-002
2.165759e+003;3.298426e-002
2.167688e+003;3.321945e-002
2.169616e+003;3.337611e-002
2.171545e+003;3.345411e-002
2.173474e+003;3.328652e-002
2.175402e+003;3.334465e-002
2.177331e+003;3.331238e-002
2.179259e+003;3.332734e-002
2.181188e+003;3.343117e-002
2.183116e+003;3.329693e-002
2.185045e+003;3.333406e-002
2.186973e+003;3.336158e-002
2.188902e+003;3.331324e-002
2.190831e+003;3.338995e-002
2.192759e+003;3.345125e-002
2.194688e+003;3.340981e-002
2.196616e+003;3.331163e-002
2.198545e+003;3.310386e-002
2.200473e+003;3.290666e-002
2.202402e+003;3.300786e-002
2.204330e+003;3.318718e-002
2.206259e+003;3.317538e-002
2.208188e+003;3.302513e-002
2.210116e+003;3.277444e-002
2.212044e+003;3.269326e-002
2.213973e+003;3.268444e-002
2.215902e+003;3.267619e-002
2.217830e+003;3.256621e-002
2.219759e+003;3.243994e-002
2.221687e+003;3.232831e-002
2.223616e+003;3.238824e-002
2.225544e+003;3.233017e-002
2.227473e+003;3.213453e-002
2.229401e+003;3.215887e-002
2.231330e+003;3.237686e-002
2.233259e+003;3.244708e-002
2.235187e+003;3.234841e-002
2.237116e+003;3.214898e-002
2.239044e+003;3.214206e-002
2.240973e+003;3.211095e-002
2.242901e+003;3.209803e-002
2.244830e+003;3.219255e-002
2.246758e+003;3.219829e-002
2.248687e+003;3.209557e-002
2.250615e+003;3.204920e-002
2.252544e+003;3.201428e-002
2.254473e+003;3.209054e-002
2.256401e+003;3.232503e-002
2.258330e+003;3.241549e-002
2.260258e+003;3.243012e-002
2.262187e+003;3.252414e-002
2.264115e+003;3.260882e-002
2.266044e+003;3.279077e-002
2.267972e+003;3.289708e-002
2.269901e+003;3.275993e-002
2.271830e+003;3.264714e-002
2.273758e+003;3.246183e-002
2.275687e+003;3.240488e-002
2.277615e+003;3.267461e-002
2.279544e+003;3.290791e-002
2.281472e+003;3.289691e-002
2.283401e+003;3.276586e-002
2.285329e+003;3.286770e-002
2.287258e+003;3.303714e-002
2.289187e+003;3.289204e-002
2.291115e+003;3.267522e-002
2.293043e+003;3.276072e-002
2.294972e+003;3.299427e-002
2.296901e+003;3.312271e-002
2.298829e+003;3.319566e-002
2.300758e+003;3.307801e-002
2.302686e+003;3.310068e-002
2.304615e+003;3.318822e-002
2.306543e+003;3.321515e-002
2.308472e+003;3.330029e-002
2.310400e+003;3.345533e-002
2.312329e+003;3.345991e-002
2.314258e+003;3.346882e-002
2.316186e+003;3.356170e-002
2.318115e+003;3.355572e-002
2.320043e+003;3.338806e-002
2.321972e+003;3.322882e-002
2.323900e+003;3.331535e-002
2.325829e+003;3.364909e-002
2.327757e+003;3.367884e-002
2.329686e+003;3.348074e-002
2.331615e+003;3.340119e-002
2.333543e+003;3.337492e-002
2.335472e+003;3.330949e-002
2.337400e+003;3.314327e-002
2.339329e+003;3.312077e-002
2.341257e+003;3.315976e-002
2.343186e+003;3.299924e-002
2.345114e+003;3.290248e-002
2.347043e+003;3.304933e-002
2.348971e+003;3.318082e-002
2.350900e+003;3.319699e-002
2.352829e+003;3.307308e-002
2.354757e+003;3.285673e-002
2.356686e+003;3.272127e-002
2.358614e+003;3.272859e-002
2.360543e+003;3.273492e-002
2.362471e+003;3.274624e-002
2.364400e+003;3.269930e-002
2.366328e+003;3.278744e-002
2.368257e+003;3.307608e-002
2.370186e+003;3.331374e-002
2.372114e+003;3.354005e-002
2.374042e+003;3.336315e-002
2.375971e+003;3.317342e-002
2.377900e+003;3.318905e-002
2.379828e+003;3.331267e-002
2.381757e+003;3.356972e-002
2.383685e+003;3.363044e-002
2.385614e+003;3.347716e-002
2.387542e+003;3.321937e-002
2.389471e+003;3.316290e-002
2.391399e+003;3.324062e-002
2.393328e+003;3.337936e-002
2.395257e+003;3.352519e-002
2.397185e+003;3.351828e-002
2.399114e+003;3.323801e-002
2.401042e+003;3.312156e-002
2.402971e+003;3.325550e-002
2.404899e+003;3.343429e-002
2.406828e+003;3.346907e-002
2.408756e+003;3.346170e-002
2.410685e+003;3.343754e-002
2.412614e+003;3.350744e-002
2.414542e+003;3.363484e-002
2.416471e+003;3.370731e-002
2.418399e+003;3.373693e-002
2.420328e+003;3.369213e-002
2.422256e+003;3.367680e-002
2.424185e+003;3.374176e-002
2.426113e+003;3.383223e-002
2.428042e+003;3.366975e-002
2.429970e+003;3.378531e-002
2.431899e+003;3.404909e-002
2.433828e+003;3.413432e-002
2.435756e+003;3.423899e-002
2.437685e+003;3.429762e-002
2.439613e+003;3.431170e-002
2.441542e+003;3.454998e-002
2.443470e+003;3.454797e-002
2.445399e+003;3.433408e-002
2.447327e+003;3.442568e-002
2.449256e+003;3.462967e-002
2.451185e+003;3.491677e-002
2.453113e+003;3.514071e-002
2.455042e+003;3.499749e-002
2.456970e+003;3.470008e-002
2.458899e+003;3.485163e-002
2.460827e+003;3.497519e-002
2.462756e+003;3.496747e-002
2.464684e+003;3.516323e-002
2.466613e+003;3.527007e-002
2.468542e+003;3.555427e-002
2.470470e+003;3.589863e-002
2.472398e+003;3.608203e-002
2.474327e+003;3.599308e-002
2.476256e+003;3.596151e-002
2.478184e+003;3.609193e-002
2.480113e+003;3.606367e-002
2.482041e+003;3.593368e-002
2.483970e+003;3.602004e-002
2.485898e+003;3.632207e-002
2.487827e+003;3.639290e-002
2.489755e+003;3.599811e-002
2.491684e+003;3.590561e-002
2.493613e+003;3.588934e-002
2.495541e+003;3.594578e-002
2.497470e+003;3.590507e-002
2.499398e+003;3.590136e-002
2.501327e+003;3.614919e-002
2.503255e+003;3.627625e-002
2.505184e+003;3.626865e-002
2.507112e+003;3.610637e-002
2.509041e+003;3.601662e-002
2.510969e+003;3.623393e-002
2.512898e+003;3.650965e-002
2.514827e+003;3.676493e-002
2.516755e+003;3.694188e-002
2.518684e+003;3.718679e-002
2.520612e+003;3.744788e-002
2.522541e+003;3.746193e-002
2.524469e+003;3.723982e-002
2.526398e+003;3.737634e-002
2.528326e+003;3.759946e-002
2.530255e+003;3.779009e-002
2.532184e+003;3.798608e-002
2.534112e+003;3.802362e-002
2.536041e+003;3.796222e-002
2.537969e+003;3.800688e-002
2.539898e+003;3.812892e-002
2.541826e+003;3.830689e-002
2.543755e+003;3.859567e-002
2.545683e+003;3.872972e-002
2.547612e+003;3.865043e-002
2.549541e+003;3.890976e-002
2.551469e+003;3.929244e-002
2.553397e+003;3.916405e-002
2.555326e+003;3.877866e-002
2.557255e+003;3.877591e-002
2.559183e+003;3.880442e-002
2.561112e+003;3.886776e-002
2.563040e+003;3.898511e-002
2.564969e+003;3.902480e-002
2.566897e+003;3.921090e-002
2.568826e+003;3.932646e-002
2.570754e+003;3.923723e-002
2.572683e+003;3.927684e-002
2.574612e+003;3.945790e-002
2.576540e+003;3.959671e-002
2.578469e+003;3.961174e-002
2.580397e+003;3.970264e-002
2.582326e+003;3.987876e-002
2.584254e+003;4.002549e-002
2.586183e+003;4.009165e-002
2.588111e+003;4.029887e-002
2.590040e+003;4.068390e-002
2.591969e+003;4.046556e-002
2.593897e+003;3.993499e-002
2.595826e+003;3.989373e-002
2.597754e+003;4.021522e-002
2.599683e+003;4.032901e-002
2.601611e+003;4.023078e-002
2.603540e+003;4.045566e-002
2.605468e+003;4.069704e-002
2.607397e+003;4.056467e-002
2.609325e+003;4.057093e-002
2.611254e+003;4.075919e-002
2.613183e+003;4.083348e-002
2.615111e+003;4.109845e-002
2.617040e+003;4.127951e-002
2.618968e+003;4.112380e-002
2.620897e+003;4.091655e-002
2.622825e+003;4.086413e-002
2.624754e+003;4.096480e-002
2.626682e+003;4.089803e-002
2.628611e+003;4.100642e-002
2.630540e+003;4.123006e-002
2.632468e+003;4.146454e-002
2.634396e+003;4.165454e-002
2.636325e+003;4.155539e-002
2.638254e+003;4.176167e-002
2.640182e+003;4.207575e-002
2.642111e+003;4.206013e-002
2.644039e+003;4.201176e-002
2.645968e+003;4.191753e-002
2.647896e+003;4.177152e-002
2.649825e+003;4.183003e-002
2.651753e+003;4.213434e-002
2.653682e+003;4.233742e-002
2.655611e+003;4.241728e-002
2.657539e+003;4.237399e-002
2.659468e+003;4.248713e-002
2.661396e+003;4.263321e-002
2.663325e+003;4.261373e-002
2.665253e+003;4.260452e-002
2.667182e+003;4.265711e-002
2.669110e+003;4.257520e-002
2.671039e+003;4.260170e-002
2.672968e+003;4.302171e-002
2.674896e+003;4.326275e-002
2.676825e+003;4.336449e-002
2.678753e+003;4.344245e-002
2.680682e+003;4.355218e-002
2.682610e+003;4.370736e-002
2.684539e+003;4.363185e-002
2.686467e+003;4.357316e-002
2.688396e+003;4.367692e-002
2.690324e+003;4.365786e-002
2.692253e+003;4.391521e-002
2.694182e+003;4.443808e-002
2.696110e+003;4.466845e-002
2.698039e+003;4.496627e-002
2.699967e+003;4.534256e-002
2.701896e+003;4.545567e-002
2.703824e+003;4.568755e-002
2.705753e+003;4.583754e-002
2.707681e+003;4.570628e-002
2.709610e+003;4.566955e-002
2.711539e+003;4.611209e-002
2.713467e+003;4.629585e-002
2.715396e+003;4.643019e-002
2.717324e+003;4.689407e-002
2.719253e+003;4.739252e-002
2.721181e+003;4.766748e-002
2.723110e+003;4.772040e-002
2.725038e+003;4.805414e-002
2.726967e+003;4.825068e-002
2.728896e+003;4.823169e-002
2.730824e+003;4.842426e-002
2.732752e+003;4.873205e-002
2.734681e+003;4.904650e-002
2.736610e+003;4.920281e-002
2.738538e+003;4.943722e-002
2.740467e+003;4.987757e-002
2.742395e+003;5.002105e-002
2.744324e+003;4.980989e-002
2.746252e+003;4.983709e-002
2.748181e+003;5.009980e-002
2.750109e+003;5.023303e-002
2.752038e+003;4.996016e-002
2.753967e+003;4.994310e-002
2.755895e+003;5.004645e-002
2.757824e+003;5.023626e-002
2.759752e+003;5.052140e-002
2.761681e+003;5.070043e-002
2.763609e+003;5.088416e-002
2.765538e+003;5.095871e-002
2.767466e+003;5.108605e-002
2.769395e+003;5.142839e-002
2.771323e+003;5.174414e-002
2.773252e+003;5.155874e-002
2.775181e+003;5.156672e-002
2.777109e+003;5.207053e-002
2.779038e+003;5.243706e-002
2.780966e+003;5.250814e-002
2.782895e+003;5.277774e-002
2.784823e+003;5.323419e-002
2.786752e+003;5.363972e-002
2.788680e+003;5.396604e-002
2.790609e+003;5.386974e-002
2.792538e+003;5.416095e-002
2.794466e+003;5.463430e-002
2.796395e+003;5.476332e-002
2.798323e+003;5.493287e-002
2.800252e+003;5.528681e-002
2.802180e+003;5.577547e-002
2.804109e+003;5.635013e-002
2.806037e+003;5.686341e-002
2.807966e+003;5.724891e-002
2.809895e+003;5.776563e-002
2.811823e+003;5.818614e-002
2.813751e+003;5.867834e-002
2.815680e+003;5.939497e-002
2.817609e+003;6.007544e-002
2.819537e+003;6.068120e-002
2.821466e+003;6.111049e-002
2.823394e+003;6.173193e-002
2.825323e+003;6.269597e-002
2.827251e+003;6.288327e-002
2.829180e+003;6.317834e-002
2.831108e+003;6.420264e-002
2.833037e+003;6.525674e-002
2.834966e+003;6.651471e-002
2.836894e+003;6.839681e-002
2.838823e+003;7.080348e-002
2.840751e+003;7.359705e-002
2.842680e+003;7.697301e-002
2.844608e+003;8.086598e-002
2.846537e+003;8.512078e-002
2.848465e+003;8.949186e-002
2.850394e+003;9.371677e-002
2.852323e+003;9.772662e-002
2.854251e+003;1.020034e-001
2.856180e+003;1.054921e-001
2.858108e+003;1.077537e-001
2.860037e+003;1.091665e-001
2.861965e+003;1.097714e-001
2.863894e+003;1.097906e-001
2.865822e+003;1.088801e-001
2.867751e+003;1.067906e-001
2.869679e+003;1.042944e-001
2.871608e+003;1.019656e-001
2.873536e+003;9.926580e-002
2.875465e+003;9.620119e-002
2.877394e+003;9.322552e-002
2.879322e+003;9.056924e-002
2.881251e+003;8.845687e-002
2.883179e+003;8.707140e-002
2.885108e+003;8.663753e-002
2.887036e+003;8.670857e-002
2.888965e+003;8.720800e-002
2.890893e+003;8.832682e-002
2.892822e+003;9.033950e-002
2.894750e+003;9.272774e-002
2.896679e+003;9.491653e-002
2.898608e+003;9.638404e-002
2.900536e+003;9.744492e-002
2.902465e+003;9.834933e-002
2.904393e+003;9.927022e-002
2.906322e+003;1.004173e-001
2.908250e+003;1.020752e-001
2.910179e+003;1.039119e-001
2.912107e+003;1.062824e-001
2.914036e+003;1.085925e-001
2.915965e+003;1.107232e-001
2.917893e+003;1.131749e-001
2.919822e+003;1.166712e-001
2.921750e+003;1.205551e-001
2.923679e+003;1.242665e-001
2.925607e+003;1.277870e-001
2.927536e+003;1.310662e-001
2.929464e+003;1.338610e-001
2.931393e+003;1.359452e-001
2.933322e+003;1.373566e-001
2.935250e+003;1.379098e-001
2.937178e+003;1.373904e-001
2.939107e+003;1.350987e-001
2.941036e+003;1.319243e-001
2.942964e+003;1.286194e-001
2.944893e+003;1.245825e-001
2.946821e+003;1.194229e-001
2.948750e+003;1.132321e-001
2.950678e+003;1.067383e-001
2.952607e+003;1.001413e-001
2.954535e+003;9.407798e-002
2.956464e+003;8.855376e-002
2.958393e+003;8.355794e-002
2.960321e+003;7.949407e-002
2.962250e+003;7.597158e-002
2.964178e+003;7.289272e-002
2.966107e+003;7.014432e-002
2.968035e+003;6.759097e-002
2.969964e+003;6.507406e-002
2.971892e+003;6.291583e-002
2.973821e+003;6.108802e-002
2.975750e+003;5.912410e-002
2.977678e+003;5.753906e-002
2.979607e+003;5.600437e-002
2.981535e+003;5.467252e-002
2.983464e+003;5.363908e-002
2.985392e+003;5.255836e-002
2.987321e+003;5.189421e-002
2.989249e+003;5.145003e-002
2.991178e+003;5.103726e-002
2.993106e+003;5.045708e-002
2.995035e+003;5.001183e-002
2.996964e+003;4.983947e-002
2.998892e+003;4.965265e-002
3.000821e+003;4.963676e-002
3.002749e+003;4.977106e-002
3.004678e+003;5.003377e-002
3.006606e+003;5.042221e-002
3.008535e+003;5.044990e-002
3.010463e+003;4.999633e-002
3.012392e+003;5.006593e-002
3.014321e+003;5.035955e-002
3.016249e+003;5.039122e-002
3.018177e+003;5.073432e-002
3.020106e+003;5.115287e-002
3.022035e+003;5.151807e-002
3.023963e+003;5.197413e-002
3.025892e+003;5.215937e-002
3.027820e+003;5.233220e-002
3.029749e+003;5.290722e-002
3.031677e+003;5.345231e-002
3.033606e+003;5.383403e-002
3.035534e+003;5.427597e-002
3.037463e+003;5.472513e-002
3.039392e+003;5.522303e-002
3.041320e+003;5.591105e-002
3.043249e+003;5.671455e-002
3.045177e+003;5.750978e-002
3.047106e+003;5.850797e-002
3.049034e+003;5.947509e-002
3.050963e+003;6.023810e-002
3.052891e+003;6.090800e-002
3.054820e+003;6.152886e-002
3.056749e+003;6.208943e-002
3.058677e+003;6.261521e-002
3.060606e+003;6.306254e-002
3.062534e+003;6.346221e-002
3.064463e+003;6.404909e-002
3.066391e+003;6.459993e-002
3.068320e+003;6.500305e-002
3.070248e+003;6.513476e-002
3.072177e+003;6.515308e-002
3.074105e+003;6.517360e-002
3.076034e+003;6.492498e-002
3.077963e+003;6.460962e-002
3.079891e+003;6.438179e-002
3.081820e+003;6.435397e-002
3.083748e+003;6.427478e-002
3.085677e+003;6.400316e-002
3.087605e+003;6.347387e-002
3.089534e+003;6.298696e-002
3.091462e+003;6.248613e-002
3.093391e+003;6.204601e-002
3.095320e+003;6.145522e-002
3.097248e+003;6.070627e-002
3.099177e+003;5.998920e-002
3.101105e+003;5.953669e-002
3.103034e+003;5.880880e-002
3.104962e+003;5.823497e-002
3.106891e+003;5.770417e-002
3.108819e+003;5.698943e-002
3.110748e+003;5.658737e-002
3.112677e+003;5.617467e-002
3.114605e+003;5.579830e-002
3.116533e+003;5.535959e-002
3.118462e+003;5.518284e-002
3.120391e+003;5.500469e-002
3.122319e+003;5.453274e-002
3.124248e+003;5.421437e-002
3.126176e+003;5.411794e-002
3.128105e+003;5.417750e-002
3.130033e+003;5.399763e-002
3.131962e+003;5.380302e-002
3.133890e+003;5.402022e-002
3.135819e+003;5.399714e-002
3.137748e+003;5.377823e-002
3.139676e+003;5.388557e-002
3.141605e+003;5.396750e-002
3.143533e+003;5.393314e-002
3.145462e+003;5.399414e-002
3.147390e+003;5.427583e-002
3.149319e+003;5.482463e-002
3.151247e+003;5.534612e-002
3.153176e+003;5.561075e-002
3.155104e+003;5.563181e-002
3.157033e+003;5.593826e-002
3.158962e+003;5.621992e-002
3.160890e+003;5.632878e-002
3.162819e+003;5.665445e-002
3.164747e+003;5.726595e-002
3.166676e+003;5.764647e-002
3.168604e+003;5.813985e-002
3.170533e+003;5.921903e-002
3.172461e+003;6.010231e-002
3.174390e+003;6.067323e-002
3.176319e+003;6.096550e-002
3.178247e+003;6.102879e-002
3.180176e+003;6.146140e-002
3.182104e+003;6.224164e-002
3.184033e+003;6.314737e-002
3.185961e+003;6.391187e-002
3.187890e+003;6.454180e-002
3.189818e+003;6.494891e-002
3.191747e+003;6.529054e-002
3.193676e+003;6.555414e-002
3.195604e+003;6.597863e-002
3.197532e+003;6.662069e-002
3.199461e+003;6.675733e-002
3.201390e+003;6.690380e-002
3.203318e+003;6.734312e-002
3.205247e+003;6.767669e-002
3.207175e+003;6.813376e-002
3.209104e+003;6.865127e-002
3.211032e+003;6.899199e-002
3.212961e+003;6.914703e-002
3.214889e+003;6.958259e-002
3.216818e+003;7.029162e-002
3.218747e+003;7.113789e-002
3.220675e+003;7.189982e-002
3.222604e+003;7.262444e-002
3.224532e+003;7.351919e-002
3.226461e+003;7.458432e-002
3.228389e+003;7.544626e-002
3.230318e+003;7.623918e-002
3.232246e+003;7.721439e-002
3.234175e+003;7.837567e-002
3.236104e+003;7.985020e-002
3.238032e+003;8.136141e-002
3.239961e+003;8.292186e-002
3.241889e+003;8.470512e-002
3.243818e+003;8.687022e-002
3.245746e+003;8.879080e-002
3.247675e+003;9.067656e-002
3.249603e+003;9.229031e-002
3.251532e+003;9.417309e-002
3.253460e+003;9.639297e-002
3.255389e+003;9.829133e-002
3.257318e+003;1.002759e-001
3.259246e+003;1.027225e-001
3.261175e+003;1.053632e-001
3.263103e+003;1.079220e-001
3.265032e+003;1.105791e-001
3.266960e+003;1.129303e-001
3.268889e+003;1.150065e-001
3.270817e+003;1.172566e-001
3.272746e+003;1.201656e-001
3.274675e+003;1.228316e-001
3.276603e+003;1.249018e-001
3.278531e+003;1.272497e-001
3.280460e+003;1.297700e-001
3.282389e+003;1.322587e-001
3.284317e+003;1.346451e-001
3.286246e+003;1.369399e-001
3.288174e+003;1.386810e-001
3.290103e+003;1.392698e-001
3.292031e+003;1.397068e-001
3.293960e+003;1.398107e-001
3.295888e+003;1.388328e-001
3.297817e+003;1.370740e-001
3.299746e+003;1.346472e-001
3.301674e+003;1.322187e-001
3.303603e+003;1.295851e-001
3.305531e+003;1.264537e-001
3.307460e+003;1.226602e-001
3.309388e+003;1.192238e-001
3.311317e+003;1.162106e-001
3.313245e+003;1.131924e-001
3.315174e+003;1.097340e-001
3.317103e+003;1.063148e-001
3.319031e+003;1.034299e-001
3.320960e+003;1.004366e-001
3.322888e+003;9.716651e-002
3.324817e+003;9.411354e-002
3.326745e+003;9.127542e-002
3.328674e+003;8.853202e-002
3.330602e+003;8.588974e-002
3.332531e+003;8.377528e-002
3.334459e+003;8.183401e-002
3.336388e+003;7.954452e-002
3.338317e+003;7.739805e-002
3.340245e+003;7.542171e-002
3.342174e+003;7.358924e-002
3.344102e+003;7.175139e-002
3.346031e+003;7.007337e-002
3.347959e+003;6.831106e-002
3.349888e+003;6.652961e-002
3.351816e+003;6.523190e-002
3.353745e+003;6.371967e-002
3.355674e+003;6.211443e-002
3.357602e+003;6.093309e-002
3.359531e+003;5.971583e-002
3.361459e+003;5.874017e-002
3.363388e+003;5.796286e-002
3.365316e+003;5.693439e-002
3.367245e+003;5.598390e-002
3.369173e+003;5.509210e-002
3.371102e+003;5.455371e-002
3.373031e+003;5.397947e-002
3.374959e+003;5.283181e-002
3.376887e+003;5.206810e-002
3.378816e+003;5.165079e-002
3.380745e+003;5.123545e-002
3.382673e+003;5.049728e-002
3.384602e+003;5.003392e-002
3.386530e+003;4.983817e-002
3.388459e+003;4.941056e-002
3.390387e+003;4.873123e-002
3.392316e+003;4.828104e-002
3.394244e+003;4.814080e-002
3.396173e+003;4.808623e-002
3.398102e+003;4.772920e-002
3.400030e+003;4.726838e-002
3.401959e+003;4.709274e-002
3.403887e+003;4.697477e-002
3.405816e+003;4.665241e-002
3.407744e+003;4.601001e-002
3.409673e+003;4.552098e-002
3.411601e+003;4.573231e-002
3.413530e+003;4.573735e-002
3.415458e+003;4.565137e-002
3.417387e+003;4.547888e-002
3.419316e+003;4.530063e-002
3.421244e+003;4.499909e-002
3.423173e+003;4.439183e-002
3.425101e+003;4.420635e-002
3.427030e+003;4.431484e-002
3.428958e+003;4.431957e-002
3.430887e+003;4.436313e-002
3.432815e+003;4.446612e-002
3.434744e+003;4.407676e-002
3.436673e+003;4.366926e-002
3.438601e+003;4.390858e-002
3.440530e+003;4.383688e-002
3.442458e+003;4.357690e-002
3.444387e+003;4.353595e-002
3.446315e+003;4.360038e-002
3.448244e+003;4.368106e-002
3.450172e+003;4.312533e-002
3.452101e+003;4.238962e-002
3.454030e+003;4.246879e-002
3.455958e+003;4.265404e-002
3.457886e+003;4.278960e-002
3.459815e+003;4.264578e-002
3.461744e+003;4.249061e-002
3.463672e+003;4.248520e-002
3.465601e+003;4.182496e-002
3.467529e+003;4.157075e-002
3.469458e+003;4.182259e-002
3.471386e+003;4.162234e-002
3.473315e+003;4.153417e-002
3.475243e+003;4.149349e-002
3.477172e+003;4.124234e-002
3.479101e+003;4.090006e-002
3.481029e+003;4.095628e-002
3.482958e+003;4.099509e-002
3.484886e+003;4.095249e-002
3.486815e+003;4.086340e-002
3.488743e+003;4.077976e-002
3.490672e+003;4.085820e-002
3.492600e+003;4.070836e-002
3.494529e+003;4.032625e-002
3.496458e+003;4.012669e-002
3.498386e+003;4.019283e-002
3.500315e+003;4.027425e-002
3.502243e+003;4.040584e-002
3.504172e+003;4.033359e-002
3.506100e+003;4.015572e-002
3.508029e+003;3.988185e-002
3.509957e+003;3.925210e-002
3.511886e+003;3.935276e-002
3.513814e+003;3.994004e-002
3.515743e+003;3.982607e-002
3.517672e+003;3.933110e-002
3.519600e+003;3.883587e-002
3.521529e+003;3.869190e-002
3.523457e+003;3.861928e-002
3.525386e+003;3.863489e-002
3.527314e+003;3.830447e-002
3.529243e+003;3.807238e-002
3.531171e+003;3.823470e-002
3.533100e+003;3.804456e-002
3.535029e+003;3.768340e-002
3.536957e+003;3.734012e-002
3.538885e+003;3.705824e-002
3.540814e+003;3.678270e-002
3.542743e+003;3.649938e-002
3.544671e+003;3.636916e-002
3.546600e+003;3.618585e-002
3.548528e+003;3.620476e-002
3.550457e+003;3.610951e-002
3.552385e+003;3.566872e-002
3.554314e+003;3.565548e-002
3.556242e+003;3.568861e-002
3.558171e+003;3.557013e-002
3.560100e+003;3.509422e-002
3.562028e+003;3.437364e-002
3.563957e+003;3.413736e-002
3.565885e+003;3.411977e-002
3.567814e+003;3.407106e-002
3.569742e+003;3.404862e-002
3.571671e+003;3.387012e-002
3.573599e+003;3.371490e-002
3.575528e+003;3.331689e-002
3.577457e+003;3.294358e-002
3.579385e+003;3.277472e-002
3.581314e+003;3.236515e-002
3.583242e+003;3.164804e-002
3.585171e+003;3.097855e-002
3.587099e+003;3.054414e-002
3.589028e+003;3.077947e-002
3.590956e+003;3.088351e-002
3.592885e+003;3.044903e-002
3.594813e+003;3.036583e-002
3.596742e+003;3.060935e-002
3.598671e+003;3.069866e-002
3.600599e+003;3.049395e-002
3.602528e+003;3.028145e-002
3.604456e+003;2.988068e-002
3.606385e+003;2.936047e-002
3.608313e+003;2.896590e-002
3.610242e+003;2.881047e-002
3.612170e+003;2.876391e-002
3.614099e+003;2.860987e-002
3.616028e+003;2.868423e-002
3.617956e+003;2.867060e-002
3.619885e+003;2.811016e-002
3.621813e+003;2.740819e-002
3.623742e+003;2.713025e-002
3.625670e+003;2.711296e-002
3.627599e+003;2.696500e-002
3.629527e+003;2.662223e-002
3.631456e+003;2.655735e-002
3.633385e+003;2.640232e-002
3.635313e+003;2.608761e-002
3.637241e+003;2.584504e-002
3.639170e+003;2.602942e-002
3.641099e+003;2.608828e-002
3.643027e+003;2.611295e-002
3.644956e+003;2.564760e-002
3.646884e+003;2.490397e-002
3.648813e+003;2.458667e-002
3.650741e+003;2.465807e-002
3.652670e+003;2.477886e-002
3.654598e+003;2.480514e-002
3.656527e+003;2.436652e-002
3.658456e+003;2.381283e-002
3.660384e+003;2.406740e-002
3.662313e+003;2.409882e-002
3.664241e+003;2.371396e-002
3.666170e+003;2.382991e-002
3.668098e+003;2.399169e-002
3.670027e+003;2.368142e-002
3.671955e+003;2.335714e-002
3.673884e+003;2.337861e-002
3.675813e+003;2.369881e-002
3.677741e+003;2.378581e-002
3.679669e+003;2.323565e-002
3.681598e+003;2.266431e-002
3.683527e+003;2.242643e-002
3.685455e+003;2.263697e-002
3.687384e+003;2.251852e-002
3.689312e+003;2.222126e-002
3.691241e+003;2.200426e-002
3.693169e+003;2.171122e-002
3.695098e+003;2.140292e-002
3.697026e+003;2.141830e-002
3.698955e+003;2.118869e-002
3.700884e+003;2.102559e-002
3.702812e+003;2.107870e-002
3.704741e+003;2.096915e-002
3.706669e+003;2.080057e-002
3.708598e+003;2.063257e-002
3.710526e+003;2.076293e-002
3.712455e+003;2.084958e-002
3.714383e+003;2.088153e-002
3.716312e+003;2.095403e-002
3.718240e+003;2.100998e-002
3.720169e+003;2.088285e-002
3.722098e+003;2.093271e-002
3.724026e+003;2.106044e-002
3.725955e+003;2.116914e-002
3.727883e+003;2.126903e-002
3.729812e+003;2.092211e-002
3.731740e+003;2.060033e-002
3.733669e+003;2.047920e-002
3.735597e+003;2.030580e-002
3.737526e+003;2.074941e-002
3.739455e+003;2.092311e-002
3.741383e+003;2.051928e-002
3.743312e+003;2.014532e-002
3.745240e+003;2.009333e-002
3.747169e+003;2.036247e-002
3.749097e+003;2.025664e-002
3.751026e+003;1.994868e-002
3.752954e+003;1.989585e-002
3.754883e+003;2.016962e-002
3.756812e+003;2.064383e-002
3.758740e+003;2.100591e-002
3.760668e+003;2.097019e-002
3.762597e+003;2.102298e-002
3.764526e+003;2.110865e-002
3.766454e+003;2.099589e-002
3.768383e+003;2.059755e-002
3.770311e+003;2.060450e-002
3.772240e+003;2.097611e-002
3.774168e+003;2.131316e-002
3.776097e+003;2.120759e-002
3.778025e+003;2.094457e-002
3.779954e+003;2.083811e-002
3.781883e+003;2.067695e-002
3.783811e+003;2.079664e-002
3.785740e+003;2.122505e-002
3.787668e+003;2.145750e-002
3.789597e+003;2.136240e-002
3.791525e+003;2.109474e-002
3.793454e+003;2.095931e-002
3.795382e+003;2.075055e-002
3.797311e+003;2.081287e-002
3.799240e+003;2.070423e-002
3.801168e+003;2.045763e-002
3.803097e+003;2.081739e-002
3.805025e+003;2.074471e-002
3.806954e+003;2.034455e-002
3.808882e+003;2.084680e-002
3.810811e+003;2.122105e-002
3.812739e+003;2.143271e-002
3.814668e+003;2.143400e-002
3.816596e+003;2.109867e-002
3.818525e+003;2.106093e-002
3.820454e+003;2.089756e-002
3.822382e+003;2.118730e-002
3.824311e+003;2.142659e-002
3.826239e+003;2.168266e-002
3.828168e+003;2.197132e-002
3.830096e+003;2.176956e-002
3.832025e+003;2.151056e-002
3.833953e+003;2.158765e-002
3.835882e+003;2.121625e-002
3.837811e+003;2.118358e-002
3.839739e+003;2.155237e-002
3.841667e+003;2.150175e-002
3.843596e+003;2.143310e-002
3.845525e+003;2.185071e-002
3.847453e+003;2.223175e-002
3.849382e+003;2.225840e-002
3.851310e+003;2.194779e-002
3.853239e+003;2.157852e-002
3.855167e+003;2.149593e-002
3.857096e+003;2.200513e-002
3.859024e+003;2.251506e-002
3.860953e+003;2.272697e-002
3.862882e+003;2.302639e-002
3.864810e+003;2.267097e-002
3.866739e+003;2.177486e-002
3.868667e+003;2.144006e-002
3.870596e+003;2.174542e-002
3.872524e+003;2.208844e-002
3.874453e+003;2.215103e-002
3.876381e+003;2.239294e-002
3.878310e+003;2.240892e-002
3.880239e+003;2.214147e-002
3.882167e+003;2.170819e-002
3.884096e+003;2.165361e-002
3.886024e+003;2.221118e-002
3.887953e+003;2.262723e-002
3.889881e+003;2.229882e-002
3.891810e+003;2.223451e-002
3.893738e+003;2.234326e-002
3.895667e+003;2.222349e-002
3.897595e+003;2.230569e-002
3.899524e+003;2.230507e-002
3.901453e+003;2.205173e-002
3.903381e+003;2.220490e-002
3.905310e+003;2.242242e-002
3.907238e+003;2.266106e-002
3.909167e+003;2.312399e-002
3.911095e+003;2.346939e-002
3.913024e+003;2.327344e-002
3.914952e+003;2.306294e-002
3.916881e+003;2.305871e-002
3.918810e+003;2.357664e-002
3.920738e+003;2.399288e-002
3.922667e+003;2.342715e-002
3.924595e+003;2.354673e-002
3.926524e+003;2.407216e-002
3.928452e+003;2.370249e-002
3.930381e+003;2.409686e-002
3.932309e+003;2.450277e-002
3.934238e+003;2.425148e-002
3.936167e+003;2.411934e-002
3.938095e+003;2.405077e-002
3.940023e+003;2.412841e-002
3.941952e+003;2.385809e-002
3.943881e+003;2.444952e-002
3.945809e+003;2.514714e-002
3.947738e+003;2.488134e-002
3.949666e+003;2.458650e-002
3.951595e+003;2.496970e-002
3.953523e+003;2.487524e-002
3.955452e+003;2.473737e-002
3.957380e+003;2.502919e-002
3.959309e+003;2.546503e-002
3.961238e+003;2.563020e-002
3.963166e+003;2.531686e-002
3.965095e+003;2.494184e-002
3.967023e+003;2.492068e-002
3.968952e+003;2.537415e-002
3.970880e+003;2.570131e-002
3.972809e+003;2.535999e-002
3.974737e+003;2.523970e-002
3.976666e+003;2.561994e-002
3.978594e+003;2.607963e-002
3.980523e+003;2.613927e-002
3.982452e+003;2.560500e-002
3.984380e+003;2.508669e-002
3.986309e+003;2.513594e-002
3.988237e+003;2.560820e-002
3.990166e+003;2.628266e-002
3.992094e+003;2.710323e-002
3.994023e+003;2.732494e-002
3.995951e+003;2.684501e-002
3.997880e+003;2.640471e-002
3.999809e+003;2.619266e-002
4.001737e+003;0.000000e+000
