3.992094e+002;0.000000e+000
4.011380e+002;0.000000e+000
4.030665e+002;0.000000e+000
4.049951e+002;0.000000e+000
4.069236e+002;0.000000e+000
4.088522e+002;0.000000e+000
4.107807e+002;0.000000e+000
4.127093e+002;0.000000e+000
4.146378e+002;0.000000e+000
4.165664e+002;0.000000e+000
4.184949e+002;0.000000e+000
4.204235e+002;0.000000e+000
4.223520e+002;0.000000e+000
4.242806e+002;0.000000e+000
4.262091e+002;0.000000e+000
4.281377e+002;0.000000e+000
4.300662e+002;0.000000e+000
4.319948e+002;0.000000e+000
4.339233e+002;0.000000e+000
4.358519e+002;0.000000e+000
4.377804e+002;0.000000e+000
4.397090e+002;0.000000e+000
4.416375e+002;0.000000e+000
4.435660e+002;0.000000e+000
4.454946e+002;0.000000e+000
4.474232e+002;0.000000e+000
4.493517e+002;0.000000e+000
4.512802e+002;0.000000e+000
4.532088e+002;0.000000e+000
4.551373e+002;0.000000e+000
4.570659e+002;0.000000e+000
4.589944e+002;0.000000e+000
4.609230e+002;0.000000e+000
4.628515e+002;0.000000e+000
4.647801e+002;0.000000e+000
4.667086e+002;0.000000e+000
4.686372e+002;0.000000e+000
4.705657e+002;0.000000e+000
4.724943e+002;0.000000e+000
4.744228e+002;0.000000e+000
4.763513e+002;0.000000e+000
4.782799e+002;0.000000e+000
4.802085e+002;0.000000e+000
4.821370e+002;0.000000e+000
4.840656e+002;0.000000e+000
4.859941e+002;0.000000e+000
4.879226e+002;0.000000e+000
4.898512e+002;0.000000e+000
4.917798e+002;0.000000e+000
4.937083e+002;0.000000e+000
4.956368e+002;0.000000e+000
4.975654e+002;0.000000e+000
4.994939e+002;0.000000e+000
5.014225e+002;0.000000e+000
5.033510e+002;0.000000e+000
5.052796e+002;0.000000e+000
5.072081e+002;0.000000e+000
5.091367e+002;0.000000e+000
5.110652e+002;0.000000e+000
5.129938e+002;0.000000e+000
5.149223e+002;0.000000e+000
5.168509e+002;0.000000e+000
5.187794e+002;0.000000e+000
5.207079e+002;0.000000e+000
5.226365e+002;0.000000e+000
5.245651e+002;0.000000e+000
5.264936e+002;0.000000e+000
5.284222e+002;0.000000e+000
5.303507e+002;0.000000e+000
5.322792e+002;0.000000e+000
5.342078e+002;0.000000e+000
5.361364e+002;0.000000e+000
5.380649e+002;0.000000e+000
5.399935e+002;0.000000e+000
5.419220e+002;0.000000e+000
5.438505e+002;0.000000e+000
5.457791e+002;0.000000e+000
5.477076e+002;0.000000e+000
5.496362e+002;0.000000e+000
5.515648e+002;0.000000e+000
5.534933e+002;0.000000e+000
5.554218e+002;0.000000e+000
5.573504e+002;0.000000e+000
5.592789e+002;0.000000e+000
5.612075e+002;0.000000e+000
5.631360e+002;0.000000e+000
5.650646e+002;0.000000e+000
5.669931e+002;0.000000e+000
5.689217e+002;0.000000e+000
5.708502e+002;0.000000e+000
5.727787e+002;0.000000e+000
5.747073e+002;0.000000e+000
5.766359e+002;0.000000e+000
5.785644e+002;0.000000e+000
5.804930e+002;0.000000e+000
5.824215e+002;0.000000e+000
5.843500e+002;0.000000e+000
5.862786e+002;0.000000e+000
5.882072e+002;0.000000e+000
5.901357e+002;0.000000e+000
5.920643e+002;0.000000e+000
5.939928e+002;0.000000e+000
5.959213e+002;0.000000e+000
5.978499e+002;0.000000e+000
5.997784e+002;1.334705e-001
6.017070e+002;1.358026e-001
6.036355e+002;1.335879e-001
6.055641e+002;1.320249e-001
6.074926e+002;1.301630e-001
6.094211e+002;1.319547e-001
6.113497e+002;1.329257e-001
6.132783e+002;1.309313e-001
6.152068e+002;1.307748e-001
6.171354e+002;1.329475e-001
6.190639e+002;1.378700e-001
6.209924e+002;1.368323e-001
6.229210e+002;1.349544e-001
6.248495e+002;1.363669e-001
6.267781e+002;1.349087e-001
6.287067e+002;1.347069e-001
6.306352e+002;1.377562e-001
6.325637e+002;1.367054e-001
6.344923e+002;1.357362e-001
6.364208e+002;1.365547e-001
6.383494e+002;1.377441e-001
6.402780e+002;1.381711e-001
6.422065e+002;1.381583e-001
6.441350e+002;1.388510e-001
6.460636e+002;1.425208e-001
6.479921e+002;1.459645e-001
6.499207e+002;1.490910e-001
6.518492e+002;1.512223e-001
6.537778e+002;1.522554e-001
6.557063e+002;1.533936e-001
6.576349e+002;1.531137e-001
6.595634e+002;1.556184e-001
6.614919e+002;1.592628e-001
6.634205e+002;1.614480e-001
6.653491e+002;1.643911e-001
6.672776e+002;1.661434e-001
6.692062e+002;1.677195e-001
6.711347e+002;1.694867e-001
6.730632e+002;1.711070e-001
6.749918e+002;1.727509e-001
6.769203e+002;1.749890e-001
6.788489e+002;1.769142e-001
6.807775e+002;1.774953e-001
6.827060e+002;1.766971e-001
6.846345e+002;1.767232e-001
6.865631e+002;1.752937e-001
6.884916e+002;1.738107e-001
6.904202e+002;1.728178e-001
6.923488e+002;1.709126e-001
6.942773e+002;1.685378e-001
6.962058e+002;1.649342e-001
6.981344e+002;1.611032e-001
7.000629e+002;1.574060e-001
7.019915e+002;1.548280e-001
7.039200e+002;1.536334e-001
7.058486e+002;1.527196e-001
7.077771e+002;1.526643e-001
7.097057e+002;1.519547e-001
7.116342e+002;1.502277e-001
7.135627e+002;1.484534e-001
7.154913e+002;1.459246e-001
7.174199e+002;1.424758e-001
7.193484e+002;1.399129e-001
7.212770e+002;1.397591e-001
7.232055e+002;1.405303e-001
7.251340e+002;1.408343e-001
7.270626e+002;1.406071e-001
7.289911e+002;1.397109e-001
7.309197e+002;1.356687e-001
7.328483e+002;1.282477e-001
7.347768e+002;1.219570e-001
7.367053e+002;1.172457e-001
7.386339e+002;1.125476e-001
7.405624e+002;1.089369e-001
7.424910e+002;1.071542e-001
7.444196e+002;1.054671e-001
7.463481e+002;1.029461e-001
7.482766e+002;1.011678e-001
7.502052e+002;1.002043e-001
7.521337e+002;9.876134e-002
7.540623e+002;9.679978e-002
7.559908e+002;9.504736e-002
7.579194e+002;9.385086e-002
7.598479e+002;9.275543e-002
7.617765e+002;9.161018e-002
7.637050e+002;9.065868e-002
7.656335e+002;8.994812e-002
7.675621e+002;8.876605e-002
7.694907e+002;8.748294e-002
7.714192e+002;8.714364e-002
7.733478e+002;8.690126e-002
7.752763e+002;8.591502e-002
7.772048e+002;8.442839e-002
7.791334e+002;8.308840e-002
7.810620e+002;8.235895e-002
7.829905e+002;8.160172e-002
7.849191e+002;7.942786e-002
7.868476e+002;7.763419e-002
7.887761e+002;7.737935e-002
7.907047e+002;7.640014e-002
7.926332e+002;7.492252e-002
7.945618e+002;7.370038e-002
7.964903e+002;7.319686e-002
7.984189e+002;7.296056e-002
8.003474e+002;7.140647e-002
8.022759e+002;7.007391e-002
8.042045e+002;6.951278e-002
8.061331e+002;6.849328e-002
8.080616e+002;6.795917e-002
8.099902e+002;6.795100e-002
8.119187e+002;6.701877e-002
8.138472e+002;6.536522e-002
8.157758e+002;6.462657e-002
8.177043e+002;6.525697e-002
8.196329e+002;6.595179e-002
8.215615e+002;6.573841e-002
8.234900e+002;6.589529e-002
8.254185e+002;6.581682e-002
8.273471e+002;6.615332e-002
8.292756e+002;6.789300e-002
8.312042e+002;6.959780e-002
8.331328e+002;6.995023e-002
8.350613e+002;6.898259e-002
8.369898e+002;6.695703e-002
8.389184e+002;6.507364e-002
8.408469e+002;6.324970e-002
8.427755e+002;6.113989e-002
8.447040e+002;5.942631e-002
8.466326e+002;5.851953e-002
8.485611e+002;5.836525e-002
8.504897e+002;5.830621e-002
8.524182e+002;5.810560e-002
8.543467e+002;5.775243e-002
8.562753e+002;5.741610e-002
8.582039e+002;5.755775e-002
8.601324e+002;5.742011e-002
8.620610e+002;5.636616e-002
8.639895e+002;5.617810e-002
8.659180e+002;5.697704e-002
8.678466e+002;5.761661e-002
8.697751e+002;5.742431e-002
8.717037e+002;5.754500e-002
8.736323e+002;5.802069e-002
8.755608e+002;5.780314e-002
8.774893e+002;5.770417e-002
8.794179e+002;5.755128e-002
8.813464e+002;5.761919e-002
8.832750e+002;5.825843e-002
8.852036e+002;5.901478e-002
8.871321e+002;5.940697e-002
8.890606e+002;5.929529e-002
8.909892e+002;5.920179e-002
8.929177e+002;5.933798e-002
8.948463e+002;5.957283e-002
8.967748e+002;5.993187e-002
8.987034e+002;5.994739e-002
9.006319e+002;6.005787e-002
9.025605e+002;6.081244e-002
9.044890e+002;6.146110e-002
9.064175e+002;6.188703e-002
9.083461e+002;6.211252e-002
9.102747e+002;6.257322e-002
9.122032e+002;6.335171e-002
9.141318e+002;6.407113e-002
9.160603e+002;6.457029e-002
9.179888e+002;6.535636e-002
9.199174e+002;6.672897e-002
9.218459e+002;6.811838e-002
9.237745e+002;6.952721e-002
9.257031e+002;7.108016e-002
9.276316e+002;7.236277e-002
9.295601e+002;7.254036e-002
9.314887e+002;7.168353e-002
9.334172e+002;7.010008e-002
9.353458e+002;6.836648e-002
9.372744e+002;6.736122e-002
9.392029e+002;6.699368e-002
9.411314e+002;6.713307e-002
9.430600e+002;6.802354e-002
9.449885e+002;6.905930e-002
9.469171e+002;7.088792e-002
9.488456e+002;7.313557e-002
9.507742e+002;7.470178e-002
9.527027e+002;7.553635e-002
9.546313e+002;7.622267e-002
9.565598e+002;7.696043e-002
9.584883e+002;7.744189e-002
9.604169e+002;7.753555e-002
9.623455e+002;7.644332e-002
9.642740e+002;7.506031e-002
9.662026e+002;7.434826e-002
9.681311e+002;7.398842e-002
9.700596e+002;7.366171e-002
9.719882e+002;7.307804e-002
9.739167e+002;7.239687e-002
9.758453e+002;7.172426e-002
9.777739e+002;7.109804e-002
9.797024e+002;7.033580e-002
9.816309e+002;6.959589e-002
9.835595e+002;6.885918e-002
9.854880e+002;6.830222e-002
9.874166e+002;6.771499e-002
9.893452e+002;6.673631e-002
9.912737e+002;6.550259e-002
9.932022e+002;6.482322e-002
9.951307e+002;6.473628e-002
9.970593e+002;6.470390e-002
9.989879e+002;6.434236e-002
1.000916e+003;6.396400e-002
1.002845e+003;6.363454e-002
1.004773e+003;6.355149e-002
1.006702e+003;6.375708e-002
1.008631e+003;6.356890e-002
1.010559e+003;6.357615e-002
1.012488e+003;6.367133e-002
1.014416e+003;6.330137e-002
1.016345e+003;6.319290e-002
1.018273e+003;6.335665e-002
1.020202e+003;6.360216e-002
1.022130e+003;6.481914e-002
1.024059e+003;6.646366e-002
1.025988e+003;6.766775e-002
1.027916e+003;6.865900e-002
1.029845e+003;6.934728e-002
1.031773e+003;6.912383e-002
1.033702e+003;6.858651e-002
1.035630e+003;6.802280e-002
1.037559e+003;6.700636e-002
1.039487e+003;6.569593e-002
1.041416e+003;6.491447e-002
1.043344e+003;6.433848e-002
1.045273e+003;6.400532e-002
1.047202e+003;6.407743e-002
1.049130e+003;6.416830e-002
1.051059e+003;6.479602e-002
1.052987e+003;6.587555e-002
1.054916e+003;6.708999e-002
1.056844e+003;6.857258e-002
1.058773e+003;7.004471e-002
1.060701e+003;7.111439e-002
1.062630e+003;7.163750e-002
1.064558e+003;7.257243e-002
1.066487e+003;7.388911e-002
1.068416e+003;7.514244e-002
1.070344e+003;7.604160e-002
1.072273e+003;7.630995e-002
1.074201e+003;7.604938e-002
1.076130e+003;7.547579e-002
1.078058e+003;7.520369e-002
1.079987e+003;7.489350e-002
1.081915e+003;7.443898e-002
1.083844e+003;7.379097e-002
1.085773e+003;7.321356e-002
1.087701e+003;7.327762e-002
1.089630e+003;7.320493e-002
1.091558e+003;7.300160e-002
1.093487e+003;7.304296e-002
1.095415e+003;7.399490e-002
1.097344e+003;7.512936e-002
1.099272e+003;7.646454e-002
1.101201e+003;7.781565e-002
1.103129e+003;7.923726e-002
1.105058e+003;8.067044e-002
1.106987e+003;8.244094e-002
1.108915e+003;8.391426e-002
1.110844e+003;8.459077e-002
1.112772e+003;8.516395e-002
1.114701e+003;8.599692e-002
1.116629e+003;8.664218e-002
1.118558e+003;8.673248e-002
1.120486e+003;8.623128e-002
1.122415e+003;8.489963e-002
1.124344e+003;8.273104e-002
1.126272e+003;8.031338e-002
1.128201e+003;7.801062e-002
1.130129e+003;7.571689e-002
1.132058e+003;7.400076e-002
1.133986e+003;7.310463e-002
1.135915e+003;7.251439e-002
1.137843e+003;7.280228e-002
1.139772e+003;7.353456e-002
1.141700e+003;7.475939e-002
1.143629e+003;7.684067e-002
1.145557e+003;7.883184e-002
1.147486e+003;8.034611e-002
1.149415e+003;8.227568e-002
1.151343e+003;8.517016e-002
1.153272e+003;8.858089e-002
1.155200e+003;9.197047e-002
1.157129e+003;9.564874e-002
1.159057e+003;9.996276e-002
1.160986e+003;1.049705e-001
1.162914e+003;1.100801e-001
1.164843e+003;1.150869e-001
1.166771e+003;1.192577e-001
1.168700e+003;1.211092e-001
1.170629e+003;1.198290e-001
1.172557e+003;1.168999e-001
1.174486e+003;1.129412e-001
1.176414e+003;1.085651e-001
1.178343e+003;1.049853e-001
1.180271e+003;1.027920e-001
1.182200e+003;1.022267e-001
1.184128e+003;1.030891e-001
1.186057e+003;1.051249e-001
1.187986e+003;1.081255e-001
1.189914e+003;1.116105e-001
1.191843e+003;1.157035e-001
1.193771e+003;1.201443e-001
1.195700e+003;1.248581e-001
1.197628e+003;1.288049e-001
1.199557e+003;1.296205e-001
1.201485e+003;1.268729e-001
1.203414e+003;1.226976e-001
1.205343e+003;1.194645e-001
1.207271e+003;1.173225e-001
1.209200e+003;1.162889e-001
1.211128e+003;1.162900e-001
1.213057e+003;1.160724e-001
1.214985e+003;1.145089e-001
1.216914e+003;1.117793e-001
1.218842e+003;1.087829e-001
1.220771e+003;1.070018e-001
1.222699e+003;1.071772e-001
1.224628e+003;1.088014e-001
1.226557e+003;1.115463e-001
1.228485e+003;1.154366e-001
1.230414e+003;1.199052e-001
1.232342e+003;1.237303e-001
1.234271e+003;1.262925e-001
1.236199e+003;1.278940e-001
1.238128e+003;1.287271e-001
1.240056e+003;1.289894e-001
1.241985e+003;1.288572e-001
1.243913e+003;1.288866e-001
1.245842e+003;1.296177e-001
1.247771e+003;1.312092e-001
1.249699e+003;1.332166e-001
1.251628e+003;1.355987e-001
1.253556e+003;1.385712e-001
1.255485e+003;1.414181e-001
1.257413e+003;1.434096e-001
1.259342e+003;1.447388e-001
1.261270e+003;1.451892e-001
1.263199e+003;1.445028e-001
1.265127e+003;1.415351e-001
1.267056e+003;1.360717e-001
1.268985e+003;1.298393e-001
1.270913e+003;1.248790e-001
1.272842e+003;1.224025e-001
1.274770e+003;1.212434e-001
1.276699e+003;1.204109e-001
1.278627e+003;1.194181e-001
1.280556e+003;1.183545e-001
1.282484e+003;1.171501e-001
1.284413e+003;1.160096e-001
1.286342e+003;1.151033e-001
1.288270e+003;1.143711e-001
1.290199e+003;1.137744e-001
1.292127e+003;1.133537e-001
1.294056e+003;1.124263e-001
1.295984e+003;1.113322e-001
1.297913e+003;1.107869e-001
1.299841e+003;1.104710e-001
1.301770e+003;1.100075e-001
1.303698e+003;1.091847e-001
1.305627e+003;1.080504e-001
1.307556e+003;1.070177e-001
1.309484e+003;1.058345e-001
1.311413e+003;1.044977e-001
1.313341e+003;1.035774e-001
1.315270e+003;1.026130e-001
1.317198e+003;1.017237e-001
1.319127e+003;1.010400e-001
1.321055e+003;1.005110e-001
1.322984e+003;1.000595e-001
1.324912e+003;9.970611e-002
1.326841e+003;9.959023e-002
1.328770e+003;9.987759e-002
1.330698e+003;1.001906e-001
1.332627e+003;1.005584e-001
1.334555e+003;1.009525e-001
1.336484e+003;1.013431e-001
1.338412e+003;1.018758e-001
1.340341e+003;1.024586e-001
1.342269e+003;1.030856e-001
1.344198e+003;1.036596e-001
1.346126e+003;1.045456e-001
1.348055e+003;1.057201e-001
1.349984e+003;1.068892e-001
1.351912e+003;1.079767e-001
1.353841e+003;1.091019e-001
1.355769e+003;1.105861e-001
1.357698e+003;1.122957e-001
1.359626e+003;1.138603e-001
1.361555e+003;1.155547e-001
1.363483e+003;1.171725e-001
1.365412e+003;1.186933e-001
1.367341e+003;1.202153e-001
1.369269e+003;1.215547e-001
1.371198e+003;1.219548e-001
1.373126e+003;1.214041e-001
1.375055e+003;1.199883e-001
1.376983e+003;1.175812e-001
1.378912e+003;1.147308e-001
1.380840e+003;1.118290e-001
1.382769e+003;1.089861e-001
1.384698e+003;1.063338e-001
1.386626e+003;1.036537e-001
1.388555e+003;1.013593e-001
1.390483e+003;9.967426e-002
1.392412e+003;9.852274e-002
1.394340e+003;9.777887e-002
1.396269e+003;9.790251e-002
1.398197e+003;9.890711e-002
1.400126e+003;1.003700e-001
1.402054e+003;1.025912e-001
1.403983e+003;1.058258e-001
1.405911e+003;1.102842e-001
1.407840e+003;1.158682e-001
1.409769e+003;1.220870e-001
1.411697e+003;1.283762e-001
1.413626e+003;1.336152e-001
1.415554e+003;1.365145e-001
1.417483e+003;1.367751e-001
1.419411e+003;1.346391e-001
1.421340e+003;1.311568e-001
1.423268e+003;1.275330e-001
1.425197e+003;1.249515e-001
1.427125e+003;1.242541e-001
1.429054e+003;1.250904e-001
1.430983e+003;1.269107e-001
1.432911e+003;1.288792e-001
1.434840e+003;1.297958e-001
1.436768e+003;1.294898e-001
1.438697e+003;1.291385e-001
1.440625e+003;1.287769e-001
1.442554e+003;1.284678e-001
1.444482e+003;1.283838e-001
1.446411e+003;1.286361e-001
1.448340e+003;1.294686e-001
1.450268e+003;1.310676e-001
1.452197e+003;1.329830e-001
1.454125e+003;1.350632e-001
1.456054e+003;1.376636e-001
1.457982e+003;1.417758e-001
1.459911e+003;1.469607e-001
1.461839e+003;1.508922e-001
1.463768e+003;1.506104e-001
1.465697e+003;1.457059e-001
1.467625e+003;1.391314e-001
1.469554e+003;1.342528e-001
1.471482e+003;1.322773e-001
1.473411e+003;1.331443e-001
1.475339e+003;1.348343e-001
1.477268e+003;1.347119e-001
1.479196e+003;1.324337e-001
1.481125e+003;1.283004e-001
1.483053e+003;1.225627e-001
1.484982e+003;1.167203e-001
1.486911e+003;1.129226e-001
1.488839e+003;1.118303e-001
1.490768e+003;1.127759e-001
1.492696e+003;1.151716e-001
1.494625e+003;1.181203e-001
1.496553e+003;1.215382e-001
1.498482e+003;1.257123e-001
1.500410e+003;1.304436e-001
1.502339e+003;1.353501e-001
1.504267e+003;1.401520e-001
1.506196e+003;1.452700e-001
1.508125e+003;1.514758e-001
1.510053e+003;1.578909e-001
1.511982e+003;1.643455e-001
1.513910e+003;1.712380e-001
1.515839e+003;1.780068e-001
1.517767e+003;1.851190e-001
1.519696e+003;1.925257e-001
1.521624e+003;2.000955e-001
1.523553e+003;2.081112e-001
1.525481e+003;2.160778e-001
1.527410e+003;2.238441e-001
1.529339e+003;2.311673e-001
1.531267e+003;2.375680e-001
1.533196e+003;2.430814e-001
1.535124e+003;2.470865e-001
1.537053e+003;2.483733e-001
1.538981e+003;2.469646e-001
1.540910e+003;2.433976e-001
1.542838e+003;2.377465e-001
1.544767e+003;2.303323e-001
1.546695e+003;2.210551e-001
1.548624e+003;2.103587e-001
1.550553e+003;1.995967e-001
1.552481e+003;1.898800e-001
1.554410e+003;1.809330e-001
1.556338e+003;1.724917e-001
1.558267e+003;1.644363e-001
1.560195e+003;1.572759e-001
1.562124e+003;1.510443e-001
1.564052e+003;1.446853e-001
1.565981e+003;1.380347e-001
1.567910e+003;1.315038e-001
1.569838e+003;1.252618e-001
1.571767e+003;1.200422e-001
1.573695e+003;1.149167e-001
1.575624e+003;1.097729e-001
1.577552e+003;1.057424e-001
1.579481e+003;1.028687e-001
1.581409e+003;1.004555e-001
1.583338e+003;9.852062e-002
1.585266e+003;9.737372e-002
1.587195e+003;9.718872e-002
1.589124e+003;9.736054e-002
1.591052e+003;9.803035e-002
1.592981e+003;9.985832e-002
1.594909e+003;1.021741e-001
1.596838e+003;1.049891e-001
1.598766e+003;1.088787e-001
1.600695e+003;1.135665e-001
1.602623e+003;1.190315e-001
1.604552e+003;1.253375e-001
1.606480e+003;1.321821e-001
1.608409e+003;1.394854e-001
1.610338e+003;1.472538e-001
1.612266e+003;1.559664e-001
1.614195e+003;1.657395e-001
1.616123e+003;1.768749e-001
1.618052e+003;1.899618e-001
1.619980e+003;2.040519e-001
1.621909e+003;2.185535e-001
1.623837e+003;2.337845e-001
1.625766e+003;2.493020e-001
1.627694e+003;2.651758e-001
1.629623e+003;2.816131e-001
1.631552e+003;2.971229e-001
1.633480e+003;3.092881e-001
1.635409e+003;3.153284e-001
1.637337e+003;3.135697e-001
1.639266e+003;3.043459e-001
1.641194e+003;2.895014e-001
1.643123e+003;2.717487e-001
1.645051e+003;2.526403e-001
1.646980e+003;2.338518e-001
1.648909e+003;2.171811e-001
1.650837e+003;2.019612e-001
1.652766e+003;1.881661e-001
1.654694e+003;1.775041e-001
1.656623e+003;1.688344e-001
1.658551e+003;1.603481e-001
1.660480e+003;1.517611e-001
1.662408e+003;1.435321e-001
1.664337e+003;1.356204e-001
1.666266e+003;1.274788e-001
1.668194e+003;1.194433e-001
1.670123e+003;1.119509e-001
1.672051e+003;1.052511e-001
1.673980e+003;9.911350e-002
1.675908e+003;9.298752e-002
1.677837e+003;8.689393e-002
1.679765e+003;8.063641e-002
1.681694e+003;7.437865e-002
1.683622e+003;6.830171e-002
1.685551e+003;6.317822e-002
1.687479e+003;5.936864e-002
1.689408e+003;5.598187e-002
1.691337e+003;5.331356e-002
1.693265e+003;5.103972e-002
1.695194e+003;4.896594e-002
1.697122e+003;4.775380e-002
1.699051e+003;4.681011e-002
1.700979e+003;4.596857e-002
1.702908e+003;4.563381e-002
1.704836e+003;4.504580e-002
1.706765e+003;4.466452e-002
1.708693e+003;4.446626e-002
1.710622e+003;4.426190e-002
1.712551e+003;4.405802e-002
1.714479e+003;4.408062e-002
1.716408e+003;4.413468e-002
1.718336e+003;4.412562e-002
1.720265e+003;4.426626e-002
1.722193e+003;4.434111e-002
1.724122e+003;4.428934e-002
1.726050e+003;4.410849e-002
1.727979e+003;4.348262e-002
1.729908e+003;4.266208e-002
1.731836e+003;4.161268e-002
1.733765e+003;4.054743e-002
1.735693e+003;4.021987e-002
1.737622e+003;3.987738e-002
1.739550e+003;3.907301e-002
1.741479e+003;3.837309e-002
1.743407e+003;3.756344e-002
1.745336e+003;3.691363e-002
1.747265e+003;3.649325e-002
1.749193e+003;3.610018e-002
1.751122e+003;3.566677e-002
1.753050e+003;3.561063e-002
1.754979e+003;3.548232e-002
1.756907e+003;3.507554e-002
1.758836e+003;3.453835e-002
1.760764e+003;3.386747e-002
1.762693e+003;3.322413e-002
1.764621e+003;3.269594e-002
1.766550e+003;3.223066e-002
1.768479e+003;3.178434e-002
1.770407e+003;3.140655e-002
1.772336e+003;3.090105e-002
1.774264e+003;3.045592e-002
1.776193e+003;3.024294e-002
1.778121e+003;3.001913e-002
1.780050e+003;2.962311e-002
1.781978e+003;2.931120e-002
1.783907e+003;2.912655e-002
1.785835e+003;2.881599e-002
1.787764e+003;2.848255e-002
1.789693e+003;2.812929e-002
1.791621e+003;2.758172e-002
1.793550e+003;2.740576e-002
1.795478e+003;2.749541e-002
1.797407e+003;2.744779e-002
1.799335e+003;2.723102e-002
1.801264e+003;2.690673e-002
1.803192e+003;2.658489e-002
1.805121e+003;2.623542e-002
1.807049e+003;2.615412e-002
1.808978e+003;2.622560e-002
1.810907e+003;2.622620e-002
1.812835e+003;2.620522e-002
1.814764e+003;2.600546e-002
1.816692e+003;2.570904e-002
1.818621e+003;2.558275e-002
1.820549e+003;2.543415e-002
1.822478e+003;2.527724e-002
1.824406e+003;2.527640e-002
1.826335e+003;2.539098e-002
1.828264e+003;2.523710e-002
1.830192e+003;2.526095e-002
1.832121e+003;2.534071e-002
1.834049e+003;2.508149e-002
1.835978e+003;2.498255e-002
1.837906e+003;2.503140e-002
1.839835e+003;2.487685e-002
1.841763e+003;2.486910e-002
1.843692e+003;2.471215e-002
1.845620e+003;2.440052e-002
1.847549e+003;2.416173e-002
1.849478e+003;2.411927e-002
1.851406e+003;2.390619e-002
1.853335e+003;2.370626e-002
1.855263e+003;2.358933e-002
1.857192e+003;2.361298e-002
1.859120e+003;2.363667e-002
1.861049e+003;2.363800e-002
1.862977e+003;2.351605e-002
1.864906e+003;2.339627e-002
1.866834e+003;2.322325e-002
1.868763e+003;2.316519e-002
1.870692e+003;2.311162e-002
1.872620e+003;2.313926e-002
1.874549e+003;2.319095e-002
1.876477e+003;2.319228e-002
1.878406e+003;2.339393e-002
1.880334e+003;2.361512e-002
1.882263e+003;2.359049e-002
1.884191e+003;2.325705e-002
1.886120e+003;2.312671e-002
1.888048e+003;2.314524e-002
1.889977e+003;2.319043e-002
1.891906e+003;2.311088e-002
1.893834e+003;2.324205e-002
1.895763e+003;2.368604e-002
1.897691e+003;2.369640e-002
1.899620e+003;2.349870e-002
1.901548e+003;2.352773e-002
1.903477e+003;2.370354e-002
1.905405e+003;2.352441e-002
1.907334e+003;2.312081e-002
1.909262e+003;2.302000e-002
1.911191e+003;2.305532e-002
1.913120e+003;2.305333e-002
1.915048e+003;2.296830e-002
1.916977e+003;2.291831e-002
1.918905e+003;2.291331e-002
1.920834e+003;2.276238e-002
1.922762e+003;2.274289e-002
1.924691e+003;2.292226e-002
1.926619e+003;2.279447e-002
1.928548e+003;2.256088e-002
1.930477e+003;2.251283e-002
1.932405e+003;2.247259e-002
1.934334e+003;2.245518e-002
1.936262e+003;2.241411e-002
1.938191e+003;2.238390e-002
1.940119e+003;2.238052e-002
1.942048e+003;2.222785e-002
1.943976e+003;2.222066e-002
1.945905e+003;2.241157e-002
1.947833e+003;2.263184e-002
1.949762e+003;2.257226e-002
1.951691e+003;2.228229e-002
1.953619e+003;2.223486e-002
1.955548e+003;2.226499e-002
1.957476e+003;2.252392e-002
1.959405e+003;2.274136e-002
1.961333e+003;2.258612e-002
1.963262e+003;2.246376e-002
1.965190e+003;2.260720e-002
1.967119e+003;2.288991e-002
1.969047e+003;2.303006e-002
1.970976e+003;2.291688e-002
1.972905e+003;2.279684e-002
1.974833e+003;2.284947e-002
1.976762e+003;2.291101e-002
1.978690e+003;2.287619e-002
1.980619e+003;2.278305e-002
1.982547e+003;2.270882e-002
1.984476e+003;2.285865e-002
1.986404e+003;2.304421e-002
1.988333e+003;2.291646e-002
1.990261e+003;2.262189e-002
1.992190e+003;2.273595e-002
1.994119e+003;2.307370e-002
1.996047e+003;2.310197e-002
1.997976e+003;2.294126e-002
1.999904e+003;2.278399e-002
2.001833e+003;2.288377e-002
2.003761e+003;2.287877e-002
2.005690e+003;2.285307e-002
2.007618e+003;2.294440e-002
2.009547e+003;2.293927e-002
2.011476e+003;2.289065e-002
2.013404e+003;2.280166e-002
2.015333e+003;2.291950e-002
2.017261e+003;2.328183e-002
2.019190e+003;2.339497e-002
2.021118e+003;2.316680e-002
2.023047e+003;2.320172e-002
2.024975e+003;2.343435e-002
2.026904e+003;2.348086e-002
2.028833e+003;2.344547e-002
2.030761e+003;2.330956e-002
2.032690e+003;2.319057e-002
2.034618e+003;2.348328e-002
2.036547e+003;2.372978e-002
2.038475e+003;2.388589e-002
2.040404e+003;2.394995e-002
2.042332e+003;2.390945e-002
2.044261e+003;2.401221e-002
2.046189e+003;2.397142e-002
2.048118e+003;2.375050e-002
2.050047e+003;2.367456e-002
2.051975e+003;2.361498e-002
2.053904e+003;2.343404e-002
2.055832e+003;2.356352e-002
2.057761e+003;2.392580e-002
2.059689e+003;2.414533e-002
2.061618e+003;2.436884e-002
2.063546e+003;2.427969e-002
2.065475e+003;2.410015e-002
2.067404e+003;2.428698e-002
2.069332e+003;2.444241e-002
2.071260e+003;2.448720e-002
2.073189e+003;2.450077e-002
2.075118e+003;2.430110e-002
2.077046e+003;2.421617e-002
2.078975e+003;2.417280e-002
2.080903e+003;2.396669e-002
2.082832e+003;2.374070e-002
2.084760e+003;2.362715e-002
2.086689e+003;2.372579e-002
2.088617e+003;2.370585e-002
2.090546e+003;2.359399e-002
2.092475e+003;2.344386e-002
2.094403e+003;2.331183e-002
2.096332e+003;2.345390e-002
2.098260e+003;2.349426e-002
2.100189e+003;2.332906e-002
2.102117e+003;2.325366e-002
2.104046e+003;2.334560e-002
2.105974e+003;2.338204e-002
2.107903e+003;2.351675e-002
2.109832e+003;2.376621e-002
2.111760e+003;2.393784e-002
2.113688e+003;2.386880e-002
2.115617e+003;2.383562e-002
2.117546e+003;2.400689e-002
2.119474e+003;2.413710e-002
2.121403e+003;2.412617e-002
2.123331e+003;2.398871e-002
2.125260e+003;2.393322e-002
2.127188e+003;2.393073e-002
2.129117e+003;2.395867e-002
2.131045e+003;2.394939e-002
2.132974e+003;2.416400e-002
2.134903e+003;2.426697e-002
2.136831e+003;2.417609e-002
2.138760e+003;2.400552e-002
2.140688e+003;2.413304e-002
2.142617e+003;2.428610e-002
2.144545e+003;2.415248e-002
2.146474e+003;2.417437e-002
2.148402e+003;2.423204e-002
2.150331e+003;2.422097e-002
2.152260e+003;2.427934e-002
2.154188e+003;2.433719e-002
2.156117e+003;2.435843e-002
2.158045e+003;2.429416e-002
2.159974e+003;2.408597e-002
2.161902e+003;2.391736e-002
2.163831e+003;2.409230e-002
2.165759e+003;2.459081e-002
2.167688e+003;2.485166e-002
2.169616e+003;2.487839e-002
2.171545e+003;2.500406e-002
2.173474e+003;2.509705e-002
2.175402e+003;2.507805e-002
2.177331e+003;2.510122e-002
2.179259e+003;2.521466e-002
2.181188e+003;2.525427e-002
2.183116e+003;2.512250e-002
2.185045e+003;2.507142e-002
2.186973e+003;2.511435e-002
2.188902e+003;2.512650e-002
2.190831e+003;2.508595e-002
2.192759e+003;2.505952e-002
2.194688e+003;2.513398e-002
2.196616e+003;2.514605e-002
2.198545e+003;2.510284e-002
2.200473e+003;2.495015e-002
2.202402e+003;2.482215e-002
2.204330e+003;2.492503e-002
2.206259e+003;2.492370e-002
2.208188e+003;2.472095e-002
2.210116e+003;2.450077e-002
2.212044e+003;2.420899e-002
2.213973e+003;2.407556e-002
2.215902e+003;2.408218e-002
2.217830e+003;2.406033e-002
2.219759e+003;2.400612e-002
2.221687e+003;2.392996e-002
2.223616e+003;2.392909e-002
2.225544e+003;2.380625e-002
2.227473e+003;2.352004e-002
2.229401e+003;2.345908e-002
2.231330e+003;2.363607e-002
2.233259e+003;2.376292e-002
2.235187e+003;2.370546e-002
2.237116e+003;2.352042e-002
2.239044e+003;2.354302e-002
2.240973e+003;2.365899e-002
2.242901e+003;2.356187e-002
2.244830e+003;2.346806e-002
2.246758e+003;2.342288e-002
2.248687e+003;2.331505e-002
2.250615e+003;2.332371e-002
2.252544e+003;2.360686e-002
2.254473e+003;2.376408e-002
2.256401e+003;2.381332e-002
2.258330e+003;2.396963e-002
2.260258e+003;2.397422e-002
2.262187e+003;2.380874e-002
2.264115e+003;2.382207e-002
2.266044e+003;2.410418e-002
2.267972e+003;2.405052e-002
2.269901e+003;2.392758e-002
2.271830e+003;2.382907e-002
2.273758e+003;2.373241e-002
2.275687e+003;2.377643e-002
2.277615e+003;2.391067e-002
2.279544e+003;2.404156e-002
2.281472e+003;2.402937e-002
2.283401e+003;2.393647e-002
2.285329e+003;2.415413e-002
2.287258e+003;2.454161e-002
2.289187e+003;2.453103e-002
2.291115e+003;2.417048e-002
2.293043e+003;2.434578e-002
2.294972e+003;2.456514e-002
2.296901e+003;2.453972e-002
2.298829e+003;2.452682e-002
2.300758e+003;2.443617e-002
2.302686e+003;2.450417e-002
2.304615e+003;2.461009e-002
2.306543e+003;2.465270e-002
2.308472e+003;2.467097e-002
2.310400e+003;2.465537e-002
2.312329e+003;2.450943e-002
2.314258e+003;2.450053e-002
2.316186e+003;2.480138e-002
2.318115e+003;2.495496e-002
2.320043e+003;2.471471e-002
2.321972e+003;2.451490e-002
2.323900e+003;2.456020e-002
2.325829e+003;2.476711e-002
2.327757e+003;2.486029e-002
2.329686e+003;2.485664e-002
2.331615e+003;2.485959e-002
2.333543e+003;2.486390e-002
2.335472e+003;2.479426e-002
2.337400e+003;2.465824e-002
2.339329e+003;2.446386e-002
2.341257e+003;2.433523e-002
2.343186e+003;2.414971e-002
2.345114e+003;2.401554e-002
2.347043e+003;2.397128e-002
2.348971e+003;2.411962e-002
2.350900e+003;2.411679e-002
2.352829e+003;2.401281e-002
2.354757e+003;2.410894e-002
2.356686e+003;2.414411e-002
2.358614e+003;2.407805e-002
2.360543e+003;2.421943e-002
2.362471e+003;2.429591e-002
2.364400e+003;2.414484e-002
2.366328e+003;2.414516e-002
2.368257e+003;2.418415e-002
2.370186e+003;2.410145e-002
2.372114e+003;2.417549e-002
2.374042e+003;2.427850e-002
2.375971e+003;2.429409e-002
2.377900e+003;2.430495e-002
2.379828e+003;2.442719e-002
2.381757e+003;2.465908e-002
2.383685e+003;2.453849e-002
2.385614e+003;2.445134e-002
2.387542e+003;2.432542e-002
2.389471e+003;2.419297e-002
2.391399e+003;2.418534e-002
2.393328e+003;2.430768e-002
2.395257e+003;2.444581e-002
2.397185e+003;2.442229e-002
2.399114e+003;2.422447e-002
2.401042e+003;2.419806e-002
2.402971e+003;2.422517e-002
2.404899e+003;2.428883e-002
2.406828e+003;2.442912e-002
2.408756e+003;2.459908e-002
2.410685e+003;2.457833e-002
2.412614e+003;2.466746e-002
2.414542e+003;2.476438e-002
2.416471e+003;2.494040e-002
2.418399e+003;2.512439e-002
2.420328e+003;2.484117e-002
2.422256e+003;2.450442e-002
2.424185e+003;2.465793e-002
2.426113e+003;2.478739e-002
2.428042e+003;2.482693e-002
2.429970e+003;2.509582e-002
2.431899e+003;2.523591e-002
2.433828e+003;2.524876e-002
2.435756e+003;2.513208e-002
2.437685e+003;2.506966e-002
2.439613e+003;2.520701e-002
2.441542e+003;2.554757e-002
2.443470e+003;2.576051e-002
2.445399e+003;2.576603e-002
2.447327e+003;2.587304e-002
2.449256e+003;2.577865e-002
2.451185e+003;2.572328e-002
2.453113e+003;2.613142e-002
2.455042e+003;2.652801e-002
2.456970e+003;2.618030e-002
2.458899e+003;2.600033e-002
2.460827e+003;2.605760e-002
2.462756e+003;2.596568e-002
2.464684e+003;2.619005e-002
2.466613e+003;2.658620e-002
2.468542e+003;2.691209e-002
2.470470e+003;2.707632e-002
2.472398e+003;2.708214e-002
2.474327e+003;2.698277e-002
2.476256e+003;2.710739e-002
2.478184e+003;2.713367e-002
2.480113e+003;2.685198e-002
2.482041e+003;2.693444e-002
2.483970e+003;2.724489e-002
2.485898e+003;2.740417e-002
2.487827e+003;2.729093e-002
2.489755e+003;2.710732e-002
2.491684e+003;2.723473e-002
2.493613e+003;2.721201e-002
2.495541e+003;2.709991e-002
2.497470e+003;2.708009e-002
2.499398e+003;2.708450e-002
2.501327e+003;2.710870e-002
2.503255e+003;2.718566e-002
2.505184e+003;2.724648e-002
2.507112e+003;2.718411e-002
2.509041e+003;2.721667e-002
2.510969e+003;2.740417e-002
2.512898e+003;2.772142e-002
2.514827e+003;2.797691e-002
2.516755e+003;2.787271e-002
2.518684e+003;2.795522e-002
2.520612e+003;2.840557e-002
2.522541e+003;2.848651e-002
2.524469e+003;2.852030e-002
2.526398e+003;2.878728e-002
2.528326e+003;2.892584e-002
2.530255e+003;2.927674e-002
2.532184e+003;2.970207e-002
2.534112e+003;2.978088e-002
2.536041e+003;2.978166e-002
2.537969e+003;2.992991e-002
2.539898e+003;2.997525e-002
2.541826e+003;2.990918e-002
2.543755e+003;2.987202e-002
2.545683e+003;3.010868e-002
2.547612e+003;3.038481e-002
2.549541e+003;3.062591e-002
2.551469e+003;3.075542e-002
2.553397e+003;3.068903e-002
2.555326e+003;3.046278e-002
2.557255e+003;3.026333e-002
2.559183e+003;3.037646e-002
2.561112e+003;3.055431e-002
2.563040e+003;3.045084e-002
2.564969e+003;3.041694e-002
2.566897e+003;3.076673e-002
2.568826e+003;3.097481e-002
2.570754e+003;3.104043e-002
2.572683e+003;3.125858e-002
2.574612e+003;3.134906e-002
2.576540e+003;3.133183e-002
2.578469e+003;3.115515e-002
2.580397e+003;3.133752e-002
2.582326e+003;3.169755e-002
2.584254e+003;3.195482e-002
2.586183e+003;3.191391e-002
2.588111e+003;3.185209e-002
2.590040e+003;3.219355e-002
2.591969e+003;3.219926e-002
2.593897e+003;3.204178e-002
2.595826e+003;3.216372e-002
2.597754e+003;3.231485e-002
2.599683e+003;3.245397e-002
2.601611e+003;3.240163e-002
2.603540e+003;3.235326e-002
2.605468e+003;3.243576e-002
2.607397e+003;3.250225e-002
2.609325e+003;3.260589e-002
2.611254e+003;3.258442e-002
2.613183e+003;3.268547e-002
2.615111e+003;3.302259e-002
2.617040e+003;3.320815e-002
2.618968e+003;3.329761e-002
2.620897e+003;3.338322e-002
2.622825e+003;3.324273e-002
2.624754e+003;3.326573e-002
2.626682e+003;3.323587e-002
2.628611e+003;3.306160e-002
2.630540e+003;3.315729e-002
2.632468e+003;3.358887e-002
2.634396e+003;3.394536e-002
2.636325e+003;3.388438e-002
2.638254e+003;3.387725e-002
2.640182e+003;3.389936e-002
2.642111e+003;3.387876e-002
2.644039e+003;3.400007e-002
2.645968e+003;3.418475e-002
2.647896e+003;3.439465e-002
2.649825e+003;3.435148e-002
2.651753e+003;3.443163e-002
2.653682e+003;3.461818e-002
2.655611e+003;3.466616e-002
2.657539e+003;3.472710e-002
2.659468e+003;3.488412e-002
2.661396e+003;3.479926e-002
2.663325e+003;3.457574e-002
2.665253e+003;3.476684e-002
2.667182e+003;3.515188e-002
2.669110e+003;3.528232e-002
2.671039e+003;3.514976e-002
2.672968e+003;3.524660e-002
2.674896e+003;3.557107e-002
2.676825e+003;3.586577e-002
2.678753e+003;3.597483e-002
2.680682e+003;3.614224e-002
2.682610e+003;3.626314e-002
2.684539e+003;3.630370e-002
2.686467e+003;3.648061e-002
2.688396e+003;3.648277e-002
2.690324e+003;3.644176e-002
2.692253e+003;3.688420e-002
2.694182e+003;3.741856e-002
2.696110e+003;3.766436e-002
2.698039e+003;3.783206e-002
2.699967e+003;3.818246e-002
2.701896e+003;3.841985e-002
2.703824e+003;3.860752e-002
2.705753e+003;3.879844e-002
2.707681e+003;3.884979e-002
2.709610e+003;3.893766e-002
2.711539e+003;3.934949e-002
2.713467e+003;3.957726e-002
2.715396e+003;3.955091e-002
2.717324e+003;3.993743e-002
2.719253e+003;4.056380e-002
2.721181e+003;4.107288e-002
2.723110e+003;4.114788e-002
2.725038e+003;4.142867e-002
2.726967e+003;4.179329e-002
2.728896e+003;4.200862e-002
2.730824e+003;4.242108e-002
2.732752e+003;4.292181e-002
2.734681e+003;4.336790e-002
2.736610e+003;4.369516e-002
2.738538e+003;4.392793e-002
2.740467e+003;4.429117e-002
2.742395e+003;4.453539e-002
2.744324e+003;4.450106e-002
2.746252e+003;4.457875e-002
2.748181e+003;4.473860e-002
2.750109e+003;4.479035e-002
2.752038e+003;4.462134e-002
2.753967e+003;4.451222e-002
2.755895e+003;4.461899e-002
2.757824e+003;4.481871e-002
2.759752e+003;4.488896e-002
2.761681e+003;4.500332e-002
2.763609e+003;4.528062e-002
2.765538e+003;4.540844e-002
2.767466e+003;4.551877e-002
2.769395e+003;4.584435e-002
2.771323e+003;4.609485e-002
2.773252e+003;4.612179e-002
2.775181e+003;4.637315e-002
2.777109e+003;4.683531e-002
2.779038e+003;4.744467e-002
2.780966e+003;4.764859e-002
2.782895e+003;4.776748e-002
2.784823e+003;4.811000e-002
2.786752e+003;4.850977e-002
2.788680e+003;4.875796e-002
2.790609e+003;4.908156e-002
2.792538e+003;4.945062e-002
2.794466e+003;4.966020e-002
2.796395e+003;4.992986e-002
2.798323e+003;5.047595e-002
2.800252e+003;5.082985e-002
2.802180e+003;5.123388e-002
2.804109e+003;5.186408e-002
2.806037e+003;5.238547e-002
2.807966e+003;5.263357e-002
2.809895e+003;5.308545e-002
2.811823e+003;5.382852e-002
2.813751e+003;5.457741e-002
2.815680e+003;5.523676e-002
2.817609e+003;5.587777e-002
2.819537e+003;5.638099e-002
2.821466e+003;5.677840e-002
2.823394e+003;5.731926e-002
2.825323e+003;5.801505e-002
2.827251e+003;5.851741e-002
2.829180e+003;5.905851e-002
2.831108e+003;5.990338e-002
2.833037e+003;6.085891e-002
2.834966e+003;6.202422e-002
2.836894e+003;6.363127e-002
2.838823e+003;6.560685e-002
2.840751e+003;6.783284e-002
2.842680e+003;7.063460e-002
2.844608e+003;7.380483e-002
2.846537e+003;7.689220e-002
2.848465e+003;8.033244e-002
2.850394e+003;8.421761e-002
2.852323e+003;8.786464e-002
2.854251e+003;9.113840e-002
2.856180e+003;9.377939e-002
2.858108e+003;9.576818e-002
2.860037e+003;9.725942e-002
2.861965e+003;9.838391e-002
2.863894e+003;9.857554e-002
2.865822e+003;9.808280e-002
2.867751e+003;9.677555e-002
2.869679e+003;9.518505e-002
2.871608e+003;9.374432e-002
2.873536e+003;9.170958e-002
2.875465e+003;8.926993e-002
2.877394e+003;8.685395e-002
2.879322e+003;8.474181e-002
2.881251e+003;8.279638e-002
2.883179e+003;8.104987e-002
2.885108e+003;8.002980e-002
2.887036e+003;7.979967e-002
2.888965e+003;8.026484e-002
2.890893e+003;8.142620e-002
2.892822e+003;8.311055e-002
2.894750e+003;8.462447e-002
2.896679e+003;8.621043e-002
2.898608e+003;8.772986e-002
2.900536e+003;8.899679e-002
2.902465e+003;9.000510e-002
2.904393e+003;9.071906e-002
2.906322e+003;9.122832e-002
2.908250e+003;9.209317e-002
2.910179e+003;9.325559e-002
2.912107e+003;9.487163e-002
2.914036e+003;9.628481e-002
2.915965e+003;9.768115e-002
2.917893e+003;9.944090e-002
2.919822e+003;1.021640e-001
2.921750e+003;1.054542e-001
2.923679e+003;1.085436e-001
2.925607e+003;1.115934e-001
2.927536e+003;1.142759e-001
2.929464e+003;1.166162e-001
2.931393e+003;1.187424e-001
2.933322e+003;1.202080e-001
2.935250e+003;1.211657e-001
2.937178e+003;1.213641e-001
2.939107e+003;1.202660e-001
2.941036e+003;1.182580e-001
2.942964e+003;1.156143e-001
2.944893e+003;1.126893e-001
2.946821e+003;1.088624e-001
2.948750e+003;1.036571e-001
2.950678e+003;9.795374e-002
2.952607e+003;9.230650e-002
2.954535e+003;8.716632e-002
2.956464e+003;8.236223e-002
2.958393e+003;7.790242e-002
2.960321e+003;7.420047e-002
2.962250e+003;7.097597e-002
2.964178e+003;6.827294e-002
2.966107e+003;6.584933e-002
2.968035e+003;6.371729e-002
2.969964e+003;6.181341e-002
2.971892e+003;6.002918e-002
2.973821e+003;5.830697e-002
2.975750e+003;5.640721e-002
2.977678e+003;5.459323e-002
2.979607e+003;5.313214e-002
2.981535e+003;5.217854e-002
2.983464e+003;5.109410e-002
2.985392e+003;4.989998e-002
2.987321e+003;4.936044e-002
2.989249e+003;4.899747e-002
2.991178e+003;4.826197e-002
2.993106e+003;4.762947e-002
2.995035e+003;4.713588e-002
2.996964e+003;4.700409e-002
2.998892e+003;4.697784e-002
3.000821e+003;4.672785e-002
3.002749e+003;4.649111e-002
3.004678e+003;4.660456e-002
3.006606e+003;4.673487e-002
3.008535e+003;4.696111e-002
3.010463e+003;4.704108e-002
3.012392e+003;4.699205e-002
3.014321e+003;4.711752e-002
3.016249e+003;4.715202e-002
3.018177e+003;4.719701e-002
3.020106e+003;4.776951e-002
3.022035e+003;4.831930e-002
3.023963e+003;4.860637e-002
3.025892e+003;4.884415e-002
3.027820e+003;4.919977e-002
3.029749e+003;4.976434e-002
3.031677e+003;5.006381e-002
3.033606e+003;5.041302e-002
3.035534e+003;5.102180e-002
3.037463e+003;5.175477e-002
3.039392e+003;5.228451e-002
3.041320e+003;5.294824e-002
3.043249e+003;5.386685e-002
3.045177e+003;5.479230e-002
3.047106e+003;5.579887e-002
3.049034e+003;5.669462e-002
3.050963e+003;5.749461e-002
3.052891e+003;5.828241e-002
3.054820e+003;5.890236e-002
3.056749e+003;5.939440e-002
3.058677e+003;5.987607e-002
3.060606e+003;6.001681e-002
3.062534e+003;6.010311e-002
3.064463e+003;6.050421e-002
3.066391e+003;6.088765e-002
3.068320e+003;6.115133e-002
3.070248e+003;6.125731e-002
3.072177e+003;6.118795e-002
3.074105e+003;6.082575e-002
3.076034e+003;6.049244e-002
3.077963e+003;6.034553e-002
3.079891e+003;6.024799e-002
3.081820e+003;6.015848e-002
3.083748e+003;6.015654e-002
3.085677e+003;6.023300e-002
3.087605e+003;5.970854e-002
3.089534e+003;5.896130e-002
3.091462e+003;5.847779e-002
3.093391e+003;5.828336e-002
3.095320e+003;5.781034e-002
3.097248e+003;5.713389e-002
3.099177e+003;5.664025e-002
3.101105e+003;5.600079e-002
3.103034e+003;5.524413e-002
3.104962e+003;5.506769e-002
3.106891e+003;5.483812e-002
3.108819e+003;5.417645e-002
3.110748e+003;5.364366e-002
3.112677e+003;5.315996e-002
3.114605e+003;5.270374e-002
3.116533e+003;5.247774e-002
3.118462e+003;5.209941e-002
3.120391e+003;5.163866e-002
3.122319e+003;5.146845e-002
3.124248e+003;5.130965e-002
3.126176e+003;5.094448e-002
3.128105e+003;5.068330e-002
3.130033e+003;5.063319e-002
3.131962e+003;5.053509e-002
3.133890e+003;5.070915e-002
3.135819e+003;5.087928e-002
3.137748e+003;5.058576e-002
3.139676e+003;5.036070e-002
3.141605e+003;5.047018e-002
3.143533e+003;5.048287e-002
3.145462e+003;5.073436e-002
3.147390e+003;5.120208e-002
3.149319e+003;5.143820e-002
3.151247e+003;5.164101e-002
3.153176e+003;5.206840e-002
3.155104e+003;5.230025e-002
3.157033e+003;5.255383e-002
3.158962e+003;5.302599e-002
3.160890e+003;5.337246e-002
3.162819e+003;5.376143e-002
3.164747e+003;5.413847e-002
3.166676e+003;5.419834e-002
3.168604e+003;5.438825e-002
3.170533e+003;5.518085e-002
3.172461e+003;5.597222e-002
3.174390e+003;5.658035e-002
3.176319e+003;5.716333e-002
3.178247e+003;5.739262e-002
3.180176e+003;5.783926e-002
3.182104e+003;5.875231e-002
3.184033e+003;5.952594e-002
3.185961e+003;5.998706e-002
3.187890e+003;6.053685e-002
3.189818e+003;6.081786e-002
3.191747e+003;6.102109e-002
3.193676e+003;6.148599e-002
3.195604e+003;6.165169e-002
3.197532e+003;6.190250e-002
3.199461e+003;6.235958e-002
3.201390e+003;6.267419e-002
3.203318e+003;6.298275e-002
3.205247e+003;6.320523e-002
3.207175e+003;6.316350e-002
3.209104e+003;6.341328e-002
3.211032e+003;6.406153e-002
3.212961e+003;6.470118e-002
3.214889e+003;6.529490e-002
3.216818e+003;6.591010e-002
3.218747e+003;6.640261e-002
3.220675e+003;6.673960e-002
3.222604e+003;6.717639e-002
3.224532e+003;6.782769e-002
3.226461e+003;6.886415e-002
3.228389e+003;6.981406e-002
3.230318e+003;7.048780e-002
3.232246e+003;7.143338e-002
3.234175e+003;7.257564e-002
3.236104e+003;7.369708e-002
3.238032e+003;7.499549e-002
3.239961e+003;7.626903e-002
3.241889e+003;7.755191e-002
3.243818e+003;7.901622e-002
3.245746e+003;8.078045e-002
3.247675e+003;8.276203e-002
3.249603e+003;8.426721e-002
3.251532e+003;8.602968e-002
3.253460e+003;8.799791e-002
3.255389e+003;8.957985e-002
3.257318e+003;9.144385e-002
3.259246e+003;9.395871e-002
3.261175e+003;9.659900e-002
3.263103e+003;9.861711e-002
3.265032e+003;1.006352e-001
3.266960e+003;1.031921e-001
3.268889e+003;1.057674e-001
3.270817e+003;1.080634e-001
3.272746e+003;1.102459e-001
3.274675e+003;1.128071e-001
3.276603e+003;1.153767e-001
3.278531e+003;1.178202e-001
3.280460e+003;1.199846e-001
3.282389e+003;1.222977e-001
3.284317e+003;1.246392e-001
3.286246e+003;1.266191e-001
3.288174e+003;1.277110e-001
3.290103e+003;1.280228e-001
3.292031e+003;1.279714e-001
3.293960e+003;1.276055e-001
3.295888e+003;1.264223e-001
3.297817e+003;1.244043e-001
3.299746e+003;1.218344e-001
3.301674e+003;1.192023e-001
3.303603e+003;1.164279e-001
3.305531e+003;1.133732e-001
3.307460e+003;1.097962e-001
3.309388e+003;1.063394e-001
3.311317e+003;1.034380e-001
3.313245e+003;1.006825e-001
3.315174e+003;9.746885e-002
3.317103e+003;9.468901e-002
3.319031e+003;9.239662e-002
3.320960e+003;8.967752e-002
3.322888e+003;8.703549e-002
3.324817e+003;8.475365e-002
3.326745e+003;8.218663e-002
3.328674e+003;7.934421e-002
3.330602e+003;7.729720e-002
3.332531e+003;7.560543e-002
3.334459e+003;7.334748e-002
3.336388e+003;7.117114e-002
3.338317e+003;6.952356e-002
3.340245e+003;6.818094e-002
3.342174e+003;6.671043e-002
3.344102e+003;6.500740e-002
3.346031e+003;6.346604e-002
3.347959e+003;6.221139e-002
3.349888e+003;6.091590e-002
3.351816e+003;5.972872e-002
3.353745e+003;5.850679e-002
3.355674e+003;5.736028e-002
3.357602e+003;5.695524e-002
3.359531e+003;5.623109e-002
3.361459e+003;5.495084e-002
3.363388e+003;5.359226e-002
3.365316e+003;5.274343e-002
3.367245e+003;5.206840e-002
3.369173e+003;5.150949e-002
3.371102e+003;5.104371e-002
3.373031e+003;5.034984e-002
3.374959e+003;4.998469e-002
3.376887e+003;4.946878e-002
3.378816e+003;4.867982e-002
3.380745e+003;4.814831e-002
3.382673e+003;4.781127e-002
3.384602e+003;4.745129e-002
3.386530e+003;4.702849e-002
3.388459e+003;4.649469e-002
3.390387e+003;4.579987e-002
3.392316e+003;4.543290e-002
3.394244e+003;4.552370e-002
3.396173e+003;4.549831e-002
3.398102e+003;4.488297e-002
3.400030e+003;4.421666e-002
3.401959e+003;4.417396e-002
3.403887e+003;4.439756e-002
3.405816e+003;4.409330e-002
3.407744e+003;4.362559e-002
3.409673e+003;4.336204e-002
3.411601e+003;4.321422e-002
3.413530e+003;4.322872e-002
3.415458e+003;4.313704e-002
3.417387e+003;4.265803e-002
3.419316e+003;4.231065e-002
3.421244e+003;4.210915e-002
3.423173e+003;4.165031e-002
3.425101e+003;4.117709e-002
3.427030e+003;4.159835e-002
3.428958e+003;4.182919e-002
3.430887e+003;4.144781e-002
3.432815e+003;4.131044e-002
3.434744e+003;4.137940e-002
3.436673e+003;4.143629e-002
3.438601e+003;4.145284e-002
3.440530e+003;4.112755e-002
3.442458e+003;4.102943e-002
3.444387e+003;4.084564e-002
3.446315e+003;4.046021e-002
3.448244e+003;4.070999e-002
3.450172e+003;4.030352e-002
3.452101e+003;3.957966e-002
3.454030e+003;3.971542e-002
3.455958e+003;3.956024e-002
3.457886e+003;3.912533e-002
3.459815e+003;3.866517e-002
3.461744e+003;3.857934e-002
3.463672e+003;3.860259e-002
3.465601e+003;3.812674e-002
3.467529e+003;3.755278e-002
3.469458e+003;3.748985e-002
3.471386e+003;3.731658e-002
3.473315e+003;3.706964e-002
3.475243e+003;3.708758e-002
3.477172e+003;3.704828e-002
3.479101e+003;3.680763e-002
3.481029e+003;3.662442e-002
3.482958e+003;3.668279e-002
3.484886e+003;3.663159e-002
3.486815e+003;3.657496e-002
3.488743e+003;3.637218e-002
3.490672e+003;3.624023e-002
3.492600e+003;3.628133e-002
3.494529e+003;3.594761e-002
3.496458e+003;3.551792e-002
3.498386e+003;3.532703e-002
3.500315e+003;3.582083e-002
3.502243e+003;3.619849e-002
3.504172e+003;3.553022e-002
3.506100e+003;3.488890e-002
3.508029e+003;3.464600e-002
3.509957e+003;3.428069e-002
3.511886e+003;3.408034e-002
3.513814e+003;3.427083e-002
3.515743e+003;3.420257e-002
3.517672e+003;3.375988e-002
3.519600e+003;3.329932e-002
3.521529e+003;3.339167e-002
3.523457e+003;3.337625e-002
3.525386e+003;3.328287e-002
3.527314e+003;3.301086e-002
3.529243e+003;3.251461e-002
3.531171e+003;3.241013e-002
3.533100e+003;3.238121e-002
3.535029e+003;3.204577e-002
3.536957e+003;3.166693e-002
3.538885e+003;3.163011e-002
3.540814e+003;3.140039e-002
3.542743e+003;3.081190e-002
3.544671e+003;3.063836e-002
3.546600e+003;3.044181e-002
3.548528e+003;2.993588e-002
3.550457e+003;2.937394e-002
3.552385e+003;2.901414e-002
3.554314e+003;2.917120e-002
3.556242e+003;2.887970e-002
3.558171e+003;2.817517e-002
3.560100e+003;2.771255e-002
3.562028e+003;2.697417e-002
3.563957e+003;2.664510e-002
3.565885e+003;2.701278e-002
3.567814e+003;2.711801e-002
3.569742e+003;2.669146e-002
3.571671e+003;2.630920e-002
3.573599e+003;2.627878e-002
3.575528e+003;2.606576e-002
3.577457e+003;2.555260e-002
3.579385e+003;2.536733e-002
3.581314e+003;2.512004e-002
3.583242e+003;2.446929e-002
3.585171e+003;2.369409e-002
3.587099e+003;2.325977e-002
3.589028e+003;2.331851e-002
3.590956e+003;2.311658e-002
3.592885e+003;2.271510e-002
3.594813e+003;2.250700e-002
3.596742e+003;2.256179e-002
3.598671e+003;2.268749e-002
3.600599e+003;2.226482e-002
3.602528e+003;2.215500e-002
3.604456e+003;2.226067e-002
3.606385e+003;2.183064e-002
3.608313e+003;2.093365e-002
3.610242e+003;2.017889e-002
3.612170e+003;2.005908e-002
3.614099e+003;2.017260e-002
3.616028e+003;2.004874e-002
3.617956e+003;1.977200e-002
3.619885e+003;1.946674e-002
3.621813e+003;1.914562e-002
3.623742e+003;1.896501e-002
3.625670e+003;1.870674e-002
3.627599e+003;1.833368e-002
3.629527e+003;1.826960e-002
3.631456e+003;1.820737e-002
3.633385e+003;1.780533e-002
3.635313e+003;1.741024e-002
3.637241e+003;1.704157e-002
3.639170e+003;1.689425e-002
3.641099e+003;1.665954e-002
3.643027e+003;1.649252e-002
3.644956e+003;1.617425e-002
3.646884e+003;1.580391e-002
3.648813e+003;1.552327e-002
3.650741e+003;1.553068e-002
3.652670e+003;1.562018e-002
3.654598e+003;1.569517e-002
3.656527e+003;1.561864e-002
3.658456e+003;1.547159e-002
3.660384e+003;1.544711e-002
3.662313e+003;1.535109e-002
3.664241e+003;1.548687e-002
3.666170e+003;1.553103e-002
3.668098e+003;1.525824e-002
3.670027e+003;1.524527e-002
3.671955e+003;1.516762e-002
3.673884e+003;1.468498e-002
3.675813e+003;1.440982e-002
3.677741e+003;1.419405e-002
3.679669e+003;1.381411e-002
3.681598e+003;1.379540e-002
3.683527e+003;1.364520e-002
3.685455e+003;1.350384e-002
3.687384e+003;1.334493e-002
3.689312e+003;1.298345e-002
3.691241e+003;1.284927e-002
3.693169e+003;1.287336e-002
3.695098e+003;1.287681e-002
3.697026e+003;1.282060e-002
3.698955e+003;1.240619e-002
3.700884e+003;1.215342e-002
3.702812e+003;1.232083e-002
3.704741e+003;1.238683e-002
3.706669e+003;1.193363e-002
3.708598e+003;1.169261e-002
3.710526e+003;1.187257e-002
3.712455e+003;1.191064e-002
3.714383e+003;1.170054e-002
3.716312e+003;1.181847e-002
3.718240e+003;1.212889e-002
3.720169e+003;1.202767e-002
3.722098e+003;1.214971e-002
3.724026e+003;1.181550e-002
3.725955e+003;1.152721e-002
3.727883e+003;1.172532e-002
3.729812e+003;1.161858e-002
3.731740e+003;1.200781e-002
3.733669e+003;1.223756e-002
3.735597e+003;1.175426e-002
3.737526e+003;1.198530e-002
3.739455e+003;1.205680e-002
3.741383e+003;1.157546e-002
3.743312e+003;1.130270e-002
3.745240e+003;1.141961e-002
3.747169e+003;1.161647e-002
3.749097e+003;1.151360e-002
3.751026e+003;1.137130e-002
3.752954e+003;1.162365e-002
3.754883e+003;1.215213e-002
3.756812e+003;1.233020e-002
3.758740e+003;1.240667e-002
3.760668e+003;1.234302e-002
3.762597e+003;1.215274e-002
3.764526e+003;1.208307e-002
3.766454e+003;1.217458e-002
3.768383e+003;1.208719e-002
3.770311e+003;1.211465e-002
3.772240e+003;1.233688e-002
3.774168e+003;1.263966e-002
3.776097e+003;1.264867e-002
3.778025e+003;1.212201e-002
3.779954e+003;1.189222e-002
3.781883e+003;1.208078e-002
3.783811e+003;1.210913e-002
3.785740e+003;1.215792e-002
3.787668e+003;1.228521e-002
3.789597e+003;1.214412e-002
3.791525e+003;1.195349e-002
3.793454e+003;1.181639e-002
3.795382e+003;1.194003e-002
3.797311e+003;1.233041e-002
3.799240e+003;1.232669e-002
3.801168e+003;1.205298e-002
3.803097e+003;1.185217e-002
3.805025e+003;1.178837e-002
3.806954e+003;1.175157e-002
3.808882e+003;1.179446e-002
3.810811e+003;1.208852e-002
3.812739e+003;1.254631e-002
3.814668e+003;1.230062e-002
3.816596e+003;1.223981e-002
3.818525e+003;1.240599e-002
3.820454e+003;1.231463e-002
3.822382e+003;1.272953e-002
3.824311e+003;1.301343e-002
3.826239e+003;1.303657e-002
3.828168e+003;1.279344e-002
3.830096e+003;1.244489e-002
3.832025e+003;1.246763e-002
3.833953e+003;1.275856e-002
3.835882e+003;1.237203e-002
3.837811e+003;1.205070e-002
3.839739e+003;1.221916e-002
3.841667e+003;1.214862e-002
3.843596e+003;1.240718e-002
3.845525e+003;1.291146e-002
3.847453e+003;1.325225e-002
3.849382e+003;1.305761e-002
3.851310e+003;1.239781e-002
3.853239e+003;1.186038e-002
3.855167e+003;1.192379e-002
3.857096e+003;1.288388e-002
3.859024e+003;1.356965e-002
3.860953e+003;1.376321e-002
3.862882e+003;1.390066e-002
3.864810e+003;1.329205e-002
3.866739e+003;1.266539e-002
3.868667e+003;1.260931e-002
3.870596e+003;1.319851e-002
3.872524e+003;1.374194e-002
3.874453e+003;1.361365e-002
3.876381e+003;1.365355e-002
3.878310e+003;1.356028e-002
3.880239e+003;1.296942e-002
3.882167e+003;1.239965e-002
3.884096e+003;1.249495e-002
3.886024e+003;1.294853e-002
3.887953e+003;1.307226e-002
3.889881e+003;1.317297e-002
3.891810e+003;1.353758e-002
3.893738e+003;1.370224e-002
3.895667e+003;1.361737e-002
3.897595e+003;1.363638e-002
3.899524e+003;1.335102e-002
3.901453e+003;1.363207e-002
3.903381e+003;1.406569e-002
3.905310e+003;1.401299e-002
3.907238e+003;1.384859e-002
3.909167e+003;1.378688e-002
3.911095e+003;1.393654e-002
3.913024e+003;1.397648e-002
3.914952e+003;1.399410e-002
3.916881e+003;1.429828e-002
3.918810e+003;1.473400e-002
3.920738e+003;1.464406e-002
3.922667e+003;1.438985e-002
3.924595e+003;1.458334e-002
3.926524e+003;1.485930e-002
3.928452e+003;1.491948e-002
3.930381e+003;1.511952e-002
3.932309e+003;1.542754e-002
3.934238e+003;1.558944e-002
3.936167e+003;1.562125e-002
3.938095e+003;1.553388e-002
3.940023e+003;1.545548e-002
3.941952e+003;1.504535e-002
3.943881e+003;1.509135e-002
3.945809e+003;1.591251e-002
3.947738e+003;1.625308e-002
3.949666e+003;1.601560e-002
3.951595e+003;1.592667e-002
3.953523e+003;1.629319e-002
3.955452e+003;1.640319e-002
3.957380e+003;1.631174e-002
3.959309e+003;1.646217e-002
3.961238e+003;1.642383e-002
3.963166e+003;1.605500e-002
3.965095e+003;1.617494e-002
3.967023e+003;1.595792e-002
3.968952e+003;1.598380e-002
3.970880e+003;1.630451e-002
3.972809e+003;1.650006e-002
3.974737e+003;1.667146e-002
3.976666e+003;1.660177e-002
3.978594e+003;1.669263e-002
3.980523e+003;1.688767e-002
3.982452e+003;1.692215e-002
3.984380e+003;1.640732e-002
3.986309e+003;1.620366e-002
3.988237e+003;1.663386e-002
3.990166e+003;1.716124e-002
3.992094e+003;1.781189e-002
3.994023e+003;1.798359e-002
3.995951e+003;1.785390e-002
3.997880e+003;1.760391e-002
3.999809e+003;1.768187e-002
4.001737e+003;0.000000e+000
