3.992094e+002;0.000000e+000
4.011380e+002;0.000000e+000
4.030665e+002;0.000000e+000
4.049951e+002;0.000000e+000
4.069236e+002;0.000000e+000
4.088522e+002;0.000000e+000
4.107807e+002;0.000000e+000
4.127093e+002;0.000000e+000
4.146378e+002;0.000000e+000
4.165664e+002;0.000000e+000
4.184949e+002;0.000000e+000
4.204235e+002;0.000000e+000
4.223520e+002;0.000000e+000
4.242806e+002;0.000000e+000
4.262091e+002;0.000000e+000
4.281377e+002;0.000000e+000
4.300662e+002;0.000000e+000
4.319948e+002;0.000000e+000
4.339233e+002;0.000000e+000
4.358519e+002;0.000000e+000
4.377804e+002;0.000000e+000
4.397090e+002;0.000000e+000
4.416375e+002;0.000000e+000
4.435660e+002;0.000000e+000
4.454946e+002;0.000000e+000
4.474232e+002;0.000000e+000
4.493517e+002;0.000000e+000
4.512802e+002;0.000000e+000
4.532088e+002;0.000000e+000
4.551373e+002;0.000000e+000
4.570659e+002;0.000000e+000
4.589944e+002;0.000000e+000
4.609230e+002;0.000000e+000
4.628515e+002;0.000000e+000
4.647801e+002;0.000000e+000
4.667086e+002;0.000000e+000
4.686372e+002;0.000000e+000
4.705657e+002;0.000000e+000
4.724943e+002;0.000000e+000
4.744228e+002;0.000000e+000
4.763513e+002;0.000000e+000
4.782799e+002;0.000000e+000
4.802085e+002;0.000000e+000
4.821370e+002;0.000000e+000
4.840656e+002;0.000000e+000
4.859941e+002;0.000000e+000
4.879226e+002;0.000000e+000
4.898512e+002;0.000000e+000
4.917798e+002;0.000000e+000
4.937083e+002;0.000000e+000
4.956368e+002;0.000000e+000
4.975654e+002;0.000000e+000
4.994939e+002;0.000000e+000
5.014225e+002;0.000000e+000
5.033510e+002;0.000000e+000
5.052796e+002;0.000000e+000
5.072081e+002;0.000000e+000
5.091367e+002;0.000000e+000
5.110652e+002;0.000000e+000
5.129938e+002;0.000000e+000
5.149223e+002;0.000000e+000
5.168509e+002;0.000000e+000
5.187794e+002;0.000000e+000
5.207079e+002;0.000000e+000
5.226365e+002;0.000000e+000
5.245651e+002;0.000000e+000
5.264936e+002;0.000000e+000
5.284222e+002;0.000000e+000
5.303507e+002;0.000000e+000
5.322792e+002;0.000000e+000
5.342078e+002;0.000000e+000
5.361364e+002;0.000000e+000
5.380649e+002;0.000000e+000
5.399935e+002;0.000000e+000
5.419220e+002;0.000000e+000
5.438505e+002;0.000000e+000
5.457791e+002;0.000000e+000
5.477076e+002;0.000000e+000
5.496362e+002;0.000000e+000
5.515648e+002;0.000000e+000
5.534933e+002;0.000000e+000
5.554218e+002;0.000000e+000
5.573504e+002;0.000000e+000
5.592789e+002;0.000000e+000
5.612075e+002;0.000000e+000
5.631360e+002;0.000000e+000
5.650646e+002;0.000000e+000
5.669931e+002;0.000000e+000
5.689217e+002;0.000000e+000
5.708502e+002;0.000000e+000
5.727787e+002;0.000000e+000
5.747073e+002;0.000000e+000
5.766359e+002;0.000000e+000
5.785644e+002;0.000000e+000
5.804930e+002;0.000000e+000
5.824215e+002;0.000000e+000
5.843500e+002;0.000000e+000
5.862786e+002;0.000000e+000
5.882072e+002;0.000000e+000
5.901357e+002;0.000000e+000
5.920643e+002;0.000000e+000
5.939928e+002;0.000000e+000
5.959213e+002;0.000000e+000
5.978499e+002;0.000000e+000
5.997784e+002;9.889451e-002
6.017070e+002;1.007619e-001
6.036355e+002;9.941720e-002
6.055641e+002;9.730610e-002
6.074926e+002;9.478825e-002
6.094211e+002;9.330060e-002
6.113497e+002;9.254979e-002
6.132783e+002;9.286674e-002
6.152068e+002;9.156239e-002
6.171354e+002;8.824111e-002
6.190639e+002;8.877520e-002
6.209924e+002;9.175386e-002
6.229210e+002;9.452323e-002
6.248495e+002;9.808654e-002
6.267781e+002;1.010441e-001
6.287067e+002;1.006353e-001
6.306352e+002;9.987780e-002
6.325637e+002;1.014124e-001
6.344923e+002;1.025422e-001
6.364208e+002;1.044566e-001
6.383494e+002;1.026421e-001
6.402780e+002;1.000881e-001
6.422065e+002;1.056052e-001
6.441350e+002;1.126577e-001
6.460636e+002;1.118789e-001
6.479921e+002;1.095435e-001
6.499207e+002;1.080529e-001
6.518492e+002;1.059785e-001
6.537778e+002;1.076036e-001
6.557063e+002;1.097970e-001
6.576349e+002;1.117203e-001
6.595634e+002;1.147764e-001
6.614919e+002;1.171815e-001
6.634205e+002;1.182427e-001
6.653491e+002;1.186181e-001
6.672776e+002;1.200018e-001
6.692062e+002;1.217201e-001
6.711347e+002;1.217683e-001
6.730632e+002;1.202209e-001
6.749918e+002;1.199257e-001
6.769203e+002;1.207411e-001
6.788489e+002;1.220780e-001
6.807775e+002;1.221080e-001
6.827060e+002;1.215837e-001
6.846345e+002;1.227335e-001
6.865631e+002;1.218128e-001
6.884916e+002;1.210954e-001
6.904202e+002;1.209784e-001
6.923488e+002;1.186449e-001
6.942773e+002;1.163891e-001
6.962058e+002;1.145583e-001
6.981344e+002;1.120799e-001
7.000629e+002;1.096570e-001
7.019915e+002;1.082378e-001
7.039200e+002;1.073241e-001
7.058486e+002;1.069914e-001
7.077771e+002;1.060781e-001
7.097057e+002;1.056229e-001
7.116342e+002;1.055430e-001
7.135627e+002;1.044007e-001
7.154913e+002;1.030136e-001
7.174199e+002;1.018365e-001
7.193484e+002;1.011269e-001
7.212770e+002;1.014633e-001
7.232055e+002;1.022197e-001
7.251340e+002;1.027783e-001
7.270626e+002;1.030913e-001
7.289911e+002;1.021727e-001
7.309197e+002;9.907508e-002
7.328483e+002;9.487230e-002
7.347768e+002;8.971088e-002
7.367053e+002;8.519717e-002
7.386339e+002;8.220024e-002
7.405624e+002;8.026803e-002
7.424910e+002;7.937658e-002
7.444196e+002;7.833206e-002
7.463481e+002;7.644340e-002
7.482766e+002;7.392262e-002
7.502052e+002;7.154568e-002
7.521337e+002;6.988815e-002
7.540623e+002;6.844308e-002
7.559908e+002;6.795917e-002
7.579194e+002;6.643941e-002
7.598479e+002;6.452543e-002
7.617765e+002;6.392273e-002
7.637050e+002;6.317861e-002
7.656335e+002;6.181807e-002
7.675621e+002;6.053662e-002
7.694907e+002;5.970150e-002
7.714192e+002;5.921930e-002
7.733478e+002;5.773573e-002
7.752763e+002;5.672731e-002
7.772048e+002;5.632998e-002
7.791334e+002;5.517558e-002
7.810620e+002;5.428589e-002
7.829905e+002;5.377984e-002
7.849191e+002;5.262665e-002
7.868476e+002;5.048779e-002
7.887761e+002;4.980607e-002
7.907047e+002;5.057500e-002
7.926332e+002;5.044711e-002
7.945618e+002;4.898426e-002
7.964903e+002;4.711150e-002
7.984189e+002;4.606634e-002
8.003474e+002;4.526106e-002
8.022759e+002;4.426351e-002
8.042045e+002;4.307490e-002
8.061331e+002;4.268255e-002
8.080616e+002;4.266896e-002
8.099902e+002;4.221522e-002
8.119187e+002;4.216520e-002
8.138472e+002;4.250343e-002
8.157758e+002;4.280701e-002
8.177043e+002;4.378040e-002
8.196329e+002;4.476692e-002
8.215615e+002;4.532325e-002
8.234900e+002;4.635586e-002
8.254185e+002;4.781575e-002
8.273471e+002;4.859669e-002
8.292756e+002;4.967944e-002
8.312042e+002;5.076687e-002
8.331328e+002;5.031992e-002
8.350613e+002;4.863231e-002
8.369898e+002;4.589318e-002
8.389184e+002;4.331986e-002
8.408469e+002;4.147417e-002
8.427755e+002;3.945605e-002
8.447040e+002;3.777083e-002
8.466326e+002;3.696417e-002
8.485611e+002;3.650493e-002
8.504897e+002;3.577974e-002
8.524182e+002;3.509616e-002
8.543467e+002;3.477998e-002
8.562753e+002;3.482489e-002
8.582039e+002;3.455504e-002
8.601324e+002;3.422655e-002
8.620610e+002;3.426036e-002
8.639895e+002;3.438361e-002
8.659180e+002;3.468895e-002
8.678466e+002;3.514825e-002
8.697751e+002;3.546913e-002
8.717037e+002;3.552105e-002
8.736323e+002;3.532990e-002
8.755608e+002;3.570282e-002
8.774893e+002;3.679226e-002
8.794179e+002;3.748306e-002
8.813464e+002;3.815648e-002
8.832750e+002;3.899489e-002
8.852036e+002;3.913486e-002
8.871321e+002;3.875558e-002
8.890606e+002;3.828692e-002
8.909892e+002;3.809314e-002
8.929177e+002;3.803068e-002
8.948463e+002;3.788235e-002
8.967748e+002;3.766154e-002
8.987034e+002;3.810215e-002
9.006319e+002;3.865054e-002
9.025605e+002;3.875406e-002
9.044890e+002;3.906478e-002
9.064175e+002;3.972628e-002
9.083461e+002;4.034715e-002
9.102747e+002;4.083545e-002
9.122032e+002;4.138541e-002
9.141318e+002;4.167577e-002
9.160603e+002;4.159441e-002
9.179888e+002;4.157687e-002
9.199174e+002;4.200903e-002
9.218459e+002;4.294364e-002
9.237745e+002;4.411817e-002
9.257031e+002;4.529853e-002
9.276316e+002;4.588021e-002
9.295601e+002;4.570301e-002
9.314887e+002;4.510182e-002
9.334172e+002;4.443448e-002
9.353458e+002;4.341762e-002
9.372744e+002;4.272394e-002
9.392029e+002;4.272515e-002
9.411314e+002;4.304490e-002
9.430600e+002;4.365347e-002
9.449885e+002;4.468692e-002
9.469171e+002;4.590448e-002
9.488456e+002;4.713234e-002
9.507742e+002;4.797417e-002
9.527027e+002;4.863961e-002
9.546313e+002;4.924015e-002
9.565598e+002;4.962625e-002
9.584883e+002;4.993224e-002
9.604169e+002;5.015027e-002
9.623455e+002;4.974777e-002
9.642740e+002;4.920593e-002
9.662026e+002;4.894090e-002
9.681311e+002;4.850569e-002
9.700596e+002;4.808938e-002
9.719882e+002;4.799149e-002
9.739167e+002;4.745354e-002
9.758453e+002;4.675549e-002
9.777739e+002;4.658641e-002
9.797024e+002;4.646633e-002
9.816309e+002;4.641445e-002
9.835595e+002;4.618863e-002
9.854880e+002;4.613126e-002
9.874166e+002;4.684720e-002
9.893452e+002;4.739619e-002
9.912737e+002;4.666465e-002
9.932022e+002;4.489237e-002
9.951307e+002;4.260130e-002
9.970593e+002;4.067731e-002
9.989879e+002;3.955686e-002
1.000916e+003;3.912663e-002
1.002845e+003;3.907301e-002
1.004773e+003;3.905847e-002
1.006702e+003;3.908983e-002
1.008631e+003;3.901041e-002
1.010559e+003;3.888026e-002
1.012488e+003;3.906950e-002
1.014416e+003;3.956492e-002
1.016345e+003;3.987927e-002
1.018273e+003;4.004729e-002
1.020202e+003;4.058399e-002
1.022130e+003;4.131281e-002
1.024059e+003;4.179410e-002
1.025988e+003;4.319892e-002
1.027916e+003;4.554294e-002
1.029845e+003;4.794808e-002
1.031773e+003;5.038147e-002
1.033702e+003;5.247785e-002
1.035630e+003;5.371830e-002
1.037559e+003;5.501067e-002
1.039487e+003;5.805413e-002
1.041416e+003;6.230856e-002
1.043344e+003;6.538378e-002
1.045273e+003;6.635725e-002
1.047202e+003;6.485288e-002
1.049130e+003;6.062420e-002
1.051059e+003;5.556944e-002
1.052987e+003;5.157068e-002
1.054916e+003;4.930818e-002
1.056844e+003;4.822954e-002
1.058773e+003;4.790051e-002
1.060701e+003;4.824398e-002
1.062630e+003;4.891758e-002
1.064558e+003;4.989790e-002
1.066487e+003;5.071101e-002
1.068416e+003;5.145849e-002
1.070344e+003;5.222659e-002
1.072273e+003;5.260963e-002
1.074201e+003;5.273135e-002
1.076130e+003;5.242891e-002
1.078058e+003;5.238446e-002
1.079987e+003;5.208805e-002
1.081915e+003;5.140594e-002
1.083844e+003;5.077260e-002
1.085773e+003;5.069637e-002
1.087701e+003;5.063624e-002
1.089630e+003;5.072818e-002
1.091558e+003;5.133706e-002
1.093487e+003;5.224998e-002
1.095415e+003;5.252279e-002
1.097344e+003;5.289390e-002
1.099272e+003;5.430425e-002
1.101201e+003;5.595356e-002
1.103129e+003;5.718431e-002
1.105058e+003;5.848223e-002
1.106987e+003;5.949641e-002
1.108915e+003;5.997900e-002
1.110844e+003;6.046205e-002
1.112772e+003;6.066588e-002
1.114701e+003;6.045702e-002
1.116629e+003;6.038155e-002
1.118558e+003;6.049537e-002
1.120486e+003;5.992677e-002
1.122415e+003;5.828499e-002
1.124344e+003;5.613421e-002
1.126272e+003;5.363511e-002
1.128201e+003;5.111351e-002
1.130129e+003;4.868897e-002
1.132058e+003;4.736101e-002
1.133986e+003;4.714390e-002
1.135915e+003;4.783059e-002
1.137843e+003;4.946373e-002
1.139772e+003;5.108999e-002
1.141700e+003;5.271063e-002
1.143629e+003;5.418573e-002
1.145557e+003;5.541240e-002
1.147486e+003;5.720676e-002
1.149415e+003;5.975781e-002
1.151343e+003;6.222641e-002
1.153272e+003;6.357469e-002
1.155200e+003;6.514519e-002
1.157129e+003;6.782874e-002
1.159057e+003;7.074666e-002
1.160986e+003;7.427477e-002
1.162914e+003;7.862557e-002
1.164843e+003;8.271316e-002
1.166771e+003;8.527652e-002
1.168700e+003;8.656392e-002
1.170629e+003;8.653808e-002
1.172557e+003;8.513816e-002
1.174486e+003;8.297760e-002
1.176414e+003;8.030797e-002
1.178343e+003;7.820128e-002
1.180271e+003;7.692103e-002
1.182200e+003;7.688350e-002
1.184128e+003;7.810517e-002
1.186057e+003;7.985076e-002
1.187986e+003;8.215249e-002
1.189914e+003;8.444703e-002
1.191843e+003;8.706999e-002
1.193771e+003;8.964119e-002
1.195700e+003;9.197399e-002
1.197628e+003;9.408276e-002
1.199557e+003;9.478821e-002
1.201485e+003;9.363788e-002
1.203414e+003;9.167459e-002
1.205343e+003;8.951075e-002
1.207271e+003;8.749769e-002
1.209200e+003;8.615520e-002
1.211128e+003;8.517645e-002
1.213057e+003;8.423229e-002
1.214985e+003;8.289839e-002
1.216914e+003;8.107447e-002
1.218842e+003;7.971837e-002
1.220771e+003;7.903704e-002
1.222699e+003;7.922263e-002
1.224628e+003;8.041365e-002
1.226557e+003;8.257124e-002
1.228485e+003;8.481874e-002
1.230414e+003;8.703431e-002
1.232342e+003;8.875702e-002
1.234271e+003;9.000327e-002
1.236199e+003;9.102218e-002
1.238128e+003;9.153932e-002
1.240056e+003;9.153052e-002
1.241985e+003;9.098548e-002
1.243913e+003;9.008814e-002
1.245842e+003;8.957924e-002
1.247771e+003;8.995786e-002
1.249699e+003;9.126328e-002
1.251628e+003;9.271334e-002
1.253556e+003;9.446923e-002
1.255485e+003;9.634937e-002
1.257413e+003;9.804123e-002
1.259342e+003;9.916770e-002
1.261270e+003;9.950332e-002
1.263199e+003;9.872179e-002
1.265127e+003;9.667892e-002
1.267056e+003;9.325834e-002
1.268985e+003;8.936602e-002
1.270913e+003;8.684711e-002
1.272842e+003;8.526237e-002
1.274770e+003;8.464126e-002
1.276699e+003;8.485382e-002
1.278627e+003;8.509188e-002
1.280556e+003;8.539879e-002
1.282484e+003;8.547609e-002
1.284413e+003;8.459201e-002
1.286342e+003;8.355882e-002
1.288270e+003;8.320910e-002
1.290199e+003;8.334617e-002
1.292127e+003;8.364736e-002
1.294056e+003;8.378123e-002
1.295984e+003;8.365213e-002
1.297913e+003;8.340908e-002
1.299841e+003;8.295971e-002
1.301770e+003;8.184289e-002
1.303698e+003;8.036976e-002
1.305627e+003;7.914946e-002
1.307556e+003;7.827353e-002
1.309484e+003;7.771768e-002
1.311413e+003;7.771241e-002
1.313341e+003;7.826262e-002
1.315270e+003;7.903223e-002
1.317198e+003;7.989007e-002
1.319127e+003;8.079131e-002
1.321055e+003;8.165731e-002
1.322984e+003;8.242872e-002
1.324912e+003;8.316600e-002
1.326841e+003;8.385722e-002
1.328770e+003;8.399031e-002
1.330698e+003;8.362743e-002
1.332627e+003;8.283215e-002
1.334555e+003;8.130016e-002
1.336484e+003;7.963152e-002
1.338412e+003;7.821500e-002
1.340341e+003;7.708130e-002
1.342269e+003;7.597553e-002
1.344198e+003;7.515697e-002
1.346126e+003;7.509044e-002
1.348055e+003;7.513298e-002
1.349984e+003;7.525858e-002
1.351912e+003;7.557251e-002
1.353841e+003;7.587162e-002
1.355769e+003;7.644028e-002
1.357698e+003;7.733870e-002
1.359626e+003;7.827595e-002
1.361555e+003;7.928435e-002
1.363483e+003;8.032519e-002
1.365412e+003;8.147668e-002
1.367341e+003;8.241178e-002
1.369269e+003;8.334721e-002
1.371198e+003;8.410998e-002
1.373126e+003;8.408315e-002
1.375055e+003;8.328656e-002
1.376983e+003;8.202484e-002
1.378912e+003;8.033663e-002
1.380840e+003;7.839797e-002
1.382769e+003;7.644415e-002
1.384698e+003;7.447827e-002
1.386626e+003;7.230677e-002
1.388555e+003;7.033739e-002
1.390483e+003;6.883495e-002
1.392412e+003;6.760777e-002
1.394340e+003;6.681750e-002
1.396269e+003;6.670143e-002
1.398197e+003;6.744330e-002
1.400126e+003;6.893972e-002
1.402054e+003;7.054124e-002
1.403983e+003;7.256017e-002
1.405911e+003;7.539230e-002
1.407840e+003;7.906157e-002
1.409769e+003;8.356927e-002
1.411697e+003;8.834250e-002
1.413626e+003;9.256533e-002
1.415554e+003;9.540226e-002
1.417483e+003;9.629970e-002
1.419411e+003;9.544353e-002
1.421340e+003;9.358945e-002
1.423268e+003;9.157234e-002
1.425197e+003;9.036855e-002
1.427125e+003;9.019784e-002
1.429054e+003;9.098025e-002
1.430983e+003;9.286194e-002
1.432911e+003;9.474535e-002
1.434840e+003;9.572316e-002
1.436768e+003;9.591924e-002
1.438697e+003;9.517601e-002
1.440625e+003;9.381813e-002
1.442554e+003;9.261552e-002
1.444482e+003;9.168535e-002
1.446411e+003;9.110010e-002
1.448340e+003;9.147342e-002
1.450268e+003;9.322577e-002
1.452197e+003;9.554439e-002
1.454125e+003;9.830280e-002
1.456054e+003;1.013632e-001
1.457982e+003;1.044990e-001
1.459911e+003;1.072031e-001
1.461839e+003;1.079350e-001
1.463768e+003;1.059142e-001
1.465697e+003;1.018686e-001
1.467625e+003;9.712441e-002
1.469554e+003;9.307028e-002
1.471482e+003;9.064161e-002
1.473411e+003;9.017015e-002
1.475339e+003;9.024771e-002
1.477268e+003;8.911332e-002
1.479196e+003;8.678512e-002
1.481125e+003;8.348460e-002
1.483053e+003;7.984563e-002
1.484982e+003;7.682086e-002
1.486911e+003;7.468816e-002
1.488839e+003;7.394630e-002
1.490768e+003;7.464547e-002
1.492696e+003;7.661831e-002
1.494625e+003;7.943808e-002
1.496553e+003;8.250304e-002
1.498482e+003;8.575509e-002
1.500410e+003;8.898292e-002
1.502339e+003;9.179241e-002
1.504267e+003;9.482905e-002
1.506196e+003;9.844093e-002
1.508125e+003;1.025129e-001
1.510053e+003;1.069660e-001
1.511982e+003;1.114886e-001
1.513910e+003;1.159088e-001
1.515839e+003;1.200944e-001
1.517767e+003;1.243551e-001
1.519696e+003;1.285342e-001
1.521624e+003;1.330512e-001
1.523553e+003;1.383447e-001
1.525481e+003;1.437618e-001
1.527410e+003;1.489505e-001
1.529339e+003;1.536820e-001
1.531267e+003;1.581762e-001
1.533196e+003;1.625119e-001
1.535124e+003;1.659984e-001
1.537053e+003;1.680248e-001
1.538981e+003;1.685467e-001
1.540910e+003;1.679341e-001
1.542838e+003;1.663465e-001
1.544767e+003;1.633528e-001
1.546695e+003;1.586689e-001
1.548624e+003;1.530119e-001
1.550553e+003;1.470999e-001
1.552481e+003;1.410663e-001
1.554410e+003;1.351106e-001
1.556338e+003;1.297435e-001
1.558267e+003;1.242712e-001
1.560195e+003;1.187676e-001
1.562124e+003;1.136300e-001
1.564052e+003;1.084539e-001
1.565981e+003;1.033050e-001
1.567910e+003;9.851792e-002
1.569838e+003;9.421770e-002
1.571767e+003;9.047255e-002
1.573695e+003;8.724097e-002
1.575624e+003;8.415096e-002
1.577552e+003;8.184045e-002
1.579481e+003;8.053497e-002
1.581409e+003;7.963506e-002
1.583338e+003;7.874548e-002
1.585266e+003;7.816431e-002
1.587195e+003;7.811595e-002
1.589124e+003;7.871779e-002
1.591052e+003;7.966121e-002
1.592981e+003;8.070882e-002
1.594909e+003;8.168426e-002
1.596838e+003;8.306128e-002
1.598766e+003;8.526322e-002
1.600695e+003;8.797498e-002
1.602623e+003;9.182815e-002
1.604552e+003;9.671552e-002
1.606480e+003;1.019839e-001
1.608409e+003;1.073628e-001
1.610338e+003;1.129725e-001
1.612266e+003;1.190011e-001
1.614195e+003;1.255784e-001
1.616123e+003;1.329885e-001
1.618052e+003;1.411614e-001
1.619980e+003;1.496920e-001
1.621909e+003;1.582447e-001
1.623837e+003;1.662520e-001
1.625766e+003;1.736200e-001
1.627694e+003;1.810404e-001
1.629623e+003;1.885145e-001
1.631552e+003;1.955082e-001
1.633480e+003;2.007269e-001
1.635409e+003;2.030928e-001
1.637337e+003;2.018066e-001
1.639266e+003;1.966977e-001
1.641194e+003;1.886242e-001
1.643123e+003;1.785504e-001
1.645051e+003;1.681012e-001
1.646980e+003;1.578775e-001
1.648909e+003;1.484109e-001
1.650837e+003;1.399586e-001
1.652766e+003;1.320553e-001
1.654694e+003;1.255955e-001
1.656623e+003;1.202288e-001
1.658551e+003;1.150489e-001
1.660480e+003;1.100594e-001
1.662408e+003;1.047654e-001
1.664337e+003;9.960283e-002
1.666266e+003;9.440338e-002
1.668194e+003;8.895071e-002
1.670123e+003;8.389182e-002
1.672051e+003;7.918569e-002
1.673980e+003;7.458338e-002
1.675908e+003;7.005028e-002
1.677837e+003;6.542981e-002
1.679765e+003;6.080261e-002
1.681694e+003;5.620684e-002
1.683622e+003;5.143835e-002
1.685551e+003;4.718371e-002
1.687479e+003;4.397218e-002
1.689408e+003;4.111287e-002
1.691337e+003;3.872458e-002
1.693265e+003;3.672429e-002
1.695194e+003;3.486233e-002
1.697122e+003;3.340545e-002
1.699051e+003;3.235337e-002
1.700979e+003;3.170888e-002
1.702908e+003;3.134660e-002
1.704836e+003;3.085690e-002
1.706765e+003;3.048265e-002
1.708693e+003;3.018621e-002
1.710622e+003;2.997106e-002
1.712551e+003;2.950269e-002
1.714479e+003;2.898853e-002
1.716408e+003;2.869481e-002
1.718336e+003;2.860799e-002
1.720265e+003;2.855902e-002
1.722193e+003;2.837108e-002
1.724122e+003;2.805456e-002
1.726050e+003;2.776430e-002
1.727979e+003;2.766633e-002
1.729908e+003;2.722383e-002
1.731836e+003;2.649821e-002
1.733765e+003;2.581396e-002
1.735693e+003;2.545073e-002
1.737622e+003;2.514981e-002
1.739550e+003;2.447027e-002
1.741479e+003;2.372485e-002
1.743407e+003;2.283550e-002
1.745336e+003;2.208569e-002
1.747265e+003;2.140964e-002
1.749193e+003;2.054652e-002
1.751122e+003;1.992312e-002
1.753050e+003;1.941407e-002
1.754979e+003;1.875776e-002
1.756907e+003;1.831304e-002
1.758836e+003;1.806010e-002
1.760764e+003;1.740807e-002
1.762693e+003;1.673440e-002
1.764621e+003;1.631246e-002
1.766550e+003;1.585292e-002
1.768479e+003;1.540134e-002
1.770407e+003;1.481037e-002
1.772336e+003;1.425986e-002
1.774264e+003;1.400991e-002
1.776193e+003;1.398445e-002
1.778121e+003;1.372043e-002
1.780050e+003;1.329054e-002
1.781978e+003;1.300055e-002
1.783907e+003;1.271902e-002
1.785835e+003;1.242477e-002
1.787764e+003;1.205373e-002
1.789693e+003;1.176580e-002
1.791621e+003;1.148945e-002
1.793550e+003;1.126360e-002
1.795478e+003;1.121324e-002
1.797407e+003;1.117713e-002
1.799335e+003;1.093279e-002
1.801264e+003;1.050779e-002
1.803192e+003;1.037868e-002
1.805121e+003;1.029222e-002
1.807049e+003;1.000989e-002
1.808978e+003;9.719713e-003
1.810907e+003;9.686745e-003
1.812835e+003;9.797281e-003
1.814764e+003;9.777930e-003
1.816692e+003;9.602727e-003
1.818621e+003;9.320878e-003
1.820549e+003;9.201868e-003
1.822478e+003;9.168635e-003
1.824406e+003;9.165116e-003
1.826335e+003;9.294678e-003
1.828264e+003;9.209517e-003
1.830192e+003;8.993171e-003
1.832121e+003;8.862211e-003
1.834049e+003;8.765675e-003
1.835978e+003;8.793535e-003
1.837906e+003;8.841821e-003
1.839835e+003;8.781159e-003
1.841763e+003;8.600479e-003
1.843692e+003;8.308066e-003
1.845620e+003;8.088287e-003
1.847549e+003;8.019124e-003
1.849478e+003;8.116239e-003
1.851406e+003;8.214927e-003
1.853335e+003;8.084574e-003
1.855263e+003;7.934956e-003
1.857192e+003;7.851176e-003
1.859120e+003;7.797872e-003
1.861049e+003;7.797366e-003
1.862977e+003;7.671589e-003
1.864906e+003;7.470334e-003
1.866834e+003;7.250675e-003
1.868763e+003;7.368882e-003
1.870692e+003;7.563414e-003
1.872620e+003;7.524642e-003
1.874549e+003;7.315334e-003
1.876477e+003;7.185351e-003
1.878406e+003;7.233290e-003
1.880334e+003;7.262130e-003
1.882263e+003;7.338114e-003
1.884191e+003;7.407336e-003
1.886120e+003;7.270789e-003
1.888048e+003;7.139506e-003
1.889977e+003;7.120071e-003
1.891906e+003;7.224935e-003
1.893834e+003;7.394833e-003
1.895763e+003;7.236423e-003
1.897691e+003;7.155539e-003
1.899620e+003;7.260041e-003
1.901548e+003;7.305057e-003
1.903477e+003;7.134251e-003
1.905405e+003;6.952739e-003
1.907334e+003;6.873288e-003
1.909262e+003;6.909746e-003
1.911191e+003;6.822191e-003
1.913120e+003;6.774163e-003
1.915048e+003;6.827644e-003
1.916977e+003;6.747812e-003
1.918905e+003;6.804285e-003
1.920834e+003;6.863560e-003
1.922762e+003;6.598452e-003
1.924691e+003;6.591422e-003
1.926619e+003;6.807583e-003
1.928548e+003;6.813440e-003
1.930477e+003;6.781499e-003
1.932405e+003;6.745792e-003
1.934334e+003;6.818489e-003
1.936262e+003;6.781399e-003
1.938191e+003;6.595862e-003
1.940119e+003;6.541669e-003
1.942048e+003;6.400955e-003
1.943976e+003;6.207447e-003
1.945905e+003;6.207548e-003
1.947833e+003;6.476822e-003
1.949762e+003;6.599562e-003
1.951691e+003;6.585669e-003
1.953619e+003;6.487887e-003
1.955548e+003;6.433776e-003
1.957476e+003;6.492966e-003
1.959405e+003;6.491251e-003
1.961333e+003;6.335793e-003
1.963262e+003;6.306914e-003
1.965190e+003;6.425671e-003
1.967119e+003;6.642996e-003
1.969047e+003;6.870729e-003
1.970976e+003;6.606325e-003
1.972905e+003;6.445882e-003
1.974833e+003;6.571910e-003
1.976762e+003;6.627351e-003
1.978690e+003;6.715641e-003
1.980619e+003;6.585635e-003
1.982547e+003;6.540291e-003
1.984476e+003;6.628596e-003
1.986404e+003;6.588629e-003
1.988333e+003;6.401762e-003
1.990261e+003;6.393524e-003
1.992190e+003;6.491116e-003
1.994119e+003;6.568849e-003
1.996047e+003;6.691379e-003
1.997976e+003;6.608108e-003
1.999904e+003;6.460847e-003
2.001833e+003;6.476082e-003
2.003761e+003;6.503359e-003
2.005690e+003;6.665269e-003
2.007618e+003;6.863189e-003
2.009547e+003;6.924862e-003
2.011476e+003;7.083360e-003
2.013404e+003;7.192190e-003
2.015333e+003;7.201151e-003
2.017261e+003;7.112829e-003
2.019190e+003;6.909106e-003
2.021118e+003;6.801357e-003
2.023047e+003;6.717694e-003
2.024975e+003;6.596838e-003
2.026904e+003;6.678122e-003
2.028833e+003;6.901060e-003
2.030761e+003;7.177300e-003
2.032690e+003;7.455603e-003
2.034618e+003;7.570528e-003
2.036547e+003;7.629031e-003
2.038475e+003;7.782152e-003
2.040404e+003;7.774258e-003
2.042332e+003;7.698131e-003
2.044261e+003;7.700627e-003
2.046189e+003;7.833902e-003
2.048118e+003;7.954090e-003
2.050047e+003;7.913360e-003
2.051975e+003;7.942077e-003
2.053904e+003;7.938668e-003
2.055832e+003;7.876750e-003
2.057761e+003;7.715804e-003
2.059689e+003;7.584555e-003
2.061618e+003;7.695568e-003
2.063546e+003;7.805867e-003
2.065475e+003;7.871014e-003
2.067404e+003;8.010349e-003
2.069332e+003;8.143551e-003
2.071260e+003;8.176604e-003
2.073189e+003;8.113234e-003
2.075118e+003;8.058616e-003
2.077046e+003;8.044473e-003
2.078975e+003;7.984598e-003
2.080903e+003;7.848646e-003
2.082832e+003;7.769401e-003
2.084760e+003;7.774731e-003
2.086689e+003;7.758978e-003
2.088617e+003;7.750714e-003
2.090546e+003;7.697592e-003
2.092475e+003;7.775405e-003
2.094403e+003;7.780263e-003
2.096332e+003;7.633617e-003
2.098260e+003;7.576732e-003
2.100189e+003;7.679143e-003
2.102117e+003;7.747105e-003
2.104046e+003;7.901550e-003
2.105974e+003;7.770751e-003
2.107903e+003;7.639282e-003
2.109832e+003;7.873409e-003
2.111760e+003;7.879517e-003
2.113688e+003;7.737458e-003
2.115617e+003;7.805327e-003
2.117546e+003;7.905228e-003
2.119474e+003;7.999313e-003
2.121403e+003;8.065603e-003
2.123331e+003;8.129371e-003
2.125260e+003;8.252917e-003
2.127188e+003;8.334410e-003
2.129117e+003;8.357244e-003
2.131045e+003;8.476834e-003
2.132974e+003;8.584662e-003
2.134903e+003;8.541913e-003
2.136831e+003;8.275172e-003
2.138760e+003;7.950648e-003
2.140688e+003;7.929253e-003
2.142617e+003;8.212463e-003
2.144545e+003;8.271930e-003
2.146474e+003;8.331168e-003
2.148402e+003;8.638975e-003
2.150331e+003;8.693024e-003
2.152260e+003;8.520658e-003
2.154188e+003;8.492849e-003
2.156117e+003;8.582127e-003
2.158045e+003;8.769630e-003
2.159974e+003;8.980926e-003
2.161902e+003;9.150734e-003
2.163831e+003;9.042935e-003
2.165759e+003;8.951600e-003
2.167688e+003;9.004436e-003
2.169616e+003;9.045506e-003
2.171545e+003;9.210804e-003
2.173474e+003;9.420147e-003
2.175402e+003;9.393601e-003
2.177331e+003;9.322233e-003
2.179259e+003;9.075007e-003
2.181188e+003;8.945477e-003
2.183116e+003;9.208130e-003
2.185045e+003;9.411207e-003
2.186973e+003;9.491124e-003
2.188902e+003;9.586637e-003
2.190831e+003;9.424312e-003
2.192759e+003;9.173915e-003
2.194688e+003;9.061068e-003
2.196616e+003;9.154896e-003
2.198545e+003;9.441717e-003
2.200473e+003;9.634977e-003
2.202402e+003;9.456548e-003
2.204330e+003;9.244344e-003
2.206259e+003;9.234664e-003
2.208188e+003;9.165759e-003
2.210116e+003;9.094395e-003
2.212044e+003;9.130735e-003
2.213973e+003;8.983531e-003
2.215902e+003;8.831845e-003
2.217830e+003;8.847096e-003
2.219759e+003;9.034138e-003
2.221687e+003;9.031838e-003
2.223616e+003;8.933606e-003
2.225544e+003;8.864410e-003
2.227473e+003;8.797728e-003
2.229401e+003;8.847536e-003
2.231330e+003;8.922207e-003
2.233259e+003;8.808007e-003
2.235187e+003;8.759758e-003
2.237116e+003;9.043544e-003
2.239044e+003;9.095240e-003
2.240973e+003;8.914767e-003
2.242901e+003;9.052745e-003
2.244830e+003;9.404943e-003
2.246758e+003;9.524484e-003
2.248687e+003;9.417471e-003
2.250615e+003;9.250267e-003
2.252544e+003;9.056535e-003
2.254473e+003;9.087425e-003
2.256401e+003;9.181664e-003
2.258330e+003;9.229892e-003
2.260258e+003;9.240418e-003
2.262187e+003;9.343696e-003
2.264115e+003;9.341191e-003
2.266044e+003;9.365330e-003
2.267972e+003;9.502910e-003
2.269901e+003;9.599475e-003
2.271830e+003;9.595207e-003
2.273758e+003;9.696199e-003
2.275687e+003;9.718595e-003
2.277615e+003;9.519742e-003
2.279544e+003;9.467114e-003
2.281472e+003;9.634673e-003
2.283401e+003;9.702059e-003
2.285329e+003;9.903878e-003
2.287258e+003;9.956626e-003
2.289187e+003;9.805041e-003
2.291115e+003;1.009816e-002
2.293043e+003;1.026420e-002
2.294972e+003;1.003461e-002
2.296901e+003;9.993650e-003
2.298829e+003;1.003786e-002
2.300758e+003;1.033188e-002
2.302686e+003;1.057687e-002
2.304615e+003;1.056703e-002
2.306543e+003;1.047330e-002
2.308472e+003;1.039398e-002
2.310400e+003;1.017559e-002
2.312329e+003;1.022573e-002
2.314258e+003;1.035832e-002
2.316186e+003;1.049540e-002
2.318115e+003;1.051359e-002
2.320043e+003;1.030213e-002
2.321972e+003;9.975918e-003
2.323900e+003;9.771287e-003
2.325829e+003;9.692776e-003
2.327757e+003;9.681019e-003
2.329686e+003;9.656016e-003
2.331615e+003;9.608181e-003
2.333543e+003;9.349790e-003
2.335472e+003;9.256868e-003
2.337400e+003;9.427935e-003
2.339329e+003;9.378364e-003
2.341257e+003;9.252670e-003
2.343186e+003;9.248542e-003
2.345114e+003;9.550462e-003
2.347043e+003;1.004441e-002
2.348971e+003;1.021596e-002
2.350900e+003;1.015415e-002
2.352829e+003;1.000341e-002
2.354757e+003;9.642600e-003
2.356686e+003;9.236458e-003
2.358614e+003;8.917134e-003
2.360543e+003;8.856024e-003
2.362471e+003;9.282119e-003
2.364400e+003;9.636977e-003
2.366328e+003;9.454720e-003
2.368257e+003;9.453840e-003
2.370186e+003;9.953100e-003
2.372114e+003;1.023638e-002
2.374042e+003;1.024815e-002
2.375971e+003;1.022617e-002
2.377900e+003;1.027505e-002
2.379828e+003;1.070044e-002
2.381757e+003;1.096290e-002
2.383685e+003;1.104612e-002
2.385614e+003;1.116540e-002
2.387542e+003;1.109378e-002
2.389471e+003;1.103827e-002
2.391399e+003;1.102220e-002
2.393328e+003;1.096929e-002
2.395257e+003;1.114324e-002
2.397185e+003;1.116996e-002
2.399114e+003;1.120481e-002
2.401042e+003;1.134093e-002
2.402971e+003;1.142552e-002
2.404899e+003;1.147135e-002
2.406828e+003;1.142420e-002
2.408756e+003;1.116156e-002
2.410685e+003;1.133199e-002
2.412614e+003;1.166769e-002
2.414542e+003;1.159490e-002
2.416471e+003;1.164513e-002
2.418399e+003;1.183249e-002
2.420328e+003;1.194511e-002
2.422256e+003;1.190557e-002
2.424185e+003;1.166854e-002
2.426113e+003;1.175531e-002
2.428042e+003;1.198397e-002
2.429970e+003;1.210399e-002
2.431899e+003;1.205377e-002
2.433828e+003;1.196837e-002
2.435756e+003;1.209186e-002
2.437685e+003;1.215066e-002
2.439613e+003;1.222345e-002
2.441542e+003;1.237435e-002
2.443470e+003;1.259774e-002
2.445399e+003;1.289449e-002
2.447327e+003;1.307151e-002
2.449256e+003;1.310593e-002
2.451185e+003;1.312430e-002
2.453113e+003;1.308148e-002
2.455042e+003;1.309780e-002
2.456970e+003;1.323831e-002
2.458899e+003;1.337845e-002
2.460827e+003;1.331613e-002
2.462756e+003;1.352627e-002
2.464684e+003;1.374375e-002
2.466613e+003;1.382642e-002
2.468542e+003;1.388246e-002
2.470470e+003;1.382153e-002
2.472398e+003;1.384380e-002
2.474327e+003;1.395434e-002
2.476256e+003;1.378363e-002
2.478184e+003;1.370354e-002
2.480113e+003;1.385591e-002
2.482041e+003;1.399403e-002
2.483970e+003;1.417916e-002
2.485898e+003;1.413394e-002
2.487827e+003;1.407962e-002
2.489755e+003;1.424058e-002
2.491684e+003;1.412066e-002
2.493613e+003;1.394021e-002
2.495541e+003;1.373179e-002
2.497470e+003;1.373821e-002
2.499398e+003;1.392262e-002
2.501327e+003;1.390349e-002
2.503255e+003;1.407503e-002
2.505184e+003;1.436070e-002
2.507112e+003;1.457419e-002
2.509041e+003;1.476324e-002
2.510969e+003;1.468478e-002
2.512898e+003;1.461521e-002
2.514827e+003;1.481037e-002
2.516755e+003;1.506294e-002
2.518684e+003;1.512816e-002
2.520612e+003;1.510692e-002
2.522541e+003;1.540371e-002
2.524469e+003;1.562702e-002
2.526398e+003;1.565525e-002
2.528326e+003;1.560329e-002
2.530255e+003;1.579292e-002
2.532184e+003;1.606353e-002
2.534112e+003;1.621140e-002
2.536041e+003;1.631707e-002
2.537969e+003;1.633826e-002
2.539898e+003;1.654233e-002
2.541826e+003;1.666299e-002
2.543755e+003;1.678757e-002
2.545683e+003;1.717957e-002
2.547612e+003;1.716220e-002
2.549541e+003;1.709750e-002
2.551469e+003;1.721398e-002
2.553397e+003;1.708841e-002
2.555326e+003;1.695829e-002
2.557255e+003;1.706208e-002
2.559183e+003;1.718609e-002
2.561112e+003;1.725273e-002
2.563040e+003;1.722918e-002
2.564969e+003;1.717237e-002
2.566897e+003;1.726038e-002
2.568826e+003;1.741842e-002
2.570754e+003;1.735196e-002
2.572683e+003;1.736265e-002
2.574612e+003;1.764432e-002
2.576540e+003;1.780305e-002
2.578469e+003;1.785031e-002
2.580397e+003;1.819901e-002
2.582326e+003;1.848485e-002
2.584254e+003;1.839278e-002
2.586183e+003;1.836620e-002
2.588111e+003;1.851524e-002
2.590040e+003;1.852554e-002
2.591969e+003;1.832158e-002
2.593897e+003;1.827959e-002
2.595826e+003;1.846033e-002
2.597754e+003;1.842746e-002
2.599683e+003;1.827907e-002
2.601611e+003;1.863264e-002
2.603540e+003;1.914725e-002
2.605468e+003;1.913018e-002
2.607397e+003;1.885073e-002
2.609325e+003;1.883028e-002
2.611254e+003;1.916297e-002
2.613183e+003;1.924450e-002
2.615111e+003;1.924280e-002
2.617040e+003;1.937336e-002
2.618968e+003;1.956652e-002
2.620897e+003;1.964122e-002
2.622825e+003;1.974044e-002
2.624754e+003;1.976590e-002
2.626682e+003;1.968660e-002
2.628611e+003;1.984844e-002
2.630540e+003;1.993585e-002
2.632468e+003;2.018649e-002
2.634396e+003;2.040171e-002
2.636325e+003;2.030869e-002
2.638254e+003;2.040709e-002
2.640182e+003;2.048430e-002
2.642111e+003;2.049354e-002
2.644039e+003;2.030379e-002
2.645968e+003;2.000919e-002
2.647896e+003;2.023047e-002
2.649825e+003;2.044231e-002
2.651753e+003;2.029643e-002
2.653682e+003;2.043592e-002
2.655611e+003;2.072768e-002
2.657539e+003;2.063177e-002
2.659468e+003;2.057764e-002
2.661396e+003;2.079011e-002
2.663325e+003;2.109769e-002
2.665253e+003;2.108886e-002
2.667182e+003;2.093525e-002
2.669110e+003;2.115471e-002
2.671039e+003;2.160001e-002
2.672968e+003;2.181308e-002
2.674896e+003;2.179399e-002
2.676825e+003;2.177072e-002
2.678753e+003;2.191626e-002
2.680682e+003;2.197487e-002
2.682610e+003;2.213736e-002
2.684539e+003;2.252961e-002
2.686467e+003;2.260343e-002
2.688396e+003;2.271224e-002
2.690324e+003;2.299855e-002
2.692253e+003;2.334434e-002
2.694182e+003;2.375232e-002
2.696110e+003;2.384013e-002
2.698039e+003;2.364598e-002
2.699967e+003;2.366130e-002
2.701896e+003;2.399824e-002
2.703824e+003;2.449352e-002
2.705753e+003;2.471832e-002
2.707681e+003;2.455273e-002
2.709610e+003;2.442891e-002
2.711539e+003;2.480321e-002
2.713467e+003;2.523798e-002
2.715396e+003;2.544483e-002
2.717324e+003;2.589558e-002
2.719253e+003;2.632708e-002
2.721181e+003;2.649578e-002
2.723110e+003;2.660797e-002
2.725038e+003;2.676423e-002
2.726967e+003;2.707720e-002
2.728896e+003;2.755320e-002
2.730824e+003;2.792543e-002
2.732752e+003;2.824419e-002
2.734681e+003;2.845209e-002
2.736610e+003;2.855236e-002
2.738538e+003;2.900068e-002
2.740467e+003;2.914654e-002
2.742395e+003;2.917694e-002
2.744324e+003;2.929744e-002
2.746252e+003;2.923124e-002
2.748181e+003;2.953702e-002
2.750109e+003;2.998618e-002
2.752038e+003;3.015332e-002
2.753967e+003;3.021445e-002
2.755895e+003;3.039696e-002
2.757824e+003;3.080632e-002
2.759752e+003;3.074351e-002
2.761681e+003;3.067555e-002
2.763609e+003;3.094055e-002
2.765538e+003;3.109193e-002
2.767466e+003;3.114671e-002
2.769395e+003;3.140755e-002
2.771323e+003;3.164016e-002
2.773252e+003;3.185162e-002
2.775181e+003;3.206372e-002
2.777109e+003;3.236933e-002
2.779038e+003;3.285284e-002
2.780966e+003;3.323837e-002
2.782895e+003;3.366348e-002
2.784823e+003;3.385153e-002
2.786752e+003;3.385684e-002
2.788680e+003;3.437851e-002
2.790609e+003;3.517179e-002
2.792538e+003;3.541211e-002
2.794466e+003;3.538026e-002
2.796395e+003;3.578805e-002
2.798323e+003;3.623234e-002
2.800252e+003;3.646168e-002
2.802180e+003;3.687266e-002
2.804109e+003;3.728625e-002
2.806037e+003;3.772684e-002
2.807966e+003;3.846366e-002
2.809895e+003;3.926675e-002
2.811823e+003;3.982032e-002
2.813751e+003;4.055656e-002
2.815680e+003;4.141347e-002
2.817609e+003;4.208367e-002
2.819537e+003;4.268343e-002
2.821466e+003;4.313714e-002
2.823394e+003;4.351269e-002
2.825323e+003;4.373565e-002
2.827251e+003;4.436177e-002
2.829180e+003;4.542388e-002
2.831108e+003;4.649612e-002
2.833037e+003;4.764463e-002
2.834966e+003;4.891839e-002
2.836894e+003;5.051433e-002
2.838823e+003;5.257227e-002
2.840751e+003;5.508338e-002
2.842680e+003;5.770122e-002
2.844608e+003;6.049754e-002
2.846537e+003;6.389268e-002
2.848465e+003;6.743076e-002
2.850394e+003;7.065932e-002
2.852323e+003;7.306456e-002
2.854251e+003;7.466943e-002
2.856180e+003;7.657337e-002
2.858108e+003;7.824305e-002
2.860037e+003;7.891221e-002
2.861965e+003;7.884300e-002
2.863894e+003;7.816407e-002
2.865822e+003;7.749693e-002
2.867751e+003;7.666140e-002
2.869679e+003;7.512037e-002
2.871608e+003;7.349885e-002
2.873536e+003;7.179047e-002
2.875465e+003;6.988306e-002
2.877394e+003;6.809182e-002
2.879322e+003;6.654853e-002
2.881251e+003;6.567661e-002
2.883179e+003;6.520756e-002
2.885108e+003;6.496134e-002
2.887036e+003;6.524029e-002
2.888965e+003;6.611697e-002
2.890893e+003;6.706110e-002
2.892822e+003;6.819013e-002
2.894750e+003;6.957045e-002
2.896679e+003;7.120928e-002
2.898608e+003;7.234395e-002
2.900536e+003;7.319270e-002
2.902465e+003;7.405255e-002
2.904393e+003;7.486111e-002
2.906322e+003;7.577567e-002
2.908250e+003;7.713630e-002
2.910179e+003;7.866552e-002
2.912107e+003;8.018779e-002
2.914036e+003;8.183037e-002
2.915965e+003;8.378010e-002
2.917893e+003;8.605925e-002
2.919822e+003;8.822373e-002
2.921750e+003;9.056009e-002
2.923679e+003;9.279186e-002
2.925607e+003;9.449353e-002
2.927536e+003;9.627224e-002
2.929464e+003;9.761696e-002
2.931393e+003;9.831560e-002
2.933322e+003;9.897461e-002
2.935250e+003;9.922732e-002
2.937178e+003;9.823881e-002
2.939107e+003;9.648436e-002
2.941036e+003;9.449197e-002
2.942964e+003;9.199757e-002
2.944893e+003;8.917195e-002
2.946821e+003;8.616316e-002
2.948750e+003;8.276708e-002
2.950678e+003;7.873519e-002
2.952607e+003;7.456536e-002
2.954535e+003;7.061214e-002
2.956464e+003;6.697547e-002
2.958393e+003;6.388055e-002
2.960321e+003;6.101442e-002
2.962250e+003;5.854259e-002
2.964178e+003;5.666324e-002
2.966107e+003;5.500229e-002
2.968035e+003;5.326876e-002
2.969964e+003;5.135861e-002
2.971892e+003;4.950287e-002
2.973821e+003;4.808109e-002
2.975750e+003;4.698042e-002
2.977678e+003;4.583982e-002
2.979607e+003;4.447959e-002
2.981535e+003;4.309448e-002
2.983464e+003;4.187805e-002
2.985392e+003;4.086340e-002
2.987321e+003;4.012072e-002
2.989249e+003;3.938196e-002
2.991178e+003;3.847919e-002
2.993106e+003;3.827251e-002
2.995035e+003;3.814415e-002
2.996964e+003;3.747699e-002
2.998892e+003;3.718827e-002
3.000821e+003;3.723044e-002
3.002749e+003;3.691951e-002
3.004678e+003;3.665095e-002
3.006606e+003;3.700628e-002
3.008535e+003;3.721217e-002
3.010463e+003;3.699848e-002
3.012392e+003;3.702021e-002
3.014321e+003;3.704319e-002
3.016249e+003;3.689935e-002
3.018177e+003;3.730239e-002
3.020106e+003;3.779176e-002
3.022035e+003;3.795958e-002
3.023963e+003;3.839484e-002
3.025892e+003;3.876935e-002
3.027820e+003;3.942800e-002
3.029749e+003;4.002995e-002
3.031677e+003;4.037682e-002
3.033606e+003;4.088215e-002
3.035534e+003;4.144395e-002
3.037463e+003;4.201833e-002
3.039392e+003;4.271626e-002
3.041320e+003;4.336793e-002
3.043249e+003;4.374309e-002
3.045177e+003;4.427437e-002
3.047106e+003;4.507389e-002
3.049034e+003;4.597800e-002
3.050963e+003;4.664377e-002
3.052891e+003;4.697821e-002
3.054820e+003;4.742157e-002
3.056749e+003;4.780465e-002
3.058677e+003;4.839085e-002
3.060606e+003;4.895299e-002
3.062534e+003;4.925225e-002
3.064463e+003;4.922204e-002
3.066391e+003;4.906015e-002
3.068320e+003;4.910026e-002
3.070248e+003;4.943670e-002
3.072177e+003;4.967357e-002
3.074105e+003;4.956994e-002
3.076034e+003;4.957937e-002
3.077963e+003;4.976742e-002
3.079891e+003;4.976675e-002
3.081820e+003;4.977363e-002
3.083748e+003;4.965923e-002
3.085677e+003;4.933992e-002
3.087605e+003;4.904301e-002
3.089534e+003;4.863731e-002
3.091462e+003;4.806110e-002
3.093391e+003;4.752307e-002
3.095320e+003;4.729383e-002
3.097248e+003;4.721710e-002
3.099177e+003;4.709027e-002
3.101105e+003;4.649295e-002
3.103034e+003;4.582248e-002
3.104962e+003;4.522818e-002
3.106891e+003;4.465802e-002
3.108819e+003;4.415588e-002
3.110748e+003;4.373983e-002
3.112677e+003;4.329003e-002
3.114605e+003;4.329706e-002
3.116533e+003;4.334120e-002
3.118462e+003;4.311662e-002
3.120391e+003;4.252320e-002
3.122319e+003;4.179132e-002
3.124248e+003;4.103999e-002
3.126176e+003;4.075996e-002
3.128105e+003;4.064832e-002
3.130033e+003;4.059581e-002
3.131962e+003;4.058232e-002
3.133890e+003;4.055274e-002
3.135819e+003;4.041089e-002
3.137748e+003;4.020370e-002
3.139676e+003;4.045162e-002
3.141605e+003;4.060917e-002
3.143533e+003;4.059156e-002
3.145462e+003;4.061542e-002
3.147390e+003;4.072335e-002
3.149319e+003;4.100664e-002
3.151247e+003;4.128097e-002
3.153176e+003;4.164929e-002
3.155104e+003;4.204863e-002
3.157033e+003;4.239568e-002
3.158962e+003;4.238940e-002
3.160890e+003;4.237132e-002
3.162819e+003;4.283389e-002
3.164747e+003;4.346757e-002
3.166676e+003;4.394329e-002
3.168604e+003;4.434111e-002
3.170533e+003;4.479789e-002
3.172461e+003;4.540759e-002
3.174390e+003;4.608922e-002
3.176319e+003;4.641411e-002
3.178247e+003;4.664794e-002
3.180176e+003;4.734360e-002
3.182104e+003;4.797428e-002
3.184033e+003;4.827404e-002
3.185961e+003;4.870751e-002
3.187890e+003;4.897124e-002
3.189818e+003;4.891461e-002
3.191747e+003;4.900726e-002
3.193676e+003;4.935421e-002
3.195604e+003;4.980577e-002
3.197532e+003;5.025821e-002
3.199461e+003;5.050506e-002
3.201390e+003;5.066837e-002
3.203318e+003;5.113379e-002
3.205247e+003;5.142641e-002
3.207175e+003;5.149266e-002
3.209104e+003;5.164079e-002
3.211032e+003;5.201305e-002
3.212961e+003;5.255806e-002
3.214889e+003;5.279997e-002
3.216818e+003;5.334492e-002
3.218747e+003;5.407902e-002
3.220675e+003;5.443955e-002
3.222604e+003;5.477098e-002
3.224532e+003;5.531070e-002
3.226461e+003;5.597459e-002
3.228389e+003;5.650517e-002
3.230318e+003;5.698486e-002
3.232246e+003;5.747014e-002
3.234175e+003;5.802095e-002
3.236104e+003;5.871525e-002
3.238032e+003;5.981104e-002
3.239961e+003;6.104996e-002
3.241889e+003;6.218095e-002
3.243818e+003;6.336884e-002
3.245746e+003;6.430325e-002
3.247675e+003;6.529798e-002
3.249603e+003;6.638747e-002
3.251532e+003;6.718335e-002
3.253460e+003;6.815772e-002
3.255389e+003;6.955750e-002
3.257318e+003;7.102904e-002
3.259246e+003;7.230003e-002
3.261175e+003;7.354387e-002
3.263103e+003;7.436343e-002
3.265032e+003;7.575673e-002
3.266960e+003;7.740644e-002
3.268889e+003;7.865667e-002
3.270817e+003;7.999749e-002
3.272746e+003;8.098044e-002
3.274675e+003;8.174729e-002
3.276603e+003;8.269364e-002
3.278531e+003;8.397781e-002
3.280460e+003;8.533439e-002
3.282389e+003;8.629158e-002
3.284317e+003;8.717726e-002
3.286246e+003;8.832297e-002
3.288174e+003;8.961520e-002
3.290103e+003;9.040269e-002
3.292031e+003;9.060663e-002
3.293960e+003;9.066913e-002
3.295888e+003;9.047630e-002
3.297817e+003;8.982199e-002
3.299746e+003;8.887675e-002
3.301674e+003;8.789867e-002
3.303603e+003;8.667256e-002
3.305531e+003;8.481777e-002
3.307460e+003;8.313639e-002
3.309388e+003;8.137333e-002
3.311317e+003;7.922350e-002
3.313245e+003;7.738727e-002
3.315174e+003;7.617485e-002
3.317103e+003;7.468060e-002
3.319031e+003;7.270873e-002
3.320960e+003;7.106698e-002
3.322888e+003;6.965816e-002
3.324817e+003;6.818885e-002
3.326745e+003;6.664089e-002
3.328674e+003;6.520456e-002
3.330602e+003;6.373183e-002
3.332531e+003;6.240564e-002
3.334459e+003;6.091411e-002
3.336388e+003;5.966193e-002
3.338317e+003;5.874924e-002
3.340245e+003;5.772650e-002
3.342174e+003;5.672203e-002
3.344102e+003;5.588618e-002
3.346031e+003;5.478001e-002
3.347959e+003;5.330034e-002
3.349888e+003;5.180958e-002
3.351816e+003;5.088070e-002
3.353745e+003;5.058114e-002
3.355674e+003;5.016024e-002
3.357602e+003;4.950628e-002
3.359531e+003;4.887660e-002
3.361459e+003;4.828619e-002
3.363388e+003;4.745606e-002
3.365316e+003;4.644457e-002
3.367245e+003;4.596529e-002
3.369173e+003;4.542951e-002
3.371102e+003;4.473364e-002
3.373031e+003;4.423453e-002
3.374959e+003;4.389853e-002
3.376887e+003;4.359987e-002
3.378816e+003;4.307534e-002
3.380745e+003;4.297569e-002
3.382673e+003;4.287887e-002
3.384602e+003;4.187013e-002
3.386530e+003;4.074835e-002
3.388459e+003;4.030726e-002
3.390387e+003;3.997825e-002
3.392316e+003;3.974458e-002
3.394244e+003;3.953690e-002
3.396173e+003;3.940177e-002
3.398102e+003;3.938374e-002
3.400030e+003;3.902168e-002
3.401959e+003;3.854520e-002
3.403887e+003;3.839405e-002
3.405816e+003;3.831098e-002
3.407744e+003;3.786738e-002
3.409673e+003;3.779439e-002
3.411601e+003;3.786510e-002
3.413530e+003;3.716131e-002
3.415458e+003;3.666674e-002
3.417387e+003;3.670713e-002
3.419316e+003;3.685116e-002
3.421244e+003;3.670608e-002
3.423173e+003;3.627690e-002
3.425101e+003;3.600420e-002
3.427030e+003;3.585537e-002
3.428958e+003;3.571480e-002
3.430887e+003;3.544511e-002
3.432815e+003;3.493942e-002
3.434744e+003;3.468091e-002
3.436673e+003;3.468838e-002
3.438601e+003;3.462016e-002
3.440530e+003;3.409597e-002
3.442458e+003;3.362514e-002
3.444387e+003;3.382399e-002
3.446315e+003;3.395381e-002
3.448244e+003;3.360584e-002
3.450172e+003;3.317849e-002
3.452101e+003;3.269555e-002
3.454030e+003;3.226685e-002
3.455958e+003;3.207324e-002
3.457886e+003;3.174043e-002
3.459815e+003;3.150829e-002
3.461744e+003;3.119171e-002
3.463672e+003;3.094069e-002
3.465601e+003;3.054823e-002
3.467529e+003;3.025477e-002
3.469458e+003;3.040421e-002
3.471386e+003;3.045695e-002
3.473315e+003;3.015453e-002
3.475243e+003;2.954550e-002
3.477172e+003;2.943631e-002
3.479101e+003;2.950227e-002
3.481029e+003;2.929248e-002
3.482958e+003;2.884584e-002
3.484886e+003;2.859925e-002
3.486815e+003;2.857391e-002
3.488743e+003;2.835471e-002
3.490672e+003;2.844855e-002
3.492600e+003;2.854168e-002
3.494529e+003;2.827266e-002
3.496458e+003;2.822860e-002
3.498386e+003;2.795981e-002
3.500315e+003;2.737699e-002
3.502243e+003;2.714915e-002
3.504172e+003;2.708256e-002
3.506100e+003;2.730518e-002
3.508029e+003;2.716908e-002
3.509957e+003;2.638063e-002
3.511886e+003;2.640183e-002
3.513814e+003;2.689517e-002
3.515743e+003;2.682946e-002
3.517672e+003;2.614215e-002
3.519600e+003;2.578249e-002
3.521529e+003;2.574905e-002
3.523457e+003;2.527872e-002
3.525386e+003;2.492527e-002
3.527314e+003;2.494149e-002
3.529243e+003;2.509708e-002
3.531171e+003;2.514388e-002
3.533100e+003;2.457874e-002
3.535029e+003;2.392373e-002
3.536957e+003;2.380734e-002
3.538885e+003;2.341148e-002
3.540814e+003;2.286274e-002
3.542743e+003;2.244332e-002
3.544671e+003;2.204766e-002
3.546600e+003;2.177981e-002
3.548528e+003;2.166193e-002
3.550457e+003;2.155394e-002
3.552385e+003;2.141660e-002
3.554314e+003;2.122331e-002
3.556242e+003;2.079828e-002
3.558171e+003;2.014175e-002
3.560100e+003;1.964711e-002
3.562028e+003;1.921904e-002
3.563957e+003;1.888382e-002
3.565885e+003;1.895996e-002
3.567814e+003;1.915379e-002
3.569742e+003;1.879060e-002
3.571671e+003;1.811495e-002
3.573599e+003;1.759704e-002
3.575528e+003;1.730910e-002
3.577457e+003;1.690551e-002
3.579385e+003;1.659079e-002
3.581314e+003;1.637545e-002
3.583242e+003;1.623062e-002
3.585171e+003;1.610444e-002
3.587099e+003;1.581360e-002
3.589028e+003;1.562008e-002
3.590956e+003;1.533516e-002
3.592885e+003;1.484065e-002
3.594813e+003;1.477133e-002
3.596742e+003;1.496560e-002
3.598671e+003;1.470222e-002
3.600599e+003;1.422329e-002
3.602528e+003;1.375826e-002
3.604456e+003;1.341099e-002
3.606385e+003;1.308335e-002
3.608313e+003;1.296768e-002
3.610242e+003;1.281606e-002
3.612170e+003;1.245485e-002
3.614099e+003;1.245567e-002
3.616028e+003;1.200809e-002
3.617956e+003;1.141784e-002
3.619885e+003;1.138022e-002
3.621813e+003;1.127992e-002
3.623742e+003;1.119753e-002
3.625670e+003;1.110663e-002
3.627599e+003;1.077985e-002
3.629527e+003;1.051706e-002
3.631456e+003;1.040970e-002
3.633385e+003;1.049985e-002
3.635313e+003;1.027417e-002
3.637241e+003;9.673905e-003
3.639170e+003;9.584808e-003
3.641099e+003;9.669873e-003
3.643027e+003;9.235646e-003
3.644956e+003;9.018001e-003
3.646884e+003;8.918826e-003
3.648813e+003;8.458116e-003
3.650741e+003;7.917814e-003
3.652670e+003;7.945181e-003
3.654598e+003;8.078733e-003
3.656527e+003;7.989728e-003
3.658456e+003;7.836432e-003
3.660384e+003;7.705517e-003
3.662313e+003;7.308865e-003
3.664241e+003;7.406056e-003
3.666170e+003;7.804417e-003
3.668098e+003;7.606269e-003
3.670027e+003;7.279078e-003
3.671955e+003;7.279550e-003
3.673884e+003;7.081440e-003
3.675813e+003;6.952133e-003
3.677741e+003;7.081844e-003
3.679669e+003;6.844978e-003
3.681598e+003;6.810882e-003
3.683527e+003;6.726847e-003
3.685455e+003;6.539247e-003
3.687384e+003;6.506319e-003
3.689312e+003;6.278641e-003
3.691241e+003;5.991214e-003
3.693169e+003;5.953960e-003
3.695098e+003;5.717842e-003
3.697026e+003;5.889435e-003
3.698955e+003;5.870493e-003
3.700884e+003;5.437664e-003
3.702812e+003;5.470009e-003
3.704741e+003;5.342623e-003
3.706669e+003;5.215476e-003
3.708598e+003;5.373150e-003
3.710526e+003;5.312434e-003
3.712455e+003;5.173359e-003
3.714383e+003;5.258100e-003
3.716312e+003;5.192506e-003
3.718240e+003;5.336653e-003
3.720169e+003;5.442798e-003
3.722098e+003;5.308242e-003
3.724026e+003;5.447461e-003
3.725955e+003;5.630058e-003
3.727883e+003;5.296905e-003
3.729812e+003;5.077303e-003
3.731740e+003;5.047602e-003
3.733669e+003;5.130072e-003
3.735597e+003;5.204276e-003
3.737526e+003;4.931902e-003
3.739455e+003;4.804673e-003
3.741383e+003;4.962332e-003
3.743312e+003;4.575810e-003
3.745240e+003;4.768090e-003
3.747169e+003;5.167994e-003
3.749097e+003;5.044149e-003
3.751026e+003;5.043076e-003
3.752954e+003;5.294490e-003
3.754883e+003;5.654159e-003
3.756812e+003;5.545277e-003
3.758740e+003;5.268732e-003
3.760668e+003;5.142511e-003
3.762597e+003;4.961226e-003
3.764526e+003;4.922719e-003
3.766454e+003;4.635250e-003
3.768383e+003;4.473124e-003
3.770311e+003;4.780887e-003
3.772240e+003;5.326254e-003
3.774168e+003;5.218326e-003
3.776097e+003;5.050016e-003
3.778025e+003;5.422331e-003
3.779954e+003;5.848395e-003
3.781883e+003;6.084011e-003
3.783811e+003;5.973477e-003
3.785740e+003;5.690078e-003
3.787668e+003;5.460144e-003
3.789597e+003;4.903920e-003
3.791525e+003;4.409522e-003
3.793454e+003;4.851881e-003
3.795382e+003;5.493598e-003
3.797311e+003;5.522021e-003
3.799240e+003;5.328266e-003
3.801168e+003;5.387877e-003
3.803097e+003;5.385294e-003
3.805025e+003;5.216784e-003
3.806954e+003;4.995781e-003
3.808882e+003;5.191701e-003
3.810811e+003;5.315084e-003
3.812739e+003;5.264807e-003
3.814668e+003;5.238179e-003
3.816596e+003;5.472995e-003
3.818525e+003;5.645129e-003
3.820454e+003;5.400893e-003
3.822382e+003;5.436222e-003
3.824311e+003;5.780293e-003
3.826239e+003;6.066842e-003
3.828168e+003;6.002972e-003
3.830096e+003;5.796075e-003
3.832025e+003;5.667083e-003
3.833953e+003;5.462762e-003
3.835882e+003;5.249649e-003
3.837811e+003;5.158170e-003
3.839739e+003;5.240762e-003
3.841667e+003;5.499269e-003
3.843596e+003;5.817734e-003
3.845525e+003;5.785397e-003
3.847453e+003;5.879964e-003
3.849382e+003;6.197162e-003
3.851310e+003;6.014697e-003
3.853239e+003;5.594378e-003
3.855167e+003;5.406127e-003
3.857096e+003;5.568736e-003
3.859024e+003;5.741177e-003
3.860953e+003;5.754506e-003
3.862882e+003;5.815148e-003
3.864810e+003;5.813335e-003
3.866739e+003;6.034183e-003
3.868667e+003;6.243816e-003
3.870596e+003;6.168359e-003
3.872524e+003;5.680645e-003
3.874453e+003;5.357383e-003
3.876381e+003;5.675207e-003
3.878310e+003;6.138450e-003
3.880239e+003;6.233900e-003
3.882167e+003;5.847790e-003
3.884096e+003;5.740136e-003
3.886024e+003;6.163419e-003
3.887953e+003;6.266237e-003
3.889881e+003;6.329305e-003
3.891810e+003;6.340937e-003
3.893738e+003;6.066069e-003
3.895667e+003;6.214472e-003
3.897595e+003;6.563501e-003
3.899524e+003;6.298610e-003
3.901453e+003;6.368743e-003
3.903381e+003;6.339929e-003
3.905310e+003;6.007205e-003
3.907238e+003;6.094428e-003
3.909167e+003;6.349981e-003
3.911095e+003;6.192188e-003
3.913024e+003;6.102022e-003
3.914952e+003;6.415348e-003
3.916881e+003;6.642054e-003
3.918810e+003;6.690707e-003
3.920738e+003;6.596938e-003
3.922667e+003;6.902811e-003
3.924595e+003;7.018196e-003
3.926524e+003;6.880795e-003
3.928452e+003;7.005636e-003
3.930381e+003;7.247204e-003
3.932309e+003;7.328173e-003
3.934238e+003;7.511427e-003
3.936167e+003;7.535970e-003
3.938095e+003;7.350279e-003
3.940023e+003;7.726192e-003
3.941952e+003;8.152835e-003
3.943881e+003;8.087983e-003
3.945809e+003;8.295874e-003
3.947738e+003;7.884511e-003
3.949666e+003;7.528553e-003
3.951595e+003;7.739178e-003
3.953523e+003;7.754930e-003
3.955452e+003;7.799154e-003
3.957380e+003;8.157967e-003
3.959309e+003;8.295806e-003
3.961238e+003;8.446055e-003
3.963166e+003;8.327994e-003
3.965095e+003;8.366161e-003
3.967023e+003;8.532925e-003
3.968952e+003;8.381261e-003
3.970880e+003;8.761246e-003
3.972809e+003;9.039551e-003
3.974737e+003;8.859236e-003
3.976666e+003;8.644484e-003
3.978594e+003;8.378829e-003
3.980523e+003;8.430176e-003
3.982452e+003;8.553436e-003
3.984380e+003;8.133828e-003
3.986309e+003;8.365554e-003
3.988237e+003;8.821937e-003
3.990166e+003;8.831710e-003
3.992094e+003;8.916999e-003
3.994023e+003;8.854805e-003
3.995951e+003;8.820179e-003
3.997880e+003;9.042697e-003
3.999809e+003;9.007988e-003
4.001737e+003;0.000000e+000
