3.992094e+002;0.000000e+000
4.011380e+002;0.000000e+000
4.030665e+002;0.000000e+000
4.049951e+002;0.000000e+000
4.069236e+002;0.000000e+000
4.088522e+002;0.000000e+000
4.107807e+002;0.000000e+000
4.127093e+002;0.000000e+000
4.146378e+002;0.000000e+000
4.165664e+002;0.000000e+000
4.184949e+002;0.000000e+000
4.204235e+002;0.000000e+000
4.223520e+002;0.000000e+000
4.242806e+002;0.000000e+000
4.262091e+002;0.000000e+000
4.281377e+002;0.000000e+000
4.300662e+002;0.000000e+000
4.319948e+002;0.000000e+000
4.339233e+002;0.000000e+000
4.358519e+002;0.000000e+000
4.377804e+002;0.000000e+000
4.397090e+002;0.000000e+000
4.416375e+002;0.000000e+000
4.435660e+002;0.000000e+000
4.454946e+002;0.000000e+000
4.474232e+002;0.000000e+000
4.493517e+002;0.000000e+000
4.512802e+002;0.000000e+000
4.532088e+002;0.000000e+000
4.551373e+002;0.000000e+000
4.570659e+002;0.000000e+000
4.589944e+002;0.000000e+000
4.609230e+002;0.000000e+000
4.628515e+002;0.000000e+000
4.647801e+002;0.000000e+000
4.667086e+002;0.000000e+000
4.686372e+002;0.000000e+000
4.705657e+002;0.000000e+000
4.724943e+002;0.000000e+000
4.744228e+002;0.000000e+000
4.763513e+002;0.000000e+000
4.782799e+002;0.000000e+000
4.802085e+002;0.000000e+000
4.821370e+002;0.000000e+000
4.840656e+002;0.000000e+000
4.859941e+002;0.000000e+000
4.879226e+002;0.000000e+000
4.898512e+002;0.000000e+000
4.917798e+002;0.000000e+000
4.937083e+002;0.000000e+000
4.956368e+002;0.000000e+000
4.975654e+002;0.000000e+000
4.994939e+002;0.000000e+000
5.014225e+002;0.000000e+000
5.033510e+002;0.000000e+000
5.052796e+002;0.000000e+000
5.072081e+002;0.000000e+000
5.091367e+002;0.000000e+000
5.110652e+002;0.000000e+000
5.129938e+002;0.000000e+000
5.149223e+002;0.000000e+000
5.168509e+002;0.000000e+000
5.187794e+002;0.000000e+000
5.207079e+002;0.000000e+000
5.226365e+002;0.000000e+000
5.245651e+002;0.000000e+000
5.264936e+002;0.000000e+000
5.284222e+002;0.000000e+000
5.303507e+002;0.000000e+000
5.322792e+002;0.000000e+000
5.342078e+002;0.000000e+000
5.361364e+002;0.000000e+000
5.380649e+002;0.000000e+000
5.399935e+002;0.000000e+000
5.419220e+002;0.000000e+000
5.438505e+002;0.000000e+000
5.457791e+002;0.000000e+000
5.477076e+002;0.000000e+000
5.496362e+002;0.000000e+000
5.515648e+002;0.000000e+000
5.534933e+002;0.000000e+000
5.554218e+002;0.000000e+000
5.573504e+002;0.000000e+000
5.592789e+002;0.000000e+000
5.612075e+002;0.000000e+000
5.631360e+002;0.000000e+000
5.650646e+002;0.000000e+000
5.669931e+002;0.000000e+000
5.689217e+002;0.000000e+000
5.708502e+002;0.000000e+000
5.727787e+002;0.000000e+000
5.747073e+002;0.000000e+000
5.766359e+002;0.000000e+000
5.785644e+002;0.000000e+000
5.804930e+002;0.000000e+000
5.824215e+002;0.000000e+000
5.843500e+002;0.000000e+000
5.862786e+002;0.000000e+000
5.882072e+002;0.000000e+000
5.901357e+002;0.000000e+000
5.920643e+002;0.000000e+000
5.939928e+002;0.000000e+000
5.959213e+002;0.000000e+000
5.978499e+002;0.000000e+000
5.997784e+002;1.827209e-001
6.017070e+002;1.839756e-001
6.036355e+002;1.797603e-001
6.055641e+002;1.801625e-001
6.074926e+002;1.772384e-001
6.094211e+002;1.757974e-001
6.113497e+002;1.769993e-001
6.132783e+002;1.736370e-001
6.152068e+002;1.747934e-001
6.171354e+002;1.729095e-001
6.190639e+002;1.731354e-001
6.209924e+002;1.783386e-001
6.229210e+002;1.762597e-001
6.248495e+002;1.712880e-001
6.267781e+002;1.692302e-001
6.287067e+002;1.708102e-001
6.306352e+002;1.770406e-001
6.325637e+002;1.833004e-001
6.344923e+002;1.865632e-001
6.364208e+002;1.845825e-001
6.383494e+002;1.831806e-001
6.402780e+002;1.821699e-001
6.422065e+002;1.816033e-001
6.441350e+002;1.848495e-001
6.460636e+002;1.846910e-001
6.479921e+002;1.807394e-001
6.499207e+002;1.841830e-001
6.518492e+002;1.891981e-001
6.537778e+002;1.907403e-001
6.557063e+002;1.919757e-001
6.576349e+002;1.949255e-001
6.595634e+002;1.980604e-001
6.614919e+002;2.019083e-001
6.634205e+002;2.037229e-001
6.653491e+002;2.070745e-001
6.672776e+002;2.109983e-001
6.692062e+002;2.147050e-001
6.711347e+002;2.165152e-001
6.730632e+002;2.170534e-001
6.749918e+002;2.169863e-001
6.769203e+002;2.170682e-001
6.788489e+002;2.186773e-001
6.807775e+002;2.192671e-001
6.827060e+002;2.182263e-001
6.846345e+002;2.174122e-001
6.865631e+002;2.168390e-001
6.884916e+002;2.157033e-001
6.904202e+002;2.132916e-001
6.923488e+002;2.102604e-001
6.942773e+002;2.074472e-001
6.962058e+002;2.047057e-001
6.981344e+002;2.020033e-001
7.000629e+002;1.984888e-001
7.019915e+002;1.953989e-001
7.039200e+002;1.935904e-001
7.058486e+002;1.915838e-001
7.077771e+002;1.904943e-001
7.097057e+002;1.899888e-001
7.116342e+002;1.882939e-001
7.135627e+002;1.865328e-001
7.154913e+002;1.848002e-001
7.174199e+002;1.838599e-001
7.193484e+002;1.834002e-001
7.212770e+002;1.825264e-001
7.232055e+002;1.830217e-001
7.251340e+002;1.837809e-001
7.270626e+002;1.823079e-001
7.289911e+002;1.801392e-001
7.309197e+002;1.766062e-001
7.328483e+002;1.694483e-001
7.347768e+002;1.621915e-001
7.367053e+002;1.558071e-001
7.386339e+002;1.515800e-001
7.405624e+002;1.493110e-001
7.424910e+002;1.452716e-001
7.444196e+002;1.419882e-001
7.463481e+002;1.400606e-001
7.482766e+002;1.380349e-001
7.502052e+002;1.352980e-001
7.521337e+002;1.325341e-001
7.540623e+002;1.313388e-001
7.559908e+002;1.299145e-001
7.579194e+002;1.269076e-001
7.598479e+002;1.243538e-001
7.617765e+002;1.224420e-001
7.637050e+002;1.213481e-001
7.656335e+002;1.202715e-001
7.675621e+002;1.197983e-001
7.694907e+002;1.195354e-001
7.714192e+002;1.186532e-001
7.733478e+002;1.167499e-001
7.752763e+002;1.138991e-001
7.772048e+002;1.119582e-001
7.791334e+002;1.115726e-001
7.810620e+002;1.104806e-001
7.829905e+002;1.081605e-001
7.849191e+002;1.063679e-001
7.868476e+002;1.046805e-001
7.887761e+002;1.035974e-001
7.907047e+002;1.022969e-001
7.926332e+002;1.008417e-001
7.945618e+002;9.873106e-002
7.964903e+002;9.666494e-002
7.984189e+002;9.502555e-002
8.003474e+002;9.414506e-002
8.022759e+002;9.364668e-002
8.042045e+002;9.315970e-002
8.061331e+002;9.168670e-002
8.080616e+002;9.007151e-002
8.099902e+002;8.929540e-002
8.119187e+002;8.787871e-002
8.138472e+002;8.650504e-002
8.157758e+002;8.570133e-002
8.177043e+002;8.581638e-002
8.196329e+002;8.666492e-002
8.215615e+002;8.667244e-002
8.234900e+002;8.632121e-002
8.254185e+002;8.732073e-002
8.273471e+002;8.929878e-002
8.292756e+002;9.123261e-002
8.312042e+002;9.221569e-002
8.331328e+002;9.193836e-002
8.350613e+002;8.984448e-002
8.369898e+002;8.652412e-002
8.389184e+002;8.399948e-002
8.408469e+002;8.211725e-002
8.427755e+002;8.055647e-002
8.447040e+002;7.851202e-002
8.466326e+002;7.663704e-002
8.485611e+002;7.577582e-002
8.504897e+002;7.564972e-002
8.524182e+002;7.531777e-002
8.543467e+002;7.444327e-002
8.562753e+002;7.373948e-002
8.582039e+002;7.344583e-002
8.601324e+002;7.329577e-002
8.620610e+002;7.313204e-002
8.639895e+002;7.343446e-002
8.659180e+002;7.410166e-002
8.678466e+002;7.421557e-002
8.697751e+002;7.374801e-002
8.717037e+002;7.292470e-002
8.736323e+002;7.235620e-002
8.755608e+002;7.237291e-002
8.774893e+002;7.250942e-002
8.794179e+002;7.246013e-002
8.813464e+002;7.290585e-002
8.832750e+002;7.393441e-002
8.852036e+002;7.442195e-002
8.871321e+002;7.431991e-002
8.890606e+002;7.490993e-002
8.909892e+002;7.553647e-002
8.929177e+002;7.538682e-002
8.948463e+002;7.503498e-002
8.967748e+002;7.462551e-002
8.987034e+002;7.433933e-002
9.006319e+002;7.470886e-002
9.025605e+002;7.562298e-002
9.044890e+002;7.635933e-002
9.064175e+002;7.645857e-002
9.083461e+002;7.699837e-002
9.102747e+002;7.822707e-002
9.122032e+002;7.915694e-002
9.141318e+002;7.992986e-002
9.160603e+002;8.046485e-002
9.179888e+002;8.094834e-002
9.199174e+002;8.226067e-002
9.218459e+002;8.353951e-002
9.237745e+002;8.491723e-002
9.257031e+002;8.653981e-002
9.276316e+002;8.816390e-002
9.295601e+002;8.909583e-002
9.314887e+002;8.893330e-002
9.334172e+002;8.780906e-002
9.353458e+002;8.636560e-002
9.372744e+002;8.530777e-002
9.392029e+002;8.444558e-002
9.411314e+002;8.440618e-002
9.430600e+002;8.557856e-002
9.449885e+002;8.738941e-002
9.469171e+002;8.958274e-002
9.488456e+002;9.171048e-002
9.507742e+002;9.345359e-002
9.527027e+002;9.474538e-002
9.546313e+002;9.555265e-002
9.565598e+002;9.622204e-002
9.584883e+002;9.671320e-002
9.604169e+002;9.658016e-002
9.623455e+002;9.572151e-002
9.642740e+002;9.411391e-002
9.662026e+002;9.297410e-002
9.681311e+002;9.239867e-002
9.700596e+002;9.200323e-002
9.719882e+002;9.157467e-002
9.739167e+002;9.136885e-002
9.758453e+002;9.107056e-002
9.777739e+002;9.071416e-002
9.797024e+002;9.047643e-002
9.816309e+002;9.046219e-002
9.835595e+002;9.052793e-002
9.854880e+002;9.056953e-002
9.874166e+002;9.050136e-002
9.893452e+002;9.016439e-002
9.912737e+002;8.979167e-002
9.932022e+002;8.947671e-002
9.951307e+002;8.881174e-002
9.970593e+002;8.834632e-002
9.989879e+002;8.774932e-002
1.000916e+003;8.696193e-002
1.002845e+003;8.591986e-002
1.004773e+003;8.509660e-002
1.006702e+003;8.479895e-002
1.008631e+003;8.469284e-002
1.010559e+003;8.478812e-002
1.012488e+003;8.492908e-002
1.014416e+003;8.490019e-002
1.016345e+003;8.452648e-002
1.018273e+003;8.452254e-002
1.020202e+003;8.494991e-002
1.022130e+003;8.514368e-002
1.024059e+003;8.549686e-002
1.025988e+003;8.675643e-002
1.027916e+003;8.776758e-002
1.029845e+003;8.812980e-002
1.031773e+003;8.774982e-002
1.033702e+003;8.698120e-002
1.035630e+003;8.672993e-002
1.037559e+003;8.647382e-002
1.039487e+003;8.586188e-002
1.041416e+003;8.549468e-002
1.043344e+003;8.600803e-002
1.045273e+003;8.663765e-002
1.047202e+003;8.713656e-002
1.049130e+003;8.791717e-002
1.051059e+003;8.912760e-002
1.052987e+003;9.054748e-002
1.054916e+003;9.195843e-002
1.056844e+003;9.332430e-002
1.058773e+003;9.482629e-002
1.060701e+003;9.671399e-002
1.062630e+003;9.884828e-002
1.064558e+003;1.004190e-001
1.066487e+003;1.015184e-001
1.068416e+003;1.025974e-001
1.070344e+003;1.032640e-001
1.072273e+003;1.036557e-001
1.074201e+003;1.041100e-001
1.076130e+003;1.046248e-001
1.078058e+003;1.046413e-001
1.079987e+003;1.042733e-001
1.081915e+003;1.040833e-001
1.083844e+003;1.040047e-001
1.085773e+003;1.035785e-001
1.087701e+003;1.033700e-001
1.089630e+003;1.035175e-001
1.091558e+003;1.041253e-001
1.093487e+003;1.051979e-001
1.095415e+003;1.062099e-001
1.097344e+003;1.071595e-001
1.099272e+003;1.084320e-001
1.101201e+003;1.106602e-001
1.103129e+003;1.130217e-001
1.105058e+003;1.150227e-001
1.106987e+003;1.163759e-001
1.108915e+003;1.172202e-001
1.110844e+003;1.178598e-001
1.112772e+003;1.183561e-001
1.114701e+003;1.186026e-001
1.116629e+003;1.180691e-001
1.118558e+003;1.168118e-001
1.120486e+003;1.151810e-001
1.122415e+003;1.126062e-001
1.124344e+003;1.095772e-001
1.126272e+003;1.057945e-001
1.128201e+003;1.016526e-001
1.130129e+003;9.842073e-002
1.132058e+003;9.571072e-002
1.133986e+003;9.385082e-002
1.135915e+003;9.284782e-002
1.137843e+003;9.280799e-002
1.139772e+003;9.338198e-002
1.141700e+003;9.421638e-002
1.143629e+003;9.527833e-002
1.145557e+003;9.588663e-002
1.147486e+003;9.710658e-002
1.149415e+003;9.954994e-002
1.151343e+003;1.025580e-001
1.153272e+003;1.056394e-001
1.155200e+003;1.089576e-001
1.157129e+003;1.129445e-001
1.159057e+003;1.176238e-001
1.160986e+003;1.232064e-001
1.162914e+003;1.294090e-001
1.164843e+003;1.352261e-001
1.166771e+003;1.395080e-001
1.168700e+003;1.417817e-001
1.170629e+003;1.414413e-001
1.172557e+003;1.384719e-001
1.174486e+003;1.337943e-001
1.176414e+003;1.287898e-001
1.178343e+003;1.245130e-001
1.180271e+003;1.216217e-001
1.182200e+003;1.204195e-001
1.184128e+003;1.209516e-001
1.186057e+003;1.231793e-001
1.187986e+003;1.263942e-001
1.189914e+003;1.305766e-001
1.191843e+003;1.353912e-001
1.193771e+003;1.404843e-001
1.195700e+003;1.459059e-001
1.197628e+003;1.510715e-001
1.199557e+003;1.537564e-001
1.201485e+003;1.529603e-001
1.203414e+003;1.500834e-001
1.205343e+003;1.470325e-001
1.207271e+003;1.450509e-001
1.209200e+003;1.438275e-001
1.211128e+003;1.425569e-001
1.213057e+003;1.413633e-001
1.214985e+003;1.399111e-001
1.216914e+003;1.374062e-001
1.218842e+003;1.346805e-001
1.220771e+003;1.330866e-001
1.222699e+003;1.328807e-001
1.224628e+003;1.343742e-001
1.226557e+003;1.374793e-001
1.228485e+003;1.419408e-001
1.230414e+003;1.467254e-001
1.232342e+003;1.505320e-001
1.234271e+003;1.536753e-001
1.236199e+003;1.560839e-001
1.238128e+003;1.574000e-001
1.240056e+003;1.576673e-001
1.241985e+003;1.573129e-001
1.243913e+003;1.569302e-001
1.245842e+003;1.572804e-001
1.247771e+003;1.582675e-001
1.249699e+003;1.603413e-001
1.251628e+003;1.629730e-001
1.253556e+003;1.656278e-001
1.255485e+003;1.680963e-001
1.257413e+003;1.699573e-001
1.259342e+003;1.713291e-001
1.261270e+003;1.716632e-001
1.263199e+003;1.701333e-001
1.265127e+003;1.661482e-001
1.267056e+003;1.602284e-001
1.268985e+003;1.543048e-001
1.270913e+003;1.499575e-001
1.272842e+003;1.478828e-001
1.274770e+003;1.469869e-001
1.276699e+003;1.466564e-001
1.278627e+003;1.465277e-001
1.280556e+003;1.459204e-001
1.282484e+003;1.446198e-001
1.284413e+003;1.429764e-001
1.286342e+003;1.416035e-001
1.288270e+003;1.410619e-001
1.290199e+003;1.406756e-001
1.292127e+003;1.397496e-001
1.294056e+003;1.388548e-001
1.295984e+003;1.386571e-001
1.297913e+003;1.387267e-001
1.299841e+003;1.386909e-001
1.301770e+003;1.385770e-001
1.303698e+003;1.378763e-001
1.305627e+003;1.368204e-001
1.307556e+003;1.358948e-001
1.309484e+003;1.352653e-001
1.311413e+003;1.346632e-001
1.313341e+003;1.337097e-001
1.315270e+003;1.326805e-001
1.317198e+003;1.313889e-001
1.319127e+003;1.299872e-001
1.321055e+003;1.290602e-001
1.322984e+003;1.284037e-001
1.324912e+003;1.281325e-001
1.326841e+003;1.280855e-001
1.328770e+003;1.282829e-001
1.330698e+003;1.287506e-001
1.332627e+003;1.294422e-001
1.334555e+003;1.300974e-001
1.336484e+003;1.301306e-001
1.338412e+003;1.300918e-001
1.340341e+003;1.309094e-001
1.342269e+003;1.323392e-001
1.344198e+003;1.334079e-001
1.346126e+003;1.344836e-001
1.348055e+003;1.358001e-001
1.349984e+003;1.376580e-001
1.351912e+003;1.394763e-001
1.353841e+003;1.414012e-001
1.355769e+003;1.434829e-001
1.357698e+003;1.457118e-001
1.359626e+003;1.477663e-001
1.361555e+003;1.493430e-001
1.363483e+003;1.515615e-001
1.365412e+003;1.543103e-001
1.367341e+003;1.566526e-001
1.369269e+003;1.589872e-001
1.371198e+003;1.601329e-001
1.373126e+003;1.591771e-001
1.375055e+003;1.575378e-001
1.376983e+003;1.554345e-001
1.378912e+003;1.519422e-001
1.380840e+003;1.480737e-001
1.382769e+003;1.441293e-001
1.384698e+003;1.401564e-001
1.386626e+003;1.359764e-001
1.388555e+003;1.330373e-001
1.390483e+003;1.313795e-001
1.392412e+003;1.295519e-001
1.394340e+003;1.278237e-001
1.396269e+003;1.278061e-001
1.398197e+003;1.288056e-001
1.400126e+003;1.312606e-001
1.402054e+003;1.347167e-001
1.403983e+003;1.387457e-001
1.405911e+003;1.447997e-001
1.407840e+003;1.520263e-001
1.409769e+003;1.596086e-001
1.411697e+003;1.674273e-001
1.413626e+003;1.738719e-001
1.415554e+003;1.771001e-001
1.417483e+003;1.758851e-001
1.419411e+003;1.722935e-001
1.421340e+003;1.697899e-001
1.423268e+003;1.668736e-001
1.425197e+003;1.647170e-001
1.427125e+003;1.641536e-001
1.429054e+003;1.651254e-001
1.430983e+003;1.677062e-001
1.432911e+003;1.701870e-001
1.434840e+003;1.696258e-001
1.436768e+003;1.680656e-001
1.438697e+003;1.692958e-001
1.440625e+003;1.696389e-001
1.442554e+003;1.692297e-001
1.444482e+003;1.689715e-001
1.446411e+003;1.686274e-001
1.448340e+003;1.697114e-001
1.450268e+003;1.724250e-001
1.452197e+003;1.750103e-001
1.454125e+003;1.762370e-001
1.456054e+003;1.755174e-001
1.457982e+003;1.804712e-001
1.459911e+003;1.890697e-001
1.461839e+003;1.935372e-001
1.463768e+003;1.915120e-001
1.465697e+003;1.856944e-001
1.467625e+003;1.789716e-001
1.469554e+003;1.720231e-001
1.471482e+003;1.665785e-001
1.473411e+003;1.657738e-001
1.475339e+003;1.678234e-001
1.477268e+003;1.678188e-001
1.479196e+003;1.650969e-001
1.481125e+003;1.602675e-001
1.483053e+003;1.542123e-001
1.484982e+003;1.476858e-001
1.486911e+003;1.426879e-001
1.488839e+003;1.404537e-001
1.490768e+003;1.417054e-001
1.492696e+003;1.451667e-001
1.494625e+003;1.476158e-001
1.496553e+003;1.507490e-001
1.498482e+003;1.570693e-001
1.500410e+003;1.644144e-001
1.502339e+003;1.713365e-001
1.504267e+003;1.752308e-001
1.506196e+003;1.787847e-001
1.508125e+003;1.889472e-001
1.510053e+003;2.007775e-001
1.511982e+003;2.101644e-001
1.513910e+003;2.191893e-001
1.515839e+003;2.274986e-001
1.517767e+003;2.359125e-001
1.519696e+003;2.430441e-001
1.521624e+003;2.516431e-001
1.523553e+003;2.639368e-001
1.525481e+003;2.748013e-001
1.527410e+003;2.856432e-001
1.529339e+003;2.962412e-001
1.531267e+003;3.047063e-001
1.533196e+003;3.104617e-001
1.535124e+003;3.162414e-001
1.537053e+003;3.174060e-001
1.538981e+003;3.125452e-001
1.540910e+003;3.097413e-001
1.542838e+003;3.075286e-001
1.544767e+003;3.009644e-001
1.546695e+003;2.916424e-001
1.548624e+003;2.796735e-001
1.550553e+003;2.664917e-001
1.552481e+003;2.529775e-001
1.554410e+003;2.394718e-001
1.556338e+003;2.255886e-001
1.558267e+003;2.101425e-001
1.560195e+003;2.015717e-001
1.562124e+003;1.974775e-001
1.564052e+003;1.899230e-001
1.565981e+003;1.813411e-001
1.567910e+003;1.725292e-001
1.569838e+003;1.643637e-001
1.571767e+003;1.588803e-001
1.573695e+003;1.518205e-001
1.575624e+003;1.432847e-001
1.577552e+003;1.402499e-001
1.579481e+003;1.395229e-001
1.581409e+003;1.375342e-001
1.583338e+003;1.358699e-001
1.585266e+003;1.349671e-001
1.587195e+003;1.348830e-001
1.589124e+003;1.353199e-001
1.591052e+003;1.367749e-001
1.592981e+003;1.392812e-001
1.594909e+003;1.425414e-001
1.596838e+003;1.466417e-001
1.598766e+003;1.516481e-001
1.600695e+003;1.575296e-001
1.602623e+003;1.645470e-001
1.604552e+003;1.725450e-001
1.606480e+003;1.813415e-001
1.608409e+003;1.907696e-001
1.610338e+003;2.009698e-001
1.612266e+003;2.122959e-001
1.614195e+003;2.238244e-001
1.616123e+003;2.355808e-001
1.618052e+003;2.530189e-001
1.619980e+003;2.724020e-001
1.621909e+003;2.889337e-001
1.623837e+003;3.060316e-001
1.625766e+003;3.241200e-001
1.627694e+003;3.416410e-001
1.629623e+003;3.602835e-001
1.631552e+003;3.771024e-001
1.633480e+003;3.873870e-001
1.635409e+003;3.906083e-001
1.637337e+003;3.893524e-001
1.639266e+003;3.794346e-001
1.641194e+003;3.607597e-001
1.643123e+003;3.378116e-001
1.645051e+003;3.125216e-001
1.646980e+003;2.897381e-001
1.648909e+003;2.721089e-001
1.650837e+003;2.519861e-001
1.652766e+003;2.314343e-001
1.654694e+003;2.228658e-001
1.656623e+003;2.172232e-001
1.658551e+003;2.079336e-001
1.660480e+003;1.972225e-001
1.662408e+003;1.861976e-001
1.664337e+003;1.774290e-001
1.666266e+003;1.682992e-001
1.668194e+003;1.573356e-001
1.670123e+003;1.480008e-001
1.672051e+003;1.408093e-001
1.673980e+003;1.319793e-001
1.675908e+003;1.240078e-001
1.677837e+003;1.177306e-001
1.679765e+003;1.094670e-001
1.681694e+003;9.929936e-002
1.683622e+003;8.754382e-002
1.685551e+003;8.213439e-002
1.687479e+003;8.053190e-002
1.689408e+003;7.674592e-002
1.691337e+003;7.318188e-002
1.693265e+003;6.863676e-002
1.695194e+003;6.254012e-002
1.697122e+003;6.092772e-002
1.699051e+003;5.847855e-002
1.700979e+003;5.779678e-002
1.702908e+003;6.112174e-002
1.704836e+003;6.094354e-002
1.706765e+003;6.080208e-002
1.708693e+003;6.110892e-002
1.710622e+003;6.107871e-002
1.712551e+003;5.984112e-002
1.714479e+003;5.738762e-002
1.716408e+003;5.437187e-002
1.718336e+003;5.492441e-002
1.720265e+003;5.833486e-002
1.722193e+003;5.982120e-002
1.724122e+003;6.007305e-002
1.726050e+003;6.032931e-002
1.727979e+003;6.015802e-002
1.729908e+003;5.989144e-002
1.731836e+003;5.744072e-002
1.733765e+003;5.410150e-002
1.735693e+003;5.580983e-002
1.737622e+003;5.673419e-002
1.739550e+003;5.482305e-002
1.741479e+003;5.421872e-002
1.743407e+003;5.323101e-002
1.745336e+003;5.186117e-002
1.747265e+003;4.989675e-002
1.749193e+003;4.753009e-002
1.751122e+003;4.572097e-002
1.753050e+003;4.593674e-002
1.754979e+003;4.556911e-002
1.756907e+003;4.429771e-002
1.758836e+003;4.344022e-002
1.760764e+003;4.184733e-002
1.762693e+003;4.135173e-002
1.764621e+003;4.179490e-002
1.766550e+003;4.056660e-002
1.768479e+003;3.917979e-002
1.770407e+003;3.754021e-002
1.772336e+003;3.578733e-002
1.774264e+003;3.709613e-002
1.776193e+003;3.841457e-002
1.778121e+003;3.797386e-002
1.780050e+003;3.714370e-002
1.781978e+003;3.690783e-002
1.783907e+003;3.636195e-002
1.785835e+003;3.599865e-002
1.787764e+003;3.592497e-002
1.789693e+003;3.484732e-002
1.791621e+003;3.326781e-002
1.793550e+003;3.355909e-002
1.795478e+003;3.456469e-002
1.797407e+003;3.437059e-002
1.799335e+003;3.378223e-002
1.801264e+003;3.344835e-002
1.803192e+003;3.370788e-002
1.805121e+003;3.378477e-002
1.807049e+003;3.342724e-002
1.808978e+003;3.281978e-002
1.810907e+003;3.251204e-002
1.812835e+003;3.256864e-002
1.814764e+003;3.268776e-002
1.816692e+003;3.253974e-002
1.818621e+003;3.258560e-002
1.820549e+003;3.243091e-002
1.822478e+003;3.192568e-002
1.824406e+003;3.108410e-002
1.826335e+003;3.112286e-002
1.828264e+003;3.077196e-002
1.830192e+003;3.052310e-002
1.832121e+003;3.123201e-002
1.834049e+003;3.163991e-002
1.835978e+003;3.162202e-002
1.837906e+003;3.146653e-002
1.839835e+003;3.107051e-002
1.841763e+003;3.011525e-002
1.843692e+003;2.889333e-002
1.845620e+003;2.951244e-002
1.847549e+003;3.031510e-002
1.849478e+003;3.027204e-002
1.851406e+003;3.011816e-002
1.853335e+003;3.017964e-002
1.855263e+003;3.018806e-002
1.857192e+003;2.996825e-002
1.859120e+003;2.994443e-002
1.861049e+003;3.002115e-002
1.862977e+003;2.990109e-002
1.864906e+003;2.967962e-002
1.866834e+003;2.907646e-002
1.868763e+003;2.846755e-002
1.870692e+003;2.900047e-002
1.872620e+003;2.995469e-002
1.874549e+003;3.003443e-002
1.876477e+003;2.989094e-002
1.878406e+003;2.995217e-002
1.880334e+003;2.976825e-002
1.882263e+003;2.959604e-002
1.884191e+003;2.978110e-002
1.886120e+003;2.979536e-002
1.888048e+003;2.950876e-002
1.889977e+003;2.959764e-002
1.891906e+003;3.011582e-002
1.893834e+003;3.017364e-002
1.895763e+003;3.028479e-002
1.897691e+003;3.023228e-002
1.899620e+003;3.010691e-002
1.901548e+003;3.017052e-002
1.903477e+003;3.027527e-002
1.905405e+003;3.047152e-002
1.907334e+003;3.036548e-002
1.909262e+003;2.987802e-002
1.911191e+003;2.979990e-002
1.913120e+003;3.002126e-002
1.915048e+003;2.983422e-002
1.916977e+003;2.911695e-002
1.918905e+003;2.905180e-002
1.920834e+003;2.932765e-002
1.922762e+003;2.936951e-002
1.924691e+003;2.948762e-002
1.926619e+003;2.936079e-002
1.928548e+003;2.938745e-002
1.930477e+003;2.942620e-002
1.932405e+003;2.936742e-002
1.934334e+003;2.936377e-002
1.936262e+003;2.948312e-002
1.938191e+003;2.953791e-002
1.940119e+003;2.922131e-002
1.942048e+003;2.863910e-002
1.943976e+003;2.870837e-002
1.945905e+003;2.912780e-002
1.947833e+003;2.917754e-002
1.949762e+003;2.914069e-002
1.951691e+003;2.926845e-002
1.953619e+003;2.929415e-002
1.955548e+003;2.942138e-002
1.957476e+003;2.941277e-002
1.959405e+003;2.928486e-002
1.961333e+003;2.929199e-002
1.963262e+003;2.947609e-002
1.965190e+003;2.941422e-002
1.967119e+003;2.923637e-002
1.969047e+003;2.938454e-002
1.970976e+003;2.953252e-002
1.972905e+003;2.949219e-002
1.974833e+003;2.954316e-002
1.976762e+003;2.977467e-002
1.978690e+003;2.986457e-002
1.980619e+003;2.974948e-002
1.982547e+003;2.979227e-002
1.984476e+003;2.996467e-002
1.986404e+003;2.987816e-002
1.988333e+003;2.961073e-002
1.990261e+003;2.944475e-002
1.992190e+003;2.946673e-002
1.994119e+003;2.960313e-002
1.996047e+003;2.963102e-002
1.997976e+003;2.973220e-002
1.999904e+003;3.008365e-002
2.001833e+003;3.032629e-002
2.003761e+003;3.034182e-002
2.005690e+003;3.008968e-002
2.007618e+003;2.986567e-002
2.009547e+003;2.986702e-002
2.011476e+003;3.003713e-002
2.013404e+003;3.017588e-002
2.015333e+003;3.050213e-002
2.017261e+003;3.061976e-002
2.019190e+003;3.050874e-002
2.021118e+003;3.041200e-002
2.023047e+003;3.053785e-002
2.024975e+003;3.095328e-002
2.026904e+003;3.142026e-002
2.028833e+003;3.158960e-002
2.030761e+003;3.141285e-002
2.032690e+003;3.144772e-002
2.034618e+003;3.176798e-002
2.036547e+003;3.168646e-002
2.038475e+003;3.157385e-002
2.040404e+003;3.170642e-002
2.042332e+003;3.170300e-002
2.044261e+003;3.172471e-002
2.046189e+003;3.191352e-002
2.048118e+003;3.208615e-002
2.050047e+003;3.233745e-002
2.051975e+003;3.246558e-002
2.053904e+003;3.248507e-002
2.055832e+003;3.255178e-002
2.057761e+003;3.258221e-002
2.059689e+003;3.268830e-002
2.061618e+003;3.280481e-002
2.063546e+003;3.280288e-002
2.065475e+003;3.283726e-002
2.067404e+003;3.286034e-002
2.069332e+003;3.294827e-002
2.071260e+003;3.264954e-002
2.073189e+003;3.227931e-002
2.075118e+003;3.268662e-002
2.077046e+003;3.306381e-002
2.078975e+003;3.281685e-002
2.080903e+003;3.240578e-002
2.082832e+003;3.224590e-002
2.084760e+003;3.215369e-002
2.086689e+003;3.213928e-002
2.088617e+003;3.217075e-002
2.090546e+003;3.204024e-002
2.092475e+003;3.182958e-002
2.094403e+003;3.169049e-002
2.096332e+003;3.176491e-002
2.098260e+003;3.176327e-002
2.100189e+003;3.157060e-002
2.102117e+003;3.164234e-002
2.104046e+003;3.172937e-002
2.105974e+003;3.159038e-002
2.107903e+003;3.166761e-002
2.109832e+003;3.175779e-002
2.111760e+003;3.174310e-002
2.113688e+003;3.177786e-002
2.115617e+003;3.166793e-002
2.117546e+003;3.157082e-002
2.119474e+003;3.156718e-002
2.121403e+003;3.159911e-002
2.123331e+003;3.151238e-002
2.125260e+003;3.126559e-002
2.127188e+003;3.121051e-002
2.129117e+003;3.152571e-002
2.131045e+003;3.168404e-002
2.132974e+003;3.161753e-002
2.134903e+003;3.153440e-002
2.136831e+003;3.129742e-002
2.138760e+003;3.113479e-002
2.140688e+003;3.129871e-002
2.142617e+003;3.140605e-002
2.144545e+003;3.133838e-002
2.146474e+003;3.143825e-002
2.148402e+003;3.135526e-002
2.150331e+003;3.116668e-002
2.152260e+003;3.126588e-002
2.154188e+003;3.143871e-002
2.156117e+003;3.135932e-002
2.158045e+003;3.141602e-002
2.159974e+003;3.157025e-002
2.161902e+003;3.160948e-002
2.163831e+003;3.167409e-002
2.165759e+003;3.189148e-002
2.167688e+003;3.199530e-002
2.169616e+003;3.203386e-002
2.171545e+003;3.201431e-002
2.173474e+003;3.205416e-002
2.175402e+003;3.242045e-002
2.177331e+003;3.262764e-002
2.179259e+003;3.251082e-002
2.181188e+003;3.237536e-002
2.183116e+003;3.219733e-002
2.185045e+003;3.227124e-002
2.186973e+003;3.244822e-002
2.188902e+003;3.259814e-002
2.190831e+003;3.259521e-002
2.192759e+003;3.252235e-002
2.194688e+003;3.248154e-002
2.196616e+003;3.253185e-002
2.198545e+003;3.245715e-002
2.200473e+003;3.218313e-002
2.202402e+003;3.198838e-002
2.204330e+003;3.219034e-002
2.206259e+003;3.225368e-002
2.208188e+003;3.207492e-002
2.210116e+003;3.203992e-002
2.212044e+003;3.225917e-002
2.213973e+003;3.225461e-002
2.215902e+003;3.200896e-002
2.217830e+003;3.175921e-002
2.219759e+003;3.175258e-002
2.221687e+003;3.158140e-002
2.223616e+003;3.122379e-002
2.225544e+003;3.104260e-002
2.227473e+003;3.113247e-002
2.229401e+003;3.126107e-002
2.231330e+003;3.120869e-002
2.233259e+003;3.094716e-002
2.235187e+003;3.082642e-002
2.237116e+003;3.117768e-002
2.239044e+003;3.155421e-002
2.240973e+003;3.140897e-002
2.242901e+003;3.138610e-002
2.244830e+003;3.148018e-002
2.246758e+003;3.140894e-002
2.248687e+003;3.143276e-002
2.250615e+003;3.156084e-002
2.252544e+003;3.146322e-002
2.254473e+003;3.138653e-002
2.256401e+003;3.151751e-002
2.258330e+003;3.130822e-002
2.260258e+003;3.108414e-002
2.262187e+003;3.137460e-002
2.264115e+003;3.145834e-002
2.266044e+003;3.153643e-002
2.267972e+003;3.157680e-002
2.269901e+003;3.149710e-002
2.271830e+003;3.135619e-002
2.273758e+003;3.153825e-002
2.275687e+003;3.174235e-002
2.277615e+003;3.166116e-002
2.279544e+003;3.180691e-002
2.281472e+003;3.185914e-002
2.283401e+003;3.164380e-002
2.285329e+003;3.161999e-002
2.287258e+003;3.178171e-002
2.289187e+003;3.205929e-002
2.291115e+003;3.202441e-002
2.293043e+003;3.185900e-002
2.294972e+003;3.229979e-002
2.296901e+003;3.279855e-002
2.298829e+003;3.272059e-002
2.300758e+003;3.239599e-002
2.302686e+003;3.237432e-002
2.304615e+003;3.238071e-002
2.306543e+003;3.243141e-002
2.308472e+003;3.263418e-002
2.310400e+003;3.268844e-002
2.312329e+003;3.280474e-002
2.314258e+003;3.299638e-002
2.316186e+003;3.303328e-002
2.318115e+003;3.297604e-002
2.320043e+003;3.284683e-002
2.321972e+003;3.275032e-002
2.323900e+003;3.252207e-002
2.325829e+003;3.249836e-002
2.327757e+003;3.259635e-002
2.329686e+003;3.238528e-002
2.331615e+003;3.217902e-002
2.333543e+003;3.223812e-002
2.335472e+003;3.246744e-002
2.337400e+003;3.236293e-002
2.339329e+003;3.209168e-002
2.341257e+003;3.181586e-002
2.343186e+003;3.189951e-002
2.345114e+003;3.219483e-002
2.347043e+003;3.231999e-002
2.348971e+003;3.238528e-002
2.350900e+003;3.229076e-002
2.352829e+003;3.213428e-002
2.354757e+003;3.190546e-002
2.356686e+003;3.183126e-002
2.358614e+003;3.201748e-002
2.360543e+003;3.207734e-002
2.362471e+003;3.226985e-002
2.364400e+003;3.237414e-002
2.366328e+003;3.223305e-002
2.368257e+003;3.206789e-002
2.370186e+003;3.229401e-002
2.372114e+003;3.261125e-002
2.374042e+003;3.280642e-002
2.375971e+003;3.265722e-002
2.377900e+003;3.267522e-002
2.379828e+003;3.286531e-002
2.381757e+003;3.295720e-002
2.383685e+003;3.314867e-002
2.385614e+003;3.324427e-002
2.387542e+003;3.309789e-002
2.389471e+003;3.290595e-002
2.391399e+003;3.287857e-002
2.393328e+003;3.303625e-002
2.395257e+003;3.322041e-002
2.397185e+003;3.323540e-002
2.399114e+003;3.313841e-002
2.401042e+003;3.318729e-002
2.402971e+003;3.314159e-002
2.404899e+003;3.306299e-002
2.406828e+003;3.296021e-002
2.408756e+003;3.305527e-002
2.410685e+003;3.332780e-002
2.412614e+003;3.336040e-002
2.414542e+003;3.322406e-002
2.416471e+003;3.320375e-002
2.418399e+003;3.339464e-002
2.420328e+003;3.346664e-002
2.422256e+003;3.336490e-002
2.424185e+003;3.336820e-002
2.426113e+003;3.344624e-002
2.428042e+003;3.363935e-002
2.429970e+003;3.369001e-002
2.431899e+003;3.365876e-002
2.433828e+003;3.381049e-002
2.435756e+003;3.386260e-002
2.437685e+003;3.397638e-002
2.439613e+003;3.415009e-002
2.441542e+003;3.445068e-002
2.443470e+003;3.460308e-002
2.445399e+003;3.465934e-002
2.447327e+003;3.493271e-002
2.449256e+003;3.513809e-002
2.451185e+003;3.523434e-002
2.453113e+003;3.525652e-002
2.455042e+003;3.532239e-002
2.456970e+003;3.564739e-002
2.458899e+003;3.571944e-002
2.460827e+003;3.551023e-002
2.462756e+003;3.537487e-002
2.464684e+003;3.571483e-002
2.466613e+003;3.608581e-002
2.468542e+003;3.618365e-002
2.470470e+003;3.626584e-002
2.472398e+003;3.608326e-002
2.474327e+003;3.614598e-002
2.476256e+003;3.642976e-002
2.478184e+003;3.656332e-002
2.480113e+003;3.655297e-002
2.482041e+003;3.666519e-002
2.483970e+003;3.692557e-002
2.485898e+003;3.690822e-002
2.487827e+003;3.674827e-002
2.489755e+003;3.660225e-002
2.491684e+003;3.659064e-002
2.493613e+003;3.682151e-002
2.495541e+003;3.664875e-002
2.497470e+003;3.633291e-002
2.499398e+003;3.642021e-002
2.501327e+003;3.660816e-002
2.503255e+003;3.679414e-002
2.505184e+003;3.695808e-002
2.507112e+003;3.680250e-002
2.509041e+003;3.684272e-002
2.510969e+003;3.720351e-002
2.512898e+003;3.742072e-002
2.514827e+003;3.766378e-002
2.516755e+003;3.771397e-002
2.518684e+003;3.778669e-002
2.520612e+003;3.833125e-002
2.522541e+003;3.891005e-002
2.524469e+003;3.917812e-002
2.526398e+003;3.899953e-002
2.528326e+003;3.909628e-002
2.530255e+003;3.949052e-002
2.532184e+003;3.965320e-002
2.534112e+003;3.980112e-002
2.536041e+003;3.991109e-002
2.537969e+003;4.023841e-002
2.539898e+003;4.051116e-002
2.541826e+003;4.050113e-002
2.543755e+003;4.069962e-002
2.545683e+003;4.099207e-002
2.547612e+003;4.116919e-002
2.549541e+003;4.108290e-002
2.551469e+003;4.098209e-002
2.553397e+003;4.096134e-002
2.555326e+003;4.120194e-002
2.557255e+003;4.170801e-002
2.559183e+003;4.194380e-002
2.561112e+003;4.188571e-002
2.563040e+003;4.186141e-002
2.564969e+003;4.186896e-002
2.566897e+003;4.176327e-002
2.568826e+003;4.158599e-002
2.570754e+003;4.189396e-002
2.572683e+003;4.222859e-002
2.574612e+003;4.243474e-002
2.576540e+003;4.281118e-002
2.578469e+003;4.302672e-002
2.580397e+003;4.321169e-002
2.582326e+003;4.352954e-002
2.584254e+003;4.353313e-002
2.586183e+003;4.335183e-002
2.588111e+003;4.377516e-002
2.590040e+003;4.412363e-002
2.591969e+003;4.407797e-002
2.593897e+003;4.389912e-002
2.595826e+003;4.397886e-002
2.597754e+003;4.442299e-002
2.599683e+003;4.458844e-002
2.601611e+003;4.441330e-002
2.603540e+003;4.443231e-002
2.605468e+003;4.448715e-002
2.607397e+003;4.459439e-002
2.609325e+003;4.478980e-002
2.611254e+003;4.501166e-002
2.613183e+003;4.529320e-002
2.615111e+003;4.544949e-002
2.617040e+003;4.554192e-002
2.618968e+003;4.558210e-002
2.620897e+003;4.568313e-002
2.622825e+003;4.596805e-002
2.624754e+003;4.625059e-002
2.626682e+003;4.609596e-002
2.628611e+003;4.586092e-002
2.630540e+003;4.604744e-002
2.632468e+003;4.635107e-002
2.634396e+003;4.657321e-002
2.636325e+003;4.651220e-002
2.638254e+003;4.672690e-002
2.640182e+003;4.686861e-002
2.642111e+003;4.667694e-002
2.644039e+003;4.674269e-002
2.645968e+003;4.684078e-002
2.647896e+003;4.705401e-002
2.649825e+003;4.724447e-002
2.651753e+003;4.721193e-002
2.653682e+003;4.719039e-002
2.655611e+003;4.723867e-002
2.657539e+003;4.741034e-002
2.659468e+003;4.798220e-002
2.661396e+003;4.829389e-002
2.663325e+003;4.831819e-002
2.665253e+003;4.852273e-002
2.667182e+003;4.883259e-002
2.669110e+003;4.891761e-002
2.671039e+003;4.892655e-002
2.672968e+003;4.931749e-002
2.674896e+003;4.956396e-002
2.676825e+003;4.969148e-002
2.678753e+003;4.991641e-002
2.680682e+003;5.046587e-002
2.682610e+003;5.084188e-002
2.684539e+003;5.141940e-002
2.686467e+003;5.168240e-002
2.688396e+003;5.146827e-002
2.690324e+003;5.163762e-002
2.692253e+003;5.244173e-002
2.694182e+003;5.309121e-002
2.696110e+003;5.352284e-002
2.698039e+003;5.400630e-002
2.699967e+003;5.417341e-002
2.701896e+003;5.437751e-002
2.703824e+003;5.459297e-002
2.705753e+003;5.457509e-002
2.707681e+003;5.472964e-002
2.709610e+003;5.523405e-002
2.711539e+003;5.600690e-002
2.713467e+003;5.658050e-002
2.715396e+003;5.673517e-002
2.717324e+003;5.688173e-002
2.719253e+003;5.773112e-002
2.721181e+003;5.876236e-002
2.723110e+003;5.929445e-002
2.725038e+003;5.941803e-002
2.726967e+003;5.959830e-002
2.728896e+003;6.010143e-002
2.730824e+003;6.036411e-002
2.732752e+003;6.064923e-002
2.734681e+003;6.132103e-002
2.736610e+003;6.205526e-002
2.738538e+003;6.239007e-002
2.740467e+003;6.234658e-002
2.742395e+003;6.245170e-002
2.744324e+003;6.278218e-002
2.746252e+003;6.318918e-002
2.748181e+003;6.321716e-002
2.750109e+003;6.289488e-002
2.752038e+003;6.289680e-002
2.753967e+003;6.325591e-002
2.755895e+003;6.383460e-002
2.757824e+003;6.429553e-002
2.759752e+003;6.427252e-002
2.761681e+003;6.419810e-002
2.763609e+003;6.425846e-002
2.765538e+003;6.447722e-002
2.767466e+003;6.477429e-002
2.769395e+003;6.501448e-002
2.771323e+003;6.552825e-002
2.773252e+003;6.625191e-002
2.775181e+003;6.676611e-002
2.777109e+003;6.725050e-002
2.779038e+003;6.800052e-002
2.780966e+003;6.855768e-002
2.782895e+003;6.882455e-002
2.784823e+003;6.930826e-002
2.786752e+003;7.010584e-002
2.788680e+003;7.100146e-002
2.790609e+003;7.170738e-002
2.792538e+003;7.229558e-002
2.794466e+003;7.325675e-002
2.796395e+003;7.418904e-002
2.798323e+003;7.494181e-002
2.800252e+003;7.575152e-002
2.802180e+003;7.613860e-002
2.804109e+003;7.658309e-002
2.806037e+003;7.709183e-002
2.807966e+003;7.729000e-002
2.809895e+003;7.756146e-002
2.811823e+003;7.811056e-002
2.813751e+003;7.853981e-002
2.815680e+003;7.893229e-002
2.817609e+003;7.950819e-002
2.819537e+003;8.059037e-002
2.821466e+003;8.147744e-002
2.823394e+003;8.228069e-002
2.825323e+003;8.318683e-002
2.827251e+003;8.406723e-002
2.829180e+003;8.543804e-002
2.831108e+003;8.682032e-002
2.833037e+003;8.836155e-002
2.834966e+003;9.060614e-002
2.836894e+003;9.304396e-002
2.838823e+003;9.590916e-002
2.840751e+003;9.942782e-002
2.842680e+003;1.029332e-001
2.844608e+003;1.070905e-001
2.846537e+003;1.123010e-001
2.848465e+003;1.175964e-001
2.850394e+003;1.226683e-001
2.852323e+003;1.274814e-001
2.854251e+003;1.314579e-001
2.856180e+003;1.348948e-001
2.858108e+003;1.377910e-001
2.860037e+003;1.397567e-001
2.861965e+003;1.404651e-001
2.863894e+003;1.403167e-001
2.865822e+003;1.392610e-001
2.867751e+003;1.372289e-001
2.869679e+003;1.346880e-001
2.871608e+003;1.317188e-001
2.873536e+003;1.285520e-001
2.875465e+003;1.254279e-001
2.877394e+003;1.225128e-001
2.879322e+003;1.196582e-001
2.881251e+003;1.169776e-001
2.883179e+003;1.152569e-001
2.885108e+003;1.143424e-001
2.887036e+003;1.135821e-001
2.888965e+003;1.137159e-001
2.890893e+003;1.150058e-001
2.892822e+003;1.170793e-001
2.894750e+003;1.192538e-001
2.896679e+003;1.212390e-001
2.898608e+003;1.234705e-001
2.900536e+003;1.254487e-001
2.902465e+003;1.266617e-001
2.904393e+003;1.279315e-001
2.906322e+003;1.294714e-001
2.908250e+003;1.307126e-001
2.910179e+003;1.322773e-001
2.912107e+003;1.344569e-001
2.914036e+003;1.367566e-001
2.915965e+003;1.392724e-001
2.917893e+003;1.427051e-001
2.919822e+003;1.456880e-001
2.921750e+003;1.486540e-001
2.923679e+003;1.525403e-001
2.925607e+003;1.563372e-001
2.927536e+003;1.590717e-001
2.929464e+003;1.618935e-001
2.931393e+003;1.650517e-001
2.933322e+003;1.669860e-001
2.935250e+003;1.675884e-001
2.937178e+003;1.672605e-001
2.939107e+003;1.659138e-001
2.941036e+003;1.634675e-001
2.942964e+003;1.605632e-001
2.944893e+003;1.570835e-001
2.946821e+003;1.519512e-001
2.948750e+003;1.455242e-001
2.950678e+003;1.382232e-001
2.952607e+003;1.309334e-001
2.954535e+003;1.242921e-001
2.956464e+003;1.177998e-001
2.958393e+003;1.120122e-001
2.960321e+003;1.066008e-001
2.962250e+003;1.018201e-001
2.964178e+003;9.835478e-002
2.966107e+003;9.557787e-002
2.968035e+003;9.214765e-002
2.969964e+003;8.895241e-002
2.971892e+003;8.638617e-002
2.973821e+003;8.376198e-002
2.975750e+003;8.130272e-002
2.977678e+003;7.897738e-002
2.979607e+003;7.711228e-002
2.981535e+003;7.568577e-002
2.983464e+003;7.414435e-002
2.985392e+003;7.267324e-002
2.987321e+003;7.143755e-002
2.989249e+003;7.055839e-002
2.991178e+003;6.970543e-002
2.993106e+003;6.877533e-002
2.995035e+003;6.787235e-002
2.996964e+003;6.725452e-002
2.998892e+003;6.668945e-002
3.000821e+003;6.655070e-002
3.002749e+003;6.661984e-002
3.004678e+003;6.660906e-002
3.006606e+003;6.677870e-002
3.008535e+003;6.679983e-002
3.010463e+003;6.678820e-002
3.012392e+003;6.719255e-002
3.014321e+003;6.737221e-002
3.016249e+003;6.746869e-002
3.018177e+003;6.769048e-002
3.020106e+003;6.820250e-002
3.022035e+003;6.887087e-002
3.023963e+003;6.949174e-002
3.025892e+003;6.987317e-002
3.027820e+003;7.000979e-002
3.029749e+003;7.038212e-002
3.031677e+003;7.145209e-002
3.033606e+003;7.246675e-002
3.035534e+003;7.293650e-002
3.037463e+003;7.389269e-002
3.039392e+003;7.498986e-002
3.041320e+003;7.544299e-002
3.043249e+003;7.610070e-002
3.045177e+003;7.723620e-002
3.047106e+003;7.826845e-002
3.049034e+003;7.940586e-002
3.050963e+003;8.036833e-002
3.052891e+003;8.114895e-002
3.054820e+003;8.200566e-002
3.056749e+003;8.281575e-002
3.058677e+003;8.359566e-002
3.060606e+003;8.463055e-002
3.062534e+003;8.543615e-002
3.064463e+003;8.564366e-002
3.066391e+003;8.548214e-002
3.068320e+003;8.537327e-002
3.070248e+003;8.545894e-002
3.072177e+003;8.562133e-002
3.074105e+003;8.536936e-002
3.076034e+003;8.505674e-002
3.077963e+003;8.496119e-002
3.079891e+003;8.541872e-002
3.081820e+003;8.580390e-002
3.083748e+003;8.490277e-002
3.085677e+003;8.411702e-002
3.087605e+003;8.367503e-002
3.089534e+003;8.301575e-002
3.091462e+003;8.261961e-002
3.093391e+003;8.189923e-002
3.095320e+003;8.092462e-002
3.097248e+003;8.042135e-002
3.099177e+003;7.936115e-002
3.101105e+003;7.829281e-002
3.103034e+003;7.778215e-002
3.104962e+003;7.727951e-002
3.106891e+003;7.667848e-002
3.108819e+003;7.599266e-002
3.110748e+003;7.521859e-002
3.112677e+003;7.463095e-002
3.114605e+003;7.435970e-002
3.116533e+003;7.375986e-002
3.118462e+003;7.314999e-002
3.120391e+003;7.241210e-002
3.122319e+003;7.172590e-002
3.124248e+003;7.171652e-002
3.126176e+003;7.201428e-002
3.128105e+003;7.193360e-002
3.130033e+003;7.146314e-002
3.131962e+003;7.129072e-002
3.133890e+003;7.157639e-002
3.135819e+003;7.156940e-002
3.137748e+003;7.137495e-002
3.139676e+003;7.144220e-002
3.141605e+003;7.194346e-002
3.143533e+003;7.247426e-002
3.145462e+003;7.284397e-002
3.147390e+003;7.286266e-002
3.149319e+003;7.254607e-002
3.151247e+003;7.267088e-002
3.153176e+003;7.330044e-002
3.155104e+003;7.385322e-002
3.157033e+003;7.439198e-002
3.158962e+003;7.486992e-002
3.160890e+003;7.506523e-002
3.162819e+003;7.584735e-002
3.164747e+003;7.695229e-002
3.166676e+003;7.704300e-002
3.168604e+003;7.723913e-002
3.170533e+003;7.827543e-002
3.172461e+003;7.935669e-002
3.174390e+003;8.022087e-002
3.176319e+003;8.093744e-002
3.178247e+003;8.170641e-002
3.180176e+003;8.216906e-002
3.182104e+003;8.304913e-002
3.184033e+003;8.424818e-002
3.185961e+003;8.513195e-002
3.187890e+003;8.575921e-002
3.189818e+003;8.612057e-002
3.191747e+003;8.635800e-002
3.193676e+003;8.710149e-002
3.195604e+003;8.777832e-002
3.197532e+003;8.815436e-002
3.199461e+003;8.867440e-002
3.201390e+003;8.904970e-002
3.203318e+003;8.951905e-002
3.205247e+003;8.995733e-002
3.207175e+003;9.037156e-002
3.209104e+003;9.063353e-002
3.211032e+003;9.113288e-002
3.212961e+003;9.162348e-002
3.214889e+003;9.202906e-002
3.216818e+003;9.256463e-002
3.218747e+003;9.364606e-002
3.220675e+003;9.468349e-002
3.222604e+003;9.521991e-002
3.224532e+003;9.594060e-002
3.226461e+003;9.693830e-002
3.228389e+003;9.807848e-002
3.230318e+003;9.900931e-002
3.232246e+003;1.002537e-001
3.234175e+003;1.017974e-001
3.236104e+003;1.033299e-001
3.238032e+003;1.051338e-001
3.239961e+003;1.070521e-001
3.241889e+003;1.086950e-001
3.243818e+003;1.101750e-001
3.245746e+003;1.121429e-001
3.247675e+003;1.143056e-001
3.249603e+003;1.161618e-001
3.251532e+003;1.187430e-001
3.253460e+003;1.215971e-001
3.255389e+003;1.240531e-001
3.257318e+003;1.264150e-001
3.259246e+003;1.285075e-001
3.261175e+003;1.304775e-001
3.263103e+003;1.329686e-001
3.265032e+003;1.356291e-001
3.266960e+003;1.382020e-001
3.268889e+003;1.405608e-001
3.270817e+003;1.427412e-001
3.272746e+003;1.448559e-001
3.274675e+003;1.476825e-001
3.276603e+003;1.505303e-001
3.278531e+003;1.528690e-001
3.280460e+003;1.549819e-001
3.282389e+003;1.564754e-001
3.284317e+003;1.580596e-001
3.286246e+003;1.596683e-001
3.288174e+003;1.603982e-001
3.290103e+003;1.606120e-001
3.292031e+003;1.605553e-001
3.293960e+003;1.602553e-001
3.295888e+003;1.590020e-001
3.297817e+003;1.566247e-001
3.299746e+003;1.540548e-001
3.301674e+003;1.512454e-001
3.303603e+003;1.477990e-001
3.305531e+003;1.441333e-001
3.307460e+003;1.407019e-001
3.309388e+003;1.373637e-001
3.311317e+003;1.341173e-001
3.313245e+003;1.310023e-001
3.315174e+003;1.282382e-001
3.317103e+003;1.255187e-001
3.319031e+003;1.222615e-001
3.320960e+003;1.192793e-001
3.322888e+003;1.162266e-001
3.324817e+003;1.130974e-001
3.326745e+003;1.105556e-001
3.328674e+003;1.086718e-001
3.330602e+003;1.062978e-001
3.332531e+003;1.036913e-001
3.334459e+003;1.011525e-001
3.336388e+003;9.908444e-002
3.338317e+003;9.683716e-002
3.340245e+003;9.429768e-002
3.342174e+003;9.278792e-002
3.344102e+003;9.166677e-002
3.346031e+003;9.010066e-002
3.347959e+003;8.852775e-002
3.349888e+003;8.693000e-002
3.351816e+003;8.516061e-002
3.353745e+003;8.341133e-002
3.355674e+003;8.196516e-002
3.357602e+003;8.133732e-002
3.359531e+003;8.011347e-002
3.361459e+003;7.854898e-002
3.363388e+003;7.716642e-002
3.365316e+003;7.607350e-002
3.367245e+003;7.549132e-002
3.369173e+003;7.457634e-002
3.371102e+003;7.362736e-002
3.373031e+003;7.296186e-002
3.374959e+003;7.208207e-002
3.376887e+003;7.077438e-002
3.378816e+003;6.953160e-002
3.380745e+003;6.892353e-002
3.382673e+003;6.855089e-002
3.384602e+003;6.834716e-002
3.386530e+003;6.778675e-002
3.388459e+003;6.715245e-002
3.390387e+003;6.686074e-002
3.392316e+003;6.620498e-002
3.394244e+003;6.567176e-002
3.396173e+003;6.553846e-002
3.398102e+003;6.510674e-002
3.400030e+003;6.429691e-002
3.401959e+003;6.376188e-002
3.403887e+003;6.372968e-002
3.405816e+003;6.359664e-002
3.407744e+003;6.311653e-002
3.409673e+003;6.256443e-002
3.411601e+003;6.178147e-002
3.413530e+003;6.119658e-002
3.415458e+003;6.100275e-002
3.417387e+003;6.080318e-002
3.419316e+003;6.064096e-002
3.421244e+003;6.086158e-002
3.423173e+003;6.070391e-002
3.425101e+003;6.010357e-002
3.427030e+003;5.963714e-002
3.428958e+003;5.948965e-002
3.430887e+003;5.951180e-002
3.432815e+003;5.951735e-002
3.434744e+003;5.929871e-002
3.436673e+003;5.897223e-002
3.438601e+003;5.909598e-002
3.440530e+003;5.960673e-002
3.442458e+003;5.948243e-002
3.444387e+003;5.864410e-002
3.446315e+003;5.747461e-002
3.448244e+003;5.717512e-002
3.450172e+003;5.712032e-002
3.452101e+003;5.654544e-002
3.454030e+003;5.606797e-002
3.455958e+003;5.579853e-002
3.457886e+003;5.567783e-002
3.459815e+003;5.495453e-002
3.461744e+003;5.358116e-002
3.463672e+003;5.342053e-002
3.465601e+003;5.387432e-002
3.467529e+003;5.384619e-002
3.469458e+003;5.343713e-002
3.471386e+003;5.291796e-002
3.473315e+003;5.245313e-002
3.475243e+003;5.214357e-002
3.477172e+003;5.161680e-002
3.479101e+003;5.183630e-002
3.481029e+003;5.188533e-002
3.482958e+003;5.154728e-002
3.484886e+003;5.132624e-002
3.486815e+003;5.080866e-002
3.488743e+003;5.046836e-002
3.490672e+003;5.047015e-002
3.492600e+003;5.019929e-002
3.494529e+003;4.953380e-002
3.496458e+003;4.933038e-002
3.498386e+003;4.952972e-002
3.500315e+003;4.942708e-002
3.502243e+003;4.895978e-002
3.504172e+003;4.896334e-002
3.506100e+003;4.892040e-002
3.508029e+003;4.830019e-002
3.509957e+003;4.828975e-002
3.511886e+003;4.784486e-002
3.513814e+003;4.744271e-002
3.515743e+003;4.737261e-002
3.517672e+003;4.699312e-002
3.519600e+003;4.671863e-002
3.521529e+003;4.617739e-002
3.523457e+003;4.551185e-002
3.525386e+003;4.534682e-002
3.527314e+003;4.504224e-002
3.529243e+003;4.482364e-002
3.531171e+003;4.459685e-002
3.533100e+003;4.458620e-002
3.535029e+003;4.438390e-002
3.536957e+003;4.380539e-002
3.538885e+003;4.345380e-002
3.540814e+003;4.295926e-002
3.542743e+003;4.210423e-002
3.544671e+003;4.139277e-002
3.546600e+003;4.115341e-002
3.548528e+003;4.146020e-002
3.550457e+003;4.133719e-002
3.552385e+003;4.063631e-002
3.554314e+003;3.997084e-002
3.556242e+003;3.963516e-002
3.558171e+003;3.952387e-002
3.560100e+003;3.919096e-002
3.562028e+003;3.884094e-002
3.563957e+003;3.801899e-002
3.565885e+003;3.667590e-002
3.567814e+003;3.635273e-002
3.569742e+003;3.670280e-002
3.571671e+003;3.624502e-002
3.573599e+003;3.580478e-002
3.575528e+003;3.591727e-002
3.577457e+003;3.552091e-002
3.579385e+003;3.481146e-002
3.581314e+003;3.480769e-002
3.583242e+003;3.480428e-002
3.585171e+003;3.328419e-002
3.587099e+003;3.170079e-002
3.589028e+003;3.189305e-002
3.590956e+003;3.278344e-002
3.592885e+003;3.258089e-002
3.594813e+003;3.212665e-002
3.596742e+003;3.229451e-002
3.598671e+003;3.244108e-002
3.600599e+003;3.199494e-002
3.602528e+003;3.148442e-002
3.604456e+003;3.057692e-002
3.606385e+003;2.975051e-002
3.608313e+003;2.926122e-002
3.610242e+003;2.944627e-002
3.612170e+003;2.945960e-002
3.614099e+003;2.919413e-002
3.616028e+003;2.861638e-002
3.617956e+003;2.753074e-002
3.619885e+003;2.734996e-002
3.621813e+003;2.873662e-002
3.623742e+003;2.915224e-002
3.625670e+003;2.736976e-002
3.627599e+003;2.408729e-002
3.629527e+003;2.393136e-002
3.631456e+003;2.674118e-002
3.633385e+003;2.754684e-002
3.635313e+003;2.728162e-002
3.637241e+003;2.708408e-002
3.639170e+003;2.707921e-002
3.641099e+003;2.692241e-002
3.643027e+003;2.651899e-002
3.644956e+003;2.510084e-002
3.646884e+003;2.290766e-002
3.648813e+003;2.191695e-002
3.650741e+003;2.334980e-002
3.652670e+003;2.514254e-002
3.654598e+003;2.456332e-002
3.656527e+003;2.415304e-002
3.658456e+003;2.506370e-002
3.660384e+003;2.520350e-002
3.662313e+003;2.527046e-002
3.664241e+003;2.543970e-002
3.666170e+003;2.471944e-002
3.668098e+003;2.224166e-002
3.670027e+003;2.054811e-002
3.671955e+003;2.198798e-002
3.673884e+003;2.105832e-002
3.675813e+003;2.048958e-002
3.677741e+003;2.315981e-002
3.679669e+003;2.425453e-002
3.681598e+003;2.423351e-002
3.683527e+003;2.364612e-002
3.685455e+003;2.260898e-002
3.687384e+003;1.958648e-002
3.689312e+003;1.907319e-002
3.691241e+003;2.132461e-002
3.693169e+003;2.290025e-002
3.695098e+003;2.315467e-002
3.697026e+003;2.286931e-002
3.698955e+003;2.225219e-002
3.700884e+003;2.133540e-002
3.702812e+003;2.172623e-002
3.704741e+003;2.213677e-002
3.706669e+003;2.149559e-002
3.708598e+003;2.001353e-002
3.710526e+003;1.836904e-002
3.712455e+003;1.884080e-002
3.714383e+003;2.088473e-002
3.716312e+003;2.151630e-002
3.718240e+003;2.143961e-002
3.720169e+003;2.117499e-002
3.722098e+003;2.128494e-002
3.724026e+003;2.151603e-002
3.725955e+003;2.122119e-002
3.727883e+003;2.172627e-002
3.729812e+003;2.104889e-002
3.731740e+003;1.894147e-002
3.733669e+003;1.828184e-002
3.735597e+003;1.804956e-002
3.737526e+003;1.926874e-002
3.739455e+003;2.057702e-002
3.741383e+003;1.965616e-002
3.743312e+003;1.511433e-002
3.745240e+003;1.536955e-002
3.747169e+003;1.774209e-002
3.749097e+003;1.642559e-002
3.751026e+003;1.657637e-002
3.752954e+003;1.913891e-002
3.754883e+003;2.138621e-002
3.756812e+003;2.137445e-002
3.758740e+003;2.090827e-002
3.760668e+003;2.125724e-002
3.762597e+003;2.231898e-002
3.764526e+003;2.155680e-002
3.766454e+003;2.141232e-002
3.768383e+003;2.114670e-002
3.770311e+003;2.162616e-002
3.772240e+003;2.244681e-002
3.774168e+003;2.232216e-002
3.776097e+003;2.191615e-002
3.778025e+003;2.146175e-002
3.779954e+003;2.148897e-002
3.781883e+003;2.233241e-002
3.783811e+003;2.261219e-002
3.785740e+003;2.288663e-002
3.787668e+003;2.263781e-002
3.789597e+003;2.238237e-002
3.791525e+003;2.231351e-002
3.793454e+003;2.250784e-002
3.795382e+003;2.214705e-002
3.797311e+003;2.214395e-002
3.799240e+003;2.025019e-002
3.801168e+003;1.808624e-002
3.803097e+003;2.020822e-002
3.805025e+003;2.070214e-002
3.806954e+003;2.045103e-002
3.808882e+003;2.273601e-002
3.810811e+003;2.353092e-002
3.812739e+003;2.258151e-002
3.814668e+003;2.020954e-002
3.816596e+003;2.023300e-002
3.818525e+003;2.102879e-002
3.820454e+003;1.948867e-002
3.822382e+003;2.079320e-002
3.824311e+003;2.253579e-002
3.826239e+003;2.256444e-002
3.828168e+003;2.267541e-002
3.830096e+003;2.228288e-002
3.832025e+003;2.219514e-002
3.833953e+003;2.207927e-002
3.835882e+003;2.024185e-002
3.837811e+003;1.897446e-002
3.839739e+003;2.063508e-002
3.841667e+003;2.205404e-002
3.843596e+003;2.261949e-002
3.845525e+003;2.348443e-002
3.847453e+003;2.401638e-002
3.849382e+003;2.269080e-002
3.851310e+003;1.903428e-002
3.853239e+003;1.596867e-002
3.855167e+003;1.967353e-002
3.857096e+003;2.386845e-002
3.859024e+003;2.428098e-002
3.860953e+003;2.306724e-002
3.862882e+003;2.188865e-002
3.864810e+003;2.206069e-002
3.866739e+003;2.269290e-002
3.868667e+003;2.097972e-002
3.870596e+003;2.102750e-002
3.872524e+003;2.236949e-002
3.874453e+003;2.262727e-002
3.876381e+003;2.366417e-002
3.878310e+003;2.399201e-002
3.880239e+003;2.372901e-002
3.882167e+003;2.401312e-002
3.884096e+003;2.347880e-002
3.886024e+003;2.317774e-002
3.887953e+003;2.443319e-002
3.889881e+003;2.397236e-002
3.891810e+003;2.358954e-002
3.893738e+003;2.514061e-002
3.895667e+003;2.582155e-002
3.897595e+003;2.421084e-002
3.899524e+003;2.282296e-002
3.901453e+003;2.256612e-002
3.903381e+003;2.284046e-002
3.905310e+003;2.480398e-002
3.907238e+003;2.628213e-002
3.909167e+003;2.639155e-002
3.911095e+003;2.645433e-002
3.913024e+003;2.632201e-002
3.914952e+003;2.551271e-002
3.916881e+003;2.499371e-002
3.918810e+003;2.557590e-002
3.920738e+003;2.631824e-002
3.922667e+003;2.610380e-002
3.924595e+003;2.566296e-002
3.926524e+003;2.579462e-002
3.928452e+003;2.614596e-002
3.930381e+003;2.630638e-002
3.932309e+003;2.635215e-002
3.934238e+003;2.706726e-002
3.936167e+003;2.731362e-002
3.938095e+003;2.743628e-002
3.940023e+003;2.730148e-002
3.941952e+003;2.726616e-002
3.943881e+003;2.797024e-002
3.945809e+003;2.791776e-002
3.947738e+003;2.717098e-002
3.949666e+003;2.709829e-002
3.951595e+003;2.767374e-002
3.953523e+003;2.813678e-002
3.955452e+003;2.816262e-002
3.957380e+003;2.831358e-002
3.959309e+003;2.837911e-002
3.961238e+003;2.836217e-002
3.963166e+003;2.867397e-002
3.965095e+003;2.900738e-002
3.967023e+003;2.887559e-002
3.968952e+003;2.875977e-002
3.970880e+003;2.834332e-002
3.972809e+003;2.849044e-002
3.974737e+003;2.872257e-002
3.976666e+003;2.904354e-002
3.978594e+003;2.942074e-002
3.980523e+003;2.930669e-002
3.982452e+003;2.900993e-002
3.984380e+003;2.936327e-002
3.986309e+003;2.982758e-002
3.988237e+003;3.038485e-002
3.990166e+003;3.055673e-002
3.992094e+003;3.069891e-002
3.994023e+003;3.081543e-002
3.995951e+003;3.078071e-002
3.997880e+003;3.106713e-002
3.999809e+003;3.092012e-002
4.001737e+003;0.000000e+000
