3.992094e+002;0.000000e+000
4.011380e+002;0.000000e+000
4.030665e+002;0.000000e+000
4.049951e+002;0.000000e+000
4.069236e+002;0.000000e+000
4.088522e+002;0.000000e+000
4.107807e+002;0.000000e+000
4.127093e+002;0.000000e+000
4.146378e+002;0.000000e+000
4.165664e+002;0.000000e+000
4.184949e+002;0.000000e+000
4.204235e+002;0.000000e+000
4.223520e+002;0.000000e+000
4.242806e+002;0.000000e+000
4.262091e+002;0.000000e+000
4.281377e+002;0.000000e+000
4.300662e+002;0.000000e+000
4.319948e+002;0.000000e+000
4.339233e+002;0.000000e+000
4.358519e+002;0.000000e+000
4.377804e+002;0.000000e+000
4.397090e+002;0.000000e+000
4.416375e+002;0.000000e+000
4.435660e+002;0.000000e+000
4.454946e+002;0.000000e+000
4.474232e+002;0.000000e+000
4.493517e+002;0.000000e+000
4.512802e+002;0.000000e+000
4.532088e+002;0.000000e+000
4.551373e+002;0.000000e+000
4.570659e+002;0.000000e+000
4.589944e+002;0.000000e+000
4.609230e+002;0.000000e+000
4.628515e+002;0.000000e+000
4.647801e+002;0.000000e+000
4.667086e+002;0.000000e+000
4.686372e+002;0.000000e+000
4.705657e+002;0.000000e+000
4.724943e+002;0.000000e+000
4.744228e+002;0.000000e+000
4.763513e+002;0.000000e+000
4.782799e+002;0.000000e+000
4.802085e+002;0.000000e+000
4.821370e+002;0.000000e+000
4.840656e+002;0.000000e+000
4.859941e+002;0.000000e+000
4.879226e+002;0.000000e+000
4.898512e+002;0.000000e+000
4.917798e+002;0.000000e+000
4.937083e+002;0.000000e+000
4.956368e+002;0.000000e+000
4.975654e+002;0.000000e+000
4.994939e+002;0.000000e+000
5.014225e+002;0.000000e+000
5.033510e+002;0.000000e+000
5.052796e+002;0.000000e+000
5.072081e+002;0.000000e+000
5.091367e+002;0.000000e+000
5.110652e+002;0.000000e+000
5.129938e+002;0.000000e+000
5.149223e+002;0.000000e+000
5.168509e+002;0.000000e+000
5.187794e+002;0.000000e+000
5.207079e+002;0.000000e+000
5.226365e+002;0.000000e+000
5.245651e+002;0.000000e+000
5.264936e+002;0.000000e+000
5.284222e+002;0.000000e+000
5.303507e+002;0.000000e+000
5.322792e+002;0.000000e+000
5.342078e+002;0.000000e+000
5.361364e+002;0.000000e+000
5.380649e+002;0.000000e+000
5.399935e+002;0.000000e+000
5.419220e+002;0.000000e+000
5.438505e+002;0.000000e+000
5.457791e+002;0.000000e+000
5.477076e+002;0.000000e+000
5.496362e+002;0.000000e+000
5.515648e+002;0.000000e+000
5.534933e+002;0.000000e+000
5.554218e+002;0.000000e+000
5.573504e+002;0.000000e+000
5.592789e+002;0.000000e+000
5.612075e+002;0.000000e+000
5.631360e+002;0.000000e+000
5.650646e+002;0.000000e+000
5.669931e+002;0.000000e+000
5.689217e+002;0.000000e+000
5.708502e+002;0.000000e+000
5.727787e+002;0.000000e+000
5.747073e+002;0.000000e+000
5.766359e+002;0.000000e+000
5.785644e+002;0.000000e+000
5.804930e+002;0.000000e+000
5.824215e+002;0.000000e+000
5.843500e+002;0.000000e+000
5.862786e+002;0.000000e+000
5.882072e+002;0.000000e+000
5.901357e+002;0.000000e+000
5.920643e+002;0.000000e+000
5.939928e+002;0.000000e+000
5.959213e+002;0.000000e+000
5.978499e+002;0.000000e+000
5.997784e+002;1.948535e-001
6.017070e+002;1.833449e-001
6.036355e+002;1.793388e-001
6.055641e+002;1.750773e-001
6.074926e+002;1.694419e-001
6.094211e+002;1.697717e-001
6.113497e+002;1.748814e-001
6.132783e+002;1.741772e-001
6.152068e+002;1.752462e-001
6.171354e+002;1.761255e-001
6.190639e+002;1.759893e-001
6.209924e+002;1.772183e-001
6.229210e+002;1.782149e-001
6.248495e+002;1.761936e-001
6.267781e+002;1.753765e-001
6.287067e+002;1.733523e-001
6.306352e+002;1.768598e-001
6.325637e+002;1.848880e-001
6.344923e+002;1.865035e-001
6.364208e+002;1.812160e-001
6.383494e+002;1.802154e-001
6.402780e+002;1.835238e-001
6.422065e+002;1.830036e-001
6.441350e+002;1.813668e-001
6.460636e+002;1.838980e-001
6.479921e+002;1.861333e-001
6.499207e+002;1.886695e-001
6.518492e+002;1.892768e-001
6.537778e+002;1.891520e-001
6.557063e+002;1.906746e-001
6.576349e+002;1.940122e-001
6.595634e+002;1.977450e-001
6.614919e+002;1.982035e-001
6.634205e+002;1.984769e-001
6.653491e+002;2.021839e-001
6.672776e+002;2.054861e-001
6.692062e+002;2.084922e-001
6.711347e+002;2.101662e-001
6.730632e+002;2.123099e-001
6.749918e+002;2.122382e-001
6.769203e+002;2.108929e-001
6.788489e+002;2.112752e-001
6.807775e+002;2.103379e-001
6.827060e+002;2.092868e-001
6.846345e+002;2.088152e-001
6.865631e+002;2.072415e-001
6.884916e+002;2.067577e-001
6.904202e+002;2.063189e-001
6.923488e+002;2.050541e-001
6.942773e+002;2.027374e-001
6.962058e+002;2.006617e-001
6.981344e+002;1.992094e-001
7.000629e+002;1.968502e-001
7.019915e+002;1.945546e-001
7.039200e+002;1.937488e-001
7.058486e+002;1.929834e-001
7.077771e+002;1.923452e-001
7.097057e+002;1.915525e-001
7.116342e+002;1.902988e-001
7.135627e+002;1.879144e-001
7.154913e+002;1.868974e-001
7.174199e+002;1.867050e-001
7.193484e+002;1.850274e-001
7.212770e+002;1.846408e-001
7.232055e+002;1.861255e-001
7.251340e+002;1.859481e-001
7.270626e+002;1.847935e-001
7.289911e+002;1.813572e-001
7.309197e+002;1.749647e-001
7.328483e+002;1.693634e-001
7.347768e+002;1.642451e-001
7.367053e+002;1.586485e-001
7.386339e+002;1.538279e-001
7.405624e+002;1.499961e-001
7.424910e+002;1.461639e-001
7.444196e+002;1.430541e-001
7.463481e+002;1.410216e-001
7.482766e+002;1.386113e-001
7.502052e+002;1.363715e-001
7.521337e+002;1.348940e-001
7.540623e+002;1.333442e-001
7.559908e+002;1.312487e-001
7.579194e+002;1.284565e-001
7.598479e+002;1.266409e-001
7.617765e+002;1.252629e-001
7.637050e+002;1.226893e-001
7.656335e+002;1.208205e-001
7.675621e+002;1.202262e-001
7.694907e+002;1.203097e-001
7.714192e+002;1.196425e-001
7.733478e+002;1.175197e-001
7.752763e+002;1.150704e-001
7.772048e+002;1.133189e-001
7.791334e+002;1.118774e-001
7.810620e+002;1.098753e-001
7.829905e+002;1.077285e-001
7.849191e+002;1.063436e-001
7.868476e+002;1.049981e-001
7.887761e+002;1.041378e-001
7.907047e+002;1.027039e-001
7.926332e+002;1.007903e-001
7.945618e+002;9.873984e-002
7.964903e+002;9.698610e-002
7.984189e+002;9.557540e-002
8.003474e+002;9.424738e-002
8.022759e+002;9.272967e-002
8.042045e+002;9.122513e-002
8.061331e+002;8.987362e-002
8.080616e+002;8.854222e-002
8.099902e+002;8.718605e-002
8.119187e+002;8.587771e-002
8.138472e+002;8.502030e-002
8.157758e+002;8.466706e-002
8.177043e+002;8.359405e-002
8.196329e+002;8.373670e-002
8.215615e+002;8.413395e-002
8.234900e+002;8.382121e-002
8.254185e+002;8.448136e-002
8.273471e+002;8.663397e-002
8.292756e+002;8.785880e-002
8.312042e+002;8.811052e-002
8.331328e+002;8.792220e-002
8.350613e+002;8.629037e-002
8.369898e+002;8.384585e-002
8.389184e+002;8.216725e-002
8.408469e+002;8.028170e-002
8.427755e+002;7.830507e-002
8.447040e+002;7.658385e-002
8.466326e+002;7.459711e-002
8.485611e+002;7.290267e-002
8.504897e+002;7.251056e-002
8.524182e+002;7.238548e-002
8.543467e+002;7.162750e-002
8.562753e+002;7.093548e-002
8.582039e+002;7.073051e-002
8.601324e+002;7.054634e-002
8.620610e+002;7.035481e-002
8.639895e+002;7.031250e-002
8.659180e+002;7.027993e-002
8.678466e+002;7.016410e-002
8.697751e+002;7.006340e-002
8.717037e+002;6.971492e-002
8.736323e+002;6.981674e-002
8.755608e+002;7.021827e-002
8.774893e+002;7.035910e-002
8.794179e+002;7.050449e-002
8.813464e+002;7.104079e-002
8.832750e+002;7.175811e-002
8.852036e+002;7.239339e-002
8.871321e+002;7.266677e-002
8.890606e+002;7.287050e-002
8.909892e+002;7.288919e-002
8.929177e+002;7.258943e-002
8.948463e+002;7.276310e-002
8.967748e+002;7.323537e-002
8.987034e+002;7.349269e-002
9.006319e+002;7.391822e-002
9.025605e+002;7.458354e-002
9.044890e+002;7.522304e-002
9.064175e+002;7.553706e-002
9.083461e+002;7.616798e-002
9.102747e+002;7.735061e-002
9.122032e+002;7.835412e-002
9.141318e+002;7.900962e-002
9.160603e+002;7.989410e-002
9.179888e+002;8.070523e-002
9.199174e+002;8.166443e-002
9.218459e+002;8.260226e-002
9.237745e+002;8.390646e-002
9.257031e+002;8.529136e-002
9.276316e+002;8.606906e-002
9.295601e+002;8.614885e-002
9.314887e+002;8.609577e-002
9.334172e+002;8.545801e-002
9.353458e+002;8.448748e-002
9.372744e+002;8.369235e-002
9.392029e+002;8.304828e-002
9.411314e+002;8.289614e-002
9.430600e+002;8.356830e-002
9.449885e+002;8.478905e-002
9.469171e+002;8.641718e-002
9.488456e+002;8.833694e-002
9.507742e+002;9.008905e-002
9.527027e+002;9.126446e-002
9.546313e+002;9.184186e-002
9.565598e+002;9.219156e-002
9.584883e+002;9.278309e-002
9.604169e+002;9.263328e-002
9.623455e+002;9.188747e-002
9.642740e+002;9.111665e-002
9.662026e+002;9.038878e-002
9.681311e+002;8.979578e-002
9.700596e+002;8.968249e-002
9.719882e+002;8.962384e-002
9.739167e+002;8.904116e-002
9.758453e+002;8.815172e-002
9.777739e+002;8.743953e-002
9.797024e+002;8.690932e-002
9.816309e+002;8.677633e-002
9.835595e+002;8.645798e-002
9.854880e+002;8.568187e-002
9.874166e+002;8.498867e-002
9.893452e+002;8.466847e-002
9.912737e+002;8.405943e-002
9.932022e+002;8.294728e-002
9.951307e+002;8.180601e-002
9.970593e+002;8.137616e-002
9.989879e+002;8.092686e-002
1.000916e+003;7.999124e-002
1.002845e+003;7.914291e-002
1.004773e+003;7.857177e-002
1.006702e+003;7.815146e-002
1.008631e+003;7.848442e-002
1.010559e+003;7.881829e-002
1.012488e+003;7.848383e-002
1.014416e+003;7.831309e-002
1.016345e+003;7.830793e-002
1.018273e+003;7.860100e-002
1.020202e+003;7.923253e-002
1.022130e+003;7.958256e-002
1.024059e+003;8.013730e-002
1.025988e+003;8.135350e-002
1.027916e+003;8.208867e-002
1.029845e+003;8.248161e-002
1.031773e+003;8.231176e-002
1.033702e+003;8.182473e-002
1.035630e+003;8.166438e-002
1.037559e+003;8.120072e-002
1.039487e+003;8.067235e-002
1.041416e+003;8.040816e-002
1.043344e+003;8.085868e-002
1.045273e+003;8.201979e-002
1.047202e+003;8.287826e-002
1.049130e+003;8.338872e-002
1.051059e+003;8.492053e-002
1.052987e+003;8.606878e-002
1.054916e+003;8.714952e-002
1.056844e+003;8.916922e-002
1.058773e+003;9.154182e-002
1.060701e+003;9.401762e-002
1.062630e+003;9.600545e-002
1.064558e+003;9.735386e-002
1.066487e+003;9.845914e-002
1.068416e+003;9.986183e-002
1.070344e+003;1.007008e-001
1.072273e+003;1.010509e-001
1.074201e+003;1.015205e-001
1.076130e+003;1.016800e-001
1.078058e+003;1.011671e-001
1.079987e+003;1.004567e-001
1.081915e+003;1.004956e-001
1.083844e+003;1.004078e-001
1.085773e+003;9.959965e-002
1.087701e+003;9.907500e-002
1.089630e+003;9.908990e-002
1.091558e+003;1.000202e-001
1.093487e+003;1.013491e-001
1.095415e+003;1.023617e-001
1.097344e+003;1.032405e-001
1.099272e+003;1.050579e-001
1.101201e+003;1.080268e-001
1.103129e+003;1.106259e-001
1.105058e+003;1.127625e-001
1.106987e+003;1.142507e-001
1.108915e+003;1.150116e-001
1.110844e+003;1.152372e-001
1.112772e+003;1.151803e-001
1.114701e+003;1.150955e-001
1.116629e+003;1.147823e-001
1.118558e+003;1.131847e-001
1.120486e+003;1.107519e-001
1.122415e+003;1.075095e-001
1.124344e+003;1.035476e-001
1.126272e+003;9.964316e-002
1.128201e+003;9.512164e-002
1.130129e+003;9.101797e-002
1.132058e+003;8.818387e-002
1.133986e+003;8.654074e-002
1.135915e+003;8.579308e-002
1.137843e+003;8.592075e-002
1.139772e+003;8.661128e-002
1.141700e+003;8.780189e-002
1.143629e+003;8.929740e-002
1.145557e+003;9.067003e-002
1.147486e+003;9.254118e-002
1.149415e+003;9.536685e-002
1.151343e+003;9.854078e-002
1.153272e+003;1.021401e-001
1.155200e+003;1.067262e-001
1.157129e+003;1.119092e-001
1.159057e+003;1.174292e-001
1.160986e+003;1.234285e-001
1.162914e+003;1.298103e-001
1.164843e+003;1.359848e-001
1.166771e+003;1.403898e-001
1.168700e+003;1.429181e-001
1.170629e+003;1.424471e-001
1.172557e+003;1.390606e-001
1.174486e+003;1.345257e-001
1.176414e+003;1.298447e-001
1.178343e+003;1.255183e-001
1.180271e+003;1.223281e-001
1.182200e+003;1.210715e-001
1.184128e+003;1.218978e-001
1.186057e+003;1.242750e-001
1.187986e+003;1.271649e-001
1.189914e+003;1.308971e-001
1.191843e+003;1.354181e-001
1.193771e+003;1.398433e-001
1.195700e+003;1.439483e-001
1.197628e+003;1.479052e-001
1.199557e+003;1.499674e-001
1.201485e+003;1.491207e-001
1.203414e+003;1.470645e-001
1.205343e+003;1.448011e-001
1.207271e+003;1.431416e-001
1.209200e+003;1.420452e-001
1.211128e+003;1.405461e-001
1.213057e+003;1.388282e-001
1.214985e+003;1.367601e-001
1.216914e+003;1.345036e-001
1.218842e+003;1.328115e-001
1.220771e+003;1.318030e-001
1.222699e+003;1.321303e-001
1.224628e+003;1.343351e-001
1.226557e+003;1.377152e-001
1.228485e+003;1.418409e-001
1.230414e+003;1.464380e-001
1.232342e+003;1.508288e-001
1.234271e+003;1.544633e-001
1.236199e+003;1.566962e-001
1.238128e+003;1.575306e-001
1.240056e+003;1.575259e-001
1.241985e+003;1.574743e-001
1.243913e+003;1.574375e-001
1.245842e+003;1.576585e-001
1.247771e+003;1.586813e-001
1.249699e+003;1.605794e-001
1.251628e+003;1.628598e-001
1.253556e+003;1.653491e-001
1.255485e+003;1.672878e-001
1.257413e+003;1.684877e-001
1.259342e+003;1.688820e-001
1.261270e+003;1.677639e-001
1.263199e+003;1.644854e-001
1.265127e+003;1.594693e-001
1.267056e+003;1.536762e-001
1.268985e+003;1.488471e-001
1.270913e+003;1.456871e-001
1.272842e+003;1.441567e-001
1.274770e+003;1.438691e-001
1.276699e+003;1.441756e-001
1.278627e+003;1.441491e-001
1.280556e+003;1.433138e-001
1.282484e+003;1.422621e-001
1.284413e+003;1.408308e-001
1.286342e+003;1.391315e-001
1.288270e+003;1.378367e-001
1.290199e+003;1.370317e-001
1.292127e+003;1.365125e-001
1.294056e+003;1.357128e-001
1.295984e+003;1.355012e-001
1.297913e+003;1.358870e-001
1.299841e+003;1.359182e-001
1.301770e+003;1.356647e-001
1.303698e+003;1.350138e-001
1.305627e+003;1.340794e-001
1.307556e+003;1.333525e-001
1.309484e+003;1.324660e-001
1.311413e+003;1.315750e-001
1.313341e+003;1.305637e-001
1.315270e+003;1.294152e-001
1.317198e+003;1.283132e-001
1.319127e+003;1.271049e-001
1.321055e+003;1.258899e-001
1.322984e+003;1.251040e-001
1.324912e+003;1.248661e-001
1.326841e+003;1.247901e-001
1.328770e+003;1.250759e-001
1.330698e+003;1.255856e-001
1.332627e+003;1.258927e-001
1.334555e+003;1.260979e-001
1.336484e+003;1.261961e-001
1.338412e+003;1.263142e-001
1.340341e+003;1.271002e-001
1.342269e+003;1.284021e-001
1.344198e+003;1.296378e-001
1.346126e+003;1.309338e-001
1.348055e+003;1.322864e-001
1.349984e+003;1.342113e-001
1.351912e+003;1.363207e-001
1.353841e+003;1.385893e-001
1.355769e+003;1.408931e-001
1.357698e+003;1.428021e-001
1.359626e+003;1.446106e-001
1.361555e+003;1.465020e-001
1.363483e+003;1.488755e-001
1.365412e+003;1.515008e-001
1.367341e+003;1.537704e-001
1.369269e+003;1.556149e-001
1.371198e+003;1.561344e-001
1.373126e+003;1.547525e-001
1.375055e+003;1.527013e-001
1.376983e+003;1.505425e-001
1.378912e+003;1.472815e-001
1.380840e+003;1.433743e-001
1.382769e+003;1.393654e-001
1.384698e+003;1.354818e-001
1.386626e+003;1.313504e-001
1.388555e+003;1.285817e-001
1.390483e+003;1.267633e-001
1.392412e+003;1.245735e-001
1.394340e+003;1.228283e-001
1.396269e+003;1.228756e-001
1.398197e+003;1.237501e-001
1.400126e+003;1.260176e-001
1.402054e+003;1.291921e-001
1.403983e+003;1.327381e-001
1.405911e+003;1.380965e-001
1.407840e+003;1.446591e-001
1.409769e+003;1.518996e-001
1.411697e+003;1.593825e-001
1.413626e+003;1.658489e-001
1.415554e+003;1.699610e-001
1.417483e+003;1.698053e-001
1.419411e+003;1.676040e-001
1.421340e+003;1.666263e-001
1.423268e+003;1.647002e-001
1.425197e+003;1.635377e-001
1.427125e+003;1.640076e-001
1.429054e+003;1.651189e-001
1.430983e+003;1.675507e-001
1.432911e+003;1.700663e-001
1.434840e+003;1.694832e-001
1.436768e+003;1.680563e-001
1.438697e+003;1.693854e-001
1.440625e+003;1.695103e-001
1.442554e+003;1.685662e-001
1.444482e+003;1.677803e-001
1.446411e+003;1.675113e-001
1.448340e+003;1.686823e-001
1.450268e+003;1.713488e-001
1.452197e+003;1.738466e-001
1.454125e+003;1.748400e-001
1.456054e+003;1.740048e-001
1.457982e+003;1.786645e-001
1.459911e+003;1.866379e-001
1.461839e+003;1.903038e-001
1.463768e+003;1.883225e-001
1.465697e+003;1.835807e-001
1.467625e+003;1.781958e-001
1.469554e+003;1.721085e-001
1.471482e+003;1.661299e-001
1.473411e+003;1.641727e-001
1.475339e+003;1.647639e-001
1.477268e+003;1.635809e-001
1.479196e+003;1.603494e-001
1.481125e+003;1.554229e-001
1.483053e+003;1.503466e-001
1.484982e+003;1.456248e-001
1.486911e+003;1.423500e-001
1.488839e+003;1.411513e-001
1.490768e+003;1.430197e-001
1.492696e+003;1.471521e-001
1.494625e+003;1.502409e-001
1.496553e+003;1.538513e-001
1.498482e+003;1.605624e-001
1.500410e+003;1.684132e-001
1.502339e+003;1.757063e-001
1.504267e+003;1.796622e-001
1.506196e+003;1.836140e-001
1.508125e+003;1.941898e-001
1.510053e+003;2.062885e-001
1.511982e+003;2.159655e-001
1.513910e+003;2.246707e-001
1.515839e+003;2.320430e-001
1.517767e+003;2.396098e-001
1.519696e+003;2.463835e-001
1.521624e+003;2.543151e-001
1.523553e+003;2.653328e-001
1.525481e+003;2.748345e-001
1.527410e+003;2.840210e-001
1.529339e+003;2.921576e-001
1.531267e+003;2.978580e-001
1.533196e+003;3.014631e-001
1.535124e+003;3.054927e-001
1.537053e+003;3.052492e-001
1.538981e+003;2.992817e-001
1.540910e+003;2.960569e-001
1.542838e+003;2.944027e-001
1.544767e+003;2.893493e-001
1.546695e+003;2.815716e-001
1.548624e+003;2.713261e-001
1.550553e+003;2.605785e-001
1.552481e+003;2.491610e-001
1.554410e+003;2.368669e-001
1.556338e+003;2.239611e-001
1.558267e+003;2.091707e-001
1.560195e+003;2.005317e-001
1.562124e+003;1.962876e-001
1.564052e+003;1.886157e-001
1.565981e+003;1.796755e-001
1.567910e+003;1.701198e-001
1.569838e+003;1.612323e-001
1.571767e+003;1.555636e-001
1.573695e+003;1.486280e-001
1.575624e+003;1.399695e-001
1.577552e+003;1.365023e-001
1.579481e+003;1.353253e-001
1.581409e+003;1.325477e-001
1.583338e+003;1.301862e-001
1.585266e+003;1.289997e-001
1.587195e+003;1.288534e-001
1.589124e+003;1.290762e-001
1.591052e+003;1.301335e-001
1.592981e+003;1.320268e-001
1.594909e+003;1.347414e-001
1.596838e+003;1.386402e-001
1.598766e+003;1.435085e-001
1.600695e+003;1.491030e-001
1.602623e+003;1.555324e-001
1.604552e+003;1.629309e-001
1.606480e+003;1.711770e-001
1.608409e+003;1.803619e-001
1.610338e+003;1.908595e-001
1.612266e+003;2.029034e-001
1.614195e+003;2.148995e-001
1.616123e+003;2.269547e-001
1.618052e+003;2.446422e-001
1.619980e+003;2.634534e-001
1.621909e+003;2.791885e-001
1.623837e+003;2.952790e-001
1.625766e+003;3.117535e-001
1.627694e+003;3.268156e-001
1.629623e+003;3.417740e-001
1.631552e+003;3.559107e-001
1.633480e+003;3.652793e-001
1.635409e+003;3.699326e-001
1.637337e+003;3.718370e-001
1.639266e+003;3.662691e-001
1.641194e+003;3.533609e-001
1.643123e+003;3.358488e-001
1.645051e+003;3.149417e-001
1.646980e+003;2.957403e-001
1.648909e+003;2.800229e-001
1.650837e+003;2.608291e-001
1.652766e+003;2.411050e-001
1.654694e+003;2.323619e-001
1.656623e+003;2.259518e-001
1.658551e+003;2.159026e-001
1.660480e+003;2.051360e-001
1.662408e+003;1.944111e-001
1.664337e+003;1.857113e-001
1.666266e+003;1.768079e-001
1.668194e+003;1.659406e-001
1.670123e+003;1.564782e-001
1.672051e+003;1.493123e-001
1.673980e+003;1.402377e-001
1.675908e+003;1.315527e-001
1.677837e+003;1.244391e-001
1.679765e+003;1.154090e-001
1.681694e+003;1.042789e-001
1.683622e+003;9.150328e-002
1.685551e+003;8.495672e-002
1.687479e+003;8.249887e-002
1.689408e+003;7.800063e-002
1.691337e+003;7.385141e-002
1.693265e+003;6.874365e-002
1.695194e+003;6.189054e-002
1.697122e+003;5.978983e-002
1.699051e+003;5.715834e-002
1.700979e+003;5.598929e-002
1.702908e+003;5.882037e-002
1.704836e+003;5.840672e-002
1.706765e+003;5.810507e-002
1.708693e+003;5.829291e-002
1.710622e+003;5.810412e-002
1.712551e+003;5.684317e-002
1.714479e+003;5.450795e-002
1.716408e+003;5.119686e-002
1.718336e+003;5.134291e-002
1.720265e+003;5.463471e-002
1.722193e+003;5.581021e-002
1.724122e+003;5.564114e-002
1.726050e+003;5.554843e-002
1.727979e+003;5.487335e-002
1.729908e+003;5.366367e-002
1.731836e+003;5.077048e-002
1.733765e+003;4.772513e-002
1.735693e+003;4.954728e-002
1.737622e+003;5.042002e-002
1.739550e+003;4.836433e-002
1.741479e+003;4.786976e-002
1.743407e+003;4.734098e-002
1.745336e+003;4.628354e-002
1.747265e+003;4.476659e-002
1.749193e+003;4.289829e-002
1.751122e+003;4.152327e-002
1.753050e+003;4.199139e-002
1.754979e+003;4.159106e-002
1.756907e+003;4.043384e-002
1.758836e+003;3.998345e-002
1.760764e+003;3.886287e-002
1.762693e+003;3.818050e-002
1.764621e+003;3.818491e-002
1.766550e+003;3.679240e-002
1.768479e+003;3.533138e-002
1.770407e+003;3.372998e-002
1.772336e+003;3.213185e-002
1.774264e+003;3.322925e-002
1.776193e+003;3.420891e-002
1.778121e+003;3.382248e-002
1.780050e+003;3.308030e-002
1.781978e+003;3.266429e-002
1.783907e+003;3.191552e-002
1.785835e+003;3.137467e-002
1.787764e+003;3.129995e-002
1.789693e+003;3.030529e-002
1.791621e+003;2.881869e-002
1.793550e+003;2.909357e-002
1.795478e+003;2.984522e-002
1.797407e+003;2.940355e-002
1.799335e+003;2.872763e-002
1.801264e+003;2.841488e-002
1.803192e+003;2.861585e-002
1.805121e+003;2.863100e-002
1.807049e+003;2.831856e-002
1.808978e+003;2.771065e-002
1.810907e+003;2.740971e-002
1.812835e+003;2.758815e-002
1.814764e+003;2.777073e-002
1.816692e+003;2.761784e-002
1.818621e+003;2.756749e-002
1.820549e+003;2.719014e-002
1.822478e+003;2.661762e-002
1.824406e+003;2.592969e-002
1.826335e+003;2.608811e-002
1.828264e+003;2.579870e-002
1.830192e+003;2.537938e-002
1.832121e+003;2.588520e-002
1.834049e+003;2.604043e-002
1.835978e+003;2.593919e-002
1.837906e+003;2.594992e-002
1.839835e+003;2.577704e-002
1.841763e+003;2.507493e-002
1.843692e+003;2.385102e-002
1.845620e+003;2.426921e-002
1.847549e+003;2.501175e-002
1.849478e+003;2.505910e-002
1.851406e+003;2.496654e-002
1.853335e+003;2.479865e-002
1.855263e+003;2.469528e-002
1.857192e+003;2.456339e-002
1.859120e+003;2.451602e-002
1.861049e+003;2.434518e-002
1.862977e+003;2.422997e-002
1.864906e+003;2.418061e-002
1.866834e+003;2.375820e-002
1.868763e+003;2.317774e-002
1.870692e+003;2.352623e-002
1.872620e+003;2.428011e-002
1.874549e+003;2.450806e-002
1.876477e+003;2.427461e-002
1.878406e+003;2.417626e-002
1.880334e+003;2.429388e-002
1.882263e+003;2.425040e-002
1.884191e+003;2.436214e-002
1.886120e+003;2.416162e-002
1.888048e+003;2.358738e-002
1.889977e+003;2.350157e-002
1.891906e+003;2.409759e-002
1.893834e+003;2.419364e-002
1.895763e+003;2.431816e-002
1.897691e+003;2.441331e-002
1.899620e+003;2.429045e-002
1.901548e+003;2.417949e-002
1.903477e+003;2.420674e-002
1.905405e+003;2.409097e-002
1.907334e+003;2.383317e-002
1.909262e+003;2.357814e-002
1.911191e+003;2.372023e-002
1.913120e+003;2.382008e-002
1.915048e+003;2.343431e-002
1.916977e+003;2.273162e-002
1.918905e+003;2.277788e-002
1.920834e+003;2.300075e-002
1.922762e+003;2.292201e-002
1.924691e+003;2.306822e-002
1.926619e+003;2.308541e-002
1.928548e+003;2.306298e-002
1.930477e+003;2.314946e-002
1.932405e+003;2.310015e-002
1.934334e+003;2.295928e-002
1.936262e+003;2.308583e-002
1.938191e+003;2.311287e-002
1.940119e+003;2.272114e-002
1.942048e+003;2.236935e-002
1.943976e+003;2.267202e-002
1.945905e+003;2.295893e-002
1.947833e+003;2.298157e-002
1.949762e+003;2.314342e-002
1.951691e+003;2.318973e-002
1.953619e+003;2.316205e-002
1.955548e+003;2.351906e-002
1.957476e+003;2.361729e-002
1.959405e+003;2.324506e-002
1.961333e+003;2.314821e-002
1.963262e+003;2.323618e-002
1.965190e+003;2.313776e-002
1.967119e+003;2.320367e-002
1.969047e+003;2.337197e-002
1.970976e+003;2.337627e-002
1.972905e+003;2.339637e-002
1.974833e+003;2.350391e-002
1.976762e+003;2.371134e-002
1.978690e+003;2.383320e-002
1.980619e+003;2.378858e-002
1.982547e+003;2.391123e-002
1.984476e+003;2.387878e-002
1.986404e+003;2.340977e-002
1.988333e+003;2.314604e-002
1.990261e+003;2.319731e-002
1.992190e+003;2.332795e-002
1.994119e+003;2.343071e-002
1.996047e+003;2.354991e-002
1.997976e+003;2.370392e-002
1.999904e+003;2.391505e-002
2.001833e+003;2.390048e-002
2.003761e+003;2.400104e-002
2.005690e+003;2.399393e-002
2.007618e+003;2.386835e-002
2.009547e+003;2.378182e-002
2.011476e+003;2.383607e-002
2.013404e+003;2.415409e-002
2.015333e+003;2.451406e-002
2.017261e+003;2.466270e-002
2.019190e+003;2.467767e-002
2.021118e+003;2.458905e-002
2.023047e+003;2.460059e-002
2.024975e+003;2.468679e-002
2.026904e+003;2.482110e-002
2.028833e+003;2.486439e-002
2.030761e+003;2.482654e-002
2.032690e+003;2.517674e-002
2.034618e+003;2.538233e-002
2.036547e+003;2.544842e-002
2.038475e+003;2.571984e-002
2.040404e+003;2.568662e-002
2.042332e+003;2.545600e-002
2.044261e+003;2.533031e-002
2.046189e+003;2.543647e-002
2.048118e+003;2.560742e-002
2.050047e+003;2.591788e-002
2.051975e+003;2.602260e-002
2.053904e+003;2.597254e-002
2.055832e+003;2.611735e-002
2.057761e+003;2.605904e-002
2.059689e+003;2.596097e-002
2.061618e+003;2.593736e-002
2.063546e+003;2.583186e-002
2.065475e+003;2.599530e-002
2.067404e+003;2.630997e-002
2.069332e+003;2.637158e-002
2.071260e+003;2.614634e-002
2.073189e+003;2.597943e-002
2.075118e+003;2.611601e-002
2.077046e+003;2.616425e-002
2.078975e+003;2.598042e-002
2.080903e+003;2.586846e-002
2.082832e+003;2.572789e-002
2.084760e+003;2.556497e-002
2.086689e+003;2.537840e-002
2.088617e+003;2.535307e-002
2.090546e+003;2.537355e-002
2.092475e+003;2.519809e-002
2.094403e+003;2.493664e-002
2.096332e+003;2.494587e-002
2.098260e+003;2.505296e-002
2.100189e+003;2.517695e-002
2.102117e+003;2.527208e-002
2.104046e+003;2.510803e-002
2.105974e+003;2.496002e-002
2.107903e+003;2.510368e-002
2.109832e+003;2.517032e-002
2.111760e+003;2.512962e-002
2.113688e+003;2.529817e-002
2.115617e+003;2.514405e-002
2.117546e+003;2.500620e-002
2.119474e+003;2.535406e-002
2.121403e+003;2.583361e-002
2.123331e+003;2.596856e-002
2.125260e+003;2.572363e-002
2.127188e+003;2.558978e-002
2.129117e+003;2.571899e-002
2.131045e+003;2.576523e-002
2.132974e+003;2.547058e-002
2.134903e+003;2.519377e-002
2.136831e+003;2.514820e-002
2.138760e+003;2.525364e-002
2.140688e+003;2.521435e-002
2.142617e+003;2.540692e-002
2.144545e+003;2.558665e-002
2.146474e+003;2.556732e-002
2.148402e+003;2.552937e-002
2.150331e+003;2.548784e-002
2.152260e+003;2.563157e-002
2.154188e+003;2.576994e-002
2.156117e+003;2.574156e-002
2.158045e+003;2.578098e-002
2.159974e+003;2.590617e-002
2.161902e+003;2.595048e-002
2.163831e+003;2.599765e-002
2.165759e+003;2.625956e-002
2.167688e+003;2.629885e-002
2.169616e+003;2.630357e-002
2.171545e+003;2.644243e-002
2.173474e+003;2.653889e-002
2.175402e+003;2.650631e-002
2.177331e+003;2.666719e-002
2.179259e+003;2.668237e-002
2.181188e+003;2.643824e-002
2.183116e+003;2.639493e-002
2.185045e+003;2.653258e-002
2.186973e+003;2.659937e-002
2.188902e+003;2.693962e-002
2.190831e+003;2.717067e-002
2.192759e+003;2.689731e-002
2.194688e+003;2.653963e-002
2.196616e+003;2.645074e-002
2.198545e+003;2.669805e-002
2.200473e+003;2.657122e-002
2.202402e+003;2.625770e-002
2.204330e+003;2.650786e-002
2.206259e+003;2.635880e-002
2.208188e+003;2.602668e-002
2.210116e+003;2.600772e-002
2.212044e+003;2.624541e-002
2.213973e+003;2.623943e-002
2.215902e+003;2.591341e-002
2.217830e+003;2.561013e-002
2.219759e+003;2.551735e-002
2.221687e+003;2.533857e-002
2.223616e+003;2.507984e-002
2.225544e+003;2.504618e-002
2.227473e+003;2.509206e-002
2.229401e+003;2.501944e-002
2.231330e+003;2.488047e-002
2.233259e+003;2.473551e-002
2.235187e+003;2.483370e-002
2.237116e+003;2.527865e-002
2.239044e+003;2.536326e-002
2.240973e+003;2.498139e-002
2.242901e+003;2.509768e-002
2.244830e+003;2.547438e-002
2.246758e+003;2.560236e-002
2.248687e+003;2.566275e-002
2.250615e+003;2.554866e-002
2.252544e+003;2.532617e-002
2.254473e+003;2.539997e-002
2.256401e+003;2.567291e-002
2.258330e+003;2.560352e-002
2.260258e+003;2.549666e-002
2.262187e+003;2.557284e-002
2.264115e+003;2.538848e-002
2.266044e+003;2.550446e-002
2.267972e+003;2.585869e-002
2.269901e+003;2.583108e-002
2.271830e+003;2.562067e-002
2.273758e+003;2.590708e-002
2.275687e+003;2.619952e-002
2.277615e+003;2.599966e-002
2.279544e+003;2.613258e-002
2.281472e+003;2.627639e-002
2.283401e+003;2.599709e-002
2.285329e+003;2.597542e-002
2.287258e+003;2.623531e-002
2.289187e+003;2.647303e-002
2.291115e+003;2.638795e-002
2.293043e+003;2.630561e-002
2.294972e+003;2.664207e-002
2.296901e+003;2.684275e-002
2.298829e+003;2.663981e-002
2.300758e+003;2.656527e-002
2.302686e+003;2.683937e-002
2.304615e+003;2.700371e-002
2.306543e+003;2.718209e-002
2.308472e+003;2.733751e-002
2.310400e+003;2.734033e-002
2.312329e+003;2.736270e-002
2.314258e+003;2.736732e-002
2.316186e+003;2.747200e-002
2.318115e+003;2.757473e-002
2.320043e+003;2.719677e-002
2.321972e+003;2.702656e-002
2.323900e+003;2.711057e-002
2.325829e+003;2.700530e-002
2.327757e+003;2.711769e-002
2.329686e+003;2.713984e-002
2.331615e+003;2.697533e-002
2.333543e+003;2.685234e-002
2.335472e+003;2.683563e-002
2.337400e+003;2.679453e-002
2.339329e+003;2.684670e-002
2.341257e+003;2.664397e-002
2.343186e+003;2.657771e-002
2.345114e+003;2.668438e-002
2.347043e+003;2.681388e-002
2.348971e+003;2.685064e-002
2.350900e+003;2.671207e-002
2.352829e+003;2.667737e-002
2.354757e+003;2.645433e-002
2.356686e+003;2.621261e-002
2.358614e+003;2.644869e-002
2.360543e+003;2.650138e-002
2.362471e+003;2.637422e-002
2.364400e+003;2.632293e-002
2.366328e+003;2.629790e-002
2.368257e+003;2.645958e-002
2.370186e+003;2.660236e-002
2.372114e+003;2.664658e-002
2.374042e+003;2.702519e-002
2.375971e+003;2.713377e-002
2.377900e+003;2.705234e-002
2.379828e+003;2.736789e-002
2.381757e+003;2.757844e-002
2.383685e+003;2.749908e-002
2.385614e+003;2.726845e-002
2.387542e+003;2.706528e-002
2.389471e+003;2.692009e-002
2.391399e+003;2.704032e-002
2.393328e+003;2.734686e-002
2.395257e+003;2.751623e-002
2.397185e+003;2.748648e-002
2.399114e+003;2.746096e-002
2.401042e+003;2.770288e-002
2.402971e+003;2.772714e-002
2.404899e+003;2.750370e-002
2.406828e+003;2.737735e-002
2.408756e+003;2.759334e-002
2.410685e+003;2.775508e-002
2.412614e+003;2.779616e-002
2.414542e+003;2.775462e-002
2.416471e+003;2.766802e-002
2.418399e+003;2.796713e-002
2.420328e+003;2.826403e-002
2.422256e+003;2.804357e-002
2.424185e+003;2.793370e-002
2.426113e+003;2.820448e-002
2.428042e+003;2.838166e-002
2.429970e+003;2.827538e-002
2.431899e+003;2.837604e-002
2.433828e+003;2.847286e-002
2.435756e+003;2.838711e-002
2.437685e+003;2.846373e-002
2.439613e+003;2.883738e-002
2.441542e+003;2.916213e-002
2.443470e+003;2.924807e-002
2.445399e+003;2.925066e-002
2.447327e+003;2.933651e-002
2.449256e+003;2.961161e-002
2.451185e+003;3.014689e-002
2.453113e+003;3.036932e-002
2.455042e+003;3.022724e-002
2.456970e+003;3.024209e-002
2.458899e+003;3.015251e-002
2.460827e+003;2.983681e-002
2.462756e+003;2.987237e-002
2.464684e+003;3.025051e-002
2.466613e+003;3.081009e-002
2.468542e+003;3.108432e-002
2.470470e+003;3.087779e-002
2.472398e+003;3.069898e-002
2.474327e+003;3.094126e-002
2.476256e+003;3.125174e-002
2.478184e+003;3.128336e-002
2.480113e+003;3.119420e-002
2.482041e+003;3.121464e-002
2.483970e+003;3.136723e-002
2.485898e+003;3.154969e-002
2.487827e+003;3.166903e-002
2.489755e+003;3.129892e-002
2.491684e+003;3.089846e-002
2.493613e+003;3.109919e-002
2.495541e+003;3.109222e-002
2.497470e+003;3.115102e-002
2.499398e+003;3.157798e-002
2.501327e+003;3.157246e-002
2.503255e+003;3.116298e-002
2.505184e+003;3.126805e-002
2.507112e+003;3.160385e-002
2.509041e+003;3.171548e-002
2.510969e+003;3.196809e-002
2.512898e+003;3.214670e-002
2.514827e+003;3.231275e-002
2.516755e+003;3.260857e-002
2.518684e+003;3.276886e-002
2.520612e+003;3.286249e-002
2.522541e+003;3.331911e-002
2.524469e+003;3.360910e-002
2.526398e+003;3.360401e-002
2.528326e+003;3.397191e-002
2.530255e+003;3.449997e-002
2.532184e+003;3.458148e-002
2.534112e+003;3.457531e-002
2.536041e+003;3.488789e-002
2.537969e+003;3.515565e-002
2.539898e+003;3.517365e-002
2.541826e+003;3.538015e-002
2.543755e+003;3.566947e-002
2.545683e+003;3.595780e-002
2.547612e+003;3.609427e-002
2.549541e+003;3.611973e-002
2.551469e+003;3.609719e-002
2.553397e+003;3.600744e-002
2.555326e+003;3.607256e-002
2.557255e+003;3.616917e-002
2.559183e+003;3.628680e-002
2.561112e+003;3.662565e-002
2.563040e+003;3.667182e-002
2.564969e+003;3.641037e-002
2.566897e+003;3.647823e-002
2.568826e+003;3.642064e-002
2.570754e+003;3.662680e-002
2.572683e+003;3.697947e-002
2.574612e+003;3.702923e-002
2.576540e+003;3.722011e-002
2.578469e+003;3.754346e-002
2.580397e+003;3.788585e-002
2.582326e+003;3.803755e-002
2.584254e+003;3.799144e-002
2.586183e+003;3.808981e-002
2.588111e+003;3.844255e-002
2.590040e+003;3.856623e-002
2.591969e+003;3.857427e-002
2.593897e+003;3.856750e-002
2.595826e+003;3.866829e-002
2.597754e+003;3.889033e-002
2.599683e+003;3.900830e-002
2.601611e+003;3.902447e-002
2.603540e+003;3.903335e-002
2.605468e+003;3.900860e-002
2.607397e+003;3.919625e-002
2.609325e+003;3.933426e-002
2.611254e+003;3.956928e-002
2.613183e+003;3.994945e-002
2.615111e+003;4.004838e-002
2.617040e+003;4.007701e-002
2.618968e+003;4.022198e-002
2.620897e+003;4.023227e-002
2.622825e+003;4.022838e-002
2.624754e+003;4.040086e-002
2.626682e+003;4.048458e-002
2.628611e+003;4.050462e-002
2.630540e+003;4.057330e-002
2.632468e+003;4.071509e-002
2.634396e+003;4.103147e-002
2.636325e+003;4.119422e-002
2.638254e+003;4.141810e-002
2.640182e+003;4.165155e-002
2.642111e+003;4.160108e-002
2.644039e+003;4.154052e-002
2.645968e+003;4.158726e-002
2.647896e+003;4.184889e-002
2.649825e+003;4.193348e-002
2.651753e+003;4.196304e-002
2.653682e+003;4.193636e-002
2.655611e+003;4.191297e-002
2.657539e+003;4.193775e-002
2.659468e+003;4.213971e-002
2.661396e+003;4.258613e-002
2.663325e+003;4.285272e-002
2.665253e+003;4.306872e-002
2.667182e+003;4.334110e-002
2.669110e+003;4.373404e-002
2.671039e+003;4.389314e-002
2.672968e+003;4.387331e-002
2.674896e+003;4.380935e-002
2.676825e+003;4.392716e-002
2.678753e+003;4.414785e-002
2.680682e+003;4.462145e-002
2.682610e+003;4.535620e-002
2.684539e+003;4.587064e-002
2.686467e+003;4.578635e-002
2.688396e+003;4.573286e-002
2.690324e+003;4.596643e-002
2.692253e+003;4.645847e-002
2.694182e+003;4.723262e-002
2.696110e+003;4.773109e-002
2.698039e+003;4.805085e-002
2.699967e+003;4.837982e-002
2.701896e+003;4.870084e-002
2.703824e+003;4.886340e-002
2.705753e+003;4.885272e-002
2.707681e+003;4.916804e-002
2.709610e+003;4.964471e-002
2.711539e+003;5.046211e-002
2.713467e+003;5.107699e-002
2.715396e+003;5.136305e-002
2.717324e+003;5.155452e-002
2.719253e+003;5.209481e-002
2.721181e+003;5.272286e-002
2.723110e+003;5.306961e-002
2.725038e+003;5.351621e-002
2.726967e+003;5.415585e-002
2.728896e+003;5.445743e-002
2.730824e+003;5.455694e-002
2.732752e+003;5.494674e-002
2.734681e+003;5.541910e-002
2.736610e+003;5.591229e-002
2.738538e+003;5.633210e-002
2.740467e+003;5.672369e-002
2.742395e+003;5.715868e-002
2.744324e+003;5.755124e-002
2.746252e+003;5.773566e-002
2.748181e+003;5.749658e-002
2.750109e+003;5.738611e-002
2.752038e+003;5.775515e-002
2.753967e+003;5.826521e-002
2.755895e+003;5.859203e-002
2.757824e+003;5.881661e-002
2.759752e+003;5.902746e-002
2.761681e+003;5.911852e-002
2.763609e+003;5.907570e-002
2.765538e+003;5.940055e-002
2.767466e+003;5.973568e-002
2.769395e+003;5.999654e-002
2.771323e+003;6.051803e-002
2.773252e+003;6.102361e-002
2.775181e+003;6.130894e-002
2.777109e+003;6.154374e-002
2.779038e+003;6.222626e-002
2.780966e+003;6.283055e-002
2.782895e+003;6.318454e-002
2.784823e+003;6.368947e-002
2.786752e+003;6.461600e-002
2.788680e+003;6.530945e-002
2.790609e+003;6.584173e-002
2.792538e+003;6.656012e-002
2.794466e+003;6.729008e-002
2.796395e+003;6.786705e-002
2.798323e+003;6.850697e-002
2.800252e+003;6.938934e-002
2.802180e+003;6.984830e-002
2.804109e+003;7.034421e-002
2.806037e+003;7.083663e-002
2.807966e+003;7.124344e-002
2.809895e+003;7.215377e-002
2.811823e+003;7.334379e-002
2.813751e+003;7.396583e-002
2.815680e+003;7.479981e-002
2.817609e+003;7.570364e-002
2.819537e+003;7.658891e-002
2.821466e+003;7.768250e-002
2.823394e+003;7.881285e-002
2.825323e+003;7.983500e-002
2.827251e+003;8.074829e-002
2.829180e+003;8.177261e-002
2.831108e+003;8.322290e-002
2.833037e+003;8.508866e-002
2.834966e+003;8.705234e-002
2.836894e+003;8.955762e-002
2.838823e+003;9.296277e-002
2.840751e+003;9.676408e-002
2.842680e+003;1.008186e-001
2.844608e+003;1.053722e-001
2.846537e+003;1.104166e-001
2.848465e+003;1.152827e-001
2.850394e+003;1.198681e-001
2.852323e+003;1.243297e-001
2.854251e+003;1.287767e-001
2.856180e+003;1.332334e-001
2.858108e+003;1.361735e-001
2.860037e+003;1.373002e-001
2.861965e+003;1.377370e-001
2.863894e+003;1.373783e-001
2.865822e+003;1.358872e-001
2.867751e+003;1.336966e-001
2.869679e+003;1.309987e-001
2.871608e+003;1.278978e-001
2.873536e+003;1.246377e-001
2.875465e+003;1.216825e-001
2.877394e+003;1.186082e-001
2.879322e+003;1.157835e-001
2.881251e+003;1.135317e-001
2.883179e+003;1.119646e-001
2.885108e+003;1.114679e-001
2.887036e+003;1.114193e-001
2.888965e+003;1.118895e-001
2.890893e+003;1.133427e-001
2.892822e+003;1.149566e-001
2.894750e+003;1.167460e-001
2.896679e+003;1.189372e-001
2.898608e+003;1.208683e-001
2.900536e+003;1.224215e-001
2.902465e+003;1.240530e-001
2.904393e+003;1.259261e-001
2.906322e+003;1.274617e-001
2.908250e+003;1.289392e-001
2.910179e+003;1.310388e-001
2.912107e+003;1.332997e-001
2.914036e+003;1.352981e-001
2.915965e+003;1.375839e-001
2.917893e+003;1.405378e-001
2.919822e+003;1.433613e-001
2.921750e+003;1.464478e-001
2.923679e+003;1.504414e-001
2.925607e+003;1.542246e-001
2.927536e+003;1.570410e-001
2.929464e+003;1.594635e-001
2.931393e+003;1.616008e-001
2.933322e+003;1.629874e-001
2.935250e+003;1.632277e-001
2.937178e+003;1.619642e-001
2.939107e+003;1.603515e-001
2.941036e+003;1.581444e-001
2.942964e+003;1.550662e-001
2.944893e+003;1.511216e-001
2.946821e+003;1.457282e-001
2.948750e+003;1.398626e-001
2.950678e+003;1.336284e-001
2.952607e+003;1.275363e-001
2.954535e+003;1.217117e-001
2.956464e+003;1.159045e-001
2.958393e+003;1.104783e-001
2.960321e+003;1.054271e-001
2.962250e+003;1.009587e-001
2.964178e+003;9.752227e-002
2.966107e+003;9.417803e-002
2.968035e+003;9.045133e-002
2.969964e+003;8.744586e-002
2.971892e+003;8.488734e-002
2.973821e+003;8.202575e-002
2.975750e+003;7.953927e-002
2.977678e+003;7.743773e-002
2.979607e+003;7.530615e-002
2.981535e+003;7.339032e-002
2.983464e+003;7.181420e-002
2.985392e+003;7.044411e-002
2.987321e+003;6.910079e-002
2.989249e+003;6.783234e-002
2.991178e+003;6.688583e-002
2.993106e+003;6.596606e-002
2.995035e+003;6.513677e-002
2.996964e+003;6.451489e-002
2.998892e+003;6.384355e-002
3.000821e+003;6.358984e-002
3.002749e+003;6.354716e-002
3.004678e+003;6.327043e-002
3.006606e+003;6.303085e-002
3.008535e+003;6.301845e-002
3.010463e+003;6.310124e-002
3.012392e+003;6.367071e-002
3.014321e+003;6.399034e-002
3.016249e+003;6.401887e-002
3.018177e+003;6.418339e-002
3.020106e+003;6.472325e-002
3.022035e+003;6.578359e-002
3.023963e+003;6.631985e-002
3.025892e+003;6.628765e-002
3.027820e+003;6.665792e-002
3.029749e+003;6.716316e-002
3.031677e+003;6.811442e-002
3.033606e+003;6.923142e-002
3.035534e+003;6.987254e-002
3.037463e+003;7.052163e-002
3.039392e+003;7.127433e-002
3.041320e+003;7.176037e-002
3.043249e+003;7.232916e-002
3.045177e+003;7.316498e-002
3.047106e+003;7.391661e-002
3.049034e+003;7.468127e-002
3.050963e+003;7.574762e-002
3.052891e+003;7.696392e-002
3.054820e+003;7.792577e-002
3.056749e+003;7.864726e-002
3.058677e+003;7.931254e-002
3.060606e+003;8.021872e-002
3.062534e+003;8.085173e-002
3.064463e+003;8.123145e-002
3.066391e+003;8.153288e-002
3.068320e+003;8.186498e-002
3.070248e+003;8.232991e-002
3.072177e+003;8.293682e-002
3.074105e+003;8.297243e-002
3.076034e+003;8.231669e-002
3.077963e+003;8.212242e-002
3.079891e+003;8.257837e-002
3.081820e+003;8.250873e-002
3.083748e+003;8.175645e-002
3.085677e+003;8.134591e-002
3.087605e+003;8.096834e-002
3.089534e+003;8.043750e-002
3.091462e+003;7.982189e-002
3.093391e+003;7.920100e-002
3.095320e+003;7.870730e-002
3.097248e+003;7.808910e-002
3.099177e+003;7.672406e-002
3.101105e+003;7.574024e-002
3.103034e+003;7.541772e-002
3.104962e+003;7.500254e-002
3.106891e+003;7.425115e-002
3.108819e+003;7.342575e-002
3.110748e+003;7.284448e-002
3.112677e+003;7.212900e-002
3.114605e+003;7.123762e-002
3.116533e+003;7.058458e-002
3.118462e+003;6.993649e-002
3.120391e+003;6.925882e-002
3.122319e+003;6.886967e-002
3.124248e+003;6.856571e-002
3.126176e+003;6.846965e-002
3.128105e+003;6.837354e-002
3.130033e+003;6.797731e-002
3.131962e+003;6.787049e-002
3.133890e+003;6.804276e-002
3.135819e+003;6.795309e-002
3.137748e+003;6.767266e-002
3.139676e+003;6.781211e-002
3.141605e+003;6.830509e-002
3.143533e+003;6.893288e-002
3.145462e+003;6.889413e-002
3.147390e+003;6.876034e-002
3.149319e+003;6.911051e-002
3.151247e+003;6.956489e-002
3.153176e+003;7.018719e-002
3.155104e+003;7.066707e-002
3.157033e+003;7.118383e-002
3.158962e+003;7.166779e-002
3.160890e+003;7.195214e-002
3.162819e+003;7.258919e-002
3.164747e+003;7.308362e-002
3.166676e+003;7.336172e-002
3.168604e+003;7.414741e-002
3.170533e+003;7.510730e-002
3.172461e+003;7.604124e-002
3.174390e+003;7.666571e-002
3.176319e+003;7.684486e-002
3.178247e+003;7.735754e-002
3.180176e+003;7.824750e-002
3.182104e+003;7.926574e-002
3.184033e+003;8.024658e-002
3.185961e+003;8.101122e-002
3.187890e+003;8.131547e-002
3.189818e+003;8.164188e-002
3.191747e+003;8.232510e-002
3.193676e+003;8.326653e-002
3.195604e+003;8.371272e-002
3.197532e+003;8.391193e-002
3.199461e+003;8.449114e-002
3.201390e+003;8.497626e-002
3.203318e+003;8.552478e-002
3.205247e+003;8.621302e-002
3.207175e+003;8.680559e-002
3.209104e+003;8.688851e-002
3.211032e+003;8.739046e-002
3.212961e+003;8.837043e-002
3.214889e+003;8.860414e-002
3.216818e+003;8.878592e-002
3.218747e+003;8.994127e-002
3.220675e+003;9.104106e-002
3.222604e+003;9.181374e-002
3.224532e+003;9.251604e-002
3.226461e+003;9.340026e-002
3.228389e+003;9.449094e-002
3.230318e+003;9.573584e-002
3.232246e+003;9.723435e-002
3.234175e+003;9.861716e-002
3.236104e+003;9.981621e-002
3.238032e+003;1.013375e-001
3.239961e+003;1.029224e-001
3.241889e+003;1.046251e-001
3.243818e+003;1.064343e-001
3.245746e+003;1.083304e-001
3.247675e+003;1.100457e-001
3.249603e+003;1.117948e-001
3.251532e+003;1.143051e-001
3.253460e+003;1.164086e-001
3.255389e+003;1.181042e-001
3.257318e+003;1.201796e-001
3.259246e+003;1.225766e-001
3.261175e+003;1.246922e-001
3.263103e+003;1.263403e-001
3.265032e+003;1.279667e-001
3.266960e+003;1.298219e-001
3.268889e+003;1.316911e-001
3.270817e+003;1.334565e-001
3.272746e+003;1.351520e-001
3.274675e+003;1.370934e-001
3.276603e+003;1.390654e-001
3.278531e+003;1.403063e-001
3.280460e+003;1.414199e-001
3.282389e+003;1.426924e-001
3.284317e+003;1.440554e-001
3.286246e+003;1.452734e-001
3.288174e+003;1.456658e-001
3.290103e+003;1.460075e-001
3.292031e+003;1.460912e-001
3.293960e+003;1.458357e-001
3.295888e+003;1.450848e-001
3.297817e+003;1.438344e-001
3.299746e+003;1.423695e-001
3.301674e+003;1.403174e-001
3.303603e+003;1.381593e-001
3.305531e+003;1.358608e-001
3.307460e+003;1.332426e-001
3.309388e+003;1.309355e-001
3.311317e+003;1.289293e-001
3.313245e+003;1.271756e-001
3.315174e+003;1.249914e-001
3.317103e+003;1.226420e-001
3.319031e+003;1.200972e-001
3.320960e+003;1.174983e-001
3.322888e+003;1.152676e-001
3.324817e+003;1.128115e-001
3.326745e+003;1.103259e-001
3.328674e+003;1.083791e-001
3.330602e+003;1.060412e-001
3.332531e+003;1.038295e-001
3.334459e+003;1.015080e-001
3.336388e+003;9.961903e-002
3.338317e+003;9.785856e-002
3.340245e+003;9.551904e-002
3.342174e+003;9.360857e-002
3.344102e+003;9.266429e-002
3.346031e+003;9.116280e-002
3.347959e+003;8.917337e-002
3.349888e+003;8.746555e-002
3.351816e+003;8.551534e-002
3.353745e+003;8.380843e-002
3.355674e+003;8.266963e-002
3.357602e+003;8.158829e-002
3.359531e+003;8.007155e-002
3.361459e+003;7.859150e-002
3.363388e+003;7.740224e-002
3.365316e+003;7.628547e-002
3.367245e+003;7.523100e-002
3.369173e+003;7.417190e-002
3.371102e+003;7.339157e-002
3.373031e+003;7.274485e-002
3.374959e+003;7.180662e-002
3.376887e+003;7.041255e-002
3.378816e+003;6.925015e-002
3.380745e+003;6.841255e-002
3.382673e+003;6.779841e-002
3.384602e+003;6.722566e-002
3.386530e+003;6.640022e-002
3.388459e+003;6.560836e-002
3.390387e+003;6.545012e-002
3.392316e+003;6.515744e-002
3.394244e+003;6.443809e-002
3.396173e+003;6.364973e-002
3.398102e+003;6.326012e-002
3.400030e+003;6.294797e-002
3.401959e+003;6.236035e-002
3.403887e+003;6.201348e-002
3.405816e+003;6.149931e-002
3.407744e+003;6.086257e-002
3.409673e+003;6.127486e-002
3.411601e+003;6.120173e-002
3.413530e+003;6.027057e-002
3.415458e+003;5.985858e-002
3.417387e+003;5.947745e-002
3.419316e+003;5.898612e-002
3.421244e+003;5.889690e-002
3.423173e+003;5.878175e-002
3.425101e+003;5.780295e-002
3.427030e+003;5.692218e-002
3.428958e+003;5.703813e-002
3.430887e+003;5.758041e-002
3.432815e+003;5.798093e-002
3.434744e+003;5.780087e-002
3.436673e+003;5.750430e-002
3.438601e+003;5.730750e-002
3.440530e+003;5.714987e-002
3.442458e+003;5.674963e-002
3.444387e+003;5.631463e-002
3.446315e+003;5.574854e-002
3.448244e+003;5.536705e-002
3.450172e+003;5.479809e-002
3.452101e+003;5.395614e-002
3.454030e+003;5.343327e-002
3.455958e+003;5.333222e-002
3.457886e+003;5.278964e-002
3.459815e+003;5.187513e-002
3.461744e+003;5.145241e-002
3.463672e+003;5.120950e-002
3.465601e+003;5.082013e-002
3.467529e+003;5.082389e-002
3.469458e+003;5.062556e-002
3.471386e+003;5.003515e-002
3.473315e+003;4.965232e-002
3.475243e+003;4.932284e-002
3.477172e+003;4.872819e-002
3.479101e+003;4.845334e-002
3.481029e+003;4.839263e-002
3.482958e+003;4.828060e-002
3.484886e+003;4.810693e-002
3.486815e+003;4.779692e-002
3.488743e+003;4.753508e-002
3.490672e+003;4.740624e-002
3.492600e+003;4.701206e-002
3.494529e+003;4.649461e-002
3.496458e+003;4.646504e-002
3.498386e+003;4.657442e-002
3.500315e+003;4.657133e-002
3.502243e+003;4.628427e-002
3.504172e+003;4.605558e-002
3.506100e+003;4.573596e-002
3.508029e+003;4.529599e-002
3.509957e+003;4.544625e-002
3.511886e+003;4.520406e-002
3.513814e+003;4.476578e-002
3.515743e+003;4.456498e-002
3.517672e+003;4.421182e-002
3.519600e+003;4.377728e-002
3.521529e+003;4.355529e-002
3.523457e+003;4.331961e-002
3.525386e+003;4.291303e-002
3.527314e+003;4.214296e-002
3.529243e+003;4.151438e-002
3.531171e+003;4.110817e-002
3.533100e+003;4.126675e-002
3.535029e+003;4.156392e-002
3.536957e+003;4.092828e-002
3.538885e+003;4.019527e-002
3.540814e+003;3.968246e-002
3.542743e+003;3.873099e-002
3.544671e+003;3.749314e-002
3.546600e+003;3.704608e-002
3.548528e+003;3.756510e-002
3.550457e+003;3.747569e-002
3.552385e+003;3.697258e-002
3.554314e+003;3.651102e-002
3.556242e+003;3.622773e-002
3.558171e+003;3.589089e-002
3.560100e+003;3.513374e-002
3.562028e+003;3.458769e-002
3.563957e+003;3.407378e-002
3.565885e+003;3.256817e-002
3.567814e+003;3.226767e-002
3.569742e+003;3.331145e-002
3.571671e+003;3.312768e-002
3.573599e+003;3.244608e-002
3.575528e+003;3.231296e-002
3.577457e+003;3.196916e-002
3.579385e+003;3.123290e-002
3.581314e+003;3.093820e-002
3.583242e+003;3.068213e-002
3.585171e+003;2.919629e-002
3.587099e+003;2.783583e-002
3.589028e+003;2.835630e-002
3.590956e+003;2.899409e-002
3.592885e+003;2.827807e-002
3.594813e+003;2.782696e-002
3.596742e+003;2.786077e-002
3.598671e+003;2.757851e-002
3.600599e+003;2.693821e-002
3.602528e+003;2.689841e-002
3.604456e+003;2.652966e-002
3.606385e+003;2.550920e-002
3.608313e+003;2.447150e-002
3.610242e+003;2.443680e-002
3.612170e+003;2.474382e-002
3.614099e+003;2.479847e-002
3.616028e+003;2.404016e-002
3.617956e+003;2.271210e-002
3.619885e+003;2.276164e-002
3.621813e+003;2.436831e-002
3.623742e+003;2.440501e-002
3.625670e+003;2.235788e-002
3.627599e+003;1.913053e-002
3.629527e+003;1.915470e-002
3.631456e+003;2.194027e-002
3.633385e+003;2.251806e-002
3.635313e+003;2.256982e-002
3.637241e+003;2.275281e-002
3.639170e+003;2.243205e-002
3.641099e+003;2.196393e-002
3.643027e+003;2.162261e-002
3.644956e+003;2.014616e-002
3.646884e+003;1.700898e-002
3.648813e+003;1.552859e-002
3.650741e+003;1.751021e-002
3.652670e+003;1.955681e-002
3.654598e+003;1.908956e-002
3.656527e+003;1.889994e-002
3.658456e+003;1.989478e-002
3.660384e+003;2.010618e-002
3.662313e+003;1.981854e-002
3.664241e+003;1.939699e-002
3.666170e+003;1.862960e-002
3.668098e+003;1.658329e-002
3.670027e+003;1.513468e-002
3.671955e+003;1.624982e-002
3.673884e+003;1.502044e-002
3.675813e+003;1.472073e-002
3.677741e+003;1.747378e-002
3.679669e+003;1.823463e-002
3.681598e+003;1.817064e-002
3.683527e+003;1.812732e-002
3.685455e+003;1.712194e-002
3.687384e+003;1.386018e-002
3.689312e+003;1.369595e-002
3.691241e+003;1.585257e-002
3.693169e+003;1.734744e-002
3.695098e+003;1.747564e-002
3.697026e+003;1.722125e-002
3.698955e+003;1.660043e-002
3.700884e+003;1.552203e-002
3.702812e+003;1.568675e-002
3.704741e+003;1.591127e-002
3.706669e+003;1.524318e-002
3.708598e+003;1.442633e-002
3.710526e+003;1.303197e-002
3.712455e+003;1.281449e-002
3.714383e+003;1.499280e-002
3.716312e+003;1.603523e-002
3.718240e+003;1.593533e-002
3.720169e+003;1.525341e-002
3.722098e+003;1.491979e-002
3.724026e+003;1.504658e-002
3.725955e+003;1.477187e-002
3.727883e+003;1.508229e-002
3.729812e+003;1.471720e-002
3.731740e+003;1.268282e-002
3.733669e+003;1.177284e-002
3.735597e+003;1.173298e-002
3.737526e+003;1.354397e-002
3.739455e+003;1.519061e-002
3.741383e+003;1.406935e-002
3.743312e+003;9.403082e-003
3.745240e+003;9.857710e-003
3.747169e+003;1.234438e-002
3.749097e+003;1.060173e-002
3.751026e+003;1.033816e-002
3.752954e+003;1.328791e-002
3.754883e+003;1.586512e-002
3.756812e+003;1.566384e-002
3.758740e+003;1.504459e-002
3.760668e+003;1.514586e-002
3.762597e+003;1.576522e-002
3.764526e+003;1.505296e-002
3.766454e+003;1.522204e-002
3.768383e+003;1.515002e-002
3.770311e+003;1.497359e-002
3.772240e+003;1.556568e-002
3.774168e+003;1.599260e-002
3.776097e+003;1.591179e-002
3.778025e+003;1.563664e-002
3.779954e+003;1.578814e-002
3.781883e+003;1.647322e-002
3.783811e+003;1.695750e-002
3.785740e+003;1.730010e-002
3.787668e+003;1.695657e-002
3.789597e+003;1.690475e-002
3.791525e+003;1.655314e-002
3.793454e+003;1.632450e-002
3.795382e+003;1.573461e-002
3.797311e+003;1.569514e-002
3.799240e+003;1.427540e-002
3.801168e+003;1.268920e-002
3.803097e+003;1.458502e-002
3.805025e+003;1.461901e-002
3.806954e+003;1.389494e-002
3.808882e+003;1.597383e-002
3.810811e+003;1.714907e-002
3.812739e+003;1.679174e-002
3.814668e+003;1.495384e-002
3.816596e+003;1.506308e-002
3.818525e+003;1.569933e-002
3.820454e+003;1.410864e-002
3.822382e+003;1.510507e-002
3.824311e+003;1.654343e-002
3.826239e+003;1.643199e-002
3.828168e+003;1.671687e-002
3.830096e+003;1.648740e-002
3.832025e+003;1.625849e-002
3.833953e+003;1.589117e-002
3.835882e+003;1.418320e-002
3.837811e+003;1.307304e-002
3.839739e+003;1.443116e-002
3.841667e+003;1.578388e-002
3.843596e+003;1.664033e-002
3.845525e+003;1.786326e-002
3.847453e+003;1.853270e-002
3.849382e+003;1.711222e-002
3.851310e+003;1.300964e-002
3.853239e+003;9.524653e-003
3.855167e+003;1.318424e-002
3.857096e+003;1.709175e-002
3.859024e+003;1.732886e-002
3.860953e+003;1.655475e-002
3.862882e+003;1.603554e-002
3.864810e+003;1.620889e-002
3.866739e+003;1.668974e-002
3.868667e+003;1.495737e-002
3.870596e+003;1.521010e-002
3.872524e+003;1.710915e-002
3.874453e+003;1.768542e-002
3.876381e+003;1.799900e-002
3.878310e+003;1.747761e-002
3.880239e+003;1.747157e-002
3.882167e+003;1.801468e-002
3.884096e+003;1.695805e-002
3.886024e+003;1.664026e-002
3.887953e+003;1.831190e-002
3.889881e+003;1.804386e-002
3.891810e+003;1.770016e-002
3.893738e+003;1.891624e-002
3.895667e+003;1.945347e-002
3.897595e+003;1.836980e-002
3.899524e+003;1.712222e-002
3.901453e+003;1.649531e-002
3.903381e+003;1.632398e-002
3.905310e+003;1.803464e-002
3.907238e+003;2.004840e-002
3.909167e+003;2.057775e-002
3.911095e+003;2.039081e-002
3.913024e+003;2.012728e-002
3.914952e+003;1.961612e-002
3.916881e+003;1.909410e-002
3.918810e+003;1.950728e-002
3.920738e+003;2.027136e-002
3.922667e+003;2.060516e-002
3.924595e+003;2.023845e-002
3.926524e+003;1.990393e-002
3.928452e+003;2.002029e-002
3.930381e+003;2.003663e-002
3.932309e+003;1.981798e-002
3.934238e+003;2.071847e-002
3.936167e+003;2.167708e-002
3.938095e+003;2.211438e-002
3.940023e+003;2.211222e-002
3.941952e+003;2.147205e-002
3.943881e+003;2.131514e-002
3.945809e+003;2.125397e-002
3.947738e+003;2.065752e-002
3.949666e+003;2.088744e-002
3.951595e+003;2.156345e-002
3.953523e+003;2.194731e-002
3.955452e+003;2.210786e-002
3.957380e+003;2.206739e-002
3.959309e+003;2.238823e-002
3.961238e+003;2.286658e-002
3.963166e+003;2.325142e-002
3.965095e+003;2.338760e-002
3.967023e+003;2.320070e-002
3.968952e+003;2.302713e-002
3.970880e+003;2.277903e-002
3.972809e+003;2.239109e-002
3.974737e+003;2.261345e-002
3.976666e+003;2.315058e-002
3.978594e+003;2.337878e-002
3.980523e+003;2.334081e-002
3.982452e+003;2.346670e-002
3.984380e+003;2.406901e-002
3.986309e+003;2.422769e-002
3.988237e+003;2.404632e-002
3.990166e+003;2.387395e-002
3.992094e+003;2.408800e-002
3.994023e+003;2.465694e-002
3.995951e+003;2.516224e-002
3.997880e+003;2.511418e-002
3.999809e+003;2.471667e-002
4.001737e+003;0.000000e+000
