3.992094e+002;0.000000e+000
4.011380e+002;0.000000e+000
4.030665e+002;0.000000e+000
4.049951e+002;0.000000e+000
4.069236e+002;0.000000e+000
4.088522e+002;0.000000e+000
4.107807e+002;0.000000e+000
4.127093e+002;0.000000e+000
4.146378e+002;0.000000e+000
4.165664e+002;0.000000e+000
4.184949e+002;0.000000e+000
4.204235e+002;0.000000e+000
4.223520e+002;0.000000e+000
4.242806e+002;0.000000e+000
4.262091e+002;0.000000e+000
4.281377e+002;0.000000e+000
4.300662e+002;0.000000e+000
4.319948e+002;0.000000e+000
4.339233e+002;0.000000e+000
4.358519e+002;0.000000e+000
4.377804e+002;0.000000e+000
4.397090e+002;0.000000e+000
4.416375e+002;0.000000e+000
4.435660e+002;0.000000e+000
4.454946e+002;0.000000e+000
4.474232e+002;0.000000e+000
4.493517e+002;0.000000e+000
4.512802e+002;0.000000e+000
4.532088e+002;0.000000e+000
4.551373e+002;0.000000e+000
4.570659e+002;0.000000e+000
4.589944e+002;0.000000e+000
4.609230e+002;0.000000e+000
4.628515e+002;0.000000e+000
4.647801e+002;0.000000e+000
4.667086e+002;0.000000e+000
4.686372e+002;0.000000e+000
4.705657e+002;0.000000e+000
4.724943e+002;0.000000e+000
4.744228e+002;0.000000e+000
4.763513e+002;0.000000e+000
4.782799e+002;0.000000e+000
4.802085e+002;0.000000e+000
4.821370e+002;0.000000e+000
4.840656e+002;0.000000e+000
4.859941e+002;0.000000e+000
4.879226e+002;0.000000e+000
4.898512e+002;0.000000e+000
4.917798e+002;0.000000e+000
4.937083e+002;0.000000e+000
4.956368e+002;0.000000e+000
4.975654e+002;0.000000e+000
4.994939e+002;0.000000e+000
5.014225e+002;0.000000e+000
5.033510e+002;0.000000e+000
5.052796e+002;0.000000e+000
5.072081e+002;0.000000e+000
5.091367e+002;0.000000e+000
5.110652e+002;0.000000e+000
5.129938e+002;0.000000e+000
5.149223e+002;0.000000e+000
5.168509e+002;0.000000e+000
5.187794e+002;0.000000e+000
5.207079e+002;0.000000e+000
5.226365e+002;0.000000e+000
5.245651e+002;0.000000e+000
5.264936e+002;0.000000e+000
5.284222e+002;0.000000e+000
5.303507e+002;0.000000e+000
5.322792e+002;0.000000e+000
5.342078e+002;0.000000e+000
5.361364e+002;0.000000e+000
5.380649e+002;0.000000e+000
5.399935e+002;0.000000e+000
5.419220e+002;0.000000e+000
5.438505e+002;0.000000e+000
5.457791e+002;0.000000e+000
5.477076e+002;0.000000e+000
5.496362e+002;0.000000e+000
5.515648e+002;0.000000e+000
5.534933e+002;0.000000e+000
5.554218e+002;0.000000e+000
5.573504e+002;0.000000e+000
5.592789e+002;0.000000e+000
5.612075e+002;0.000000e+000
5.631360e+002;0.000000e+000
5.650646e+002;0.000000e+000
5.669931e+002;0.000000e+000
5.689217e+002;0.000000e+000
5.708502e+002;0.000000e+000
5.727787e+002;0.000000e+000
5.747073e+002;0.000000e+000
5.766359e+002;0.000000e+000
5.785644e+002;0.000000e+000
5.804930e+002;0.000000e+000
5.824215e+002;0.000000e+000
5.843500e+002;0.000000e+000
5.862786e+002;0.000000e+000
5.882072e+002;0.000000e+000
5.901357e+002;0.000000e+000
5.920643e+002;0.000000e+000
5.939928e+002;0.000000e+000
5.959213e+002;0.000000e+000
5.978499e+002;0.000000e+000
5.997784e+002;1.143381e-001
6.017070e+002;1.137227e-001
6.036355e+002;1.162244e-001
6.055641e+002;1.162293e-001
6.074926e+002;1.154329e-001
6.094211e+002;1.135668e-001
6.113497e+002;1.144094e-001
6.132783e+002;1.162640e-001
6.152068e+002;1.143367e-001
6.171354e+002;1.128365e-001
6.190639e+002;1.127031e-001
6.209924e+002;1.093790e-001
6.229210e+002;1.102190e-001
6.248495e+002;1.157003e-001
6.267781e+002;1.154519e-001
6.287067e+002;1.105687e-001
6.306352e+002;1.107789e-001
6.325637e+002;1.105258e-001
6.344923e+002;1.090167e-001
6.364208e+002;1.097878e-001
6.383494e+002;1.101557e-001
6.402780e+002;1.091286e-001
6.422065e+002;1.150629e-001
6.441350e+002;1.230825e-001
6.460636e+002;1.241892e-001
6.479921e+002;1.247394e-001
6.499207e+002;1.243712e-001
6.518492e+002;1.264875e-001
6.537778e+002;1.295724e-001
6.557063e+002;1.292881e-001
6.576349e+002;1.285156e-001
6.595634e+002;1.297708e-001
6.614919e+002;1.339016e-001
6.634205e+002;1.388404e-001
6.653491e+002;1.422591e-001
6.672776e+002;1.439128e-001
6.692062e+002;1.439486e-001
6.711347e+002;1.438034e-001
6.730632e+002;1.455162e-001
6.749918e+002;1.486614e-001
6.769203e+002;1.495160e-001
6.788489e+002;1.504102e-001
6.807775e+002;1.529545e-001
6.827060e+002;1.540160e-001
6.846345e+002;1.544320e-001
6.865631e+002;1.538778e-001
6.884916e+002;1.513867e-001
6.904202e+002;1.502530e-001
6.923488e+002;1.505783e-001
6.942773e+002;1.481470e-001
6.962058e+002;1.437979e-001
6.981344e+002;1.415136e-001
7.000629e+002;1.399796e-001
7.019915e+002;1.384241e-001
7.039200e+002;1.361272e-001
7.058486e+002;1.350740e-001
7.077771e+002;1.350795e-001
7.097057e+002;1.334383e-001
7.116342e+002;1.317239e-001
7.135627e+002;1.303842e-001
7.154913e+002;1.276068e-001
7.174199e+002;1.249499e-001
7.193484e+002;1.238490e-001
7.212770e+002;1.234705e-001
7.232055e+002;1.237085e-001
7.251340e+002;1.250406e-001
7.270626e+002;1.261832e-001
7.289911e+002;1.252479e-001
7.309197e+002;1.213399e-001
7.328483e+002;1.161409e-001
7.347768e+002;1.109213e-001
7.367053e+002;1.062020e-001
7.386339e+002;1.024676e-001
7.405624e+002;9.981171e-002
7.424910e+002;9.842829e-002
7.444196e+002;9.750422e-002
7.463481e+002;9.578508e-002
7.482766e+002;9.382195e-002
7.502052e+002;9.239454e-002
7.521337e+002;9.054430e-002
7.540623e+002;8.920743e-002
7.559908e+002;8.782148e-002
7.579194e+002;8.637416e-002
7.598479e+002;8.595613e-002
7.617765e+002;8.537173e-002
7.637050e+002;8.375061e-002
7.656335e+002;8.287269e-002
7.675621e+002;8.209132e-002
7.694907e+002;8.133516e-002
7.714192e+002;8.086897e-002
7.733478e+002;8.039348e-002
7.752763e+002;7.986558e-002
7.772048e+002;7.946617e-002
7.791334e+002;7.903176e-002
7.810620e+002;7.812611e-002
7.829905e+002;7.709681e-002
7.849191e+002;7.559179e-002
7.868476e+002;7.365432e-002
7.887761e+002;7.298169e-002
7.907047e+002;7.244690e-002
7.926332e+002;7.105803e-002
7.945618e+002;7.011966e-002
7.964903e+002;6.980320e-002
7.984189e+002;6.950723e-002
8.003474e+002;6.818858e-002
8.022759e+002;6.737469e-002
8.042045e+002;6.665456e-002
8.061331e+002;6.557692e-002
8.080616e+002;6.572013e-002
8.099902e+002;6.608634e-002
8.119187e+002;6.523710e-002
8.138472e+002;6.365080e-002
8.157758e+002;6.268226e-002
8.177043e+002;6.263067e-002
8.196329e+002;6.273510e-002
8.215615e+002;6.267947e-002
8.234900e+002;6.306135e-002
8.254185e+002;6.308629e-002
8.273471e+002;6.303607e-002
8.292756e+002;6.425811e-002
8.312042e+002;6.544796e-002
8.331328e+002;6.611408e-002
8.350613e+002;6.569003e-002
8.369898e+002;6.402217e-002
8.389184e+002;6.266466e-002
8.408469e+002;6.215584e-002
8.427755e+002;6.121233e-002
8.447040e+002;5.986896e-002
8.466326e+002;5.858941e-002
8.485611e+002;5.822372e-002
8.504897e+002;5.843424e-002
8.524182e+002;5.859036e-002
8.543467e+002;5.861023e-002
8.562753e+002;5.843337e-002
8.582039e+002;5.860185e-002
8.601324e+002;5.840539e-002
8.620610e+002;5.770073e-002
8.639895e+002;5.775538e-002
8.659180e+002;5.826559e-002
8.678466e+002;5.871494e-002
8.697751e+002;5.841589e-002
8.717037e+002;5.866928e-002
8.736323e+002;5.917783e-002
8.755608e+002;5.935200e-002
8.774893e+002;5.971462e-002
8.794179e+002;5.950815e-002
8.813464e+002;5.908045e-002
8.832750e+002;5.928208e-002
8.852036e+002;5.971926e-002
8.871321e+002;6.018279e-002
8.890606e+002;6.018264e-002
8.909892e+002;6.000468e-002
8.929177e+002;6.015353e-002
8.948463e+002;6.043695e-002
8.967748e+002;6.075741e-002
8.987034e+002;6.098006e-002
9.006319e+002;6.098654e-002
9.025605e+002;6.137186e-002
9.044890e+002;6.198157e-002
9.064175e+002;6.251908e-002
9.083461e+002;6.285287e-002
9.102747e+002;6.334691e-002
9.122032e+002;6.398132e-002
9.141318e+002;6.470798e-002
9.160603e+002;6.516641e-002
9.179888e+002;6.530391e-002
9.199174e+002;6.596494e-002
9.218459e+002;6.707355e-002
9.237745e+002;6.840243e-002
9.257031e+002;6.996467e-002
9.276316e+002;7.099186e-002
9.295601e+002;7.105710e-002
9.314887e+002;7.038832e-002
9.334172e+002;6.903335e-002
9.353458e+002;6.715353e-002
9.372744e+002;6.584593e-002
9.392029e+002;6.541918e-002
9.411314e+002;6.578185e-002
9.430600e+002;6.669451e-002
9.449885e+002;6.736312e-002
9.469171e+002;6.856893e-002
9.488456e+002;7.011538e-002
9.507742e+002;7.121326e-002
9.527027e+002;7.188395e-002
9.546313e+002;7.252880e-002
9.565598e+002;7.348426e-002
9.584883e+002;7.399644e-002
9.604169e+002;7.402669e-002
9.623455e+002;7.371196e-002
9.642740e+002;7.304292e-002
9.662026e+002;7.304598e-002
9.681311e+002;7.360298e-002
9.700596e+002;7.398709e-002
9.719882e+002;7.423448e-002
9.739167e+002;7.422575e-002
9.758453e+002;7.402041e-002
9.777739e+002;7.301124e-002
9.797024e+002;7.149029e-002
9.816309e+002;7.044420e-002
9.835595e+002;6.971628e-002
9.854880e+002;6.903242e-002
9.874166e+002;6.834006e-002
9.893452e+002;6.761129e-002
9.912737e+002;6.686600e-002
9.932022e+002;6.618654e-002
9.951307e+002;6.591500e-002
9.970593e+002;6.557930e-002
9.989879e+002;6.541510e-002
1.000916e+003;6.562177e-002
1.002845e+003;6.567789e-002
1.004773e+003;6.597836e-002
1.006702e+003;6.604243e-002
1.008631e+003;6.549384e-002
1.010559e+003;6.502349e-002
1.012488e+003;6.494425e-002
1.014416e+003;6.489812e-002
1.016345e+003;6.495360e-002
1.018273e+003;6.494741e-002
1.020202e+003;6.468429e-002
1.022130e+003;6.528281e-002
1.024059e+003;6.701444e-002
1.025988e+003;6.819866e-002
1.027916e+003;6.905557e-002
1.029845e+003;6.982332e-002
1.031773e+003;6.920367e-002
1.033702e+003;6.835589e-002
1.035630e+003;6.797189e-002
1.037559e+003;6.707279e-002
1.039487e+003;6.622621e-002
1.041416e+003;6.565531e-002
1.043344e+003;6.513242e-002
1.045273e+003;6.487061e-002
1.047202e+003;6.475987e-002
1.049130e+003;6.519771e-002
1.051059e+003;6.618079e-002
1.052987e+003;6.674485e-002
1.054916e+003;6.744969e-002
1.056844e+003;6.861414e-002
1.058773e+003;6.999122e-002
1.060701e+003;7.093798e-002
1.062630e+003;7.118145e-002
1.064558e+003;7.191715e-002
1.066487e+003;7.302403e-002
1.068416e+003;7.358288e-002
1.070344e+003;7.404744e-002
1.072273e+003;7.438530e-002
1.074201e+003;7.422268e-002
1.076130e+003;7.393833e-002
1.078058e+003;7.350493e-002
1.079987e+003;7.326208e-002
1.081915e+003;7.285111e-002
1.083844e+003;7.210322e-002
1.085773e+003;7.206845e-002
1.087701e+003;7.230399e-002
1.089630e+003;7.177749e-002
1.091558e+003;7.104391e-002
1.093487e+003;7.086787e-002
1.095415e+003;7.120741e-002
1.097344e+003;7.243167e-002
1.099272e+003;7.365432e-002
1.101201e+003;7.489079e-002
1.103129e+003;7.638453e-002
1.105058e+003;7.748862e-002
1.106987e+003;7.861648e-002
1.108915e+003;7.960593e-002
1.110844e+003;8.028999e-002
1.112772e+003;8.140989e-002
1.114701e+003;8.239187e-002
1.116629e+003;8.296898e-002
1.118558e+003;8.350994e-002
1.120486e+003;8.388395e-002
1.122415e+003;8.298839e-002
1.124344e+003;8.106788e-002
1.126272e+003;7.866103e-002
1.128201e+003;7.655701e-002
1.130129e+003;7.473739e-002
1.132058e+003;7.300968e-002
1.133986e+003;7.176217e-002
1.135915e+003;7.145892e-002
1.137843e+003;7.195339e-002
1.139772e+003;7.241229e-002
1.141700e+003;7.347484e-002
1.143629e+003;7.543088e-002
1.145557e+003;7.723878e-002
1.147486e+003;7.855323e-002
1.149415e+003;8.023278e-002
1.151343e+003;8.269183e-002
1.153272e+003;8.538263e-002
1.155200e+003;8.801958e-002
1.157129e+003;9.109769e-002
1.159057e+003;9.477638e-002
1.160986e+003;9.951890e-002
1.162914e+003;1.042965e-001
1.164843e+003;1.089261e-001
1.166771e+003;1.132656e-001
1.168700e+003;1.152795e-001
1.170629e+003;1.137845e-001
1.172557e+003;1.103280e-001
1.174486e+003;1.057902e-001
1.176414e+003;1.006850e-001
1.178343e+003;9.680255e-002
1.180271e+003;9.444395e-002
1.182200e+003;9.331379e-002
1.184128e+003;9.377412e-002
1.186057e+003;9.546579e-002
1.187986e+003;9.776588e-002
1.189914e+003;1.001706e-001
1.191843e+003;1.034912e-001
1.193771e+003;1.077423e-001
1.195700e+003;1.119775e-001
1.197628e+003;1.158610e-001
1.199557e+003;1.178149e-001
1.201485e+003;1.165292e-001
1.203414e+003;1.132407e-001
1.205343e+003;1.102938e-001
1.207271e+003;1.089771e-001
1.209200e+003;1.087463e-001
1.211128e+003;1.087988e-001
1.213057e+003;1.088358e-001
1.214985e+003;1.079904e-001
1.216914e+003;1.055422e-001
1.218842e+003;1.024458e-001
1.220771e+003;1.005156e-001
1.222699e+003;1.003717e-001
1.224628e+003;1.019662e-001
1.226557e+003;1.048204e-001
1.228485e+003;1.085154e-001
1.230414e+003;1.126637e-001
1.232342e+003;1.164723e-001
1.234271e+003;1.189266e-001
1.236199e+003;1.194156e-001
1.238128e+003;1.183646e-001
1.240056e+003;1.172381e-001
1.241985e+003;1.164280e-001
1.243913e+003;1.161183e-001
1.245842e+003;1.166374e-001
1.247771e+003;1.177305e-001
1.249699e+003;1.191472e-001
1.251628e+003;1.209009e-001
1.253556e+003;1.232874e-001
1.255485e+003;1.262818e-001
1.257413e+003;1.292062e-001
1.259342e+003;1.313844e-001
1.261270e+003;1.326108e-001
1.263199e+003;1.327091e-001
1.265127e+003;1.306121e-001
1.267056e+003;1.262266e-001
1.268985e+003;1.210967e-001
1.270913e+003;1.167735e-001
1.272842e+003;1.143109e-001
1.274770e+003;1.132722e-001
1.276699e+003;1.124734e-001
1.278627e+003;1.114853e-001
1.280556e+003;1.099274e-001
1.282484e+003;1.078786e-001
1.284413e+003;1.061887e-001
1.286342e+003;1.048845e-001
1.288270e+003;1.038223e-001
1.290199e+003;1.033518e-001
1.292127e+003;1.032416e-001
1.294056e+003;1.029772e-001
1.295984e+003;1.023272e-001
1.297913e+003;1.017771e-001
1.299841e+003;1.016534e-001
1.301770e+003;1.012981e-001
1.303698e+003;1.004319e-001
1.305627e+003;9.957069e-002
1.307556e+003;9.881600e-002
1.309484e+003;9.772928e-002
1.311413e+003;9.653927e-002
1.313341e+003;9.561025e-002
1.315270e+003;9.457789e-002
1.317198e+003;9.371488e-002
1.319127e+003;9.312464e-002
1.321055e+003;9.254798e-002
1.322984e+003;9.191482e-002
1.324912e+003;9.137899e-002
1.326841e+003;9.117702e-002
1.328770e+003;9.146843e-002
1.330698e+003;9.205094e-002
1.332627e+003;9.220283e-002
1.334555e+003;9.213962e-002
1.336484e+003;9.246832e-002
1.338412e+003;9.277020e-002
1.340341e+003;9.319181e-002
1.342269e+003;9.380504e-002
1.344198e+003;9.446091e-002
1.346126e+003;9.513051e-002
1.348055e+003;9.571292e-002
1.349984e+003;9.652173e-002
1.351912e+003;9.762630e-002
1.353841e+003;9.884304e-002
1.355769e+003;1.001852e-001
1.357698e+003;1.017636e-001
1.359626e+003;1.032783e-001
1.361555e+003;1.045403e-001
1.363483e+003;1.055449e-001
1.365412e+003;1.066159e-001
1.367341e+003;1.076663e-001
1.369269e+003;1.085103e-001
1.371198e+003;1.085597e-001
1.373126e+003;1.077560e-001
1.375055e+003;1.063088e-001
1.376983e+003;1.042857e-001
1.378912e+003;1.016653e-001
1.380840e+003;9.882640e-002
1.382769e+003;9.630743e-002
1.384698e+003;9.396521e-002
1.386626e+003;9.167696e-002
1.388555e+003;9.002548e-002
1.390483e+003;8.870764e-002
1.392412e+003;8.756793e-002
1.394340e+003;8.706047e-002
1.396269e+003;8.706533e-002
1.398197e+003;8.749003e-002
1.400126e+003;8.838376e-002
1.402054e+003;8.992460e-002
1.403983e+003;9.206847e-002
1.405911e+003;9.496938e-002
1.407840e+003;9.886946e-002
1.409769e+003;1.036174e-001
1.411697e+003;1.085405e-001
1.413626e+003;1.126749e-001
1.415554e+003;1.151956e-001
1.417483e+003;1.156104e-001
1.419411e+003;1.139905e-001
1.421340e+003;1.114668e-001
1.423268e+003;1.093773e-001
1.425197e+003;1.080428e-001
1.427125e+003;1.080478e-001
1.429054e+003;1.094894e-001
1.430983e+003;1.115831e-001
1.432911e+003;1.135067e-001
1.434840e+003;1.145765e-001
1.436768e+003;1.145288e-001
1.438697e+003;1.143005e-001
1.440625e+003;1.135884e-001
1.442554e+003;1.126131e-001
1.444482e+003;1.120262e-001
1.446411e+003;1.117028e-001
1.448340e+003;1.119998e-001
1.450268e+003;1.133714e-001
1.452197e+003;1.150053e-001
1.454125e+003;1.163364e-001
1.456054e+003;1.182088e-001
1.457982e+003;1.219737e-001
1.459911e+003;1.270548e-001
1.461839e+003;1.301137e-001
1.463768e+003;1.283087e-001
1.465697e+003;1.224372e-001
1.467625e+003;1.159192e-001
1.469554e+003;1.114046e-001
1.471482e+003;1.093619e-001
1.473411e+003;1.099121e-001
1.475339e+003;1.113580e-001
1.477268e+003;1.111727e-001
1.479196e+003;1.089877e-001
1.481125e+003;1.051753e-001
1.483053e+003;1.002654e-001
1.484982e+003;9.609523e-002
1.486911e+003;9.388968e-002
1.488839e+003;9.363081e-002
1.490768e+003;9.475989e-002
1.492696e+003;9.645677e-002
1.494625e+003;9.840211e-002
1.496553e+003;1.008955e-001
1.498482e+003;1.038881e-001
1.500410e+003;1.073085e-001
1.502339e+003;1.109988e-001
1.504267e+003;1.146208e-001
1.506196e+003;1.185966e-001
1.508125e+003;1.233015e-001
1.510053e+003;1.281916e-001
1.511982e+003;1.333666e-001
1.513910e+003;1.390650e-001
1.515839e+003;1.450732e-001
1.517767e+003;1.516003e-001
1.519696e+003;1.583489e-001
1.521624e+003;1.656376e-001
1.523553e+003;1.737034e-001
1.525481e+003;1.816995e-001
1.527410e+003;1.897988e-001
1.529339e+003;1.978485e-001
1.531267e+003;2.053187e-001
1.533196e+003;2.120159e-001
1.535124e+003;2.173814e-001
1.537053e+003;2.203202e-001
1.538981e+003;2.200127e-001
1.540910e+003;2.175492e-001
1.542838e+003;2.133202e-001
1.544767e+003;2.066437e-001
1.546695e+003;1.983310e-001
1.548624e+003;1.896871e-001
1.550553e+003;1.815581e-001
1.552481e+003;1.742274e-001
1.554410e+003;1.674075e-001
1.556338e+003;1.611019e-001
1.558267e+003;1.549908e-001
1.560195e+003;1.497964e-001
1.562124e+003;1.451589e-001
1.564052e+003;1.399632e-001
1.565981e+003;1.340688e-001
1.567910e+003;1.276973e-001
1.569838e+003;1.212010e-001
1.571767e+003;1.150737e-001
1.573695e+003;1.090371e-001
1.575624e+003;1.031231e-001
1.577552e+003;9.830633e-002
1.579481e+003;9.492832e-002
1.581409e+003;9.230515e-002
1.583338e+003;9.034313e-002
1.585266e+003;8.899605e-002
1.587195e+003;8.840244e-002
1.589124e+003;8.845682e-002
1.591052e+003;8.899671e-002
1.592981e+003;9.017581e-002
1.594909e+003;9.204373e-002
1.596838e+003;9.471831e-002
1.598766e+003;9.793481e-002
1.600695e+003;1.016236e-001
1.602623e+003;1.061643e-001
1.604552e+003;1.116035e-001
1.606480e+003;1.176508e-001
1.608409e+003;1.237345e-001
1.610338e+003;1.302550e-001
1.612266e+003;1.373049e-001
1.614195e+003;1.448117e-001
1.616123e+003;1.534989e-001
1.618052e+003;1.643635e-001
1.619980e+003;1.761741e-001
1.621909e+003;1.883682e-001
1.623837e+003;2.011673e-001
1.625766e+003;2.143625e-001
1.627694e+003;2.279482e-001
1.629623e+003;2.419422e-001
1.631552e+003;2.553964e-001
1.633480e+003;2.661135e-001
1.635409e+003;2.714919e-001
1.637337e+003;2.707598e-001
1.639266e+003;2.633594e-001
1.641194e+003;2.500866e-001
1.643123e+003;2.336101e-001
1.645051e+003;2.154048e-001
1.646980e+003;1.972691e-001
1.648909e+003;1.812557e-001
1.650837e+003;1.668773e-001
1.652766e+003;1.539796e-001
1.654694e+003;1.441015e-001
1.656623e+003;1.362806e-001
1.658551e+003;1.287890e-001
1.660480e+003;1.213704e-001
1.662408e+003;1.144295e-001
1.664337e+003;1.074153e-001
1.666266e+003;9.992355e-002
1.668194e+003;9.264460e-002
1.670123e+003;8.620340e-002
1.672051e+003;8.092259e-002
1.673980e+003;7.612936e-002
1.675908e+003;7.140139e-002
1.677837e+003;6.699518e-002
1.679765e+003;6.242232e-002
1.681694e+003;5.788817e-002
1.683622e+003;5.381187e-002
1.685551e+003;5.073726e-002
1.687479e+003;4.822113e-002
1.689408e+003;4.589977e-002
1.691337e+003;4.397504e-002
1.693265e+003;4.244512e-002
1.695194e+003;4.120897e-002
1.697122e+003;4.052160e-002
1.699051e+003;3.981778e-002
1.700979e+003;3.911177e-002
1.702908e+003;3.907214e-002
1.704836e+003;3.883551e-002
1.706765e+003;3.869368e-002
1.708693e+003;3.864677e-002
1.710622e+003;3.845989e-002
1.712551e+003;3.830407e-002
1.714479e+003;3.837349e-002
1.716408e+003;3.843636e-002
1.718336e+003;3.861211e-002
1.720265e+003;3.892414e-002
1.722193e+003;3.901824e-002
1.724122e+003;3.892878e-002
1.726050e+003;3.873378e-002
1.727979e+003;3.832470e-002
1.729908e+003;3.779215e-002
1.731836e+003;3.706455e-002
1.733765e+003;3.645322e-002
1.735693e+003;3.626469e-002
1.737622e+003;3.603440e-002
1.739550e+003;3.566469e-002
1.741479e+003;3.522705e-002
1.743407e+003;3.483487e-002
1.745336e+003;3.460365e-002
1.747265e+003;3.417697e-002
1.749193e+003;3.361648e-002
1.751122e+003;3.343125e-002
1.753050e+003;3.343074e-002
1.754979e+003;3.312349e-002
1.756907e+003;3.276504e-002
1.758836e+003;3.241277e-002
1.760764e+003;3.205876e-002
1.762693e+003;3.181943e-002
1.764621e+003;3.141595e-002
1.766550e+003;3.097321e-002
1.768479e+003;3.074518e-002
1.770407e+003;3.041843e-002
1.772336e+003;3.001963e-002
1.774264e+003;2.990716e-002
1.776193e+003;2.983798e-002
1.778121e+003;2.971730e-002
1.780050e+003;2.953425e-002
1.781978e+003;2.930468e-002
1.783907e+003;2.915426e-002
1.785835e+003;2.905793e-002
1.787764e+003;2.889220e-002
1.789693e+003;2.870603e-002
1.791621e+003;2.835145e-002
1.793550e+003;2.819596e-002
1.795478e+003;2.822740e-002
1.797407e+003;2.813155e-002
1.799335e+003;2.798158e-002
1.801264e+003;2.771241e-002
1.803192e+003;2.762886e-002
1.805121e+003;2.761844e-002
1.807049e+003;2.757293e-002
1.808978e+003;2.766693e-002
1.810907e+003;2.776401e-002
1.812835e+003;2.771294e-002
1.814764e+003;2.766227e-002
1.816692e+003;2.740180e-002
1.818621e+003;2.728613e-002
1.820549e+003;2.732463e-002
1.822478e+003;2.725332e-002
1.824406e+003;2.718799e-002
1.826335e+003;2.732921e-002
1.828264e+003;2.744324e-002
1.830192e+003;2.747416e-002
1.832121e+003;2.744723e-002
1.834049e+003;2.722499e-002
1.835978e+003;2.713917e-002
1.837906e+003;2.712083e-002
1.839835e+003;2.702339e-002
1.841763e+003;2.706264e-002
1.843692e+003;2.704095e-002
1.845620e+003;2.696754e-002
1.847549e+003;2.679577e-002
1.849478e+003;2.665042e-002
1.851406e+003;2.648905e-002
1.853335e+003;2.638327e-002
1.855263e+003;2.643232e-002
1.857192e+003;2.655742e-002
1.859120e+003;2.667451e-002
1.861049e+003;2.662840e-002
1.862977e+003;2.648740e-002
1.864906e+003;2.641774e-002
1.866834e+003;2.620948e-002
1.868763e+003;2.624767e-002
1.870692e+003;2.620163e-002
1.872620e+003;2.612899e-002
1.874549e+003;2.630311e-002
1.876477e+003;2.643736e-002
1.878406e+003;2.657422e-002
1.880334e+003;2.648976e-002
1.882263e+003;2.628635e-002
1.884191e+003;2.623760e-002
1.886120e+003;2.623045e-002
1.888048e+003;2.621018e-002
1.889977e+003;2.626224e-002
1.891906e+003;2.620543e-002
1.893834e+003;2.640246e-002
1.895763e+003;2.681596e-002
1.897691e+003;2.676187e-002
1.899620e+003;2.654111e-002
1.901548e+003;2.653692e-002
1.903477e+003;2.671563e-002
1.905405e+003;2.670038e-002
1.907334e+003;2.643542e-002
1.909262e+003;2.632497e-002
1.911191e+003;2.644278e-002
1.913120e+003;2.655875e-002
1.915048e+003;2.636655e-002
1.916977e+003;2.621627e-002
1.918905e+003;2.634014e-002
1.920834e+003;2.626358e-002
1.922762e+003;2.611650e-002
1.924691e+003;2.617442e-002
1.926619e+003;2.614099e-002
1.928548e+003;2.603424e-002
1.930477e+003;2.598749e-002
1.932405e+003;2.606928e-002
1.934334e+003;2.619976e-002
1.936262e+003;2.620054e-002
1.938191e+003;2.614529e-002
1.940119e+003;2.600962e-002
1.942048e+003;2.581041e-002
1.943976e+003;2.582180e-002
1.945905e+003;2.603220e-002
1.947833e+003;2.626329e-002
1.949762e+003;2.617893e-002
1.951691e+003;2.597577e-002
1.953619e+003;2.601067e-002
1.955548e+003;2.607512e-002
1.957476e+003;2.632191e-002
1.959405e+003;2.644162e-002
1.961333e+003;2.624123e-002
1.963262e+003;2.607407e-002
1.965190e+003;2.629536e-002
1.967119e+003;2.663590e-002
1.969047e+003;2.659997e-002
1.970976e+003;2.637957e-002
1.972905e+003;2.638521e-002
1.974833e+003;2.657978e-002
1.976762e+003;2.662639e-002
1.978690e+003;2.673484e-002
1.980619e+003;2.660025e-002
1.982547e+003;2.642207e-002
1.984476e+003;2.661624e-002
1.986404e+003;2.693359e-002
1.988333e+003;2.690567e-002
1.990261e+003;2.663425e-002
1.992190e+003;2.659898e-002
1.994119e+003;2.668251e-002
1.996047e+003;2.673026e-002
1.997976e+003;2.665137e-002
1.999904e+003;2.653424e-002
2.001833e+003;2.667476e-002
2.003761e+003;2.672747e-002
2.005690e+003;2.676867e-002
2.007618e+003;2.679091e-002
2.009547e+003;2.662734e-002
2.011476e+003;2.655058e-002
2.013404e+003;2.658426e-002
2.015333e+003;2.672635e-002
2.017261e+003;2.682608e-002
2.019190e+003;2.679165e-002
2.021118e+003;2.666194e-002
2.023047e+003;2.673212e-002
2.024975e+003;2.690454e-002
2.026904e+003;2.708024e-002
2.028833e+003;2.709879e-002
2.030761e+003;2.700981e-002
2.032690e+003;2.711078e-002
2.034618e+003;2.744860e-002
2.036547e+003;2.771319e-002
2.038475e+003;2.782523e-002
2.040404e+003;2.781679e-002
2.042332e+003;2.770178e-002
2.044261e+003;2.768646e-002
2.046189e+003;2.774971e-002
2.048118e+003;2.756238e-002
2.050047e+003;2.732191e-002
2.051975e+003;2.725110e-002
2.053904e+003;2.728557e-002
2.055832e+003;2.751581e-002
2.057761e+003;2.776405e-002
2.059689e+003;2.789412e-002
2.061618e+003;2.798861e-002
2.063546e+003;2.792370e-002
2.065475e+003;2.784869e-002
2.067404e+003;2.797702e-002
2.069332e+003;2.800886e-002
2.071260e+003;2.801759e-002
2.073189e+003;2.804180e-002
2.075118e+003;2.795840e-002
2.077046e+003;2.803028e-002
2.078975e+003;2.794348e-002
2.080903e+003;2.775236e-002
2.082832e+003;2.764570e-002
2.084760e+003;2.767600e-002
2.086689e+003;2.751376e-002
2.088617e+003;2.744267e-002
2.090546e+003;2.755221e-002
2.092475e+003;2.736422e-002
2.094403e+003;2.728151e-002
2.096332e+003;2.727343e-002
2.098260e+003;2.718506e-002
2.100189e+003;2.712340e-002
2.102117e+003;2.716386e-002
2.104046e+003;2.731323e-002
2.105974e+003;2.738790e-002
2.107903e+003;2.745482e-002
2.109832e+003;2.771054e-002
2.111760e+003;2.785681e-002
2.113688e+003;2.771676e-002
2.115617e+003;2.768483e-002
2.117546e+003;2.776910e-002
2.119474e+003;2.777666e-002
2.121403e+003;2.770627e-002
2.123331e+003;2.761357e-002
2.125260e+003;2.780386e-002
2.127188e+003;2.820982e-002
2.129117e+003;2.838198e-002
2.131045e+003;2.820105e-002
2.132974e+003;2.816330e-002
2.134903e+003;2.799314e-002
2.136831e+003;2.791522e-002
2.138760e+003;2.813572e-002
2.140688e+003;2.818108e-002
2.142617e+003;2.821753e-002
2.144545e+003;2.837731e-002
2.146474e+003;2.852919e-002
2.148402e+003;2.828270e-002
2.150331e+003;2.810040e-002
2.152260e+003;2.818603e-002
2.154188e+003;2.837919e-002
2.156117e+003;2.832514e-002
2.158045e+003;2.811034e-002
2.159974e+003;2.807789e-002
2.161902e+003;2.803116e-002
2.163831e+003;2.807425e-002
2.165759e+003;2.835358e-002
2.167688e+003;2.856553e-002
2.169616e+003;2.861864e-002
2.171545e+003;2.873035e-002
2.173474e+003;2.877478e-002
2.175402e+003;2.874812e-002
2.177331e+003;2.865128e-002
2.179259e+003;2.865202e-002
2.181188e+003;2.874253e-002
2.183116e+003;2.860644e-002
2.185045e+003;2.868982e-002
2.186973e+003;2.884751e-002
2.188902e+003;2.879957e-002
2.190831e+003;2.869202e-002
2.192759e+003;2.875482e-002
2.194688e+003;2.882587e-002
2.196616e+003;2.872802e-002
2.198545e+003;2.872681e-002
2.200473e+003;2.879390e-002
2.202402e+003;2.864218e-002
2.204330e+003;2.859355e-002
2.206259e+003;2.861436e-002
2.208188e+003;2.846957e-002
2.210116e+003;2.827510e-002
2.212044e+003;2.803293e-002
2.213973e+003;2.785611e-002
2.215902e+003;2.788833e-002
2.217830e+003;2.800006e-002
2.219759e+003;2.801653e-002
2.221687e+003;2.798995e-002
2.223616e+003;2.802166e-002
2.225544e+003;2.788706e-002
2.227473e+003;2.781347e-002
2.229401e+003;2.783551e-002
2.231330e+003;2.780958e-002
2.233259e+003;2.799200e-002
2.235187e+003;2.788794e-002
2.237116e+003;2.782724e-002
2.239044e+003;2.797720e-002
2.240973e+003;2.771549e-002
2.242901e+003;2.738878e-002
2.244830e+003;2.746544e-002
2.246758e+003;2.752319e-002
2.248687e+003;2.743932e-002
2.250615e+003;2.746180e-002
2.252544e+003;2.759556e-002
2.254473e+003;2.765859e-002
2.256401e+003;2.774922e-002
2.258330e+003;2.779891e-002
2.260258e+003;2.771609e-002
2.262187e+003;2.788833e-002
2.264115e+003;2.815478e-002
2.266044e+003;2.816245e-002
2.267972e+003;2.803434e-002
2.269901e+003;2.787635e-002
2.271830e+003;2.772075e-002
2.273758e+003;2.778274e-002
2.275687e+003;2.792137e-002
2.277615e+003;2.812833e-002
2.279544e+003;2.816718e-002
2.281472e+003;2.814406e-002
2.283401e+003;2.823408e-002
2.285329e+003;2.836910e-002
2.287258e+003;2.830484e-002
2.289187e+003;2.815534e-002
2.291115e+003;2.792447e-002
2.293043e+003;2.805516e-002
2.294972e+003;2.828843e-002
2.296901e+003;2.851970e-002
2.298829e+003;2.858566e-002
2.300758e+003;2.843331e-002
2.302686e+003;2.847657e-002
2.304615e+003;2.853195e-002
2.306543e+003;2.843769e-002
2.308472e+003;2.823224e-002
2.310400e+003;2.830251e-002
2.312329e+003;2.857646e-002
2.314258e+003;2.864618e-002
2.316186e+003;2.855926e-002
2.318115e+003;2.846069e-002
2.320043e+003;2.851719e-002
2.321972e+003;2.878399e-002
2.323900e+003;2.888292e-002
2.325829e+003;2.898173e-002
2.327757e+003;2.901949e-002
2.329686e+003;2.876583e-002
2.331615e+003;2.861213e-002
2.333543e+003;2.878583e-002
2.335472e+003;2.881129e-002
2.337400e+003;2.867134e-002
2.339329e+003;2.868642e-002
2.341257e+003;2.862095e-002
2.343186e+003;2.832309e-002
2.345114e+003;2.821467e-002
2.347043e+003;2.831124e-002
2.348971e+003;2.848570e-002
2.350900e+003;2.842276e-002
2.352829e+003;2.839492e-002
2.354757e+003;2.860534e-002
2.356686e+003;2.865949e-002
2.358614e+003;2.860966e-002
2.360543e+003;2.864208e-002
2.362471e+003;2.861019e-002
2.364400e+003;2.843398e-002
2.366328e+003;2.840310e-002
2.368257e+003;2.857632e-002
2.370186e+003;2.870809e-002
2.372114e+003;2.883140e-002
2.374042e+003;2.871690e-002
2.375971e+003;2.861061e-002
2.377900e+003;2.868451e-002
2.379828e+003;2.888873e-002
2.381757e+003;2.916582e-002
2.383685e+003;2.922415e-002
2.385614e+003;2.912514e-002
2.387542e+003;2.911174e-002
2.389471e+003;2.924148e-002
2.391399e+003;2.899778e-002
2.393328e+003;2.892694e-002
2.395257e+003;2.901156e-002
2.397185e+003;2.903377e-002
2.399114e+003;2.902959e-002
2.401042e+003;2.899551e-002
2.402971e+003;2.909775e-002
2.404899e+003;2.918261e-002
2.406828e+003;2.910579e-002
2.408756e+003;2.893034e-002
2.410685e+003;2.885533e-002
2.412614e+003;2.895007e-002
2.414542e+003;2.902102e-002
2.416471e+003;2.907316e-002
2.418399e+003;2.925236e-002
2.420328e+003;2.921702e-002
2.422256e+003;2.909910e-002
2.424185e+003;2.907617e-002
2.426113e+003;2.921096e-002
2.428042e+003;2.923180e-002
2.429970e+003;2.919612e-002
2.431899e+003;2.941791e-002
2.433828e+003;2.964347e-002
2.435756e+003;2.956763e-002
2.437685e+003;2.969317e-002
2.439613e+003;2.988732e-002
2.441542e+003;3.008510e-002
2.443470e+003;3.021065e-002
2.445399e+003;3.002090e-002
2.447327e+003;2.992356e-002
2.449256e+003;2.998810e-002
2.451185e+003;3.013301e-002
2.453113e+003;3.028277e-002
2.455042e+003;3.036495e-002
2.456970e+003;3.019680e-002
2.458899e+003;3.023939e-002
2.460827e+003;3.036839e-002
2.462756e+003;3.033425e-002
2.464684e+003;3.061727e-002
2.466613e+003;3.087348e-002
2.468542e+003;3.098325e-002
2.470470e+003;3.102687e-002
2.472398e+003;3.109663e-002
2.474327e+003;3.120182e-002
2.476256e+003;3.142863e-002
2.478184e+003;3.154210e-002
2.480113e+003;3.139789e-002
2.482041e+003;3.119054e-002
2.483970e+003;3.127987e-002
2.485898e+003;3.133916e-002
2.487827e+003;3.095969e-002
2.489755e+003;3.078601e-002
2.491684e+003;3.108457e-002
2.493613e+003;3.098100e-002
2.495541e+003;3.103008e-002
2.497470e+003;3.120421e-002
2.499398e+003;3.104630e-002
2.501327e+003;3.104872e-002
2.503255e+003;3.117420e-002
2.505184e+003;3.116184e-002
2.507112e+003;3.092204e-002
2.509041e+003;3.093649e-002
2.510969e+003;3.141061e-002
2.512898e+003;3.163029e-002
2.514827e+003;3.154267e-002
2.516755e+003;3.153871e-002
2.518684e+003;3.167851e-002
2.520612e+003;3.197565e-002
2.522541e+003;3.228312e-002
2.524469e+003;3.237900e-002
2.526398e+003;3.245115e-002
2.528326e+003;3.252310e-002
2.530255e+003;3.268623e-002
2.532184e+003;3.274081e-002
2.534112e+003;3.289580e-002
2.536041e+003;3.314094e-002
2.537969e+003;3.327042e-002
2.539898e+003;3.328269e-002
2.541826e+003;3.324953e-002
2.543755e+003;3.331435e-002
2.545683e+003;3.338913e-002
2.547612e+003;3.342896e-002
2.549541e+003;3.381901e-002
2.551469e+003;3.411231e-002
2.553397e+003;3.397900e-002
2.555326e+003;3.382972e-002
2.557255e+003;3.380175e-002
2.559183e+003;3.373120e-002
2.561112e+003;3.370251e-002
2.563040e+003;3.367358e-002
2.564969e+003;3.379200e-002
2.566897e+003;3.403472e-002
2.568826e+003;3.394174e-002
2.570754e+003;3.378835e-002
2.572683e+003;3.413038e-002
2.574612e+003;3.435624e-002
2.576540e+003;3.432859e-002
2.578469e+003;3.442464e-002
2.580397e+003;3.465414e-002
2.582326e+003;3.462644e-002
2.584254e+003;3.444576e-002
2.586183e+003;3.436600e-002
2.588111e+003;3.466516e-002
2.590040e+003;3.508330e-002
2.591969e+003;3.497117e-002
2.593897e+003;3.459687e-002
2.595826e+003;3.454022e-002
2.597754e+003;3.467381e-002
2.599683e+003;3.484122e-002
2.601611e+003;3.498158e-002
2.603540e+003;3.510424e-002
2.605468e+003;3.514955e-002
2.607397e+003;3.514958e-002
2.609325e+003;3.523003e-002
2.611254e+003;3.531412e-002
2.613183e+003;3.532099e-002
2.615111e+003;3.538102e-002
2.617040e+003;3.556510e-002
2.618968e+003;3.561872e-002
2.620897e+003;3.547664e-002
2.622825e+003;3.528282e-002
2.624754e+003;3.550138e-002
2.626682e+003;3.576168e-002
2.628611e+003;3.557262e-002
2.630540e+003;3.544961e-002
2.632468e+003;3.577484e-002
2.634396e+003;3.612106e-002
2.636325e+003;3.620861e-002
2.638254e+003;3.639675e-002
2.640182e+003;3.646915e-002
2.642111e+003;3.611152e-002
2.644039e+003;3.603588e-002
2.645968e+003;3.624894e-002
2.647896e+003;3.637712e-002
2.649825e+003;3.639020e-002
2.651753e+003;3.653967e-002
2.653682e+003;3.661580e-002
2.655611e+003;3.653866e-002
2.657539e+003;3.662673e-002
2.659468e+003;3.692907e-002
2.661396e+003;3.697716e-002
2.663325e+003;3.672072e-002
2.665253e+003;3.665128e-002
2.667182e+003;3.682414e-002
2.669110e+003;3.688694e-002
2.671039e+003;3.696017e-002
2.672968e+003;3.714561e-002
2.674896e+003;3.732622e-002
2.676825e+003;3.749675e-002
2.678753e+003;3.754877e-002
2.680682e+003;3.750037e-002
2.682610e+003;3.751001e-002
2.684539e+003;3.771687e-002
2.686467e+003;3.779280e-002
2.688396e+003;3.772930e-002
2.690324e+003;3.774408e-002
2.692253e+003;3.806984e-002
2.694182e+003;3.843035e-002
2.696110e+003;3.861157e-002
2.698039e+003;3.873794e-002
2.699967e+003;3.883134e-002
2.701896e+003;3.891320e-002
2.703824e+003;3.910521e-002
2.705753e+003;3.936313e-002
2.707681e+003;3.955233e-002
2.709610e+003;3.964735e-002
2.711539e+003;3.986961e-002
2.713467e+003;4.005655e-002
2.715396e+003;3.996216e-002
2.717324e+003;4.029309e-002
2.719253e+003;4.072695e-002
2.721181e+003;4.098042e-002
2.723110e+003;4.124128e-002
2.725038e+003;4.163944e-002
2.726967e+003;4.164222e-002
2.728896e+003;4.170681e-002
2.730824e+003;4.212832e-002
2.732752e+003;4.262444e-002
2.734681e+003;4.292258e-002
2.736610e+003;4.315072e-002
2.738538e+003;4.324859e-002
2.740467e+003;4.362482e-002
2.742395e+003;4.391547e-002
2.744324e+003;4.378344e-002
2.746252e+003;4.376702e-002
2.748181e+003;4.387372e-002
2.750109e+003;4.387331e-002
2.752038e+003;4.365109e-002
2.753967e+003;4.353650e-002
2.755895e+003;4.342879e-002
2.757824e+003;4.345981e-002
2.759752e+003;4.397002e-002
2.761681e+003;4.426736e-002
2.763609e+003;4.418383e-002
2.765538e+003;4.432673e-002
2.767466e+003;4.463889e-002
2.769395e+003;4.499787e-002
2.771323e+003;4.515634e-002
2.773252e+003;4.508179e-002
2.775181e+003;4.528445e-002
2.777109e+003;4.562740e-002
2.779038e+003;4.607374e-002
2.780966e+003;4.626724e-002
2.782895e+003;4.622294e-002
2.784823e+003;4.658416e-002
2.786752e+003;4.720266e-002
2.788680e+003;4.755967e-002
2.790609e+003;4.777048e-002
2.792538e+003;4.800988e-002
2.794466e+003;4.819966e-002
2.796395e+003;4.839122e-002
2.798323e+003;4.866670e-002
2.800252e+003;4.897098e-002
2.802180e+003;4.932373e-002
2.804109e+003;4.957001e-002
2.806037e+003;4.995499e-002
2.807966e+003;5.037135e-002
2.809895e+003;5.085094e-002
2.811823e+003;5.149714e-002
2.813751e+003;5.226900e-002
2.815680e+003;5.290041e-002
2.817609e+003;5.334159e-002
2.819537e+003;5.367406e-002
2.821466e+003;5.386318e-002
2.823394e+003;5.437601e-002
2.825323e+003;5.513570e-002
2.827251e+003;5.543992e-002
2.829180e+003;5.579801e-002
2.831108e+003;5.670047e-002
2.833037e+003;5.755525e-002
2.834966e+003;5.837063e-002
2.836894e+003;5.964250e-002
2.838823e+003;6.142655e-002
2.840751e+003;6.346531e-002
2.842680e+003;6.625345e-002
2.844608e+003;6.949373e-002
2.846537e+003;7.249048e-002
2.848465e+003;7.574509e-002
2.850394e+003;7.940077e-002
2.852323e+003;8.256920e-002
2.854251e+003;8.493435e-002
2.856180e+003;8.667559e-002
2.858108e+003;8.751516e-002
2.860037e+003;8.757863e-002
2.861965e+003;8.715154e-002
2.863894e+003;8.653698e-002
2.865822e+003;8.567723e-002
2.867751e+003;8.435415e-002
2.869679e+003;8.269123e-002
2.871608e+003;8.076201e-002
2.873536e+003;7.861521e-002
2.875465e+003;7.675047e-002
2.877394e+003;7.484803e-002
2.879322e+003;7.293901e-002
2.881251e+003;7.149915e-002
2.883179e+003;7.063203e-002
2.885108e+003;7.006948e-002
2.887036e+003;7.027031e-002
2.888965e+003;7.119152e-002
2.890893e+003;7.205136e-002
2.892822e+003;7.353728e-002
2.894750e+003;7.556004e-002
2.896679e+003;7.679345e-002
2.898608e+003;7.732131e-002
2.900536e+003;7.805587e-002
2.902465e+003;7.900552e-002
2.904393e+003;7.974608e-002
2.906322e+003;8.051040e-002
2.908250e+003;8.175609e-002
2.910179e+003;8.316227e-002
2.912107e+003;8.505206e-002
2.914036e+003;8.705541e-002
2.915965e+003;8.889464e-002
2.917893e+003;9.090885e-002
2.919822e+003;9.366431e-002
2.921750e+003;9.644907e-002
2.923679e+003;9.894381e-002
2.925607e+003;1.010051e-001
2.927536e+003;1.028482e-001
2.929464e+003;1.042404e-001
2.931393e+003;1.052860e-001
2.933322e+003;1.055397e-001
2.935250e+003;1.048421e-001
2.937178e+003;1.037682e-001
2.939107e+003;1.021020e-001
2.941036e+003;9.972399e-002
2.942964e+003;9.738811e-002
2.944893e+003;9.469292e-002
2.946821e+003;9.066423e-002
2.948750e+003;8.563800e-002
2.950678e+003;8.069358e-002
2.952607e+003;7.610528e-002
2.954535e+003;7.194737e-002
2.956464e+003;6.841054e-002
2.958393e+003;6.573393e-002
2.960321e+003;6.369384e-002
2.962250e+003;6.161503e-002
2.964178e+003;5.984839e-002
2.966107e+003;5.815841e-002
2.968035e+003;5.641887e-002
2.969964e+003;5.469341e-002
2.971892e+003;5.303408e-002
2.973821e+003;5.165897e-002
2.975750e+003;5.041544e-002
2.977678e+003;4.933587e-002
2.979607e+003;4.822776e-002
2.981535e+003;4.737516e-002
2.983464e+003;4.679878e-002
2.985392e+003;4.583308e-002
2.987321e+003;4.533049e-002
2.989249e+003;4.533498e-002
2.991178e+003;4.490303e-002
2.993106e+003;4.437972e-002
2.995035e+003;4.436166e-002
2.996964e+003;4.432075e-002
2.998892e+003;4.412664e-002
3.000821e+003;4.406547e-002
3.002749e+003;4.397560e-002
3.004678e+003;4.427620e-002
3.006606e+003;4.453921e-002
3.008535e+003;4.432757e-002
3.010463e+003;4.413247e-002
3.012392e+003;4.418482e-002
3.014321e+003;4.447570e-002
3.016249e+003;4.453109e-002
3.018177e+003;4.473063e-002
3.020106e+003;4.522355e-002
3.022035e+003;4.557838e-002
3.023963e+003;4.609559e-002
3.025892e+003;4.640386e-002
3.027820e+003;4.639266e-002
3.029749e+003;4.667731e-002
3.031677e+003;4.690596e-002
3.033606e+003;4.734608e-002
3.035534e+003;4.814875e-002
3.037463e+003;4.876385e-002
3.039392e+003;4.912107e-002
3.041320e+003;4.965704e-002
3.043249e+003;5.033176e-002
3.045177e+003;5.095368e-002
3.047106e+003;5.168083e-002
3.049034e+003;5.243781e-002
3.050963e+003;5.315626e-002
3.052891e+003;5.416808e-002
3.054820e+003;5.501090e-002
3.056749e+003;5.533490e-002
3.058677e+003;5.548371e-002
3.060606e+003;5.562845e-002
3.062534e+003;5.592921e-002
3.064463e+003;5.645486e-002
3.066391e+003;5.693325e-002
3.068320e+003;5.741039e-002
3.070248e+003;5.755185e-002
3.072177e+003;5.715951e-002
3.074105e+003;5.691520e-002
3.076034e+003;5.719662e-002
3.077963e+003;5.764412e-002
3.079891e+003;5.773623e-002
3.081820e+003;5.776177e-002
3.083748e+003;5.793886e-002
3.085677e+003;5.786151e-002
3.087605e+003;5.734425e-002
3.089534e+003;5.697469e-002
3.091462e+003;5.650743e-002
3.093391e+003;5.607739e-002
3.095320e+003;5.601832e-002
3.097248e+003;5.595805e-002
3.099177e+003;5.550611e-002
3.101105e+003;5.465565e-002
3.103034e+003;5.380932e-002
3.104962e+003;5.340360e-002
3.106891e+003;5.301413e-002
3.108819e+003;5.253312e-002
3.110748e+003;5.172054e-002
3.112677e+003;5.101036e-002
3.114605e+003;5.068762e-002
3.116533e+003;5.033968e-002
3.118462e+003;4.991291e-002
3.120391e+003;4.959196e-002
3.122319e+003;4.919149e-002
3.124248e+003;4.888198e-002
3.126176e+003;4.888372e-002
3.128105e+003;4.906483e-002
3.130033e+003;4.916166e-002
3.131962e+003;4.905700e-002
3.133890e+003;4.894498e-002
3.135819e+003;4.892154e-002
3.137748e+003;4.886192e-002
3.139676e+003;4.833022e-002
3.141605e+003;4.794875e-002
3.143533e+003;4.806121e-002
3.145462e+003;4.833611e-002
3.147390e+003;4.854048e-002
3.149319e+003;4.885228e-002
3.151247e+003;4.927440e-002
3.153176e+003;4.965515e-002
3.155104e+003;4.977381e-002
3.157033e+003;5.008512e-002
3.158962e+003;5.036357e-002
3.160890e+003;5.024277e-002
3.162819e+003;5.059719e-002
3.164747e+003;5.093483e-002
3.166676e+003;5.092306e-002
3.168604e+003;5.156762e-002
3.170533e+003;5.267430e-002
3.172461e+003;5.322217e-002
3.174390e+003;5.330866e-002
3.176319e+003;5.352820e-002
3.178247e+003;5.372108e-002
3.180176e+003;5.423317e-002
3.182104e+003;5.499179e-002
3.184033e+003;5.582532e-002
3.185961e+003;5.636156e-002
3.187890e+003;5.647456e-002
3.189818e+003;5.663859e-002
3.191747e+003;5.696423e-002
3.193676e+003;5.734346e-002
3.195604e+003;5.745365e-002
3.197532e+003;5.792129e-002
3.199461e+003;5.836624e-002
3.201390e+003;5.853292e-002
3.203318e+003;5.886434e-002
3.205247e+003;5.901022e-002
3.207175e+003;5.937658e-002
3.209104e+003;5.991258e-002
3.211032e+003;6.014135e-002
3.212961e+003;6.030742e-002
3.214889e+003;6.066314e-002
3.216818e+003;6.105576e-002
3.218747e+003;6.161152e-002
3.220675e+003;6.225361e-002
3.222604e+003;6.269145e-002
3.224532e+003;6.325851e-002
3.226461e+003;6.417705e-002
3.228389e+003;6.466037e-002
3.230318e+003;6.496626e-002
3.232246e+003;6.566159e-002
3.234175e+003;6.650115e-002
3.236104e+003;6.763224e-002
3.238032e+003;6.899521e-002
3.239961e+003;6.995650e-002
3.241889e+003;7.106764e-002
3.243818e+003;7.274313e-002
3.245746e+003;7.434440e-002
3.247675e+003;7.587371e-002
3.249603e+003;7.723477e-002
3.251532e+003;7.839639e-002
3.253460e+003;7.935268e-002
3.255389e+003;8.046287e-002
3.257318e+003;8.258726e-002
3.259246e+003;8.508987e-002
3.261175e+003;8.673381e-002
3.263103e+003;8.822252e-002
3.265032e+003;9.025836e-002
3.266960e+003;9.242118e-002
3.268889e+003;9.437864e-002
3.270817e+003;9.599416e-002
3.272746e+003;9.775563e-002
3.274675e+003;9.968363e-002
3.276603e+003;1.017057e-001
3.278531e+003;1.041326e-001
3.280460e+003;1.065047e-001
3.282389e+003;1.088356e-001
3.284317e+003;1.108211e-001
3.286246e+003;1.127541e-001
3.288174e+003;1.146421e-001
3.290103e+003;1.160261e-001
3.292031e+003;1.170518e-001
3.293960e+003;1.176265e-001
3.295888e+003;1.170393e-001
3.297817e+003;1.154373e-001
3.299746e+003;1.135274e-001
3.301674e+003;1.111752e-001
3.303603e+003;1.080140e-001
3.305531e+003;1.046088e-001
3.307460e+003;1.009749e-001
3.309388e+003;9.750613e-002
3.311317e+003;9.450313e-002
3.313245e+003;9.165474e-002
3.315174e+003;8.870077e-002
3.317103e+003;8.586144e-002
3.319031e+003;8.324702e-002
3.320960e+003;8.082902e-002
3.322888e+003;7.854088e-002
3.324817e+003;7.603702e-002
3.326745e+003;7.327420e-002
3.328674e+003;7.085527e-002
3.330602e+003;6.888745e-002
3.332531e+003;6.689866e-002
3.334459e+003;6.496141e-002
3.336388e+003;6.320972e-002
3.338317e+003;6.167120e-002
3.340245e+003;5.995184e-002
3.342174e+003;5.856409e-002
3.344102e+003;5.754178e-002
3.346031e+003;5.664395e-002
3.347959e+003;5.560503e-002
3.349888e+003;5.425442e-002
3.351816e+003;5.319842e-002
3.353745e+003;5.236360e-002
3.355674e+003;5.155870e-002
3.357602e+003;5.074088e-002
3.359531e+003;4.982007e-002
3.361459e+003;4.926186e-002
3.363388e+003;4.863216e-002
3.365316e+003;4.757679e-002
3.367245e+003;4.692855e-002
3.369173e+003;4.670705e-002
3.371102e+003;4.653444e-002
3.373031e+003;4.584829e-002
3.374959e+003;4.534039e-002
3.376887e+003;4.524789e-002
3.378816e+003;4.491416e-002
3.380745e+003;4.464187e-002
3.382673e+003;4.436280e-002
3.384602e+003;4.393761e-002
3.386530e+003;4.345486e-002
3.388459e+003;4.284881e-002
3.390387e+003;4.255872e-002
3.392316e+003;4.240836e-002
3.394244e+003;4.230283e-002
3.396173e+003;4.224779e-002
3.398102e+003;4.191443e-002
3.400030e+003;4.188972e-002
3.401959e+003;4.209703e-002
3.403887e+003;4.173369e-002
3.405816e+003;4.106705e-002
3.407744e+003;4.044657e-002
3.409673e+003;3.997248e-002
3.411601e+003;3.996344e-002
3.413530e+003;4.019625e-002
3.415458e+003;4.019574e-002
3.417387e+003;3.994215e-002
3.419316e+003;3.982494e-002
3.421244e+003;3.978568e-002
3.423173e+003;3.964049e-002
3.425101e+003;3.947118e-002
3.427030e+003;3.943076e-002
3.428958e+003;3.911061e-002
3.430887e+003;3.891606e-002
3.432815e+003;3.913004e-002
3.434744e+003;3.921388e-002
3.436673e+003;3.899290e-002
3.438601e+003;3.916623e-002
3.440530e+003;3.902248e-002
3.442458e+003;3.886997e-002
3.444387e+003;3.879196e-002
3.446315e+003;3.849678e-002
3.448244e+003;3.867361e-002
3.450172e+003;3.837229e-002
3.452101e+003;3.811618e-002
3.454030e+003;3.858756e-002
3.455958e+003;3.878631e-002
3.457886e+003;3.853527e-002
3.459815e+003;3.804757e-002
3.461744e+003;3.762681e-002
3.463672e+003;3.757377e-002
3.465601e+003;3.718131e-002
3.467529e+003;3.712681e-002
3.469458e+003;3.752255e-002
3.471386e+003;3.737219e-002
3.473315e+003;3.665823e-002
3.475243e+003;3.629170e-002
3.477172e+003;3.645080e-002
3.479101e+003;3.648435e-002
3.481029e+003;3.626238e-002
3.482958e+003;3.621174e-002
3.484886e+003;3.662460e-002
3.486815e+003;3.652962e-002
3.488743e+003;3.610529e-002
3.490672e+003;3.611123e-002
3.492600e+003;3.589208e-002
3.494529e+003;3.556431e-002
3.496458e+003;3.568566e-002
3.498386e+003;3.564207e-002
3.500315e+003;3.554061e-002
3.502243e+003;3.589143e-002
3.504172e+003;3.563897e-002
3.506100e+003;3.523919e-002
3.508029e+003;3.517247e-002
3.509957e+003;3.502957e-002
3.511886e+003;3.487910e-002
3.513814e+003;3.492104e-002
3.515743e+003;3.464144e-002
3.517672e+003;3.421433e-002
3.519600e+003;3.409948e-002
3.521529e+003;3.411525e-002
3.523457e+003;3.387901e-002
3.525386e+003;3.371057e-002
3.527314e+003;3.364741e-002
3.529243e+003;3.324907e-002
3.531171e+003;3.310508e-002
3.533100e+003;3.341532e-002
3.535029e+003;3.319384e-002
3.536957e+003;3.273456e-002
3.538885e+003;3.265418e-002
3.540814e+003;3.264328e-002
3.542743e+003;3.241227e-002
3.544671e+003;3.218352e-002
3.546600e+003;3.192404e-002
3.548528e+003;3.176727e-002
3.550457e+003;3.146482e-002
3.552385e+003;3.109998e-002
3.554314e+003;3.117402e-002
3.556242e+003;3.107204e-002
3.558171e+003;3.080504e-002
3.560100e+003;3.046740e-002
3.562028e+003;2.984522e-002
3.563957e+003;2.931290e-002
3.565885e+003;2.915178e-002
3.567814e+003;2.924676e-002
3.569742e+003;2.928426e-002
3.571671e+003;2.915494e-002
3.573599e+003;2.887998e-002
3.575528e+003;2.868402e-002
3.577457e+003;2.852045e-002
3.579385e+003;2.801339e-002
3.581314e+003;2.762928e-002
3.583242e+003;2.728761e-002
3.585171e+003;2.686661e-002
3.587099e+003;2.651047e-002
3.589028e+003;2.639633e-002
3.590956e+003;2.622377e-002
3.592885e+003;2.589593e-002
3.594813e+003;2.606292e-002
3.596742e+003;2.634711e-002
3.598671e+003;2.624925e-002
3.600599e+003;2.583428e-002
3.602528e+003;2.568155e-002
3.604456e+003;2.589336e-002
3.606385e+003;2.556553e-002
3.608313e+003;2.477058e-002
3.610242e+003;2.444339e-002
3.612170e+003;2.405521e-002
3.614099e+003;2.380181e-002
3.616028e+003;2.399901e-002
3.617956e+003;2.391515e-002
3.619885e+003;2.338511e-002
3.621813e+003;2.289917e-002
3.623742e+003;2.255467e-002
3.625670e+003;2.261743e-002
3.627599e+003;2.272551e-002
3.629527e+003;2.271535e-002
3.631456e+003;2.246994e-002
3.633385e+003;2.206310e-002
3.635313e+003;2.176322e-002
3.637241e+003;2.119579e-002
3.639170e+003;2.124516e-002
3.641099e+003;2.134587e-002
3.643027e+003;2.097183e-002
3.644956e+003;2.069807e-002
3.646884e+003;2.070534e-002
3.648813e+003;2.053019e-002
3.650741e+003;2.060415e-002
3.652670e+003;2.100643e-002
3.654598e+003;2.095128e-002
3.656527e+003;2.050917e-002
3.658456e+003;2.035698e-002
3.660384e+003;2.062403e-002
3.662313e+003;2.070784e-002
3.664241e+003;2.065617e-002
3.666170e+003;2.054645e-002
3.668098e+003;2.022929e-002
3.670027e+003;1.980342e-002
3.671955e+003;1.983033e-002
3.673884e+003;1.986429e-002
3.675813e+003;1.989051e-002
3.677741e+003;1.965123e-002
3.679669e+003;1.933951e-002
3.681598e+003;1.934346e-002
3.683527e+003;1.924782e-002
3.685455e+003;1.920311e-002
3.687384e+003;1.878952e-002
3.689312e+003;1.850936e-002
3.691241e+003;1.865350e-002
3.693169e+003;1.869387e-002
3.695098e+003;1.867176e-002
3.697026e+003;1.849487e-002
3.698955e+003;1.808137e-002
3.700884e+003;1.793801e-002
3.702812e+003;1.779276e-002
3.704741e+003;1.792858e-002
3.706669e+003;1.810058e-002
3.708598e+003;1.768614e-002
3.710526e+003;1.741970e-002
3.712455e+003;1.755347e-002
3.714383e+003;1.766944e-002
3.716312e+003;1.776967e-002
3.718240e+003;1.791612e-002
3.720169e+003;1.776743e-002
3.722098e+003;1.767693e-002
3.724026e+003;1.741642e-002
3.725955e+003;1.743308e-002
3.727883e+003;1.754812e-002
3.729812e+003;1.721236e-002
3.731740e+003;1.706790e-002
3.733669e+003;1.713635e-002
3.735597e+003;1.707627e-002
3.737526e+003;1.745025e-002
3.739455e+003;1.775590e-002
3.741383e+003;1.736620e-002
3.743312e+003;1.669911e-002
3.745240e+003;1.666388e-002
3.747169e+003;1.734434e-002
3.749097e+003;1.752128e-002
3.751026e+003;1.751973e-002
3.752954e+003;1.756275e-002
3.754883e+003;1.781789e-002
3.756812e+003;1.780012e-002
3.758740e+003;1.773847e-002
3.760668e+003;1.787299e-002
3.762597e+003;1.801989e-002
3.764526e+003;1.798864e-002
3.766454e+003;1.767741e-002
3.768383e+003;1.748230e-002
3.770311e+003;1.764201e-002
3.772240e+003;1.773277e-002
3.774168e+003;1.791415e-002
3.776097e+003;1.818332e-002
3.778025e+003;1.786768e-002
3.779954e+003;1.740473e-002
3.781883e+003;1.743042e-002
3.783811e+003;1.775772e-002
3.785740e+003;1.778354e-002
3.787668e+003;1.745895e-002
3.789597e+003;1.749079e-002
3.791525e+003;1.776546e-002
3.793454e+003;1.771973e-002
3.795382e+003;1.747026e-002
3.797311e+003;1.760274e-002
3.799240e+003;1.795666e-002
3.801168e+003;1.790314e-002
3.803097e+003;1.745174e-002
3.805025e+003;1.709268e-002
3.806954e+003;1.693944e-002
3.808882e+003;1.720836e-002
3.810811e+003;1.767486e-002
3.812739e+003;1.831788e-002
3.814668e+003;1.805965e-002
3.816596e+003;1.768179e-002
3.818525e+003;1.786588e-002
3.820454e+003;1.793376e-002
3.822382e+003;1.804991e-002
3.824311e+003;1.810970e-002
3.826239e+003;1.856192e-002
3.828168e+003;1.876423e-002
3.830096e+003;1.835120e-002
3.832025e+003;1.825661e-002
3.833953e+003;1.838470e-002
3.835882e+003;1.805094e-002
3.837811e+003;1.778396e-002
3.839739e+003;1.805664e-002
3.841667e+003;1.811716e-002
3.843596e+003;1.808231e-002
3.845525e+003;1.822682e-002
3.847453e+003;1.851645e-002
3.849382e+003;1.850124e-002
3.851310e+003;1.815917e-002
3.853239e+003;1.794084e-002
3.855167e+003;1.825765e-002
3.857096e+003;1.881706e-002
3.859024e+003;1.864707e-002
3.860953e+003;1.839354e-002
3.862882e+003;1.869798e-002
3.864810e+003;1.899962e-002
3.866739e+003;1.883907e-002
3.868667e+003;1.826470e-002
3.870596e+003;1.839814e-002
3.872524e+003;1.853512e-002
3.874453e+003;1.846051e-002
3.876381e+003;1.899402e-002
3.878310e+003;1.901901e-002
3.880239e+003;1.865640e-002
3.882167e+003;1.846742e-002
3.884096e+003;1.849380e-002
3.886024e+003;1.852368e-002
3.887953e+003;1.860778e-002
3.889881e+003;1.851517e-002
3.891810e+003;1.860401e-002
3.893738e+003;1.882755e-002
3.895667e+003;1.866588e-002
3.897595e+003;1.846628e-002
3.899524e+003;1.849505e-002
3.901453e+003;1.891690e-002
3.903381e+003;1.953425e-002
3.905310e+003;1.936934e-002
3.907238e+003;1.897467e-002
3.909167e+003;1.877814e-002
3.911095e+003;1.912602e-002
3.913024e+003;1.938566e-002
3.914952e+003;1.934533e-002
3.916881e+003;1.913600e-002
3.918810e+003;1.937298e-002
3.920738e+003;1.989176e-002
3.922667e+003;1.984868e-002
3.924595e+003;1.983505e-002
3.926524e+003;1.988659e-002
3.928452e+003;1.958392e-002
3.930381e+003;1.973871e-002
3.932309e+003;1.999160e-002
3.934238e+003;2.040248e-002
3.936167e+003;2.067483e-002
3.938095e+003;1.991139e-002
3.940023e+003;1.949110e-002
3.941952e+003;1.944085e-002
3.943881e+003;1.983345e-002
3.945809e+003;2.063289e-002
3.947738e+003;2.076546e-002
3.949666e+003;2.069557e-002
3.951595e+003;2.119670e-002
3.953523e+003;2.130933e-002
3.955452e+003;2.097252e-002
3.957380e+003;2.068748e-002
3.959309e+003;2.068351e-002
3.961238e+003;2.069769e-002
3.963166e+003;2.062041e-002
3.965095e+003;2.054787e-002
3.967023e+003;2.071427e-002
3.968952e+003;2.083578e-002
3.970880e+003;2.073891e-002
3.972809e+003;2.120014e-002
3.974737e+003;2.160189e-002
3.976666e+003;2.127147e-002
3.978594e+003;2.149134e-002
3.980523e+003;2.144803e-002
3.982452e+003;2.111821e-002
3.984380e+003;2.116730e-002
3.986309e+003;2.132175e-002
3.988237e+003;2.158284e-002
3.990166e+003;2.180256e-002
3.992094e+003;2.204344e-002
3.994023e+003;2.236928e-002
3.995951e+003;2.234406e-002
3.997880e+003;2.218119e-002
3.999809e+003;2.229397e-002
4.001737e+003;0.000000e+000
