3.992094e+002;0.000000e+000
4.011380e+002;0.000000e+000
4.030665e+002;0.000000e+000
4.049951e+002;0.000000e+000
4.069236e+002;0.000000e+000
4.088522e+002;0.000000e+000
4.107807e+002;0.000000e+000
4.127093e+002;0.000000e+000
4.146378e+002;0.000000e+000
4.165664e+002;0.000000e+000
4.184949e+002;0.000000e+000
4.204235e+002;0.000000e+000
4.223520e+002;0.000000e+000
4.242806e+002;0.000000e+000
4.262091e+002;0.000000e+000
4.281377e+002;0.000000e+000
4.300662e+002;0.000000e+000
4.319948e+002;0.000000e+000
4.339233e+002;0.000000e+000
4.358519e+002;0.000000e+000
4.377804e+002;0.000000e+000
4.397090e+002;0.000000e+000
4.416375e+002;0.000000e+000
4.435660e+002;0.000000e+000
4.454946e+002;0.000000e+000
4.474232e+002;0.000000e+000
4.493517e+002;0.000000e+000
4.512802e+002;0.000000e+000
4.532088e+002;0.000000e+000
4.551373e+002;0.000000e+000
4.570659e+002;0.000000e+000
4.589944e+002;0.000000e+000
4.609230e+002;0.000000e+000
4.628515e+002;0.000000e+000
4.647801e+002;0.000000e+000
4.667086e+002;0.000000e+000
4.686372e+002;0.000000e+000
4.705657e+002;0.000000e+000
4.724943e+002;0.000000e+000
4.744228e+002;0.000000e+000
4.763513e+002;0.000000e+000
4.782799e+002;0.000000e+000
4.802085e+002;0.000000e+000
4.821370e+002;0.000000e+000
4.840656e+002;0.000000e+000
4.859941e+002;0.000000e+000
4.879226e+002;0.000000e+000
4.898512e+002;0.000000e+000
4.917798e+002;0.000000e+000
4.937083e+002;0.000000e+000
4.956368e+002;0.000000e+000
4.975654e+002;0.000000e+000
4.994939e+002;0.000000e+000
5.014225e+002;0.000000e+000
5.033510e+002;0.000000e+000
5.052796e+002;0.000000e+000
5.072081e+002;0.000000e+000
5.091367e+002;0.000000e+000
5.110652e+002;0.000000e+000
5.129938e+002;0.000000e+000
5.149223e+002;0.000000e+000
5.168509e+002;0.000000e+000
5.187794e+002;0.000000e+000
5.207079e+002;0.000000e+000
5.226365e+002;0.000000e+000
5.245651e+002;0.000000e+000
5.264936e+002;0.000000e+000
5.284222e+002;0.000000e+000
5.303507e+002;0.000000e+000
5.322792e+002;0.000000e+000
5.342078e+002;0.000000e+000
5.361364e+002;0.000000e+000
5.380649e+002;0.000000e+000
5.399935e+002;0.000000e+000
5.419220e+002;0.000000e+000
5.438505e+002;0.000000e+000
5.457791e+002;0.000000e+000
5.477076e+002;0.000000e+000
5.496362e+002;0.000000e+000
5.515648e+002;0.000000e+000
5.534933e+002;0.000000e+000
5.554218e+002;0.000000e+000
5.573504e+002;0.000000e+000
5.592789e+002;0.000000e+000
5.612075e+002;0.000000e+000
5.631360e+002;0.000000e+000
5.650646e+002;0.000000e+000
5.669931e+002;0.000000e+000
5.689217e+002;0.000000e+000
5.708502e+002;0.000000e+000
5.727787e+002;0.000000e+000
5.747073e+002;0.000000e+000
5.766359e+002;0.000000e+000
5.785644e+002;0.000000e+000
5.804930e+002;0.000000e+000
5.824215e+002;0.000000e+000
5.843500e+002;0.000000e+000
5.862786e+002;0.000000e+000
5.882072e+002;0.000000e+000
5.901357e+002;0.000000e+000
5.920643e+002;0.000000e+000
5.939928e+002;0.000000e+000
5.959213e+002;0.000000e+000
5.978499e+002;0.000000e+000
5.997784e+002;1.071701e-001
6.017070e+002;1.079334e-001
6.036355e+002;1.104675e-001
6.055641e+002;1.113411e-001
6.074926e+002;1.158451e-001
6.094211e+002;1.178432e-001
6.113497e+002;1.155825e-001
6.132783e+002;1.105622e-001
6.152068e+002;1.099337e-001
6.171354e+002;1.149393e-001
6.190639e+002;1.154401e-001
6.209924e+002;1.147475e-001
6.229210e+002;1.156359e-001
6.248495e+002;1.175688e-001
6.267781e+002;1.202129e-001
6.287067e+002;1.205410e-001
6.306352e+002;1.193290e-001
6.325637e+002;1.159788e-001
6.344923e+002;1.146367e-001
6.364208e+002;1.140591e-001
6.383494e+002;1.168811e-001
6.402780e+002;1.219201e-001
6.422065e+002;1.281242e-001
6.441350e+002;1.315779e-001
6.460636e+002;1.297188e-001
6.479921e+002;1.285632e-001
6.499207e+002;1.261625e-001
6.518492e+002;1.250996e-001
6.537778e+002;1.255108e-001
6.557063e+002;1.253704e-001
6.576349e+002;1.267485e-001
6.595634e+002;1.304957e-001
6.614919e+002;1.352924e-001
6.634205e+002;1.374164e-001
6.653491e+002;1.383846e-001
6.672776e+002;1.398179e-001
6.692062e+002;1.401417e-001
6.711347e+002;1.396516e-001
6.730632e+002;1.393174e-001
6.749918e+002;1.396916e-001
6.769203e+002;1.401307e-001
6.788489e+002;1.392807e-001
6.807775e+002;1.397422e-001
6.827060e+002;1.417466e-001
6.846345e+002;1.418588e-001
6.865631e+002;1.411843e-001
6.884916e+002;1.415482e-001
6.904202e+002;1.407779e-001
6.923488e+002;1.396811e-001
6.942773e+002;1.388024e-001
6.962058e+002;1.374747e-001
6.981344e+002;1.354612e-001
7.000629e+002;1.326795e-001
7.019915e+002;1.305094e-001
7.039200e+002;1.295211e-001
7.058486e+002;1.291684e-001
7.077771e+002;1.283098e-001
7.097057e+002;1.274206e-001
7.116342e+002;1.263904e-001
7.135627e+002;1.255990e-001
7.154913e+002;1.258634e-001
7.174199e+002;1.256374e-001
7.193484e+002;1.240918e-001
7.212770e+002;1.233952e-001
7.232055e+002;1.239262e-001
7.251340e+002;1.239192e-001
7.270626e+002;1.234607e-001
7.289911e+002;1.226635e-001
7.309197e+002;1.196288e-001
7.328483e+002;1.142948e-001
7.347768e+002;1.094678e-001
7.367053e+002;1.059854e-001
7.386339e+002;1.035508e-001
7.405624e+002;1.015320e-001
7.424910e+002;1.000318e-001
7.444196e+002;9.801976e-002
7.463481e+002;9.561640e-002
7.482766e+002;9.288217e-002
7.502052e+002;9.002903e-002
7.521337e+002;8.844046e-002
7.540623e+002;8.756757e-002
7.559908e+002;8.568611e-002
7.579194e+002;8.409273e-002
7.598479e+002;8.362534e-002
7.617765e+002;8.315019e-002
7.637050e+002;8.210769e-002
7.656335e+002;8.099449e-002
7.675621e+002;7.941537e-002
7.694907e+002;7.750319e-002
7.714192e+002;7.647853e-002
7.733478e+002;7.618970e-002
7.752763e+002;7.514094e-002
7.772048e+002;7.383287e-002
7.791334e+002;7.288567e-002
7.810620e+002;7.202297e-002
7.829905e+002;7.091156e-002
7.849191e+002;6.967337e-002
7.868476e+002;6.859885e-002
7.887761e+002;6.813481e-002
7.907047e+002;6.808074e-002
7.926332e+002;6.759430e-002
7.945618e+002;6.615698e-002
7.964903e+002;6.453157e-002
7.984189e+002;6.306975e-002
8.003474e+002;6.180073e-002
8.022759e+002;6.080718e-002
8.042045e+002;6.021640e-002
8.061331e+002;5.977245e-002
8.080616e+002;5.914260e-002
8.099902e+002;5.852734e-002
8.119187e+002;5.857042e-002
8.138472e+002;5.883608e-002
8.157758e+002;5.916253e-002
8.177043e+002;6.011894e-002
8.196329e+002;6.134778e-002
8.215615e+002;6.232818e-002
8.234900e+002;6.381775e-002
8.254185e+002;6.500582e-002
8.273471e+002;6.577090e-002
8.292756e+002;6.658500e-002
8.312042e+002;6.680726e-002
8.331328e+002;6.588557e-002
8.350613e+002;6.443533e-002
8.369898e+002;6.218906e-002
8.389184e+002;5.949820e-002
8.408469e+002;5.701425e-002
8.427755e+002;5.527864e-002
8.447040e+002;5.391877e-002
8.466326e+002;5.263570e-002
8.485611e+002;5.199415e-002
8.504897e+002;5.169244e-002
8.524182e+002;5.108862e-002
8.543467e+002;5.010356e-002
8.562753e+002;4.942887e-002
8.582039e+002;4.925573e-002
8.601324e+002;4.885850e-002
8.620610e+002;4.916096e-002
8.639895e+002;4.962413e-002
8.659180e+002;4.998283e-002
8.678466e+002;5.047152e-002
8.697751e+002;5.089932e-002
8.717037e+002;5.116085e-002
8.736323e+002;5.161687e-002
8.755608e+002;5.230040e-002
8.774893e+002;5.292470e-002
8.794179e+002;5.330941e-002
8.813464e+002;5.372389e-002
8.832750e+002;5.456983e-002
8.852036e+002;5.490452e-002
8.871321e+002;5.445187e-002
8.890606e+002;5.372003e-002
8.909892e+002;5.341967e-002
8.929177e+002;5.375329e-002
8.948463e+002;5.406743e-002
8.967748e+002;5.373908e-002
8.987034e+002;5.362517e-002
9.006319e+002;5.408998e-002
9.025605e+002;5.485534e-002
9.044890e+002;5.564329e-002
9.064175e+002;5.620303e-002
9.083461e+002;5.662915e-002
9.102747e+002;5.697511e-002
9.122032e+002;5.696646e-002
9.141318e+002;5.703171e-002
9.160603e+002;5.748187e-002
9.179888e+002;5.810878e-002
9.199174e+002;5.876915e-002
9.218459e+002;5.961852e-002
9.237745e+002;6.053034e-002
9.257031e+002;6.148851e-002
9.276316e+002;6.204444e-002
9.295601e+002;6.210426e-002
9.314887e+002;6.171948e-002
9.334172e+002;6.095795e-002
9.353458e+002;5.992742e-002
9.372744e+002;5.909894e-002
9.392029e+002;5.849319e-002
9.411314e+002;5.816466e-002
9.430600e+002;5.821940e-002
9.449885e+002;5.950413e-002
9.469171e+002;6.141136e-002
9.488456e+002;6.300274e-002
9.507742e+002;6.427332e-002
9.527027e+002;6.504411e-002
9.546313e+002;6.523336e-002
9.565598e+002;6.596887e-002
9.584883e+002;6.734010e-002
9.604169e+002;6.782060e-002
9.623455e+002;6.738123e-002
9.642740e+002;6.675621e-002
9.662026e+002;6.609714e-002
9.681311e+002;6.567165e-002
9.700596e+002;6.540924e-002
9.719882e+002;6.516079e-002
9.739167e+002;6.467526e-002
9.758453e+002;6.434348e-002
9.777739e+002;6.433856e-002
9.797024e+002;6.449141e-002
9.816309e+002;6.458621e-002
9.835595e+002;6.473217e-002
9.854880e+002;6.533171e-002
9.874166e+002;6.619233e-002
9.893452e+002;6.693182e-002
9.912737e+002;6.654618e-002
9.932022e+002;6.475775e-002
9.951307e+002;6.269674e-002
9.970593e+002;6.118754e-002
9.989879e+002;6.045660e-002
1.000916e+003;6.016388e-002
1.002845e+003;6.021701e-002
1.004773e+003;6.093492e-002
1.006702e+003;6.192321e-002
1.008631e+003;6.284299e-002
1.010559e+003;6.384723e-002
1.012488e+003;6.506225e-002
1.014416e+003;6.629436e-002
1.016345e+003;6.657893e-002
1.018273e+003;6.663232e-002
1.020202e+003;6.684996e-002
1.022130e+003;6.704993e-002
1.024059e+003;6.794588e-002
1.025988e+003;6.927009e-002
1.027916e+003;7.040986e-002
1.029845e+003;7.195206e-002
1.031773e+003;7.453766e-002
1.033702e+003;7.751309e-002
1.035630e+003;7.926895e-002
1.037559e+003;8.124530e-002
1.039487e+003;8.500056e-002
1.041416e+003;8.915331e-002
1.043344e+003;9.248190e-002
1.045273e+003;9.333342e-002
1.047202e+003;9.096546e-002
1.049130e+003;8.633120e-002
1.051059e+003;8.109799e-002
1.052987e+003;7.606994e-002
1.054916e+003;7.228223e-002
1.056844e+003;7.022801e-002
1.058773e+003;6.969819e-002
1.060701e+003;6.998585e-002
1.062630e+003;7.048593e-002
1.064558e+003;7.108520e-002
1.066487e+003;7.161691e-002
1.068416e+003;7.167693e-002
1.070344e+003;7.213578e-002
1.072273e+003;7.286251e-002
1.074201e+003;7.360192e-002
1.076130e+003;7.336701e-002
1.078058e+003;7.247567e-002
1.079987e+003;7.194205e-002
1.081915e+003;7.172328e-002
1.083844e+003;7.190487e-002
1.085773e+003;7.156260e-002
1.087701e+003;7.131579e-002
1.089630e+003;7.147540e-002
1.091558e+003;7.182057e-002
1.093487e+003;7.237682e-002
1.095415e+003;7.256671e-002
1.097344e+003;7.328275e-002
1.099272e+003;7.499033e-002
1.101201e+003;7.627867e-002
1.103129e+003;7.757774e-002
1.105058e+003;7.894976e-002
1.106987e+003;7.976619e-002
1.108915e+003;8.022238e-002
1.110844e+003;8.049601e-002
1.112772e+003;8.083505e-002
1.114701e+003;8.164055e-002
1.116629e+003;8.231889e-002
1.118558e+003;8.218507e-002
1.120486e+003;8.121938e-002
1.122415e+003;7.943366e-002
1.124344e+003;7.760024e-002
1.126272e+003;7.530859e-002
1.128201e+003;7.251494e-002
1.130129e+003;7.024109e-002
1.132058e+003;6.887751e-002
1.133986e+003;6.840418e-002
1.135915e+003;6.916218e-002
1.137843e+003;7.116900e-002
1.139772e+003;7.333928e-002
1.141700e+003;7.502577e-002
1.143629e+003;7.661053e-002
1.145557e+003;7.816967e-002
1.147486e+003;8.019887e-002
1.149415e+003;8.289230e-002
1.151343e+003;8.536092e-002
1.153272e+003;8.716041e-002
1.155200e+003;8.873731e-002
1.157129e+003;9.105462e-002
1.159057e+003;9.426896e-002
1.160986e+003;9.823624e-002
1.162914e+003;1.028215e-001
1.164843e+003;1.074088e-001
1.166771e+003;1.107674e-001
1.168700e+003;1.115890e-001
1.170629e+003;1.105984e-001
1.172557e+003;1.089991e-001
1.174486e+003;1.066569e-001
1.176414e+003;1.040628e-001
1.178343e+003;1.021892e-001
1.180271e+003;1.014055e-001
1.182200e+003;1.015056e-001
1.184128e+003;1.025204e-001
1.186057e+003;1.045412e-001
1.187986e+003;1.073910e-001
1.189914e+003;1.102684e-001
1.191843e+003;1.129416e-001
1.193771e+003;1.150021e-001
1.195700e+003;1.164005e-001
1.197628e+003;1.180975e-001
1.199557e+003;1.185789e-001
1.201485e+003;1.168081e-001
1.203414e+003;1.139665e-001
1.205343e+003;1.115987e-001
1.207271e+003;1.097722e-001
1.209200e+003;1.082762e-001
1.211128e+003;1.074636e-001
1.213057e+003;1.067417e-001
1.214985e+003;1.054044e-001
1.216914e+003;1.036840e-001
1.218842e+003;1.023326e-001
1.220771e+003;1.018828e-001
1.222699e+003;1.024667e-001
1.224628e+003;1.040672e-001
1.226557e+003;1.063037e-001
1.228485e+003;1.088546e-001
1.230414e+003;1.112768e-001
1.232342e+003;1.133700e-001
1.234271e+003;1.150991e-001
1.236199e+003;1.161358e-001
1.238128e+003;1.161961e-001
1.240056e+003;1.153510e-001
1.241985e+003;1.146958e-001
1.243913e+003;1.146959e-001
1.245842e+003;1.151532e-001
1.247771e+003;1.159038e-001
1.249699e+003;1.169396e-001
1.251628e+003;1.183588e-001
1.253556e+003;1.201492e-001
1.255485e+003;1.219832e-001
1.257413e+003;1.231416e-001
1.259342e+003;1.236527e-001
1.261270e+003;1.231481e-001
1.263199e+003;1.213050e-001
1.265127e+003;1.182798e-001
1.267056e+003;1.144175e-001
1.268985e+003;1.106838e-001
1.270913e+003;1.084395e-001
1.272842e+003;1.075612e-001
1.274770e+003;1.074608e-001
1.276699e+003;1.079192e-001
1.278627e+003;1.085333e-001
1.280556e+003;1.086902e-001
1.282484e+003;1.084696e-001
1.284413e+003;1.082239e-001
1.286342e+003;1.075938e-001
1.288270e+003;1.070100e-001
1.290199e+003;1.069618e-001
1.292127e+003;1.068778e-001
1.294056e+003;1.068720e-001
1.295984e+003;1.070462e-001
1.297913e+003;1.070195e-001
1.299841e+003;1.065484e-001
1.301770e+003;1.054366e-001
1.303698e+003;1.042083e-001
1.305627e+003;1.030584e-001
1.307556e+003;1.024418e-001
1.309484e+003;1.022169e-001
1.311413e+003;1.022410e-001
1.313341e+003;1.028441e-001
1.315270e+003;1.037257e-001
1.317198e+003;1.048834e-001
1.319127e+003;1.063554e-001
1.321055e+003;1.077622e-001
1.322984e+003;1.089009e-001
1.324912e+003;1.096665e-001
1.326841e+003;1.101522e-001
1.328770e+003;1.102125e-001
1.330698e+003;1.097590e-001
1.332627e+003;1.087485e-001
1.334555e+003;1.073483e-001
1.336484e+003;1.057441e-001
1.338412e+003;1.042619e-001
1.340341e+003;1.031039e-001
1.342269e+003;1.021350e-001
1.344198e+003;1.015723e-001
1.346126e+003;1.015228e-001
1.348055e+003;1.016303e-001
1.349984e+003;1.018314e-001
1.351912e+003;1.022467e-001
1.353841e+003;1.028290e-001
1.355769e+003;1.035755e-001
1.357698e+003;1.045389e-001
1.359626e+003;1.056546e-001
1.361555e+003;1.067919e-001
1.363483e+003;1.080524e-001
1.365412e+003;1.093432e-001
1.367341e+003;1.105137e-001
1.369269e+003;1.116619e-001
1.371198e+003;1.122511e-001
1.373126e+003;1.119317e-001
1.375055e+003;1.108836e-001
1.376983e+003;1.094395e-001
1.378912e+003;1.078004e-001
1.380840e+003;1.056420e-001
1.382769e+003;1.031348e-001
1.384698e+003;1.007267e-001
1.386626e+003;9.833442e-002
1.388555e+003;9.636547e-002
1.390483e+003;9.474003e-002
1.392412e+003;9.353660e-002
1.394340e+003;9.305989e-002
1.396269e+003;9.321965e-002
1.398197e+003;9.376738e-002
1.400126e+003;9.504687e-002
1.402054e+003;9.679071e-002
1.403983e+003;9.925610e-002
1.405911e+003;1.022718e-001
1.407840e+003;1.060447e-001
1.409769e+003;1.107480e-001
1.411697e+003;1.159446e-001
1.413626e+003;1.208410e-001
1.415554e+003;1.245035e-001
1.417483e+003;1.258702e-001
1.419411e+003;1.251688e-001
1.421340e+003;1.235475e-001
1.423268e+003;1.213986e-001
1.425197e+003;1.199626e-001
1.427125e+003;1.199757e-001
1.429054e+003;1.210443e-001
1.430983e+003;1.229701e-001
1.432911e+003;1.250501e-001
1.434840e+003;1.262745e-001
1.436768e+003;1.262969e-001
1.438697e+003;1.254893e-001
1.440625e+003;1.240967e-001
1.442554e+003;1.226948e-001
1.444482e+003;1.218310e-001
1.446411e+003;1.216551e-001
1.448340e+003;1.224085e-001
1.450268e+003;1.243223e-001
1.452197e+003;1.268950e-001
1.454125e+003;1.296174e-001
1.456054e+003;1.324249e-001
1.457982e+003;1.357805e-001
1.459911e+003;1.389307e-001
1.461839e+003;1.400042e-001
1.463768e+003;1.382189e-001
1.465697e+003;1.341105e-001
1.467625e+003;1.290573e-001
1.469554e+003;1.249258e-001
1.471482e+003;1.228484e-001
1.473411e+003;1.223401e-001
1.475339e+003;1.219303e-001
1.477268e+003;1.205819e-001
1.479196e+003;1.180535e-001
1.481125e+003;1.145660e-001
1.483053e+003;1.107529e-001
1.484982e+003;1.076725e-001
1.486911e+003;1.059832e-001
1.488839e+003;1.055933e-001
1.490768e+003;1.067344e-001
1.492696e+003;1.090702e-001
1.494625e+003;1.120956e-001
1.496553e+003;1.159217e-001
1.498482e+003;1.200094e-001
1.500410e+003;1.239862e-001
1.502339e+003;1.277023e-001
1.504267e+003;1.312827e-001
1.506196e+003;1.352666e-001
1.508125e+003;1.400938e-001
1.510053e+003;1.452681e-001
1.511982e+003;1.501789e-001
1.513910e+003;1.550610e-001
1.515839e+003;1.599887e-001
1.517767e+003;1.648255e-001
1.519696e+003;1.694058e-001
1.521624e+003;1.743498e-001
1.523553e+003;1.799578e-001
1.525481e+003;1.852180e-001
1.527410e+003;1.901384e-001
1.529339e+003;1.948198e-001
1.531267e+003;1.991188e-001
1.533196e+003;2.026511e-001
1.535124e+003;2.053434e-001
1.537053e+003;2.065697e-001
1.538981e+003;2.059143e-001
1.540910e+003;2.042049e-001
1.542838e+003;2.013018e-001
1.544767e+003;1.964998e-001
1.546695e+003;1.904831e-001
1.548624e+003;1.838259e-001
1.550553e+003;1.764796e-001
1.552481e+003;1.692868e-001
1.554410e+003;1.626365e-001
1.556338e+003;1.564185e-001
1.558267e+003;1.498709e-001
1.560195e+003;1.436398e-001
1.562124e+003;1.379634e-001
1.564052e+003;1.323995e-001
1.565981e+003;1.270357e-001
1.567910e+003;1.218536e-001
1.569838e+003;1.169607e-001
1.571767e+003;1.126159e-001
1.573695e+003;1.088186e-001
1.575624e+003;1.056061e-001
1.577552e+003;1.030624e-001
1.579481e+003;1.012455e-001
1.581409e+003;1.000645e-001
1.583338e+003;9.947985e-002
1.585266e+003;9.923982e-002
1.587195e+003;9.920701e-002
1.589124e+003;9.940837e-002
1.591052e+003;9.982976e-002
1.592981e+003;1.004387e-001
1.594909e+003;1.015072e-001
1.596838e+003;1.031211e-001
1.598766e+003;1.054246e-001
1.600695e+003;1.086961e-001
1.602623e+003;1.128962e-001
1.604552e+003;1.178556e-001
1.606480e+003;1.234239e-001
1.608409e+003;1.292894e-001
1.610338e+003;1.354157e-001
1.612266e+003;1.419559e-001
1.614195e+003;1.487705e-001
1.616123e+003;1.561988e-001
1.618052e+003;1.645940e-001
1.619980e+003;1.736335e-001
1.621909e+003;1.827426e-001
1.623837e+003;1.918091e-001
1.625766e+003;2.007834e-001
1.627694e+003;2.096075e-001
1.629623e+003;2.185370e-001
1.631552e+003;2.275623e-001
1.633480e+003;2.350999e-001
1.635409e+003;2.400507e-001
1.637337e+003;2.416165e-001
1.639266e+003;2.386360e-001
1.641194e+003;2.315280e-001
1.643123e+003;2.215138e-001
1.645051e+003;2.100464e-001
1.646980e+003;1.981072e-001
1.648909e+003;1.868089e-001
1.650837e+003;1.761834e-001
1.652766e+003;1.663156e-001
1.654694e+003;1.585135e-001
1.656623e+003;1.516088e-001
1.658551e+003;1.445232e-001
1.660480e+003;1.378966e-001
1.662408e+003;1.312860e-001
1.664337e+003;1.246690e-001
1.666266e+003;1.180015e-001
1.668194e+003;1.116251e-001
1.670123e+003;1.053074e-001
1.672051e+003;9.940904e-002
1.673980e+003;9.380744e-002
1.675908e+003;8.826794e-002
1.677837e+003;8.290336e-002
1.679765e+003;7.750957e-002
1.681694e+003;7.228571e-002
1.683622e+003;6.704011e-002
1.685551e+003;6.241413e-002
1.687479e+003;5.883721e-002
1.689408e+003;5.569889e-002
1.691337e+003;5.332383e-002
1.693265e+003;5.137331e-002
1.695194e+003;4.958691e-002
1.697122e+003;4.836685e-002
1.699051e+003;4.743414e-002
1.700979e+003;4.679066e-002
1.702908e+003;4.665665e-002
1.704836e+003;4.616420e-002
1.706765e+003;4.558843e-002
1.708693e+003;4.518494e-002
1.710622e+003;4.492151e-002
1.712551e+003;4.462666e-002
1.714479e+003;4.441646e-002
1.716408e+003;4.416501e-002
1.718336e+003;4.406789e-002
1.720265e+003;4.412180e-002
1.722193e+003;4.400951e-002
1.724122e+003;4.377647e-002
1.726050e+003;4.353467e-002
1.727979e+003;4.325507e-002
1.729908e+003;4.298637e-002
1.731836e+003;4.272880e-002
1.733765e+003;4.237315e-002
1.735693e+003;4.235985e-002
1.737622e+003;4.220379e-002
1.739550e+003;4.143684e-002
1.741479e+003;4.053324e-002
1.743407e+003;3.995610e-002
1.745336e+003;3.944520e-002
1.747265e+003;3.857025e-002
1.749193e+003;3.762837e-002
1.751122e+003;3.695382e-002
1.753050e+003;3.641448e-002
1.754979e+003;3.540974e-002
1.756907e+003;3.438260e-002
1.758836e+003;3.381478e-002
1.760764e+003;3.329425e-002
1.762693e+003;3.282725e-002
1.764621e+003;3.219683e-002
1.766550e+003;3.158008e-002
1.768479e+003;3.108702e-002
1.770407e+003;3.061813e-002
1.772336e+003;3.007431e-002
1.774264e+003;2.973344e-002
1.776193e+003;2.955805e-002
1.778121e+003;2.925229e-002
1.780050e+003;2.889956e-002
1.781978e+003;2.860226e-002
1.783907e+003;2.844431e-002
1.785835e+003;2.822676e-002
1.787764e+003;2.798031e-002
1.789693e+003;2.773300e-002
1.791621e+003;2.741108e-002
1.793550e+003;2.718196e-002
1.795478e+003;2.706123e-002
1.797407e+003;2.676775e-002
1.799335e+003;2.642806e-002
1.801264e+003;2.615855e-002
1.803192e+003;2.598460e-002
1.805121e+003;2.589435e-002
1.807049e+003;2.572965e-002
1.808978e+003;2.561839e-002
1.810907e+003;2.560092e-002
1.812835e+003;2.556135e-002
1.814764e+003;2.558996e-002
1.816692e+003;2.527349e-002
1.818621e+003;2.495201e-002
1.820549e+003;2.486187e-002
1.822478e+003;2.485482e-002
1.824406e+003;2.461185e-002
1.826335e+003;2.443634e-002
1.828264e+003;2.464954e-002
1.830192e+003;2.463941e-002
1.832121e+003;2.440718e-002
1.834049e+003;2.433537e-002
1.835978e+003;2.434038e-002
1.837906e+003;2.430537e-002
1.839835e+003;2.421620e-002
1.841763e+003;2.389264e-002
1.843692e+003;2.356747e-002
1.845620e+003;2.352098e-002
1.847549e+003;2.368524e-002
1.849478e+003;2.363534e-002
1.851406e+003;2.341463e-002
1.853335e+003;2.330970e-002
1.855263e+003;2.319539e-002
1.857192e+003;2.310826e-002
1.859120e+003;2.300044e-002
1.861049e+003;2.299956e-002
1.862977e+003;2.310382e-002
1.864906e+003;2.320601e-002
1.866834e+003;2.309334e-002
1.868763e+003;2.292683e-002
1.870692e+003;2.281580e-002
1.872620e+003;2.277816e-002
1.874549e+003;2.282740e-002
1.876477e+003;2.269775e-002
1.878406e+003;2.247552e-002
1.880334e+003;2.248990e-002
1.882263e+003;2.240302e-002
1.884191e+003;2.240808e-002
1.886120e+003;2.260559e-002
1.888048e+003;2.258521e-002
1.889977e+003;2.256912e-002
1.891906e+003;2.257170e-002
1.893834e+003;2.252588e-002
1.895763e+003;2.263805e-002
1.897691e+003;2.265104e-002
1.899620e+003;2.249639e-002
1.901548e+003;2.259020e-002
1.903477e+003;2.282974e-002
1.905405e+003;2.291646e-002
1.907334e+003;2.283431e-002
1.909262e+003;2.259537e-002
1.911191e+003;2.239165e-002
1.913120e+003;2.224542e-002
1.915048e+003;2.220734e-002
1.916977e+003;2.208674e-002
1.918905e+003;2.210570e-002
1.920834e+003;2.220459e-002
1.922762e+003;2.234351e-002
1.924691e+003;2.230165e-002
1.926619e+003;2.216250e-002
1.928548e+003;2.208029e-002
1.930477e+003;2.206606e-002
1.932405e+003;2.215566e-002
1.934334e+003;2.221104e-002
1.936262e+003;2.219322e-002
1.938191e+003;2.219597e-002
1.940119e+003;2.228044e-002
1.942048e+003;2.216340e-002
1.943976e+003;2.214590e-002
1.945905e+003;2.224769e-002
1.947833e+003;2.220040e-002
1.949762e+003;2.231215e-002
1.951691e+003;2.238320e-002
1.953619e+003;2.236918e-002
1.955548e+003;2.232502e-002
1.957476e+003;2.228341e-002
1.959405e+003;2.223998e-002
1.961333e+003;2.231236e-002
1.963262e+003;2.233963e-002
1.965190e+003;2.234215e-002
1.967119e+003;2.236534e-002
1.969047e+003;2.227877e-002
1.970976e+003;2.240180e-002
1.972905e+003;2.245005e-002
1.974833e+003;2.246170e-002
1.976762e+003;2.257331e-002
1.978690e+003;2.262486e-002
1.980619e+003;2.264902e-002
1.982547e+003;2.249339e-002
1.984476e+003;2.230465e-002
1.986404e+003;2.234246e-002
1.988333e+003;2.264420e-002
1.990261e+003;2.272250e-002
1.992190e+003;2.258287e-002
1.994119e+003;2.258332e-002
1.996047e+003;2.263292e-002
1.997976e+003;2.243850e-002
1.999904e+003;2.233953e-002
2.001833e+003;2.238223e-002
2.003761e+003;2.270009e-002
2.005690e+003;2.297923e-002
2.007618e+003;2.288925e-002
2.009547e+003;2.270854e-002
2.011476e+003;2.265348e-002
2.013404e+003;2.267516e-002
2.015333e+003;2.277564e-002
2.017261e+003;2.307479e-002
2.019190e+003;2.331113e-002
2.021118e+003;2.321052e-002
2.023047e+003;2.310942e-002
2.024975e+003;2.320283e-002
2.026904e+003;2.340099e-002
2.028833e+003;2.349136e-002
2.030761e+003;2.360581e-002
2.032690e+003;2.360949e-002
2.034618e+003;2.353371e-002
2.036547e+003;2.365861e-002
2.038475e+003;2.377517e-002
2.040404e+003;2.379502e-002
2.042332e+003;2.383166e-002
2.044261e+003;2.388935e-002
2.046189e+003;2.400209e-002
2.048118e+003;2.384524e-002
2.050047e+003;2.363737e-002
2.051975e+003;2.388228e-002
2.053904e+003;2.412372e-002
2.055832e+003;2.413010e-002
2.057761e+003;2.403567e-002
2.059689e+003;2.394295e-002
2.061618e+003;2.416348e-002
2.063546e+003;2.445408e-002
2.065475e+003;2.446463e-002
2.067404e+003;2.422423e-002
2.069332e+003;2.418951e-002
2.071260e+003;2.430134e-002
2.073189e+003;2.445618e-002
2.075118e+003;2.465831e-002
2.077046e+003;2.442383e-002
2.078975e+003;2.406866e-002
2.080903e+003;2.422391e-002
2.082832e+003;2.444780e-002
2.084760e+003;2.434395e-002
2.086689e+003;2.407301e-002
2.088617e+003;2.390119e-002
2.090546e+003;2.372957e-002
2.092475e+003;2.377801e-002
2.094403e+003;2.382946e-002
2.096332e+003;2.380958e-002
2.098260e+003;2.365696e-002
2.100189e+003;2.350041e-002
2.102117e+003;2.354896e-002
2.104046e+003;2.368996e-002
2.105974e+003;2.386093e-002
2.107903e+003;2.396571e-002
2.109832e+003;2.409619e-002
2.111760e+003;2.408667e-002
2.113688e+003;2.417907e-002
2.115617e+003;2.421308e-002
2.117546e+003;2.426262e-002
2.119474e+003;2.422619e-002
2.121403e+003;2.431925e-002
2.123331e+003;2.437006e-002
2.125260e+003;2.435555e-002
2.127188e+003;2.427811e-002
2.129117e+003;2.440550e-002
2.131045e+003;2.453835e-002
2.132974e+003;2.456952e-002
2.134903e+003;2.462089e-002
2.136831e+003;2.463920e-002
2.138760e+003;2.460995e-002
2.140688e+003;2.438899e-002
2.142617e+003;2.433936e-002
2.144545e+003;2.465593e-002
2.146474e+003;2.481931e-002
2.148402e+003;2.458229e-002
2.150331e+003;2.425415e-002
2.152260e+003;2.437034e-002
2.154188e+003;2.464043e-002
2.156117e+003;2.460908e-002
2.158045e+003;2.456192e-002
2.159974e+003;2.489524e-002
2.161902e+003;2.526730e-002
2.163831e+003;2.521238e-002
2.165759e+003;2.523528e-002
2.167688e+003;2.524444e-002
2.169616e+003;2.523865e-002
2.171545e+003;2.535904e-002
2.173474e+003;2.551883e-002
2.175402e+003;2.554395e-002
2.177331e+003;2.535286e-002
2.179259e+003;2.531187e-002
2.181188e+003;2.533439e-002
2.183116e+003;2.528437e-002
2.185045e+003;2.528286e-002
2.186973e+003;2.537281e-002
2.188902e+003;2.547951e-002
2.190831e+003;2.548450e-002
2.192759e+003;2.532034e-002
2.194688e+003;2.529558e-002
2.196616e+003;2.545990e-002
2.198545e+003;2.557681e-002
2.200473e+003;2.542052e-002
2.202402e+003;2.530597e-002
2.204330e+003;2.524437e-002
2.206259e+003;2.507567e-002
2.208188e+003;2.486394e-002
2.210116e+003;2.487857e-002
2.212044e+003;2.531022e-002
2.213973e+003;2.532423e-002
2.215902e+003;2.504176e-002
2.217830e+003;2.496117e-002
2.219759e+003;2.491857e-002
2.221687e+003;2.473358e-002
2.223616e+003;2.460006e-002
2.225544e+003;2.468160e-002
2.227473e+003;2.473645e-002
2.229401e+003;2.463909e-002
2.231330e+003;2.441766e-002
2.233259e+003;2.433530e-002
2.235187e+003;2.452132e-002
2.237116e+003;2.476683e-002
2.239044e+003;2.473431e-002
2.240973e+003;2.443326e-002
2.242901e+003;2.443729e-002
2.244830e+003;2.457016e-002
2.246758e+003;2.459400e-002
2.248687e+003;2.451357e-002
2.250615e+003;2.456013e-002
2.252544e+003;2.468693e-002
2.254473e+003;2.458716e-002
2.256401e+003;2.454547e-002
2.258330e+003;2.465621e-002
2.260258e+003;2.476837e-002
2.262187e+003;2.479749e-002
2.264115e+003;2.481236e-002
2.266044e+003;2.485131e-002
2.267972e+003;2.478209e-002
2.269901e+003;2.484429e-002
2.271830e+003;2.487190e-002
2.273758e+003;2.482215e-002
2.275687e+003;2.496311e-002
2.277615e+003;2.517453e-002
2.279544e+003;2.538616e-002
2.281472e+003;2.548429e-002
2.283401e+003;2.542435e-002
2.285329e+003;2.545794e-002
2.287258e+003;2.553218e-002
2.289187e+003;2.560932e-002
2.291115e+003;2.559755e-002
2.293043e+003;2.551271e-002
2.294972e+003;2.558113e-002
2.296901e+003;2.588841e-002
2.298829e+003;2.605394e-002
2.300758e+003;2.601581e-002
2.302686e+003;2.592730e-002
2.304615e+003;2.591246e-002
2.306543e+003;2.593374e-002
2.308472e+003;2.583495e-002
2.310400e+003;2.570553e-002
2.312329e+003;2.561378e-002
2.314258e+003;2.548812e-002
2.316186e+003;2.555112e-002
2.318115e+003;2.592727e-002
2.320043e+003;2.596853e-002
2.321972e+003;2.549040e-002
2.323900e+003;2.520940e-002
2.325829e+003;2.512587e-002
2.327757e+003;2.490664e-002
2.329686e+003;2.473032e-002
2.331615e+003;2.467308e-002
2.333543e+003;2.467869e-002
2.335472e+003;2.450105e-002
2.337400e+003;2.431550e-002
2.339329e+003;2.440679e-002
2.341257e+003;2.457114e-002
2.343186e+003;2.466347e-002
2.345114e+003;2.503172e-002
2.347043e+003;2.547670e-002
2.348971e+003;2.559076e-002
2.350900e+003;2.540345e-002
2.352829e+003;2.503937e-002
2.354757e+003;2.465323e-002
2.356686e+003;2.421505e-002
2.358614e+003;2.392233e-002
2.360543e+003;2.391963e-002
2.362471e+003;2.377857e-002
2.364400e+003;2.399453e-002
2.366328e+003;2.443701e-002
2.368257e+003;2.477995e-002
2.370186e+003;2.526931e-002
2.372114e+003;2.567677e-002
2.374042e+003;2.592076e-002
2.375971e+003;2.604606e-002
2.377900e+003;2.630906e-002
2.379828e+003;2.647292e-002
2.381757e+003;2.666581e-002
2.383685e+003;2.691942e-002
2.385614e+003;2.694632e-002
2.387542e+003;2.689474e-002
2.389471e+003;2.688455e-002
2.391399e+003;2.695682e-002
2.393328e+003;2.715673e-002
2.395257e+003;2.729111e-002
2.397185e+003;2.720612e-002
2.399114e+003;2.706825e-002
2.401042e+003;2.708581e-002
2.402971e+003;2.724020e-002
2.404899e+003;2.727752e-002
2.406828e+003;2.734873e-002
2.408756e+003;2.750208e-002
2.410685e+003;2.756915e-002
2.412614e+003;2.749558e-002
2.414542e+003;2.727205e-002
2.416471e+003;2.721458e-002
2.418399e+003;2.748637e-002
2.420328e+003;2.781297e-002
2.422256e+003;2.775868e-002
2.424185e+003;2.769179e-002
2.426113e+003;2.788091e-002
2.428042e+003;2.785879e-002
2.429970e+003;2.808729e-002
2.431899e+003;2.833501e-002
2.433828e+003;2.834816e-002
2.435756e+003;2.846228e-002
2.437685e+003;2.854150e-002
2.439613e+003;2.845941e-002
2.441542e+003;2.859532e-002
2.443470e+003;2.885119e-002
2.445399e+003;2.902739e-002
2.447327e+003;2.897178e-002
2.449256e+003;2.890789e-002
2.451185e+003;2.888511e-002
2.453113e+003;2.900058e-002
2.455042e+003;2.931864e-002
2.456970e+003;2.946287e-002
2.458899e+003;2.941468e-002
2.460827e+003;2.949876e-002
2.462756e+003;2.958160e-002
2.464684e+003;2.970949e-002
2.466613e+003;2.984973e-002
2.468542e+003;2.989662e-002
2.470470e+003;2.971744e-002
2.472398e+003;2.982421e-002
2.474327e+003;3.013134e-002
2.476256e+003;3.025001e-002
2.478184e+003;3.017822e-002
2.480113e+003;3.004913e-002
2.482041e+003;3.002211e-002
2.483970e+003;2.995466e-002
2.485898e+003;2.969083e-002
2.487827e+003;2.956830e-002
2.489755e+003;2.986680e-002
2.491684e+003;3.001696e-002
2.493613e+003;3.003177e-002
2.495541e+003;3.002708e-002
2.497470e+003;2.995711e-002
2.499398e+003;3.013052e-002
2.501327e+003;3.031773e-002
2.503255e+003;3.050693e-002
2.505184e+003;3.057589e-002
2.507112e+003;3.045816e-002
2.509041e+003;3.046602e-002
2.510969e+003;3.078359e-002
2.512898e+003;3.125758e-002
2.514827e+003;3.151548e-002
2.516755e+003;3.148755e-002
2.518684e+003;3.148478e-002
2.520612e+003;3.169933e-002
2.522541e+003;3.177372e-002
2.524469e+003;3.186232e-002
2.526398e+003;3.207103e-002
2.528326e+003;3.230732e-002
2.530255e+003;3.251557e-002
2.532184e+003;3.265643e-002
2.534112e+003;3.289308e-002
2.536041e+003;3.305773e-002
2.537969e+003;3.310633e-002
2.539898e+003;3.312052e-002
2.541826e+003;3.312539e-002
2.543755e+003;3.312381e-002
2.545683e+003;3.329310e-002
2.547612e+003;3.334447e-002
2.549541e+003;3.323933e-002
2.551469e+003;3.338891e-002
2.553397e+003;3.352663e-002
2.555326e+003;3.349240e-002
2.557255e+003;3.347823e-002
2.559183e+003;3.362900e-002
2.561112e+003;3.354717e-002
2.563040e+003;3.351517e-002
2.564969e+003;3.365410e-002
2.566897e+003;3.365704e-002
2.568826e+003;3.370548e-002
2.570754e+003;3.398520e-002
2.572683e+003;3.428004e-002
2.574612e+003;3.419708e-002
2.576540e+003;3.418959e-002
2.578469e+003;3.427463e-002
2.580397e+003;3.443970e-002
2.582326e+003;3.459063e-002
2.584254e+003;3.476422e-002
2.586183e+003;3.475259e-002
2.588111e+003;3.486283e-002
2.590040e+003;3.527021e-002
2.591969e+003;3.535150e-002
2.593897e+003;3.528541e-002
2.595826e+003;3.523165e-002
2.597754e+003;3.523294e-002
2.599683e+003;3.532775e-002
2.601611e+003;3.548427e-002
2.603540e+003;3.573307e-002
2.605468e+003;3.576678e-002
2.607397e+003;3.589345e-002
2.609325e+003;3.615711e-002
2.611254e+003;3.597277e-002
2.613183e+003;3.578247e-002
2.615111e+003;3.587714e-002
2.617040e+003;3.595539e-002
2.618968e+003;3.615628e-002
2.620897e+003;3.662499e-002
2.622825e+003;3.680838e-002
2.624754e+003;3.682227e-002
2.626682e+003;3.685747e-002
2.628611e+003;3.660138e-002
2.630540e+003;3.660423e-002
2.632468e+003;3.690115e-002
2.634396e+003;3.696742e-002
2.636325e+003;3.711973e-002
2.638254e+003;3.742246e-002
2.640182e+003;3.744341e-002
2.642111e+003;3.733182e-002
2.644039e+003;3.716579e-002
2.645968e+003;3.739389e-002
2.647896e+003;3.778326e-002
2.649825e+003;3.768839e-002
2.651753e+003;3.777549e-002
2.653682e+003;3.814042e-002
2.655611e+003;3.836567e-002
2.657539e+003;3.846695e-002
2.659468e+003;3.846188e-002
2.661396e+003;3.860234e-002
2.663325e+003;3.880978e-002
2.665253e+003;3.859701e-002
2.667182e+003;3.831605e-002
2.669110e+003;3.861237e-002
2.671039e+003;3.897304e-002
2.672968e+003;3.930361e-002
2.674896e+003;3.946244e-002
2.676825e+003;3.933901e-002
2.678753e+003;3.940054e-002
2.680682e+003;3.962956e-002
2.682610e+003;3.969182e-002
2.684539e+003;3.992990e-002
2.686467e+003;4.025164e-002
2.688396e+003;4.062972e-002
2.690324e+003;4.085827e-002
2.692253e+003;4.109353e-002
2.694182e+003;4.144223e-002
2.696110e+003;4.154121e-002
2.698039e+003;4.163456e-002
2.699967e+003;4.180789e-002
2.701896e+003;4.203990e-002
2.703824e+003;4.232679e-002
2.705753e+003;4.259344e-002
2.707681e+003;4.279275e-002
2.709610e+003;4.299156e-002
2.711539e+003;4.316207e-002
2.713467e+003;4.314604e-002
2.715396e+003;4.335161e-002
2.717324e+003;4.383977e-002
2.719253e+003;4.418067e-002
2.721181e+003;4.453564e-002
2.723110e+003;4.498737e-002
2.725038e+003;4.537607e-002
2.726967e+003;4.547212e-002
2.728896e+003;4.546193e-002
2.730824e+003;4.598139e-002
2.732752e+003;4.628379e-002
2.734681e+003;4.651313e-002
2.736610e+003;4.687341e-002
2.738538e+003;4.694391e-002
2.740467e+003;4.726453e-002
2.742395e+003;4.757076e-002
2.744324e+003;4.783428e-002
2.746252e+003;4.813317e-002
2.748181e+003;4.803979e-002
2.750109e+003;4.788171e-002
2.752038e+003;4.798657e-002
2.753967e+003;4.814890e-002
2.755895e+003;4.806229e-002
2.757824e+003;4.809330e-002
2.759752e+003;4.824976e-002
2.761681e+003;4.849135e-002
2.763609e+003;4.893938e-002
2.765538e+003;4.931352e-002
2.767466e+003;4.952686e-002
2.769395e+003;4.984665e-002
2.771323e+003;5.001830e-002
2.773252e+003;5.026171e-002
2.775181e+003;5.049341e-002
2.777109e+003;5.045980e-002
2.779038e+003;5.064019e-002
2.780966e+003;5.105433e-002
2.782895e+003;5.149013e-002
2.784823e+003;5.167169e-002
2.786752e+003;5.160150e-002
2.788680e+003;5.166594e-002
2.790609e+003;5.200856e-002
2.792538e+003;5.277303e-002
2.794466e+003;5.319295e-002
2.796395e+003;5.351939e-002
2.798323e+003;5.402705e-002
2.800252e+003;5.460484e-002
2.802180e+003;5.509940e-002
2.804109e+003;5.551330e-002
2.806037e+003;5.600916e-002
2.807966e+003;5.645615e-002
2.809895e+003;5.670723e-002
2.811823e+003;5.717599e-002
2.813751e+003;5.800588e-002
2.815680e+003;5.896995e-002
2.817609e+003;5.975511e-002
2.819537e+003;6.025565e-002
2.821466e+003;6.051556e-002
2.823394e+003;6.110572e-002
2.825323e+003;6.167342e-002
2.827251e+003;6.205132e-002
2.829180e+003;6.251651e-002
2.831108e+003;6.321670e-002
2.833037e+003;6.438033e-002
2.834966e+003;6.543659e-002
2.836894e+003;6.679582e-002
2.838823e+003;6.864208e-002
2.840751e+003;7.074112e-002
2.842680e+003;7.350140e-002
2.844608e+003;7.692356e-002
2.846537e+003;8.026049e-002
2.848465e+003;8.363125e-002
2.850394e+003;8.710408e-002
2.852323e+003;9.023569e-002
2.854251e+003;9.245922e-002
2.856180e+003;9.407819e-002
2.858108e+003;9.526096e-002
2.860037e+003;9.579392e-002
2.861965e+003;9.598473e-002
2.863894e+003;9.608527e-002
2.865822e+003;9.557965e-002
2.867751e+003;9.428855e-002
2.869679e+003;9.316192e-002
2.871608e+003;9.203406e-002
2.873536e+003;9.051271e-002
2.875465e+003;8.886874e-002
2.877394e+003;8.707222e-002
2.879322e+003;8.522923e-002
2.881251e+003;8.388142e-002
2.883179e+003;8.319529e-002
2.885108e+003;8.277144e-002
2.887036e+003;8.239944e-002
2.888965e+003;8.252536e-002
2.890893e+003;8.337957e-002
2.892822e+003;8.465346e-002
2.894750e+003;8.621108e-002
2.896679e+003;8.752318e-002
2.898608e+003;8.878670e-002
2.900536e+003;9.025408e-002
2.902465e+003;9.138864e-002
2.904393e+003;9.254081e-002
2.906322e+003;9.373190e-002
2.908250e+003;9.493929e-002
2.910179e+003;9.606154e-002
2.912107e+003;9.725221e-002
2.914036e+003;9.883110e-002
2.915965e+003;1.007202e-001
2.917893e+003;1.031453e-001
2.919822e+003;1.056232e-001
2.921750e+003;1.080510e-001
2.923679e+003;1.104506e-001
2.925607e+003;1.125574e-001
2.927536e+003;1.144461e-001
2.929464e+003;1.160643e-001
2.931393e+003;1.168233e-001
2.933322e+003;1.175564e-001
2.935250e+003;1.176943e-001
2.937178e+003;1.168879e-001
2.939107e+003;1.157875e-001
2.941036e+003;1.141684e-001
2.942964e+003;1.119735e-001
2.944893e+003;1.092344e-001
2.946821e+003;1.063256e-001
2.948750e+003;1.029833e-001
2.950678e+003;9.878817e-002
2.952607e+003;9.441281e-002
2.954535e+003;9.041212e-002
2.956464e+003;8.694614e-002
2.958393e+003;8.365900e-002
2.960321e+003;8.062584e-002
2.962250e+003;7.796998e-002
2.964178e+003;7.552073e-002
2.966107e+003;7.313961e-002
2.968035e+003;7.080110e-002
2.969964e+003;6.867049e-002
2.971892e+003;6.696588e-002
2.973821e+003;6.559861e-002
2.975750e+003;6.409498e-002
2.977678e+003;6.267021e-002
2.979607e+003;6.145300e-002
2.981535e+003;6.016590e-002
2.983464e+003;5.911351e-002
2.985392e+003;5.816057e-002
2.987321e+003;5.701346e-002
2.989249e+003;5.625598e-002
2.991178e+003;5.577084e-002
2.993106e+003;5.551202e-002
2.995035e+003;5.514872e-002
2.996964e+003;5.455957e-002
2.998892e+003;5.416403e-002
3.000821e+003;5.371036e-002
3.002749e+003;5.342780e-002
3.004678e+003;5.316314e-002
3.006606e+003;5.308200e-002
3.008535e+003;5.326521e-002
3.010463e+003;5.338629e-002
3.012392e+003;5.361464e-002
3.014321e+003;5.402225e-002
3.016249e+003;5.433380e-002
3.018177e+003;5.442806e-002
3.020106e+003;5.463532e-002
3.022035e+003;5.487666e-002
3.023963e+003;5.507645e-002
3.025892e+003;5.521964e-002
3.027820e+003;5.551929e-002
3.029749e+003;5.599227e-002
3.031677e+003;5.657122e-002
3.033606e+003;5.738721e-002
3.035534e+003;5.786696e-002
3.037463e+003;5.813106e-002
3.039392e+003;5.851828e-002
3.041320e+003;5.940093e-002
3.043249e+003;6.026349e-002
3.045177e+003;6.081580e-002
3.047106e+003;6.138224e-002
3.049034e+003;6.188489e-002
3.050963e+003;6.229789e-002
3.052891e+003;6.290542e-002
3.054820e+003;6.350220e-002
3.056749e+003;6.391701e-002
3.058677e+003;6.443821e-002
3.060606e+003;6.468760e-002
3.062534e+003;6.500336e-002
3.064463e+003;6.554887e-002
3.066391e+003;6.593277e-002
3.068320e+003;6.616408e-002
3.070248e+003;6.627507e-002
3.072177e+003;6.636910e-002
3.074105e+003;6.645667e-002
3.076034e+003;6.632992e-002
3.077963e+003;6.623381e-002
3.079891e+003;6.614108e-002
3.081820e+003;6.576478e-002
3.083748e+003;6.527125e-002
3.085677e+003;6.488489e-002
3.087605e+003;6.479613e-002
3.089534e+003;6.456744e-002
3.091462e+003;6.446362e-002
3.093391e+003;6.424754e-002
3.095320e+003;6.379066e-002
3.097248e+003;6.333104e-002
3.099177e+003;6.295003e-002
3.101105e+003;6.252367e-002
3.103034e+003;6.200289e-002
3.104962e+003;6.169534e-002
3.106891e+003;6.151504e-002
3.108819e+003;6.106933e-002
3.110748e+003;6.026067e-002
3.112677e+003;5.950420e-002
3.114605e+003;5.923738e-002
3.116533e+003;5.897675e-002
3.118462e+003;5.872280e-002
3.120391e+003;5.846661e-002
3.122319e+003;5.815125e-002
3.124248e+003;5.791580e-002
3.126176e+003;5.766929e-002
3.128105e+003;5.740910e-002
3.130033e+003;5.734644e-002
3.131962e+003;5.744246e-002
3.133890e+003;5.729344e-002
3.135819e+003;5.713302e-002
3.137748e+003;5.727760e-002
3.139676e+003;5.735987e-002
3.141605e+003;5.737669e-002
3.143533e+003;5.756297e-002
3.145462e+003;5.757284e-002
3.147390e+003;5.768287e-002
3.149319e+003;5.777154e-002
3.151247e+003;5.791853e-002
3.153176e+003;5.810571e-002
3.155104e+003;5.845183e-002
3.157033e+003;5.881722e-002
3.158962e+003;5.904203e-002
3.160890e+003;5.939174e-002
3.162819e+003;5.988676e-002
3.164747e+003;6.036323e-002
3.166676e+003;6.058382e-002
3.168604e+003;6.116503e-002
3.170533e+003;6.186892e-002
3.172461e+003;6.231824e-002
3.174390e+003;6.285574e-002
3.176319e+003;6.306204e-002
3.178247e+003;6.295773e-002
3.180176e+003;6.364754e-002
3.182104e+003;6.439428e-002
3.184033e+003;6.464626e-002
3.185961e+003;6.475548e-002
3.187890e+003;6.511229e-002
3.189818e+003;6.558177e-002
3.191747e+003;6.587254e-002
3.193676e+003;6.631548e-002
3.195604e+003;6.664019e-002
3.197532e+003;6.684525e-002
3.199461e+003;6.734211e-002
3.201390e+003;6.772974e-002
3.203318e+003;6.773892e-002
3.205247e+003;6.785717e-002
3.207175e+003;6.825995e-002
3.209104e+003;6.860886e-002
3.211032e+003;6.867161e-002
3.212961e+003;6.876457e-002
3.214889e+003;6.952577e-002
3.216818e+003;7.030802e-002
3.218747e+003;7.078253e-002
3.220675e+003;7.136694e-002
3.222604e+003;7.206868e-002
3.224532e+003;7.276674e-002
3.226461e+003;7.337859e-002
3.228389e+003;7.369728e-002
3.230318e+003;7.422382e-002
3.232246e+003;7.510411e-002
3.234175e+003;7.576718e-002
3.236104e+003;7.642910e-002
3.238032e+003;7.723038e-002
3.239961e+003;7.808855e-002
3.241889e+003;7.914633e-002
3.243818e+003;8.036115e-002
3.245746e+003;8.126213e-002
3.247675e+003;8.230264e-002
3.249603e+003;8.337852e-002
3.251532e+003;8.458876e-002
3.253460e+003;8.613734e-002
3.255389e+003;8.762959e-002
3.257318e+003;8.911581e-002
3.259246e+003;9.049737e-002
3.261175e+003;9.221959e-002
3.263103e+003;9.366168e-002
3.265032e+003;9.461571e-002
3.266960e+003;9.564836e-002
3.268889e+003;9.693565e-002
3.270817e+003;9.814248e-002
3.272746e+003;9.949107e-002
3.274675e+003;1.007567e-001
3.276603e+003;1.022791e-001
3.278531e+003;1.039843e-001
3.280460e+003;1.051125e-001
3.282389e+003;1.060036e-001
3.284317e+003;1.071755e-001
3.286246e+003;1.081981e-001
3.288174e+003;1.090229e-001
3.290103e+003;1.090988e-001
3.292031e+003;1.089428e-001
3.293960e+003;1.087683e-001
3.295888e+003;1.081646e-001
3.297817e+003;1.077727e-001
3.299746e+003;1.071374e-001
3.301674e+003;1.060682e-001
3.303603e+003;1.045429e-001
3.305531e+003;1.025147e-001
3.307460e+003;1.009118e-001
3.309388e+003;9.914526e-002
3.311317e+003;9.702633e-002
3.313245e+003;9.499606e-002
3.315174e+003;9.303017e-002
3.317103e+003;9.159451e-002
3.319031e+003;9.009700e-002
3.320960e+003;8.846121e-002
3.322888e+003;8.669234e-002
3.324817e+003;8.480214e-002
3.326745e+003;8.301058e-002
3.328674e+003;8.140474e-002
3.330602e+003;7.972479e-002
3.332531e+003;7.827234e-002
3.334459e+003;7.692036e-002
3.336388e+003;7.564065e-002
3.338317e+003;7.475770e-002
3.340245e+003;7.371208e-002
3.342174e+003;7.284750e-002
3.344102e+003;7.184970e-002
3.346031e+003;7.053835e-002
3.347959e+003;6.928132e-002
3.349888e+003;6.815849e-002
3.351816e+003;6.764986e-002
3.353745e+003;6.677074e-002
3.355674e+003;6.574897e-002
3.357602e+003;6.463031e-002
3.359531e+003;6.391986e-002
3.361459e+003;6.376456e-002
3.363388e+003;6.308752e-002
3.365316e+003;6.245074e-002
3.367245e+003;6.172754e-002
3.369173e+003;6.101244e-002
3.371102e+003;6.039514e-002
3.373031e+003;5.966098e-002
3.374959e+003;5.964425e-002
3.376887e+003;5.926704e-002
3.378816e+003;5.832428e-002
3.380745e+003;5.813124e-002
3.382673e+003;5.800493e-002
3.384602e+003;5.743815e-002
3.386530e+003;5.657000e-002
3.388459e+003;5.571716e-002
3.390387e+003;5.532327e-002
3.392316e+003;5.524447e-002
3.394244e+003;5.548416e-002
3.396173e+003;5.540533e-002
3.398102e+003;5.505460e-002
3.400030e+003;5.484391e-002
3.401959e+003;5.451028e-002
3.403887e+003;5.424083e-002
3.405816e+003;5.419380e-002
3.407744e+003;5.401527e-002
3.409673e+003;5.379758e-002
3.411601e+003;5.339532e-002
3.413530e+003;5.299140e-002
3.415458e+003;5.277176e-002
3.417387e+003;5.276955e-002
3.419316e+003;5.257264e-002
3.421244e+003;5.219094e-002
3.423173e+003;5.199825e-002
3.425101e+003;5.208297e-002
3.427030e+003;5.197420e-002
3.428958e+003;5.162545e-002
3.430887e+003;5.116279e-002
3.432815e+003;5.071738e-002
3.434744e+003;5.079078e-002
3.436673e+003;5.094921e-002
3.438601e+003;5.085194e-002
3.440530e+003;5.099877e-002
3.442458e+003;5.100916e-002
3.444387e+003;5.050167e-002
3.446315e+003;4.992960e-002
3.448244e+003;4.956321e-002
3.450172e+003;4.949332e-002
3.452101e+003;4.933086e-002
3.454030e+003;4.886833e-002
3.455958e+003;4.853296e-002
3.457886e+003;4.828067e-002
3.459815e+003;4.748126e-002
3.461744e+003;4.695535e-002
3.463672e+003;4.715405e-002
3.465601e+003;4.707015e-002
3.467529e+003;4.668339e-002
3.469458e+003;4.644789e-002
3.471386e+003;4.659216e-002
3.473315e+003;4.664318e-002
3.475243e+003;4.641423e-002
3.477172e+003;4.585742e-002
3.479101e+003;4.539990e-002
3.481029e+003;4.531604e-002
3.482958e+003;4.479520e-002
3.484886e+003;4.479322e-002
3.486815e+003;4.529452e-002
3.488743e+003;4.531501e-002
3.490672e+003;4.469486e-002
3.492600e+003;4.444240e-002
3.494529e+003;4.462009e-002
3.496458e+003;4.451189e-002
3.498386e+003;4.425929e-002
3.500315e+003;4.421039e-002
3.502243e+003;4.414506e-002
3.504172e+003;4.387569e-002
3.506100e+003;4.379062e-002
3.508029e+003;4.380107e-002
3.509957e+003;4.360123e-002
3.511886e+003;4.325046e-002
3.513814e+003;4.316185e-002
3.515743e+003;4.300791e-002
3.517672e+003;4.289675e-002
3.519600e+003;4.269374e-002
3.521529e+003;4.221486e-002
3.523457e+003;4.167274e-002
3.525386e+003;4.158092e-002
3.527314e+003;4.164488e-002
3.529243e+003;4.120136e-002
3.531171e+003;4.069915e-002
3.533100e+003;4.033213e-002
3.535029e+003;3.982734e-002
3.536957e+003;3.895303e-002
3.538885e+003;3.849972e-002
3.540814e+003;3.847883e-002
3.542743e+003;3.843079e-002
3.544671e+003;3.839416e-002
3.546600e+003;3.823173e-002
3.548528e+003;3.798778e-002
3.550457e+003;3.780896e-002
3.552385e+003;3.745251e-002
3.554314e+003;3.713680e-002
3.556242e+003;3.668553e-002
3.558171e+003;3.615999e-002
3.560100e+003;3.571912e-002
3.562028e+003;3.546669e-002
3.563957e+003;3.527786e-002
3.565885e+003;3.488287e-002
3.567814e+003;3.469480e-002
3.569742e+003;3.460103e-002
3.571671e+003;3.389760e-002
3.573599e+003;3.321176e-002
3.575528e+003;3.290931e-002
3.577457e+003;3.283172e-002
3.579385e+003;3.273528e-002
3.581314e+003;3.243423e-002
3.583242e+003;3.195478e-002
3.585171e+003;3.141691e-002
3.587099e+003;3.112785e-002
3.589028e+003;3.087597e-002
3.590956e+003;3.066161e-002
3.592885e+003;3.080614e-002
3.594813e+003;3.062648e-002
3.596742e+003;2.997681e-002
3.598671e+003;2.967376e-002
3.600599e+003;2.942202e-002
3.602528e+003;2.917567e-002
3.604456e+003;2.866094e-002
3.606385e+003;2.818458e-002
3.608313e+003;2.793832e-002
3.610242e+003;2.786208e-002
3.612170e+003;2.775861e-002
3.614099e+003;2.738070e-002
3.616028e+003;2.709156e-002
3.617956e+003;2.697135e-002
3.619885e+003;2.663805e-002
3.621813e+003;2.657799e-002
3.623742e+003;2.660279e-002
3.625670e+003;2.624573e-002
3.627599e+003;2.602509e-002
3.629527e+003;2.597141e-002
3.631456e+003;2.586801e-002
3.633385e+003;2.561435e-002
3.635313e+003;2.528068e-002
3.637241e+003;2.485538e-002
3.639170e+003;2.459831e-002
3.641099e+003;2.424595e-002
3.643027e+003;2.382431e-002
3.644956e+003;2.365098e-002
3.646884e+003;2.347880e-002
3.648813e+003;2.342337e-002
3.650741e+003;2.370368e-002
3.652670e+003;2.375617e-002
3.654598e+003;2.353207e-002
3.656527e+003;2.321231e-002
3.658456e+003;2.300561e-002
3.660384e+003;2.307231e-002
3.662313e+003;2.321374e-002
3.664241e+003;2.305103e-002
3.666170e+003;2.270669e-002
3.668098e+003;2.260346e-002
3.670027e+003;2.256046e-002
3.671955e+003;2.271514e-002
3.673884e+003;2.341211e-002
3.675813e+003;2.434192e-002
3.677741e+003;2.389688e-002
3.679669e+003;2.259393e-002
3.681598e+003;2.183911e-002
3.683527e+003;2.132941e-002
3.685455e+003;2.084002e-002
3.687384e+003;2.064668e-002
3.689312e+003;2.078670e-002
3.691241e+003;2.076140e-002
3.693169e+003;2.041762e-002
3.695098e+003;2.031417e-002
3.697026e+003;2.020971e-002
3.698955e+003;2.004323e-002
3.700884e+003;2.000787e-002
3.702812e+003;1.971960e-002
3.704741e+003;1.956884e-002
3.706669e+003;1.940101e-002
3.708598e+003;1.896920e-002
3.710526e+003;1.906450e-002
3.712455e+003;1.931620e-002
3.714383e+003;1.939210e-002
3.716312e+003;1.943039e-002
3.718240e+003;1.942311e-002
3.720169e+003;1.926916e-002
3.722098e+003;1.941892e-002
3.724026e+003;1.980543e-002
3.725955e+003;1.971558e-002
3.727883e+003;1.938756e-002
3.729812e+003;1.950732e-002
3.731740e+003;1.973729e-002
3.733669e+003;1.961348e-002
3.735597e+003;1.911893e-002
3.737526e+003;1.923241e-002
3.739455e+003;1.951834e-002
3.741383e+003;1.952728e-002
3.743312e+003;1.968220e-002
3.745240e+003;1.991163e-002
3.747169e+003;1.996377e-002
3.749097e+003;1.962187e-002
3.751026e+003;1.949055e-002
3.752954e+003;1.921786e-002
3.754883e+003;1.909826e-002
3.756812e+003;1.907198e-002
3.758740e+003;1.899132e-002
3.760668e+003;1.950832e-002
3.762597e+003;1.990511e-002
3.764526e+003;1.976593e-002
3.766454e+003;2.015095e-002
3.768383e+003;2.051289e-002
3.770311e+003;2.029247e-002
3.772240e+003;1.953224e-002
3.774168e+003;1.928530e-002
3.776097e+003;1.977418e-002
3.778025e+003;1.949900e-002
3.779954e+003;1.901662e-002
3.781883e+003;1.898266e-002
3.783811e+003;1.912852e-002
3.785740e+003;1.938306e-002
3.787668e+003;1.920664e-002
3.789597e+003;1.925811e-002
3.791525e+003;1.960794e-002
3.793454e+003;2.003181e-002
3.795382e+003;2.003452e-002
3.797311e+003;1.998386e-002
3.799240e+003;2.004590e-002
3.801168e+003;1.997404e-002
3.803097e+003;2.020780e-002
3.805025e+003;2.020652e-002
3.806954e+003;1.977710e-002
3.808882e+003;2.018385e-002
3.810811e+003;2.061343e-002
3.812739e+003;2.024213e-002
3.814668e+003;1.989103e-002
3.816596e+003;1.988014e-002
3.818525e+003;1.964974e-002
3.820454e+003;1.973368e-002
3.822382e+003;1.992339e-002
3.824311e+003;1.981032e-002
3.826239e+003;1.997540e-002
3.828168e+003;2.027605e-002
3.830096e+003;2.042585e-002
3.832025e+003;2.040928e-002
3.833953e+003;2.009278e-002
3.835882e+003;1.996159e-002
3.837811e+003;1.985124e-002
3.839739e+003;2.009042e-002
3.841667e+003;2.044575e-002
3.843596e+003;2.019739e-002
3.845525e+003;2.026171e-002
3.847453e+003;2.066861e-002
3.849382e+003;2.041828e-002
3.851310e+003;2.021460e-002
3.853239e+003;2.042578e-002
3.855167e+003;2.069755e-002
3.857096e+003;2.068966e-002
3.859024e+003;2.059328e-002
3.860953e+003;2.061749e-002
3.862882e+003;2.039411e-002
3.864810e+003;2.027723e-002
3.866739e+003;2.055836e-002
3.868667e+003;2.078010e-002
3.870596e+003;2.073314e-002
3.872524e+003;2.056389e-002
3.874453e+003;2.014248e-002
3.876381e+003;2.014348e-002
3.878310e+003;2.051192e-002
3.880239e+003;2.068358e-002
3.882167e+003;2.092082e-002
3.884096e+003;2.108388e-002
3.886024e+003;2.076178e-002
3.887953e+003;2.051588e-002
3.889881e+003;2.052935e-002
3.891810e+003;2.112197e-002
3.893738e+003;2.142937e-002
3.895667e+003;2.153650e-002
3.897595e+003;2.145861e-002
3.899524e+003;2.125042e-002
3.901453e+003;2.109376e-002
3.903381e+003;2.111449e-002
3.905310e+003;2.143338e-002
3.907238e+003;2.180949e-002
3.909167e+003;2.200150e-002
3.911095e+003;2.213293e-002
3.913024e+003;2.212404e-002
3.914952e+003;2.157173e-002
3.916881e+003;2.130418e-002
3.918810e+003;2.172386e-002
3.920738e+003;2.234584e-002
3.922667e+003;2.235760e-002
3.924595e+003;2.209144e-002
3.926524e+003;2.204396e-002
3.928452e+003;2.251443e-002
3.930381e+003;2.275138e-002
3.932309e+003;2.270170e-002
3.934238e+003;2.275854e-002
3.936167e+003;2.267101e-002
3.938095e+003;2.237190e-002
3.940023e+003;2.257393e-002
3.941952e+003;2.342347e-002
3.943881e+003;2.359105e-002
3.945809e+003;2.331896e-002
3.947738e+003;2.315460e-002
3.949666e+003;2.325974e-002
3.951595e+003;2.342896e-002
3.953523e+003;2.360788e-002
3.955452e+003;2.382620e-002
3.957380e+003;2.377601e-002
3.959309e+003;2.332214e-002
3.961238e+003;2.354746e-002
3.963166e+003;2.405718e-002
3.965095e+003;2.380506e-002
3.967023e+003;2.321549e-002
3.968952e+003;2.331008e-002
3.970880e+003;2.391974e-002
3.972809e+003;2.440395e-002
3.974737e+003;2.456265e-002
3.976666e+003;2.425131e-002
3.978594e+003;2.440416e-002
3.980523e+003;2.478020e-002
3.982452e+003;2.455939e-002
3.984380e+003;2.420594e-002
3.986309e+003;2.396119e-002
3.988237e+003;2.443669e-002
3.990166e+003;2.500533e-002
3.992094e+003;2.517727e-002
3.994023e+003;2.514479e-002
3.995951e+003;2.511182e-002
3.997880e+003;2.526895e-002
3.999809e+003;2.541750e-002
4.001737e+003;0.000000e+000
