3.992094e+002;0.000000e+000
4.011380e+002;0.000000e+000
4.030665e+002;0.000000e+000
4.049951e+002;0.000000e+000
4.069236e+002;0.000000e+000
4.088522e+002;0.000000e+000
4.107807e+002;0.000000e+000
4.127093e+002;0.000000e+000
4.146378e+002;0.000000e+000
4.165664e+002;0.000000e+000
4.184949e+002;0.000000e+000
4.204235e+002;0.000000e+000
4.223520e+002;0.000000e+000
4.242806e+002;0.000000e+000
4.262091e+002;0.000000e+000
4.281377e+002;0.000000e+000
4.300662e+002;0.000000e+000
4.319948e+002;0.000000e+000
4.339233e+002;0.000000e+000
4.358519e+002;0.000000e+000
4.377804e+002;0.000000e+000
4.397090e+002;0.000000e+000
4.416375e+002;0.000000e+000
4.435660e+002;0.000000e+000
4.454946e+002;0.000000e+000
4.474232e+002;0.000000e+000
4.493517e+002;0.000000e+000
4.512802e+002;0.000000e+000
4.532088e+002;0.000000e+000
4.551373e+002;0.000000e+000
4.570659e+002;0.000000e+000
4.589944e+002;0.000000e+000
4.609230e+002;0.000000e+000
4.628515e+002;0.000000e+000
4.647801e+002;0.000000e+000
4.667086e+002;0.000000e+000
4.686372e+002;0.000000e+000
4.705657e+002;0.000000e+000
4.724943e+002;0.000000e+000
4.744228e+002;0.000000e+000
4.763513e+002;0.000000e+000
4.782799e+002;0.000000e+000
4.802085e+002;0.000000e+000
4.821370e+002;0.000000e+000
4.840656e+002;0.000000e+000
4.859941e+002;0.000000e+000
4.879226e+002;0.000000e+000
4.898512e+002;0.000000e+000
4.917798e+002;0.000000e+000
4.937083e+002;0.000000e+000
4.956368e+002;0.000000e+000
4.975654e+002;0.000000e+000
4.994939e+002;0.000000e+000
5.014225e+002;0.000000e+000
5.033510e+002;0.000000e+000
5.052796e+002;0.000000e+000
5.072081e+002;0.000000e+000
5.091367e+002;0.000000e+000
5.110652e+002;0.000000e+000
5.129938e+002;0.000000e+000
5.149223e+002;0.000000e+000
5.168509e+002;0.000000e+000
5.187794e+002;0.000000e+000
5.207079e+002;0.000000e+000
5.226365e+002;0.000000e+000
5.245651e+002;0.000000e+000
5.264936e+002;0.000000e+000
5.284222e+002;0.000000e+000
5.303507e+002;0.000000e+000
5.322792e+002;0.000000e+000
5.342078e+002;0.000000e+000
5.361364e+002;0.000000e+000
5.380649e+002;0.000000e+000
5.399935e+002;0.000000e+000
5.419220e+002;0.000000e+000
5.438505e+002;0.000000e+000
5.457791e+002;0.000000e+000
5.477076e+002;0.000000e+000
5.496362e+002;0.000000e+000
5.515648e+002;0.000000e+000
5.534933e+002;0.000000e+000
5.554218e+002;0.000000e+000
5.573504e+002;0.000000e+000
5.592789e+002;0.000000e+000
5.612075e+002;0.000000e+000
5.631360e+002;0.000000e+000
5.650646e+002;0.000000e+000
5.669931e+002;0.000000e+000
5.689217e+002;0.000000e+000
5.708502e+002;0.000000e+000
5.727787e+002;0.000000e+000
5.747073e+002;0.000000e+000
5.766359e+002;0.000000e+000
5.785644e+002;0.000000e+000
5.804930e+002;0.000000e+000
5.824215e+002;0.000000e+000
5.843500e+002;0.000000e+000
5.862786e+002;0.000000e+000
5.882072e+002;0.000000e+000
5.901357e+002;0.000000e+000
5.920643e+002;0.000000e+000
5.939928e+002;0.000000e+000
5.959213e+002;0.000000e+000
5.978499e+002;0.000000e+000
5.997784e+002;1.197540e-001
6.017070e+002;1.204346e-001
6.036355e+002;1.160174e-001
6.055641e+002;1.121098e-001
6.074926e+002;1.095608e-001
6.094211e+002;1.112793e-001
6.113497e+002;1.134900e-001
6.132783e+002;1.127053e-001
6.152068e+002;1.150172e-001
6.171354e+002;1.174266e-001
6.190639e+002;1.185796e-001
6.209924e+002;1.204223e-001
6.229210e+002;1.224300e-001
6.248495e+002;1.217825e-001
6.267781e+002;1.195612e-001
6.287067e+002;1.171588e-001
6.306352e+002;1.148647e-001
6.325637e+002;1.170290e-001
6.344923e+002;1.204808e-001
6.364208e+002;1.203428e-001
6.383494e+002;1.197996e-001
6.402780e+002;1.202374e-001
6.422065e+002;1.214932e-001
6.441350e+002;1.213017e-001
6.460636e+002;1.198973e-001
6.479921e+002;1.210731e-001
6.499207e+002;1.249972e-001
6.518492e+002;1.282943e-001
6.537778e+002;1.284469e-001
6.557063e+002;1.323390e-001
6.576349e+002;1.380490e-001
6.595634e+002;1.406649e-001
6.614919e+002;1.424915e-001
6.634205e+002;1.428461e-001
6.653491e+002;1.438325e-001
6.672776e+002;1.453828e-001
6.692062e+002;1.455651e-001
6.711347e+002;1.474514e-001
6.730632e+002;1.509657e-001
6.749918e+002;1.517988e-001
6.769203e+002;1.524221e-001
6.788489e+002;1.541509e-001
6.807775e+002;1.548390e-001
6.827060e+002;1.570024e-001
6.846345e+002;1.580543e-001
6.865631e+002;1.552801e-001
6.884916e+002;1.527577e-001
6.904202e+002;1.520619e-001
6.923488e+002;1.501448e-001
6.942773e+002;1.484861e-001
6.962058e+002;1.478846e-001
6.981344e+002;1.450709e-001
7.000629e+002;1.418134e-001
7.019915e+002;1.396233e-001
7.039200e+002;1.384410e-001
7.058486e+002;1.371146e-001
7.077771e+002;1.364089e-001
7.097057e+002;1.359525e-001
7.116342e+002;1.336764e-001
7.135627e+002;1.308536e-001
7.154913e+002;1.291166e-001
7.174199e+002;1.283055e-001
7.193484e+002;1.270528e-001
7.212770e+002;1.262546e-001
7.232055e+002;1.270880e-001
7.251340e+002;1.291198e-001
7.270626e+002;1.289635e-001
7.289911e+002;1.263182e-001
7.309197e+002;1.218331e-001
7.328483e+002;1.163018e-001
7.347768e+002;1.105849e-001
7.367053e+002;1.055381e-001
7.386339e+002;1.018298e-001
7.405624e+002;9.858793e-002
7.424910e+002;9.636894e-002
7.444196e+002;9.525989e-002
7.463481e+002;9.300653e-002
7.482766e+002;9.054621e-002
7.502052e+002;8.954760e-002
7.521337e+002;8.872085e-002
7.540623e+002;8.767463e-002
7.559908e+002;8.521850e-002
7.579194e+002;8.273857e-002
7.598479e+002;8.253634e-002
7.617765e+002;8.173309e-002
7.637050e+002;8.012164e-002
7.656335e+002;7.979147e-002
7.675621e+002;7.911945e-002
7.694907e+002;7.808256e-002
7.714192e+002;7.752082e-002
7.733478e+002;7.720912e-002
7.752763e+002;7.587098e-002
7.772048e+002;7.417677e-002
7.791334e+002;7.328095e-002
7.810620e+002;7.300027e-002
7.829905e+002;7.182956e-002
7.849191e+002;7.039638e-002
7.868476e+002;6.951259e-002
7.887761e+002;6.861077e-002
7.907047e+002;6.731232e-002
7.926332e+002;6.680123e-002
7.945618e+002;6.625982e-002
7.964903e+002;6.497739e-002
7.984189e+002;6.362813e-002
8.003474e+002;6.288692e-002
8.022759e+002;6.193766e-002
8.042045e+002;6.072719e-002
8.061331e+002;6.011548e-002
8.080616e+002;5.967208e-002
8.099902e+002;5.927106e-002
8.119187e+002;5.893451e-002
8.138472e+002;5.838424e-002
8.157758e+002;5.804557e-002
8.177043e+002;5.810700e-002
8.196329e+002;5.784111e-002
8.215615e+002;5.767719e-002
8.234900e+002;5.786625e-002
8.254185e+002;5.844459e-002
8.273471e+002;5.906378e-002
8.292756e+002;5.998185e-002
8.312042e+002;6.121618e-002
8.331328e+002;6.142759e-002
8.350613e+002;6.001438e-002
8.369898e+002;5.819315e-002
8.389184e+002;5.615646e-002
8.408469e+002;5.490542e-002
8.427755e+002;5.435580e-002
8.447040e+002;5.307272e-002
8.466326e+002;5.196950e-002
8.485611e+002;5.114769e-002
8.504897e+002;5.040804e-002
8.524182e+002;5.033693e-002
8.543467e+002;5.030932e-002
8.562753e+002;4.994514e-002
8.582039e+002;5.010501e-002
8.601324e+002;5.058192e-002
8.620610e+002;5.090759e-002
8.639895e+002;5.067880e-002
8.659180e+002;5.048939e-002
8.678466e+002;5.060206e-002
8.697751e+002;5.046810e-002
8.717037e+002;5.044350e-002
8.736323e+002;5.053509e-002
8.755608e+002;5.075506e-002
8.774893e+002;5.091441e-002
8.794179e+002;5.109626e-002
8.813464e+002;5.120667e-002
8.832750e+002;5.113185e-002
8.852036e+002;5.153008e-002
8.871321e+002;5.211226e-002
8.890606e+002;5.228750e-002
8.909892e+002;5.227980e-002
8.929177e+002;5.235830e-002
8.948463e+002;5.271006e-002
8.967748e+002;5.304123e-002
8.987034e+002;5.296666e-002
9.006319e+002;5.323603e-002
9.025605e+002;5.372528e-002
9.044890e+002;5.420153e-002
9.064175e+002;5.469950e-002
9.083461e+002;5.485857e-002
9.102747e+002;5.520252e-002
9.122032e+002;5.560024e-002
9.141318e+002;5.613749e-002
9.160603e+002;5.707939e-002
9.179888e+002;5.765108e-002
9.199174e+002;5.832224e-002
9.218459e+002;5.956854e-002
9.237745e+002;6.064885e-002
9.257031e+002;6.203305e-002
9.276316e+002;6.353231e-002
9.295601e+002;6.370666e-002
9.314887e+002;6.269490e-002
9.334172e+002;6.125746e-002
9.353458e+002;5.978614e-002
9.372744e+002;5.905532e-002
9.392029e+002;5.872947e-002
9.411314e+002;5.879730e-002
9.430600e+002;5.938615e-002
9.449885e+002;6.058965e-002
9.469171e+002;6.215698e-002
9.488456e+002;6.371740e-002
9.507742e+002;6.491632e-002
9.527027e+002;6.522874e-002
9.546313e+002;6.550059e-002
9.565598e+002;6.635740e-002
9.584883e+002;6.746981e-002
9.604169e+002;6.794181e-002
9.623455e+002;6.735700e-002
9.642740e+002;6.625423e-002
9.662026e+002;6.555538e-002
9.681311e+002;6.561384e-002
9.700596e+002;6.588199e-002
9.719882e+002;6.614594e-002
9.739167e+002;6.572942e-002
9.758453e+002;6.493121e-002
9.777739e+002;6.402525e-002
9.797024e+002;6.323256e-002
9.816309e+002;6.240962e-002
9.835595e+002;6.181857e-002
9.854880e+002;6.130245e-002
9.874166e+002;6.043166e-002
9.893452e+002;5.957219e-002
9.912737e+002;5.872754e-002
9.932022e+002;5.794552e-002
9.951307e+002;5.754704e-002
9.970593e+002;5.735242e-002
9.989879e+002;5.732100e-002
1.000916e+003;5.736758e-002
1.002845e+003;5.723578e-002
1.004773e+003;5.701395e-002
1.006702e+003;5.674729e-002
1.008631e+003;5.642955e-002
1.010559e+003;5.628004e-002
1.012488e+003;5.602035e-002
1.014416e+003;5.584322e-002
1.016345e+003;5.599061e-002
1.018273e+003;5.667974e-002
1.020202e+003;5.772904e-002
1.022130e+003;5.863659e-002
1.024059e+003;5.963338e-002
1.025988e+003;6.067979e-002
1.027916e+003;6.100031e-002
1.029845e+003;6.096939e-002
1.031773e+003;6.066013e-002
1.033702e+003;6.027628e-002
1.035630e+003;6.006886e-002
1.037559e+003;5.926878e-002
1.039487e+003;5.803644e-002
1.041416e+003;5.713113e-002
1.043344e+003;5.663701e-002
1.045273e+003;5.642389e-002
1.047202e+003;5.641366e-002
1.049130e+003;5.686473e-002
1.051059e+003;5.757507e-002
1.052987e+003;5.861508e-002
1.054916e+003;5.980328e-002
1.056844e+003;6.079872e-002
1.058773e+003;6.177865e-002
1.060701e+003;6.299320e-002
1.062630e+003;6.454061e-002
1.064558e+003;6.569149e-002
1.066487e+003;6.635783e-002
1.068416e+003;6.678620e-002
1.070344e+003;6.656429e-002
1.072273e+003;6.659558e-002
1.074201e+003;6.729185e-002
1.076130e+003;6.735124e-002
1.078058e+003;6.658998e-002
1.079987e+003;6.599306e-002
1.081915e+003;6.536834e-002
1.083844e+003;6.426829e-002
1.085773e+003;6.370106e-002
1.087701e+003;6.366745e-002
1.089630e+003;6.356173e-002
1.091558e+003;6.364946e-002
1.093487e+003;6.366726e-002
1.095415e+003;6.396381e-002
1.097344e+003;6.436262e-002
1.099272e+003;6.505413e-002
1.101201e+003;6.606384e-002
1.103129e+003;6.804644e-002
1.105058e+003;6.971375e-002
1.106987e+003;7.069499e-002
1.108915e+003;7.159198e-002
1.110844e+003;7.264249e-002
1.112772e+003;7.330864e-002
1.114701e+003;7.395888e-002
1.116629e+003;7.451363e-002
1.118558e+003;7.475239e-002
1.120486e+003;7.449337e-002
1.122415e+003;7.314914e-002
1.124344e+003;7.070513e-002
1.126272e+003;6.805423e-002
1.128201e+003;6.522547e-002
1.130129e+003;6.268958e-002
1.132058e+003;6.123419e-002
1.133986e+003;6.045390e-002
1.135915e+003;5.986698e-002
1.137843e+003;6.046269e-002
1.139772e+003;6.133248e-002
1.141700e+003;6.241314e-002
1.143629e+003;6.431828e-002
1.145557e+003;6.602249e-002
1.147486e+003;6.752481e-002
1.149415e+003;6.967259e-002
1.151343e+003;7.212455e-002
1.153272e+003;7.451887e-002
1.155200e+003;7.690838e-002
1.157129e+003;7.992456e-002
1.159057e+003;8.413544e-002
1.160986e+003;8.913615e-002
1.162914e+003;9.458975e-002
1.164843e+003;9.967159e-002
1.166771e+003;1.037666e-001
1.168700e+003;1.057412e-001
1.170629e+003;1.049028e-001
1.172557e+003;1.015469e-001
1.174486e+003;9.690935e-002
1.176414e+003;9.219726e-002
1.178343e+003;8.838461e-002
1.180271e+003;8.586753e-002
1.182200e+003;8.441053e-002
1.184128e+003;8.469332e-002
1.186057e+003;8.665019e-002
1.187986e+003;8.921361e-002
1.189914e+003;9.223725e-002
1.191843e+003;9.565572e-002
1.193771e+003;9.942766e-002
1.195700e+003;1.035283e-001
1.197628e+003;1.066146e-001
1.199557e+003;1.078021e-001
1.201485e+003;1.061040e-001
1.203414e+003;1.030118e-001
1.205343e+003;1.005098e-001
1.207271e+003;9.886983e-002
1.209200e+003;9.800448e-002
1.211128e+003;9.793818e-002
1.213057e+003;9.762564e-002
1.214985e+003;9.589721e-002
1.216914e+003;9.354416e-002
1.218842e+003;9.129742e-002
1.220771e+003;8.970070e-002
1.222699e+003;8.974445e-002
1.224628e+003;9.148148e-002
1.226557e+003;9.438975e-002
1.228485e+003;9.792382e-002
1.230414e+003;1.018147e-001
1.232342e+003;1.059552e-001
1.234271e+003;1.089479e-001
1.236199e+003;1.100608e-001
1.238128e+003;1.099123e-001
1.240056e+003;1.094380e-001
1.241985e+003;1.092313e-001
1.243913e+003;1.090563e-001
1.245842e+003;1.090593e-001
1.247771e+003;1.098698e-001
1.249699e+003;1.113358e-001
1.251628e+003;1.132769e-001
1.253556e+003;1.158130e-001
1.255485e+003;1.185480e-001
1.257413e+003;1.206706e-001
1.259342e+003;1.220071e-001
1.261270e+003;1.230040e-001
1.263199e+003;1.222667e-001
1.265127e+003;1.188734e-001
1.267056e+003;1.136943e-001
1.268985e+003;1.083099e-001
1.270913e+003;1.043648e-001
1.272842e+003;1.022647e-001
1.274770e+003;1.013348e-001
1.276699e+003;1.009366e-001
1.278627e+003;1.005041e-001
1.280556e+003;9.931494e-002
1.282484e+003;9.788824e-002
1.284413e+003;9.645189e-002
1.286342e+003;9.482551e-002
1.288270e+003;9.380390e-002
1.290199e+003;9.345540e-002
1.292127e+003;9.318565e-002
1.294056e+003;9.273665e-002
1.295984e+003;9.215383e-002
1.297913e+003;9.165658e-002
1.299841e+003;9.135131e-002
1.301770e+003;9.093568e-002
1.303698e+003;9.048484e-002
1.305627e+003;8.990430e-002
1.307556e+003;8.902534e-002
1.309484e+003;8.805720e-002
1.311413e+003;8.716264e-002
1.313341e+003;8.619475e-002
1.315270e+003;8.541033e-002
1.317198e+003;8.470971e-002
1.319127e+003;8.385453e-002
1.321055e+003;8.309948e-002
1.322984e+003;8.255513e-002
1.324912e+003;8.208175e-002
1.326841e+003;8.211241e-002
1.328770e+003;8.260374e-002
1.330698e+003;8.331554e-002
1.332627e+003;8.360039e-002
1.334555e+003;8.374337e-002
1.336484e+003;8.399120e-002
1.338412e+003;8.424218e-002
1.340341e+003;8.471084e-002
1.342269e+003;8.553999e-002
1.344198e+003;8.630621e-002
1.346126e+003;8.704209e-002
1.348055e+003;8.807246e-002
1.349984e+003;8.918805e-002
1.351912e+003;9.020142e-002
1.353841e+003;9.147821e-002
1.355769e+003;9.304216e-002
1.357698e+003;9.466322e-002
1.359626e+003;9.605868e-002
1.361555e+003;9.731895e-002
1.363483e+003;9.893208e-002
1.365412e+003;1.006546e-001
1.367341e+003;1.019771e-001
1.369269e+003;1.029245e-001
1.371198e+003;1.033280e-001
1.373126e+003;1.028947e-001
1.375055e+003;1.013219e-001
1.376983e+003;9.922578e-002
1.378912e+003;9.662069e-002
1.380840e+003;9.382672e-002
1.382769e+003;9.117363e-002
1.384698e+003;8.843371e-002
1.386626e+003;8.558619e-002
1.388555e+003;8.351866e-002
1.390483e+003;8.205862e-002
1.392412e+003;8.059420e-002
1.394340e+003;7.930749e-002
1.396269e+003;7.899591e-002
1.398197e+003;7.943582e-002
1.400126e+003;8.075208e-002
1.402054e+003;8.262210e-002
1.403983e+003;8.493073e-002
1.405911e+003;8.828082e-002
1.407840e+003;9.275535e-002
1.409769e+003;9.811067e-002
1.411697e+003;1.037615e-001
1.413626e+003;1.086404e-001
1.415554e+003;1.118285e-001
1.417483e+003;1.122346e-001
1.419411e+003;1.107559e-001
1.421340e+003;1.089932e-001
1.423268e+003;1.068837e-001
1.425197e+003;1.052518e-001
1.427125e+003;1.050440e-001
1.429054e+003;1.062055e-001
1.430983e+003;1.084464e-001
1.432911e+003;1.104607e-001
1.434840e+003;1.108948e-001
1.436768e+003;1.104889e-001
1.438697e+003;1.106400e-001
1.440625e+003;1.101337e-001
1.442554e+003;1.094032e-001
1.444482e+003;1.091202e-001
1.446411e+003;1.089281e-001
1.448340e+003;1.093657e-001
1.450268e+003;1.107629e-001
1.452197e+003;1.124519e-001
1.454125e+003;1.137564e-001
1.456054e+003;1.146054e-001
1.457982e+003;1.183818e-001
1.459911e+003;1.242650e-001
1.461839e+003;1.278445e-001
1.463768e+003;1.268634e-001
1.465697e+003;1.223117e-001
1.467625e+003;1.166335e-001
1.469554e+003;1.117179e-001
1.471482e+003;1.087489e-001
1.473411e+003;1.085487e-001
1.475339e+003;1.094814e-001
1.477268e+003;1.089514e-001
1.479196e+003;1.068462e-001
1.481125e+003;1.028570e-001
1.483053e+003;9.792315e-002
1.484982e+003;9.336814e-002
1.486911e+003;9.052581e-002
1.488839e+003;8.970131e-002
1.490768e+003;9.081548e-002
1.492696e+003;9.305693e-002
1.494625e+003;9.504300e-002
1.496553e+003;9.777464e-002
1.498482e+003;1.018009e-001
1.500410e+003;1.062659e-001
1.502339e+003;1.107827e-001
1.504267e+003;1.143407e-001
1.506196e+003;1.181462e-001
1.508125e+003;1.244970e-001
1.510053e+003;1.314328e-001
1.511982e+003;1.375115e-001
1.513910e+003;1.434259e-001
1.515839e+003;1.493580e-001
1.517767e+003;1.557910e-001
1.519696e+003;1.623786e-001
1.521624e+003;1.698325e-001
1.523553e+003;1.783819e-001
1.525481e+003;1.858839e-001
1.527410e+003;1.932346e-001
1.529339e+003;2.006726e-001
1.531267e+003;2.068832e-001
1.533196e+003;2.117390e-001
1.535124e+003;2.156951e-001
1.537053e+003;2.167263e-001
1.538981e+003;2.144646e-001
1.540910e+003;2.118160e-001
1.542838e+003;2.081481e-001
1.544767e+003;2.021270e-001
1.546695e+003;1.946251e-001
1.548624e+003;1.860480e-001
1.550553e+003;1.774836e-001
1.552481e+003;1.693107e-001
1.554410e+003;1.613536e-001
1.556338e+003;1.540887e-001
1.558267e+003;1.462447e-001
1.560195e+003;1.402269e-001
1.562124e+003;1.360088e-001
1.564052e+003;1.304384e-001
1.565981e+003;1.242668e-001
1.567910e+003;1.178092e-001
1.569838e+003;1.111032e-001
1.571767e+003;1.054438e-001
1.573695e+003;9.963975e-002
1.575624e+003;9.357125e-002
1.577552e+003;8.983544e-002
1.579481e+003;8.739674e-002
1.581409e+003;8.480379e-002
1.583338e+003;8.258246e-002
1.585266e+003;8.103961e-002
1.587195e+003;8.036450e-002
1.589124e+003;8.024299e-002
1.591052e+003;8.085580e-002
1.592981e+003;8.223107e-002
1.594909e+003;8.404576e-002
1.596838e+003;8.639159e-002
1.598766e+003;8.974319e-002
1.600695e+003;9.361482e-002
1.602623e+003;9.830330e-002
1.604552e+003;1.039971e-001
1.606480e+003;1.099810e-001
1.608409e+003;1.164164e-001
1.610338e+003;1.235218e-001
1.612266e+003;1.310399e-001
1.614195e+003;1.390305e-001
1.616123e+003;1.479137e-001
1.618052e+003;1.596836e-001
1.619980e+003;1.724558e-001
1.621909e+003;1.847071e-001
1.623837e+003;1.973537e-001
1.625766e+003;2.105763e-001
1.627694e+003;2.238475e-001
1.629623e+003;2.371947e-001
1.631552e+003;2.500457e-001
1.633480e+003;2.602730e-001
1.635409e+003;2.665231e-001
1.637337e+003;2.685619e-001
1.639266e+003;2.640092e-001
1.641194e+003;2.531506e-001
1.643123e+003;2.382665e-001
1.645051e+003;2.215426e-001
1.646980e+003;2.053957e-001
1.648909e+003;1.908397e-001
1.650837e+003;1.761731e-001
1.652766e+003;1.623327e-001
1.654694e+003;1.536539e-001
1.656623e+003;1.469946e-001
1.658551e+003;1.392741e-001
1.660480e+003;1.313660e-001
1.662408e+003;1.234534e-001
1.664337e+003;1.160202e-001
1.666266e+003;1.085547e-001
1.668194e+003;1.008287e-001
1.670123e+003;9.403507e-002
1.672051e+003;8.850240e-002
1.673980e+003;8.265071e-002
1.675908e+003;7.697491e-002
1.677837e+003;7.206157e-002
1.679765e+003;6.649636e-002
1.681694e+003;6.033883e-002
1.683622e+003;5.367087e-002
1.685551e+003;4.956481e-002
1.687479e+003;4.716875e-002
1.689408e+003;4.427580e-002
1.691337e+003;4.189483e-002
1.693265e+003;3.948751e-002
1.695194e+003;3.681690e-002
1.697122e+003;3.570055e-002
1.699051e+003;3.441596e-002
1.700979e+003;3.385537e-002
1.702908e+003;3.472269e-002
1.704836e+003;3.469247e-002
1.706765e+003;3.475492e-002
1.708693e+003;3.465924e-002
1.710622e+003;3.472510e-002
1.712551e+003;3.459759e-002
1.714479e+003;3.393371e-002
1.716408e+003;3.307243e-002
1.718336e+003;3.349595e-002
1.720265e+003;3.472685e-002
1.722193e+003;3.520610e-002
1.724122e+003;3.521620e-002
1.726050e+003;3.535215e-002
1.727979e+003;3.523190e-002
1.729908e+003;3.484603e-002
1.731836e+003;3.382932e-002
1.733765e+003;3.275368e-002
1.735693e+003;3.320679e-002
1.737622e+003;3.350121e-002
1.739550e+003;3.304404e-002
1.741479e+003;3.287617e-002
1.743407e+003;3.229922e-002
1.745336e+003;3.154484e-002
1.747265e+003;3.043726e-002
1.749193e+003;2.924265e-002
1.751122e+003;2.839864e-002
1.753050e+003;2.825087e-002
1.754979e+003;2.771651e-002
1.756907e+003;2.682833e-002
1.758836e+003;2.628308e-002
1.760764e+003;2.551900e-002
1.762693e+003;2.490387e-002
1.764621e+003;2.471695e-002
1.766550e+003;2.409458e-002
1.768479e+003;2.350090e-002
1.770407e+003;2.287706e-002
1.772336e+003;2.213778e-002
1.774264e+003;2.230562e-002
1.776193e+003;2.243100e-002
1.778121e+003;2.220291e-002
1.780050e+003;2.187109e-002
1.781978e+003;2.148970e-002
1.783907e+003;2.119416e-002
1.785835e+003;2.107999e-002
1.787764e+003;2.118393e-002
1.789693e+003;2.092019e-002
1.791621e+003;2.010920e-002
1.793550e+003;2.004343e-002
1.795478e+003;2.034563e-002
1.797407e+003;1.998469e-002
1.799335e+003;1.962267e-002
1.801264e+003;1.941705e-002
1.803192e+003;1.945953e-002
1.805121e+003;1.958125e-002
1.807049e+003;1.950562e-002
1.808978e+003;1.908787e-002
1.810907e+003;1.899467e-002
1.812835e+003;1.908513e-002
1.814764e+003;1.905058e-002
1.816692e+003;1.879561e-002
1.818621e+003;1.871908e-002
1.820549e+003;1.882585e-002
1.822478e+003;1.886187e-002
1.824406e+003;1.860791e-002
1.826335e+003;1.842210e-002
1.828264e+003;1.804704e-002
1.830192e+003;1.797441e-002
1.832121e+003;1.842414e-002
1.834049e+003;1.858357e-002
1.835978e+003;1.835417e-002
1.837906e+003;1.814539e-002
1.839835e+003;1.818460e-002
1.841763e+003;1.792589e-002
1.843692e+003;1.746591e-002
1.845620e+003;1.759387e-002
1.847549e+003;1.771859e-002
1.849478e+003;1.771362e-002
1.851406e+003;1.793065e-002
1.853335e+003;1.789461e-002
1.855263e+003;1.758838e-002
1.857192e+003;1.754153e-002
1.859120e+003;1.749561e-002
1.861049e+003;1.737865e-002
1.862977e+003;1.747140e-002
1.864906e+003;1.745198e-002
1.866834e+003;1.717199e-002
1.868763e+003;1.691523e-002
1.870692e+003;1.704495e-002
1.872620e+003;1.739107e-002
1.874549e+003;1.758566e-002
1.876477e+003;1.760198e-002
1.878406e+003;1.746557e-002
1.880334e+003;1.732675e-002
1.882263e+003;1.731710e-002
1.884191e+003;1.739883e-002
1.886120e+003;1.732803e-002
1.888048e+003;1.725049e-002
1.889977e+003;1.738324e-002
1.891906e+003;1.767237e-002
1.893834e+003;1.769242e-002
1.895763e+003;1.751272e-002
1.897691e+003;1.752345e-002
1.899620e+003;1.759128e-002
1.901548e+003;1.763669e-002
1.903477e+003;1.756113e-002
1.905405e+003;1.752932e-002
1.907334e+003;1.768142e-002
1.909262e+003;1.768673e-002
1.911191e+003;1.751421e-002
1.913120e+003;1.751100e-002
1.915048e+003;1.740473e-002
1.916977e+003;1.716503e-002
1.918905e+003;1.717344e-002
1.920834e+003;1.720046e-002
1.922762e+003;1.732524e-002
1.924691e+003;1.742218e-002
1.926619e+003;1.718647e-002
1.928548e+003;1.722163e-002
1.930477e+003;1.734672e-002
1.932405e+003;1.725011e-002
1.934334e+003;1.727176e-002
1.936262e+003;1.735989e-002
1.938191e+003;1.734620e-002
1.940119e+003;1.718747e-002
1.942048e+003;1.686080e-002
1.943976e+003;1.687148e-002
1.945905e+003;1.729824e-002
1.947833e+003;1.746060e-002
1.949762e+003;1.730231e-002
1.951691e+003;1.715706e-002
1.953619e+003;1.723614e-002
1.955548e+003;1.736534e-002
1.957476e+003;1.753801e-002
1.959405e+003;1.750089e-002
1.961333e+003;1.747716e-002
1.963262e+003;1.750396e-002
1.965190e+003;1.742877e-002
1.967119e+003;1.752884e-002
1.969047e+003;1.772728e-002
1.970976e+003;1.771503e-002
1.972905e+003;1.766416e-002
1.974833e+003;1.771434e-002
1.976762e+003;1.779953e-002
1.978690e+003;1.779211e-002
1.980619e+003;1.769201e-002
1.982547e+003;1.765629e-002
1.984476e+003;1.775990e-002
1.986404e+003;1.766996e-002
1.988333e+003;1.743501e-002
1.990261e+003;1.745270e-002
1.992190e+003;1.752897e-002
1.994119e+003;1.750552e-002
1.996047e+003;1.762234e-002
1.997976e+003;1.770557e-002
1.999904e+003;1.781941e-002
2.001833e+003;1.787755e-002
2.003761e+003;1.785287e-002
2.005690e+003;1.784762e-002
2.007618e+003;1.780850e-002
2.009547e+003;1.789941e-002
2.011476e+003;1.799050e-002
2.013404e+003;1.813540e-002
2.015333e+003;1.832283e-002
2.017261e+003;1.821162e-002
2.019190e+003;1.817879e-002
2.021118e+003;1.841391e-002
2.023047e+003;1.850829e-002
2.024975e+003;1.852987e-002
2.026904e+003;1.848208e-002
2.028833e+003;1.842607e-002
2.030761e+003;1.845608e-002
2.032690e+003;1.846929e-002
2.034618e+003;1.849798e-002
2.036547e+003;1.843945e-002
2.038475e+003;1.858447e-002
2.040404e+003;1.886129e-002
2.042332e+003;1.894895e-002
2.044261e+003;1.901461e-002
2.046189e+003;1.906166e-002
2.048118e+003;1.910688e-002
2.050047e+003;1.905280e-002
2.051975e+003;1.889271e-002
2.053904e+003;1.889918e-002
2.055832e+003;1.923137e-002
2.057761e+003;1.955702e-002
2.059689e+003;1.937322e-002
2.061618e+003;1.894594e-002
2.063546e+003;1.905103e-002
2.065475e+003;1.927577e-002
2.067404e+003;1.929895e-002
2.069332e+003;1.932489e-002
2.071260e+003;1.931069e-002
2.073189e+003;1.932441e-002
2.075118e+003;1.921706e-002
2.077046e+003;1.927671e-002
2.078975e+003;1.921592e-002
2.080903e+003;1.904958e-002
2.082832e+003;1.921963e-002
2.084760e+003;1.940797e-002
2.086689e+003;1.940076e-002
2.088617e+003;1.928391e-002
2.090546e+003;1.920571e-002
2.092475e+003;1.905186e-002
2.094403e+003;1.877586e-002
2.096332e+003;1.888651e-002
2.098260e+003;1.900509e-002
2.100189e+003;1.897391e-002
2.102117e+003;1.900371e-002
2.104046e+003;1.899865e-002
2.105974e+003;1.907257e-002
2.107903e+003;1.908049e-002
2.109832e+003;1.902282e-002
2.111760e+003;1.918164e-002
2.113688e+003;1.933778e-002
2.115617e+003;1.932711e-002
2.117546e+003;1.916391e-002
2.119474e+003;1.925856e-002
2.121403e+003;1.953899e-002
2.123331e+003;1.969634e-002
2.125260e+003;1.973826e-002
2.127188e+003;1.975622e-002
2.129117e+003;1.970972e-002
2.131045e+003;1.972411e-002
2.132974e+003;1.969735e-002
2.134903e+003;1.960641e-002
2.136831e+003;1.972748e-002
2.138760e+003;1.983838e-002
2.140688e+003;2.004042e-002
2.142617e+003;2.002740e-002
2.144545e+003;1.997026e-002
2.146474e+003;2.005870e-002
2.148402e+003;2.012047e-002
2.150331e+003;2.008376e-002
2.152260e+003;2.000725e-002
2.154188e+003;2.002102e-002
2.156117e+003;1.995427e-002
2.158045e+003;2.002841e-002
2.159974e+003;2.023991e-002
2.161902e+003;2.060745e-002
2.163831e+003;2.062931e-002
2.165759e+003;2.042442e-002
2.167688e+003;2.033330e-002
2.169616e+003;2.044683e-002
2.171545e+003;2.052480e-002
2.173474e+003;2.053036e-002
2.175402e+003;2.042901e-002
2.177331e+003;2.042679e-002
2.179259e+003;2.056211e-002
2.181188e+003;2.043425e-002
2.183116e+003;2.029421e-002
2.185045e+003;2.040366e-002
2.186973e+003;2.050344e-002
2.188902e+003;2.064804e-002
2.190831e+003;2.085229e-002
2.192759e+003;2.096481e-002
2.194688e+003;2.091985e-002
2.196616e+003;2.077982e-002
2.198545e+003;2.087965e-002
2.200473e+003;2.095688e-002
2.202402e+003;2.092391e-002
2.204330e+003;2.073801e-002
2.206259e+003;2.048965e-002
2.208188e+003;2.035709e-002
2.210116e+003;2.033896e-002
2.212044e+003;2.038747e-002
2.213973e+003;2.041619e-002
2.215902e+003;2.019249e-002
2.217830e+003;1.996891e-002
2.219759e+003;2.020419e-002
2.221687e+003;2.032955e-002
2.223616e+003;2.015869e-002
2.225544e+003;1.989155e-002
2.227473e+003;1.977384e-002
2.229401e+003;1.973323e-002
2.231330e+003;1.983526e-002
2.233259e+003;1.982943e-002
2.235187e+003;1.962960e-002
2.237116e+003;1.966150e-002
2.239044e+003;1.982211e-002
2.240973e+003;1.977339e-002
2.242901e+003;1.976770e-002
2.244830e+003;1.970612e-002
2.246758e+003;1.958568e-002
2.248687e+003;1.958288e-002
2.250615e+003;1.978958e-002
2.252544e+003;2.014806e-002
2.254473e+003;2.039240e-002
2.256401e+003;2.040939e-002
2.258330e+003;2.045172e-002
2.260258e+003;2.035025e-002
2.262187e+003;2.016105e-002
2.264115e+003;2.019496e-002
2.266044e+003;2.028733e-002
2.267972e+003;2.033785e-002
2.269901e+003;2.036889e-002
2.271830e+003;2.032007e-002
2.273758e+003;2.030251e-002
2.275687e+003;2.038855e-002
2.277615e+003;2.048288e-002
2.279544e+003;2.032466e-002
2.281472e+003;2.033178e-002
2.283401e+003;2.046697e-002
2.285329e+003;2.050400e-002
2.287258e+003;2.075236e-002
2.289187e+003;2.071298e-002
2.291115e+003;2.045443e-002
2.293043e+003;2.056003e-002
2.294972e+003;2.067271e-002
2.296901e+003;2.065759e-002
2.298829e+003;2.081816e-002
2.300758e+003;2.119273e-002
2.302686e+003;2.110444e-002
2.304615e+003;2.082615e-002
2.306543e+003;2.093525e-002
2.308472e+003;2.124579e-002
2.310400e+003;2.132228e-002
2.312329e+003;2.134834e-002
2.314258e+003;2.141145e-002
2.316186e+003;2.120393e-002
2.318115e+003;2.092524e-002
2.320043e+003;2.090458e-002
2.321972e+003;2.104441e-002
2.323900e+003;2.107268e-002
2.325829e+003;2.109828e-002
2.327757e+003;2.112914e-002
2.329686e+003;2.100184e-002
2.331615e+003;2.107939e-002
2.333543e+003;2.127540e-002
2.335472e+003;2.108239e-002
2.337400e+003;2.084600e-002
2.339329e+003;2.073377e-002
2.341257e+003;2.072841e-002
2.343186e+003;2.070645e-002
2.345114e+003;2.050865e-002
2.347043e+003;2.059262e-002
2.348971e+003;2.086321e-002
2.350900e+003;2.110534e-002
2.352829e+003;2.085779e-002
2.354757e+003;2.046860e-002
2.356686e+003;2.055388e-002
2.358614e+003;2.096619e-002
2.360543e+003;2.104980e-002
2.362471e+003;2.093052e-002
2.364400e+003;2.079657e-002
2.366328e+003;2.093476e-002
2.368257e+003;2.115923e-002
2.370186e+003;2.115571e-002
2.372114e+003;2.138907e-002
2.374042e+003;2.167983e-002
2.375971e+003;2.166911e-002
2.377900e+003;2.173424e-002
2.379828e+003;2.185141e-002
2.381757e+003;2.193880e-002
2.383685e+003;2.198052e-002
2.385614e+003;2.181709e-002
2.387542e+003;2.159528e-002
2.389471e+003;2.178674e-002
2.391399e+003;2.205717e-002
2.393328e+003;2.210528e-002
2.395257e+003;2.210908e-002
2.397185e+003;2.210539e-002
2.399114e+003;2.214479e-002
2.401042e+003;2.207084e-002
2.402971e+003;2.198502e-002
2.404899e+003;2.181691e-002
2.406828e+003;2.177430e-002
2.408756e+003;2.188946e-002
2.410685e+003;2.179444e-002
2.412614e+003;2.179388e-002
2.414542e+003;2.184405e-002
2.416471e+003;2.198599e-002
2.418399e+003;2.219095e-002
2.420328e+003;2.217823e-002
2.422256e+003;2.226457e-002
2.424185e+003;2.257952e-002
2.426113e+003;2.252406e-002
2.428042e+003;2.213366e-002
2.429970e+003;2.218307e-002
2.431899e+003;2.257387e-002
2.433828e+003;2.265816e-002
2.435756e+003;2.267167e-002
2.437685e+003;2.273549e-002
2.439613e+003;2.280047e-002
2.441542e+003;2.313272e-002
2.443470e+003;2.309079e-002
2.445399e+003;2.306130e-002
2.447327e+003;2.325467e-002
2.449256e+003;2.334752e-002
2.451185e+003;2.344663e-002
2.453113e+003;2.351080e-002
2.455042e+003;2.357741e-002
2.456970e+003;2.365210e-002
2.458899e+003;2.380384e-002
2.460827e+003;2.392919e-002
2.462756e+003;2.380468e-002
2.464684e+003;2.368048e-002
2.466613e+003;2.389145e-002
2.468542e+003;2.424083e-002
2.470470e+003;2.440911e-002
2.472398e+003;2.440389e-002
2.474327e+003;2.457184e-002
2.476256e+003;2.473498e-002
2.478184e+003;2.472495e-002
2.480113e+003;2.467157e-002
2.482041e+003;2.459628e-002
2.483970e+003;2.456665e-002
2.485898e+003;2.470703e-002
2.487827e+003;2.466866e-002
2.489755e+003;2.466462e-002
2.491684e+003;2.454453e-002
2.493613e+003;2.446565e-002
2.495541e+003;2.464257e-002
2.497470e+003;2.468482e-002
2.499398e+003;2.462065e-002
2.501327e+003;2.464884e-002
2.503255e+003;2.469619e-002
2.505184e+003;2.474564e-002
2.507112e+003;2.483745e-002
2.509041e+003;2.504169e-002
2.510969e+003;2.530053e-002
2.512898e+003;2.542189e-002
2.514827e+003;2.542179e-002
2.516755e+003;2.529543e-002
2.518684e+003;2.529308e-002
2.520612e+003;2.537134e-002
2.522541e+003;2.552775e-002
2.524469e+003;2.577911e-002
2.526398e+003;2.615605e-002
2.528326e+003;2.663340e-002
2.530255e+003;2.669534e-002
2.532184e+003;2.666285e-002
2.534112e+003;2.663499e-002
2.536041e+003;2.668871e-002
2.537969e+003;2.691163e-002
2.539898e+003;2.684197e-002
2.541826e+003;2.685650e-002
2.543755e+003;2.721268e-002
2.545683e+003;2.749442e-002
2.547612e+003;2.752824e-002
2.549541e+003;2.762572e-002
2.551469e+003;2.752531e-002
2.553397e+003;2.747211e-002
2.555326e+003;2.752672e-002
2.557255e+003;2.741267e-002
2.559183e+003;2.748295e-002
2.561112e+003;2.764973e-002
2.563040e+003;2.763366e-002
2.564969e+003;2.766717e-002
2.566897e+003;2.787292e-002
2.568826e+003;2.797306e-002
2.570754e+003;2.800165e-002
2.572683e+003;2.834282e-002
2.574612e+003;2.846316e-002
2.576540e+003;2.828019e-002
2.578469e+003;2.838541e-002
2.580397e+003;2.867272e-002
2.582326e+003;2.865467e-002
2.584254e+003;2.877988e-002
2.586183e+003;2.911082e-002
2.588111e+003;2.907961e-002
2.590040e+003;2.894348e-002
2.591969e+003;2.903589e-002
2.593897e+003;2.915958e-002
2.595826e+003;2.932403e-002
2.597754e+003;2.948180e-002
2.599683e+003;2.956351e-002
2.601611e+003;2.961591e-002
2.603540e+003;2.962523e-002
2.605468e+003;2.967334e-002
2.607397e+003;2.976790e-002
2.609325e+003;2.979586e-002
2.611254e+003;2.966777e-002
2.613183e+003;2.963190e-002
2.615111e+003;2.974905e-002
2.617040e+003;2.978117e-002
2.618968e+003;2.967745e-002
2.620897e+003;2.987908e-002
2.622825e+003;3.023811e-002
2.624754e+003;3.036946e-002
2.626682e+003;3.019889e-002
2.628611e+003;3.008006e-002
2.630540e+003;3.026035e-002
2.632468e+003;3.068700e-002
2.634396e+003;3.099933e-002
2.636325e+003;3.081009e-002
2.638254e+003;3.084488e-002
2.640182e+003;3.101613e-002
2.642111e+003;3.087501e-002
2.644039e+003;3.088326e-002
2.645968e+003;3.113390e-002
2.647896e+003;3.128663e-002
2.649825e+003;3.133443e-002
2.651753e+003;3.131751e-002
2.653682e+003;3.129550e-002
2.655611e+003;3.127827e-002
2.657539e+003;3.122639e-002
2.659468e+003;3.152293e-002
2.661396e+003;3.183262e-002
2.663325e+003;3.160139e-002
2.665253e+003;3.142931e-002
2.667182e+003;3.151110e-002
2.669110e+003;3.174670e-002
2.671039e+003;3.185127e-002
2.672968e+003;3.173519e-002
2.674896e+003;3.195714e-002
2.676825e+003;3.227445e-002
2.678753e+003;3.245237e-002
2.680682e+003;3.234319e-002
2.682610e+003;3.245240e-002
2.684539e+003;3.256089e-002
2.686467e+003;3.267172e-002
2.688396e+003;3.307525e-002
2.690324e+003;3.344950e-002
2.692253e+003;3.386482e-002
2.694182e+003;3.392970e-002
2.696110e+003;3.362951e-002
2.698039e+003;3.380278e-002
2.699967e+003;3.420831e-002
2.701896e+003;3.432867e-002
2.703824e+003;3.464966e-002
2.705753e+003;3.500525e-002
2.707681e+003;3.493723e-002
2.709610e+003;3.485361e-002
2.711539e+003;3.510324e-002
2.713467e+003;3.548955e-002
2.715396e+003;3.592530e-002
2.717324e+003;3.627434e-002
2.719253e+003;3.644006e-002
2.721181e+003;3.655604e-002
2.723110e+003;3.667565e-002
2.725038e+003;3.675418e-002
2.726967e+003;3.734207e-002
2.728896e+003;3.809672e-002
2.730824e+003;3.851355e-002
2.732752e+003;3.901631e-002
2.734681e+003;3.921997e-002
2.736610e+003;3.909241e-002
2.738538e+003;3.911702e-002
2.740467e+003;3.935944e-002
2.742395e+003;3.962009e-002
2.744324e+003;3.982643e-002
2.746252e+003;3.990713e-002
2.748181e+003;3.990793e-002
2.750109e+003;4.000456e-002
2.752038e+003;4.000343e-002
2.753967e+003;4.010379e-002
2.755895e+003;4.024456e-002
2.757824e+003;4.044257e-002
2.759752e+003;4.051189e-002
2.761681e+003;4.031021e-002
2.763609e+003;4.034559e-002
2.765538e+003;4.092901e-002
2.767466e+003;4.116037e-002
2.769395e+003;4.118984e-002
2.771323e+003;4.159973e-002
2.773252e+003;4.190633e-002
2.775181e+003;4.202811e-002
2.777109e+003;4.215654e-002
2.779038e+003;4.234104e-002
2.780966e+003;4.254673e-002
2.782895e+003;4.277041e-002
2.784823e+003;4.343897e-002
2.786752e+003;4.383460e-002
2.788680e+003;4.393889e-002
2.790609e+003;4.435315e-002
2.792538e+003;4.482220e-002
2.794466e+003;4.512697e-002
2.796395e+003;4.525826e-002
2.798323e+003;4.529529e-002
2.800252e+003;4.546851e-002
2.802180e+003;4.591266e-002
2.804109e+003;4.642544e-002
2.806037e+003;4.716221e-002
2.807966e+003;4.786521e-002
2.809895e+003;4.835230e-002
2.811823e+003;4.880171e-002
2.813751e+003;4.955185e-002
2.815680e+003;5.010873e-002
2.817609e+003;5.065531e-002
2.819537e+003;5.117595e-002
2.821466e+003;5.155508e-002
2.823394e+003;5.199784e-002
2.825323e+003;5.241874e-002
2.827251e+003;5.288705e-002
2.829180e+003;5.373484e-002
2.831108e+003;5.488854e-002
2.833037e+003;5.576639e-002
2.834966e+003;5.682383e-002
2.836894e+003;5.847806e-002
2.838823e+003;6.037880e-002
2.840751e+003;6.296302e-002
2.842680e+003;6.631147e-002
2.844608e+003;7.010218e-002
2.846537e+003;7.449184e-002
2.848465e+003;7.922442e-002
2.850394e+003;8.341137e-002
2.852323e+003;8.658309e-002
2.854251e+003;8.885979e-002
2.856180e+003;9.065190e-002
2.858108e+003;9.201068e-002
2.860037e+003;9.242343e-002
2.861965e+003;9.220136e-002
2.863894e+003;9.160257e-002
2.865822e+003;9.055258e-002
2.867751e+003;8.916947e-002
2.869679e+003;8.753478e-002
2.871608e+003;8.543639e-002
2.873536e+003;8.325963e-002
2.875465e+003;8.058359e-002
2.877394e+003;7.784050e-002
2.879322e+003;7.609233e-002
2.881251e+003;7.512388e-002
2.883179e+003;7.416757e-002
2.885108e+003;7.370395e-002
2.887036e+003;7.399660e-002
2.888965e+003;7.463771e-002
2.890893e+003;7.588930e-002
2.892822e+003;7.779738e-002
2.894750e+003;7.932638e-002
2.896679e+003;8.060968e-002
2.898608e+003;8.223785e-002
2.900536e+003;8.365916e-002
2.902465e+003;8.486547e-002
2.904393e+003;8.612647e-002
2.906322e+003;8.734471e-002
2.908250e+003;8.896677e-002
2.910179e+003;9.063398e-002
2.912107e+003;9.257714e-002
2.914036e+003;9.523340e-002
2.915965e+003;9.837294e-002
2.917893e+003;1.016680e-001
2.919822e+003;1.046283e-001
2.921750e+003;1.070095e-001
2.923679e+003;1.092291e-001
2.925607e+003;1.113902e-001
2.927536e+003;1.132271e-001
2.929464e+003;1.147747e-001
2.931393e+003;1.159199e-001
2.933322e+003;1.162585e-001
2.935250e+003;1.152833e-001
2.937178e+003;1.132232e-001
2.939107e+003;1.112877e-001
2.941036e+003;1.090765e-001
2.942964e+003;1.064046e-001
2.944893e+003;1.031359e-001
2.946821e+003;9.907866e-002
2.948750e+003;9.422997e-002
2.950678e+003;8.900220e-002
2.952607e+003;8.402602e-002
2.954535e+003;7.921113e-002
2.956464e+003;7.481029e-002
2.958393e+003;7.092405e-002
2.960321e+003;6.765450e-002
2.962250e+003;6.514258e-002
2.964178e+003;6.285892e-002
2.966107e+003;6.052459e-002
2.968035e+003;5.824668e-002
2.969964e+003;5.612931e-002
2.971892e+003;5.444042e-002
2.973821e+003;5.291972e-002
2.975750e+003;5.097760e-002
2.977678e+003;4.929868e-002
2.979607e+003;4.799874e-002
2.981535e+003;4.703034e-002
2.983464e+003;4.637311e-002
2.985392e+003;4.544714e-002
2.987321e+003;4.456905e-002
2.989249e+003;4.408483e-002
2.991178e+003;4.361734e-002
2.993106e+003;4.306806e-002
2.995035e+003;4.259085e-002
2.996964e+003;4.241750e-002
2.998892e+003;4.246927e-002
3.000821e+003;4.242612e-002
3.002749e+003;4.230857e-002
3.004678e+003;4.227935e-002
3.006606e+003;4.237647e-002
3.008535e+003;4.248542e-002
3.010463e+003;4.247095e-002
3.012392e+003;4.252382e-002
3.014321e+003;4.264648e-002
3.016249e+003;4.282401e-002
3.018177e+003;4.297151e-002
3.020106e+003;4.315596e-002
3.022035e+003;4.338994e-002
3.023963e+003;4.389432e-002
3.025892e+003;4.428303e-002
3.027820e+003;4.449251e-002
3.029749e+003;4.512987e-002
3.031677e+003;4.575182e-002
3.033606e+003;4.601321e-002
3.035534e+003;4.632501e-002
3.037463e+003;4.689777e-002
3.039392e+003;4.781468e-002
3.041320e+003;4.831271e-002
3.043249e+003;4.857835e-002
3.045177e+003;4.918196e-002
3.047106e+003;5.011676e-002
3.049034e+003;5.101188e-002
3.050963e+003;5.181032e-002
3.052891e+003;5.257107e-002
3.054820e+003;5.322917e-002
3.056749e+003;5.370004e-002
3.058677e+003;5.378348e-002
3.060606e+003;5.405609e-002
3.062534e+003;5.485605e-002
3.064463e+003;5.524699e-002
3.066391e+003;5.537808e-002
3.068320e+003;5.560650e-002
3.070248e+003;5.590728e-002
3.072177e+003;5.596589e-002
3.074105e+003;5.593664e-002
3.076034e+003;5.599913e-002
3.077963e+003;5.597071e-002
3.079891e+003;5.590962e-002
3.081820e+003;5.563926e-002
3.083748e+003;5.548035e-002
3.085677e+003;5.536178e-002
3.087605e+003;5.530242e-002
3.089534e+003;5.504193e-002
3.091462e+003;5.463618e-002
3.093391e+003;5.398592e-002
3.095320e+003;5.315551e-002
3.097248e+003;5.264337e-002
3.099177e+003;5.212742e-002
3.101105e+003;5.164523e-002
3.103034e+003;5.129988e-002
3.104962e+003;5.099422e-002
3.106891e+003;5.018092e-002
3.108819e+003;4.929816e-002
3.110748e+003;4.905867e-002
3.112677e+003;4.879388e-002
3.114605e+003;4.824143e-002
3.116533e+003;4.758329e-002
3.118462e+003;4.707343e-002
3.120391e+003;4.709440e-002
3.122319e+003;4.706158e-002
3.124248e+003;4.665938e-002
3.126176e+003;4.663555e-002
3.128105e+003;4.686956e-002
3.130033e+003;4.629161e-002
3.131962e+003;4.558700e-002
3.133890e+003;4.570279e-002
3.135819e+003;4.586475e-002
3.137748e+003;4.598190e-002
3.139676e+003;4.635476e-002
3.141605e+003;4.644468e-002
3.143533e+003;4.603053e-002
3.145462e+003;4.603487e-002
3.147390e+003;4.632007e-002
3.149319e+003;4.651006e-002
3.151247e+003;4.652010e-002
3.153176e+003;4.648665e-002
3.155104e+003;4.682000e-002
3.157033e+003;4.743495e-002
3.158962e+003;4.801499e-002
3.160890e+003;4.863523e-002
3.162819e+003;4.917317e-002
3.164747e+003;4.927006e-002
3.166676e+003;4.946039e-002
3.168604e+003;4.987891e-002
3.170533e+003;5.008854e-002
3.172461e+003;5.050059e-002
3.174390e+003;5.120711e-002
3.176319e+003;5.162773e-002
3.178247e+003;5.226889e-002
3.180176e+003;5.328191e-002
3.182104e+003;5.396041e-002
3.184033e+003;5.423930e-002
3.185961e+003;5.467579e-002
3.187890e+003;5.489478e-002
3.189818e+003;5.507371e-002
3.191747e+003;5.554685e-002
3.193676e+003;5.578086e-002
3.195604e+003;5.592492e-002
3.197532e+003;5.621879e-002
3.199461e+003;5.674559e-002
3.201390e+003;5.740513e-002
3.203318e+003;5.779152e-002
3.205247e+003;5.812984e-002
3.207175e+003;5.809356e-002
3.209104e+003;5.799001e-002
3.211032e+003;5.844428e-002
3.212961e+003;5.889121e-002
3.214889e+003;5.920259e-002
3.216818e+003;5.982420e-002
3.218747e+003;6.038954e-002
3.220675e+003;6.094804e-002
3.222604e+003;6.143644e-002
3.224532e+003;6.189364e-002
3.226461e+003;6.281339e-002
3.228389e+003;6.339177e-002
3.230318e+003;6.386066e-002
3.232246e+003;6.485946e-002
3.234175e+003;6.593027e-002
3.236104e+003;6.700141e-002
3.238032e+003;6.804319e-002
3.239961e+003;6.934366e-002
3.241889e+003;7.088816e-002
3.243818e+003;7.225703e-002
3.245746e+003;7.357016e-002
3.247675e+003;7.488205e-002
3.249603e+003;7.620814e-002
3.251532e+003;7.779579e-002
3.253460e+003;7.969266e-002
3.255389e+003;8.172933e-002
3.257318e+003;8.367571e-002
3.259246e+003;8.563033e-002
3.261175e+003;8.711060e-002
3.263103e+003;8.831029e-002
3.265032e+003;8.985956e-002
3.266960e+003;9.181231e-002
3.268889e+003;9.385695e-002
3.270817e+003;9.578174e-002
3.272746e+003;9.768687e-002
3.274675e+003;9.995157e-002
3.276603e+003;1.019847e-001
3.278531e+003;1.036274e-001
3.280460e+003;1.054138e-001
3.282389e+003;1.071604e-001
3.284317e+003;1.083792e-001
3.286246e+003;1.100029e-001
3.288174e+003;1.120208e-001
3.290103e+003;1.132363e-001
3.292031e+003;1.139093e-001
3.293960e+003;1.139937e-001
3.295888e+003;1.135979e-001
3.297817e+003;1.129755e-001
3.299746e+003;1.116595e-001
3.301674e+003;1.095458e-001
3.303603e+003;1.068480e-001
3.305531e+003;1.038494e-001
3.307460e+003;1.011111e-001
3.309388e+003;9.866889e-002
3.311317e+003;9.623961e-002
3.313245e+003;9.376051e-002
3.315174e+003;9.097985e-002
3.317103e+003;8.809287e-002
3.319031e+003;8.529531e-002
3.320960e+003;8.271905e-002
3.322888e+003;8.043084e-002
3.324817e+003;7.842016e-002
3.326745e+003;7.637967e-002
3.328674e+003;7.423617e-002
3.330602e+003;7.209689e-002
3.332531e+003;7.006441e-002
3.334459e+003;6.817346e-002
3.336388e+003;6.653622e-002
3.338317e+003;6.508230e-002
3.340245e+003;6.344940e-002
3.342174e+003;6.159892e-002
3.344102e+003;6.004984e-002
3.346031e+003;5.850175e-002
3.347959e+003;5.733374e-002
3.349888e+003;5.638374e-002
3.351816e+003;5.514909e-002
3.353745e+003;5.394128e-002
3.355674e+003;5.308769e-002
3.357602e+003;5.243164e-002
3.359531e+003;5.115746e-002
3.361459e+003;4.998079e-002
3.363388e+003;4.934218e-002
3.365316e+003;4.876756e-002
3.367245e+003;4.795497e-002
3.369173e+003;4.694420e-002
3.371102e+003;4.652323e-002
3.373031e+003;4.622692e-002
3.374959e+003;4.558291e-002
3.376887e+003;4.490149e-002
3.378816e+003;4.474088e-002
3.380745e+003;4.461462e-002
3.382673e+003;4.419388e-002
3.384602e+003;4.352119e-002
3.386530e+003;4.286245e-002
3.388459e+003;4.234995e-002
3.390387e+003;4.218101e-002
3.392316e+003;4.215351e-002
3.394244e+003;4.156958e-002
3.396173e+003;4.095406e-002
3.398102e+003;4.098023e-002
3.400030e+003;4.079686e-002
3.401959e+003;4.042770e-002
3.403887e+003;4.042271e-002
3.405816e+003;4.034719e-002
3.407744e+003;4.013581e-002
3.409673e+003;4.011982e-002
3.411601e+003;3.964550e-002
3.413530e+003;3.933836e-002
3.415458e+003;3.929686e-002
3.417387e+003;3.916340e-002
3.419316e+003;3.885239e-002
3.421244e+003;3.860549e-002
3.423173e+003;3.814914e-002
3.425101e+003;3.794790e-002
3.427030e+003;3.812620e-002
3.428958e+003;3.800912e-002
3.430887e+003;3.759914e-002
3.432815e+003;3.752247e-002
3.434744e+003;3.751843e-002
3.436673e+003;3.745196e-002
3.438601e+003;3.749011e-002
3.440530e+003;3.732261e-002
3.442458e+003;3.721513e-002
3.444387e+003;3.697269e-002
3.446315e+003;3.667060e-002
3.448244e+003;3.664915e-002
3.450172e+003;3.706524e-002
3.452101e+003;3.720809e-002
3.454030e+003;3.665971e-002
3.455958e+003;3.647242e-002
3.457886e+003;3.655456e-002
3.459815e+003;3.614317e-002
3.461744e+003;3.539773e-002
3.463672e+003;3.502748e-002
3.465601e+003;3.524254e-002
3.467529e+003;3.538188e-002
3.469458e+003;3.494133e-002
3.471386e+003;3.462812e-002
3.473315e+003;3.453846e-002
3.475243e+003;3.449401e-002
3.477172e+003;3.468045e-002
3.479101e+003;3.461711e-002
3.481029e+003;3.443342e-002
3.482958e+003;3.436790e-002
3.484886e+003;3.449695e-002
3.486815e+003;3.491418e-002
3.488743e+003;3.476242e-002
3.490672e+003;3.415364e-002
3.492600e+003;3.417683e-002
3.494529e+003;3.419321e-002
3.496458e+003;3.384451e-002
3.498386e+003;3.355952e-002
3.500315e+003;3.355837e-002
3.502243e+003;3.379433e-002
3.504172e+003;3.374659e-002
3.506100e+003;3.346496e-002
3.508029e+003;3.291445e-002
3.509957e+003;3.216104e-002
3.511886e+003;3.215905e-002
3.513814e+003;3.260460e-002
3.515743e+003;3.271263e-002
3.517672e+003;3.287728e-002
3.519600e+003;3.283676e-002
3.521529e+003;3.226710e-002
3.523457e+003;3.200151e-002
3.525386e+003;3.207938e-002
3.527314e+003;3.196591e-002
3.529243e+003;3.173729e-002
3.531171e+003;3.153789e-002
3.533100e+003;3.110863e-002
3.535029e+003;3.073896e-002
3.536957e+003;3.080917e-002
3.538885e+003;3.065930e-002
3.540814e+003;3.007278e-002
3.542743e+003;2.968281e-002
3.544671e+003;2.953816e-002
3.546600e+003;2.948368e-002
3.548528e+003;2.920561e-002
3.550457e+003;2.876752e-002
3.552385e+003;2.840108e-002
3.554314e+003;2.812367e-002
3.556242e+003;2.782237e-002
3.558171e+003;2.753427e-002
3.560100e+003;2.743456e-002
3.562028e+003;2.729463e-002
3.563957e+003;2.695457e-002
3.565885e+003;2.636718e-002
3.567814e+003;2.597567e-002
3.569742e+003;2.602918e-002
3.571671e+003;2.591408e-002
3.573599e+003;2.569083e-002
3.575528e+003;2.562848e-002
3.577457e+003;2.544870e-002
3.579385e+003;2.514205e-002
3.581314e+003;2.481703e-002
3.583242e+003;2.451367e-002
3.585171e+003;2.397691e-002
3.587099e+003;2.348730e-002
3.589028e+003;2.357464e-002
3.590956e+003;2.358517e-002
3.592885e+003;2.319224e-002
3.594813e+003;2.273333e-002
3.596742e+003;2.249444e-002
3.598671e+003;2.273640e-002
3.600599e+003;2.276870e-002
3.602528e+003;2.264200e-002
3.604456e+003;2.204867e-002
3.606385e+003;2.118330e-002
3.608313e+003;2.061027e-002
3.610242e+003;2.074221e-002
3.612170e+003;2.089241e-002
3.614099e+003;2.085198e-002
3.616028e+003;2.006401e-002
3.617956e+003;1.925627e-002
3.619885e+003;1.988114e-002
3.621813e+003;2.047364e-002
3.623742e+003;2.033869e-002
3.625670e+003;1.997512e-002
3.627599e+003;1.879828e-002
3.629527e+003;1.841964e-002
3.631456e+003;1.902448e-002
3.633385e+003;1.948774e-002
3.635313e+003;1.961414e-002
3.637241e+003;1.920848e-002
3.639170e+003;1.863327e-002
3.641099e+003;1.843288e-002
3.643027e+003;1.851219e-002
3.644956e+003;1.799206e-002
3.646884e+003;1.685928e-002
3.648813e+003;1.606249e-002
3.650741e+003;1.624149e-002
3.652670e+003;1.669676e-002
3.654598e+003;1.716499e-002
3.656527e+003;1.736238e-002
3.658456e+003;1.719040e-002
3.660384e+003;1.673537e-002
3.662313e+003;1.647900e-002
3.664241e+003;1.669194e-002
3.666170e+003;1.682832e-002
3.668098e+003;1.618612e-002
3.670027e+003;1.550472e-002
3.671955e+003;1.575605e-002
3.673884e+003;1.518340e-002
3.675813e+003;1.494842e-002
3.677741e+003;1.613962e-002
3.679669e+003;1.639252e-002
3.681598e+003;1.624600e-002
3.683527e+003;1.620603e-002
3.685455e+003;1.557478e-002
3.687384e+003;1.419015e-002
3.689312e+003;1.407986e-002
3.691241e+003;1.480581e-002
3.693169e+003;1.490302e-002
3.695098e+003;1.453777e-002
3.697026e+003;1.414770e-002
3.698955e+003;1.403123e-002
3.700884e+003;1.423859e-002
3.702812e+003;1.455082e-002
3.704741e+003;1.451529e-002
3.706669e+003;1.445014e-002
3.708598e+003;1.400922e-002
3.710526e+003;1.337562e-002
3.712455e+003;1.342988e-002
3.714383e+003;1.392512e-002
3.716312e+003;1.408212e-002
3.718240e+003;1.408325e-002
3.720169e+003;1.379495e-002
3.722098e+003;1.367988e-002
3.724026e+003;1.389056e-002
3.725955e+003;1.391838e-002
3.727883e+003;1.384992e-002
3.729812e+003;1.361330e-002
3.731740e+003;1.327780e-002
3.733669e+003;1.295116e-002
3.735597e+003;1.261834e-002
3.737526e+003;1.342305e-002
3.739455e+003;1.418638e-002
3.741383e+003;1.382119e-002
3.743312e+003;1.250139e-002
3.745240e+003;1.248059e-002
3.747169e+003;1.305153e-002
3.749097e+003;1.235349e-002
3.751026e+003;1.208675e-002
3.752954e+003;1.271864e-002
3.754883e+003;1.364370e-002
3.756812e+003;1.367960e-002
3.758740e+003;1.344796e-002
3.760668e+003;1.377772e-002
3.762597e+003;1.421918e-002
3.764526e+003;1.425866e-002
3.766454e+003;1.420802e-002
3.768383e+003;1.386415e-002
3.770311e+003;1.410974e-002
3.772240e+003;1.453575e-002
3.774168e+003;1.471501e-002
3.776097e+003;1.471984e-002
3.778025e+003;1.446572e-002
3.779954e+003;1.420936e-002
3.781883e+003;1.441095e-002
3.783811e+003;1.443462e-002
3.785740e+003;1.421689e-002
3.787668e+003;1.422100e-002
3.789597e+003;1.462076e-002
3.791525e+003;1.457806e-002
3.793454e+003;1.417539e-002
3.795382e+003;1.366073e-002
3.797311e+003;1.358889e-002
3.799240e+003;1.332775e-002
3.801168e+003;1.296474e-002
3.803097e+003;1.359170e-002
3.805025e+003;1.351789e-002
3.806954e+003;1.334767e-002
3.808882e+003;1.409591e-002
3.810811e+003;1.424188e-002
3.812739e+003;1.408277e-002
3.814668e+003;1.369270e-002
3.816596e+003;1.383857e-002
3.818525e+003;1.387773e-002
3.820454e+003;1.317915e-002
3.822382e+003;1.421490e-002
3.824311e+003;1.499726e-002
3.826239e+003;1.458080e-002
3.828168e+003;1.467055e-002
3.830096e+003;1.439215e-002
3.832025e+003;1.402130e-002
3.833953e+003;1.404800e-002
3.835882e+003;1.371999e-002
3.837811e+003;1.361286e-002
3.839739e+003;1.428115e-002
3.841667e+003;1.462357e-002
3.843596e+003;1.509845e-002
3.845525e+003;1.529809e-002
3.847453e+003;1.500758e-002
3.849382e+003;1.437300e-002
3.851310e+003;1.326352e-002
3.853239e+003;1.256872e-002
3.855167e+003;1.379554e-002
3.857096e+003;1.469890e-002
3.859024e+003;1.485601e-002
3.860953e+003;1.505643e-002
3.862882e+003;1.478470e-002
3.864810e+003;1.441205e-002
3.866739e+003;1.457412e-002
3.868667e+003;1.428444e-002
3.870596e+003;1.425609e-002
3.872524e+003;1.462158e-002
3.874453e+003;1.478631e-002
3.876381e+003;1.490329e-002
3.878310e+003;1.445154e-002
3.880239e+003;1.410152e-002
3.882167e+003;1.491564e-002
3.884096e+003;1.508253e-002
3.886024e+003;1.478723e-002
3.887953e+003;1.492647e-002
3.889881e+003;1.497877e-002
3.891810e+003;1.542675e-002
3.893738e+003;1.615479e-002
3.895667e+003;1.594836e-002
3.897595e+003;1.494972e-002
3.899524e+003;1.476735e-002
3.901453e+003;1.521905e-002
3.903381e+003;1.509488e-002
3.905310e+003;1.551884e-002
3.907238e+003;1.622915e-002
3.909167e+003;1.631824e-002
3.911095e+003;1.609471e-002
3.913024e+003;1.578134e-002
3.914952e+003;1.537024e-002
3.916881e+003;1.528107e-002
3.918810e+003;1.557354e-002
3.920738e+003;1.558354e-002
3.922667e+003;1.570939e-002
3.924595e+003;1.587426e-002
3.926524e+003;1.601625e-002
3.928452e+003;1.630572e-002
3.930381e+003;1.636245e-002
3.932309e+003;1.628917e-002
3.934238e+003;1.681550e-002
3.936167e+003;1.707393e-002
3.938095e+003;1.680090e-002
3.940023e+003;1.701408e-002
3.941952e+003;1.677996e-002
3.943881e+003;1.651820e-002
3.945809e+003;1.699716e-002
3.947738e+003;1.715882e-002
3.949666e+003;1.694303e-002
3.951595e+003;1.723456e-002
3.953523e+003;1.750100e-002
3.955452e+003;1.747057e-002
3.957380e+003;1.759111e-002
3.959309e+003;1.769971e-002
3.961238e+003;1.730958e-002
3.963166e+003;1.677573e-002
3.965095e+003;1.706197e-002
3.967023e+003;1.753091e-002
3.968952e+003;1.778348e-002
3.970880e+003;1.806372e-002
3.972809e+003;1.786968e-002
3.974737e+003;1.782618e-002
3.976666e+003;1.826110e-002
3.978594e+003;1.817199e-002
3.980523e+003;1.785166e-002
3.982452e+003;1.787196e-002
3.984380e+003;1.788449e-002
3.986309e+003;1.810390e-002
3.988237e+003;1.812987e-002
3.990166e+003;1.805616e-002
3.992094e+003;1.816528e-002
3.994023e+003;1.862932e-002
3.995951e+003;1.927376e-002
3.997880e+003;1.936127e-002
3.999809e+003;1.894905e-002
4.001737e+003;0.000000e+000
