3.992094e+002;0.000000e+000
4.011380e+002;0.000000e+000
4.030665e+002;0.000000e+000
4.049951e+002;0.000000e+000
4.069236e+002;0.000000e+000
4.088522e+002;0.000000e+000
4.107807e+002;0.000000e+000
4.127093e+002;0.000000e+000
4.146378e+002;0.000000e+000
4.165664e+002;0.000000e+000
4.184949e+002;0.000000e+000
4.204235e+002;0.000000e+000
4.223520e+002;0.000000e+000
4.242806e+002;0.000000e+000
4.262091e+002;0.000000e+000
4.281377e+002;0.000000e+000
4.300662e+002;0.000000e+000
4.319948e+002;0.000000e+000
4.339233e+002;0.000000e+000
4.358519e+002;0.000000e+000
4.377804e+002;0.000000e+000
4.397090e+002;0.000000e+000
4.416375e+002;0.000000e+000
4.435660e+002;0.000000e+000
4.454946e+002;0.000000e+000
4.474232e+002;0.000000e+000
4.493517e+002;0.000000e+000
4.512802e+002;0.000000e+000
4.532088e+002;0.000000e+000
4.551373e+002;0.000000e+000
4.570659e+002;0.000000e+000
4.589944e+002;0.000000e+000
4.609230e+002;0.000000e+000
4.628515e+002;0.000000e+000
4.647801e+002;0.000000e+000
4.667086e+002;0.000000e+000
4.686372e+002;0.000000e+000
4.705657e+002;0.000000e+000
4.724943e+002;0.000000e+000
4.744228e+002;0.000000e+000
4.763513e+002;0.000000e+000
4.782799e+002;0.000000e+000
4.802085e+002;0.000000e+000
4.821370e+002;0.000000e+000
4.840656e+002;0.000000e+000
4.859941e+002;0.000000e+000
4.879226e+002;0.000000e+000
4.898512e+002;0.000000e+000
4.917798e+002;0.000000e+000
4.937083e+002;0.000000e+000
4.956368e+002;0.000000e+000
4.975654e+002;0.000000e+000
4.994939e+002;0.000000e+000
5.014225e+002;0.000000e+000
5.033510e+002;0.000000e+000
5.052796e+002;0.000000e+000
5.072081e+002;0.000000e+000
5.091367e+002;0.000000e+000
5.110652e+002;0.000000e+000
5.129938e+002;0.000000e+000
5.149223e+002;0.000000e+000
5.168509e+002;0.000000e+000
5.187794e+002;0.000000e+000
5.207079e+002;0.000000e+000
5.226365e+002;0.000000e+000
5.245651e+002;0.000000e+000
5.264936e+002;0.000000e+000
5.284222e+002;0.000000e+000
5.303507e+002;0.000000e+000
5.322792e+002;0.000000e+000
5.342078e+002;0.000000e+000
5.361364e+002;0.000000e+000
5.380649e+002;0.000000e+000
5.399935e+002;0.000000e+000
5.419220e+002;0.000000e+000
5.438505e+002;0.000000e+000
5.457791e+002;0.000000e+000
5.477076e+002;0.000000e+000
5.496362e+002;0.000000e+000
5.515648e+002;0.000000e+000
5.534933e+002;0.000000e+000
5.554218e+002;0.000000e+000
5.573504e+002;0.000000e+000
5.592789e+002;0.000000e+000
5.612075e+002;0.000000e+000
5.631360e+002;0.000000e+000
5.650646e+002;0.000000e+000
5.669931e+002;0.000000e+000
5.689217e+002;0.000000e+000
5.708502e+002;0.000000e+000
5.727787e+002;0.000000e+000
5.747073e+002;0.000000e+000
5.766359e+002;0.000000e+000
5.785644e+002;0.000000e+000
5.804930e+002;0.000000e+000
5.824215e+002;0.000000e+000
5.843500e+002;0.000000e+000
5.862786e+002;0.000000e+000
5.882072e+002;0.000000e+000
5.901357e+002;0.000000e+000
5.920643e+002;0.000000e+000
5.939928e+002;0.000000e+000
5.959213e+002;0.000000e+000
5.978499e+002;0.000000e+000
5.997784e+002;1.680517e-001
6.017070e+002;1.604714e-001
6.036355e+002;1.533885e-001
6.055641e+002;1.479613e-001
6.074926e+002;1.481213e-001
6.094211e+002;1.513396e-001
6.113497e+002;1.485905e-001
6.132783e+002;1.494058e-001
6.152068e+002;1.528107e-001
6.171354e+002;1.526282e-001
6.190639e+002;1.541731e-001
6.209924e+002;1.552655e-001
6.229210e+002;1.572008e-001
6.248495e+002;1.610530e-001
6.267781e+002;1.633166e-001
6.287067e+002;1.642707e-001
6.306352e+002;1.598035e-001
6.325637e+002;1.546141e-001
6.344923e+002;1.555401e-001
6.364208e+002;1.593080e-001
6.383494e+002;1.620931e-001
6.402780e+002;1.660238e-001
6.422065e+002;1.693643e-001
6.441350e+002;1.711795e-001
6.460636e+002;1.713948e-001
6.479921e+002;1.716866e-001
6.499207e+002;1.726333e-001
6.518492e+002;1.745552e-001
6.537778e+002;1.793818e-001
6.557063e+002;1.828823e-001
6.576349e+002;1.859861e-001
6.595634e+002;1.909029e-001
6.614919e+002;1.915360e-001
6.634205e+002;1.927335e-001
6.653491e+002;1.944674e-001
6.672776e+002;1.986671e-001
6.692062e+002;2.018387e-001
6.711347e+002;2.038037e-001
6.730632e+002;2.057420e-001
6.749918e+002;2.075985e-001
6.769203e+002;2.073419e-001
6.788489e+002;2.081758e-001
6.807775e+002;2.096299e-001
6.827060e+002;2.103528e-001
6.846345e+002;2.102347e-001
6.865631e+002;2.092700e-001
6.884916e+002;2.077154e-001
6.904202e+002;2.061490e-001
6.923488e+002;2.031182e-001
6.942773e+002;1.996430e-001
6.962058e+002;1.955653e-001
6.981344e+002;1.916237e-001
7.000629e+002;1.891036e-001
7.019915e+002;1.875725e-001
7.039200e+002;1.852517e-001
7.058486e+002;1.819172e-001
7.077771e+002;1.798922e-001
7.097057e+002;1.785377e-001
7.116342e+002;1.759808e-001
7.135627e+002;1.744076e-001
7.154913e+002;1.733436e-001
7.174199e+002;1.705588e-001
7.193484e+002;1.683396e-001
7.212770e+002;1.679869e-001
7.232055e+002;1.684552e-001
7.251340e+002;1.698579e-001
7.270626e+002;1.712003e-001
7.289911e+002;1.691465e-001
7.309197e+002;1.627312e-001
7.328483e+002;1.550875e-001
7.347768e+002;1.482634e-001
7.367053e+002;1.414712e-001
7.386339e+002;1.355847e-001
7.405624e+002;1.306794e-001
7.424910e+002;1.276231e-001
7.444196e+002;1.258397e-001
7.463481e+002;1.225996e-001
7.482766e+002;1.207224e-001
7.502052e+002;1.200337e-001
7.521337e+002;1.167442e-001
7.540623e+002;1.141969e-001
7.559908e+002;1.131579e-001
7.579194e+002;1.111602e-001
7.598479e+002;1.101160e-001
7.617765e+002;1.096310e-001
7.637050e+002;1.084362e-001
7.656335e+002;1.065154e-001
7.675621e+002;1.050719e-001
7.694907e+002;1.037156e-001
7.714192e+002;1.017546e-001
7.733478e+002;1.002996e-001
7.752763e+002;9.903670e-002
7.772048e+002;9.792925e-002
7.791334e+002;9.658360e-002
7.810620e+002;9.508861e-002
7.829905e+002;9.374802e-002
7.849191e+002;9.200577e-002
7.868476e+002;9.049153e-002
7.887761e+002;8.925105e-002
7.907047e+002;8.738815e-002
7.926332e+002;8.531237e-002
7.945618e+002;8.419098e-002
7.964903e+002;8.349240e-002
7.984189e+002;8.187898e-002
8.003474e+002;8.057924e-002
8.022759e+002;7.947381e-002
8.042045e+002;7.791547e-002
8.061331e+002;7.641942e-002
8.080616e+002;7.561422e-002
8.099902e+002;7.525445e-002
8.119187e+002;7.450581e-002
8.138472e+002;7.330687e-002
8.157758e+002;7.250708e-002
8.177043e+002;7.250088e-002
8.196329e+002;7.227984e-002
8.215615e+002;7.160015e-002
8.234900e+002;7.171875e-002
8.254185e+002;7.259922e-002
8.273471e+002;7.376631e-002
8.292756e+002;7.509284e-002
8.312042e+002;7.648473e-002
8.331328e+002;7.646631e-002
8.350613e+002;7.472362e-002
8.369898e+002;7.177249e-002
8.389184e+002;6.922372e-002
8.408469e+002;6.769408e-002
8.427755e+002;6.617323e-002
8.447040e+002;6.472175e-002
8.466326e+002;6.389425e-002
8.485611e+002;6.310898e-002
8.504897e+002;6.263527e-002
8.524182e+002;6.226041e-002
8.543467e+002;6.119963e-002
8.562753e+002;6.085902e-002
8.582039e+002;6.113188e-002
8.601324e+002;6.094891e-002
8.620610e+002;6.079644e-002
8.639895e+002;6.045851e-002
8.659180e+002;6.053544e-002
8.678466e+002;6.120360e-002
8.697751e+002;6.135828e-002
8.717037e+002;6.043897e-002
8.736323e+002;5.981606e-002
8.755608e+002;5.964516e-002
8.774893e+002;5.982823e-002
8.794179e+002;6.012118e-002
8.813464e+002;6.012141e-002
8.832750e+002;6.018694e-002
8.852036e+002;6.057883e-002
8.871321e+002;6.071880e-002
8.890606e+002;6.117868e-002
8.909892e+002;6.171910e-002
8.929177e+002;6.107662e-002
8.948463e+002;6.025549e-002
8.967748e+002;6.037325e-002
8.987034e+002;6.090553e-002
9.006319e+002;6.117746e-002
9.025605e+002;6.148862e-002
9.044890e+002;6.234038e-002
9.064175e+002;6.291265e-002
9.083461e+002;6.337962e-002
9.102747e+002;6.398297e-002
9.122032e+002;6.490620e-002
9.141318e+002;6.591881e-002
9.160603e+002;6.665499e-002
9.179888e+002;6.734366e-002
9.199174e+002;6.833250e-002
9.218459e+002;6.985309e-002
9.237745e+002;7.154588e-002
9.257031e+002;7.326196e-002
9.276316e+002;7.466695e-002
9.295601e+002;7.514035e-002
9.314887e+002;7.453066e-002
9.334172e+002;7.323400e-002
9.353458e+002;7.177261e-002
9.372744e+002;7.084529e-002
9.392029e+002;7.070076e-002
9.411314e+002;7.106490e-002
9.430600e+002;7.165997e-002
9.449885e+002;7.282383e-002
9.469171e+002;7.506330e-002
9.488456e+002;7.750767e-002
9.507742e+002;7.941525e-002
9.527027e+002;8.040955e-002
9.546313e+002;8.082136e-002
9.565598e+002;8.168330e-002
9.584883e+002;8.267480e-002
9.604169e+002;8.235895e-002
9.623455e+002;8.105622e-002
9.642740e+002;7.993755e-002
9.662026e+002;7.921086e-002
9.681311e+002;7.871354e-002
9.700596e+002;7.822822e-002
9.719882e+002;7.778466e-002
9.739167e+002;7.728513e-002
9.758453e+002;7.646703e-002
9.777739e+002;7.600888e-002
9.797024e+002;7.570703e-002
9.816309e+002;7.516288e-002
9.835595e+002;7.501254e-002
9.854880e+002;7.500234e-002
9.874166e+002;7.449050e-002
9.893452e+002;7.388801e-002
9.912737e+002;7.377404e-002
9.932022e+002;7.332755e-002
9.951307e+002;7.266533e-002
9.970593e+002;7.203747e-002
9.989879e+002;7.173610e-002
1.000916e+003;7.155342e-002
1.002845e+003;7.110366e-002
1.004773e+003;7.096041e-002
1.006702e+003;7.098534e-002
1.008631e+003;7.108789e-002
1.010559e+003;7.113149e-002
1.012488e+003;7.096271e-002
1.014416e+003;7.084759e-002
1.016345e+003;7.107423e-002
1.018273e+003;7.145615e-002
1.020202e+003;7.153010e-002
1.022130e+003;7.175510e-002
1.024059e+003;7.239839e-002
1.025988e+003;7.376901e-002
1.027916e+003;7.492985e-002
1.029845e+003;7.484386e-002
1.031773e+003;7.407927e-002
1.033702e+003;7.355113e-002
1.035630e+003;7.282438e-002
1.037559e+003;7.181533e-002
1.039487e+003;7.164618e-002
1.041416e+003;7.187320e-002
1.043344e+003;7.161773e-002
1.045273e+003;7.151521e-002
1.047202e+003;7.188403e-002
1.049130e+003;7.272346e-002
1.051059e+003;7.415382e-002
1.052987e+003;7.568833e-002
1.054916e+003;7.687773e-002
1.056844e+003;7.779425e-002
1.058773e+003;7.899798e-002
1.060701e+003;8.101086e-002
1.062630e+003;8.260450e-002
1.064558e+003;8.348882e-002
1.066487e+003;8.423144e-002
1.068416e+003;8.525793e-002
1.070344e+003;8.575380e-002
1.072273e+003;8.588813e-002
1.074201e+003;8.605687e-002
1.076130e+003;8.565346e-002
1.078058e+003;8.505001e-002
1.079987e+003;8.395880e-002
1.081915e+003;8.283708e-002
1.083844e+003;8.312880e-002
1.085773e+003;8.342550e-002
1.087701e+003;8.273172e-002
1.089630e+003;8.269399e-002
1.091558e+003;8.315814e-002
1.093487e+003;8.350769e-002
1.095415e+003;8.362594e-002
1.097344e+003;8.437709e-002
1.099272e+003;8.558284e-002
1.101201e+003;8.713777e-002
1.103129e+003;8.906206e-002
1.105058e+003;9.098341e-002
1.106987e+003;9.307455e-002
1.108915e+003;9.443274e-002
1.110844e+003;9.460793e-002
1.112772e+003;9.458502e-002
1.114701e+003;9.466828e-002
1.116629e+003;9.439379e-002
1.118558e+003;9.405831e-002
1.120486e+003;9.362275e-002
1.122415e+003;9.184150e-002
1.124344e+003;8.905002e-002
1.126272e+003;8.648349e-002
1.128201e+003;8.362381e-002
1.130129e+003;8.100938e-002
1.132058e+003;7.905187e-002
1.133986e+003;7.742362e-002
1.135915e+003;7.677443e-002
1.137843e+003;7.697606e-002
1.139772e+003;7.753171e-002
1.141700e+003;7.856216e-002
1.143629e+003;8.008606e-002
1.145557e+003;8.176133e-002
1.147486e+003;8.339165e-002
1.149415e+003;8.492876e-002
1.151343e+003;8.728629e-002
1.153272e+003;9.061202e-002
1.155200e+003;9.398458e-002
1.157129e+003;9.768550e-002
1.159057e+003;1.021859e-001
1.160986e+003;1.079029e-001
1.162914e+003;1.145953e-001
1.164843e+003;1.212523e-001
1.166771e+003;1.261625e-001
1.168700e+003;1.283294e-001
1.170629e+003;1.278490e-001
1.172557e+003;1.248624e-001
1.174486e+003;1.203016e-001
1.176414e+003;1.155133e-001
1.178343e+003;1.111837e-001
1.180271e+003;1.077562e-001
1.182200e+003;1.058577e-001
1.184128e+003;1.061194e-001
1.186057e+003;1.083424e-001
1.187986e+003;1.119986e-001
1.189914e+003;1.163407e-001
1.191843e+003;1.214810e-001
1.193771e+003;1.270896e-001
1.195700e+003;1.328195e-001
1.197628e+003;1.380802e-001
1.199557e+003;1.405975e-001
1.201485e+003;1.385654e-001
1.203414e+003;1.339417e-001
1.205343e+003;1.297874e-001
1.207271e+003;1.275934e-001
1.209200e+003;1.262727e-001
1.211128e+003;1.250973e-001
1.213057e+003;1.240103e-001
1.214985e+003;1.223072e-001
1.216914e+003;1.191767e-001
1.218842e+003;1.156844e-001
1.220771e+003;1.134464e-001
1.222699e+003;1.135756e-001
1.224628e+003;1.156789e-001
1.226557e+003;1.192316e-001
1.228485e+003;1.240129e-001
1.230414e+003;1.289435e-001
1.232342e+003;1.333874e-001
1.234271e+003;1.372897e-001
1.236199e+003;1.395743e-001
1.238128e+003;1.407333e-001
1.240056e+003;1.414314e-001
1.241985e+003;1.412326e-001
1.243913e+003;1.408479e-001
1.245842e+003;1.411369e-001
1.247771e+003;1.424071e-001
1.249699e+003;1.450671e-001
1.251628e+003;1.485122e-001
1.253556e+003;1.522848e-001
1.255485e+003;1.559989e-001
1.257413e+003;1.589933e-001
1.259342e+003;1.613467e-001
1.261270e+003;1.626902e-001
1.263199e+003;1.613725e-001
1.265127e+003;1.566446e-001
1.267056e+003;1.495003e-001
1.268985e+003;1.421994e-001
1.270913e+003;1.365877e-001
1.272842e+003;1.334697e-001
1.274770e+003;1.321970e-001
1.276699e+003;1.316867e-001
1.278627e+003;1.314427e-001
1.280556e+003;1.305977e-001
1.282484e+003;1.291384e-001
1.284413e+003;1.272770e-001
1.286342e+003;1.253621e-001
1.288270e+003;1.242750e-001
1.290199e+003;1.237705e-001
1.292127e+003;1.230090e-001
1.294056e+003;1.218508e-001
1.295984e+003;1.209304e-001
1.297913e+003;1.203743e-001
1.299841e+003;1.197915e-001
1.301770e+003;1.194117e-001
1.303698e+003;1.187348e-001
1.305627e+003;1.174230e-001
1.307556e+003;1.158739e-001
1.309484e+003;1.144196e-001
1.311413e+003;1.134847e-001
1.313341e+003;1.126564e-001
1.315270e+003;1.116217e-001
1.317198e+003;1.103590e-001
1.319127e+003;1.091799e-001
1.321055e+003;1.084066e-001
1.322984e+003;1.079429e-001
1.324912e+003;1.076379e-001
1.326841e+003;1.075790e-001
1.328770e+003;1.080785e-001
1.330698e+003;1.088995e-001
1.332627e+003;1.094589e-001
1.334555e+003;1.098448e-001
1.336484e+003;1.098170e-001
1.338412e+003;1.097720e-001
1.340341e+003;1.104254e-001
1.342269e+003;1.116318e-001
1.344198e+003;1.127958e-001
1.346126e+003;1.138523e-001
1.348055e+003;1.151318e-001
1.349984e+003;1.165919e-001
1.351912e+003;1.180910e-001
1.353841e+003;1.200338e-001
1.355769e+003;1.219635e-001
1.357698e+003;1.236437e-001
1.359626e+003;1.253607e-001
1.361555e+003;1.272694e-001
1.363483e+003;1.293400e-001
1.365412e+003;1.315602e-001
1.367341e+003;1.336870e-001
1.369269e+003;1.356999e-001
1.371198e+003;1.368159e-001
1.373126e+003;1.364470e-001
1.375055e+003;1.350083e-001
1.376983e+003;1.327604e-001
1.378912e+003;1.293463e-001
1.380840e+003;1.253072e-001
1.382769e+003;1.213014e-001
1.384698e+003;1.175021e-001
1.386626e+003;1.135134e-001
1.388555e+003;1.104659e-001
1.390483e+003;1.084489e-001
1.392412e+003;1.064254e-001
1.394340e+003;1.046412e-001
1.396269e+003;1.042474e-001
1.398197e+003;1.049416e-001
1.400126e+003;1.064966e-001
1.402054e+003;1.090407e-001
1.403983e+003;1.125345e-001
1.405911e+003;1.178115e-001
1.407840e+003;1.245923e-001
1.409769e+003;1.323317e-001
1.411697e+003;1.405817e-001
1.413626e+003;1.479547e-001
1.415554e+003;1.523417e-001
1.417483e+003;1.525036e-001
1.419411e+003;1.499668e-001
1.421340e+003;1.468540e-001
1.423268e+003;1.434389e-001
1.425197e+003;1.407327e-001
1.427125e+003;1.400052e-001
1.429054e+003;1.409731e-001
1.430983e+003;1.432359e-001
1.432911e+003;1.458400e-001
1.434840e+003;1.465991e-001
1.436768e+003;1.458752e-001
1.438697e+003;1.457508e-001
1.440625e+003;1.452257e-001
1.442554e+003;1.444277e-001
1.444482e+003;1.437810e-001
1.446411e+003;1.437844e-001
1.448340e+003;1.451681e-001
1.450268e+003;1.477887e-001
1.452197e+003;1.501270e-001
1.454125e+003;1.519234e-001
1.456054e+003;1.539177e-001
1.457982e+003;1.589513e-001
1.459911e+003;1.660046e-001
1.461839e+003;1.709312e-001
1.463768e+003;1.703693e-001
1.465697e+003;1.643403e-001
1.467625e+003;1.561596e-001
1.469554e+003;1.493999e-001
1.471482e+003;1.459973e-001
1.473411e+003;1.465168e-001
1.475339e+003;1.483005e-001
1.477268e+003;1.479378e-001
1.479196e+003;1.450625e-001
1.481125e+003;1.397376e-001
1.483053e+003;1.330601e-001
1.484982e+003;1.261641e-001
1.486911e+003;1.211278e-001
1.488839e+003;1.190784e-001
1.490768e+003;1.202502e-001
1.492696e+003;1.235831e-001
1.494625e+003;1.268960e-001
1.496553e+003;1.309032e-001
1.498482e+003;1.366365e-001
1.500410e+003;1.429355e-001
1.502339e+003;1.492437e-001
1.504267e+003;1.545873e-001
1.506196e+003;1.601516e-001
1.508125e+003;1.688774e-001
1.510053e+003;1.785387e-001
1.511982e+003;1.872982e-001
1.513910e+003;1.963780e-001
1.515839e+003;2.054720e-001
1.517767e+003;2.152256e-001
1.519696e+003;2.249742e-001
1.521624e+003;2.353131e-001
1.523553e+003;2.473609e-001
1.525481e+003;2.591906e-001
1.527410e+003;2.708257e-001
1.529339e+003;2.817053e-001
1.531267e+003;2.908794e-001
1.533196e+003;2.985729e-001
1.535124e+003;3.047356e-001
1.537053e+003;3.069572e-001
1.538981e+003;3.047506e-001
1.540910e+003;3.010792e-001
1.542838e+003;2.954128e-001
1.544767e+003;2.861371e-001
1.546695e+003;2.743132e-001
1.548624e+003;2.610160e-001
1.550553e+003;2.469794e-001
1.552481e+003;2.330138e-001
1.554410e+003;2.199034e-001
1.556338e+003;2.078510e-001
1.558267e+003;1.954030e-001
1.560195e+003;1.857825e-001
1.562124e+003;1.782918e-001
1.564052e+003;1.695451e-001
1.565981e+003;1.605719e-001
1.567910e+003;1.517672e-001
1.569838e+003;1.433918e-001
1.571767e+003;1.367356e-001
1.573695e+003;1.300580e-001
1.575624e+003;1.229619e-001
1.577552e+003;1.185125e-001
1.579481e+003;1.156007e-001
1.581409e+003;1.125337e-001
1.583338e+003;1.101761e-001
1.585266e+003;1.087193e-001
1.587195e+003;1.082279e-001
1.589124e+003;1.083337e-001
1.591052e+003;1.090572e-001
1.592981e+003;1.106943e-001
1.594909e+003;1.133889e-001
1.596838e+003;1.169733e-001
1.598766e+003;1.211920e-001
1.600695e+003;1.264074e-001
1.602623e+003;1.330529e-001
1.604552e+003;1.410635e-001
1.606480e+003;1.497348e-001
1.608409e+003;1.588093e-001
1.610338e+003;1.689338e-001
1.612266e+003;1.805194e-001
1.614195e+003;1.927413e-001
1.616123e+003;2.061250e-001
1.618052e+003;2.233402e-001
1.619980e+003;2.425843e-001
1.621909e+003;2.612636e-001
1.623837e+003;2.807057e-001
1.625766e+003;3.012247e-001
1.627694e+003;3.218983e-001
1.629623e+003;3.435830e-001
1.631552e+003;3.652897e-001
1.633480e+003;3.824565e-001
1.635409e+003;3.917002e-001
1.637337e+003;3.919686e-001
1.639266e+003;3.813436e-001
1.641194e+003;3.619713e-001
1.643123e+003;3.385440e-001
1.645051e+003;3.132942e-001
1.646980e+003;2.886160e-001
1.648909e+003;2.673733e-001
1.650837e+003;2.472096e-001
1.652766e+003;2.282487e-001
1.654694e+003;2.157869e-001
1.656623e+003;2.061062e-001
1.658551e+003;1.953075e-001
1.660480e+003;1.845139e-001
1.662408e+003;1.736726e-001
1.664337e+003;1.633940e-001
1.666266e+003;1.531056e-001
1.668194e+003;1.427647e-001
1.670123e+003;1.334223e-001
1.672051e+003;1.254928e-001
1.673980e+003;1.175665e-001
1.675908e+003;1.098380e-001
1.677837e+003;1.024263e-001
1.679765e+003;9.413596e-002
1.681694e+003;8.537532e-002
1.683622e+003;7.648607e-002
1.685551e+003;7.061335e-002
1.687479e+003;6.673631e-002
1.689408e+003;6.229946e-002
1.691337e+003;5.891174e-002
1.693265e+003;5.574048e-002
1.695194e+003;5.206037e-002
1.697122e+003;5.056581e-002
1.699051e+003;4.925306e-002
1.700979e+003;4.861137e-002
1.702908e+003;4.962900e-002
1.704836e+003;4.923759e-002
1.706765e+003;4.900351e-002
1.708693e+003;4.898363e-002
1.710622e+003;4.878402e-002
1.712551e+003;4.822535e-002
1.714479e+003;4.728393e-002
1.716408e+003;4.610189e-002
1.718336e+003;4.624487e-002
1.720265e+003;4.762925e-002
1.722193e+003;4.829330e-002
1.724122e+003;4.836281e-002
1.726050e+003;4.875996e-002
1.727979e+003;4.891224e-002
1.729908e+003;4.858157e-002
1.731836e+003;4.738092e-002
1.733765e+003;4.582590e-002
1.735693e+003;4.631649e-002
1.737622e+003;4.642031e-002
1.739550e+003;4.500346e-002
1.741479e+003;4.382474e-002
1.743407e+003;4.246357e-002
1.745336e+003;4.105362e-002
1.747265e+003;3.952594e-002
1.749193e+003;3.780657e-002
1.751122e+003;3.644428e-002
1.753050e+003;3.580143e-002
1.754979e+003;3.506462e-002
1.756907e+003;3.409414e-002
1.758836e+003;3.319309e-002
1.760764e+003;3.211177e-002
1.762693e+003;3.133521e-002
1.764621e+003;3.102855e-002
1.766550e+003;3.020596e-002
1.768479e+003;2.932297e-002
1.770407e+003;2.818087e-002
1.772336e+003;2.710256e-002
1.774264e+003;2.724150e-002
1.776193e+003;2.707093e-002
1.778121e+003;2.678749e-002
1.780050e+003;2.669111e-002
1.781978e+003;2.630775e-002
1.783907e+003;2.564777e-002
1.785835e+003;2.516687e-002
1.787764e+003;2.486422e-002
1.789693e+003;2.429409e-002
1.791621e+003;2.359420e-002
1.793550e+003;2.353620e-002
1.795478e+003;2.371858e-002
1.797407e+003;2.349139e-002
1.799335e+003;2.300774e-002
1.801264e+003;2.258036e-002
1.803192e+003;2.264284e-002
1.805121e+003;2.259045e-002
1.807049e+003;2.231616e-002
1.808978e+003;2.197763e-002
1.810907e+003;2.176782e-002
1.812835e+003;2.170073e-002
1.814764e+003;2.164044e-002
1.816692e+003;2.139766e-002
1.818621e+003;2.124812e-002
1.820549e+003;2.134619e-002
1.822478e+003;2.125083e-002
1.824406e+003;2.076706e-002
1.826335e+003;2.060426e-002
1.828264e+003;2.030851e-002
1.830192e+003;2.008011e-002
1.832121e+003;2.027223e-002
1.834049e+003;2.028181e-002
1.835978e+003;2.010225e-002
1.837906e+003;2.011846e-002
1.839835e+003;2.022693e-002
1.841763e+003;1.981660e-002
1.843692e+003;1.904712e-002
1.845620e+003;1.919708e-002
1.847549e+003;1.946792e-002
1.849478e+003;1.944279e-002
1.851406e+003;1.933591e-002
1.853335e+003;1.912384e-002
1.855263e+003;1.898367e-002
1.857192e+003;1.889219e-002
1.859120e+003;1.881831e-002
1.861049e+003;1.865229e-002
1.862977e+003;1.850860e-002
1.864906e+003;1.846338e-002
1.866834e+003;1.819382e-002
1.868763e+003;1.795086e-002
1.870692e+003;1.827738e-002
1.872620e+003;1.864866e-002
1.874549e+003;1.865506e-002
1.876477e+003;1.841878e-002
1.878406e+003;1.830119e-002
1.880334e+003;1.825025e-002
1.882263e+003;1.831325e-002
1.884191e+003;1.863026e-002
1.886120e+003;1.891631e-002
1.888048e+003;1.898834e-002
1.889977e+003;1.893857e-002
1.891906e+003;1.901662e-002
1.893834e+003;1.909393e-002
1.895763e+003;1.905854e-002
1.897691e+003;1.904892e-002
1.899620e+003;1.947648e-002
1.901548e+003;1.973254e-002
1.903477e+003;1.949484e-002
1.905405e+003;1.919501e-002
1.907334e+003;1.900461e-002
1.909262e+003;1.879111e-002
1.911191e+003;1.863126e-002
1.913120e+003;1.863700e-002
1.915048e+003;1.867114e-002
1.916977e+003;1.821597e-002
1.918905e+003;1.795390e-002
1.920834e+003;1.824358e-002
1.922762e+003;1.822074e-002
1.924691e+003;1.824510e-002
1.926619e+003;1.842082e-002
1.928548e+003;1.837381e-002
1.930477e+003;1.820426e-002
1.932405e+003;1.813685e-002
1.934334e+003;1.807909e-002
1.936262e+003;1.797679e-002
1.938191e+003;1.794233e-002
1.940119e+003;1.795562e-002
1.942048e+003;1.789409e-002
1.943976e+003;1.792268e-002
1.945905e+003;1.791135e-002
1.947833e+003;1.782677e-002
1.949762e+003;1.781382e-002
1.951691e+003;1.784289e-002
1.953619e+003;1.778800e-002
1.955548e+003;1.774247e-002
1.957476e+003;1.777647e-002
1.959405e+003;1.805536e-002
1.961333e+003;1.831619e-002
1.963262e+003;1.837702e-002
1.965190e+003;1.831978e-002
1.967119e+003;1.831778e-002
1.969047e+003;1.840143e-002
1.970976e+003;1.843776e-002
1.972905e+003;1.850967e-002
1.974833e+003;1.854992e-002
1.976762e+003;1.858042e-002
1.978690e+003;1.849204e-002
1.980619e+003;1.850870e-002
1.982547e+003;1.871884e-002
1.984476e+003;1.875499e-002
1.986404e+003;1.865336e-002
1.988333e+003;1.855753e-002
1.990261e+003;1.854747e-002
1.992190e+003;1.861736e-002
1.994119e+003;1.870452e-002
1.996047e+003;1.872448e-002
1.997976e+003;1.869944e-002
1.999904e+003;1.866325e-002
2.001833e+003;1.850144e-002
2.003761e+003;1.837979e-002
2.005690e+003;1.855248e-002
2.007618e+003;1.870286e-002
2.009547e+003;1.888323e-002
2.011476e+003;1.906173e-002
2.013404e+003;1.912599e-002
2.015333e+003;1.919504e-002
2.017261e+003;1.919410e-002
2.019190e+003;1.924526e-002
2.021118e+003;1.931318e-002
2.023047e+003;1.941667e-002
2.024975e+003;1.954253e-002
2.026904e+003;1.973240e-002
2.028833e+003;1.987747e-002
2.030761e+003;1.994011e-002
2.032690e+003;2.005870e-002
2.034618e+003;2.021131e-002
2.036547e+003;2.024599e-002
2.038475e+003;2.028331e-002
2.040404e+003;2.044141e-002
2.042332e+003;2.052657e-002
2.044261e+003;2.046506e-002
2.046189e+003;2.044908e-002
2.048118e+003;2.055197e-002
2.050047e+003;2.077005e-002
2.051975e+003;2.064699e-002
2.053904e+003;2.049611e-002
2.055832e+003;2.076366e-002
2.057761e+003;2.101147e-002
2.059689e+003;2.112493e-002
2.061618e+003;2.128146e-002
2.063546e+003;2.112114e-002
2.065475e+003;2.108061e-002
2.067404e+003;2.137967e-002
2.069332e+003;2.152041e-002
2.071260e+003;2.151700e-002
2.073189e+003;2.138826e-002
2.075118e+003;2.131403e-002
2.077046e+003;2.157076e-002
2.078975e+003;2.170098e-002
2.080903e+003;2.149928e-002
2.082832e+003;2.133620e-002
2.084760e+003;2.122349e-002
2.086689e+003;2.114030e-002
2.088617e+003;2.104691e-002
2.090546e+003;2.089641e-002
2.092475e+003;2.072970e-002
2.094403e+003;2.083258e-002
2.096332e+003;2.093768e-002
2.098260e+003;2.077860e-002
2.100189e+003;2.069144e-002
2.102117e+003;2.063449e-002
2.104046e+003;2.059331e-002
2.105974e+003;2.045457e-002
2.107903e+003;2.038157e-002
2.109832e+003;2.040060e-002
2.111760e+003;2.043432e-002
2.113688e+003;2.043043e-002
2.115617e+003;2.041262e-002
2.117546e+003;2.029976e-002
2.119474e+003;2.025335e-002
2.121403e+003;2.052022e-002
2.123331e+003;2.061395e-002
2.125260e+003;2.037900e-002
2.127188e+003;2.022616e-002
2.129117e+003;2.024446e-002
2.131045e+003;2.042804e-002
2.132974e+003;2.067107e-002
2.134903e+003;2.072310e-002
2.136831e+003;2.064185e-002
2.138760e+003;2.038733e-002
2.140688e+003;2.018180e-002
2.142617e+003;2.011384e-002
2.144545e+003;1.997491e-002
2.146474e+003;2.003924e-002
2.148402e+003;2.012165e-002
2.150331e+003;2.029018e-002
2.152260e+003;2.061246e-002
2.154188e+003;2.055993e-002
2.156117e+003;2.051331e-002
2.158045e+003;2.086498e-002
2.159974e+003;2.088296e-002
2.161902e+003;2.096028e-002
2.163831e+003;2.114803e-002
2.165759e+003;2.104058e-002
2.167688e+003;2.113303e-002
2.169616e+003;2.124008e-002
2.171545e+003;2.117353e-002
2.173474e+003;2.122742e-002
2.175402e+003;2.141106e-002
2.177331e+003;2.167562e-002
2.179259e+003;2.161485e-002
2.181188e+003;2.156105e-002
2.183116e+003;2.182639e-002
2.185045e+003;2.211721e-002
2.186973e+003;2.198038e-002
2.188902e+003;2.163236e-002
2.190831e+003;2.163874e-002
2.192759e+003;2.207750e-002
2.194688e+003;2.222032e-002
2.196616e+003;2.203971e-002
2.198545e+003;2.197045e-002
2.200473e+003;2.200799e-002
2.202402e+003;2.182503e-002
2.204330e+003;2.184900e-002
2.206259e+003;2.192385e-002
2.208188e+003;2.187071e-002
2.210116e+003;2.187514e-002
2.212044e+003;2.186600e-002
2.213973e+003;2.170864e-002
2.215902e+003;2.153939e-002
2.217830e+003;2.132308e-002
2.219759e+003;2.113665e-002
2.221687e+003;2.111421e-002
2.223616e+003;2.088942e-002
2.225544e+003;2.061385e-002
2.227473e+003;2.062093e-002
2.229401e+003;2.050420e-002
2.231330e+003;2.035129e-002
2.233259e+003;2.061548e-002
2.235187e+003;2.073808e-002
2.237116e+003;2.063087e-002
2.239044e+003;2.067222e-002
2.240973e+003;2.081141e-002
2.242901e+003;2.100532e-002
2.244830e+003;2.098706e-002
2.246758e+003;2.095138e-002
2.248687e+003;2.120383e-002
2.250615e+003;2.126193e-002
2.252544e+003;2.111675e-002
2.254473e+003;2.130369e-002
2.256401e+003;2.161760e-002
2.258330e+003;2.157153e-002
2.260258e+003;2.139564e-002
2.262187e+003;2.139467e-002
2.264115e+003;2.139711e-002
2.266044e+003;2.130073e-002
2.267972e+003;2.131570e-002
2.269901e+003;2.160969e-002
2.271830e+003;2.174838e-002
2.273758e+003;2.149771e-002
2.275687e+003;2.129931e-002
2.277615e+003;2.155568e-002
2.279544e+003;2.174953e-002
2.281472e+003;2.177772e-002
2.283401e+003;2.183580e-002
2.285329e+003;2.199844e-002
2.287258e+003;2.211748e-002
2.289187e+003;2.201851e-002
2.291115e+003;2.173302e-002
2.293043e+003;2.177465e-002
2.294972e+003;2.205557e-002
2.296901e+003;2.223325e-002
2.298829e+003;2.209406e-002
2.300758e+003;2.203528e-002
2.302686e+003;2.224110e-002
2.304615e+003;2.240630e-002
2.306543e+003;2.228822e-002
2.308472e+003;2.238034e-002
2.310400e+003;2.270285e-002
2.312329e+003;2.288401e-002
2.314258e+003;2.269852e-002
2.316186e+003;2.248966e-002
2.318115e+003;2.252619e-002
2.320043e+003;2.244925e-002
2.321972e+003;2.212003e-002
2.323900e+003;2.180252e-002
2.325829e+003;2.177841e-002
2.327757e+003;2.170209e-002
2.329686e+003;2.153918e-002
2.331615e+003;2.158159e-002
2.333543e+003;2.166245e-002
2.335472e+003;2.151400e-002
2.337400e+003;2.129419e-002
2.339329e+003;2.141256e-002
2.341257e+003;2.142544e-002
2.343186e+003;2.133164e-002
2.345114e+003;2.146432e-002
2.347043e+003;2.170261e-002
2.348971e+003;2.173125e-002
2.350900e+003;2.146753e-002
2.352829e+003;2.121837e-002
2.354757e+003;2.100966e-002
2.356686e+003;2.099328e-002
2.358614e+003;2.099516e-002
2.360543e+003;2.087976e-002
2.362471e+003;2.082810e-002
2.364400e+003;2.094523e-002
2.366328e+003;2.096164e-002
2.368257e+003;2.117982e-002
2.370186e+003;2.160485e-002
2.372114e+003;2.201105e-002
2.374042e+003;2.219036e-002
2.375971e+003;2.221836e-002
2.377900e+003;2.251907e-002
2.379828e+003;2.283414e-002
2.381757e+003;2.287357e-002
2.383685e+003;2.277177e-002
2.385614e+003;2.279883e-002
2.387542e+003;2.305595e-002
2.389471e+003;2.310099e-002
2.391399e+003;2.295052e-002
2.393328e+003;2.295265e-002
2.395257e+003;2.294073e-002
2.397185e+003;2.284486e-002
2.399114e+003;2.276423e-002
2.401042e+003;2.264996e-002
2.402971e+003;2.272512e-002
2.404899e+003;2.291946e-002
2.406828e+003;2.307867e-002
2.408756e+003;2.297839e-002
2.410685e+003;2.259149e-002
2.412614e+003;2.254856e-002
2.414542e+003;2.268546e-002
2.416471e+003;2.292680e-002
2.418399e+003;2.323303e-002
2.420328e+003;2.330662e-002
2.422256e+003;2.323859e-002
2.424185e+003;2.323772e-002
2.426113e+003;2.324506e-002
2.428042e+003;2.336672e-002
2.429970e+003;2.354907e-002
2.431899e+003;2.350430e-002
2.433828e+003;2.330984e-002
2.435756e+003;2.347212e-002
2.437685e+003;2.382379e-002
2.439613e+003;2.405532e-002
2.441542e+003;2.414691e-002
2.443470e+003;2.421750e-002
2.445399e+003;2.422664e-002
2.447327e+003;2.417966e-002
2.449256e+003;2.404285e-002
2.451185e+003;2.384979e-002
2.453113e+003;2.392429e-002
2.455042e+003;2.444651e-002
2.456970e+003;2.464902e-002
2.458899e+003;2.459565e-002
2.460827e+003;2.463987e-002
2.462756e+003;2.468651e-002
2.464684e+003;2.483306e-002
2.466613e+003;2.489797e-002
2.468542e+003;2.482682e-002
2.470470e+003;2.479991e-002
2.472398e+003;2.514711e-002
2.474327e+003;2.570954e-002
2.476256e+003;2.577321e-002
2.478184e+003;2.555587e-002
2.480113e+003;2.538226e-002
2.482041e+003;2.523510e-002
2.483970e+003;2.530650e-002
2.485898e+003;2.564658e-002
2.487827e+003;2.577609e-002
2.489755e+003;2.559572e-002
2.491684e+003;2.533200e-002
2.493613e+003;2.529213e-002
2.495541e+003;2.558876e-002
2.497470e+003;2.569804e-002
2.499398e+003;2.572768e-002
2.501327e+003;2.580861e-002
2.503255e+003;2.588021e-002
2.505184e+003;2.573327e-002
2.507112e+003;2.583692e-002
2.509041e+003;2.600574e-002
2.510969e+003;2.604075e-002
2.512898e+003;2.620659e-002
2.514827e+003;2.650384e-002
2.516755e+003;2.687031e-002
2.518684e+003;2.716358e-002
2.520612e+003;2.722358e-002
2.522541e+003;2.727315e-002
2.524469e+003;2.724073e-002
2.526398e+003;2.740198e-002
2.528326e+003;2.758741e-002
2.530255e+003;2.778842e-002
2.532184e+003;2.840550e-002
2.534112e+003;2.893119e-002
2.536041e+003;2.883628e-002
2.537969e+003;2.878579e-002
2.539898e+003;2.903136e-002
2.541826e+003;2.932722e-002
2.543755e+003;2.948336e-002
2.545683e+003;2.942947e-002
2.547612e+003;2.960909e-002
2.549541e+003;2.979174e-002
2.551469e+003;2.963364e-002
2.553397e+003;2.962013e-002
2.555326e+003;2.975203e-002
2.557255e+003;2.969651e-002
2.559183e+003;2.960994e-002
2.561112e+003;2.960196e-002
2.563040e+003;2.986244e-002
2.564969e+003;3.011220e-002
2.566897e+003;3.036214e-002
2.568826e+003;3.046164e-002
2.570754e+003;3.042930e-002
2.572683e+003;3.057717e-002
2.574612e+003;3.083730e-002
2.576540e+003;3.082798e-002
2.578469e+003;3.105278e-002
2.580397e+003;3.151712e-002
2.582326e+003;3.181458e-002
2.584254e+003;3.193153e-002
2.586183e+003;3.210082e-002
2.588111e+003;3.230615e-002
2.590040e+003;3.249297e-002
2.591969e+003;3.257810e-002
2.593897e+003;3.263064e-002
2.595826e+003;3.270655e-002
2.597754e+003;3.273024e-002
2.599683e+003;3.290952e-002
2.601611e+003;3.291763e-002
2.603540e+003;3.297958e-002
2.605468e+003;3.323612e-002
2.607397e+003;3.360330e-002
2.609325e+003;3.362389e-002
2.611254e+003;3.333986e-002
2.613183e+003;3.343497e-002
2.615111e+003;3.380039e-002
2.617040e+003;3.392515e-002
2.618968e+003;3.391257e-002
2.620897e+003;3.383502e-002
2.622825e+003;3.382377e-002
2.624754e+003;3.391132e-002
2.626682e+003;3.376350e-002
2.628611e+003;3.383244e-002
2.630540e+003;3.405339e-002
2.632468e+003;3.416002e-002
2.634396e+003;3.436901e-002
2.636325e+003;3.447256e-002
2.638254e+003;3.444314e-002
2.640182e+003;3.460548e-002
2.642111e+003;3.475704e-002
2.644039e+003;3.487720e-002
2.645968e+003;3.503826e-002
2.647896e+003;3.506646e-002
2.649825e+003;3.521174e-002
2.651753e+003;3.574394e-002
2.653682e+003;3.595639e-002
2.655611e+003;3.584879e-002
2.657539e+003;3.574977e-002
2.659468e+003;3.571746e-002
2.661396e+003;3.583853e-002
2.663325e+003;3.608153e-002
2.665253e+003;3.641239e-002
2.667182e+003;3.668091e-002
2.669110e+003;3.700451e-002
2.671039e+003;3.740324e-002
2.672968e+003;3.752702e-002
2.674896e+003;3.774849e-002
2.676825e+003;3.810605e-002
2.678753e+003;3.827433e-002
2.680682e+003;3.830870e-002
2.682610e+003;3.860157e-002
2.684539e+003;3.895781e-002
2.686467e+003;3.930379e-002
2.688396e+003;3.976223e-002
2.690324e+003;4.034017e-002
2.692253e+003;4.092442e-002
2.694182e+003;4.120861e-002
2.696110e+003;4.144704e-002
2.698039e+003;4.193570e-002
2.699967e+003;4.224754e-002
2.701896e+003;4.230890e-002
2.703824e+003;4.248323e-002
2.705753e+003;4.287781e-002
2.707681e+003;4.311475e-002
2.709610e+003;4.327103e-002
2.711539e+003;4.362255e-002
2.713467e+003;4.396702e-002
2.715396e+003;4.452331e-002
2.717324e+003;4.513575e-002
2.719253e+003;4.556120e-002
2.721181e+003;4.583643e-002
2.723110e+003;4.624480e-002
2.725038e+003;4.680140e-002
2.726967e+003;4.722885e-002
2.728896e+003;4.774954e-002
2.730824e+003;4.827845e-002
2.732752e+003;4.868838e-002
2.734681e+003;4.903782e-002
2.736610e+003;4.949941e-002
2.738538e+003;4.994325e-002
2.740467e+003;5.037972e-002
2.742395e+003;5.055977e-002
2.744324e+003;5.044443e-002
2.746252e+003;5.047629e-002
2.748181e+003;5.065188e-002
2.750109e+003;5.070803e-002
2.752038e+003;5.088561e-002
2.753967e+003;5.104229e-002
2.755895e+003;5.074832e-002
2.757824e+003;5.062883e-002
2.759752e+003;5.092797e-002
2.761681e+003;5.132826e-002
2.763609e+003;5.150106e-002
2.765538e+003;5.161557e-002
2.767466e+003;5.194847e-002
2.769395e+003;5.235033e-002
2.771323e+003;5.258846e-002
2.773252e+003;5.286819e-002
2.775181e+003;5.319314e-002
2.777109e+003;5.370848e-002
2.779038e+003;5.430740e-002
2.780966e+003;5.490640e-002
2.782895e+003;5.543672e-002
2.784823e+003;5.607366e-002
2.786752e+003;5.684241e-002
2.788680e+003;5.755166e-002
2.790609e+003;5.806796e-002
2.792538e+003;5.833744e-002
2.794466e+003;5.891785e-002
2.796395e+003;5.967056e-002
2.798323e+003;6.006825e-002
2.800252e+003;6.054481e-002
2.802180e+003;6.107902e-002
2.804109e+003;6.156360e-002
2.806037e+003;6.205147e-002
2.807966e+003;6.240189e-002
2.809895e+003;6.291043e-002
2.811823e+003;6.353545e-002
2.813751e+003;6.389306e-002
2.815680e+003;6.450205e-002
2.817609e+003;6.515386e-002
2.819537e+003;6.563353e-002
2.821466e+003;6.633127e-002
2.823394e+003;6.722582e-002
2.825323e+003;6.790575e-002
2.827251e+003;6.826914e-002
2.829180e+003;6.907041e-002
2.831108e+003;7.051302e-002
2.833037e+003;7.195269e-002
2.834966e+003;7.340562e-002
2.836894e+003;7.549862e-002
2.838823e+003;7.815895e-002
2.840751e+003;8.108729e-002
2.842680e+003;8.483727e-002
2.844608e+003;8.947508e-002
2.846537e+003;9.435595e-002
2.848465e+003;9.932423e-002
2.850394e+003;1.042202e-001
2.852323e+003;1.081736e-001
2.854251e+003;1.114053e-001
2.856180e+003;1.146944e-001
2.858108e+003;1.177154e-001
2.860037e+003;1.200453e-001
2.861965e+003;1.207386e-001
2.863894e+003;1.204426e-001
2.865822e+003;1.197583e-001
2.867751e+003;1.184517e-001
2.869679e+003;1.164427e-001
2.871608e+003;1.141870e-001
2.873536e+003;1.115356e-001
2.875465e+003;1.082883e-001
2.877394e+003;1.049713e-001
2.879322e+003;1.019966e-001
2.881251e+003;9.971377e-002
2.883179e+003;9.812321e-002
2.885108e+003;9.744869e-002
2.887036e+003;9.770459e-002
2.888965e+003;9.850586e-002
2.890893e+003;9.971849e-002
2.892822e+003;1.015944e-001
2.894750e+003;1.037558e-001
2.896679e+003;1.059974e-001
2.898608e+003;1.081752e-001
2.900536e+003;1.097741e-001
2.902465e+003;1.111225e-001
2.904393e+003;1.123119e-001
2.906322e+003;1.135412e-001
2.908250e+003;1.153030e-001
2.910179e+003;1.175380e-001
2.912107e+003;1.197239e-001
2.914036e+003;1.223556e-001
2.915965e+003;1.257512e-001
2.917893e+003;1.290186e-001
2.919822e+003;1.320486e-001
2.921750e+003;1.355457e-001
2.923679e+003;1.388817e-001
2.925607e+003;1.421837e-001
2.927536e+003;1.453837e-001
2.929464e+003;1.482875e-001
2.931393e+003;1.510610e-001
2.933322e+003;1.527338e-001
2.935250e+003;1.530942e-001
2.937178e+003;1.524220e-001
2.939107e+003;1.507475e-001
2.941036e+003;1.479352e-001
2.942964e+003;1.441063e-001
2.944893e+003;1.395882e-001
2.946821e+003;1.346755e-001
2.948750e+003;1.289590e-001
2.950678e+003;1.219892e-001
2.952607e+003;1.149692e-001
2.954535e+003;1.081996e-001
2.956464e+003;1.018529e-001
2.958393e+003;9.638276e-002
2.960321e+003;9.187686e-002
2.962250e+003;8.793421e-002
2.964178e+003;8.414710e-002
2.966107e+003;8.126193e-002
2.968035e+003;7.838012e-002
2.969964e+003;7.510222e-002
2.971892e+003;7.237385e-002
2.973821e+003;7.006157e-002
2.975750e+003;6.816660e-002
2.977678e+003;6.636841e-002
2.979607e+003;6.446753e-002
2.981535e+003;6.274512e-002
2.983464e+003;6.088208e-002
2.985392e+003;5.920692e-002
2.987321e+003;5.831398e-002
2.989249e+003;5.750123e-002
2.991178e+003;5.654480e-002
2.993106e+003;5.583308e-002
2.995035e+003;5.543096e-002
2.996964e+003;5.507672e-002
2.998892e+003;5.468589e-002
3.000821e+003;5.413273e-002
3.002749e+003;5.362641e-002
3.004678e+003;5.368943e-002
3.006606e+003;5.365880e-002
3.008535e+003;5.351523e-002
3.010463e+003;5.352779e-002
3.012392e+003;5.370293e-002
3.014321e+003;5.392203e-002
3.016249e+003;5.438844e-002
3.018177e+003;5.497615e-002
3.020106e+003;5.526521e-002
3.022035e+003;5.544903e-002
3.023963e+003;5.566853e-002
3.025892e+003;5.604817e-002
3.027820e+003;5.664441e-002
3.029749e+003;5.726323e-002
3.031677e+003;5.792171e-002
3.033606e+003;5.870869e-002
3.035534e+003;5.985188e-002
3.037463e+003;6.104023e-002
3.039392e+003;6.198711e-002
3.041320e+003;6.303511e-002
3.043249e+003;6.395701e-002
3.045177e+003;6.442407e-002
3.047106e+003;6.532381e-002
3.049034e+003;6.629723e-002
3.050963e+003;6.710488e-002
3.052891e+003;6.817908e-002
3.054820e+003;6.925648e-002
3.056749e+003;6.994685e-002
3.058677e+003;7.046118e-002
3.060606e+003;7.126511e-002
3.062534e+003;7.198218e-002
3.064463e+003;7.205191e-002
3.066391e+003;7.222111e-002
3.068320e+003;7.229949e-002
3.070248e+003;7.228845e-002
3.072177e+003;7.245081e-002
3.074105e+003;7.260521e-002
3.076034e+003;7.262040e-002
3.077963e+003;7.275359e-002
3.079891e+003;7.275707e-002
3.081820e+003;7.254866e-002
3.083748e+003;7.224361e-002
3.085677e+003;7.176170e-002
3.087605e+003;7.097524e-002
3.089534e+003;7.018255e-002
3.091462e+003;6.929368e-002
3.093391e+003;6.857157e-002
3.095320e+003;6.815004e-002
3.097248e+003;6.741068e-002
3.099177e+003;6.654070e-002
3.101105e+003;6.572834e-002
3.103034e+003;6.480598e-002
3.104962e+003;6.394454e-002
3.106891e+003;6.331946e-002
3.108819e+003;6.287677e-002
3.110748e+003;6.263821e-002
3.112677e+003;6.191622e-002
3.114605e+003;6.102098e-002
3.116533e+003;6.051472e-002
3.118462e+003;6.003119e-002
3.120391e+003;5.961426e-002
3.122319e+003;5.935291e-002
3.124248e+003;5.922693e-002
3.126176e+003;5.893591e-002
3.128105e+003;5.868574e-002
3.130033e+003;5.833243e-002
3.131962e+003;5.798646e-002
3.133890e+003;5.803103e-002
3.135819e+003;5.831932e-002
3.137748e+003;5.843340e-002
3.139676e+003;5.816280e-002
3.141605e+003;5.777551e-002
3.143533e+003;5.808174e-002
3.145462e+003;5.825134e-002
3.147390e+003;5.839141e-002
3.149319e+003;5.867618e-002
3.151247e+003;5.894612e-002
3.153176e+003;5.951343e-002
3.155104e+003;6.031838e-002
3.157033e+003;6.093683e-002
3.158962e+003;6.126510e-002
3.160890e+003;6.165085e-002
3.162819e+003;6.257204e-002
3.164747e+003;6.339495e-002
3.166676e+003;6.347854e-002
3.168604e+003;6.383729e-002
3.170533e+003;6.474548e-002
3.172461e+003;6.557306e-002
3.174390e+003;6.631158e-002
3.176319e+003;6.720544e-002
3.178247e+003;6.808473e-002
3.180176e+003;6.885126e-002
3.182104e+003;6.936345e-002
3.184033e+003;6.998631e-002
3.185961e+003;7.058423e-002
3.187890e+003;7.099943e-002
3.189818e+003;7.142974e-002
3.191747e+003;7.228939e-002
3.193676e+003;7.283077e-002
3.195604e+003;7.327954e-002
3.197532e+003;7.414014e-002
3.199461e+003;7.447454e-002
3.201390e+003;7.437503e-002
3.203318e+003;7.455666e-002
3.205247e+003;7.498954e-002
3.207175e+003;7.534453e-002
3.209104e+003;7.599692e-002
3.211032e+003;7.704308e-002
3.212961e+003;7.764108e-002
3.214889e+003;7.785140e-002
3.216818e+003;7.857197e-002
3.218747e+003;7.935470e-002
3.220675e+003;7.964478e-002
3.222604e+003;8.014926e-002
3.224532e+003;8.118666e-002
3.226461e+003;8.202071e-002
3.228389e+003;8.292694e-002
3.230318e+003;8.433793e-002
3.232246e+003;8.572785e-002
3.234175e+003;8.735302e-002
3.236104e+003;8.892908e-002
3.238032e+003;9.044787e-002
3.239961e+003;9.229400e-002
3.241889e+003;9.375246e-002
3.243818e+003;9.521042e-002
3.245746e+003;9.731299e-002
3.247675e+003;9.971903e-002
3.249603e+003;1.015814e-001
3.251532e+003;1.033737e-001
3.253460e+003;1.057177e-001
3.255389e+003;1.081084e-001
3.257318e+003;1.104221e-001
3.259246e+003;1.127859e-001
3.261175e+003;1.152451e-001
3.263103e+003;1.177572e-001
3.265032e+003;1.207012e-001
3.266960e+003;1.238180e-001
3.268889e+003;1.258893e-001
3.270817e+003;1.277952e-001
3.272746e+003;1.307231e-001
3.274675e+003;1.338891e-001
3.276603e+003;1.363664e-001
3.278531e+003;1.389218e-001
3.280460e+003;1.418969e-001
3.282389e+003;1.447826e-001
3.284317e+003;1.472783e-001
3.286246e+003;1.491713e-001
3.288174e+003;1.507865e-001
3.290103e+003;1.519683e-001
3.292031e+003;1.524966e-001
3.293960e+003;1.524453e-001
3.295888e+003;1.512952e-001
3.297817e+003;1.492968e-001
3.299746e+003;1.469681e-001
3.301674e+003;1.442671e-001
3.303603e+003;1.411140e-001
3.305531e+003;1.374127e-001
3.307460e+003;1.336620e-001
3.309388e+003;1.301759e-001
3.311317e+003;1.262926e-001
3.313245e+003;1.222228e-001
3.315174e+003;1.190154e-001
3.317103e+003;1.160982e-001
3.319031e+003;1.129305e-001
3.320960e+003;1.095490e-001
3.322888e+003;1.059940e-001
3.324817e+003;1.031260e-001
3.326745e+003;1.007415e-001
3.328674e+003;9.842531e-002
3.330602e+003;9.575055e-002
3.332531e+003;9.280815e-002
3.334459e+003;9.056116e-002
3.336388e+003;8.857606e-002
3.338317e+003;8.616918e-002
3.340245e+003;8.398018e-002
3.342174e+003;8.229046e-002
3.344102e+003;8.047594e-002
3.346031e+003;7.829289e-002
3.347959e+003;7.653460e-002
3.349888e+003;7.523679e-002
3.351816e+003;7.379450e-002
3.353745e+003;7.194228e-002
3.355674e+003;7.035512e-002
3.357602e+003;6.952476e-002
3.359531e+003;6.893281e-002
3.361459e+003;6.756189e-002
3.363388e+003;6.603919e-002
3.365316e+003;6.471456e-002
3.367245e+003;6.351052e-002
3.369173e+003;6.274065e-002
3.371102e+003;6.214375e-002
3.373031e+003;6.137583e-002
3.374959e+003;6.048947e-002
3.376887e+003;5.999893e-002
3.378816e+003;5.955607e-002
3.380745e+003;5.896301e-002
3.382673e+003;5.777665e-002
3.384602e+003;5.715694e-002
3.386530e+003;5.720653e-002
3.388459e+003;5.665283e-002
3.390387e+003;5.568401e-002
3.392316e+003;5.493945e-002
3.394244e+003;5.446239e-002
3.396173e+003;5.411723e-002
3.398102e+003;5.366626e-002
3.400030e+003;5.300709e-002
3.401959e+003;5.273449e-002
3.403887e+003;5.251550e-002
3.405816e+003;5.219401e-002
3.407744e+003;5.189410e-002
3.409673e+003;5.159661e-002
3.411601e+003;5.118743e-002
3.413530e+003;5.098945e-002
3.415458e+003;5.081488e-002
3.417387e+003;5.040123e-002
3.419316e+003;4.997198e-002
3.421244e+003;4.971923e-002
3.423173e+003;4.946399e-002
3.425101e+003;4.939879e-002
3.427030e+003;4.932443e-002
3.428958e+003;4.868827e-002
3.430887e+003;4.828604e-002
3.432815e+003;4.808494e-002
3.434744e+003;4.796303e-002
3.436673e+003;4.780240e-002
3.438601e+003;4.765191e-002
3.440530e+003;4.788363e-002
3.442458e+003;4.783380e-002
3.444387e+003;4.746031e-002
3.446315e+003;4.720728e-002
3.448244e+003;4.701132e-002
3.450172e+003;4.645873e-002
3.452101e+003;4.601410e-002
3.454030e+003;4.585852e-002
3.455958e+003;4.541866e-002
3.457886e+003;4.449427e-002
3.459815e+003;4.386162e-002
3.461744e+003;4.344190e-002
3.463672e+003;4.303916e-002
3.465601e+003;4.251198e-002
3.467529e+003;4.212635e-002
3.469458e+003;4.250953e-002
3.471386e+003;4.268248e-002
3.473315e+003;4.207907e-002
3.475243e+003;4.164583e-002
3.477172e+003;4.131270e-002
3.479101e+003;4.132815e-002
3.481029e+003;4.116354e-002
3.482958e+003;4.083912e-002
3.484886e+003;4.079413e-002
3.486815e+003;4.091863e-002
3.488743e+003;4.100107e-002
3.490672e+003;4.095045e-002
3.492600e+003;4.077968e-002
3.494529e+003;4.053244e-002
3.496458e+003;3.997146e-002
3.498386e+003;3.985766e-002
3.500315e+003;4.007414e-002
3.502243e+003;3.984629e-002
3.504172e+003;3.951650e-002
3.506100e+003;3.928659e-002
3.508029e+003;3.865739e-002
3.509957e+003;3.844740e-002
3.511886e+003;3.851920e-002
3.513814e+003;3.793246e-002
3.515743e+003;3.766197e-002
3.517672e+003;3.752099e-002
3.519600e+003;3.731723e-002
3.521529e+003;3.686129e-002
3.523457e+003;3.613640e-002
3.525386e+003;3.567908e-002
3.527314e+003;3.538964e-002
3.529243e+003;3.524685e-002
3.531171e+003;3.510658e-002
3.533100e+003;3.483447e-002
3.535029e+003;3.456809e-002
3.536957e+003;3.405629e-002
3.538885e+003;3.358257e-002
3.540814e+003;3.343121e-002
3.542743e+003;3.286817e-002
3.544671e+003;3.233081e-002
3.546600e+003;3.202244e-002
3.548528e+003;3.175943e-002
3.550457e+003;3.130401e-002
3.552385e+003;3.058453e-002
3.554314e+003;3.027978e-002
3.556242e+003;3.011575e-002
3.558171e+003;2.981910e-002
3.560100e+003;2.954316e-002
3.562028e+003;2.911100e-002
3.563957e+003;2.831814e-002
3.565885e+003;2.750554e-002
3.567814e+003;2.716785e-002
3.569742e+003;2.746463e-002
3.571671e+003;2.752637e-002
3.573599e+003;2.695383e-002
3.575528e+003;2.653494e-002
3.577457e+003;2.634789e-002
3.579385e+003;2.596522e-002
3.581314e+003;2.554733e-002
3.583242e+003;2.528462e-002
3.585171e+003;2.473277e-002
3.587099e+003;2.400360e-002
3.589028e+003;2.374227e-002
3.590956e+003;2.398896e-002
3.592885e+003;2.398791e-002
3.594813e+003;2.345463e-002
3.596742e+003;2.303967e-002
3.598671e+003;2.282530e-002
3.600599e+003;2.239172e-002
3.602528e+003;2.225132e-002
3.604456e+003;2.213617e-002
3.606385e+003;2.148246e-002
3.608313e+003;2.077123e-002
3.610242e+003;2.028233e-002
3.612170e+003;1.998272e-002
3.614099e+003;2.000173e-002
3.616028e+003;1.959112e-002
3.617956e+003;1.909334e-002
3.619885e+003;1.913478e-002
3.621813e+003;1.962198e-002
3.623742e+003;1.959546e-002
3.625670e+003;1.877136e-002
3.627599e+003;1.730369e-002
3.629527e+003;1.715410e-002
3.631456e+003;1.817271e-002
3.633385e+003;1.804873e-002
3.635313e+003;1.804870e-002
3.637241e+003;1.800718e-002
3.639170e+003;1.737265e-002
3.641099e+003;1.699498e-002
3.643027e+003;1.694337e-002
3.644956e+003;1.670620e-002
3.646884e+003;1.629051e-002
3.648813e+003;1.642012e-002
3.650741e+003;1.627740e-002
3.652670e+003;1.608374e-002
3.654598e+003;1.564155e-002
3.656527e+003;1.512710e-002
3.658456e+003;1.523137e-002
3.660384e+003;1.546472e-002
3.662313e+003;1.575200e-002
3.664241e+003;1.582745e-002
3.666170e+003;1.551502e-002
3.668098e+003;1.469016e-002
3.670027e+003;1.395608e-002
3.671955e+003;1.413517e-002
3.673884e+003;1.333079e-002
3.675813e+003;1.302346e-002
3.677741e+003;1.412891e-002
3.679669e+003;1.426393e-002
3.681598e+003;1.428584e-002
3.683527e+003;1.426989e-002
3.685455e+003;1.347329e-002
3.687384e+003;1.214889e-002
3.689312e+003;1.179106e-002
3.691241e+003;1.250037e-002
3.693169e+003;1.315527e-002
3.695098e+003;1.326916e-002
3.697026e+003;1.304494e-002
3.698955e+003;1.281142e-002
3.700884e+003;1.258928e-002
3.702812e+003;1.239409e-002
3.704741e+003;1.256309e-002
3.706669e+003;1.265461e-002
3.708598e+003;1.194668e-002
3.710526e+003;1.110075e-002
3.712455e+003;1.117050e-002
3.714383e+003;1.191599e-002
3.716312e+003;1.228869e-002
3.718240e+003;1.205390e-002
3.720169e+003;1.167750e-002
3.722098e+003;1.165925e-002
3.724026e+003;1.206825e-002
3.725955e+003;1.246221e-002
3.727883e+003;1.239671e-002
3.729812e+003;1.178013e-002
3.731740e+003;1.122375e-002
3.733669e+003;1.134175e-002
3.735597e+003;1.157519e-002
3.737526e+003;1.215707e-002
3.739455e+003;1.245488e-002
3.741383e+003;1.187564e-002
3.743312e+003;9.918861e-003
3.745240e+003;9.717307e-003
3.747169e+003;1.045290e-002
3.749097e+003;9.816259e-003
3.751026e+003;9.843204e-003
3.752954e+003;1.074248e-002
3.754883e+003;1.195887e-002
3.756812e+003;1.223691e-002
3.758740e+003;1.203990e-002
3.760668e+003;1.199858e-002
3.762597e+003;1.234728e-002
3.764526e+003;1.241468e-002
3.766454e+003;1.262005e-002
3.768383e+003;1.232168e-002
3.770311e+003;1.180529e-002
3.772240e+003;1.219462e-002
3.774168e+003;1.263213e-002
3.776097e+003;1.231111e-002
3.778025e+003;1.234895e-002
3.779954e+003;1.265952e-002
3.781883e+003;1.284193e-002
3.783811e+003;1.251030e-002
3.785740e+003;1.246607e-002
3.787668e+003;1.249727e-002
3.789597e+003;1.292924e-002
3.791525e+003;1.349407e-002
3.793454e+003;1.320292e-002
3.795382e+003;1.261831e-002
3.797311e+003;1.257015e-002
3.799240e+003;1.177179e-002
3.801168e+003;1.098043e-002
3.803097e+003;1.174915e-002
3.805025e+003;1.192985e-002
3.806954e+003;1.192457e-002
3.808882e+003;1.269459e-002
3.810811e+003;1.306952e-002
3.812739e+003;1.283985e-002
3.814668e+003;1.182381e-002
3.816596e+003;1.185364e-002
3.818525e+003;1.208460e-002
3.820454e+003;1.142505e-002
3.822382e+003;1.206910e-002
3.824311e+003;1.281016e-002
3.826239e+003;1.277767e-002
3.828168e+003;1.336680e-002
3.830096e+003;1.365614e-002
3.832025e+003;1.352750e-002
3.833953e+003;1.336229e-002
3.835882e+003;1.255548e-002
3.837811e+003;1.200257e-002
3.839739e+003;1.290449e-002
3.841667e+003;1.333499e-002
3.843596e+003;1.357706e-002
3.845525e+003;1.391588e-002
3.847453e+003;1.399896e-002
3.849382e+003;1.371127e-002
3.851310e+003;1.240309e-002
3.853239e+003;1.120338e-002
3.855167e+003;1.253795e-002
3.857096e+003;1.395222e-002
3.859024e+003;1.409584e-002
3.860953e+003;1.380142e-002
3.862882e+003;1.330633e-002
3.864810e+003;1.317068e-002
3.866739e+003;1.331733e-002
3.868667e+003;1.287674e-002
3.870596e+003;1.334644e-002
3.872524e+003;1.395916e-002
3.874453e+003;1.430718e-002
3.876381e+003;1.460085e-002
3.878310e+003;1.368747e-002
3.880239e+003;1.272458e-002
3.882167e+003;1.337128e-002
3.884096e+003;1.401302e-002
3.886024e+003;1.412504e-002
3.887953e+003;1.423336e-002
3.889881e+003;1.367974e-002
3.891810e+003;1.380874e-002
3.893738e+003;1.442657e-002
3.895667e+003;1.435906e-002
3.897595e+003;1.427643e-002
3.899524e+003;1.443338e-002
3.901453e+003;1.421107e-002
3.903381e+003;1.399430e-002
3.905310e+003;1.408626e-002
3.907238e+003;1.441074e-002
3.909167e+003;1.459372e-002
3.911095e+003;1.478675e-002
3.913024e+003;1.515067e-002
3.914952e+003;1.559381e-002
3.916881e+003;1.533629e-002
3.918810e+003;1.449296e-002
3.920738e+003;1.467857e-002
3.922667e+003;1.537711e-002
3.924595e+003;1.564636e-002
3.926524e+003;1.603344e-002
3.928452e+003;1.598927e-002
3.930381e+003;1.559264e-002
3.932309e+003;1.545288e-002
3.934238e+003;1.562623e-002
3.936167e+003;1.597789e-002
3.938095e+003;1.602093e-002
3.940023e+003;1.579192e-002
3.941952e+003;1.582391e-002
3.943881e+003;1.600319e-002
3.945809e+003;1.579529e-002
3.947738e+003;1.579869e-002
3.949666e+003;1.636782e-002
3.951595e+003;1.659616e-002
3.953523e+003;1.672245e-002
3.955452e+003;1.680069e-002
3.957380e+003;1.645642e-002
3.959309e+003;1.689835e-002
3.961238e+003;1.730627e-002
3.963166e+003;1.735537e-002
3.965095e+003;1.751938e-002
3.967023e+003;1.783008e-002
3.968952e+003;1.808835e-002
3.970880e+003;1.804873e-002
3.972809e+003;1.787427e-002
3.974737e+003;1.806082e-002
3.976666e+003;1.842217e-002
3.978594e+003;1.869892e-002
3.980523e+003;1.866087e-002
3.982452e+003;1.846901e-002
3.984380e+003;1.808897e-002
3.986309e+003;1.820557e-002
3.988237e+003;1.892441e-002
3.990166e+003;1.942956e-002
3.992094e+003;1.931821e-002
3.994023e+003;1.888503e-002
3.995951e+003;1.865661e-002
3.997880e+003;1.862313e-002
3.999809e+003;1.891164e-002
4.001737e+003;0.000000e+000
