3.992094e+002;0.000000e+000
4.011380e+002;0.000000e+000
4.030665e+002;0.000000e+000
4.049951e+002;0.000000e+000
4.069236e+002;0.000000e+000
4.088522e+002;0.000000e+000
4.107807e+002;0.000000e+000
4.127093e+002;0.000000e+000
4.146378e+002;0.000000e+000
4.165664e+002;0.000000e+000
4.184949e+002;0.000000e+000
4.204235e+002;0.000000e+000
4.223520e+002;0.000000e+000
4.242806e+002;0.000000e+000
4.262091e+002;0.000000e+000
4.281377e+002;0.000000e+000
4.300662e+002;0.000000e+000
4.319948e+002;0.000000e+000
4.339233e+002;0.000000e+000
4.358519e+002;0.000000e+000
4.377804e+002;0.000000e+000
4.397090e+002;0.000000e+000
4.416375e+002;0.000000e+000
4.435660e+002;0.000000e+000
4.454946e+002;0.000000e+000
4.474232e+002;0.000000e+000
4.493517e+002;0.000000e+000
4.512802e+002;0.000000e+000
4.532088e+002;0.000000e+000
4.551373e+002;0.000000e+000
4.570659e+002;0.000000e+000
4.589944e+002;0.000000e+000
4.609230e+002;0.000000e+000
4.628515e+002;0.000000e+000
4.647801e+002;0.000000e+000
4.667086e+002;0.000000e+000
4.686372e+002;0.000000e+000
4.705657e+002;0.000000e+000
4.724943e+002;0.000000e+000
4.744228e+002;0.000000e+000
4.763513e+002;0.000000e+000
4.782799e+002;0.000000e+000
4.802085e+002;0.000000e+000
4.821370e+002;0.000000e+000
4.840656e+002;0.000000e+000
4.859941e+002;0.000000e+000
4.879226e+002;0.000000e+000
4.898512e+002;0.000000e+000
4.917798e+002;0.000000e+000
4.937083e+002;0.000000e+000
4.956368e+002;0.000000e+000
4.975654e+002;0.000000e+000
4.994939e+002;0.000000e+000
5.014225e+002;0.000000e+000
5.033510e+002;0.000000e+000
5.052796e+002;0.000000e+000
5.072081e+002;0.000000e+000
5.091367e+002;0.000000e+000
5.110652e+002;0.000000e+000
5.129938e+002;0.000000e+000
5.149223e+002;0.000000e+000
5.168509e+002;0.000000e+000
5.187794e+002;0.000000e+000
5.207079e+002;0.000000e+000
5.226365e+002;0.000000e+000
5.245651e+002;0.000000e+000
5.264936e+002;0.000000e+000
5.284222e+002;0.000000e+000
5.303507e+002;0.000000e+000
5.322792e+002;0.000000e+000
5.342078e+002;0.000000e+000
5.361364e+002;0.000000e+000
5.380649e+002;0.000000e+000
5.399935e+002;0.000000e+000
5.419220e+002;0.000000e+000
5.438505e+002;0.000000e+000
5.457791e+002;0.000000e+000
5.477076e+002;0.000000e+000
5.496362e+002;0.000000e+000
5.515648e+002;0.000000e+000
5.534933e+002;0.000000e+000
5.554218e+002;0.000000e+000
5.573504e+002;0.000000e+000
5.592789e+002;0.000000e+000
5.612075e+002;0.000000e+000
5.631360e+002;0.000000e+000
5.650646e+002;0.000000e+000
5.669931e+002;0.000000e+000
5.689217e+002;0.000000e+000
5.708502e+002;0.000000e+000
5.727787e+002;0.000000e+000
5.747073e+002;0.000000e+000
5.766359e+002;0.000000e+000
5.785644e+002;0.000000e+000
5.804930e+002;0.000000e+000
5.824215e+002;0.000000e+000
5.843500e+002;0.000000e+000
5.862786e+002;0.000000e+000
5.882072e+002;0.000000e+000
5.901357e+002;0.000000e+000
5.920643e+002;0.000000e+000
5.939928e+002;0.000000e+000
5.959213e+002;0.000000e+000
5.978499e+002;0.000000e+000
5.997784e+002;1.815382e-001
6.017070e+002;1.791309e-001
6.036355e+002;1.800600e-001
6.055641e+002;1.752075e-001
6.074926e+002;1.679365e-001
6.094211e+002;1.691466e-001
6.113497e+002;1.734193e-001
6.132783e+002;1.718092e-001
6.152068e+002;1.685953e-001
6.171354e+002;1.674517e-001
6.190639e+002;1.726160e-001
6.209924e+002;1.781669e-001
6.229210e+002;1.756953e-001
6.248495e+002;1.709433e-001
6.267781e+002;1.694082e-001
6.287067e+002;1.711724e-001
6.306352e+002;1.775818e-001
6.325637e+002;1.784298e-001
6.344923e+002;1.773106e-001
6.364208e+002;1.781779e-001
6.383494e+002;1.824494e-001
6.402780e+002;1.865278e-001
6.422065e+002;1.838029e-001
6.441350e+002;1.825143e-001
6.460636e+002;1.864237e-001
6.479921e+002;1.884750e-001
6.499207e+002;1.861714e-001
6.518492e+002;1.880901e-001
6.537778e+002;1.939074e-001
6.557063e+002;1.989458e-001
6.576349e+002;2.032142e-001
6.595634e+002;2.048279e-001
6.614919e+002;2.066189e-001
6.634205e+002;2.091732e-001
6.653491e+002;2.106430e-001
6.672776e+002;2.135875e-001
6.692062e+002;2.176531e-001
6.711347e+002;2.201591e-001
6.730632e+002;2.226279e-001
6.749918e+002;2.240418e-001
6.769203e+002;2.238077e-001
6.788489e+002;2.245078e-001
6.807775e+002;2.244499e-001
6.827060e+002;2.231264e-001
6.846345e+002;2.234795e-001
6.865631e+002;2.224701e-001
6.884916e+002;2.202257e-001
6.904202e+002;2.180880e-001
6.923488e+002;2.175756e-001
6.942773e+002;2.154469e-001
6.962058e+002;2.113879e-001
6.981344e+002;2.075567e-001
7.000629e+002;2.036227e-001
7.019915e+002;2.002938e-001
7.039200e+002;1.979390e-001
7.058486e+002;1.958449e-001
7.077771e+002;1.946735e-001
7.097057e+002;1.935544e-001
7.116342e+002;1.923540e-001
7.135627e+002;1.910056e-001
7.154913e+002;1.886392e-001
7.174199e+002;1.869749e-001
7.193484e+002;1.860329e-001
7.212770e+002;1.852008e-001
7.232055e+002;1.850516e-001
7.251340e+002;1.848124e-001
7.270626e+002;1.842976e-001
7.289911e+002;1.831191e-001
7.309197e+002;1.779328e-001
7.328483e+002;1.697069e-001
7.347768e+002;1.624896e-001
7.367053e+002;1.561993e-001
7.386339e+002;1.512303e-001
7.405624e+002;1.476004e-001
7.424910e+002;1.439438e-001
7.444196e+002;1.409584e-001
7.463481e+002;1.388174e-001
7.482766e+002;1.361398e-001
7.502052e+002;1.343544e-001
7.521337e+002;1.333672e-001
7.540623e+002;1.313243e-001
7.559908e+002;1.279659e-001
7.579194e+002;1.256903e-001
7.598479e+002;1.246214e-001
7.617765e+002;1.231711e-001
7.637050e+002;1.213940e-001
7.656335e+002;1.199172e-001
7.675621e+002;1.188501e-001
7.694907e+002;1.184075e-001
7.714192e+002;1.175870e-001
7.733478e+002;1.159855e-001
7.752763e+002;1.130595e-001
7.772048e+002;1.110259e-001
7.791334e+002;1.106411e-001
7.810620e+002;1.102436e-001
7.829905e+002;1.089602e-001
7.849191e+002;1.071309e-001
7.868476e+002;1.052411e-001
7.887761e+002;1.041670e-001
7.907047e+002;1.026386e-001
7.926332e+002;1.008623e-001
7.945618e+002;9.907249e-002
7.964903e+002;9.768687e-002
7.984189e+002;9.622116e-002
8.003474e+002;9.434693e-002
8.022759e+002;9.322721e-002
8.042045e+002;9.249702e-002
8.061331e+002;9.140516e-002
8.080616e+002;9.079244e-002
8.099902e+002;9.027672e-002
8.119187e+002;8.859788e-002
8.138472e+002;8.690850e-002
8.157758e+002;8.587698e-002
8.177043e+002;8.547278e-002
8.196329e+002;8.561153e-002
8.215615e+002;8.562206e-002
8.234900e+002;8.563748e-002
8.254185e+002;8.694724e-002
8.273471e+002;8.925532e-002
8.292756e+002;9.052667e-002
8.312042e+002;9.140958e-002
8.331328e+002;9.162520e-002
8.350613e+002;8.963064e-002
8.369898e+002;8.621468e-002
8.389184e+002;8.364494e-002
8.408469e+002;8.174245e-002
8.427755e+002;7.992313e-002
8.447040e+002;7.778347e-002
8.466326e+002;7.622381e-002
8.485611e+002;7.581808e-002
8.504897e+002;7.576304e-002
8.524182e+002;7.553840e-002
8.543467e+002;7.479843e-002
8.562753e+002;7.426270e-002
8.582039e+002;7.396516e-002
8.601324e+002;7.376465e-002
8.620610e+002;7.387348e-002
8.639895e+002;7.434562e-002
8.659180e+002;7.485796e-002
8.678466e+002;7.451941e-002
8.697751e+002;7.410831e-002
8.717037e+002;7.398980e-002
8.736323e+002;7.417033e-002
8.755608e+002;7.463689e-002
8.774893e+002;7.489812e-002
8.794179e+002;7.492630e-002
8.813464e+002;7.533755e-002
8.832750e+002;7.590070e-002
8.852036e+002;7.621635e-002
8.871321e+002;7.592954e-002
8.890606e+002;7.598370e-002
8.909892e+002;7.639772e-002
8.929177e+002;7.631568e-002
8.948463e+002;7.608715e-002
8.967748e+002;7.618441e-002
8.987034e+002;7.614440e-002
9.006319e+002;7.673366e-002
9.025605e+002;7.780225e-002
9.044890e+002;7.846522e-002
9.064175e+002;7.875524e-002
9.083461e+002;7.904344e-002
9.102747e+002;7.969362e-002
9.122032e+002;8.070152e-002
9.141318e+002;8.141033e-002
9.160603e+002;8.197705e-002
9.179888e+002;8.261051e-002
9.199174e+002;8.380497e-002
9.218459e+002;8.529596e-002
9.237745e+002;8.695303e-002
9.257031e+002;8.837941e-002
9.276316e+002;8.933037e-002
9.295601e+002;9.007869e-002
9.314887e+002;9.012427e-002
9.334172e+002;8.877394e-002
9.353458e+002;8.686763e-002
9.372744e+002;8.595863e-002
9.392029e+002;8.545689e-002
9.411314e+002;8.531245e-002
9.430600e+002;8.651960e-002
9.449885e+002;8.836962e-002
9.469171e+002;9.035357e-002
9.488456e+002;9.227794e-002
9.507742e+002;9.376726e-002
9.527027e+002;9.484352e-002
9.546313e+002;9.570619e-002
9.565598e+002;9.640849e-002
9.584883e+002;9.675804e-002
9.604169e+002;9.637163e-002
9.623455e+002;9.490994e-002
9.642740e+002;9.298021e-002
9.662026e+002;9.186593e-002
9.681311e+002;9.137920e-002
9.700596e+002;9.123348e-002
9.719882e+002;9.078477e-002
9.739167e+002;9.005468e-002
9.758453e+002;8.906975e-002
9.777739e+002;8.831314e-002
9.797024e+002;8.794155e-002
9.816309e+002;8.748817e-002
9.835595e+002;8.712700e-002
9.854880e+002;8.644390e-002
9.874166e+002;8.557166e-002
9.893452e+002;8.498444e-002
9.912737e+002;8.455329e-002
9.932022e+002;8.403752e-002
9.951307e+002;8.342859e-002
9.970593e+002;8.305041e-002
9.989879e+002;8.242252e-002
1.000916e+003;8.200806e-002
1.002845e+003;8.177197e-002
1.004773e+003;8.162368e-002
1.006702e+003;8.169958e-002
1.008631e+003;8.209712e-002
1.010559e+003;8.221058e-002
1.012488e+003;8.233123e-002
1.014416e+003;8.262999e-002
1.016345e+003;8.281547e-002
1.018273e+003;8.349448e-002
1.020202e+003;8.393974e-002
1.022130e+003;8.399510e-002
1.024059e+003;8.449730e-002
1.025988e+003;8.574641e-002
1.027916e+003;8.657201e-002
1.029845e+003;8.672289e-002
1.031773e+003;8.631240e-002
1.033702e+003;8.550202e-002
1.035630e+003;8.459669e-002
1.037559e+003;8.364844e-002
1.039487e+003;8.277866e-002
1.041416e+003;8.219032e-002
1.043344e+003;8.218511e-002
1.045273e+003;8.263411e-002
1.047202e+003;8.281896e-002
1.049130e+003;8.269023e-002
1.051059e+003;8.327962e-002
1.052987e+003;8.449230e-002
1.054916e+003;8.597616e-002
1.056844e+003;8.709618e-002
1.058773e+003;8.847998e-002
1.060701e+003;9.035565e-002
1.062630e+003;9.203517e-002
1.064558e+003;9.316266e-002
1.066487e+003;9.398660e-002
1.068416e+003;9.467764e-002
1.070344e+003;9.527012e-002
1.072273e+003;9.569383e-002
1.074201e+003;9.610031e-002
1.076130e+003;9.582003e-002
1.078058e+003;9.502803e-002
1.079987e+003;9.454374e-002
1.081915e+003;9.382068e-002
1.083844e+003;9.299590e-002
1.085773e+003;9.252822e-002
1.087701e+003;9.250268e-002
1.089630e+003;9.196555e-002
1.091558e+003;9.156288e-002
1.093487e+003;9.207211e-002
1.095415e+003;9.273168e-002
1.097344e+003;9.341801e-002
1.099272e+003;9.473310e-002
1.101201e+003;9.685460e-002
1.103129e+003;9.864764e-002
1.105058e+003;1.003626e-001
1.106987e+003;1.019446e-001
1.108915e+003;1.034297e-001
1.110844e+003;1.041497e-001
1.112772e+003;1.042303e-001
1.114701e+003;1.048990e-001
1.116629e+003;1.056685e-001
1.118558e+003;1.051248e-001
1.120486e+003;1.039451e-001
1.122415e+003;1.026246e-001
1.124344e+003;1.002711e-001
1.126272e+003;9.689142e-002
1.128201e+003;9.298280e-002
1.130129e+003;8.931954e-002
1.132058e+003;8.732357e-002
1.133986e+003;8.635844e-002
1.135915e+003;8.565031e-002
1.137843e+003;8.620539e-002
1.139772e+003;8.734054e-002
1.141700e+003;8.829312e-002
1.143629e+003;8.958311e-002
1.145557e+003;9.097458e-002
1.147486e+003;9.276495e-002
1.149415e+003;9.520593e-002
1.151343e+003;9.778709e-002
1.153272e+003;1.012037e-001
1.155200e+003;1.054693e-001
1.157129e+003;1.100404e-001
1.159057e+003;1.149362e-001
1.160986e+003;1.206343e-001
1.162914e+003;1.269855e-001
1.164843e+003;1.331910e-001
1.166771e+003;1.382808e-001
1.168700e+003;1.414485e-001
1.170629e+003;1.412205e-001
1.172557e+003;1.377669e-001
1.174486e+003;1.328657e-001
1.176414e+003;1.275694e-001
1.178343e+003;1.229624e-001
1.180271e+003;1.201628e-001
1.182200e+003;1.186237e-001
1.184128e+003;1.188755e-001
1.186057e+003;1.211399e-001
1.187986e+003;1.246752e-001
1.189914e+003;1.287828e-001
1.191843e+003;1.336468e-001
1.193771e+003;1.397057e-001
1.195700e+003;1.459272e-001
1.197628e+003;1.510485e-001
1.199557e+003;1.528892e-001
1.201485e+003;1.505589e-001
1.203414e+003;1.461645e-001
1.205343e+003;1.422565e-001
1.207271e+003;1.398522e-001
1.209200e+003;1.384285e-001
1.211128e+003;1.372966e-001
1.213057e+003;1.362539e-001
1.214985e+003;1.346951e-001
1.216914e+003;1.321172e-001
1.218842e+003;1.287614e-001
1.220771e+003;1.264981e-001
1.222699e+003;1.262311e-001
1.224628e+003;1.280099e-001
1.226557e+003;1.316422e-001
1.228485e+003;1.362904e-001
1.230414e+003;1.412161e-001
1.232342e+003;1.459451e-001
1.234271e+003;1.500192e-001
1.236199e+003;1.527287e-001
1.238128e+003;1.541893e-001
1.240056e+003;1.544685e-001
1.241985e+003;1.542705e-001
1.243913e+003;1.544110e-001
1.245842e+003;1.551387e-001
1.247771e+003;1.563882e-001
1.249699e+003;1.587009e-001
1.251628e+003;1.618268e-001
1.253556e+003;1.655161e-001
1.255485e+003;1.691321e-001
1.257413e+003;1.717824e-001
1.259342e+003;1.738526e-001
1.261270e+003;1.745133e-001
1.263199e+003;1.729594e-001
1.265127e+003;1.687144e-001
1.267056e+003;1.620886e-001
1.268985e+003;1.553933e-001
1.270913e+003;1.503146e-001
1.272842e+003;1.475170e-001
1.274770e+003;1.466242e-001
1.276699e+003;1.465984e-001
1.278627e+003;1.465341e-001
1.280556e+003;1.457891e-001
1.282484e+003;1.445138e-001
1.284413e+003;1.429403e-001
1.286342e+003;1.413766e-001
1.288270e+003;1.406073e-001
1.290199e+003;1.402664e-001
1.292127e+003;1.395719e-001
1.294056e+003;1.385229e-001
1.295984e+003;1.378433e-001
1.297913e+003;1.378166e-001
1.299841e+003;1.373880e-001
1.301770e+003;1.366093e-001
1.303698e+003;1.359352e-001
1.305627e+003;1.351749e-001
1.307556e+003;1.339380e-001
1.309484e+003;1.327242e-001
1.311413e+003;1.320349e-001
1.313341e+003;1.311399e-001
1.315270e+003;1.299258e-001
1.317198e+003;1.286919e-001
1.319127e+003;1.280246e-001
1.321055e+003;1.276619e-001
1.322984e+003;1.273453e-001
1.324912e+003;1.273025e-001
1.326841e+003;1.276017e-001
1.328770e+003;1.281966e-001
1.330698e+003;1.289018e-001
1.332627e+003;1.294414e-001
1.334555e+003;1.298422e-001
1.336484e+003;1.297124e-001
1.338412e+003;1.297350e-001
1.340341e+003;1.307659e-001
1.342269e+003;1.323548e-001
1.344198e+003;1.336063e-001
1.346126e+003;1.346385e-001
1.348055e+003;1.359864e-001
1.349984e+003;1.377378e-001
1.351912e+003;1.391070e-001
1.353841e+003;1.407727e-001
1.355769e+003;1.432184e-001
1.357698e+003;1.457509e-001
1.359626e+003;1.475086e-001
1.361555e+003;1.488678e-001
1.363483e+003;1.509172e-001
1.365412e+003;1.535864e-001
1.367341e+003;1.559576e-001
1.369269e+003;1.581057e-001
1.371198e+003;1.594653e-001
1.373126e+003;1.589302e-001
1.375055e+003;1.573926e-001
1.376983e+003;1.553523e-001
1.378912e+003;1.520763e-001
1.380840e+003;1.479283e-001
1.382769e+003;1.436117e-001
1.384698e+003;1.396203e-001
1.386626e+003;1.357446e-001
1.388555e+003;1.327825e-001
1.390483e+003;1.308606e-001
1.392412e+003;1.291332e-001
1.394340e+003;1.274269e-001
1.396269e+003;1.271678e-001
1.398197e+003;1.280515e-001
1.400126e+003;1.301780e-001
1.402054e+003;1.333293e-001
1.403983e+003;1.372686e-001
1.405911e+003;1.429687e-001
1.407840e+003;1.497882e-001
1.409769e+003;1.575728e-001
1.411697e+003;1.659358e-001
1.413626e+003;1.730727e-001
1.415554e+003;1.770617e-001
1.417483e+003;1.763831e-001
1.419411e+003;1.733931e-001
1.421340e+003;1.708581e-001
1.423268e+003;1.672501e-001
1.425197e+003;1.646168e-001
1.427125e+003;1.641226e-001
1.429054e+003;1.652492e-001
1.430983e+003;1.678888e-001
1.432911e+003;1.702712e-001
1.434840e+003;1.700498e-001
1.436768e+003;1.690184e-001
1.438697e+003;1.703009e-001
1.440625e+003;1.704601e-001
1.442554e+003;1.694977e-001
1.444482e+003;1.687666e-001
1.446411e+003;1.688857e-001
1.448340e+003;1.705070e-001
1.450268e+003;1.733264e-001
1.452197e+003;1.757831e-001
1.454125e+003;1.769768e-001
1.456054e+003;1.770305e-001
1.457982e+003;1.823883e-001
1.459911e+003;1.911325e-001
1.461839e+003;1.959736e-001
1.463768e+003;1.941310e-001
1.465697e+003;1.874915e-001
1.467625e+003;1.797082e-001
1.469554e+003;1.725961e-001
1.471482e+003;1.675188e-001
1.473411e+003;1.673030e-001
1.475339e+003;1.697707e-001
1.477268e+003;1.700137e-001
1.479196e+003;1.670648e-001
1.481125e+003;1.609373e-001
1.483053e+003;1.536716e-001
1.484982e+003;1.466074e-001
1.486911e+003;1.412102e-001
1.488839e+003;1.390318e-001
1.490768e+003;1.404324e-001
1.492696e+003;1.440822e-001
1.494625e+003;1.470976e-001
1.496553e+003;1.506744e-001
1.498482e+003;1.570716e-001
1.500410e+003;1.644863e-001
1.502339e+003;1.711502e-001
1.504267e+003;1.751901e-001
1.506196e+003;1.795785e-001
1.508125e+003;1.897429e-001
1.510053e+003;2.014236e-001
1.511982e+003;2.110256e-001
1.513910e+003;2.200961e-001
1.515839e+003;2.286374e-001
1.517767e+003;2.379430e-001
1.519696e+003;2.469189e-001
1.521624e+003;2.568556e-001
1.523553e+003;2.696538e-001
1.525481e+003;2.815976e-001
1.527410e+003;2.932969e-001
1.529339e+003;3.043256e-001
1.531267e+003;3.133133e-001
1.533196e+003;3.201734e-001
1.535124e+003;3.266972e-001
1.537053e+003;3.284923e-001
1.538981e+003;3.240345e-001
1.540910e+003;3.198023e-001
1.542838e+003;3.157405e-001
1.544767e+003;3.082143e-001
1.546695e+003;2.977843e-001
1.548624e+003;2.848609e-001
1.550553e+003;2.712620e-001
1.552481e+003;2.577633e-001
1.554410e+003;2.443293e-001
1.556338e+003;2.308550e-001
1.558267e+003;2.159061e-001
1.560195e+003;2.069257e-001
1.562124e+003;2.017680e-001
1.564052e+003;1.932932e-001
1.565981e+003;1.841768e-001
1.567910e+003;1.749963e-001
1.569838e+003;1.660164e-001
1.571767e+003;1.596256e-001
1.573695e+003;1.524238e-001
1.575624e+003;1.440105e-001
1.577552e+003;1.400976e-001
1.579481e+003;1.381112e-001
1.581409e+003;1.351304e-001
1.583338e+003;1.326950e-001
1.585266e+003;1.313975e-001
1.587195e+003;1.312917e-001
1.589124e+003;1.315757e-001
1.591052e+003;1.325481e-001
1.592981e+003;1.343372e-001
1.594909e+003;1.371887e-001
1.596838e+003;1.411585e-001
1.598766e+003;1.463615e-001
1.600695e+003;1.524614e-001
1.602623e+003;1.596596e-001
1.604552e+003;1.681798e-001
1.606480e+003;1.773305e-001
1.608409e+003;1.868936e-001
1.610338e+003;1.976931e-001
1.612266e+003;2.098156e-001
1.614195e+003;2.220863e-001
1.616123e+003;2.350578e-001
1.618052e+003;2.534567e-001
1.619980e+003;2.735133e-001
1.621909e+003;2.918645e-001
1.623837e+003;3.110223e-001
1.625766e+003;3.306963e-001
1.627694e+003;3.497412e-001
1.629623e+003;3.692961e-001
1.631552e+003;3.878899e-001
1.633480e+003;4.006733e-001
1.635409e+003;4.063746e-001
1.637337e+003;4.066747e-001
1.639266e+003;3.972424e-001
1.641194e+003;3.786032e-001
1.643123e+003;3.550824e-001
1.645051e+003;3.294429e-001
1.646980e+003;3.059762e-001
1.648909e+003;2.861578e-001
1.650837e+003;2.645651e-001
1.652766e+003;2.437772e-001
1.654694e+003;2.336293e-001
1.656623e+003;2.258799e-001
1.658551e+003;2.149693e-001
1.660480e+003;2.035272e-001
1.662408e+003;1.921541e-001
1.664337e+003;1.821077e-001
1.666266e+003;1.717981e-001
1.668194e+003;1.600464e-001
1.670123e+003;1.500369e-001
1.672051e+003;1.423772e-001
1.673980e+003;1.335047e-001
1.675908e+003;1.250026e-001
1.677837e+003;1.181377e-001
1.679765e+003;1.097724e-001
1.681694e+003;9.954215e-002
1.683622e+003;8.816329e-002
1.685551e+003;8.241539e-002
1.687479e+003;8.002474e-002
1.689408e+003;7.592410e-002
1.691337e+003;7.237010e-002
1.693265e+003;6.810117e-002
1.695194e+003;6.256798e-002
1.697122e+003;6.102208e-002
1.699051e+003;5.882185e-002
1.700979e+003;5.785478e-002
1.702908e+003;6.051129e-002
1.704836e+003;6.034842e-002
1.706765e+003;6.034111e-002
1.708693e+003;6.065643e-002
1.710622e+003;6.055422e-002
1.712551e+003;5.973002e-002
1.714479e+003;5.799108e-002
1.716408e+003;5.526664e-002
1.718336e+003;5.555077e-002
1.720265e+003;5.829545e-002
1.722193e+003;5.918060e-002
1.724122e+003;5.914161e-002
1.726050e+003;5.908140e-002
1.727979e+003;5.836578e-002
1.729908e+003;5.739817e-002
1.731836e+003;5.516403e-002
1.733765e+003;5.267378e-002
1.735693e+003;5.447632e-002
1.737622e+003;5.569674e-002
1.739550e+003;5.455972e-002
1.741479e+003;5.462393e-002
1.743407e+003;5.424057e-002
1.745336e+003;5.323374e-002
1.747265e+003;5.178564e-002
1.749193e+003;5.015879e-002
1.751122e+003;4.899887e-002
1.753050e+003;4.934752e-002
1.754979e+003;4.896238e-002
1.756907e+003;4.788648e-002
1.758836e+003;4.735273e-002
1.760764e+003;4.606965e-002
1.762693e+003;4.554188e-002
1.764621e+003;4.554861e-002
1.766550e+003;4.407170e-002
1.768479e+003;4.284226e-002
1.770407e+003;4.161042e-002
1.772336e+003;4.024848e-002
1.774264e+003;4.120864e-002
1.776193e+003;4.216724e-002
1.778121e+003;4.178768e-002
1.780050e+003;4.119400e-002
1.781978e+003;4.112952e-002
1.783907e+003;4.052822e-002
1.785835e+003;3.990658e-002
1.787764e+003;3.985025e-002
1.789693e+003;3.911681e-002
1.791621e+003;3.783864e-002
1.793550e+003;3.783759e-002
1.795478e+003;3.852177e-002
1.797407e+003;3.850421e-002
1.799335e+003;3.800702e-002
1.801264e+003;3.756991e-002
1.803192e+003;3.781464e-002
1.805121e+003;3.795578e-002
1.807049e+003;3.766681e-002
1.808978e+003;3.717918e-002
1.810907e+003;3.689397e-002
1.812835e+003;3.698221e-002
1.814764e+003;3.727282e-002
1.816692e+003;3.727405e-002
1.818621e+003;3.726726e-002
1.820549e+003;3.680120e-002
1.822478e+003;3.622543e-002
1.824406e+003;3.560617e-002
1.826335e+003;3.565491e-002
1.828264e+003;3.529350e-002
1.830192e+003;3.505281e-002
1.832121e+003;3.571897e-002
1.834049e+003;3.606212e-002
1.835978e+003;3.586181e-002
1.837906e+003;3.567811e-002
1.839835e+003;3.553421e-002
1.841763e+003;3.476077e-002
1.843692e+003;3.357881e-002
1.845620e+003;3.397613e-002
1.847549e+003;3.459328e-002
1.849478e+003;3.474085e-002
1.851406e+003;3.480787e-002
1.853335e+003;3.470288e-002
1.855263e+003;3.472398e-002
1.857192e+003;3.469631e-002
1.859120e+003;3.448985e-002
1.861049e+003;3.440785e-002
1.862977e+003;3.439993e-002
1.864906e+003;3.425430e-002
1.866834e+003;3.383201e-002
1.868763e+003;3.352526e-002
1.870692e+003;3.402003e-002
1.872620e+003;3.465683e-002
1.874549e+003;3.470769e-002
1.876477e+003;3.444465e-002
1.878406e+003;3.440272e-002
1.880334e+003;3.455737e-002
1.882263e+003;3.434921e-002
1.884191e+003;3.423680e-002
1.886120e+003;3.426879e-002
1.888048e+003;3.394274e-002
1.889977e+003;3.401838e-002
1.891906e+003;3.458399e-002
1.893834e+003;3.453803e-002
1.895763e+003;3.466745e-002
1.897691e+003;3.481279e-002
1.899620e+003;3.461926e-002
1.901548e+003;3.447880e-002
1.903477e+003;3.429220e-002
1.905405e+003;3.419490e-002
1.907334e+003;3.422074e-002
1.909262e+003;3.391856e-002
1.911191e+003;3.381557e-002
1.913120e+003;3.387532e-002
1.915048e+003;3.374777e-002
1.916977e+003;3.329739e-002
1.918905e+003;3.327357e-002
1.920834e+003;3.353972e-002
1.922762e+003;3.347301e-002
1.924691e+003;3.354767e-002
1.926619e+003;3.366391e-002
1.928548e+003;3.385458e-002
1.930477e+003;3.378441e-002
1.932405e+003;3.352236e-002
1.934334e+003;3.345025e-002
1.936262e+003;3.358744e-002
1.938191e+003;3.380765e-002
1.940119e+003;3.357033e-002
1.942048e+003;3.320940e-002
1.943976e+003;3.332226e-002
1.945905e+003;3.351223e-002
1.947833e+003;3.352942e-002
1.949762e+003;3.370484e-002
1.951691e+003;3.393601e-002
1.953619e+003;3.396388e-002
1.955548e+003;3.409471e-002
1.957476e+003;3.411177e-002
1.959405e+003;3.398491e-002
1.961333e+003;3.386790e-002
1.963262e+003;3.396004e-002
1.965190e+003;3.392153e-002
1.967119e+003;3.377696e-002
1.969047e+003;3.394263e-002
1.970976e+003;3.404655e-002
1.972905e+003;3.405601e-002
1.974833e+003;3.413744e-002
1.976762e+003;3.420425e-002
1.978690e+003;3.427811e-002
1.980619e+003;3.439429e-002
1.982547e+003;3.459834e-002
1.984476e+003;3.461611e-002
1.986404e+003;3.427926e-002
1.988333e+003;3.408020e-002
1.990261e+003;3.397391e-002
1.992190e+003;3.406722e-002
1.994119e+003;3.432376e-002
1.996047e+003;3.437712e-002
1.997976e+003;3.425839e-002
1.999904e+003;3.428259e-002
2.001833e+003;3.433925e-002
2.003761e+003;3.439885e-002
2.005690e+003;3.458951e-002
2.007618e+003;3.462220e-002
2.009547e+003;3.464079e-002
2.011476e+003;3.464162e-002
2.013404e+003;3.468637e-002
2.015333e+003;3.495081e-002
2.017261e+003;3.490707e-002
2.019190e+003;3.477811e-002
2.021118e+003;3.492326e-002
2.023047e+003;3.515206e-002
2.024975e+003;3.516485e-002
2.026904e+003;3.547625e-002
2.028833e+003;3.573815e-002
2.030761e+003;3.565541e-002
2.032690e+003;3.562635e-002
2.034618e+003;3.576502e-002
2.036547e+003;3.592119e-002
2.038475e+003;3.602562e-002
2.040404e+003;3.589100e-002
2.042332e+003;3.578117e-002
2.044261e+003;3.586325e-002
2.046189e+003;3.606702e-002
2.048118e+003;3.628392e-002
2.050047e+003;3.656613e-002
2.051975e+003;3.662759e-002
2.053904e+003;3.652436e-002
2.055832e+003;3.655589e-002
2.057761e+003;3.654872e-002
2.059689e+003;3.666667e-002
2.061618e+003;3.664976e-002
2.063546e+003;3.650519e-002
2.065475e+003;3.653304e-002
2.067404e+003;3.664475e-002
2.069332e+003;3.682945e-002
2.071260e+003;3.698264e-002
2.073189e+003;3.681913e-002
2.075118e+003;3.685812e-002
2.077046e+003;3.701851e-002
2.078975e+003;3.695743e-002
2.080903e+003;3.666238e-002
2.082832e+003;3.638151e-002
2.084760e+003;3.612063e-002
2.086689e+003;3.614940e-002
2.088617e+003;3.627445e-002
2.090546e+003;3.621811e-002
2.092475e+003;3.618051e-002
2.094403e+003;3.609752e-002
2.096332e+003;3.607739e-002
2.098260e+003;3.598123e-002
2.100189e+003;3.571994e-002
2.102117e+003;3.584911e-002
2.104046e+003;3.606155e-002
2.105974e+003;3.606291e-002
2.107903e+003;3.618548e-002
2.109832e+003;3.632106e-002
2.111760e+003;3.625874e-002
2.113688e+003;3.611012e-002
2.115617e+003;3.612758e-002
2.117546e+003;3.608084e-002
2.119474e+003;3.602598e-002
2.121403e+003;3.622111e-002
2.123331e+003;3.622305e-002
2.125260e+003;3.610072e-002
2.127188e+003;3.620706e-002
2.129117e+003;3.639873e-002
2.131045e+003;3.646021e-002
2.132974e+003;3.632038e-002
2.134903e+003;3.625420e-002
2.136831e+003;3.615005e-002
2.138760e+003;3.621116e-002
2.140688e+003;3.618675e-002
2.142617e+003;3.602767e-002
2.144545e+003;3.606147e-002
2.146474e+003;3.620090e-002
2.148402e+003;3.640259e-002
2.150331e+003;3.653247e-002
2.152260e+003;3.651459e-002
2.154188e+003;3.658278e-002
2.156117e+003;3.642518e-002
2.158045e+003;3.622712e-002
2.159974e+003;3.637024e-002
2.161902e+003;3.655463e-002
2.163831e+003;3.674156e-002
2.165759e+003;3.698156e-002
2.167688e+003;3.710216e-002
2.169616e+003;3.698102e-002
2.171545e+003;3.696169e-002
2.173474e+003;3.710309e-002
2.175402e+003;3.726408e-002
2.177331e+003;3.752681e-002
2.179259e+003;3.746522e-002
2.181188e+003;3.717900e-002
2.183116e+003;3.722607e-002
2.185045e+003;3.742260e-002
2.186973e+003;3.747262e-002
2.188902e+003;3.744489e-002
2.190831e+003;3.742852e-002
2.192759e+003;3.746082e-002
2.194688e+003;3.742513e-002
2.196616e+003;3.749538e-002
2.198545e+003;3.779616e-002
2.200473e+003;3.768915e-002
2.202402e+003;3.716651e-002
2.204330e+003;3.716571e-002
2.206259e+003;3.721073e-002
2.208188e+003;3.696457e-002
2.210116e+003;3.681278e-002
2.212044e+003;3.714070e-002
2.213973e+003;3.738039e-002
2.215902e+003;3.701736e-002
2.217830e+003;3.668607e-002
2.219759e+003;3.664778e-002
2.221687e+003;3.658495e-002
2.223616e+003;3.648540e-002
2.225544e+003;3.623882e-002
2.227473e+003;3.613079e-002
2.229401e+003;3.629649e-002
2.231330e+003;3.632981e-002
2.233259e+003;3.605391e-002
2.235187e+003;3.587848e-002
2.237116e+003;3.629851e-002
2.239044e+003;3.663156e-002
2.240973e+003;3.626537e-002
2.242901e+003;3.604038e-002
2.244830e+003;3.616320e-002
2.246758e+003;3.630341e-002
2.248687e+003;3.639121e-002
2.250615e+003;3.635287e-002
2.252544e+003;3.637031e-002
2.254473e+003;3.648601e-002
2.256401e+003;3.673168e-002
2.258330e+003;3.678963e-002
2.260258e+003;3.660582e-002
2.262187e+003;3.664627e-002
2.264115e+003;3.664190e-002
2.266044e+003;3.667280e-002
2.267972e+003;3.682768e-002
2.269901e+003;3.688589e-002
2.271830e+003;3.667619e-002
2.273758e+003;3.669173e-002
2.275687e+003;3.691338e-002
2.277615e+003;3.696515e-002
2.279544e+003;3.723044e-002
2.281472e+003;3.734810e-002
2.283401e+003;3.704752e-002
2.285329e+003;3.696327e-002
2.287258e+003;3.709793e-002
2.289187e+003;3.745843e-002
2.291115e+003;3.752804e-002
2.293043e+003;3.718160e-002
2.294972e+003;3.736439e-002
2.296901e+003;3.768839e-002
2.298829e+003;3.755235e-002
2.300758e+003;3.754444e-002
2.302686e+003;3.791500e-002
2.304615e+003;3.802807e-002
2.306543e+003;3.803013e-002
2.308472e+003;3.807845e-002
2.310400e+003;3.805918e-002
2.312329e+003;3.823572e-002
2.314258e+003;3.846112e-002
2.316186e+003;3.850070e-002
2.318115e+003;3.829662e-002
2.320043e+003;3.822381e-002
2.321972e+003;3.837772e-002
2.323900e+003;3.820344e-002
2.325829e+003;3.824103e-002
2.327757e+003;3.833063e-002
2.329686e+003;3.796464e-002
2.331615e+003;3.786543e-002
2.333543e+003;3.785219e-002
2.335472e+003;3.774618e-002
2.337400e+003;3.759686e-002
2.339329e+003;3.762612e-002
2.341257e+003;3.759715e-002
2.343186e+003;3.753378e-002
2.345114e+003;3.754281e-002
2.347043e+003;3.762970e-002
2.348971e+003;3.766295e-002
2.350900e+003;3.760437e-002
2.352829e+003;3.726466e-002
2.354757e+003;3.704236e-002
2.356686e+003;3.744745e-002
2.358614e+003;3.774805e-002
2.360543e+003;3.744644e-002
2.362471e+003;3.729134e-002
2.364400e+003;3.736775e-002
2.366328e+003;3.740877e-002
2.368257e+003;3.751731e-002
2.370186e+003;3.779602e-002
2.372114e+003;3.793770e-002
2.374042e+003;3.817048e-002
2.375971e+003;3.832010e-002
2.377900e+003;3.823702e-002
2.379828e+003;3.837132e-002
2.381757e+003;3.850207e-002
2.383685e+003;3.837776e-002
2.385614e+003;3.829850e-002
2.387542e+003;3.838833e-002
2.389471e+003;3.842536e-002
2.391399e+003;3.850435e-002
2.393328e+003;3.874265e-002
2.395257e+003;3.890610e-002
2.397185e+003;3.850960e-002
2.399114e+003;3.828750e-002
2.401042e+003;3.878823e-002
2.402971e+003;3.876232e-002
2.404899e+003;3.851608e-002
2.406828e+003;3.860697e-002
2.408756e+003;3.872842e-002
2.410685e+003;3.865869e-002
2.412614e+003;3.878294e-002
2.414542e+003;3.903154e-002
2.416471e+003;3.905659e-002
2.418399e+003;3.903447e-002
2.420328e+003;3.909009e-002
2.422256e+003;3.900812e-002
2.424185e+003;3.901447e-002
2.426113e+003;3.922320e-002
2.428042e+003;3.928456e-002
2.429970e+003;3.935261e-002
2.431899e+003;3.953327e-002
2.433828e+003;3.965668e-002
2.435756e+003;3.964873e-002
2.437685e+003;3.989431e-002
2.439613e+003;4.003700e-002
2.441542e+003;4.008864e-002
2.443470e+003;4.017720e-002
2.445399e+003;4.030425e-002
2.447327e+003;4.062288e-002
2.449256e+003;4.070257e-002
2.451185e+003;4.076025e-002
2.453113e+003;4.078951e-002
2.455042e+003;4.079039e-002
2.456970e+003;4.104560e-002
2.458899e+003;4.113691e-002
2.460827e+003;4.072757e-002
2.462756e+003;4.035380e-002
2.464684e+003;4.074667e-002
2.466613e+003;4.140680e-002
2.468542e+003;4.168861e-002
2.470470e+003;4.179600e-002
2.472398e+003;4.172818e-002
2.474327e+003;4.166756e-002
2.476256e+003;4.165476e-002
2.478184e+003;4.154836e-002
2.480113e+003;4.157742e-002
2.482041e+003;4.186703e-002
2.483970e+003;4.193870e-002
2.485898e+003;4.195037e-002
2.487827e+003;4.198337e-002
2.489755e+003;4.185955e-002
2.491684e+003;4.178979e-002
2.493613e+003;4.198238e-002
2.495541e+003;4.203333e-002
2.497470e+003;4.193096e-002
2.499398e+003;4.208334e-002
2.501327e+003;4.215421e-002
2.503255e+003;4.209302e-002
2.505184e+003;4.215727e-002
2.507112e+003;4.223552e-002
2.509041e+003;4.222172e-002
2.510969e+003;4.221533e-002
2.512898e+003;4.242367e-002
2.514827e+003;4.298007e-002
2.516755e+003;4.339272e-002
2.518684e+003;4.334567e-002
2.520612e+003;4.332184e-002
2.522541e+003;4.367662e-002
2.524469e+003;4.387603e-002
2.526398e+003;4.391994e-002
2.528326e+003;4.418790e-002
2.530255e+003;4.477926e-002
2.532184e+003;4.504510e-002
2.534112e+003;4.492045e-002
2.536041e+003;4.491156e-002
2.537969e+003;4.511914e-002
2.539898e+003;4.526356e-002
2.541826e+003;4.542650e-002
2.543755e+003;4.583809e-002
2.545683e+003;4.625571e-002
2.547612e+003;4.638318e-002
2.549541e+003;4.640283e-002
2.551469e+003;4.621966e-002
2.553397e+003;4.593730e-002
2.555326e+003;4.593166e-002
2.557255e+003;4.616597e-002
2.559183e+003;4.633370e-002
2.561112e+003;4.641725e-002
2.563040e+003;4.654882e-002
2.564969e+003;4.669114e-002
2.566897e+003;4.654171e-002
2.568826e+003;4.626636e-002
2.570754e+003;4.662518e-002
2.572683e+003;4.687584e-002
2.574612e+003;4.694557e-002
2.576540e+003;4.713673e-002
2.578469e+003;4.745436e-002
2.580397e+003;4.787479e-002
2.582326e+003;4.815298e-002
2.584254e+003;4.817563e-002
2.586183e+003;4.814498e-002
2.588111e+003;4.838130e-002
2.590040e+003;4.833574e-002
2.591969e+003;4.823954e-002
2.593897e+003;4.835507e-002
2.595826e+003;4.830941e-002
2.597754e+003;4.850687e-002
2.599683e+003;4.862397e-002
2.601611e+003;4.856649e-002
2.603540e+003;4.858002e-002
2.605468e+003;4.866796e-002
2.607397e+003;4.897043e-002
2.609325e+003;4.916389e-002
2.611254e+003;4.928802e-002
2.613183e+003;4.955244e-002
2.615111e+003;4.973275e-002
2.617040e+003;4.974498e-002
2.618968e+003;4.967628e-002
2.620897e+003;4.955791e-002
2.622825e+003;4.956619e-002
2.624754e+003;4.999521e-002
2.626682e+003;5.003228e-002
2.628611e+003;4.977600e-002
2.630540e+003;5.014477e-002
2.632468e+003;5.047755e-002
2.634396e+003;5.057675e-002
2.636325e+003;5.039028e-002
2.638254e+003;5.042359e-002
2.640182e+003;5.067057e-002
2.642111e+003;5.072818e-002
2.644039e+003;5.075212e-002
2.645968e+003;5.076798e-002
2.647896e+003;5.077525e-002
2.649825e+003;5.079283e-002
2.651753e+003;5.079171e-002
2.653682e+003;5.079878e-002
2.655611e+003;5.089325e-002
2.657539e+003;5.105858e-002
2.659468e+003;5.132646e-002
2.661396e+003;5.166833e-002
2.663325e+003;5.189720e-002
2.665253e+003;5.191632e-002
2.667182e+003;5.221033e-002
2.669110e+003;5.258768e-002
2.671039e+003;5.254994e-002
2.672968e+003;5.267554e-002
2.674896e+003;5.279772e-002
2.676825e+003;5.305632e-002
2.678753e+003;5.346295e-002
2.680682e+003;5.363897e-002
2.682610e+003;5.371553e-002
2.684539e+003;5.423051e-002
2.686467e+003;5.456720e-002
2.688396e+003;5.443745e-002
2.690324e+003;5.465910e-002
2.692253e+003;5.510143e-002
2.694182e+003;5.540924e-002
2.696110e+003;5.579288e-002
2.698039e+003;5.624331e-002
2.699967e+003;5.663278e-002
2.701896e+003;5.682266e-002
2.703824e+003;5.672595e-002
2.705753e+003;5.690470e-002
2.707681e+003;5.748266e-002
2.709610e+003;5.782067e-002
2.711539e+003;5.806882e-002
2.713467e+003;5.838060e-002
2.715396e+003;5.870015e-002
2.717324e+003;5.902905e-002
2.719253e+003;5.971880e-002
2.721181e+003;6.027795e-002
2.723110e+003;6.048768e-002
2.725038e+003;6.075874e-002
2.726967e+003;6.102727e-002
2.728896e+003;6.141075e-002
2.730824e+003;6.183014e-002
2.732752e+003;6.197010e-002
2.734681e+003;6.238307e-002
2.736610e+003;6.312810e-002
2.738538e+003;6.345657e-002
2.740467e+003;6.346815e-002
2.742395e+003;6.372631e-002
2.744324e+003;6.417509e-002
2.746252e+003;6.430540e-002
2.748181e+003;6.429234e-002
2.750109e+003;6.427731e-002
2.752038e+003;6.415862e-002
2.753967e+003;6.420079e-002
2.755895e+003;6.459577e-002
2.757824e+003;6.520718e-002
2.759752e+003;6.550432e-002
2.761681e+003;6.529116e-002
2.763609e+003;6.507964e-002
2.765538e+003;6.526786e-002
2.767466e+003;6.570664e-002
2.769395e+003;6.598993e-002
2.771323e+003;6.628978e-002
2.773252e+003;6.676966e-002
2.775181e+003;6.725997e-002
2.777109e+003;6.743297e-002
2.779038e+003;6.788398e-002
2.780966e+003;6.847090e-002
2.782895e+003;6.867534e-002
2.784823e+003;6.910514e-002
2.786752e+003;6.942732e-002
2.788680e+003;6.985274e-002
2.790609e+003;7.051539e-002
2.792538e+003;7.096911e-002
2.794466e+003;7.154584e-002
2.796395e+003;7.217071e-002
2.798323e+003;7.257889e-002
2.800252e+003;7.298859e-002
2.802180e+003;7.329880e-002
2.804109e+003;7.390381e-002
2.806037e+003;7.467809e-002
2.807966e+003;7.541808e-002
2.809895e+003;7.617734e-002
2.811823e+003;7.694093e-002
2.813751e+003;7.755358e-002
2.815680e+003;7.816590e-002
2.817609e+003;7.873483e-002
2.819537e+003;7.949450e-002
2.821466e+003;8.035780e-002
2.823394e+003;8.124403e-002
2.825323e+003;8.205033e-002
2.827251e+003;8.273982e-002
2.829180e+003;8.377191e-002
2.831108e+003;8.501858e-002
2.833037e+003;8.636919e-002
2.834966e+003;8.805463e-002
2.836894e+003;9.022737e-002
2.838823e+003;9.286543e-002
2.840751e+003;9.624688e-002
2.842680e+003;1.002606e-001
2.844608e+003;1.051816e-001
2.846537e+003;1.105848e-001
2.848465e+003;1.155327e-001
2.850394e+003;1.204252e-001
2.852323e+003;1.253797e-001
2.854251e+003;1.295695e-001
2.856180e+003;1.331063e-001
2.858108e+003;1.358997e-001
2.860037e+003;1.377853e-001
2.861965e+003;1.385605e-001
2.863894e+003;1.381265e-001
2.865822e+003;1.368413e-001
2.867751e+003;1.352073e-001
2.869679e+003;1.330146e-001
2.871608e+003;1.299400e-001
2.873536e+003;1.268552e-001
2.875465e+003;1.237909e-001
2.877394e+003;1.203385e-001
2.879322e+003;1.174255e-001
2.881251e+003;1.153615e-001
2.883179e+003;1.137326e-001
2.885108e+003;1.127674e-001
2.887036e+003;1.126424e-001
2.888965e+003;1.134825e-001
2.890893e+003;1.152733e-001
2.892822e+003;1.174411e-001
2.894750e+003;1.199779e-001
2.896679e+003;1.225448e-001
2.898608e+003;1.248279e-001
2.900536e+003;1.263901e-001
2.902465e+003;1.274366e-001
2.904393e+003;1.289113e-001
2.906322e+003;1.304248e-001
2.908250e+003;1.321099e-001
2.910179e+003;1.344047e-001
2.912107e+003;1.367209e-001
2.914036e+003;1.391878e-001
2.915965e+003;1.421409e-001
2.917893e+003;1.455399e-001
2.919822e+003;1.489760e-001
2.921750e+003;1.528116e-001
2.923679e+003;1.565426e-001
2.925607e+003;1.601929e-001
2.927536e+003;1.638067e-001
2.929464e+003;1.669417e-001
2.931393e+003;1.692757e-001
2.933322e+003;1.706682e-001
2.935250e+003;1.710965e-001
2.937178e+003;1.701848e-001
2.939107e+003;1.678962e-001
2.941036e+003;1.646036e-001
2.942964e+003;1.603948e-001
2.944893e+003;1.557764e-001
2.946821e+003;1.508150e-001
2.948750e+003;1.447240e-001
2.950678e+003;1.371818e-001
2.952607e+003;1.294948e-001
2.954535e+003;1.227256e-001
2.956464e+003;1.164357e-001
2.958393e+003;1.109854e-001
2.960321e+003;1.060926e-001
2.962250e+003;1.016942e-001
2.964178e+003;9.802375e-002
2.966107e+003;9.442303e-002
2.968035e+003;9.078664e-002
2.969964e+003;8.810959e-002
2.971892e+003;8.565491e-002
2.973821e+003;8.314907e-002
2.975750e+003;8.074370e-002
2.977678e+003;7.801688e-002
2.979607e+003;7.599964e-002
2.981535e+003;7.478376e-002
2.983464e+003;7.358877e-002
2.985392e+003;7.220992e-002
2.987321e+003;7.094734e-002
2.989249e+003;6.988952e-002
2.991178e+003;6.907978e-002
2.993106e+003;6.836690e-002
2.995035e+003;6.771266e-002
2.996964e+003;6.765222e-002
2.998892e+003;6.768401e-002
3.000821e+003;6.720880e-002
3.002749e+003;6.691799e-002
3.004678e+003;6.690585e-002
3.006606e+003;6.687972e-002
3.008535e+003;6.685974e-002
3.010463e+003;6.690898e-002
3.012392e+003;6.721008e-002
3.014321e+003;6.774601e-002
3.016249e+003;6.813524e-002
3.018177e+003;6.808124e-002
3.020106e+003;6.834414e-002
3.022035e+003;6.923830e-002
3.023963e+003;7.012325e-002
3.025892e+003;7.034865e-002
3.027820e+003;7.053855e-002
3.029749e+003;7.098140e-002
3.031677e+003;7.199915e-002
3.033606e+003;7.311667e-002
3.035534e+003;7.378091e-002
3.037463e+003;7.450974e-002
3.039392e+003;7.515985e-002
3.041320e+003;7.587884e-002
3.043249e+003;7.664614e-002
3.045177e+003;7.718392e-002
3.047106e+003;7.790912e-002
3.049034e+003;7.903518e-002
3.050963e+003;8.003518e-002
3.052891e+003;8.106856e-002
3.054820e+003;8.227625e-002
3.056749e+003;8.320235e-002
3.058677e+003;8.389620e-002
3.060606e+003;8.481954e-002
3.062534e+003;8.556864e-002
3.064463e+003;8.586915e-002
3.066391e+003;8.604551e-002
3.068320e+003;8.611811e-002
3.070248e+003;8.600807e-002
3.072177e+003;8.604648e-002
3.074105e+003;8.598646e-002
3.076034e+003;8.565661e-002
3.077963e+003;8.573536e-002
3.079891e+003;8.610195e-002
3.081820e+003;8.595265e-002
3.083748e+003;8.530612e-002
3.085677e+003;8.477556e-002
3.087605e+003;8.418462e-002
3.089534e+003;8.354541e-002
3.091462e+003;8.307894e-002
3.093391e+003;8.251254e-002
3.095320e+003;8.170965e-002
3.097248e+003;8.113042e-002
3.099177e+003;7.992648e-002
3.101105e+003;7.874357e-002
3.103034e+003;7.847022e-002
3.104962e+003;7.826595e-002
3.106891e+003;7.732891e-002
3.108819e+003;7.658294e-002
3.110748e+003;7.590093e-002
3.112677e+003;7.516899e-002
3.114605e+003;7.433949e-002
3.116533e+003;7.391413e-002
3.118462e+003;7.398976e-002
3.120391e+003;7.345887e-002
3.122319e+003;7.266329e-002
3.124248e+003;7.238066e-002
3.126176e+003;7.216112e-002
3.128105e+003;7.186354e-002
3.130033e+003;7.163446e-002
3.131962e+003;7.178543e-002
3.133890e+003;7.208836e-002
3.135819e+003;7.186909e-002
3.137748e+003;7.158315e-002
3.139676e+003;7.189755e-002
3.141605e+003;7.233056e-002
3.143533e+003;7.270595e-002
3.145462e+003;7.269373e-002
3.147390e+003;7.253817e-002
3.149319e+003;7.289127e-002
3.151247e+003;7.340099e-002
3.153176e+003;7.385981e-002
3.155104e+003;7.468340e-002
3.157033e+003;7.545635e-002
3.158962e+003;7.552601e-002
3.160890e+003;7.545446e-002
3.162819e+003;7.635187e-002
3.164747e+003;7.718419e-002
3.166676e+003;7.717382e-002
3.168604e+003;7.758808e-002
3.170533e+003;7.860103e-002
3.172461e+003;7.947620e-002
3.174390e+003;8.005980e-002
3.176319e+003;8.091277e-002
3.178247e+003;8.185701e-002
3.180176e+003;8.231205e-002
3.182104e+003;8.310389e-002
3.184033e+003;8.421982e-002
3.185961e+003;8.494346e-002
3.187890e+003;8.518758e-002
3.189818e+003;8.552878e-002
3.191747e+003;8.619685e-002
3.193676e+003;8.694736e-002
3.195604e+003;8.744059e-002
3.197532e+003;8.798188e-002
3.199461e+003;8.862360e-002
3.201390e+003;8.915421e-002
3.203318e+003;8.949935e-002
3.205247e+003;8.956222e-002
3.207175e+003;8.980593e-002
3.209104e+003;9.027390e-002
3.211032e+003;9.107432e-002
3.212961e+003;9.209706e-002
3.214889e+003;9.264198e-002
3.216818e+003;9.284294e-002
3.218747e+003;9.351416e-002
3.220675e+003;9.462333e-002
3.222604e+003;9.553064e-002
3.224532e+003;9.636923e-002
3.226461e+003;9.726702e-002
3.228389e+003;9.801412e-002
3.230318e+003;9.945773e-002
3.232246e+003;1.011859e-001
3.234175e+003;1.029439e-001
3.236104e+003;1.046353e-001
3.238032e+003;1.062484e-001
3.239961e+003;1.077758e-001
3.241889e+003;1.093668e-001
3.243818e+003;1.113980e-001
3.245746e+003;1.136222e-001
3.247675e+003;1.156005e-001
3.249603e+003;1.176962e-001
3.251532e+003;1.205351e-001
3.253460e+003;1.233546e-001
3.255389e+003;1.258884e-001
3.257318e+003;1.282640e-001
3.259246e+003;1.306637e-001
3.261175e+003;1.331973e-001
3.263103e+003;1.356604e-001
3.265032e+003;1.381669e-001
3.266960e+003;1.408017e-001
3.268889e+003;1.432365e-001
3.270817e+003;1.460256e-001
3.272746e+003;1.486617e-001
3.274675e+003;1.514034e-001
3.276603e+003;1.540590e-001
3.278531e+003;1.563304e-001
3.280460e+003;1.586284e-001
3.282389e+003;1.605904e-001
3.284317e+003;1.624043e-001
3.286246e+003;1.642491e-001
3.288174e+003;1.656878e-001
3.290103e+003;1.668041e-001
3.292031e+003;1.669612e-001
3.293960e+003;1.664376e-001
3.295888e+003;1.652590e-001
3.297817e+003;1.634057e-001
3.299746e+003;1.608914e-001
3.301674e+003;1.578303e-001
3.303603e+003;1.546161e-001
3.305531e+003;1.510843e-001
3.307460e+003;1.473124e-001
3.309388e+003;1.436274e-001
3.311317e+003;1.403600e-001
3.313245e+003;1.372908e-001
3.315174e+003;1.341406e-001
3.317103e+003;1.308415e-001
3.319031e+003;1.272776e-001
3.320960e+003;1.239838e-001
3.322888e+003;1.206795e-001
3.324817e+003;1.175776e-001
3.326745e+003;1.146138e-001
3.328674e+003;1.120348e-001
3.330602e+003;1.097525e-001
3.332531e+003;1.071449e-001
3.334459e+003;1.041548e-001
3.336388e+003;1.019247e-001
3.338317e+003;9.992238e-002
3.340245e+003;9.725159e-002
3.342174e+003;9.524862e-002
3.344102e+003;9.390252e-002
3.346031e+003;9.224135e-002
3.347959e+003;9.039168e-002
3.349888e+003;8.888651e-002
3.351816e+003;8.695149e-002
3.353745e+003;8.486059e-002
3.355674e+003;8.330908e-002
3.357602e+003;8.249110e-002
3.359531e+003;8.154635e-002
3.361459e+003;8.011060e-002
3.363388e+003;7.863260e-002
3.365316e+003;7.781862e-002
3.367245e+003;7.742497e-002
3.369173e+003;7.621919e-002
3.371102e+003;7.515430e-002
3.373031e+003;7.442155e-002
3.374959e+003;7.357107e-002
3.376887e+003;7.237644e-002
3.378816e+003;7.140487e-002
3.380745e+003;7.094028e-002
3.382673e+003;7.040059e-002
3.384602e+003;6.967065e-002
3.386530e+003;6.908680e-002
3.388459e+003;6.850515e-002
3.390387e+003;6.830233e-002
3.392316e+003;6.796735e-002
3.394244e+003;6.734207e-002
3.396173e+003;6.702522e-002
3.398102e+003;6.659462e-002
3.400030e+003;6.613301e-002
3.401959e+003;6.564979e-002
3.403887e+003;6.530437e-002
3.405816e+003;6.493613e-002
3.407744e+003;6.476440e-002
3.409673e+003;6.484218e-002
3.411601e+003;6.423710e-002
3.413530e+003;6.365671e-002
3.415458e+003;6.367631e-002
3.417387e+003;6.330609e-002
3.419316e+003;6.289434e-002
3.421244e+003;6.315768e-002
3.423173e+003;6.323820e-002
3.425101e+003;6.237871e-002
3.427030e+003;6.155287e-002
3.428958e+003;6.141476e-002
3.430887e+003;6.171039e-002
3.432815e+003;6.186663e-002
3.434744e+003;6.204429e-002
3.436673e+003;6.210231e-002
3.438601e+003;6.178075e-002
3.440530e+003;6.130653e-002
3.442458e+003;6.079644e-002
3.444387e+003;6.079297e-002
3.446315e+003;6.070136e-002
3.448244e+003;6.050413e-002
3.450172e+003;6.041106e-002
3.452101e+003;6.006841e-002
3.454030e+003;5.963600e-002
3.455958e+003;5.959104e-002
3.457886e+003;5.919606e-002
3.459815e+003;5.866276e-002
3.461744e+003;5.815602e-002
3.463672e+003;5.782048e-002
3.465601e+003;5.748206e-002
3.467529e+003;5.750880e-002
3.469458e+003;5.731230e-002
3.471386e+003;5.698255e-002
3.473315e+003;5.650660e-002
3.475243e+003;5.614537e-002
3.477172e+003;5.587596e-002
3.479101e+003;5.578806e-002
3.481029e+003;5.561279e-002
3.482958e+003;5.564842e-002
3.484886e+003;5.571301e-002
3.486815e+003;5.573821e-002
3.488743e+003;5.555212e-002
3.490672e+003;5.474561e-002
3.492600e+003;5.401403e-002
3.494529e+003;5.393393e-002
3.496458e+003;5.414785e-002
3.498386e+003;5.399789e-002
3.500315e+003;5.400791e-002
3.502243e+003;5.382466e-002
3.504172e+003;5.405598e-002
3.506100e+003;5.434169e-002
3.508029e+003;5.386989e-002
3.509957e+003;5.364849e-002
3.511886e+003;5.309428e-002
3.513814e+003;5.260492e-002
3.515743e+003;5.254579e-002
3.517672e+003;5.231815e-002
3.519600e+003;5.203482e-002
3.521529e+003;5.164277e-002
3.523457e+003;5.134459e-002
3.525386e+003;5.113726e-002
3.527314e+003;5.078813e-002
3.529243e+003;5.037693e-002
3.531171e+003;5.013409e-002
3.533100e+003;5.015466e-002
3.535029e+003;4.982294e-002
3.536957e+003;4.935640e-002
3.538885e+003;4.919305e-002
3.540814e+003;4.876463e-002
3.542743e+003;4.819692e-002
3.544671e+003;4.754074e-002
3.546600e+003;4.692117e-002
3.548528e+003;4.714393e-002
3.550457e+003;4.706922e-002
3.552385e+003;4.646242e-002
3.554314e+003;4.629610e-002
3.556242e+003;4.621203e-002
3.558171e+003;4.590375e-002
3.560100e+003;4.520778e-002
3.562028e+003;4.459854e-002
3.563957e+003;4.396196e-002
3.565885e+003;4.283999e-002
3.567814e+003;4.255719e-002
3.569742e+003;4.328014e-002
3.571671e+003;4.299442e-002
3.573599e+003;4.221029e-002
3.575528e+003;4.222274e-002
3.577457e+003;4.225652e-002
3.579385e+003;4.122270e-002
3.581314e+003;4.060400e-002
3.583242e+003;4.068703e-002
3.585171e+003;3.990455e-002
3.587099e+003;3.881931e-002
3.589028e+003;3.880975e-002
3.590956e+003;3.951654e-002
3.592885e+003;3.939267e-002
3.594813e+003;3.882496e-002
3.596742e+003;3.884065e-002
3.598671e+003;3.897267e-002
3.600599e+003;3.835839e-002
3.602528e+003;3.778684e-002
3.604456e+003;3.718853e-002
3.606385e+003;3.656512e-002
3.608313e+003;3.597475e-002
3.610242e+003;3.599898e-002
3.612170e+003;3.621415e-002
3.614099e+003;3.619845e-002
3.616028e+003;3.522054e-002
3.617956e+003;3.392139e-002
3.619885e+003;3.401071e-002
3.621813e+003;3.516514e-002
3.623742e+003;3.525076e-002
3.625670e+003;3.369077e-002
3.627599e+003;3.092062e-002
3.629527e+003;3.095987e-002
3.631456e+003;3.377678e-002
3.633385e+003;3.453139e-002
3.635313e+003;3.399878e-002
3.637241e+003;3.369979e-002
3.639170e+003;3.370355e-002
3.641099e+003;3.324756e-002
3.643027e+003;3.266758e-002
3.644956e+003;3.169263e-002
3.646884e+003;2.984139e-002
3.648813e+003;2.865609e-002
3.650741e+003;2.964396e-002
3.652670e+003;3.141852e-002
3.654598e+003;3.087067e-002
3.656527e+003;3.052701e-002
3.658456e+003;3.160018e-002
3.660384e+003;3.167441e-002
3.662313e+003;3.159587e-002
3.664241e+003;3.218716e-002
3.666170e+003;3.158436e-002
3.668098e+003;2.900989e-002
3.670027e+003;2.759747e-002
3.671955e+003;2.894096e-002
3.673884e+003;2.789479e-002
3.675813e+003;2.737145e-002
3.677741e+003;2.933927e-002
3.679669e+003;2.990031e-002
3.681598e+003;3.008805e-002
3.683527e+003;3.035880e-002
3.685455e+003;2.933332e-002
3.687384e+003;2.647923e-002
3.689312e+003;2.621166e-002
3.691241e+003;2.763211e-002
3.693169e+003;2.866975e-002
3.695098e+003;2.927355e-002
3.697026e+003;2.920781e-002
3.698955e+003;2.850028e-002
3.700884e+003;2.794515e-002
3.702812e+003;2.834576e-002
3.704741e+003;2.857406e-002
3.706669e+003;2.771676e-002
3.708598e+003;2.644239e-002
3.710526e+003;2.507465e-002
3.712455e+003;2.522306e-002
3.714383e+003;2.721501e-002
3.716312e+003;2.803862e-002
3.718240e+003;2.805007e-002
3.720169e+003;2.753925e-002
3.722098e+003;2.711875e-002
3.724026e+003;2.712883e-002
3.725955e+003;2.710499e-002
3.727883e+003;2.767229e-002
3.729812e+003;2.704564e-002
3.731740e+003;2.512660e-002
3.733669e+003;2.473940e-002
3.735597e+003;2.460617e-002
3.737526e+003;2.596480e-002
3.739455e+003;2.708764e-002
3.741383e+003;2.617953e-002
3.743312e+003;2.248564e-002
3.745240e+003;2.307706e-002
3.747169e+003;2.561874e-002
3.749097e+003;2.448184e-002
3.751026e+003;2.422254e-002
3.752954e+003;2.621595e-002
3.754883e+003;2.816733e-002
3.756812e+003;2.780276e-002
3.758740e+003;2.722446e-002
3.760668e+003;2.728684e-002
3.762597e+003;2.815948e-002
3.764526e+003;2.811310e-002
3.766454e+003;2.807828e-002
3.768383e+003;2.756008e-002
3.770311e+003;2.770694e-002
3.772240e+003;2.865064e-002
3.774168e+003;2.866098e-002
3.776097e+003;2.799925e-002
3.778025e+003;2.751380e-002
3.779954e+003;2.747186e-002
3.781883e+003;2.818253e-002
3.783811e+003;2.892365e-002
3.785740e+003;2.906423e-002
3.787668e+003;2.859076e-002
3.789597e+003;2.866660e-002
3.791525e+003;2.871750e-002
3.793454e+003;2.851577e-002
3.795382e+003;2.804965e-002
3.797311e+003;2.810896e-002
3.799240e+003;2.647923e-002
3.801168e+003;2.493910e-002
3.803097e+003;2.685734e-002
3.805025e+003;2.700756e-002
3.806954e+003;2.643031e-002
3.808882e+003;2.852285e-002
3.810811e+003;2.940504e-002
3.812739e+003;2.851570e-002
3.814668e+003;2.651473e-002
3.816596e+003;2.674847e-002
3.818525e+003;2.773540e-002
3.820454e+003;2.663090e-002
3.822382e+003;2.743208e-002
3.824311e+003;2.875605e-002
3.826239e+003;2.865843e-002
3.828168e+003;2.877542e-002
3.830096e+003;2.848906e-002
3.832025e+003;2.831375e-002
3.833953e+003;2.786685e-002
3.835882e+003;2.626572e-002
3.837811e+003;2.556957e-002
3.839739e+003;2.714220e-002
3.841667e+003;2.812345e-002
3.843596e+003;2.888242e-002
3.845525e+003;2.991330e-002
3.847453e+003;3.014175e-002
3.849382e+003;2.917060e-002
3.851310e+003;2.591545e-002
3.853239e+003;2.316949e-002
3.855167e+003;2.637672e-002
3.857096e+003;2.984125e-002
3.859024e+003;3.022088e-002
3.860953e+003;2.965078e-002
3.862882e+003;2.864331e-002
3.864810e+003;2.821880e-002
3.866739e+003;2.843377e-002
3.868667e+003;2.714111e-002
3.870596e+003;2.761085e-002
3.872524e+003;2.905747e-002
3.874453e+003;2.918935e-002
3.876381e+003;2.975352e-002
3.878310e+003;2.999168e-002
3.880239e+003;3.006554e-002
3.882167e+003;3.032217e-002
3.884096e+003;2.963676e-002
3.886024e+003;2.966358e-002
3.887953e+003;3.073704e-002
3.889881e+003;3.022354e-002
3.891810e+003;2.997056e-002
3.893738e+003;3.113094e-002
3.895667e+003;3.183540e-002
3.897595e+003;3.079099e-002
3.899524e+003;2.919601e-002
3.901453e+003;2.846334e-002
3.903381e+003;2.876838e-002
3.905310e+003;3.056000e-002
3.907238e+003;3.204153e-002
3.909167e+003;3.228198e-002
3.911095e+003;3.187262e-002
3.913024e+003;3.158201e-002
3.914952e+003;3.138471e-002
3.916881e+003;3.130455e-002
3.918810e+003;3.133987e-002
3.920738e+003;3.170446e-002
3.922667e+003;3.209086e-002
3.924595e+003;3.196288e-002
3.926524e+003;3.218894e-002
3.928452e+003;3.222124e-002
3.930381e+003;3.202141e-002
3.932309e+003;3.203782e-002
3.934238e+003;3.245944e-002
3.936167e+003;3.272845e-002
3.938095e+003;3.316008e-002
3.940023e+003;3.327936e-002
3.941952e+003;3.322692e-002
3.943881e+003;3.345501e-002
3.945809e+003;3.320045e-002
3.947738e+003;3.290355e-002
3.949666e+003;3.317091e-002
3.951595e+003;3.352544e-002
3.953523e+003;3.409199e-002
3.955452e+003;3.414650e-002
3.957380e+003;3.375727e-002
3.959309e+003;3.387972e-002
3.961238e+003;3.434775e-002
3.963166e+003;3.506972e-002
3.965095e+003;3.566613e-002
3.967023e+003;3.573595e-002
3.968952e+003;3.524523e-002
3.970880e+003;3.438719e-002
3.972809e+003;3.399409e-002
3.974737e+003;3.432731e-002
3.976666e+003;3.491712e-002
3.978594e+003;3.488474e-002
3.980523e+003;3.471537e-002
3.982452e+003;3.466850e-002
3.984380e+003;3.500848e-002
3.986309e+003;3.560783e-002
3.988237e+003;3.597713e-002
3.990166e+003;3.624855e-002
3.992094e+003;3.653001e-002
3.994023e+003;3.681888e-002
3.995951e+003;3.686800e-002
3.997880e+003;3.684135e-002
3.999809e+003;3.652111e-002
4.001737e+003;0.000000e+000
