3.992094e+002;0.000000e+000
4.011380e+002;0.000000e+000
4.030665e+002;0.000000e+000
4.049951e+002;0.000000e+000
4.069236e+002;0.000000e+000
4.088522e+002;0.000000e+000
4.107807e+002;0.000000e+000
4.127093e+002;0.000000e+000
4.146378e+002;0.000000e+000
4.165664e+002;0.000000e+000
4.184949e+002;0.000000e+000
4.204235e+002;0.000000e+000
4.223520e+002;0.000000e+000
4.242806e+002;0.000000e+000
4.262091e+002;0.000000e+000
4.281377e+002;0.000000e+000
4.300662e+002;0.000000e+000
4.319948e+002;0.000000e+000
4.339233e+002;0.000000e+000
4.358519e+002;0.000000e+000
4.377804e+002;0.000000e+000
4.397090e+002;0.000000e+000
4.416375e+002;0.000000e+000
4.435660e+002;0.000000e+000
4.454946e+002;0.000000e+000
4.474232e+002;0.000000e+000
4.493517e+002;0.000000e+000
4.512802e+002;0.000000e+000
4.532088e+002;0.000000e+000
4.551373e+002;0.000000e+000
4.570659e+002;0.000000e+000
4.589944e+002;0.000000e+000
4.609230e+002;0.000000e+000
4.628515e+002;0.000000e+000
4.647801e+002;0.000000e+000
4.667086e+002;0.000000e+000
4.686372e+002;0.000000e+000
4.705657e+002;0.000000e+000
4.724943e+002;0.000000e+000
4.744228e+002;0.000000e+000
4.763513e+002;0.000000e+000
4.782799e+002;0.000000e+000
4.802085e+002;0.000000e+000
4.821370e+002;0.000000e+000
4.840656e+002;0.000000e+000
4.859941e+002;0.000000e+000
4.879226e+002;0.000000e+000
4.898512e+002;0.000000e+000
4.917798e+002;0.000000e+000
4.937083e+002;0.000000e+000
4.956368e+002;0.000000e+000
4.975654e+002;0.000000e+000
4.994939e+002;0.000000e+000
5.014225e+002;0.000000e+000
5.033510e+002;0.000000e+000
5.052796e+002;0.000000e+000
5.072081e+002;0.000000e+000
5.091367e+002;0.000000e+000
5.110652e+002;0.000000e+000
5.129938e+002;0.000000e+000
5.149223e+002;0.000000e+000
5.168509e+002;0.000000e+000
5.187794e+002;0.000000e+000
5.207079e+002;0.000000e+000
5.226365e+002;0.000000e+000
5.245651e+002;0.000000e+000
5.264936e+002;0.000000e+000
5.284222e+002;0.000000e+000
5.303507e+002;0.000000e+000
5.322792e+002;0.000000e+000
5.342078e+002;0.000000e+000
5.361364e+002;0.000000e+000
5.380649e+002;0.000000e+000
5.399935e+002;0.000000e+000
5.419220e+002;0.000000e+000
5.438505e+002;0.000000e+000
5.457791e+002;0.000000e+000
5.477076e+002;0.000000e+000
5.496362e+002;0.000000e+000
5.515648e+002;0.000000e+000
5.534933e+002;0.000000e+000
5.554218e+002;0.000000e+000
5.573504e+002;0.000000e+000
5.592789e+002;0.000000e+000
5.612075e+002;0.000000e+000
5.631360e+002;0.000000e+000
5.650646e+002;0.000000e+000
5.669931e+002;0.000000e+000
5.689217e+002;0.000000e+000
5.708502e+002;0.000000e+000
5.727787e+002;0.000000e+000
5.747073e+002;0.000000e+000
5.766359e+002;0.000000e+000
5.785644e+002;0.000000e+000
5.804930e+002;0.000000e+000
5.824215e+002;0.000000e+000
5.843500e+002;0.000000e+000
5.862786e+002;0.000000e+000
5.882072e+002;0.000000e+000
5.901357e+002;0.000000e+000
5.920643e+002;0.000000e+000
5.939928e+002;0.000000e+000
5.959213e+002;0.000000e+000
5.978499e+002;0.000000e+000
5.997784e+002;1.403989e-001
6.017070e+002;1.454082e-001
6.036355e+002;1.462166e-001
6.055641e+002;1.382511e-001
6.074926e+002;1.340450e-001
6.094211e+002;1.365126e-001
6.113497e+002;1.406145e-001
6.132783e+002;1.442650e-001
6.152068e+002;1.412134e-001
6.171354e+002;1.397099e-001
6.190639e+002;1.450504e-001
6.209924e+002;1.464713e-001
6.229210e+002;1.426617e-001
6.248495e+002;1.419733e-001
6.267781e+002;1.445790e-001
6.287067e+002;1.444658e-001
6.306352e+002;1.423384e-001
6.325637e+002;1.384811e-001
6.344923e+002;1.396370e-001
6.364208e+002;1.451575e-001
6.383494e+002;1.487309e-001
6.402780e+002;1.470864e-001
6.422065e+002;1.464183e-001
6.441350e+002;1.500549e-001
6.460636e+002;1.527876e-001
6.479921e+002;1.542112e-001
6.499207e+002;1.538439e-001
6.518492e+002;1.537044e-001
6.537778e+002;1.603654e-001
6.557063e+002;1.642319e-001
6.576349e+002;1.629180e-001
6.595634e+002;1.656519e-001
6.614919e+002;1.703095e-001
6.634205e+002;1.750029e-001
6.653491e+002;1.775781e-001
6.672776e+002;1.790330e-001
6.692062e+002;1.803150e-001
6.711347e+002;1.811494e-001
6.730632e+002;1.811882e-001
6.749918e+002;1.806488e-001
6.769203e+002;1.806795e-001
6.788489e+002;1.808464e-001
6.807775e+002;1.819312e-001
6.827060e+002;1.834328e-001
6.846345e+002;1.826144e-001
6.865631e+002;1.792041e-001
6.884916e+002;1.774445e-001
6.904202e+002;1.767447e-001
6.923488e+002;1.760267e-001
6.942773e+002;1.751981e-001
6.962058e+002;1.721562e-001
6.981344e+002;1.685245e-001
7.000629e+002;1.660887e-001
7.019915e+002;1.653154e-001
7.039200e+002;1.636748e-001
7.058486e+002;1.618313e-001
7.077771e+002;1.611762e-001
7.097057e+002;1.597177e-001
7.116342e+002;1.586745e-001
7.135627e+002;1.578769e-001
7.154913e+002;1.555161e-001
7.174199e+002;1.534584e-001
7.193484e+002;1.536507e-001
7.212770e+002;1.542679e-001
7.232055e+002;1.540352e-001
7.251340e+002;1.546246e-001
7.270626e+002;1.549047e-001
7.289911e+002;1.525858e-001
7.309197e+002;1.475452e-001
7.328483e+002;1.410853e-001
7.347768e+002;1.347931e-001
7.367053e+002;1.291697e-001
7.386339e+002;1.241849e-001
7.405624e+002;1.191320e-001
7.424910e+002;1.156904e-001
7.444196e+002;1.140166e-001
7.463481e+002;1.118582e-001
7.482766e+002;1.094672e-001
7.502052e+002;1.075868e-001
7.521337e+002;1.058442e-001
7.540623e+002;1.043367e-001
7.559908e+002;1.030985e-001
7.579194e+002;1.016769e-001
7.598479e+002;1.007322e-001
7.617765e+002;9.950735e-002
7.637050e+002;9.779281e-002
7.656335e+002;9.714736e-002
7.675621e+002;9.573815e-002
7.694907e+002;9.394769e-002
7.714192e+002;9.311585e-002
7.733478e+002;9.282801e-002
7.752763e+002;9.144610e-002
7.772048e+002;8.966155e-002
7.791334e+002;8.851232e-002
7.810620e+002;8.717896e-002
7.829905e+002;8.509111e-002
7.849191e+002;8.317976e-002
7.868476e+002;8.219436e-002
7.887761e+002;8.140733e-002
7.907047e+002;7.986192e-002
7.926332e+002;7.849535e-002
7.945618e+002;7.772335e-002
7.964903e+002;7.748430e-002
7.984189e+002;7.656396e-002
8.003474e+002;7.432847e-002
8.022759e+002;7.301756e-002
8.042045e+002;7.251702e-002
8.061331e+002;7.174154e-002
8.080616e+002;7.085855e-002
8.099902e+002;7.046340e-002
8.119187e+002;6.958138e-002
8.138472e+002;6.853413e-002
8.157758e+002;6.817563e-002
8.177043e+002;6.812423e-002
8.196329e+002;6.788211e-002
8.215615e+002;6.787700e-002
8.234900e+002;6.802947e-002
8.254185e+002;6.839184e-002
8.273471e+002;6.937367e-002
8.292756e+002;7.073828e-002
8.312042e+002;7.217509e-002
8.331328e+002;7.288484e-002
8.350613e+002;7.103857e-002
8.369898e+002;6.799777e-002
8.389184e+002;6.653343e-002
8.408469e+002;6.561965e-002
8.427755e+002;6.367704e-002
8.447040e+002;6.191542e-002
8.466326e+002;6.082312e-002
8.485611e+002;6.036144e-002
8.504897e+002;6.072936e-002
8.524182e+002;6.063929e-002
8.543467e+002;6.034187e-002
8.562753e+002;6.005022e-002
8.582039e+002;5.997208e-002
8.601324e+002;5.971230e-002
8.620610e+002;5.899193e-002
8.639895e+002;5.910254e-002
8.659180e+002;5.969226e-002
8.678466e+002;5.997850e-002
8.697751e+002;6.007377e-002
8.717037e+002;6.019642e-002
8.736323e+002;6.032958e-002
8.755608e+002;6.038627e-002
8.774893e+002;6.066992e-002
8.794179e+002;6.091731e-002
8.813464e+002;6.090145e-002
8.832750e+002;6.144617e-002
8.852036e+002;6.213783e-002
8.871321e+002;6.236957e-002
8.890606e+002;6.205438e-002
8.909892e+002;6.158555e-002
8.929177e+002;6.173781e-002
8.948463e+002;6.248651e-002
8.967748e+002;6.315634e-002
8.987034e+002;6.308603e-002
9.006319e+002;6.295237e-002
9.025605e+002;6.359660e-002
9.044890e+002;6.394216e-002
9.064175e+002;6.436639e-002
9.083461e+002;6.490893e-002
9.102747e+002;6.536499e-002
9.122032e+002;6.595735e-002
9.141318e+002;6.645979e-002
9.160603e+002;6.678373e-002
9.179888e+002;6.719077e-002
9.199174e+002;6.821789e-002
9.218459e+002;6.926997e-002
9.237745e+002;7.020079e-002
9.257031e+002;7.156287e-002
9.276316e+002;7.255442e-002
9.295601e+002;7.263105e-002
9.314887e+002;7.224447e-002
9.334172e+002;7.143462e-002
9.353458e+002;7.038009e-002
9.372744e+002;6.956065e-002
9.392029e+002;6.960157e-002
9.411314e+002;6.993271e-002
9.430600e+002;7.058665e-002
9.449885e+002;7.115198e-002
9.469171e+002;7.203227e-002
9.488456e+002;7.344839e-002
9.507742e+002;7.492591e-002
9.527027e+002;7.590050e-002
9.546313e+002;7.646177e-002
9.565598e+002;7.708822e-002
9.584883e+002;7.734772e-002
9.604169e+002;7.726748e-002
9.623455e+002;7.703596e-002
9.642740e+002;7.638434e-002
9.662026e+002;7.646395e-002
9.681311e+002;7.661708e-002
9.700596e+002;7.634732e-002
9.719882e+002;7.593961e-002
9.739167e+002;7.542171e-002
9.758453e+002;7.480607e-002
9.777739e+002;7.382929e-002
9.797024e+002;7.314035e-002
9.816309e+002;7.290988e-002
9.835595e+002;7.250210e-002
9.854880e+002;7.188809e-002
9.874166e+002;7.114764e-002
9.893452e+002;7.023861e-002
9.912737e+002;6.916366e-002
9.932022e+002;6.851888e-002
9.951307e+002;6.783098e-002
9.970593e+002;6.736540e-002
9.989879e+002;6.731789e-002
1.000916e+003;6.714030e-002
1.002845e+003;6.669351e-002
1.004773e+003;6.659434e-002
1.006702e+003;6.685634e-002
1.008631e+003;6.669926e-002
1.010559e+003;6.637979e-002
1.012488e+003;6.633057e-002
1.014416e+003;6.628306e-002
1.016345e+003;6.638686e-002
1.018273e+003;6.661605e-002
1.020202e+003;6.667086e-002
1.022130e+003;6.722555e-002
1.024059e+003;6.821273e-002
1.025988e+003;6.881011e-002
1.027916e+003;6.918227e-002
1.029845e+003;6.944964e-002
1.031773e+003;6.935707e-002
1.033702e+003;6.922139e-002
1.035630e+003;6.895319e-002
1.037559e+003;6.839653e-002
1.039487e+003;6.792147e-002
1.041416e+003;6.754858e-002
1.043344e+003;6.698370e-002
1.045273e+003;6.655757e-002
1.047202e+003;6.679794e-002
1.049130e+003;6.788215e-002
1.051059e+003;6.913798e-002
1.052987e+003;7.002856e-002
1.054916e+003;7.137069e-002
1.056844e+003;7.303034e-002
1.058773e+003;7.433131e-002
1.060701e+003;7.545931e-002
1.062630e+003;7.664222e-002
1.064558e+003;7.799746e-002
1.066487e+003;7.900481e-002
1.068416e+003;7.970528e-002
1.070344e+003;7.989497e-002
1.072273e+003;8.033483e-002
1.074201e+003;8.060905e-002
1.076130e+003;7.986017e-002
1.078058e+003;7.868903e-002
1.079987e+003;7.807328e-002
1.081915e+003;7.753155e-002
1.083844e+003;7.700945e-002
1.085773e+003;7.642720e-002
1.087701e+003;7.559320e-002
1.089630e+003;7.486205e-002
1.091558e+003;7.521957e-002
1.093487e+003;7.607121e-002
1.095415e+003;7.693425e-002
1.097344e+003;7.815070e-002
1.099272e+003;7.926498e-002
1.101201e+003;8.064136e-002
1.103129e+003;8.210805e-002
1.105058e+003;8.348878e-002
1.106987e+003;8.540291e-002
1.108915e+003;8.726398e-002
1.110844e+003;8.813325e-002
1.112772e+003;8.804762e-002
1.114701e+003;8.839403e-002
1.116629e+003;8.899378e-002
1.118558e+003;8.908191e-002
1.120486e+003;8.818123e-002
1.122415e+003;8.581831e-002
1.124344e+003;8.349601e-002
1.126272e+003;8.120899e-002
1.128201e+003;7.843699e-002
1.130129e+003;7.590220e-002
1.132058e+003;7.432376e-002
1.133986e+003;7.371274e-002
1.135915e+003;7.321176e-002
1.137843e+003;7.308216e-002
1.139772e+003;7.384355e-002
1.141700e+003;7.523037e-002
1.143629e+003;7.737935e-002
1.145557e+003;7.955395e-002
1.147486e+003;8.129289e-002
1.149415e+003;8.348714e-002
1.151343e+003;8.649327e-002
1.153272e+003;8.992167e-002
1.155200e+003;9.350927e-002
1.157129e+003;9.777742e-002
1.159057e+003;1.024693e-001
1.160986e+003;1.081635e-001
1.162914e+003;1.143982e-001
1.164843e+003;1.198084e-001
1.166771e+003;1.240070e-001
1.168700e+003;1.261754e-001
1.170629e+003;1.256867e-001
1.172557e+003;1.223749e-001
1.174486e+003;1.174619e-001
1.176414e+003;1.125984e-001
1.178343e+003;1.081448e-001
1.180271e+003;1.048023e-001
1.182200e+003;1.035617e-001
1.184128e+003;1.041356e-001
1.186057e+003;1.059938e-001
1.187986e+003;1.088461e-001
1.189914e+003;1.121193e-001
1.191843e+003;1.159147e-001
1.193771e+003;1.203680e-001
1.195700e+003;1.249577e-001
1.197628e+003;1.288181e-001
1.199557e+003;1.308989e-001
1.201485e+003;1.299623e-001
1.203414e+003;1.273143e-001
1.205343e+003;1.246284e-001
1.207271e+003;1.222478e-001
1.209200e+003;1.210724e-001
1.211128e+003;1.205842e-001
1.213057e+003;1.194007e-001
1.214985e+003;1.171029e-001
1.216914e+003;1.141152e-001
1.218842e+003;1.115660e-001
1.220771e+003;1.102617e-001
1.222699e+003;1.106793e-001
1.224628e+003;1.130763e-001
1.226557e+003;1.167632e-001
1.228485e+003;1.210012e-001
1.230414e+003;1.256782e-001
1.232342e+003;1.300629e-001
1.234271e+003;1.335895e-001
1.236199e+003;1.356764e-001
1.238128e+003;1.361733e-001
1.240056e+003;1.362856e-001
1.241985e+003;1.362886e-001
1.243913e+003;1.365093e-001
1.245842e+003;1.371190e-001
1.247771e+003;1.384167e-001
1.249699e+003;1.405103e-001
1.251628e+003;1.426380e-001
1.253556e+003;1.453122e-001
1.255485e+003;1.482405e-001
1.257413e+003;1.502496e-001
1.259342e+003;1.515257e-001
1.261270e+003;1.518650e-001
1.263199e+003;1.502621e-001
1.265127e+003;1.461090e-001
1.267056e+003;1.403120e-001
1.268985e+003;1.345932e-001
1.270913e+003;1.306126e-001
1.272842e+003;1.286955e-001
1.274770e+003;1.278572e-001
1.276699e+003;1.272829e-001
1.278627e+003;1.265905e-001
1.280556e+003;1.256816e-001
1.282484e+003;1.244142e-001
1.284413e+003;1.225330e-001
1.286342e+003;1.205344e-001
1.288270e+003;1.189757e-001
1.290199e+003;1.179667e-001
1.292127e+003;1.171934e-001
1.294056e+003;1.165195e-001
1.295984e+003;1.159984e-001
1.297913e+003;1.160243e-001
1.299841e+003;1.158384e-001
1.301770e+003;1.148431e-001
1.303698e+003;1.137868e-001
1.305627e+003;1.130506e-001
1.307556e+003;1.123332e-001
1.309484e+003;1.110377e-001
1.311413e+003;1.098050e-001
1.313341e+003;1.088606e-001
1.315270e+003;1.077083e-001
1.317198e+003;1.064864e-001
1.319127e+003;1.054909e-001
1.321055e+003;1.045871e-001
1.322984e+003;1.036506e-001
1.324912e+003;1.030611e-001
1.326841e+003;1.029091e-001
1.328770e+003;1.030568e-001
1.330698e+003;1.034557e-001
1.332627e+003;1.040729e-001
1.334555e+003;1.045616e-001
1.336484e+003;1.048791e-001
1.338412e+003;1.050677e-001
1.340341e+003;1.054612e-001
1.342269e+003;1.061493e-001
1.344198e+003;1.067760e-001
1.346126e+003;1.077162e-001
1.348055e+003;1.091432e-001
1.349984e+003;1.106081e-001
1.351912e+003;1.120476e-001
1.353841e+003;1.134467e-001
1.355769e+003;1.150905e-001
1.357698e+003;1.168535e-001
1.359626e+003;1.184359e-001
1.361555e+003;1.202403e-001
1.363483e+003;1.219188e-001
1.365412e+003;1.235254e-001
1.367341e+003;1.251295e-001
1.369269e+003;1.264373e-001
1.371198e+003;1.270687e-001
1.373126e+003;1.265232e-001
1.375055e+003;1.251698e-001
1.376983e+003;1.230302e-001
1.378912e+003;1.201658e-001
1.380840e+003;1.170315e-001
1.382769e+003;1.134900e-001
1.384698e+003;1.099734e-001
1.386626e+003;1.068839e-001
1.388555e+003;1.044714e-001
1.390483e+003;1.024360e-001
1.392412e+003;1.009585e-001
1.394340e+003;1.001837e-001
1.396269e+003;1.000879e-001
1.398197e+003;1.007338e-001
1.400126e+003;1.019093e-001
1.402054e+003;1.038740e-001
1.403983e+003;1.071012e-001
1.405911e+003;1.116614e-001
1.407840e+003;1.172129e-001
1.409769e+003;1.237818e-001
1.411697e+003;1.306236e-001
1.413626e+003;1.366176e-001
1.415554e+003;1.406526e-001
1.417483e+003;1.419192e-001
1.419411e+003;1.407092e-001
1.421340e+003;1.381333e-001
1.423268e+003;1.353285e-001
1.425197e+003;1.335372e-001
1.427125e+003;1.338547e-001
1.429054e+003;1.357978e-001
1.430983e+003;1.382686e-001
1.432911e+003;1.406081e-001
1.434840e+003;1.417893e-001
1.436768e+003;1.415143e-001
1.438697e+003;1.410065e-001
1.440625e+003;1.402989e-001
1.442554e+003;1.391733e-001
1.444482e+003;1.382635e-001
1.446411e+003;1.382028e-001
1.448340e+003;1.391705e-001
1.450268e+003;1.413152e-001
1.452197e+003;1.438798e-001
1.454125e+003;1.463451e-001
1.456054e+003;1.491518e-001
1.457982e+003;1.531873e-001
1.459911e+003;1.578539e-001
1.461839e+003;1.606628e-001
1.463768e+003;1.593965e-001
1.465697e+003;1.541913e-001
1.467625e+003;1.479038e-001
1.469554e+003;1.425601e-001
1.471482e+003;1.392613e-001
1.473411e+003;1.385841e-001
1.475339e+003;1.386873e-001
1.477268e+003;1.367775e-001
1.479196e+003;1.324792e-001
1.481125e+003;1.271137e-001
1.483053e+003;1.215965e-001
1.484982e+003;1.170613e-001
1.486911e+003;1.145549e-001
1.488839e+003;1.142872e-001
1.490768e+003;1.161057e-001
1.492696e+003;1.191642e-001
1.494625e+003;1.225898e-001
1.496553e+003;1.266695e-001
1.498482e+003;1.317431e-001
1.500410e+003;1.373847e-001
1.502339e+003;1.431006e-001
1.504267e+003;1.491498e-001
1.506196e+003;1.559682e-001
1.508125e+003;1.634157e-001
1.510053e+003;1.710134e-001
1.511982e+003;1.788122e-001
1.513910e+003;1.869278e-001
1.515839e+003;1.952898e-001
1.517767e+003;2.039259e-001
1.519696e+003;2.125925e-001
1.521624e+003;2.217358e-001
1.523553e+003;2.311851e-001
1.525481e+003;2.403689e-001
1.527410e+003;2.494691e-001
1.529339e+003;2.581511e-001
1.531267e+003;2.657446e-001
1.533196e+003;2.721325e-001
1.535124e+003;2.769884e-001
1.537053e+003;2.797150e-001
1.538981e+003;2.798538e-001
1.540910e+003;2.777262e-001
1.542838e+003;2.732086e-001
1.544767e+003;2.657615e-001
1.546695e+003;2.568218e-001
1.548624e+003;2.468018e-001
1.550553e+003;2.359395e-001
1.552481e+003;2.254426e-001
1.554410e+003;2.152521e-001
1.556338e+003;2.049657e-001
1.558267e+003;1.944552e-001
1.560195e+003;1.848943e-001
1.562124e+003;1.762926e-001
1.564052e+003;1.675252e-001
1.565981e+003;1.587211e-001
1.567910e+003;1.502120e-001
1.569838e+003;1.421126e-001
1.571767e+003;1.351095e-001
1.573695e+003;1.285629e-001
1.575624e+003;1.221367e-001
1.577552e+003;1.168908e-001
1.579481e+003;1.131972e-001
1.581409e+003;1.100838e-001
1.583338e+003;1.077285e-001
1.585266e+003;1.063460e-001
1.587195e+003;1.058545e-001
1.589124e+003;1.058146e-001
1.591052e+003;1.064576e-001
1.592981e+003;1.080069e-001
1.594909e+003;1.103152e-001
1.596838e+003;1.138838e-001
1.598766e+003;1.183861e-001
1.600695e+003;1.234800e-001
1.602623e+003;1.296628e-001
1.604552e+003;1.369090e-001
1.606480e+003;1.450047e-001
1.608409e+003;1.543115e-001
1.610338e+003;1.646853e-001
1.612266e+003;1.762941e-001
1.614195e+003;1.891514e-001
1.616123e+003;2.035809e-001
1.618052e+003;2.202069e-001
1.619980e+003;2.377992e-001
1.621909e+003;2.558242e-001
1.623837e+003;2.737148e-001
1.625766e+003;2.908581e-001
1.627694e+003;3.077601e-001
1.629623e+003;3.241674e-001
1.631552e+003;3.390337e-001
1.633480e+003;3.506549e-001
1.635409e+003;3.564314e-001
1.637337e+003;3.549308e-001
1.639266e+003;3.457311e-001
1.641194e+003;3.299583e-001
1.643123e+003;3.104575e-001
1.645051e+003;2.894201e-001
1.646980e+003;2.685785e-001
1.648909e+003;2.500186e-001
1.650837e+003;2.333827e-001
1.652766e+003;2.179418e-001
1.654694e+003;2.050799e-001
1.656623e+003;1.942797e-001
1.658551e+003;1.840544e-001
1.660480e+003;1.738177e-001
1.662408e+003;1.638732e-001
1.664337e+003;1.547296e-001
1.666266e+003;1.459086e-001
1.668194e+003;1.371847e-001
1.670123e+003;1.289179e-001
1.672051e+003;1.214327e-001
1.673980e+003;1.140115e-001
1.675908e+003;1.059517e-001
1.677837e+003;9.795844e-002
1.679765e+003;8.990923e-002
1.681694e+003;8.179445e-002
1.683622e+003;7.397565e-002
1.685551e+003;6.710867e-002
1.687479e+003;6.180340e-002
1.689408e+003;5.741920e-002
1.691337e+003;5.375228e-002
1.693265e+003;5.080005e-002
1.695194e+003;4.822524e-002
1.697122e+003;4.671066e-002
1.699051e+003;4.566484e-002
1.700979e+003;4.482573e-002
1.702908e+003;4.470584e-002
1.704836e+003;4.419799e-002
1.706765e+003;4.382555e-002
1.708693e+003;4.369322e-002
1.710622e+003;4.357954e-002
1.712551e+003;4.351881e-002
1.714479e+003;4.355957e-002
1.716408e+003;4.342765e-002
1.718336e+003;4.353859e-002
1.720265e+003;4.398212e-002
1.722193e+003;4.404259e-002
1.724122e+003;4.397765e-002
1.726050e+003;4.394080e-002
1.727979e+003;4.334545e-002
1.729908e+003;4.262864e-002
1.731836e+003;4.186393e-002
1.733765e+003;4.101825e-002
1.735693e+003;4.047930e-002
1.737622e+003;4.002894e-002
1.739550e+003;3.922773e-002
1.741479e+003;3.840436e-002
1.743407e+003;3.783578e-002
1.745336e+003;3.737486e-002
1.747265e+003;3.688979e-002
1.749193e+003;3.638728e-002
1.751122e+003;3.616017e-002
1.753050e+003;3.623742e-002
1.754979e+003;3.612690e-002
1.756907e+003;3.569653e-002
1.758836e+003;3.513349e-002
1.760764e+003;3.467894e-002
1.762693e+003;3.424505e-002
1.764621e+003;3.364390e-002
1.766550e+003;3.321498e-002
1.768479e+003;3.297962e-002
1.770407e+003;3.271738e-002
1.772336e+003;3.239432e-002
1.774264e+003;3.201770e-002
1.776193e+003;3.162413e-002
1.778121e+003;3.136238e-002
1.780050e+003;3.102186e-002
1.781978e+003;3.080294e-002
1.783907e+003;3.067523e-002
1.785835e+003;3.039178e-002
1.787764e+003;3.010392e-002
1.789693e+003;2.979355e-002
1.791621e+003;2.940883e-002
1.793550e+003;2.919696e-002
1.795478e+003;2.932105e-002
1.797407e+003;2.934105e-002
1.799335e+003;2.906551e-002
1.801264e+003;2.863422e-002
1.803192e+003;2.838216e-002
1.805121e+003;2.832755e-002
1.807049e+003;2.832486e-002
1.808978e+003;2.828260e-002
1.810907e+003;2.838230e-002
1.812835e+003;2.845050e-002
1.814764e+003;2.829405e-002
1.816692e+003;2.795031e-002
1.818621e+003;2.763843e-002
1.820549e+003;2.765923e-002
1.822478e+003;2.763695e-002
1.824406e+003;2.756435e-002
1.826335e+003;2.759405e-002
1.828264e+003;2.753343e-002
1.830192e+003;2.752400e-002
1.832121e+003;2.750614e-002
1.834049e+003;2.736341e-002
1.835978e+003;2.728705e-002
1.837906e+003;2.716241e-002
1.839835e+003;2.692245e-002
1.841763e+003;2.683619e-002
1.843692e+003;2.665479e-002
1.845620e+003;2.653551e-002
1.847549e+003;2.648592e-002
1.849478e+003;2.640996e-002
1.851406e+003;2.627745e-002
1.853335e+003;2.611974e-002
1.855263e+003;2.612548e-002
1.857192e+003;2.622598e-002
1.859120e+003;2.623915e-002
1.861049e+003;2.612523e-002
1.862977e+003;2.595956e-002
1.864906e+003;2.587606e-002
1.866834e+003;2.576955e-002
1.868763e+003;2.577781e-002
1.870692e+003;2.571808e-002
1.872620e+003;2.569646e-002
1.874549e+003;2.584898e-002
1.876477e+003;2.592491e-002
1.878406e+003;2.599115e-002
1.880334e+003;2.602172e-002
1.882263e+003;2.579894e-002
1.884191e+003;2.559280e-002
1.886120e+003;2.553099e-002
1.888048e+003;2.557650e-002
1.889977e+003;2.555699e-002
1.891906e+003;2.549117e-002
1.893834e+003;2.570578e-002
1.895763e+003;2.609817e-002
1.897691e+003;2.618277e-002
1.899620e+003;2.600698e-002
1.901548e+003;2.589298e-002
1.903477e+003;2.617903e-002
1.905405e+003;2.611179e-002
1.907334e+003;2.579167e-002
1.909262e+003;2.589252e-002
1.911191e+003;2.591781e-002
1.913120e+003;2.588847e-002
1.915048e+003;2.573886e-002
1.916977e+003;2.549391e-002
1.918905e+003;2.557762e-002
1.920834e+003;2.556609e-002
1.922762e+003;2.545913e-002
1.924691e+003;2.564823e-002
1.926619e+003;2.568359e-002
1.928548e+003;2.554487e-002
1.930477e+003;2.548278e-002
1.932405e+003;2.538388e-002
1.934334e+003;2.542354e-002
1.936262e+003;2.546373e-002
1.938191e+003;2.539027e-002
1.940119e+003;2.522376e-002
1.942048e+003;2.501533e-002
1.943976e+003;2.516294e-002
1.945905e+003;2.535476e-002
1.947833e+003;2.547066e-002
1.949762e+003;2.552867e-002
1.951691e+003;2.539164e-002
1.953619e+003;2.518412e-002
1.955548e+003;2.529965e-002
1.957476e+003;2.572694e-002
1.959405e+003;2.580436e-002
1.961333e+003;2.554487e-002
1.963262e+003;2.540594e-002
1.965190e+003;2.555541e-002
1.967119e+003;2.588348e-002
1.969047e+003;2.595871e-002
1.970976e+003;2.581340e-002
1.972905e+003;2.575995e-002
1.974833e+003;2.599885e-002
1.976762e+003;2.623091e-002
1.978690e+003;2.635806e-002
1.980619e+003;2.620191e-002
1.982547e+003;2.593385e-002
1.984476e+003;2.593986e-002
1.986404e+003;2.591964e-002
1.988333e+003;2.583502e-002
1.990261e+003;2.588155e-002
1.992190e+003;2.600870e-002
1.994119e+003;2.597996e-002
1.996047e+003;2.594478e-002
1.997976e+003;2.616897e-002
1.999904e+003;2.632972e-002
2.001833e+003;2.630976e-002
2.003761e+003;2.623482e-002
2.005690e+003;2.613881e-002
2.007618e+003;2.613638e-002
2.009547e+003;2.624686e-002
2.011476e+003;2.638605e-002
2.013404e+003;2.627604e-002
2.015333e+003;2.627118e-002
2.017261e+003;2.651635e-002
2.019190e+003;2.669650e-002
2.021118e+003;2.675415e-002
2.023047e+003;2.682689e-002
2.024975e+003;2.685604e-002
2.026904e+003;2.697851e-002
2.028833e+003;2.724097e-002
2.030761e+003;2.722922e-002
2.032690e+003;2.720936e-002
2.034618e+003;2.737643e-002
2.036547e+003;2.751151e-002
2.038475e+003;2.765443e-002
2.040404e+003;2.772848e-002
2.042332e+003;2.771799e-002
2.044261e+003;2.771156e-002
2.046189e+003;2.758893e-002
2.048118e+003;2.745097e-002
2.050047e+003;2.733115e-002
2.051975e+003;2.719899e-002
2.053904e+003;2.723720e-002
2.055832e+003;2.757106e-002
2.057761e+003;2.778394e-002
2.059689e+003;2.791412e-002
2.061618e+003;2.808478e-002
2.063546e+003;2.800137e-002
2.065475e+003;2.784477e-002
2.067404e+003;2.798822e-002
2.069332e+003;2.820484e-002
2.071260e+003;2.825745e-002
2.073189e+003;2.820250e-002
2.075118e+003;2.816227e-002
2.077046e+003;2.817401e-002
2.078975e+003;2.805693e-002
2.080903e+003;2.788497e-002
2.082832e+003;2.771460e-002
2.084760e+003;2.756283e-002
2.086689e+003;2.766746e-002
2.088617e+003;2.774046e-002
2.090546e+003;2.759719e-002
2.092475e+003;2.738059e-002
2.094403e+003;2.731785e-002
2.096332e+003;2.745227e-002
2.098260e+003;2.759973e-002
2.100189e+003;2.756605e-002
2.102117e+003;2.743688e-002
2.104046e+003;2.751052e-002
2.105974e+003;2.748245e-002
2.107903e+003;2.740000e-002
2.109832e+003;2.767975e-002
2.111760e+003;2.798084e-002
2.113688e+003;2.804028e-002
2.115617e+003;2.819593e-002
2.117546e+003;2.838329e-002
2.119474e+003;2.839698e-002
2.121403e+003;2.824108e-002
2.123331e+003;2.810454e-002
2.125260e+003;2.807902e-002
2.127188e+003;2.830201e-002
2.129117e+003;2.863538e-002
2.131045e+003;2.865924e-002
2.132974e+003;2.856726e-002
2.134903e+003;2.829798e-002
2.136831e+003;2.825158e-002
2.138760e+003;2.831602e-002
2.140688e+003;2.831580e-002
2.142617e+003;2.841901e-002
2.144545e+003;2.869198e-002
2.146474e+003;2.870816e-002
2.148402e+003;2.838187e-002
2.150331e+003;2.837016e-002
2.152260e+003;2.860679e-002
2.154188e+003;2.879716e-002
2.156117e+003;2.871634e-002
2.158045e+003;2.848931e-002
2.159974e+003;2.849055e-002
2.161902e+003;2.856284e-002
2.163831e+003;2.854430e-002
2.165759e+003;2.896753e-002
2.167688e+003;2.941177e-002
2.169616e+003;2.935094e-002
2.171545e+003;2.935370e-002
2.173474e+003;2.929237e-002
2.175402e+003;2.927979e-002
2.177331e+003;2.941681e-002
2.179259e+003;2.948762e-002
2.181188e+003;2.952358e-002
2.183116e+003;2.952436e-002
2.185045e+003;2.958696e-002
2.186973e+003;2.955355e-002
2.188902e+003;2.961480e-002
2.190831e+003;2.967536e-002
2.192759e+003;2.962676e-002
2.194688e+003;2.965819e-002
2.196616e+003;2.958703e-002
2.198545e+003;2.934250e-002
2.200473e+003;2.939217e-002
2.202402e+003;2.955135e-002
2.204330e+003;2.951879e-002
2.206259e+003;2.953078e-002
2.208188e+003;2.937742e-002
2.210116e+003;2.918577e-002
2.212044e+003;2.907904e-002
2.213973e+003;2.896037e-002
2.215902e+003;2.886822e-002
2.217830e+003;2.871676e-002
2.219759e+003;2.875850e-002
2.221687e+003;2.901758e-002
2.223616e+003;2.910459e-002
2.225544e+003;2.887184e-002
2.227473e+003;2.863305e-002
2.229401e+003;2.856584e-002
2.231330e+003;2.871743e-002
2.233259e+003;2.883982e-002
2.235187e+003;2.871570e-002
2.237116e+003;2.860934e-002
2.239044e+003;2.867212e-002
2.240973e+003;2.855721e-002
2.242901e+003;2.838941e-002
2.244830e+003;2.860527e-002
2.246758e+003;2.864335e-002
2.248687e+003;2.827213e-002
2.250615e+003;2.821760e-002
2.252544e+003;2.847551e-002
2.254473e+003;2.872345e-002
2.256401e+003;2.892226e-002
2.258330e+003;2.896590e-002
2.260258e+003;2.894688e-002
2.262187e+003;2.895162e-002
2.264115e+003;2.898017e-002
2.266044e+003;2.909594e-002
2.267972e+003;2.905934e-002
2.269901e+003;2.892602e-002
2.271830e+003;2.904432e-002
2.273758e+003;2.917942e-002
2.275687e+003;2.918247e-002
2.277615e+003;2.931790e-002
2.279544e+003;2.946010e-002
2.281472e+003;2.941188e-002
2.283401e+003;2.930833e-002
2.285329e+003;2.952535e-002
2.287258e+003;2.967550e-002
2.289187e+003;2.945794e-002
2.291115e+003;2.926239e-002
2.293043e+003;2.949422e-002
2.294972e+003;2.979259e-002
2.296901e+003;2.989534e-002
2.298829e+003;2.982528e-002
2.300758e+003;2.973433e-002
2.302686e+003;2.978915e-002
2.304615e+003;2.973940e-002
2.306543e+003;2.954195e-002
2.308472e+003;2.968512e-002
2.310400e+003;2.979227e-002
2.312329e+003;2.969452e-002
2.314258e+003;2.974263e-002
2.316186e+003;3.008173e-002
2.318115e+003;3.019172e-002
2.320043e+003;3.012921e-002
2.321972e+003;3.001867e-002
2.323900e+003;2.994354e-002
2.325829e+003;3.000471e-002
2.327757e+003;3.010865e-002
2.329686e+003;3.010052e-002
2.331615e+003;3.001057e-002
2.333543e+003;3.009355e-002
2.335472e+003;3.006270e-002
2.337400e+003;2.997361e-002
2.339329e+003;2.996484e-002
2.341257e+003;2.986467e-002
2.343186e+003;2.962548e-002
2.345114e+003;2.968437e-002
2.347043e+003;2.968590e-002
2.348971e+003;2.967497e-002
2.350900e+003;2.966351e-002
2.352829e+003;2.962520e-002
2.354757e+003;2.974547e-002
2.356686e+003;2.962633e-002
2.358614e+003;2.959370e-002
2.360543e+003;2.961186e-002
2.362471e+003;2.947673e-002
2.364400e+003;2.948276e-002
2.366328e+003;2.969044e-002
2.368257e+003;2.986545e-002
2.370186e+003;2.986836e-002
2.372114e+003;2.994205e-002
2.374042e+003;2.991593e-002
2.375971e+003;2.988501e-002
2.377900e+003;3.002165e-002
2.379828e+003;3.014874e-002
2.381757e+003;3.031385e-002
2.383685e+003;3.031112e-002
2.385614e+003;3.045489e-002
2.387542e+003;3.043506e-002
2.389471e+003;3.015393e-002
2.391399e+003;2.989080e-002
2.393328e+003;3.002698e-002
2.395257e+003;3.033904e-002
2.397185e+003;3.035795e-002
2.399114e+003;3.024397e-002
2.401042e+003;3.018692e-002
2.402971e+003;3.019829e-002
2.404899e+003;3.024951e-002
2.406828e+003;3.023196e-002
2.408756e+003;3.020671e-002
2.410685e+003;3.016480e-002
2.412614e+003;3.038431e-002
2.414542e+003;3.048713e-002
2.416471e+003;3.050518e-002
2.418399e+003;3.065695e-002
2.420328e+003;3.059317e-002
2.422256e+003;3.048379e-002
2.424185e+003;3.052015e-002
2.426113e+003;3.066737e-002
2.428042e+003;3.076730e-002
2.429970e+003;3.087907e-002
2.431899e+003;3.100666e-002
2.433828e+003;3.116248e-002
2.435756e+003;3.106253e-002
2.437685e+003;3.110734e-002
2.439613e+003;3.127136e-002
2.441542e+003;3.140406e-002
2.443470e+003;3.145617e-002
2.445399e+003;3.166144e-002
2.447327e+003;3.186428e-002
2.449256e+003;3.172349e-002
2.451185e+003;3.176994e-002
2.453113e+003;3.202087e-002
2.455042e+003;3.208426e-002
2.456970e+003;3.193007e-002
2.458899e+003;3.209743e-002
2.460827e+003;3.225925e-002
2.462756e+003;3.233063e-002
2.464684e+003;3.261228e-002
2.466613e+003;3.264975e-002
2.468542e+003;3.266675e-002
2.470470e+003;3.279652e-002
2.472398e+003;3.300439e-002
2.474327e+003;3.297425e-002
2.476256e+003;3.284905e-002
2.478184e+003;3.284347e-002
2.480113e+003;3.283068e-002
2.482041e+003;3.285502e-002
2.483970e+003;3.303986e-002
2.485898e+003;3.312564e-002
2.487827e+003;3.291577e-002
2.489755e+003;3.283979e-002
2.491684e+003;3.298888e-002
2.493613e+003;3.295846e-002
2.495541e+003;3.305330e-002
2.497470e+003;3.304332e-002
2.499398e+003;3.288879e-002
2.501327e+003;3.285688e-002
2.503255e+003;3.303238e-002
2.505184e+003;3.323132e-002
2.507112e+003;3.316880e-002
2.509041e+003;3.322950e-002
2.510969e+003;3.360838e-002
2.512898e+003;3.386074e-002
2.514827e+003;3.391214e-002
2.516755e+003;3.398237e-002
2.518684e+003;3.433652e-002
2.520612e+003;3.459016e-002
2.522541e+003;3.459669e-002
2.524469e+003;3.450266e-002
2.526398e+003;3.470482e-002
2.528326e+003;3.487885e-002
2.530255e+003;3.503104e-002
2.532184e+003;3.527157e-002
2.534112e+003;3.551986e-002
2.536041e+003;3.565134e-002
2.537969e+003;3.568044e-002
2.539898e+003;3.565106e-002
2.541826e+003;3.565473e-002
2.543755e+003;3.591986e-002
2.545683e+003;3.615985e-002
2.547612e+003;3.615160e-002
2.549541e+003;3.627232e-002
2.551469e+003;3.650468e-002
2.553397e+003;3.657291e-002
2.555326e+003;3.644021e-002
2.557255e+003;3.645480e-002
2.559183e+003;3.644443e-002
2.561112e+003;3.619805e-002
2.563040e+003;3.626649e-002
2.564969e+003;3.650331e-002
2.566897e+003;3.661378e-002
2.568826e+003;3.658484e-002
2.570754e+003;3.670666e-002
2.572683e+003;3.701086e-002
2.574612e+003;3.716864e-002
2.576540e+003;3.724137e-002
2.578469e+003;3.725827e-002
2.580397e+003;3.740118e-002
2.582326e+003;3.764799e-002
2.584254e+003;3.758884e-002
2.586183e+003;3.751677e-002
2.588111e+003;3.784352e-002
2.590040e+003;3.819986e-002
2.591969e+003;3.808272e-002
2.593897e+003;3.781503e-002
2.595826e+003;3.776638e-002
2.597754e+003;3.799780e-002
2.599683e+003;3.824823e-002
2.601611e+003;3.815040e-002
2.603540e+003;3.813336e-002
2.605468e+003;3.826184e-002
2.607397e+003;3.847488e-002
2.609325e+003;3.864923e-002
2.611254e+003;3.872472e-002
2.613183e+003;3.877587e-002
2.615111e+003;3.881268e-002
2.617040e+003;3.870773e-002
2.618968e+003;3.858875e-002
2.620897e+003;3.861628e-002
2.622825e+003;3.879543e-002
2.624754e+003;3.901019e-002
2.626682e+003;3.906094e-002
2.628611e+003;3.905097e-002
2.630540e+003;3.907819e-002
2.632468e+003;3.932138e-002
2.634396e+003;3.963748e-002
2.636325e+003;3.960750e-002
2.638254e+003;3.960521e-002
2.640182e+003;3.964499e-002
2.642111e+003;3.968333e-002
2.644039e+003;3.975957e-002
2.645968e+003;3.968906e-002
2.647896e+003;3.974610e-002
2.649825e+003;3.989569e-002
2.651753e+003;4.007552e-002
2.653682e+003;4.018011e-002
2.655611e+003;4.013621e-002
2.657539e+003;4.011756e-002
2.659468e+003;4.024983e-002
2.661396e+003;4.034889e-002
2.663325e+003;4.040373e-002
2.665253e+003;4.055034e-002
2.667182e+003;4.060251e-002
2.669110e+003;4.053637e-002
2.671039e+003;4.080199e-002
2.672968e+003;4.122048e-002
2.674896e+003;4.140761e-002
2.676825e+003;4.122172e-002
2.678753e+003;4.109226e-002
2.680682e+003;4.138898e-002
2.682610e+003;4.156568e-002
2.684539e+003;4.165090e-002
2.686467e+003;4.190480e-002
2.688396e+003;4.194465e-002
2.690324e+003;4.193775e-002
2.692253e+003;4.253859e-002
2.694182e+003;4.309704e-002
2.696110e+003;4.308705e-002
2.698039e+003;4.317220e-002
2.699967e+003;4.357716e-002
2.701896e+003;4.356408e-002
2.703824e+003;4.351189e-002
2.705753e+003;4.374009e-002
2.707681e+003;4.387438e-002
2.709610e+003;4.410797e-002
2.711539e+003;4.446076e-002
2.713467e+003;4.456076e-002
2.715396e+003;4.487544e-002
2.717324e+003;4.534020e-002
2.719253e+003;4.585646e-002
2.721181e+003;4.636213e-002
2.723110e+003;4.633559e-002
2.725038e+003;4.643026e-002
2.726967e+003;4.659626e-002
2.728896e+003;4.669730e-002
2.730824e+003;4.673582e-002
2.732752e+003;4.705925e-002
2.734681e+003;4.766826e-002
2.736610e+003;4.808613e-002
2.738538e+003;4.839767e-002
2.740467e+003;4.872496e-002
2.742395e+003;4.884141e-002
2.744324e+003;4.878954e-002
2.746252e+003;4.876734e-002
2.748181e+003;4.883292e-002
2.750109e+003;4.886069e-002
2.752038e+003;4.869854e-002
2.753967e+003;4.871726e-002
2.755895e+003;4.896779e-002
2.757824e+003;4.910360e-002
2.759752e+003;4.911168e-002
2.761681e+003;4.915294e-002
2.763609e+003;4.936193e-002
2.765538e+003;4.954884e-002
2.767466e+003;4.980547e-002
2.769395e+003;5.004819e-002
2.771323e+003;5.022960e-002
2.773252e+003;5.026736e-002
2.775181e+003;5.043952e-002
2.777109e+003;5.084699e-002
2.779038e+003;5.147129e-002
2.780966e+003;5.168830e-002
2.782895e+003;5.165632e-002
2.784823e+003;5.194175e-002
2.786752e+003;5.230626e-002
2.788680e+003;5.265597e-002
2.790609e+003;5.294742e-002
2.792538e+003;5.333878e-002
2.794466e+003;5.378978e-002
2.796395e+003;5.393288e-002
2.798323e+003;5.406555e-002
2.800252e+003;5.443805e-002
2.802180e+003;5.493930e-002
2.804109e+003;5.558627e-002
2.806037e+003;5.619130e-002
2.807966e+003;5.669922e-002
2.809895e+003;5.722305e-002
2.811823e+003;5.759218e-002
2.813751e+003;5.793208e-002
2.815680e+003;5.850043e-002
2.817609e+003;5.950489e-002
2.819537e+003;6.037157e-002
2.821466e+003;6.081896e-002
2.823394e+003;6.137755e-002
2.825323e+003;6.220037e-002
2.827251e+003;6.276626e-002
2.829180e+003;6.328569e-002
2.831108e+003;6.409194e-002
2.833037e+003;6.513461e-002
2.834966e+003;6.649273e-002
2.836894e+003;6.836148e-002
2.838823e+003;7.059596e-002
2.840751e+003;7.317749e-002
2.842680e+003;7.644012e-002
2.844608e+003;8.026384e-002
2.846537e+003;8.400913e-002
2.848465e+003;8.816869e-002
2.850394e+003;9.303764e-002
2.852323e+003;9.745458e-002
2.854251e+003;1.012249e-001
2.856180e+003;1.042887e-001
2.858108e+003;1.065100e-001
2.860037e+003;1.082281e-001
2.861965e+003;1.093313e-001
2.863894e+003;1.091944e-001
2.865822e+003;1.076867e-001
2.867751e+003;1.052217e-001
2.869679e+003;1.024563e-001
2.871608e+003;1.000752e-001
2.873536e+003;9.745740e-002
2.875465e+003;9.464084e-002
2.877394e+003;9.200736e-002
2.879322e+003;8.967691e-002
2.881251e+003;8.796107e-002
2.883179e+003;8.678500e-002
2.885108e+003;8.614901e-002
2.887036e+003;8.630452e-002
2.888965e+003;8.734650e-002
2.890893e+003;8.876333e-002
2.892822e+003;9.059381e-002
2.894750e+003;9.253966e-002
2.896679e+003;9.407420e-002
2.898608e+003;9.519470e-002
2.900536e+003;9.670525e-002
2.902465e+003;9.826848e-002
2.904393e+003;9.939796e-002
2.906322e+003;1.005109e-001
2.908250e+003;1.021453e-001
2.910179e+003;1.041132e-001
2.912107e+003;1.064521e-001
2.914036e+003;1.086589e-001
2.915965e+003;1.106701e-001
2.917893e+003;1.132144e-001
2.919822e+003;1.167386e-001
2.921750e+003;1.203843e-001
2.923679e+003;1.237593e-001
2.925607e+003;1.270831e-001
2.927536e+003;1.300770e-001
2.929464e+003;1.326438e-001
2.931393e+003;1.346240e-001
2.933322e+003;1.351761e-001
2.935250e+003;1.348996e-001
2.937178e+003;1.338946e-001
2.939107e+003;1.320892e-001
2.941036e+003;1.297114e-001
2.942964e+003;1.267051e-001
2.944893e+003;1.229388e-001
2.946821e+003;1.180657e-001
2.948750e+003;1.122388e-001
2.950678e+003;1.064198e-001
2.952607e+003;1.007692e-001
2.954535e+003;9.535682e-002
2.956464e+003;8.987553e-002
2.958393e+003;8.511937e-002
2.960321e+003;8.120000e-002
2.962250e+003;7.767238e-002
2.964178e+003;7.465699e-002
2.966107e+003;7.179102e-002
2.968035e+003;6.938615e-002
2.969964e+003;6.712680e-002
2.971892e+003;6.463919e-002
2.973821e+003;6.232210e-002
2.975750e+003;6.027959e-002
2.977678e+003;5.856598e-002
2.979607e+003;5.681564e-002
2.981535e+003;5.531785e-002
2.983464e+003;5.463212e-002
2.985392e+003;5.382357e-002
2.987321e+003;5.285670e-002
2.989249e+003;5.206381e-002
2.991178e+003;5.144298e-002
2.993106e+003;5.101579e-002
2.995035e+003;5.070959e-002
2.996964e+003;5.016102e-002
2.998892e+003;4.940878e-002
3.000821e+003;4.890604e-002
3.002749e+003;4.898938e-002
3.004678e+003;4.958706e-002
3.006606e+003;4.998213e-002
3.008535e+003;4.991994e-002
3.010463e+003;4.966975e-002
3.012392e+003;4.958342e-002
3.014321e+003;4.992198e-002
3.016249e+003;5.017854e-002
3.018177e+003;5.045135e-002
3.020106e+003;5.096307e-002
3.022035e+003;5.153605e-002
3.023963e+003;5.189056e-002
3.025892e+003;5.193238e-002
3.027820e+003;5.222401e-002
3.029749e+003;5.297257e-002
3.031677e+003;5.367125e-002
3.033606e+003;5.419485e-002
3.035534e+003;5.459350e-002
3.037463e+003;5.491501e-002
3.039392e+003;5.510531e-002
3.041320e+003;5.559542e-002
3.043249e+003;5.646139e-002
3.045177e+003;5.735926e-002
3.047106e+003;5.808170e-002
3.049034e+003;5.857656e-002
3.050963e+003;5.944192e-002
3.052891e+003;6.041684e-002
3.054820e+003;6.111445e-002
3.056749e+003;6.183354e-002
3.058677e+003;6.235094e-002
3.060606e+003;6.266481e-002
3.062534e+003;6.306840e-002
3.064463e+003;6.358390e-002
3.066391e+003;6.414233e-002
3.068320e+003;6.463072e-002
3.070248e+003;6.468006e-002
3.072177e+003;6.460270e-002
3.074105e+003;6.437510e-002
3.076034e+003;6.421385e-002
3.077963e+003;6.437322e-002
3.079891e+003;6.445009e-002
3.081820e+003;6.437280e-002
3.083748e+003;6.427002e-002
3.085677e+003;6.427540e-002
3.087605e+003;6.355325e-002
3.089534e+003;6.286328e-002
3.091462e+003;6.243119e-002
3.093391e+003;6.191232e-002
3.095320e+003;6.109260e-002
3.097248e+003;6.035528e-002
3.099177e+003;6.001978e-002
3.101105e+003;5.957629e-002
3.103034e+003;5.888635e-002
3.104962e+003;5.827479e-002
3.106891e+003;5.777597e-002
3.108819e+003;5.704682e-002
3.110748e+003;5.624274e-002
3.112677e+003;5.568781e-002
3.114605e+003;5.537638e-002
3.116533e+003;5.528745e-002
3.118462e+003;5.511561e-002
3.120391e+003;5.470074e-002
3.122319e+003;5.432197e-002
3.124248e+003;5.422721e-002
3.126176e+003;5.397621e-002
3.128105e+003;5.377849e-002
3.130033e+003;5.396855e-002
3.131962e+003;5.371501e-002
3.133890e+003;5.349323e-002
3.135819e+003;5.370447e-002
3.137748e+003;5.368478e-002
3.139676e+003;5.354154e-002
3.141605e+003;5.358596e-002
3.143533e+003;5.352569e-002
3.145462e+003;5.360261e-002
3.147390e+003;5.398123e-002
3.149319e+003;5.429918e-002
3.151247e+003;5.474084e-002
3.153176e+003;5.510598e-002
3.155104e+003;5.518389e-002
3.157033e+003;5.558936e-002
3.158962e+003;5.615186e-002
3.160890e+003;5.660639e-002
3.162819e+003;5.698376e-002
3.164747e+003;5.742665e-002
3.166676e+003;5.760958e-002
3.168604e+003;5.762607e-002
3.170533e+003;5.848026e-002
3.172461e+003;5.947498e-002
3.174390e+003;5.965345e-002
3.176319e+003;5.995595e-002
3.178247e+003;6.044720e-002
3.180176e+003;6.106662e-002
3.182104e+003;6.199720e-002
3.184033e+003;6.275910e-002
3.185961e+003;6.303936e-002
3.187890e+003;6.333882e-002
3.189818e+003;6.387944e-002
3.191747e+003;6.451020e-002
3.193676e+003;6.509943e-002
3.195604e+003;6.523910e-002
3.197532e+003;6.563426e-002
3.199461e+003;6.629622e-002
3.201390e+003;6.668918e-002
3.203318e+003;6.729885e-002
3.205247e+003;6.756565e-002
3.207175e+003;6.755736e-002
3.209104e+003;6.788684e-002
3.211032e+003;6.833754e-002
3.212961e+003;6.877552e-002
3.214889e+003;6.954000e-002
3.216818e+003;7.037542e-002
3.218747e+003;7.082618e-002
3.220675e+003;7.146322e-002
3.222604e+003;7.248311e-002
3.224532e+003;7.353374e-002
3.226461e+003;7.461347e-002
3.228389e+003;7.550023e-002
3.230318e+003;7.624605e-002
3.232246e+003;7.720359e-002
3.234175e+003;7.812222e-002
3.236104e+003;7.947572e-002
3.238032e+003;8.122781e-002
3.239961e+003;8.283106e-002
3.241889e+003;8.429512e-002
3.243818e+003;8.573822e-002
3.245746e+003;8.747151e-002
3.247675e+003;8.970632e-002
3.249603e+003;9.163719e-002
3.251532e+003;9.320052e-002
3.253460e+003;9.458918e-002
3.255389e+003;9.598937e-002
3.257318e+003;9.820949e-002
3.259246e+003;1.007431e-001
3.261175e+003;1.030544e-001
3.263103e+003;1.054583e-001
3.265032e+003;1.077815e-001
3.266960e+003;1.094051e-001
3.268889e+003;1.105559e-001
3.270817e+003;1.124234e-001
3.272746e+003;1.148532e-001
3.274675e+003;1.168650e-001
3.276603e+003;1.184685e-001
3.278531e+003;1.206504e-001
3.280460e+003;1.224444e-001
3.282389e+003;1.237229e-001
3.284317e+003;1.251175e-001
3.286246e+003;1.265732e-001
3.288174e+003;1.280157e-001
3.290103e+003;1.286462e-001
3.292031e+003;1.284316e-001
3.293960e+003;1.283609e-001
3.295888e+003;1.280869e-001
3.297817e+003;1.272587e-001
3.299746e+003;1.255878e-001
3.301674e+003;1.234817e-001
3.303603e+003;1.211651e-001
3.305531e+003;1.185835e-001
3.307460e+003;1.160399e-001
3.309388e+003;1.133196e-001
3.311317e+003;1.105181e-001
3.313245e+003;1.082125e-001
3.315174e+003;1.055640e-001
3.317103e+003;1.025242e-001
3.319031e+003;1.001590e-001
3.320960e+003;9.779082e-002
3.322888e+003;9.530070e-002
3.324817e+003;9.280520e-002
3.326745e+003;9.017100e-002
3.328674e+003;8.796074e-002
3.330602e+003;8.620118e-002
3.332531e+003;8.389942e-002
3.334459e+003;8.131722e-002
3.336388e+003;7.915650e-002
3.338317e+003;7.721443e-002
3.340245e+003;7.557810e-002
3.342174e+003;7.389721e-002
3.344102e+003;7.204549e-002
3.346031e+003;7.022972e-002
3.347959e+003;6.862209e-002
3.349888e+003;6.730733e-002
3.351816e+003;6.587258e-002
3.353745e+003;6.402513e-002
3.355674e+003;6.226538e-002
3.357602e+003;6.110690e-002
3.359531e+003;6.011220e-002
3.361459e+003;5.890343e-002
3.363388e+003;5.778096e-002
3.365316e+003;5.707455e-002
3.367245e+003;5.648045e-002
3.369173e+003;5.572774e-002
3.371102e+003;5.496521e-002
3.373031e+003;5.403215e-002
3.374959e+003;5.325303e-002
3.376887e+003;5.265881e-002
3.378816e+003;5.199407e-002
3.380745e+003;5.149908e-002
3.382673e+003;5.088181e-002
3.384602e+003;5.030902e-002
3.386530e+003;4.999172e-002
3.388459e+003;4.943982e-002
3.390387e+003;4.881728e-002
3.392316e+003;4.803545e-002
3.394244e+003;4.752558e-002
3.396173e+003;4.750939e-002
3.398102e+003;4.712879e-002
3.400030e+003;4.685089e-002
3.401959e+003;4.656266e-002
3.403887e+003;4.613048e-002
3.405816e+003;4.567017e-002
3.407744e+003;4.541469e-002
3.409673e+003;4.507297e-002
3.411601e+003;4.494984e-002
3.413530e+003;4.489264e-002
3.415458e+003;4.483242e-002
3.417387e+003;4.436412e-002
3.419316e+003;4.413629e-002
3.421244e+003;4.413574e-002
3.423173e+003;4.358723e-002
3.425101e+003;4.340411e-002
3.427030e+003;4.355653e-002
3.428958e+003;4.338723e-002
3.430887e+003;4.327139e-002
3.432815e+003;4.340616e-002
3.434744e+003;4.318249e-002
3.436673e+003;4.286998e-002
3.438601e+003;4.296453e-002
3.440530e+003;4.276280e-002
3.442458e+003;4.280014e-002
3.444387e+003;4.268826e-002
3.446315e+003;4.222647e-002
3.448244e+003;4.208831e-002
3.450172e+003;4.175426e-002
3.452101e+003;4.130407e-002
3.454030e+003;4.143392e-002
3.455958e+003;4.124624e-002
3.457886e+003;4.078660e-002
3.459815e+003;4.054532e-002
3.461744e+003;4.003944e-002
3.463672e+003;3.957991e-002
3.465601e+003;3.931003e-002
3.467529e+003;3.945460e-002
3.469458e+003;3.955066e-002
3.471386e+003;3.932562e-002
3.473315e+003;3.877515e-002
3.475243e+003;3.831981e-002
3.477172e+003;3.841356e-002
3.479101e+003;3.830212e-002
3.481029e+003;3.810659e-002
3.482958e+003;3.822678e-002
3.484886e+003;3.857815e-002
3.486815e+003;3.838471e-002
3.488743e+003;3.789920e-002
3.490672e+003;3.801664e-002
3.492600e+003;3.816223e-002
3.494529e+003;3.778348e-002
3.496458e+003;3.747573e-002
3.498386e+003;3.740169e-002
3.500315e+003;3.753085e-002
3.502243e+003;3.745092e-002
3.504172e+003;3.716301e-002
3.506100e+003;3.704579e-002
3.508029e+003;3.712381e-002
3.509957e+003;3.701519e-002
3.511886e+003;3.687193e-002
3.513814e+003;3.674834e-002
3.515743e+003;3.631840e-002
3.517672e+003;3.591979e-002
3.519600e+003;3.538048e-002
3.521529e+003;3.528990e-002
3.523457e+003;3.520104e-002
3.525386e+003;3.494143e-002
3.527314e+003;3.491587e-002
3.529243e+003;3.488520e-002
3.531171e+003;3.487203e-002
3.533100e+003;3.477617e-002
3.535029e+003;3.431077e-002
3.536957e+003;3.399520e-002
3.538885e+003;3.385461e-002
3.540814e+003;3.342910e-002
3.542743e+003;3.293576e-002
3.544671e+003;3.303918e-002
3.546600e+003;3.323304e-002
3.548528e+003;3.295238e-002
3.550457e+003;3.222377e-002
3.552385e+003;3.193535e-002
3.554314e+003;3.193849e-002
3.556242e+003;3.172464e-002
3.558171e+003;3.152753e-002
3.560100e+003;3.097819e-002
3.562028e+003;3.036925e-002
3.563957e+003;2.998245e-002
3.565885e+003;2.978564e-002
3.567814e+003;2.974746e-002
3.569742e+003;2.978141e-002
3.571671e+003;2.968866e-002
3.573599e+003;2.946783e-002
3.575528e+003;2.907405e-002
3.577457e+003;2.882251e-002
3.579385e+003;2.863917e-002
3.581314e+003;2.829862e-002
3.583242e+003;2.768896e-002
3.585171e+003;2.698933e-002
3.587099e+003;2.679038e-002
3.589028e+003;2.678005e-002
3.590956e+003;2.644327e-002
3.592885e+003;2.654692e-002
3.594813e+003;2.658926e-002
3.596742e+003;2.643672e-002
3.598671e+003;2.649627e-002
3.600599e+003;2.613712e-002
3.602528e+003;2.572852e-002
3.604456e+003;2.571126e-002
3.606385e+003;2.552466e-002
3.608313e+003;2.482640e-002
3.610242e+003;2.430324e-002
3.612170e+003;2.427159e-002
3.614099e+003;2.429900e-002
3.616028e+003;2.445916e-002
3.617956e+003;2.432626e-002
3.619885e+003;2.364759e-002
3.621813e+003;2.326785e-002
3.623742e+003;2.299761e-002
3.625670e+003;2.270913e-002
3.627599e+003;2.256011e-002
3.629527e+003;2.259694e-002
3.631456e+003;2.265509e-002
3.633385e+003;2.234351e-002
3.635313e+003;2.222136e-002
3.637241e+003;2.181064e-002
3.639170e+003;2.141733e-002
3.641099e+003;2.133442e-002
3.643027e+003;2.114813e-002
3.644956e+003;2.088139e-002
3.646884e+003;2.065836e-002
3.648813e+003;2.030275e-002
3.650741e+003;2.042547e-002
3.652670e+003;2.049858e-002
3.654598e+003;2.036983e-002
3.656527e+003;2.020509e-002
3.658456e+003;2.011447e-002
3.660384e+003;2.036483e-002
3.662313e+003;2.041505e-002
3.664241e+003;2.026952e-002
3.666170e+003;1.999306e-002
3.668098e+003;1.952773e-002
3.670027e+003;1.949418e-002
3.671955e+003;1.981778e-002
3.673884e+003;1.963678e-002
3.675813e+003;1.935112e-002
3.677741e+003;1.927151e-002
3.679669e+003;1.901877e-002
3.681598e+003;1.873728e-002
3.683527e+003;1.881817e-002
3.685455e+003;1.925201e-002
3.687384e+003;1.889721e-002
3.689312e+003;1.839811e-002
3.691241e+003;1.834816e-002
3.693169e+003;1.813841e-002
3.695098e+003;1.786857e-002
3.697026e+003;1.782787e-002
3.698955e+003;1.776421e-002
3.700884e+003;1.764259e-002
3.702812e+003;1.758221e-002
3.704741e+003;1.757624e-002
3.706669e+003;1.751186e-002
3.708598e+003;1.731934e-002
3.710526e+003;1.749561e-002
3.712455e+003;1.750165e-002
3.714383e+003;1.728741e-002
3.716312e+003;1.726379e-002
3.718240e+003;1.727807e-002
3.720169e+003;1.727021e-002
3.722098e+003;1.741338e-002
3.724026e+003;1.718671e-002
3.725955e+003;1.699585e-002
3.727883e+003;1.708462e-002
3.729812e+003;1.679773e-002
3.731740e+003;1.643092e-002
3.733669e+003;1.644007e-002
3.735597e+003;1.669532e-002
3.737526e+003;1.729382e-002
3.739455e+003;1.757689e-002
3.741383e+003;1.719353e-002
3.743312e+003;1.658842e-002
3.745240e+003;1.667583e-002
3.747169e+003;1.752680e-002
3.749097e+003;1.769018e-002
3.751026e+003;1.697490e-002
3.752954e+003;1.682515e-002
3.754883e+003;1.730596e-002
3.756812e+003;1.743435e-002
3.758740e+003;1.721680e-002
3.760668e+003;1.732634e-002
3.762597e+003;1.788093e-002
3.764526e+003;1.812113e-002
3.766454e+003;1.795372e-002
3.768383e+003;1.763348e-002
3.770311e+003;1.731017e-002
3.772240e+003;1.715751e-002
3.774168e+003;1.721960e-002
3.776097e+003;1.741400e-002
3.778025e+003;1.734672e-002
3.779954e+003;1.725093e-002
3.781883e+003;1.736669e-002
3.783811e+003;1.707662e-002
3.785740e+003;1.728379e-002
3.787668e+003;1.749172e-002
3.789597e+003;1.725417e-002
3.791525e+003;1.714989e-002
3.793454e+003;1.730617e-002
3.795382e+003;1.752608e-002
3.797311e+003;1.744222e-002
3.799240e+003;1.716492e-002
3.801168e+003;1.717133e-002
3.803097e+003;1.714011e-002
3.805025e+003;1.681964e-002
3.806954e+003;1.658356e-002
3.808882e+003;1.701869e-002
3.810811e+003;1.746246e-002
3.812739e+003;1.782466e-002
3.814668e+003;1.793556e-002
3.816596e+003;1.783056e-002
3.818525e+003;1.798819e-002
3.820454e+003;1.787496e-002
3.822382e+003;1.790838e-002
3.824311e+003;1.802773e-002
3.826239e+003;1.802127e-002
3.828168e+003;1.823712e-002
3.830096e+003;1.877267e-002
3.832025e+003;1.890375e-002
3.833953e+003;1.871116e-002
3.835882e+003;1.817340e-002
3.837811e+003;1.752859e-002
3.839739e+003;1.789972e-002
3.841667e+003;1.824852e-002
3.843596e+003;1.809229e-002
3.845525e+003;1.866139e-002
3.847453e+003;1.928086e-002
3.849382e+003;1.917284e-002
3.851310e+003;1.841128e-002
3.853239e+003;1.766927e-002
3.855167e+003;1.806106e-002
3.857096e+003;1.897993e-002
3.859024e+003;1.898079e-002
3.860953e+003;1.902424e-002
3.862882e+003;1.930019e-002
3.864810e+003;1.914483e-002
3.866739e+003;1.857769e-002
3.868667e+003;1.804003e-002
3.870596e+003;1.854141e-002
3.872524e+003;1.890237e-002
3.874453e+003;1.891565e-002
3.876381e+003;1.944553e-002
3.878310e+003;1.945052e-002
3.880239e+003;1.881215e-002
3.882167e+003;1.836406e-002
3.884096e+003;1.830219e-002
3.886024e+003;1.871071e-002
3.887953e+003;1.917125e-002
3.889881e+003;1.894653e-002
3.891810e+003;1.853401e-002
3.893738e+003;1.861718e-002
3.895667e+003;1.876589e-002
3.897595e+003;1.863489e-002
3.899524e+003;1.866979e-002
3.901453e+003;1.893057e-002
3.903381e+003;1.925274e-002
3.905310e+003;1.944394e-002
3.907238e+003;1.941202e-002
3.909167e+003;1.908610e-002
3.911095e+003;1.912959e-002
3.913024e+003;1.940412e-002
3.914952e+003;1.951141e-002
3.916881e+003;1.957989e-002
3.918810e+003;2.002567e-002
3.920738e+003;2.012318e-002
3.922667e+003;1.971010e-002
3.924595e+003;1.966049e-002
3.926524e+003;1.989252e-002
3.928452e+003;2.002466e-002
3.930381e+003;2.070725e-002
3.932309e+003;2.086314e-002
3.934238e+003;2.071639e-002
3.936167e+003;2.080172e-002
3.938095e+003;2.061312e-002
3.940023e+003;2.039841e-002
3.941952e+003;2.005832e-002
3.943881e+003;2.031063e-002
3.945809e+003;2.132099e-002
3.947738e+003;2.158009e-002
3.949666e+003;2.100907e-002
3.951595e+003;2.087294e-002
3.953523e+003;2.107275e-002
3.955452e+003;2.126806e-002
3.957380e+003;2.172139e-002
3.959309e+003;2.232589e-002
3.961238e+003;2.236629e-002
3.963166e+003;2.193664e-002
3.965095e+003;2.170603e-002
3.967023e+003;2.153667e-002
3.968952e+003;2.155318e-002
3.970880e+003;2.197630e-002
3.972809e+003;2.255488e-002
3.974737e+003;2.245731e-002
3.976666e+003;2.233419e-002
3.978594e+003;2.241739e-002
3.980523e+003;2.235359e-002
3.982452e+003;2.224940e-002
3.984380e+003;2.213126e-002
3.986309e+003;2.223482e-002
3.988237e+003;2.270019e-002
3.990166e+003;2.313367e-002
3.992094e+003;2.371379e-002
3.994023e+003;2.376530e-002
3.995951e+003;2.323653e-002
3.997880e+003;2.282789e-002
3.999809e+003;2.279475e-002
4.001737e+003;0.000000e+000
