3.992094e+002;0.000000e+000
4.011380e+002;0.000000e+000
4.030665e+002;0.000000e+000
4.049951e+002;0.000000e+000
4.069236e+002;0.000000e+000
4.088522e+002;0.000000e+000
4.107807e+002;0.000000e+000
4.127093e+002;0.000000e+000
4.146378e+002;0.000000e+000
4.165664e+002;0.000000e+000
4.184949e+002;0.000000e+000
4.204235e+002;0.000000e+000
4.223520e+002;0.000000e+000
4.242806e+002;0.000000e+000
4.262091e+002;0.000000e+000
4.281377e+002;0.000000e+000
4.300662e+002;0.000000e+000
4.319948e+002;0.000000e+000
4.339233e+002;0.000000e+000
4.358519e+002;0.000000e+000
4.377804e+002;0.000000e+000
4.397090e+002;0.000000e+000
4.416375e+002;0.000000e+000
4.435660e+002;0.000000e+000
4.454946e+002;0.000000e+000
4.474232e+002;0.000000e+000
4.493517e+002;0.000000e+000
4.512802e+002;0.000000e+000
4.532088e+002;0.000000e+000
4.551373e+002;0.000000e+000
4.570659e+002;0.000000e+000
4.589944e+002;0.000000e+000
4.609230e+002;0.000000e+000
4.628515e+002;0.000000e+000
4.647801e+002;0.000000e+000
4.667086e+002;0.000000e+000
4.686372e+002;0.000000e+000
4.705657e+002;0.000000e+000
4.724943e+002;0.000000e+000
4.744228e+002;0.000000e+000
4.763513e+002;0.000000e+000
4.782799e+002;0.000000e+000
4.802085e+002;0.000000e+000
4.821370e+002;0.000000e+000
4.840656e+002;0.000000e+000
4.859941e+002;0.000000e+000
4.879226e+002;0.000000e+000
4.898512e+002;0.000000e+000
4.917798e+002;0.000000e+000
4.937083e+002;0.000000e+000
4.956368e+002;0.000000e+000
4.975654e+002;0.000000e+000
4.994939e+002;0.000000e+000
5.014225e+002;0.000000e+000
5.033510e+002;0.000000e+000
5.052796e+002;0.000000e+000
5.072081e+002;0.000000e+000
5.091367e+002;0.000000e+000
5.110652e+002;0.000000e+000
5.129938e+002;0.000000e+000
5.149223e+002;0.000000e+000
5.168509e+002;0.000000e+000
5.187794e+002;0.000000e+000
5.207079e+002;0.000000e+000
5.226365e+002;0.000000e+000
5.245651e+002;0.000000e+000
5.264936e+002;0.000000e+000
5.284222e+002;0.000000e+000
5.303507e+002;0.000000e+000
5.322792e+002;0.000000e+000
5.342078e+002;0.000000e+000
5.361364e+002;0.000000e+000
5.380649e+002;0.000000e+000
5.399935e+002;0.000000e+000
5.419220e+002;0.000000e+000
5.438505e+002;0.000000e+000
5.457791e+002;0.000000e+000
5.477076e+002;0.000000e+000
5.496362e+002;0.000000e+000
5.515648e+002;0.000000e+000
5.534933e+002;0.000000e+000
5.554218e+002;0.000000e+000
5.573504e+002;0.000000e+000
5.592789e+002;0.000000e+000
5.612075e+002;0.000000e+000
5.631360e+002;0.000000e+000
5.650646e+002;0.000000e+000
5.669931e+002;0.000000e+000
5.689217e+002;0.000000e+000
5.708502e+002;0.000000e+000
5.727787e+002;0.000000e+000
5.747073e+002;0.000000e+000
5.766359e+002;0.000000e+000
5.785644e+002;0.000000e+000
5.804930e+002;0.000000e+000
5.824215e+002;0.000000e+000
5.843500e+002;0.000000e+000
5.862786e+002;0.000000e+000
5.882072e+002;0.000000e+000
5.901357e+002;0.000000e+000
5.920643e+002;0.000000e+000
5.939928e+002;0.000000e+000
5.959213e+002;0.000000e+000
5.978499e+002;0.000000e+000
5.997784e+002;1.325788e-001
6.017070e+002;1.313132e-001
6.036355e+002;1.299284e-001
6.055641e+002;1.267448e-001
6.074926e+002;1.227183e-001
6.094211e+002;1.218549e-001
6.113497e+002;1.241015e-001
6.132783e+002;1.255759e-001
6.152068e+002;1.263349e-001
6.171354e+002;1.246326e-001
6.190639e+002;1.238954e-001
6.209924e+002;1.261186e-001
6.229210e+002;1.251624e-001
6.248495e+002;1.253410e-001
6.267781e+002;1.280957e-001
6.287067e+002;1.314755e-001
6.306352e+002;1.291149e-001
6.325637e+002;1.274524e-001
6.344923e+002;1.247235e-001
6.364208e+002;1.256264e-001
6.383494e+002;1.304445e-001
6.402780e+002;1.317253e-001
6.422065e+002;1.312740e-001
6.441350e+002;1.316678e-001
6.460636e+002;1.321947e-001
6.479921e+002;1.357227e-001
6.499207e+002;1.419702e-001
6.518492e+002;1.436363e-001
6.537778e+002;1.421747e-001
6.557063e+002;1.447769e-001
6.576349e+002;1.485165e-001
6.595634e+002;1.512597e-001
6.614919e+002;1.539898e-001
6.634205e+002;1.544935e-001
6.653491e+002;1.550908e-001
6.672776e+002;1.567177e-001
6.692062e+002;1.598031e-001
6.711347e+002;1.616782e-001
6.730632e+002;1.627023e-001
6.749918e+002;1.627010e-001
6.769203e+002;1.637440e-001
6.788489e+002;1.663611e-001
6.807775e+002;1.677370e-001
6.827060e+002;1.694613e-001
6.846345e+002;1.694026e-001
6.865631e+002;1.680480e-001
6.884916e+002;1.664543e-001
6.904202e+002;1.648473e-001
6.923488e+002;1.619036e-001
6.942773e+002;1.587227e-001
6.962058e+002;1.567845e-001
6.981344e+002;1.534332e-001
7.000629e+002;1.497269e-001
7.019915e+002;1.485258e-001
7.039200e+002;1.472605e-001
7.058486e+002;1.446547e-001
7.077771e+002;1.439198e-001
7.097057e+002;1.439078e-001
7.116342e+002;1.418849e-001
7.135627e+002;1.389211e-001
7.154913e+002;1.364008e-001
7.174199e+002;1.352250e-001
7.193484e+002;1.357240e-001
7.212770e+002;1.363459e-001
7.232055e+002;1.368286e-001
7.251340e+002;1.376894e-001
7.270626e+002;1.383125e-001
7.289911e+002;1.367045e-001
7.309197e+002;1.324993e-001
7.328483e+002;1.274589e-001
7.347768e+002;1.216098e-001
7.367053e+002;1.158293e-001
7.386339e+002;1.113031e-001
7.405624e+002;1.079558e-001
7.424910e+002;1.062792e-001
7.444196e+002;1.048139e-001
7.463481e+002;1.026359e-001
7.482766e+002;1.005623e-001
7.502052e+002;9.940462e-002
7.521337e+002;9.778003e-002
7.540623e+002;9.682155e-002
7.559908e+002;9.580161e-002
7.579194e+002;9.348211e-002
7.598479e+002;9.179135e-002
7.617765e+002;9.070159e-002
7.637050e+002;8.959639e-002
7.656335e+002;8.922781e-002
7.675621e+002;8.912642e-002
7.694907e+002;8.817129e-002
7.714192e+002;8.665407e-002
7.733478e+002;8.608781e-002
7.752763e+002;8.545846e-002
7.772048e+002;8.418205e-002
7.791334e+002;8.372469e-002
7.810620e+002;8.310216e-002
7.829905e+002;8.155995e-002
7.849191e+002;7.979383e-002
7.868476e+002;7.849959e-002
7.887761e+002;7.748945e-002
7.907047e+002;7.680583e-002
7.926332e+002;7.660503e-002
7.945618e+002;7.537097e-002
7.964903e+002;7.389265e-002
7.984189e+002;7.273513e-002
8.003474e+002;7.217947e-002
8.022759e+002;7.149158e-002
8.042045e+002;7.024398e-002
8.061331e+002;6.969205e-002
8.080616e+002;6.887370e-002
8.099902e+002;6.789668e-002
8.119187e+002;6.731182e-002
8.138472e+002;6.667118e-002
8.157758e+002;6.652872e-002
8.177043e+002;6.685765e-002
8.196329e+002;6.646798e-002
8.215615e+002;6.559294e-002
8.234900e+002;6.578455e-002
8.254185e+002;6.628966e-002
8.273471e+002;6.683249e-002
8.292756e+002;6.803668e-002
8.312042e+002;6.921063e-002
8.331328e+002;6.969061e-002
8.350613e+002;6.848944e-002
8.369898e+002;6.586313e-002
8.389184e+002;6.391160e-002
8.408469e+002;6.269015e-002
8.427755e+002;6.167430e-002
8.447040e+002;6.071100e-002
8.466326e+002;6.021724e-002
8.485611e+002;5.941814e-002
8.504897e+002;5.861236e-002
8.524182e+002;5.829276e-002
8.543467e+002;5.837571e-002
8.562753e+002;5.847791e-002
8.582039e+002;5.858062e-002
8.601324e+002;5.836347e-002
8.620610e+002;5.769944e-002
8.639895e+002;5.769354e-002
8.659180e+002;5.786924e-002
8.678466e+002;5.763417e-002
8.697751e+002;5.744681e-002
8.717037e+002;5.722925e-002
8.736323e+002;5.740479e-002
8.755608e+002;5.761128e-002
8.774893e+002;5.753778e-002
8.794179e+002;5.797029e-002
8.813464e+002;5.830045e-002
8.832750e+002;5.823566e-002
8.852036e+002;5.823581e-002
8.871321e+002;5.845304e-002
8.890606e+002;5.859647e-002
8.909892e+002;5.866575e-002
8.929177e+002;5.888931e-002
8.948463e+002;5.949976e-002
8.967748e+002;6.013549e-002
8.987034e+002;6.006810e-002
9.006319e+002;5.976636e-002
9.025605e+002;5.965718e-002
9.044890e+002;6.043223e-002
9.064175e+002;6.155398e-002
9.083461e+002;6.186303e-002
9.102747e+002;6.209727e-002
9.122032e+002;6.241409e-002
9.141318e+002;6.270233e-002
9.160603e+002;6.344453e-002
9.179888e+002;6.407700e-002
9.199174e+002;6.463242e-002
9.218459e+002;6.565773e-002
9.237745e+002;6.689468e-002
9.257031e+002;6.861616e-002
9.276316e+002;6.987488e-002
9.295601e+002;6.986270e-002
9.314887e+002;6.889786e-002
9.334172e+002;6.748904e-002
9.353458e+002;6.610253e-002
9.372744e+002;6.526832e-002
9.392029e+002;6.457817e-002
9.411314e+002;6.469679e-002
9.430600e+002;6.568968e-002
9.449885e+002;6.698440e-002
9.469171e+002;6.849568e-002
9.488456e+002;7.009237e-002
9.507742e+002;7.116755e-002
9.527027e+002;7.152200e-002
9.546313e+002;7.207952e-002
9.565598e+002;7.336666e-002
9.584883e+002;7.423004e-002
9.604169e+002;7.394981e-002
9.623455e+002;7.330048e-002
9.642740e+002;7.248519e-002
9.662026e+002;7.187867e-002
9.681311e+002;7.187582e-002
9.700596e+002;7.191233e-002
9.719882e+002;7.223887e-002
9.739167e+002;7.229593e-002
9.758453e+002;7.162230e-002
9.777739e+002;7.043578e-002
9.797024e+002;6.967501e-002
9.816309e+002;6.886450e-002
9.835595e+002;6.780519e-002
9.854880e+002;6.709498e-002
9.874166e+002;6.654625e-002
9.893452e+002;6.596208e-002
9.912737e+002;6.517457e-002
9.932022e+002;6.435520e-002
9.951307e+002;6.374288e-002
9.970593e+002;6.349066e-002
9.989879e+002;6.365532e-002
1.000916e+003;6.362015e-002
1.002845e+003;6.336669e-002
1.004773e+003;6.298450e-002
1.006702e+003;6.259094e-002
1.008631e+003;6.294455e-002
1.010559e+003;6.318163e-002
1.012488e+003;6.253771e-002
1.014416e+003;6.223854e-002
1.016345e+003;6.259052e-002
1.018273e+003;6.334569e-002
1.020202e+003;6.415989e-002
1.022130e+003;6.517280e-002
1.024059e+003;6.664417e-002
1.025988e+003;6.800002e-002
1.027916e+003;6.836535e-002
1.029845e+003;6.798057e-002
1.031773e+003;6.742267e-002
1.033702e+003;6.687276e-002
1.035630e+003;6.652529e-002
1.037559e+003;6.577056e-002
1.039487e+003;6.499470e-002
1.041416e+003;6.458455e-002
1.043344e+003;6.427781e-002
1.045273e+003;6.393137e-002
1.047202e+003;6.420321e-002
1.049130e+003;6.488273e-002
1.051059e+003;6.531820e-002
1.052987e+003;6.582172e-002
1.054916e+003;6.672090e-002
1.056844e+003;6.774438e-002
1.058773e+003;6.895474e-002
1.060701e+003;7.020394e-002
1.062630e+003;7.143439e-002
1.064558e+003;7.288692e-002
1.066487e+003;7.404725e-002
1.068416e+003;7.419155e-002
1.070344e+003;7.403628e-002
1.072273e+003;7.464322e-002
1.074201e+003;7.566541e-002
1.076130e+003;7.582222e-002
1.078058e+003;7.496745e-002
1.079987e+003;7.435506e-002
1.081915e+003;7.411797e-002
1.083844e+003;7.343619e-002
1.085773e+003;7.231804e-002
1.087701e+003;7.199739e-002
1.089630e+003;7.182370e-002
1.091558e+003;7.198753e-002
1.093487e+003;7.235330e-002
1.095415e+003;7.266694e-002
1.097344e+003;7.301995e-002
1.099272e+003;7.388432e-002
1.101201e+003;7.524455e-002
1.103129e+003;7.694101e-002
1.105058e+003;7.872522e-002
1.106987e+003;7.974995e-002
1.108915e+003;8.046829e-002
1.110844e+003;8.141077e-002
1.112772e+003;8.244868e-002
1.114701e+003;8.318197e-002
1.116629e+003;8.366366e-002
1.118558e+003;8.410592e-002
1.120486e+003;8.398899e-002
1.122415e+003;8.279346e-002
1.124344e+003;8.068640e-002
1.126272e+003;7.827496e-002
1.128201e+003;7.553150e-002
1.130129e+003;7.333869e-002
1.132058e+003;7.191198e-002
1.133986e+003;7.117360e-002
1.135915e+003;7.073843e-002
1.137843e+003;7.120499e-002
1.139772e+003;7.209408e-002
1.141700e+003;7.314776e-002
1.143629e+003;7.485925e-002
1.145557e+003;7.694216e-002
1.147486e+003;7.868724e-002
1.149415e+003;8.052380e-002
1.151343e+003;8.253029e-002
1.153272e+003;8.487429e-002
1.155200e+003;8.742831e-002
1.157129e+003;9.057479e-002
1.159057e+003;9.466746e-002
1.160986e+003;9.947665e-002
1.162914e+003;1.048975e-001
1.164843e+003;1.098768e-001
1.166771e+003;1.136442e-001
1.168700e+003;1.155397e-001
1.170629e+003;1.146937e-001
1.172557e+003;1.113097e-001
1.174486e+003;1.067731e-001
1.176414e+003;1.026034e-001
1.178343e+003;9.908628e-002
1.180271e+003;9.639926e-002
1.182200e+003;9.493269e-002
1.184128e+003;9.531283e-002
1.186057e+003;9.726208e-002
1.187986e+003;9.979953e-002
1.189914e+003;1.022706e-001
1.191843e+003;1.052409e-001
1.193771e+003;1.090300e-001
1.195700e+003;1.133556e-001
1.197628e+003;1.178612e-001
1.199557e+003;1.204784e-001
1.201485e+003;1.189910e-001
1.203414e+003;1.153733e-001
1.205343e+003;1.124973e-001
1.207271e+003;1.109296e-001
1.209200e+003;1.103085e-001
1.211128e+003;1.102618e-001
1.213057e+003;1.097236e-001
1.214985e+003;1.082517e-001
1.216914e+003;1.058339e-001
1.218842e+003;1.029271e-001
1.220771e+003;1.008845e-001
1.222699e+003;1.008170e-001
1.224628e+003;1.023738e-001
1.226557e+003;1.051854e-001
1.228485e+003;1.089577e-001
1.230414e+003;1.128131e-001
1.232342e+003;1.166005e-001
1.234271e+003;1.193566e-001
1.236199e+003;1.206025e-001
1.238128e+003;1.209619e-001
1.240056e+003;1.211685e-001
1.241985e+003;1.206950e-001
1.243913e+003;1.199960e-001
1.245842e+003;1.199120e-001
1.247771e+003;1.205565e-001
1.249699e+003;1.220333e-001
1.251628e+003;1.242692e-001
1.253556e+003;1.270132e-001
1.255485e+003;1.299682e-001
1.257413e+003;1.327062e-001
1.259342e+003;1.348415e-001
1.261270e+003;1.361242e-001
1.263199e+003;1.359290e-001
1.265127e+003;1.333933e-001
1.267056e+003;1.286300e-001
1.268985e+003;1.234391e-001
1.270913e+003;1.195278e-001
1.272842e+003;1.171507e-001
1.274770e+003;1.157690e-001
1.276699e+003;1.152107e-001
1.278627e+003;1.150375e-001
1.280556e+003;1.139962e-001
1.282484e+003;1.120529e-001
1.284413e+003;1.105217e-001
1.286342e+003;1.092445e-001
1.288270e+003;1.081529e-001
1.290199e+003;1.076250e-001
1.292127e+003;1.073497e-001
1.294056e+003;1.068930e-001
1.295984e+003;1.064115e-001
1.297913e+003;1.057182e-001
1.299841e+003;1.053589e-001
1.301770e+003;1.051762e-001
1.303698e+003;1.045085e-001
1.305627e+003;1.040329e-001
1.307556e+003;1.033326e-001
1.309484e+003;1.023132e-001
1.311413e+003;1.013850e-001
1.313341e+003;1.005633e-001
1.315270e+003;9.989957e-002
1.317198e+003;9.899841e-002
1.319127e+003;9.812404e-002
1.321055e+003;9.756055e-002
1.322984e+003;9.709154e-002
1.324912e+003;9.675059e-002
1.326841e+003;9.698710e-002
1.328770e+003;9.746897e-002
1.330698e+003;9.797177e-002
1.332627e+003;9.823429e-002
1.334555e+003;9.841741e-002
1.336484e+003;9.864190e-002
1.338412e+003;9.895309e-002
1.340341e+003;9.939308e-002
1.342269e+003;1.002386e-001
1.344198e+003;1.010282e-001
1.346126e+003;1.017006e-001
1.348055e+003;1.023102e-001
1.349984e+003;1.031322e-001
1.351912e+003;1.043120e-001
1.353841e+003;1.056325e-001
1.355769e+003;1.069894e-001
1.357698e+003;1.084852e-001
1.359626e+003;1.098681e-001
1.361555e+003;1.109465e-001
1.363483e+003;1.123000e-001
1.365412e+003;1.139448e-001
1.367341e+003;1.152862e-001
1.369269e+003;1.165069e-001
1.371198e+003;1.171418e-001
1.373126e+003;1.167203e-001
1.375055e+003;1.155071e-001
1.376983e+003;1.134144e-001
1.378912e+003;1.106966e-001
1.380840e+003;1.080958e-001
1.382769e+003;1.056709e-001
1.384698e+003;1.029460e-001
1.386626e+003;1.000053e-001
1.388555e+003;9.798011e-002
1.390483e+003;9.678996e-002
1.392412e+003;9.571973e-002
1.394340e+003;9.465992e-002
1.396269e+003;9.430226e-002
1.398197e+003;9.480164e-002
1.400126e+003;9.627141e-002
1.402054e+003;9.835295e-002
1.403983e+003;1.008602e-001
1.405911e+003;1.043052e-001
1.407840e+003;1.087907e-001
1.409769e+003;1.142388e-001
1.411697e+003;1.201990e-001
1.413626e+003;1.251951e-001
1.415554e+003;1.278991e-001
1.417483e+003;1.276150e-001
1.419411e+003;1.252974e-001
1.421340e+003;1.224502e-001
1.423268e+003;1.195519e-001
1.425197e+003;1.176127e-001
1.427125e+003;1.173664e-001
1.429054e+003;1.187057e-001
1.430983e+003;1.210655e-001
1.432911e+003;1.230911e-001
1.434840e+003;1.233277e-001
1.436768e+003;1.224832e-001
1.438697e+003;1.223294e-001
1.440625e+003;1.219118e-001
1.442554e+003;1.212637e-001
1.444482e+003;1.208461e-001
1.446411e+003;1.208528e-001
1.448340e+003;1.213979e-001
1.450268e+003;1.227529e-001
1.452197e+003;1.246142e-001
1.454125e+003;1.262624e-001
1.456054e+003;1.277873e-001
1.457982e+003;1.319435e-001
1.459911e+003;1.380511e-001
1.461839e+003;1.416271e-001
1.463768e+003;1.397458e-001
1.465697e+003;1.336708e-001
1.467625e+003;1.269172e-001
1.469554e+003;1.219546e-001
1.471482e+003;1.195465e-001
1.473411e+003;1.201276e-001
1.475339e+003;1.216904e-001
1.477268e+003;1.214278e-001
1.479196e+003;1.189130e-001
1.481125e+003;1.141576e-001
1.483053e+003;1.084943e-001
1.484982e+003;1.035889e-001
1.486911e+003;1.009516e-001
1.488839e+003;1.004887e-001
1.490768e+003;1.015713e-001
1.492696e+003;1.034691e-001
1.494625e+003;1.051514e-001
1.496553e+003;1.075950e-001
1.498482e+003;1.114249e-001
1.500410e+003;1.156093e-001
1.502339e+003;1.197124e-001
1.504267e+003;1.231057e-001
1.506196e+003;1.267191e-001
1.508125e+003;1.324948e-001
1.510053e+003;1.387682e-001
1.511982e+003;1.445718e-001
1.513910e+003;1.506354e-001
1.515839e+003;1.567848e-001
1.517767e+003;1.633042e-001
1.519696e+003;1.700622e-001
1.521624e+003;1.776231e-001
1.523553e+003;1.861988e-001
1.525481e+003;1.948405e-001
1.527410e+003;2.035335e-001
1.529339e+003;2.118593e-001
1.531267e+003;2.197478e-001
1.533196e+003;2.271720e-001
1.535124e+003;2.337045e-001
1.537053e+003;2.373957e-001
1.538981e+003;2.379346e-001
1.540910e+003;2.369259e-001
1.542838e+003;2.338419e-001
1.544767e+003;2.280210e-001
1.546695e+003;2.200627e-001
1.548624e+003;2.105381e-001
1.550553e+003;2.006632e-001
1.552481e+003;1.908946e-001
1.554410e+003;1.816841e-001
1.556338e+003;1.732563e-001
1.558267e+003;1.645934e-001
1.560195e+003;1.578303e-001
1.562124e+003;1.525058e-001
1.564052e+003;1.461377e-001
1.565981e+003;1.395718e-001
1.567910e+003;1.330910e-001
1.569838e+003;1.264137e-001
1.571767e+003;1.207998e-001
1.573695e+003;1.151498e-001
1.575624e+003;1.092839e-001
1.577552e+003;1.054907e-001
1.579481e+003;1.029318e-001
1.581409e+003;1.004302e-001
1.583338e+003;9.860955e-002
1.585266e+003;9.766936e-002
1.587195e+003;9.742933e-002
1.589124e+003;9.753852e-002
1.591052e+003;9.830321e-002
1.592981e+003;9.994398e-002
1.594909e+003;1.023319e-001
1.596838e+003;1.049918e-001
1.598766e+003;1.082580e-001
1.600695e+003;1.125695e-001
1.602623e+003;1.179707e-001
1.604552e+003;1.240702e-001
1.606480e+003;1.306059e-001
1.608409e+003;1.377702e-001
1.610338e+003;1.455884e-001
1.612266e+003;1.538279e-001
1.614195e+003;1.627301e-001
1.616123e+003;1.731125e-001
1.618052e+003;1.863836e-001
1.619980e+003;2.008187e-001
1.621909e+003;2.151763e-001
1.623837e+003;2.299804e-001
1.625766e+003;2.450891e-001
1.627694e+003;2.606905e-001
1.629623e+003;2.768486e-001
1.631552e+003;2.916940e-001
1.633480e+003;3.026165e-001
1.635409e+003;3.076851e-001
1.637337e+003;3.056874e-001
1.639266e+003;2.952255e-001
1.641194e+003;2.785479e-001
1.643123e+003;2.591155e-001
1.645051e+003;2.385887e-001
1.646980e+003;2.191886e-001
1.648909e+003;2.025256e-001
1.650837e+003;1.868204e-001
1.652766e+003;1.723130e-001
1.654694e+003;1.626470e-001
1.656623e+003;1.550659e-001
1.658551e+003;1.470182e-001
1.660480e+003;1.390007e-001
1.662408e+003;1.312110e-001
1.664337e+003;1.239743e-001
1.666266e+003;1.164336e-001
1.668194e+003;1.086358e-001
1.670123e+003;1.016609e-001
1.672051e+003;9.572696e-002
1.673980e+003;8.979900e-002
1.675908e+003;8.439133e-002
1.677837e+003;7.974780e-002
1.679765e+003;7.426085e-002
1.681694e+003;6.822537e-002
1.683622e+003;6.207964e-002
1.685551e+003;5.814079e-002
1.687479e+003;5.575366e-002
1.689408e+003;5.307856e-002
1.691337e+003;5.097283e-002
1.693265e+003;4.884727e-002
1.695194e+003;4.658103e-002
1.697122e+003;4.569281e-002
1.699051e+003;4.460977e-002
1.700979e+003;4.418159e-002
1.702908e+003;4.495352e-002
1.704836e+003;4.482511e-002
1.706765e+003;4.495091e-002
1.708693e+003;4.516516e-002
1.710622e+003;4.522050e-002
1.712551e+003;4.493279e-002
1.714479e+003;4.428978e-002
1.716408e+003;4.350079e-002
1.718336e+003;4.388127e-002
1.720265e+003;4.499953e-002
1.722193e+003;4.548087e-002
1.724122e+003;4.552532e-002
1.726050e+003;4.559023e-002
1.727979e+003;4.571328e-002
1.729908e+003;4.547922e-002
1.731836e+003;4.451031e-002
1.733765e+003;4.341740e-002
1.735693e+003;4.367714e-002
1.737622e+003;4.401816e-002
1.739550e+003;4.361533e-002
1.741479e+003;4.331876e-002
1.743407e+003;4.262327e-002
1.745336e+003;4.183138e-002
1.747265e+003;4.088131e-002
1.749193e+003;3.976691e-002
1.751122e+003;3.891124e-002
1.753050e+003;3.853962e-002
1.754979e+003;3.783857e-002
1.756907e+003;3.693387e-002
1.758836e+003;3.632416e-002
1.760764e+003;3.569368e-002
1.762693e+003;3.508729e-002
1.764621e+003;3.449178e-002
1.766550e+003;3.372142e-002
1.768479e+003;3.336104e-002
1.770407e+003;3.281195e-002
1.772336e+003;3.205922e-002
1.774264e+003;3.205669e-002
1.776193e+003;3.212033e-002
1.778121e+003;3.179522e-002
1.780050e+003;3.144983e-002
1.781978e+003;3.120652e-002
1.783907e+003;3.082379e-002
1.785835e+003;3.053839e-002
1.787764e+003;3.052961e-002
1.789693e+003;3.024411e-002
1.791621e+003;2.951156e-002
1.793550e+003;2.936870e-002
1.795478e+003;2.948709e-002
1.797407e+003;2.911720e-002
1.799335e+003;2.885721e-002
1.801264e+003;2.874253e-002
1.803192e+003;2.880994e-002
1.805121e+003;2.889446e-002
1.807049e+003;2.877429e-002
1.808978e+003;2.818490e-002
1.810907e+003;2.785999e-002
1.812835e+003;2.795246e-002
1.814764e+003;2.795193e-002
1.816692e+003;2.794144e-002
1.818621e+003;2.806248e-002
1.820549e+003;2.799773e-002
1.822478e+003;2.791281e-002
1.824406e+003;2.761954e-002
1.826335e+003;2.722778e-002
1.828264e+003;2.693923e-002
1.830192e+003;2.696292e-002
1.832121e+003;2.738762e-002
1.834049e+003;2.748326e-002
1.835978e+003;2.713621e-002
1.837906e+003;2.683951e-002
1.839835e+003;2.681293e-002
1.841763e+003;2.658433e-002
1.843692e+003;2.604363e-002
1.845620e+003;2.608170e-002
1.847549e+003;2.614479e-002
1.849478e+003;2.607178e-002
1.851406e+003;2.612706e-002
1.853335e+003;2.603843e-002
1.855263e+003;2.580464e-002
1.857192e+003;2.578590e-002
1.859120e+003;2.571871e-002
1.861049e+003;2.558507e-002
1.862977e+003;2.556753e-002
1.864906e+003;2.558595e-002
1.866834e+003;2.538869e-002
1.868763e+003;2.511713e-002
1.870692e+003;2.519230e-002
1.872620e+003;2.541377e-002
1.874549e+003;2.558595e-002
1.876477e+003;2.581705e-002
1.878406e+003;2.565579e-002
1.880334e+003;2.531373e-002
1.882263e+003;2.513187e-002
1.884191e+003;2.517337e-002
1.886120e+003;2.531542e-002
1.888048e+003;2.540994e-002
1.889977e+003;2.552877e-002
1.891906e+003;2.571717e-002
1.893834e+003;2.569291e-002
1.895763e+003;2.545326e-002
1.897691e+003;2.547417e-002
1.899620e+003;2.557913e-002
1.901548e+003;2.573689e-002
1.903477e+003;2.569586e-002
1.905405e+003;2.540893e-002
1.907334e+003;2.522109e-002
1.909262e+003;2.505706e-002
1.911191e+003;2.495163e-002
1.913120e+003;2.506019e-002
1.915048e+003;2.487811e-002
1.916977e+003;2.459722e-002
1.918905e+003;2.474926e-002
1.920834e+003;2.468051e-002
1.922762e+003;2.459859e-002
1.924691e+003;2.476746e-002
1.926619e+003;2.487443e-002
1.928548e+003;2.494647e-002
1.930477e+003;2.492254e-002
1.932405e+003;2.469163e-002
1.934334e+003;2.463987e-002
1.936262e+003;2.465246e-002
1.938191e+003;2.457664e-002
1.940119e+003;2.452265e-002
1.942048e+003;2.430152e-002
1.943976e+003;2.424363e-002
1.945905e+003;2.447522e-002
1.947833e+003;2.456588e-002
1.949762e+003;2.462479e-002
1.951691e+003;2.455725e-002
1.953619e+003;2.454446e-002
1.955548e+003;2.465708e-002
1.957476e+003;2.476792e-002
1.959405e+003;2.462752e-002
1.961333e+003;2.469594e-002
1.963262e+003;2.488099e-002
1.965190e+003;2.483734e-002
1.967119e+003;2.481907e-002
1.969047e+003;2.498171e-002
1.970976e+003;2.507461e-002
1.972905e+003;2.506549e-002
1.974833e+003;2.501466e-002
1.976762e+003;2.515395e-002
1.978690e+003;2.529140e-002
1.980619e+003;2.525968e-002
1.982547e+003;2.530478e-002
1.984476e+003;2.523679e-002
1.986404e+003;2.494766e-002
1.988333e+003;2.472393e-002
1.990261e+003;2.470990e-002
1.992190e+003;2.475238e-002
1.994119e+003;2.476680e-002
1.996047e+003;2.485264e-002
1.997976e+003;2.491310e-002
1.999904e+003;2.483973e-002
2.001833e+003;2.489924e-002
2.003761e+003;2.520367e-002
2.005690e+003;2.535335e-002
2.007618e+003;2.516382e-002
2.009547e+003;2.495882e-002
2.011476e+003;2.491720e-002
2.013404e+003;2.512330e-002
2.015333e+003;2.547231e-002
2.017261e+003;2.556905e-002
2.019190e+003;2.553728e-002
2.021118e+003;2.554799e-002
2.023047e+003;2.551387e-002
2.024975e+003;2.542428e-002
2.026904e+003;2.531535e-002
2.028833e+003;2.538592e-002
2.030761e+003;2.564918e-002
2.032690e+003;2.585531e-002
2.034618e+003;2.585165e-002
2.036547e+003;2.568553e-002
2.038475e+003;2.592319e-002
2.040404e+003;2.630860e-002
2.042332e+003;2.626639e-002
2.044261e+003;2.614493e-002
2.046189e+003;2.611805e-002
2.048118e+003;2.607706e-002
2.050047e+003;2.608856e-002
2.051975e+003;2.605556e-002
2.053904e+003;2.608336e-002
2.055832e+003;2.633954e-002
2.057761e+003;2.650191e-002
2.059689e+003;2.622750e-002
2.061618e+003;2.606992e-002
2.063546e+003;2.622046e-002
2.065475e+003;2.636088e-002
2.067404e+003;2.640007e-002
2.069332e+003;2.634852e-002
2.071260e+003;2.634490e-002
2.073189e+003;2.644119e-002
2.075118e+003;2.625467e-002
2.077046e+003;2.605433e-002
2.078975e+003;2.599305e-002
2.080903e+003;2.587740e-002
2.082832e+003;2.590455e-002
2.084760e+003;2.591415e-002
2.086689e+003;2.565403e-002
2.088617e+003;2.557210e-002
2.090546e+003;2.561136e-002
2.092475e+003;2.548250e-002
2.094403e+003;2.543882e-002
2.096332e+003;2.555748e-002
2.098260e+003;2.573077e-002
2.100189e+003;2.565934e-002
2.102117e+003;2.551268e-002
2.104046e+003;2.566310e-002
2.105974e+003;2.579609e-002
2.107903e+003;2.570964e-002
2.109832e+003;2.575021e-002
2.111760e+003;2.601173e-002
2.113688e+003;2.614370e-002
2.115617e+003;2.615144e-002
2.117546e+003;2.607896e-002
2.119474e+003;2.601605e-002
2.121403e+003;2.608096e-002
2.123331e+003;2.605271e-002
2.125260e+003;2.608814e-002
2.127188e+003;2.618055e-002
2.129117e+003;2.616207e-002
2.131045e+003;2.631071e-002
2.132974e+003;2.649328e-002
2.134903e+003;2.622954e-002
2.136831e+003;2.591812e-002
2.138760e+003;2.590659e-002
2.140688e+003;2.620188e-002
2.142617e+003;2.645989e-002
2.144545e+003;2.644137e-002
2.146474e+003;2.639133e-002
2.148402e+003;2.649060e-002
2.150331e+003;2.656876e-002
2.152260e+003;2.651096e-002
2.154188e+003;2.639056e-002
2.156117e+003;2.631754e-002
2.158045e+003;2.641978e-002
2.159974e+003;2.657820e-002
2.161902e+003;2.682527e-002
2.163831e+003;2.695696e-002
2.165759e+003;2.690764e-002
2.167688e+003;2.683454e-002
2.169616e+003;2.695220e-002
2.171545e+003;2.694639e-002
2.173474e+003;2.683672e-002
2.175402e+003;2.681917e-002
2.177331e+003;2.686108e-002
2.179259e+003;2.698813e-002
2.181188e+003;2.687701e-002
2.183116e+003;2.685054e-002
2.185045e+003;2.680345e-002
2.186973e+003;2.667800e-002
2.188902e+003;2.677857e-002
2.190831e+003;2.720478e-002
2.192759e+003;2.738162e-002
2.194688e+003;2.731859e-002
2.196616e+003;2.702635e-002
2.198545e+003;2.682326e-002
2.200473e+003;2.670855e-002
2.202402e+003;2.668378e-002
2.204330e+003;2.670217e-002
2.206259e+003;2.661994e-002
2.208188e+003;2.647546e-002
2.210116e+003;2.641570e-002
2.212044e+003;2.628938e-002
2.213973e+003;2.614670e-002
2.215902e+003;2.598281e-002
2.217830e+003;2.589832e-002
2.219759e+003;2.599765e-002
2.221687e+003;2.608385e-002
2.223616e+003;2.590986e-002
2.225544e+003;2.579015e-002
2.227473e+003;2.580861e-002
2.229401e+003;2.567417e-002
2.231330e+003;2.572068e-002
2.233259e+003;2.568609e-002
2.235187e+003;2.540071e-002
2.237116e+003;2.535820e-002
2.239044e+003;2.551995e-002
2.240973e+003;2.555537e-002
2.242901e+003;2.543844e-002
2.244830e+003;2.521523e-002
2.246758e+003;2.501933e-002
2.248687e+003;2.506994e-002
2.250615e+003;2.545319e-002
2.252544e+003;2.574005e-002
2.254473e+003;2.575805e-002
2.256401e+003;2.582961e-002
2.258330e+003;2.587381e-002
2.260258e+003;2.567804e-002
2.262187e+003;2.565501e-002
2.264115e+003;2.596072e-002
2.266044e+003;2.594267e-002
2.267972e+003;2.579293e-002
2.269901e+003;2.579937e-002
2.271830e+003;2.576902e-002
2.273758e+003;2.589460e-002
2.275687e+003;2.608047e-002
2.277615e+003;2.629262e-002
2.279544e+003;2.622334e-002
2.281472e+003;2.606017e-002
2.283401e+003;2.616563e-002
2.285329e+003;2.632265e-002
2.287258e+003;2.645465e-002
2.289187e+003;2.651107e-002
2.291115e+003;2.631001e-002
2.293043e+003;2.628695e-002
2.294972e+003;2.633954e-002
2.296901e+003;2.627565e-002
2.298829e+003;2.633359e-002
2.300758e+003;2.655886e-002
2.302686e+003;2.670443e-002
2.304615e+003;2.662466e-002
2.306543e+003;2.656510e-002
2.308472e+003;2.664101e-002
2.310400e+003;2.664267e-002
2.312329e+003;2.669340e-002
2.314258e+003;2.685801e-002
2.316186e+003;2.684881e-002
2.318115e+003;2.652927e-002
2.320043e+003;2.650251e-002
2.321972e+003;2.668413e-002
2.323900e+003;2.659722e-002
2.325829e+003;2.657996e-002
2.327757e+003;2.667032e-002
2.329686e+003;2.651765e-002
2.331615e+003;2.647810e-002
2.333543e+003;2.666729e-002
2.335472e+003;2.676849e-002
2.337400e+003;2.669386e-002
2.339329e+003;2.656305e-002
2.341257e+003;2.655474e-002
2.343186e+003;2.648338e-002
2.345114e+003;2.635021e-002
2.347043e+003;2.637098e-002
2.348971e+003;2.645370e-002
2.350900e+003;2.644595e-002
2.352829e+003;2.636148e-002
2.354757e+003;2.623915e-002
2.356686e+003;2.614068e-002
2.358614e+003;2.630230e-002
2.360543e+003;2.633845e-002
2.362471e+003;2.626963e-002
2.364400e+003;2.636405e-002
2.366328e+003;2.658799e-002
2.368257e+003;2.663995e-002
2.370186e+003;2.661540e-002
2.372114e+003;2.690433e-002
2.374042e+003;2.714107e-002
2.375971e+003;2.709759e-002
2.377900e+003;2.709829e-002
2.379828e+003;2.702956e-002
2.381757e+003;2.709850e-002
2.383685e+003;2.729026e-002
2.385614e+003;2.735039e-002
2.387542e+003;2.733359e-002
2.389471e+003;2.738956e-002
2.391399e+003;2.735518e-002
2.393328e+003;2.734876e-002
2.395257e+003;2.740770e-002
2.397185e+003;2.746675e-002
2.399114e+003;2.754144e-002
2.401042e+003;2.739450e-002
2.402971e+003;2.716993e-002
2.404899e+003;2.717433e-002
2.406828e+003;2.729326e-002
2.408756e+003;2.712136e-002
2.410685e+003;2.703527e-002
2.412614e+003;2.704610e-002
2.414542e+003;2.703989e-002
2.416471e+003;2.721293e-002
2.418399e+003;2.742358e-002
2.420328e+003;2.732791e-002
2.422256e+003;2.723406e-002
2.424185e+003;2.751348e-002
2.426113e+003;2.773265e-002
2.428042e+003;2.758688e-002
2.429970e+003;2.754328e-002
2.431899e+003;2.800872e-002
2.433828e+003;2.825611e-002
2.435756e+003;2.816577e-002
2.437685e+003;2.807241e-002
2.439613e+003;2.790137e-002
2.441542e+003;2.816619e-002
2.443470e+003;2.844413e-002
2.445399e+003;2.845411e-002
2.447327e+003;2.848800e-002
2.449256e+003;2.869471e-002
2.451185e+003;2.890718e-002
2.453113e+003;2.891971e-002
2.455042e+003;2.908117e-002
2.456970e+003;2.918127e-002
2.458899e+003;2.931822e-002
2.460827e+003;2.944741e-002
2.462756e+003;2.943142e-002
2.464684e+003;2.939068e-002
2.466613e+003;2.957788e-002
2.468542e+003;2.966766e-002
2.470470e+003;2.982911e-002
2.472398e+003;2.998838e-002
2.474327e+003;3.007367e-002
2.476256e+003;3.011618e-002
2.478184e+003;2.990535e-002
2.480113e+003;2.977421e-002
2.482041e+003;2.996587e-002
2.483970e+003;3.018082e-002
2.485898e+003;3.028966e-002
2.487827e+003;3.030476e-002
2.489755e+003;3.010055e-002
2.491684e+003;2.990847e-002
2.493613e+003;2.998792e-002
2.495541e+003;3.019790e-002
2.497470e+003;3.029840e-002
2.499398e+003;3.021328e-002
2.501327e+003;3.024383e-002
2.503255e+003;3.027140e-002
2.505184e+003;3.029531e-002
2.507112e+003;3.037664e-002
2.509041e+003;3.068725e-002
2.510969e+003;3.093763e-002
2.512898e+003;3.102983e-002
2.514827e+003;3.111927e-002
2.516755e+003;3.127221e-002
2.518684e+003;3.132203e-002
2.520612e+003;3.129105e-002
2.522541e+003;3.135996e-002
2.524469e+003;3.144758e-002
2.526398e+003;3.173946e-002
2.528326e+003;3.230900e-002
2.530255e+003;3.256014e-002
2.532184e+003;3.261003e-002
2.534112e+003;3.263446e-002
2.536041e+003;3.279777e-002
2.537969e+003;3.306160e-002
2.539898e+003;3.303804e-002
2.541826e+003;3.313472e-002
2.543755e+003;3.339685e-002
2.545683e+003;3.360201e-002
2.547612e+003;3.362525e-002
2.549541e+003;3.361161e-002
2.551469e+003;3.354617e-002
2.553397e+003;3.375981e-002
2.555326e+003;3.401286e-002
2.557255e+003;3.378677e-002
2.559183e+003;3.381973e-002
2.561112e+003;3.403171e-002
2.563040e+003;3.389846e-002
2.564969e+003;3.377574e-002
2.566897e+003;3.386203e-002
2.568826e+003;3.406106e-002
2.570754e+003;3.413016e-002
2.572683e+003;3.425430e-002
2.574612e+003;3.454438e-002
2.576540e+003;3.454725e-002
2.578469e+003;3.458988e-002
2.580397e+003;3.475147e-002
2.582326e+003;3.476264e-002
2.584254e+003;3.489540e-002
2.586183e+003;3.524782e-002
2.588111e+003;3.559869e-002
2.590040e+003;3.558603e-002
2.591969e+003;3.542703e-002
2.593897e+003;3.555906e-002
2.595826e+003;3.578427e-002
2.597754e+003;3.578063e-002
2.599683e+003;3.567901e-002
2.601611e+003;3.578816e-002
2.603540e+003;3.600427e-002
2.605468e+003;3.615898e-002
2.607397e+003;3.606155e-002
2.609325e+003;3.596277e-002
2.611254e+003;3.609363e-002
2.613183e+003;3.628500e-002
2.615111e+003;3.619946e-002
2.617040e+003;3.606824e-002
2.618968e+003;3.615880e-002
2.620897e+003;3.644857e-002
2.622825e+003;3.657651e-002
2.624754e+003;3.657154e-002
2.626682e+003;3.666750e-002
2.628611e+003;3.673431e-002
2.630540e+003;3.692283e-002
2.632468e+003;3.710097e-002
2.634396e+003;3.710927e-002
2.636325e+003;3.695894e-002
2.638254e+003;3.707841e-002
2.640182e+003;3.728033e-002
2.642111e+003;3.725369e-002
2.644039e+003;3.713410e-002
2.645968e+003;3.728961e-002
2.647896e+003;3.749289e-002
2.649825e+003;3.769829e-002
2.651753e+003;3.797278e-002
2.653682e+003;3.800084e-002
2.655611e+003;3.801943e-002
2.657539e+003;3.805881e-002
2.659468e+003;3.803487e-002
2.661396e+003;3.803791e-002
2.663325e+003;3.799798e-002
2.665253e+003;3.808645e-002
2.667182e+003;3.835329e-002
2.669110e+003;3.864982e-002
2.671039e+003;3.895310e-002
2.672968e+003;3.896452e-002
2.674896e+003;3.877323e-002
2.676825e+003;3.886373e-002
2.678753e+003;3.922461e-002
2.680682e+003;3.925457e-002
2.682610e+003;3.920884e-002
2.684539e+003;3.918592e-002
2.686467e+003;3.933625e-002
2.688396e+003;3.966834e-002
2.690324e+003;4.006487e-002
2.692253e+003;4.049378e-002
2.694182e+003;4.068452e-002
2.696110e+003;4.059807e-002
2.698039e+003;4.071374e-002
2.699967e+003;4.118299e-002
2.701896e+003;4.144212e-002
2.703824e+003;4.162916e-002
2.705753e+003;4.189286e-002
2.707681e+003;4.194238e-002
2.709610e+003;4.190414e-002
2.711539e+003;4.217407e-002
2.713467e+003;4.246883e-002
2.715396e+003;4.273834e-002
2.717324e+003;4.325891e-002
2.719253e+003;4.388405e-002
2.721181e+003;4.416589e-002
2.723110e+003;4.423717e-002
2.725038e+003;4.429837e-002
2.726967e+003;4.465534e-002
2.728896e+003;4.513627e-002
2.730824e+003;4.548959e-002
2.732752e+003;4.604077e-002
2.734681e+003;4.643970e-002
2.736610e+003;4.654909e-002
2.738538e+003;4.670472e-002
2.740467e+003;4.683251e-002
2.742395e+003;4.700029e-002
2.744324e+003;4.717403e-002
2.746252e+003;4.733063e-002
2.748181e+003;4.736910e-002
2.750109e+003;4.725715e-002
2.752038e+003;4.730085e-002
2.753967e+003;4.754835e-002
2.755895e+003;4.771348e-002
2.757824e+003;4.782233e-002
2.759752e+003;4.766737e-002
2.761681e+003;4.780402e-002
2.763609e+003;4.807865e-002
2.765538e+003;4.849910e-002
2.767466e+003;4.881193e-002
2.769395e+003;4.897855e-002
2.771323e+003;4.919238e-002
2.773252e+003;4.934051e-002
2.775181e+003;4.956682e-002
2.777109e+003;4.966020e-002
2.779038e+003;4.994982e-002
2.780966e+003;5.030367e-002
2.782895e+003;5.031393e-002
2.784823e+003;5.075748e-002
2.786752e+003;5.122915e-002
2.788680e+003;5.130991e-002
2.790609e+003;5.170666e-002
2.792538e+003;5.208570e-002
2.794466e+003;5.217159e-002
2.796395e+003;5.244626e-002
2.798323e+003;5.287706e-002
2.800252e+003;5.324273e-002
2.802180e+003;5.379109e-002
2.804109e+003;5.437942e-002
2.806037e+003;5.490861e-002
2.807966e+003;5.543544e-002
2.809895e+003;5.590931e-002
2.811823e+003;5.625119e-002
2.813751e+003;5.666725e-002
2.815680e+003;5.720150e-002
2.817609e+003;5.787734e-002
2.819537e+003;5.872526e-002
2.821466e+003;5.903034e-002
2.823394e+003;5.912817e-002
2.825323e+003;5.960305e-002
2.827251e+003;6.021138e-002
2.829180e+003;6.098658e-002
2.831108e+003;6.183167e-002
2.833037e+003;6.277579e-002
2.834966e+003;6.406825e-002
2.836894e+003;6.552139e-002
2.838823e+003;6.759662e-002
2.840751e+003;7.056849e-002
2.842680e+003;7.394647e-002
2.844608e+003;7.747336e-002
2.846537e+003;8.132893e-002
2.848465e+003;8.547604e-002
2.850394e+003;8.938890e-002
2.852323e+003;9.253576e-002
2.854251e+003;9.490874e-002
2.856180e+003;9.690496e-002
2.858108e+003;9.837664e-002
2.860037e+003;9.867267e-002
2.861965e+003;9.817675e-002
2.863894e+003;9.764268e-002
2.865822e+003;9.705889e-002
2.867751e+003;9.582701e-002
2.869679e+003;9.376487e-002
2.871608e+003;9.151036e-002
2.873536e+003;8.912907e-002
2.875465e+003;8.653791e-002
2.877394e+003;8.387832e-002
2.879322e+003;8.182105e-002
2.881251e+003;8.057143e-002
2.883179e+003;7.974353e-002
2.885108e+003;7.956398e-002
2.887036e+003;7.991405e-002
2.888965e+003;8.061734e-002
2.890893e+003;8.182661e-002
2.892822e+003;8.335211e-002
2.894750e+003;8.485253e-002
2.896679e+003;8.662543e-002
2.898608e+003;8.795802e-002
2.900536e+003;8.865900e-002
2.902465e+003;8.940359e-002
2.904393e+003;9.064464e-002
2.906322e+003;9.208297e-002
2.908250e+003;9.362201e-002
2.910179e+003;9.547450e-002
2.912107e+003;9.780738e-002
2.914036e+003;1.004726e-001
2.915965e+003;1.033520e-001
2.917893e+003;1.062865e-001
2.919822e+003;1.092539e-001
2.921750e+003;1.119151e-001
2.923679e+003;1.141195e-001
2.925607e+003;1.162002e-001
2.927536e+003;1.181346e-001
2.929464e+003;1.202188e-001
2.931393e+003;1.217669e-001
2.933322e+003;1.220167e-001
2.935250e+003;1.213022e-001
2.937178e+003;1.193784e-001
2.939107e+003;1.171378e-001
2.941036e+003;1.148963e-001
2.942964e+003;1.122890e-001
2.944893e+003;1.089308e-001
2.946821e+003;1.045903e-001
2.948750e+003;9.940716e-002
2.950678e+003;9.387932e-002
2.952607e+003;8.877389e-002
2.954535e+003;8.423542e-002
2.956464e+003;8.002064e-002
2.958393e+003;7.618894e-002
2.960321e+003;7.314247e-002
2.962250e+003;7.072572e-002
2.964178e+003;6.826581e-002
2.966107e+003;6.606372e-002
2.968035e+003;6.413488e-002
2.969964e+003;6.238150e-002
2.971892e+003;6.075047e-002
2.973821e+003;5.900836e-002
2.975750e+003;5.729756e-002
2.977678e+003;5.611434e-002
2.979607e+003;5.489422e-002
2.981535e+003;5.382095e-002
2.983464e+003;5.331342e-002
2.985392e+003;5.274265e-002
2.987321e+003;5.189754e-002
2.989249e+003;5.115705e-002
2.991178e+003;5.074560e-002
2.993106e+003;5.034314e-002
2.995035e+003;4.985746e-002
2.996964e+003;4.984074e-002
2.998892e+003;4.996551e-002
3.000821e+003;4.980629e-002
3.002749e+003;4.952734e-002
3.004678e+003;4.942292e-002
3.006606e+003;4.939163e-002
3.008535e+003;4.936701e-002
3.010463e+003;4.962743e-002
3.012392e+003;4.998150e-002
3.014321e+003;4.998484e-002
3.016249e+003;5.015083e-002
3.018177e+003;5.034121e-002
3.020106e+003;5.073704e-002
3.022035e+003;5.121643e-002
3.023963e+003;5.149651e-002
3.025892e+003;5.174634e-002
3.027820e+003;5.205331e-002
3.029749e+003;5.223791e-002
3.031677e+003;5.264075e-002
3.033606e+003;5.341012e-002
3.035534e+003;5.389821e-002
3.037463e+003;5.437195e-002
3.039392e+003;5.520177e-002
3.041320e+003;5.584371e-002
3.043249e+003;5.634134e-002
3.045177e+003;5.693748e-002
3.047106e+003;5.759100e-002
3.049034e+003;5.803997e-002
3.050963e+003;5.859222e-002
3.052891e+003;5.928861e-002
3.054820e+003;5.993708e-002
3.056749e+003;6.056862e-002
3.058677e+003;6.076728e-002
3.060606e+003;6.100263e-002
3.062534e+003;6.158024e-002
3.064463e+003;6.216015e-002
3.066391e+003;6.244665e-002
3.068320e+003;6.252168e-002
3.070248e+003;6.264924e-002
3.072177e+003;6.252068e-002
3.074105e+003;6.235098e-002
3.076034e+003;6.218696e-002
3.077963e+003;6.238188e-002
3.079891e+003;6.267653e-002
3.081820e+003;6.259576e-002
3.083748e+003;6.223655e-002
3.085677e+003;6.208763e-002
3.087605e+003;6.210273e-002
3.089534e+003;6.145228e-002
3.091462e+003;6.088235e-002
3.093391e+003;6.058531e-002
3.095320e+003;5.986192e-002
3.097248e+003;5.935356e-002
3.099177e+003;5.913417e-002
3.101105e+003;5.870910e-002
3.103034e+003;5.836162e-002
3.104962e+003;5.795075e-002
3.106891e+003;5.702540e-002
3.108819e+003;5.627536e-002
3.110748e+003;5.612139e-002
3.112677e+003;5.570168e-002
3.114605e+003;5.532007e-002
3.116533e+003;5.501128e-002
3.118462e+003;5.462851e-002
3.120391e+003;5.421730e-002
3.122319e+003;5.374669e-002
3.124248e+003;5.340300e-002
3.126176e+003;5.351250e-002
3.128105e+003;5.398255e-002
3.130033e+003;5.395643e-002
3.131962e+003;5.340925e-002
3.133890e+003;5.330304e-002
3.135819e+003;5.333612e-002
3.137748e+003;5.338299e-002
3.139676e+003;5.359803e-002
3.141605e+003;5.368786e-002
3.143533e+003;5.339071e-002
3.145462e+003;5.369281e-002
3.147390e+003;5.431698e-002
3.149319e+003;5.447501e-002
3.151247e+003;5.428739e-002
3.153176e+003;5.410807e-002
3.155104e+003;5.433417e-002
3.157033e+003;5.484560e-002
3.158962e+003;5.533490e-002
3.160890e+003;5.589296e-002
3.162819e+003;5.622577e-002
3.164747e+003;5.642989e-002
3.166676e+003;5.698165e-002
3.168604e+003;5.743520e-002
3.170533e+003;5.760818e-002
3.172461e+003;5.807329e-002
3.174390e+003;5.866867e-002
3.176319e+003;5.902138e-002
3.178247e+003;5.936537e-002
3.180176e+003;6.007967e-002
3.182104e+003;6.073264e-002
3.184033e+003;6.105076e-002
3.185961e+003;6.144652e-002
3.187890e+003;6.173296e-002
3.189818e+003;6.205590e-002
3.191747e+003;6.266118e-002
3.193676e+003;6.291644e-002
3.195604e+003;6.282936e-002
3.197532e+003;6.310764e-002
3.199461e+003;6.378981e-002
3.201390e+003;6.414709e-002
3.203318e+003;6.434486e-002
3.205247e+003;6.483876e-002
3.207175e+003;6.510570e-002
3.209104e+003;6.530652e-002
3.211032e+003;6.559923e-002
3.212961e+003;6.578270e-002
3.214889e+003;6.587397e-002
3.216818e+003;6.625010e-002
3.218747e+003;6.701637e-002
3.220675e+003;6.754912e-002
3.222604e+003;6.778245e-002
3.224532e+003;6.794833e-002
3.226461e+003;6.872292e-002
3.228389e+003;6.969492e-002
3.230318e+003;7.045405e-002
3.232246e+003;7.127433e-002
3.234175e+003;7.221767e-002
3.236104e+003;7.324510e-002
3.238032e+003;7.440186e-002
3.239961e+003;7.579429e-002
3.241889e+003;7.736348e-002
3.243818e+003;7.869893e-002
3.245746e+003;7.982372e-002
3.247675e+003;8.095369e-002
3.249603e+003;8.252436e-002
3.251532e+003;8.422437e-002
3.253460e+003;8.560184e-002
3.255389e+003;8.705444e-002
3.257318e+003;8.880337e-002
3.259246e+003;9.093054e-002
3.261175e+003;9.318766e-002
3.263103e+003;9.511624e-002
3.265032e+003;9.693221e-002
3.266960e+003;9.884117e-002
3.268889e+003;1.006885e-001
3.270817e+003;1.025795e-001
3.272746e+003;1.045681e-001
3.274675e+003;1.070804e-001
3.276603e+003;1.095273e-001
3.278531e+003;1.115093e-001
3.280460e+003;1.135788e-001
3.282389e+003;1.155928e-001
3.284317e+003;1.179489e-001
3.286246e+003;1.200890e-001
3.288174e+003;1.216270e-001
3.290103e+003;1.232246e-001
3.292031e+003;1.240584e-001
3.293960e+003;1.241101e-001
3.295888e+003;1.236373e-001
3.297817e+003;1.225547e-001
3.299746e+003;1.209683e-001
3.301674e+003;1.182469e-001
3.303603e+003;1.150305e-001
3.305531e+003;1.118788e-001
3.307460e+003;1.089598e-001
3.309388e+003;1.056993e-001
3.311317e+003;1.023487e-001
3.313245e+003;9.967459e-002
3.315174e+003;9.693329e-002
3.317103e+003;9.396879e-002
3.319031e+003;9.134988e-002
3.320960e+003;8.897641e-002
3.322888e+003;8.614631e-002
3.324817e+003;8.312584e-002
3.326745e+003;8.085860e-002
3.328674e+003;7.900024e-002
3.330602e+003;7.689366e-002
3.332531e+003;7.474751e-002
3.334459e+003;7.280467e-002
3.336388e+003;7.141799e-002
3.338317e+003;7.029446e-002
3.340245e+003;6.882113e-002
3.342174e+003;6.712306e-002
3.344102e+003;6.550748e-002
3.346031e+003;6.387544e-002
3.347959e+003;6.245346e-002
3.349888e+003;6.124075e-002
3.351816e+003;6.052542e-002
3.353745e+003;5.969112e-002
3.355674e+003;5.878235e-002
3.357602e+003;5.794984e-002
3.359531e+003;5.661866e-002
3.361459e+003;5.572119e-002
3.363388e+003;5.538127e-002
3.365316e+003;5.478531e-002
3.367245e+003;5.411963e-002
3.369173e+003;5.329592e-002
3.371102e+003;5.294143e-002
3.373031e+003;5.243168e-002
3.374959e+003;5.160788e-002
3.376887e+003;5.117837e-002
3.378816e+003;5.105694e-002
3.380745e+003;5.081503e-002
3.382673e+003;5.045943e-002
3.384602e+003;5.004626e-002
3.386530e+003;4.962900e-002
3.388459e+003;4.908913e-002
3.390387e+003;4.880511e-002
3.392316e+003;4.859528e-002
3.394244e+003;4.805729e-002
3.396173e+003;4.771515e-002
3.398102e+003;4.786543e-002
3.400030e+003;4.775642e-002
3.401959e+003;4.748004e-002
3.403887e+003;4.762714e-002
3.405816e+003;4.720768e-002
3.407744e+003;4.639505e-002
3.409673e+003;4.614437e-002
3.411601e+003;4.603414e-002
3.413530e+003;4.574265e-002
3.415458e+003;4.585031e-002
3.417387e+003;4.586556e-002
3.419316e+003;4.525904e-002
3.421244e+003;4.508068e-002
3.423173e+003;4.525183e-002
3.425101e+003;4.499905e-002
3.427030e+003;4.499960e-002
3.428958e+003;4.513406e-002
3.430887e+003;4.472365e-002
3.432815e+003;4.438790e-002
3.434744e+003;4.401098e-002
3.436673e+003;4.395327e-002
3.438601e+003;4.428938e-002
3.440530e+003;4.459538e-002
3.442458e+003;4.472868e-002
3.444387e+003;4.430262e-002
3.446315e+003;4.364046e-002
3.448244e+003;4.346764e-002
3.450172e+003;4.367494e-002
3.452101e+003;4.349412e-002
3.454030e+003;4.301959e-002
3.455958e+003;4.296493e-002
3.457886e+003;4.300667e-002
3.459815e+003;4.291738e-002
3.461744e+003;4.237968e-002
3.463672e+003;4.213015e-002
3.465601e+003;4.222745e-002
3.467529e+003;4.225291e-002
3.469458e+003;4.203968e-002
3.471386e+003;4.185393e-002
3.473315e+003;4.163062e-002
3.475243e+003;4.160108e-002
3.477172e+003;4.173978e-002
3.479101e+003;4.172107e-002
3.481029e+003;4.177265e-002
3.482958e+003;4.177188e-002
3.484886e+003;4.159007e-002
3.486815e+003;4.150023e-002
3.488743e+003;4.129696e-002
3.490672e+003;4.106982e-002
3.492600e+003;4.110052e-002
3.494529e+003;4.123604e-002
3.496458e+003;4.101494e-002
3.498386e+003;4.043319e-002
3.500315e+003;4.025434e-002
3.502243e+003;4.063714e-002
3.504172e+003;4.071694e-002
3.506100e+003;4.063700e-002
3.508029e+003;4.025768e-002
3.509957e+003;3.940649e-002
3.511886e+003;3.922062e-002
3.513814e+003;3.961711e-002
3.515743e+003;3.953781e-002
3.517672e+003;3.941324e-002
3.519600e+003;3.935635e-002
3.521529e+003;3.900279e-002
3.523457e+003;3.865811e-002
3.525386e+003;3.855103e-002
3.527314e+003;3.842000e-002
3.529243e+003;3.806760e-002
3.531171e+003;3.790451e-002
3.533100e+003;3.797936e-002
3.535029e+003;3.796417e-002
3.536957e+003;3.767986e-002
3.538885e+003;3.731113e-002
3.540814e+003;3.638357e-002
3.542743e+003;3.580345e-002
3.544671e+003;3.599577e-002
3.546600e+003;3.588780e-002
3.548528e+003;3.560452e-002
3.550457e+003;3.529648e-002
3.552385e+003;3.468224e-002
3.554314e+003;3.457201e-002
3.556242e+003;3.460035e-002
3.558171e+003;3.422064e-002
3.560100e+003;3.395843e-002
3.562028e+003;3.395127e-002
3.563957e+003;3.393819e-002
3.565885e+003;3.324720e-002
3.567814e+003;3.245429e-002
3.569742e+003;3.232545e-002
3.571671e+003;3.226124e-002
3.573599e+003;3.190461e-002
3.575528e+003;3.181279e-002
3.577457e+003;3.167174e-002
3.579385e+003;3.125861e-002
3.581314e+003;3.102858e-002
3.583242e+003;3.079458e-002
3.585171e+003;3.039835e-002
3.587099e+003;2.983131e-002
3.589028e+003;2.978755e-002
3.590956e+003;2.969427e-002
3.592885e+003;2.901754e-002
3.594813e+003;2.832553e-002
3.596742e+003;2.813869e-002
3.598671e+003;2.821679e-002
3.600599e+003;2.803947e-002
3.602528e+003;2.784410e-002
3.604456e+003;2.774854e-002
3.606385e+003;2.716284e-002
3.608313e+003;2.619818e-002
3.610242e+003;2.649032e-002
3.612170e+003;2.648201e-002
3.614099e+003;2.600423e-002
3.616028e+003;2.539860e-002
3.617956e+003;2.476683e-002
3.619885e+003;2.501800e-002
3.621813e+003;2.561023e-002
3.623742e+003;2.548257e-002
3.625670e+003;2.499195e-002
3.627599e+003;2.379603e-002
3.629527e+003;2.343522e-002
3.631456e+003;2.420002e-002
3.633385e+003;2.446719e-002
3.635313e+003;2.425302e-002
3.637241e+003;2.383761e-002
3.639170e+003;2.327942e-002
3.641099e+003;2.318165e-002
3.643027e+003;2.306759e-002
3.644956e+003;2.252096e-002
3.646884e+003;2.155620e-002
3.648813e+003;2.100121e-002
3.650741e+003;2.129987e-002
3.652670e+003;2.170268e-002
3.654598e+003;2.156125e-002
3.656527e+003;2.148410e-002
3.658456e+003;2.158643e-002
3.660384e+003;2.138746e-002
3.662313e+003;2.128226e-002
3.664241e+003;2.137674e-002
3.666170e+003;2.142485e-002
3.668098e+003;2.060843e-002
3.670027e+003;1.992266e-002
3.671955e+003;2.037049e-002
3.673884e+003;1.976506e-002
3.675813e+003;1.891174e-002
3.677741e+003;1.980734e-002
3.679669e+003;2.025144e-002
3.681598e+003;2.000995e-002
3.683527e+003;1.960801e-002
3.685455e+003;1.910151e-002
3.687384e+003;1.795131e-002
3.689312e+003;1.763897e-002
3.691241e+003;1.813039e-002
3.693169e+003;1.832417e-002
3.695098e+003;1.826362e-002
3.697026e+003;1.819749e-002
3.698955e+003;1.801813e-002
3.700884e+003;1.785842e-002
3.702812e+003;1.783971e-002
3.704741e+003;1.791853e-002
3.706669e+003;1.787893e-002
3.708598e+003;1.757061e-002
3.710526e+003;1.725186e-002
3.712455e+003;1.756775e-002
3.714383e+003;1.793518e-002
3.716312e+003;1.795835e-002
3.718240e+003;1.762534e-002
3.720169e+003;1.735400e-002
3.722098e+003;1.749030e-002
3.724026e+003;1.759373e-002
3.725955e+003;1.747847e-002
3.727883e+003;1.748954e-002
3.729812e+003;1.711015e-002
3.731740e+003;1.669084e-002
3.733669e+003;1.668154e-002
3.735597e+003;1.654243e-002
3.737526e+003;1.710647e-002
3.739455e+003;1.764463e-002
3.741383e+003;1.736279e-002
3.743312e+003;1.635409e-002
3.745240e+003;1.649448e-002
3.747169e+003;1.674287e-002
3.749097e+003;1.593623e-002
3.751026e+003;1.597576e-002
3.752954e+003;1.664539e-002
3.754883e+003;1.738027e-002
3.756812e+003;1.733548e-002
3.758740e+003;1.707200e-002
3.760668e+003;1.734641e-002
3.762597e+003;1.805374e-002
3.764526e+003;1.827399e-002
3.766454e+003;1.834650e-002
3.768383e+003;1.781019e-002
3.770311e+003;1.764373e-002
3.772240e+003;1.791933e-002
3.774168e+003;1.789834e-002
3.776097e+003;1.781665e-002
3.778025e+003;1.774571e-002
3.779954e+003;1.774095e-002
3.781883e+003;1.780560e-002
3.783811e+003;1.806738e-002
3.785740e+003;1.827963e-002
3.787668e+003;1.821905e-002
3.789597e+003;1.797089e-002
3.791525e+003;1.760943e-002
3.793454e+003;1.756582e-002
3.795382e+003;1.771224e-002
3.797311e+003;1.785003e-002
3.799240e+003;1.744298e-002
3.801168e+003;1.697917e-002
3.803097e+003;1.746488e-002
3.805025e+003;1.765077e-002
3.806954e+003;1.790959e-002
3.808882e+003;1.852665e-002
3.810811e+003;1.842469e-002
3.812739e+003;1.791063e-002
3.814668e+003;1.748834e-002
3.816596e+003;1.773602e-002
3.818525e+003;1.767821e-002
3.820454e+003;1.690479e-002
3.822382e+003;1.756427e-002
3.824311e+003;1.857357e-002
3.826239e+003;1.864714e-002
3.828168e+003;1.882758e-002
3.830096e+003;1.861497e-002
3.832025e+003;1.843503e-002
3.833953e+003;1.837927e-002
3.835882e+003;1.781817e-002
3.837811e+003;1.763186e-002
3.839739e+003;1.827327e-002
3.841667e+003;1.865066e-002
3.843596e+003;1.912177e-002
3.845525e+003;1.948999e-002
3.847453e+003;1.945797e-002
3.849382e+003;1.888267e-002
3.851310e+003;1.775648e-002
3.853239e+003;1.725380e-002
3.855167e+003;1.832880e-002
3.857096e+003;1.893504e-002
3.859024e+003;1.879779e-002
3.860953e+003;1.898471e-002
3.862882e+003;1.919847e-002
3.864810e+003;1.889835e-002
3.866739e+003;1.889638e-002
3.868667e+003;1.884675e-002
3.870596e+003;1.877810e-002
3.872524e+003;1.903137e-002
3.874453e+003;1.905799e-002
3.876381e+003;1.916983e-002
3.878310e+003;1.891309e-002
3.880239e+003;1.871753e-002
3.882167e+003;1.896079e-002
3.884096e+003;1.876565e-002
3.886024e+003;1.881004e-002
3.887953e+003;1.939148e-002
3.889881e+003;1.958454e-002
3.891810e+003;1.965383e-002
3.893738e+003;1.989589e-002
3.895667e+003;1.976891e-002
3.897595e+003;1.925343e-002
3.899524e+003;1.908382e-002
3.901453e+003;1.923334e-002
3.903381e+003;1.906917e-002
3.905310e+003;1.961698e-002
3.907238e+003;2.057188e-002
3.909167e+003;2.066847e-002
3.911095e+003;2.038511e-002
3.913024e+003;2.042019e-002
3.914952e+003;2.039143e-002
3.916881e+003;2.006349e-002
3.918810e+003;2.001856e-002
3.920738e+003;1.977349e-002
3.922667e+003;1.965321e-002
3.924595e+003;2.011867e-002
3.926524e+003;2.065047e-002
3.928452e+003;2.096279e-002
3.930381e+003;2.094422e-002
3.932309e+003;2.117130e-002
3.934238e+003;2.149319e-002
3.936167e+003;2.131782e-002
3.938095e+003;2.094634e-002
3.940023e+003;2.101328e-002
3.941952e+003;2.111759e-002
3.943881e+003;2.123629e-002
3.945809e+003;2.155499e-002
3.947738e+003;2.142116e-002
3.949666e+003;2.112040e-002
3.951595e+003;2.144775e-002
3.953523e+003;2.149029e-002
3.955452e+003;2.145426e-002
3.957380e+003;2.189176e-002
3.959309e+003;2.204023e-002
3.961238e+003;2.171898e-002
3.963166e+003;2.143428e-002
3.965095e+003;2.200882e-002
3.967023e+003;2.250065e-002
3.968952e+003;2.268605e-002
3.970880e+003;2.293008e-002
3.972809e+003;2.287842e-002
3.974737e+003;2.282122e-002
3.976666e+003;2.272191e-002
3.978594e+003;2.289676e-002
3.980523e+003;2.318518e-002
3.982452e+003;2.326677e-002
3.984380e+003;2.314905e-002
3.986309e+003;2.315118e-002
3.988237e+003;2.355358e-002
3.990166e+003;2.374556e-002
3.992094e+003;2.394439e-002
3.994023e+003;2.425481e-002
3.995951e+003;2.458351e-002
3.997880e+003;2.463001e-002
3.999809e+003;2.438033e-002
4.001737e+003;0.000000e+000
