3.992094e+002;0.000000e+000
4.011380e+002;0.000000e+000
4.030665e+002;0.000000e+000
4.049951e+002;0.000000e+000
4.069236e+002;0.000000e+000
4.088522e+002;0.000000e+000
4.107807e+002;0.000000e+000
4.127093e+002;0.000000e+000
4.146378e+002;0.000000e+000
4.165664e+002;0.000000e+000
4.184949e+002;0.000000e+000
4.204235e+002;0.000000e+000
4.223520e+002;0.000000e+000
4.242806e+002;0.000000e+000
4.262091e+002;0.000000e+000
4.281377e+002;0.000000e+000
4.300662e+002;0.000000e+000
4.319948e+002;0.000000e+000
4.339233e+002;0.000000e+000
4.358519e+002;0.000000e+000
4.377804e+002;0.000000e+000
4.397090e+002;0.000000e+000
4.416375e+002;0.000000e+000
4.435660e+002;0.000000e+000
4.454946e+002;0.000000e+000
4.474232e+002;0.000000e+000
4.493517e+002;0.000000e+000
4.512802e+002;0.000000e+000
4.532088e+002;0.000000e+000
4.551373e+002;0.000000e+000
4.570659e+002;0.000000e+000
4.589944e+002;0.000000e+000
4.609230e+002;0.000000e+000
4.628515e+002;0.000000e+000
4.647801e+002;0.000000e+000
4.667086e+002;0.000000e+000
4.686372e+002;0.000000e+000
4.705657e+002;0.000000e+000
4.724943e+002;0.000000e+000
4.744228e+002;0.000000e+000
4.763513e+002;0.000000e+000
4.782799e+002;0.000000e+000
4.802085e+002;0.000000e+000
4.821370e+002;0.000000e+000
4.840656e+002;0.000000e+000
4.859941e+002;0.000000e+000
4.879226e+002;0.000000e+000
4.898512e+002;0.000000e+000
4.917798e+002;0.000000e+000
4.937083e+002;0.000000e+000
4.956368e+002;0.000000e+000
4.975654e+002;0.000000e+000
4.994939e+002;0.000000e+000
5.014225e+002;0.000000e+000
5.033510e+002;0.000000e+000
5.052796e+002;0.000000e+000
5.072081e+002;0.000000e+000
5.091367e+002;0.000000e+000
5.110652e+002;0.000000e+000
5.129938e+002;0.000000e+000
5.149223e+002;0.000000e+000
5.168509e+002;0.000000e+000
5.187794e+002;0.000000e+000
5.207079e+002;0.000000e+000
5.226365e+002;0.000000e+000
5.245651e+002;0.000000e+000
5.264936e+002;0.000000e+000
5.284222e+002;0.000000e+000
5.303507e+002;0.000000e+000
5.322792e+002;0.000000e+000
5.342078e+002;0.000000e+000
5.361364e+002;0.000000e+000
5.380649e+002;0.000000e+000
5.399935e+002;0.000000e+000
5.419220e+002;0.000000e+000
5.438505e+002;0.000000e+000
5.457791e+002;0.000000e+000
5.477076e+002;0.000000e+000
5.496362e+002;0.000000e+000
5.515648e+002;0.000000e+000
5.534933e+002;0.000000e+000
5.554218e+002;0.000000e+000
5.573504e+002;0.000000e+000
5.592789e+002;0.000000e+000
5.612075e+002;0.000000e+000
5.631360e+002;0.000000e+000
5.650646e+002;0.000000e+000
5.669931e+002;0.000000e+000
5.689217e+002;0.000000e+000
5.708502e+002;0.000000e+000
5.727787e+002;0.000000e+000
5.747073e+002;0.000000e+000
5.766359e+002;0.000000e+000
5.785644e+002;0.000000e+000
5.804930e+002;0.000000e+000
5.824215e+002;0.000000e+000
5.843500e+002;0.000000e+000
5.862786e+002;0.000000e+000
5.882072e+002;0.000000e+000
5.901357e+002;0.000000e+000
5.920643e+002;0.000000e+000
5.939928e+002;0.000000e+000
5.959213e+002;0.000000e+000
5.978499e+002;0.000000e+000
5.997784e+002;1.336185e-001
6.017070e+002;1.369791e-001
6.036355e+002;1.438269e-001
6.055641e+002;1.419845e-001
6.074926e+002;1.361911e-001
6.094211e+002;1.378777e-001
6.113497e+002;1.402007e-001
6.132783e+002;1.387735e-001
6.152068e+002;1.391070e-001
6.171354e+002;1.408698e-001
6.190639e+002;1.427409e-001
6.209924e+002;1.428794e-001
6.229210e+002;1.421593e-001
6.248495e+002;1.399659e-001
6.267781e+002;1.382307e-001
6.287067e+002;1.384415e-001
6.306352e+002;1.419697e-001
6.325637e+002;1.414959e-001
6.344923e+002;1.405141e-001
6.364208e+002;1.410518e-001
6.383494e+002;1.398986e-001
6.402780e+002;1.354345e-001
6.422065e+002;1.369972e-001
6.441350e+002;1.446842e-001
6.460636e+002;1.485184e-001
6.479921e+002;1.510298e-001
6.499207e+002;1.521059e-001
6.518492e+002;1.516404e-001
6.537778e+002;1.554711e-001
6.557063e+002;1.610363e-001
6.576349e+002;1.622227e-001
6.595634e+002;1.630570e-001
6.614919e+002;1.679532e-001
6.634205e+002;1.724186e-001
6.653491e+002;1.753157e-001
6.672776e+002;1.770252e-001
6.692062e+002;1.781953e-001
6.711347e+002;1.785252e-001
6.730632e+002;1.788947e-001
6.749918e+002;1.799909e-001
6.769203e+002;1.818058e-001
6.788489e+002;1.846021e-001
6.807775e+002;1.859846e-001
6.827060e+002;1.867602e-001
6.846345e+002;1.857238e-001
6.865631e+002;1.822204e-001
6.884916e+002;1.810676e-001
6.904202e+002;1.794011e-001
6.923488e+002;1.771613e-001
6.942773e+002;1.755156e-001
6.962058e+002;1.714012e-001
6.981344e+002;1.673183e-001
7.000629e+002;1.652435e-001
7.019915e+002;1.633173e-001
7.039200e+002;1.612727e-001
7.058486e+002;1.600657e-001
7.077771e+002;1.591440e-001
7.097057e+002;1.573728e-001
7.116342e+002;1.559348e-001
7.135627e+002;1.547515e-001
7.154913e+002;1.515312e-001
7.174199e+002;1.489083e-001
7.193484e+002;1.483346e-001
7.212770e+002;1.481919e-001
7.232055e+002;1.487336e-001
7.251340e+002;1.498354e-001
7.270626e+002;1.502677e-001
7.289911e+002;1.482264e-001
7.309197e+002;1.433804e-001
7.328483e+002;1.371072e-001
7.347768e+002;1.302160e-001
7.367053e+002;1.238682e-001
7.386339e+002;1.185212e-001
7.405624e+002;1.135485e-001
7.424910e+002;1.100704e-001
7.444196e+002;1.078863e-001
7.463481e+002;1.060783e-001
7.482766e+002;1.041989e-001
7.502052e+002;1.024757e-001
7.521337e+002;1.007860e-001
7.540623e+002;9.975809e-002
7.559908e+002;9.886388e-002
7.579194e+002;9.755171e-002
7.598479e+002;9.561429e-002
7.617765e+002;9.408320e-002
7.637050e+002;9.294931e-002
7.656335e+002;9.199578e-002
7.675621e+002;9.085084e-002
7.694907e+002;8.991902e-002
7.714192e+002;8.948245e-002
7.733478e+002;8.908208e-002
7.752763e+002;8.814433e-002
7.772048e+002;8.608534e-002
7.791334e+002;8.479171e-002
7.810620e+002;8.397432e-002
7.829905e+002;8.297797e-002
7.849191e+002;8.119836e-002
7.868476e+002;7.971611e-002
7.887761e+002;7.850277e-002
7.907047e+002;7.722928e-002
7.926332e+002;7.637260e-002
7.945618e+002;7.571428e-002
7.964903e+002;7.481875e-002
7.984189e+002;7.346608e-002
8.003474e+002;7.147923e-002
8.022759e+002;7.018108e-002
8.042045e+002;7.006624e-002
8.061331e+002;6.931945e-002
8.080616e+002;6.830680e-002
8.099902e+002;6.833200e-002
8.119187e+002;6.812016e-002
8.138472e+002;6.699793e-002
8.157758e+002;6.619924e-002
8.177043e+002;6.566964e-002
8.196329e+002;6.587721e-002
8.215615e+002;6.635169e-002
8.234900e+002;6.619935e-002
8.254185e+002;6.605185e-002
8.273471e+002;6.745305e-002
8.292756e+002;6.975892e-002
8.312042e+002;7.102549e-002
8.331328e+002;7.131150e-002
8.350613e+002;7.026836e-002
8.369898e+002;6.776785e-002
8.389184e+002;6.575429e-002
8.408469e+002;6.439643e-002
8.427755e+002;6.238146e-002
8.447040e+002;6.087248e-002
8.466326e+002;5.974541e-002
8.485611e+002;5.932765e-002
8.504897e+002;6.006860e-002
8.524182e+002;6.041410e-002
8.543467e+002;6.001643e-002
8.562753e+002;5.949444e-002
8.582039e+002;5.937278e-002
8.601324e+002;5.947589e-002
8.620610e+002;5.908629e-002
8.639895e+002;5.898384e-002
8.659180e+002;5.968820e-002
8.678466e+002;6.041349e-002
8.697751e+002;6.044282e-002
8.717037e+002;6.053019e-002
8.736323e+002;6.078950e-002
8.755608e+002;6.088006e-002
8.774893e+002;6.118349e-002
8.794179e+002;6.116041e-002
8.813464e+002;6.070757e-002
8.832750e+002;6.095032e-002
8.852036e+002;6.168278e-002
8.871321e+002;6.234895e-002
8.890606e+002;6.265356e-002
8.909892e+002;6.215882e-002
8.929177e+002;6.203779e-002
8.948463e+002;6.243797e-002
8.967748e+002;6.281814e-002
8.987034e+002;6.300929e-002
9.006319e+002;6.300749e-002
9.025605e+002;6.341658e-002
9.044890e+002;6.403964e-002
9.064175e+002;6.443152e-002
9.083461e+002;6.484175e-002
9.102747e+002;6.524410e-002
9.122032e+002;6.558875e-002
9.141318e+002;6.616022e-002
9.160603e+002;6.660049e-002
9.179888e+002;6.711946e-002
9.199174e+002;6.803451e-002
9.218459e+002;6.883523e-002
9.237745e+002;6.982118e-002
9.257031e+002;7.144509e-002
9.276316e+002;7.271276e-002
9.295601e+002;7.263020e-002
9.314887e+002;7.187132e-002
9.334172e+002;7.073254e-002
9.353458e+002;6.949113e-002
9.372744e+002;6.900376e-002
9.392029e+002;6.905507e-002
9.411314e+002;6.914842e-002
9.430600e+002;6.979149e-002
9.449885e+002;7.096747e-002
9.469171e+002;7.273791e-002
9.488456e+002;7.449806e-002
9.507742e+002;7.547961e-002
9.527027e+002;7.596210e-002
9.546313e+002;7.659507e-002
9.565598e+002;7.773495e-002
9.584883e+002;7.861100e-002
9.604169e+002;7.839849e-002
9.623455e+002;7.728782e-002
9.642740e+002;7.625430e-002
9.662026e+002;7.583524e-002
9.681311e+002;7.562097e-002
9.700596e+002;7.548817e-002
9.719882e+002;7.514267e-002
9.739167e+002;7.468969e-002
9.758453e+002;7.424867e-002
9.777739e+002;7.349347e-002
9.797024e+002;7.290283e-002
9.816309e+002;7.272694e-002
9.835595e+002;7.232923e-002
9.854880e+002;7.140889e-002
9.874166e+002;7.053091e-002
9.893452e+002;6.991143e-002
9.912737e+002;6.896411e-002
9.932022e+002;6.819808e-002
9.951307e+002;6.790009e-002
9.970593e+002;6.748595e-002
9.989879e+002;6.708829e-002
1.000916e+003;6.707016e-002
1.002845e+003;6.710062e-002
1.004773e+003;6.715798e-002
1.006702e+003;6.747659e-002
1.008631e+003;6.744651e-002
1.010559e+003;6.728466e-002
1.012488e+003;6.727437e-002
1.014416e+003;6.686113e-002
1.016345e+003;6.664672e-002
1.018273e+003;6.668933e-002
1.020202e+003;6.676383e-002
1.022130e+003;6.767572e-002
1.024059e+003;6.917717e-002
1.025988e+003;7.025461e-002
1.027916e+003;7.100461e-002
1.029845e+003;7.109781e-002
1.031773e+003;7.052334e-002
1.033702e+003;7.020180e-002
1.035630e+003;6.988710e-002
1.037559e+003;6.900341e-002
1.039487e+003;6.819338e-002
1.041416e+003;6.788149e-002
1.043344e+003;6.765322e-002
1.045273e+003;6.726802e-002
1.047202e+003;6.715979e-002
1.049130e+003;6.755175e-002
1.051059e+003;6.867270e-002
1.052987e+003;6.963945e-002
1.054916e+003;7.040811e-002
1.056844e+003;7.176956e-002
1.058773e+003;7.340248e-002
1.060701e+003;7.434869e-002
1.062630e+003;7.484127e-002
1.064558e+003;7.604516e-002
1.066487e+003;7.725243e-002
1.068416e+003;7.796185e-002
1.070344e+003;7.836992e-002
1.072273e+003;7.891408e-002
1.074201e+003;7.900052e-002
1.076130e+003;7.820418e-002
1.078058e+003;7.767722e-002
1.079987e+003;7.720655e-002
1.081915e+003;7.659946e-002
1.083844e+003;7.631592e-002
1.085773e+003;7.595686e-002
1.087701e+003;7.585919e-002
1.089630e+003;7.505381e-002
1.091558e+003;7.456131e-002
1.093487e+003;7.478943e-002
1.095415e+003;7.566853e-002
1.097344e+003;7.686985e-002
1.099272e+003;7.793426e-002
1.101201e+003;7.869968e-002
1.103129e+003;7.990349e-002
1.105058e+003;8.151909e-002
1.106987e+003;8.316295e-002
1.108915e+003;8.482651e-002
1.110844e+003;8.597830e-002
1.112772e+003;8.671241e-002
1.114701e+003;8.703966e-002
1.116629e+003;8.689604e-002
1.118558e+003;8.698735e-002
1.120486e+003;8.673078e-002
1.122415e+003;8.515351e-002
1.124344e+003;8.292101e-002
1.126272e+003;8.050960e-002
1.128201e+003;7.809501e-002
1.130129e+003;7.621370e-002
1.132058e+003;7.490048e-002
1.133986e+003;7.415755e-002
1.135915e+003;7.395118e-002
1.137843e+003;7.429482e-002
1.139772e+003;7.491803e-002
1.141700e+003;7.598930e-002
1.143629e+003;7.770983e-002
1.145557e+003;7.993042e-002
1.147486e+003;8.174845e-002
1.149415e+003;8.354830e-002
1.151343e+003;8.621863e-002
1.153272e+003;8.933728e-002
1.155200e+003;9.264407e-002
1.157129e+003;9.649380e-002
1.159057e+003;1.009288e-001
1.160986e+003;1.060102e-001
1.162914e+003;1.116762e-001
1.164843e+003;1.171237e-001
1.166771e+003;1.216208e-001
1.168700e+003;1.240051e-001
1.170629e+003;1.234879e-001
1.172557e+003;1.204857e-001
1.174486e+003;1.155570e-001
1.176414e+003;1.102834e-001
1.178343e+003;1.060212e-001
1.180271e+003;1.031306e-001
1.182200e+003;1.017875e-001
1.184128e+003;1.025361e-001
1.186057e+003;1.048300e-001
1.187986e+003;1.080907e-001
1.189914e+003;1.116795e-001
1.191843e+003;1.157266e-001
1.193771e+003;1.206059e-001
1.195700e+003;1.261585e-001
1.197628e+003;1.312605e-001
1.199557e+003;1.333353e-001
1.201485e+003;1.311764e-001
1.203414e+003;1.271636e-001
1.205343e+003;1.238205e-001
1.207271e+003;1.212375e-001
1.209200e+003;1.196699e-001
1.211128e+003;1.192189e-001
1.213057e+003;1.185714e-001
1.214985e+003;1.166686e-001
1.216914e+003;1.136919e-001
1.218842e+003;1.104920e-001
1.220771e+003;1.085188e-001
1.222699e+003;1.086361e-001
1.224628e+003;1.103326e-001
1.226557e+003;1.133430e-001
1.228485e+003;1.173426e-001
1.230414e+003;1.221073e-001
1.232342e+003;1.267940e-001
1.234271e+003;1.302088e-001
1.236199e+003;1.323204e-001
1.238128e+003;1.330868e-001
1.240056e+003;1.329713e-001
1.241985e+003;1.325947e-001
1.243913e+003;1.322866e-001
1.245842e+003;1.330783e-001
1.247771e+003;1.349316e-001
1.249699e+003;1.371248e-001
1.251628e+003;1.399118e-001
1.253556e+003;1.433309e-001
1.255485e+003;1.464150e-001
1.257413e+003;1.490801e-001
1.259342e+003;1.517046e-001
1.261270e+003;1.530585e-001
1.263199e+003;1.515936e-001
1.265127e+003;1.475497e-001
1.267056e+003;1.416929e-001
1.268985e+003;1.350553e-001
1.270913e+003;1.297216e-001
1.272842e+003;1.268501e-001
1.274770e+003;1.258073e-001
1.276699e+003;1.253309e-001
1.278627e+003;1.244654e-001
1.280556e+003;1.232437e-001
1.282484e+003;1.215439e-001
1.284413e+003;1.200362e-001
1.286342e+003;1.188392e-001
1.288270e+003;1.175458e-001
1.290199e+003;1.167538e-001
1.292127e+003;1.162289e-001
1.294056e+003;1.151413e-001
1.295984e+003;1.142905e-001
1.297913e+003;1.142244e-001
1.299841e+003;1.142359e-001
1.301770e+003;1.135896e-001
1.303698e+003;1.127279e-001
1.305627e+003;1.120793e-001
1.307556e+003;1.110181e-001
1.309484e+003;1.095266e-001
1.311413e+003;1.082359e-001
1.313341e+003;1.073140e-001
1.315270e+003;1.064257e-001
1.317198e+003;1.053129e-001
1.319127e+003;1.042262e-001
1.321055e+003;1.033002e-001
1.322984e+003;1.026145e-001
1.324912e+003;1.023199e-001
1.326841e+003;1.024092e-001
1.328770e+003;1.026938e-001
1.330698e+003;1.030491e-001
1.332627e+003;1.035046e-001
1.334555e+003;1.037050e-001
1.336484e+003;1.040164e-001
1.338412e+003;1.044066e-001
1.340341e+003;1.050567e-001
1.342269e+003;1.060847e-001
1.344198e+003;1.069355e-001
1.346126e+003;1.076130e-001
1.348055e+003;1.086425e-001
1.349984e+003;1.100091e-001
1.351912e+003;1.115244e-001
1.353841e+003;1.129091e-001
1.355769e+003;1.145556e-001
1.357698e+003;1.164298e-001
1.359626e+003;1.181762e-001
1.361555e+003;1.198121e-001
1.363483e+003;1.213989e-001
1.365412e+003;1.230657e-001
1.367341e+003;1.248796e-001
1.369269e+003;1.266452e-001
1.371198e+003;1.272790e-001
1.373126e+003;1.265641e-001
1.375055e+003;1.250856e-001
1.376983e+003;1.228502e-001
1.378912e+003;1.195419e-001
1.380840e+003;1.158360e-001
1.382769e+003;1.125271e-001
1.384698e+003;1.095119e-001
1.386626e+003;1.065659e-001
1.388555e+003;1.042048e-001
1.390483e+003;1.025141e-001
1.392412e+003;1.012287e-001
1.394340e+003;1.003336e-001
1.396269e+003;1.002531e-001
1.398197e+003;1.009450e-001
1.400126e+003;1.023556e-001
1.402054e+003;1.046542e-001
1.403983e+003;1.079960e-001
1.405911e+003;1.125185e-001
1.407840e+003;1.181832e-001
1.409769e+003;1.246178e-001
1.411697e+003;1.311792e-001
1.413626e+003;1.369807e-001
1.415554e+003;1.406731e-001
1.417483e+003;1.416494e-001
1.419411e+003;1.397232e-001
1.421340e+003;1.360352e-001
1.423268e+003;1.323472e-001
1.425197e+003;1.299493e-001
1.427125e+003;1.296714e-001
1.429054e+003;1.312059e-001
1.430983e+003;1.335065e-001
1.432911e+003;1.357366e-001
1.434840e+003;1.368212e-001
1.436768e+003;1.365497e-001
1.438697e+003;1.360755e-001
1.440625e+003;1.353127e-001
1.442554e+003;1.344317e-001
1.444482e+003;1.339631e-001
1.446411e+003;1.340520e-001
1.448340e+003;1.348931e-001
1.450268e+003;1.369490e-001
1.452197e+003;1.395318e-001
1.454125e+003;1.420881e-001
1.456054e+003;1.447290e-001
1.457982e+003;1.489936e-001
1.459911e+003;1.549387e-001
1.461839e+003;1.587557e-001
1.463768e+003;1.573400e-001
1.465697e+003;1.511728e-001
1.467625e+003;1.436675e-001
1.469554e+003;1.380858e-001
1.471482e+003;1.356806e-001
1.473411e+003;1.363785e-001
1.475339e+003;1.379743e-001
1.477268e+003;1.372712e-001
1.479196e+003;1.335125e-001
1.481125e+003;1.278051e-001
1.483053e+003;1.213678e-001
1.484982e+003;1.158614e-001
1.486911e+003;1.127057e-001
1.488839e+003;1.120133e-001
1.490768e+003;1.134467e-001
1.492696e+003;1.161608e-001
1.494625e+003;1.192602e-001
1.496553e+003;1.229343e-001
1.498482e+003;1.276150e-001
1.500410e+003;1.327939e-001
1.502339e+003;1.382533e-001
1.504267e+003;1.441764e-001
1.506196e+003;1.506233e-001
1.508125e+003;1.576623e-001
1.510053e+003;1.649644e-001
1.511982e+003;1.727338e-001
1.513910e+003;1.809652e-001
1.515839e+003;1.892399e-001
1.517767e+003;1.980058e-001
1.519696e+003;2.071729e-001
1.521624e+003;2.172089e-001
1.523553e+003;2.278297e-001
1.525481e+003;2.380671e-001
1.527410e+003;2.483085e-001
1.529339e+003;2.582745e-001
1.531267e+003;2.671724e-001
1.533196e+003;2.748216e-001
1.535124e+003;2.810167e-001
1.537053e+003;2.841442e-001
1.538981e+003;2.834022e-001
1.540910e+003;2.799302e-001
1.542838e+003;2.737632e-001
1.544767e+003;2.649652e-001
1.546695e+003;2.543560e-001
1.548624e+003;2.423511e-001
1.550553e+003;2.298658e-001
1.552481e+003;2.181161e-001
1.554410e+003;2.074578e-001
1.556338e+003;1.972301e-001
1.558267e+003;1.872079e-001
1.560195e+003;1.784735e-001
1.562124e+003;1.705389e-001
1.564052e+003;1.625061e-001
1.565981e+003;1.543230e-001
1.567910e+003;1.460202e-001
1.569838e+003;1.380962e-001
1.571767e+003;1.313184e-001
1.573695e+003;1.250126e-001
1.575624e+003;1.189354e-001
1.577552e+003;1.138761e-001
1.579481e+003;1.102995e-001
1.581409e+003;1.073136e-001
1.583338e+003;1.048462e-001
1.585266e+003;1.034603e-001
1.587195e+003;1.031405e-001
1.589124e+003;1.032528e-001
1.591052e+003;1.037951e-001
1.592981e+003;1.053858e-001
1.594909e+003;1.080696e-001
1.596838e+003;1.115667e-001
1.598766e+003;1.158060e-001
1.600695e+003;1.208861e-001
1.602623e+003;1.271653e-001
1.604552e+003;1.345743e-001
1.606480e+003;1.424659e-001
1.608409e+003;1.508244e-001
1.610338e+003;1.600897e-001
1.612266e+003;1.706999e-001
1.614195e+003;1.823704e-001
1.616123e+003;1.953668e-001
1.618052e+003;2.107869e-001
1.619980e+003;2.279098e-001
1.621909e+003;2.456890e-001
1.623837e+003;2.637978e-001
1.625766e+003;2.818864e-001
1.627694e+003;3.000845e-001
1.629623e+003;3.184194e-001
1.631552e+003;3.355187e-001
1.633480e+003;3.488125e-001
1.635409e+003;3.551828e-001
1.637337e+003;3.533851e-001
1.639266e+003;3.427518e-001
1.641194e+003;3.246935e-001
1.643123e+003;3.029900e-001
1.645051e+003;2.802819e-001
1.646980e+003;2.584232e-001
1.648909e+003;2.391723e-001
1.650837e+003;2.218581e-001
1.652766e+003;2.059140e-001
1.654694e+003;1.934173e-001
1.656623e+003;1.833263e-001
1.658551e+003;1.736133e-001
1.660480e+003;1.638013e-001
1.662408e+003;1.543206e-001
1.664337e+003;1.452301e-001
1.666266e+003;1.359479e-001
1.668194e+003;1.268366e-001
1.670123e+003;1.183198e-001
1.672051e+003;1.108112e-001
1.673980e+003;1.036438e-001
1.675908e+003;9.663174e-002
1.677837e+003;8.973081e-002
1.679765e+003;8.272318e-002
1.681694e+003;7.580841e-002
1.683622e+003;6.901032e-002
1.685551e+003;6.299826e-002
1.687479e+003;5.829082e-002
1.689408e+003;5.460691e-002
1.691337e+003;5.176739e-002
1.693265e+003;4.931530e-002
1.695194e+003;4.716894e-002
1.697122e+003;4.593037e-002
1.699051e+003;4.509741e-002
1.700979e+003;4.452650e-002
1.702908e+003;4.447639e-002
1.704836e+003;4.402260e-002
1.706765e+003;4.383732e-002
1.708693e+003;4.408542e-002
1.710622e+003;4.414638e-002
1.712551e+003;4.389992e-002
1.714479e+003;4.378285e-002
1.716408e+003;4.369439e-002
1.718336e+003;4.375933e-002
1.720265e+003;4.411593e-002
1.722193e+003;4.435161e-002
1.724122e+003;4.434317e-002
1.726050e+003;4.427925e-002
1.727979e+003;4.395085e-002
1.729908e+003;4.352906e-002
1.731836e+003;4.291844e-002
1.733765e+003;4.218367e-002
1.735693e+003;4.182230e-002
1.737622e+003;4.143593e-002
1.739550e+003;4.078944e-002
1.741479e+003;4.009264e-002
1.743407e+003;3.951538e-002
1.745336e+003;3.925203e-002
1.747265e+003;3.894009e-002
1.749193e+003;3.843777e-002
1.751122e+003;3.822251e-002
1.753050e+003;3.846869e-002
1.754979e+003;3.846666e-002
1.756907e+003;3.816990e-002
1.758836e+003;3.776381e-002
1.760764e+003;3.730593e-002
1.762693e+003;3.702370e-002
1.764621e+003;3.667374e-002
1.766550e+003;3.630431e-002
1.768479e+003;3.610533e-002
1.770407e+003;3.583281e-002
1.772336e+003;3.532710e-002
1.774264e+003;3.502892e-002
1.776193e+003;3.468540e-002
1.778121e+003;3.451435e-002
1.780050e+003;3.450448e-002
1.781978e+003;3.420425e-002
1.783907e+003;3.402569e-002
1.785835e+003;3.397026e-002
1.787764e+003;3.369847e-002
1.789693e+003;3.334891e-002
1.791621e+003;3.314388e-002
1.793550e+003;3.321068e-002
1.795478e+003;3.336580e-002
1.797407e+003;3.329192e-002
1.799335e+003;3.307972e-002
1.801264e+003;3.273128e-002
1.803192e+003;3.250468e-002
1.805121e+003;3.244990e-002
1.807049e+003;3.243709e-002
1.808978e+003;3.240542e-002
1.810907e+003;3.253724e-002
1.812835e+003;3.261760e-002
1.814764e+003;3.244216e-002
1.816692e+003;3.211873e-002
1.818621e+003;3.204253e-002
1.820549e+003;3.208119e-002
1.822478e+003;3.190971e-002
1.824406e+003;3.170435e-002
1.826335e+003;3.179914e-002
1.828264e+003;3.193389e-002
1.830192e+003;3.190204e-002
1.832121e+003;3.189965e-002
1.834049e+003;3.193470e-002
1.835978e+003;3.192116e-002
1.837906e+003;3.167413e-002
1.839835e+003;3.142169e-002
1.841763e+003;3.159280e-002
1.843692e+003;3.152885e-002
1.845620e+003;3.127182e-002
1.847549e+003;3.118210e-002
1.849478e+003;3.117672e-002
1.851406e+003;3.105097e-002
1.853335e+003;3.090650e-002
1.855263e+003;3.087092e-002
1.857192e+003;3.106841e-002
1.859120e+003;3.126025e-002
1.861049e+003;3.123244e-002
1.862977e+003;3.113838e-002
1.864906e+003;3.117491e-002
1.866834e+003;3.103246e-002
1.868763e+003;3.087722e-002
1.870692e+003;3.077605e-002
1.872620e+003;3.079522e-002
1.874549e+003;3.079092e-002
1.876477e+003;3.085790e-002
1.878406e+003;3.102702e-002
1.880334e+003;3.096332e-002
1.882263e+003;3.080991e-002
1.884191e+003;3.068270e-002
1.886120e+003;3.075532e-002
1.888048e+003;3.086964e-002
1.889977e+003;3.092738e-002
1.891906e+003;3.086217e-002
1.893834e+003;3.093606e-002
1.895763e+003;3.137104e-002
1.897691e+003;3.163318e-002
1.899620e+003;3.147954e-002
1.901548e+003;3.147487e-002
1.903477e+003;3.176352e-002
1.905405e+003;3.169694e-002
1.907334e+003;3.132862e-002
1.909262e+003;3.107720e-002
1.911191e+003;3.103509e-002
1.913120e+003;3.122970e-002
1.915048e+003;3.117679e-002
1.916977e+003;3.099791e-002
1.918905e+003;3.098869e-002
1.920834e+003;3.095887e-002
1.922762e+003;3.097983e-002
1.924691e+003;3.108837e-002
1.926619e+003;3.095876e-002
1.928548e+003;3.084086e-002
1.930477e+003;3.085295e-002
1.932405e+003;3.076840e-002
1.934334e+003;3.083296e-002
1.936262e+003;3.086950e-002
1.938191e+003;3.080714e-002
1.940119e+003;3.076389e-002
1.942048e+003;3.068529e-002
1.943976e+003;3.065596e-002
1.945905e+003;3.083193e-002
1.947833e+003;3.108684e-002
1.949762e+003;3.105421e-002
1.951691e+003;3.092016e-002
1.953619e+003;3.094521e-002
1.955548e+003;3.104759e-002
1.957476e+003;3.118149e-002
1.959405e+003;3.109168e-002
1.961333e+003;3.096997e-002
1.963262e+003;3.100726e-002
1.965190e+003;3.118420e-002
1.967119e+003;3.133115e-002
1.969047e+003;3.134967e-002
1.970976e+003;3.132385e-002
1.972905e+003;3.128742e-002
1.974833e+003;3.140573e-002
1.976762e+003;3.148827e-002
1.978690e+003;3.152161e-002
1.980619e+003;3.160232e-002
1.982547e+003;3.167609e-002
1.984476e+003;3.164676e-002
1.986404e+003;3.170941e-002
1.988333e+003;3.158796e-002
1.990261e+003;3.133368e-002
1.992190e+003;3.126819e-002
1.994119e+003;3.152895e-002
1.996047e+003;3.177825e-002
1.997976e+003;3.166629e-002
1.999904e+003;3.160143e-002
2.001833e+003;3.184075e-002
2.003761e+003;3.172909e-002
2.005690e+003;3.148609e-002
2.007618e+003;3.150195e-002
2.009547e+003;3.161130e-002
2.011476e+003;3.166942e-002
2.013404e+003;3.163207e-002
2.015333e+003;3.173782e-002
2.017261e+003;3.188435e-002
2.019190e+003;3.205547e-002
2.021118e+003;3.206636e-002
2.023047e+003;3.211291e-002
2.024975e+003;3.220525e-002
2.026904e+003;3.226696e-002
2.028833e+003;3.237061e-002
2.030761e+003;3.242184e-002
2.032690e+003;3.251457e-002
2.034618e+003;3.272510e-002
2.036547e+003;3.287593e-002
2.038475e+003;3.298705e-002
2.040404e+003;3.310218e-002
2.042332e+003;3.308577e-002
2.044261e+003;3.304300e-002
2.046189e+003;3.292078e-002
2.048118e+003;3.264797e-002
2.050047e+003;3.246415e-002
2.051975e+003;3.251289e-002
2.053904e+003;3.261775e-002
2.055832e+003;3.277837e-002
2.057761e+003;3.299742e-002
2.059689e+003;3.312399e-002
2.061618e+003;3.327629e-002
2.063546e+003;3.324928e-002
2.065475e+003;3.319556e-002
2.067404e+003;3.334673e-002
2.069332e+003;3.345451e-002
2.071260e+003;3.346667e-002
2.073189e+003;3.336490e-002
2.075118e+003;3.334115e-002
2.077046e+003;3.342706e-002
2.078975e+003;3.334122e-002
2.080903e+003;3.314066e-002
2.082832e+003;3.296486e-002
2.084760e+003;3.275221e-002
2.086689e+003;3.277379e-002
2.088617e+003;3.289848e-002
2.090546e+003;3.293997e-002
2.092475e+003;3.290895e-002
2.094403e+003;3.280570e-002
2.096332e+003;3.286359e-002
2.098260e+003;3.284194e-002
2.100189e+003;3.254264e-002
2.102117e+003;3.256521e-002
2.104046e+003;3.288200e-002
2.105974e+003;3.290209e-002
2.107903e+003;3.295356e-002
2.109832e+003;3.308073e-002
2.111760e+003;3.324324e-002
2.113688e+003;3.326033e-002
2.115617e+003;3.328258e-002
2.117546e+003;3.337120e-002
2.119474e+003;3.353758e-002
2.121403e+003;3.366889e-002
2.123331e+003;3.359757e-002
2.125260e+003;3.342201e-002
2.127188e+003;3.345930e-002
2.129117e+003;3.357473e-002
2.131045e+003;3.371597e-002
2.132974e+003;3.389936e-002
2.134903e+003;3.368629e-002
2.136831e+003;3.356213e-002
2.138760e+003;3.356048e-002
2.140688e+003;3.345021e-002
2.142617e+003;3.359821e-002
2.144545e+003;3.387510e-002
2.146474e+003;3.392282e-002
2.148402e+003;3.372883e-002
2.150331e+003;3.376543e-002
2.152260e+003;3.394930e-002
2.154188e+003;3.406525e-002
2.156117e+003;3.404769e-002
2.158045e+003;3.400605e-002
2.159974e+003;3.404042e-002
2.161902e+003;3.388936e-002
2.163831e+003;3.381801e-002
2.165759e+003;3.435890e-002
2.167688e+003;3.463864e-002
2.169616e+003;3.442202e-002
2.171545e+003;3.442073e-002
2.173474e+003;3.450136e-002
2.175402e+003;3.454538e-002
2.177331e+003;3.463329e-002
2.179259e+003;3.466605e-002
2.181188e+003;3.473098e-002
2.183116e+003;3.463056e-002
2.185045e+003;3.471149e-002
2.186973e+003;3.464424e-002
2.188902e+003;3.439046e-002
2.190831e+003;3.449032e-002
2.192759e+003;3.474031e-002
2.194688e+003;3.485318e-002
2.196616e+003;3.471203e-002
2.198545e+003;3.445975e-002
2.200473e+003;3.437927e-002
2.202402e+003;3.433014e-002
2.204330e+003;3.440387e-002
2.206259e+003;3.455970e-002
2.208188e+003;3.448178e-002
2.210116e+003;3.415944e-002
2.212044e+003;3.387775e-002
2.213973e+003;3.379401e-002
2.215902e+003;3.377746e-002
2.217830e+003;3.376328e-002
2.219759e+003;3.368654e-002
2.221687e+003;3.363713e-002
2.223616e+003;3.360083e-002
2.225544e+003;3.346535e-002
2.227473e+003;3.353056e-002
2.229401e+003;3.356535e-002
2.231330e+003;3.347723e-002
2.233259e+003;3.369542e-002
2.235187e+003;3.377238e-002
2.237116e+003;3.370033e-002
2.239044e+003;3.376704e-002
2.240973e+003;3.367505e-002
2.242901e+003;3.349502e-002
2.244830e+003;3.349523e-002
2.246758e+003;3.337335e-002
2.248687e+003;3.327643e-002
2.250615e+003;3.322156e-002
2.252544e+003;3.330938e-002
2.254473e+003;3.348056e-002
2.256401e+003;3.355612e-002
2.258330e+003;3.361594e-002
2.260258e+003;3.374419e-002
2.262187e+003;3.365750e-002
2.264115e+003;3.351531e-002
2.266044e+003;3.370867e-002
2.267972e+003;3.392766e-002
2.269901e+003;3.404780e-002
2.271830e+003;3.416070e-002
2.273758e+003;3.408185e-002
2.275687e+003;3.394615e-002
2.277615e+003;3.400036e-002
2.279544e+003;3.391336e-002
2.281472e+003;3.380368e-002
2.283401e+003;3.401107e-002
2.285329e+003;3.424390e-002
2.287258e+003;3.427983e-002
2.289187e+003;3.411747e-002
2.291115e+003;3.394475e-002
2.293043e+003;3.409091e-002
2.294972e+003;3.421540e-002
2.296901e+003;3.431045e-002
2.298829e+003;3.426033e-002
2.300758e+003;3.416583e-002
2.302686e+003;3.436872e-002
2.304615e+003;3.439354e-002
2.306543e+003;3.425362e-002
2.308472e+003;3.442643e-002
2.310400e+003;3.460340e-002
2.312329e+003;3.455238e-002
2.314258e+003;3.438239e-002
2.316186e+003;3.423756e-002
2.318115e+003;3.437148e-002
2.320043e+003;3.458790e-002
2.321972e+003;3.455568e-002
2.323900e+003;3.446542e-002
2.325829e+003;3.461463e-002
2.327757e+003;3.469735e-002
2.329686e+003;3.447665e-002
2.331615e+003;3.426416e-002
2.333543e+003;3.429155e-002
2.335472e+003;3.434599e-002
2.337400e+003;3.438533e-002
2.339329e+003;3.434760e-002
2.341257e+003;3.429134e-002
2.343186e+003;3.401533e-002
2.345114e+003;3.378749e-002
2.347043e+003;3.384537e-002
2.348971e+003;3.406066e-002
2.350900e+003;3.417554e-002
2.352829e+003;3.409045e-002
2.354757e+003;3.387313e-002
2.356686e+003;3.360470e-002
2.358614e+003;3.364587e-002
2.360543e+003;3.384021e-002
2.362471e+003;3.390129e-002
2.364400e+003;3.395740e-002
2.366328e+003;3.406321e-002
2.368257e+003;3.417414e-002
2.370186e+003;3.417253e-002
2.372114e+003;3.423315e-002
2.374042e+003;3.434728e-002
2.375971e+003;3.437271e-002
2.377900e+003;3.442399e-002
2.379828e+003;3.437041e-002
2.381757e+003;3.433910e-002
2.383685e+003;3.447661e-002
2.385614e+003;3.467697e-002
2.387542e+003;3.457046e-002
2.389471e+003;3.435495e-002
2.391399e+003;3.414468e-002
2.393328e+003;3.414188e-002
2.395257e+003;3.439376e-002
2.397185e+003;3.443404e-002
2.399114e+003;3.432171e-002
2.401042e+003;3.441295e-002
2.402971e+003;3.451561e-002
2.404899e+003;3.466121e-002
2.406828e+003;3.467672e-002
2.408756e+003;3.460315e-002
2.410685e+003;3.459543e-002
2.412614e+003;3.454754e-002
2.414542e+003;3.450818e-002
2.416471e+003;3.453290e-002
2.418399e+003;3.453455e-002
2.420328e+003;3.457376e-002
2.422256e+003;3.473658e-002
2.424185e+003;3.486872e-002
2.426113e+003;3.496492e-002
2.428042e+003;3.491626e-002
2.429970e+003;3.493077e-002
2.431899e+003;3.500590e-002
2.433828e+003;3.495702e-002
2.435756e+003;3.504275e-002
2.437685e+003;3.541524e-002
2.439613e+003;3.561901e-002
2.441542e+003;3.575045e-002
2.443470e+003;3.580546e-002
2.445399e+003;3.568044e-002
2.447327e+003;3.579104e-002
2.449256e+003;3.599563e-002
2.451185e+003;3.589579e-002
2.453113e+003;3.571279e-002
2.455042e+003;3.603923e-002
2.456970e+003;3.635637e-002
2.458899e+003;3.647848e-002
2.460827e+003;3.633180e-002
2.462756e+003;3.618837e-002
2.464684e+003;3.652984e-002
2.466613e+003;3.661937e-002
2.468542e+003;3.664313e-002
2.470470e+003;3.681974e-002
2.472398e+003;3.680322e-002
2.474327e+003;3.680676e-002
2.476256e+003;3.706528e-002
2.478184e+003;3.730322e-002
2.480113e+003;3.720903e-002
2.482041e+003;3.708170e-002
2.483970e+003;3.705333e-002
2.485898e+003;3.703157e-002
2.487827e+003;3.704687e-002
2.489755e+003;3.699996e-002
2.491684e+003;3.702028e-002
2.493613e+003;3.696493e-002
2.495541e+003;3.694700e-002
2.497470e+003;3.688604e-002
2.499398e+003;3.681574e-002
2.501327e+003;3.692770e-002
2.503255e+003;3.705521e-002
2.505184e+003;3.704687e-002
2.507112e+003;3.694548e-002
2.509041e+003;3.715283e-002
2.510969e+003;3.753002e-002
2.512898e+003;3.770331e-002
2.514827e+003;3.758848e-002
2.516755e+003;3.759393e-002
2.518684e+003;3.787974e-002
2.520612e+003;3.821295e-002
2.522541e+003;3.833957e-002
2.524469e+003;3.834171e-002
2.526398e+003;3.849432e-002
2.528326e+003;3.845783e-002
2.530255e+003;3.857883e-002
2.532184e+003;3.887870e-002
2.534112e+003;3.910977e-002
2.536041e+003;3.898003e-002
2.537969e+003;3.892386e-002
2.539898e+003;3.910260e-002
2.541826e+003;3.920829e-002
2.543755e+003;3.925181e-002
2.545683e+003;3.940224e-002
2.547612e+003;3.951215e-002
2.549541e+003;3.974418e-002
2.551469e+003;3.999152e-002
2.553397e+003;3.989071e-002
2.555326e+003;3.967908e-002
2.557255e+003;3.962579e-002
2.559183e+003;3.956140e-002
2.561112e+003;3.963890e-002
2.563040e+003;3.971473e-002
2.564969e+003;3.978158e-002
2.566897e+003;3.999595e-002
2.568826e+003;3.982330e-002
2.570754e+003;3.970126e-002
2.572683e+003;3.998974e-002
2.574612e+003;4.035442e-002
2.576540e+003;4.048000e-002
2.578469e+003;4.040500e-002
2.580397e+003;4.049702e-002
2.582326e+003;4.077430e-002
2.584254e+003;4.104597e-002
2.586183e+003;4.094958e-002
2.588111e+003;4.080709e-002
2.590040e+003;4.106330e-002
2.591969e+003;4.124409e-002
2.593897e+003;4.125039e-002
2.595826e+003;4.109018e-002
2.597754e+003;4.100230e-002
2.599683e+003;4.125936e-002
2.601611e+003;4.150059e-002
2.603540e+003;4.137593e-002
2.605468e+003;4.126184e-002
2.607397e+003;4.131205e-002
2.609325e+003;4.156717e-002
2.611254e+003;4.172337e-002
2.613183e+003;4.143327e-002
2.615111e+003;4.165531e-002
2.617040e+003;4.204658e-002
2.618968e+003;4.189651e-002
2.620897e+003;4.173252e-002
2.622825e+003;4.165892e-002
2.624754e+003;4.176692e-002
2.626682e+003;4.192381e-002
2.628611e+003;4.187524e-002
2.630540e+003;4.182387e-002
2.632468e+003;4.214625e-002
2.634396e+003;4.240018e-002
2.636325e+003;4.218857e-002
2.638254e+003;4.227051e-002
2.640182e+003;4.268157e-002
2.642111e+003;4.277648e-002
2.644039e+003;4.263902e-002
2.645968e+003;4.259362e-002
2.647896e+003;4.258602e-002
2.649825e+003;4.269243e-002
2.651753e+003;4.294236e-002
2.653682e+003;4.312108e-002
2.655611e+003;4.308980e-002
2.657539e+003;4.302547e-002
2.659468e+003;4.319007e-002
2.661396e+003;4.326920e-002
2.663325e+003;4.314212e-002
2.665253e+003;4.324760e-002
2.667182e+003;4.343655e-002
2.669110e+003;4.345559e-002
2.671039e+003;4.363445e-002
2.672968e+003;4.400214e-002
2.674896e+003;4.402832e-002
2.676825e+003;4.397325e-002
2.678753e+003;4.401542e-002
2.680682e+003;4.401619e-002
2.682610e+003;4.403294e-002
2.684539e+003;4.411703e-002
2.686467e+003;4.412741e-002
2.688396e+003;4.417352e-002
2.690324e+003;4.451142e-002
2.692253e+003;4.495947e-002
2.694182e+003;4.536337e-002
2.696110e+003;4.549382e-002
2.698039e+003;4.547624e-002
2.699967e+003;4.568570e-002
2.701896e+003;4.573246e-002
2.703824e+003;4.590080e-002
2.705753e+003;4.606608e-002
2.707681e+003;4.595910e-002
2.709610e+003;4.610653e-002
2.711539e+003;4.650859e-002
2.713467e+003;4.676225e-002
2.715396e+003;4.690164e-002
2.717324e+003;4.717935e-002
2.719253e+003;4.770002e-002
2.721181e+003;4.810955e-002
2.723110e+003;4.797595e-002
2.725038e+003;4.808860e-002
2.726967e+003;4.821399e-002
2.728896e+003;4.807147e-002
2.730824e+003;4.835759e-002
2.732752e+003;4.900077e-002
2.734681e+003;4.918240e-002
2.736610e+003;4.928186e-002
2.738538e+003;4.976526e-002
2.740467e+003;5.021748e-002
2.742395e+003;5.022038e-002
2.744324e+003;4.972580e-002
2.746252e+003;4.958891e-002
2.748181e+003;5.002741e-002
2.750109e+003;5.037079e-002
2.752038e+003;5.021948e-002
2.753967e+003;4.998079e-002
2.755895e+003;4.995737e-002
2.757824e+003;5.008895e-002
2.759752e+003;5.031654e-002
2.761681e+003;5.059957e-002
2.763609e+003;5.071209e-002
2.765538e+003;5.077473e-002
2.767466e+003;5.100555e-002
2.769395e+003;5.119630e-002
2.771323e+003;5.140057e-002
2.773252e+003;5.152143e-002
2.775181e+003;5.172846e-002
2.777109e+003;5.214760e-002
2.779038e+003;5.257855e-002
2.780966e+003;5.265328e-002
2.782895e+003;5.262048e-002
2.784823e+003;5.286669e-002
2.786752e+003;5.330975e-002
2.788680e+003;5.357153e-002
2.790609e+003;5.366870e-002
2.792538e+003;5.405050e-002
2.794466e+003;5.432475e-002
2.796395e+003;5.441251e-002
2.798323e+003;5.465884e-002
2.800252e+003;5.500864e-002
2.802180e+003;5.534969e-002
2.804109e+003;5.589812e-002
2.806037e+003;5.632425e-002
2.807966e+003;5.660141e-002
2.809895e+003;5.699585e-002
2.811823e+003;5.728758e-002
2.813751e+003;5.780912e-002
2.815680e+003;5.857664e-002
2.817609e+003;5.928587e-002
2.819537e+003;5.983382e-002
2.821466e+003;6.018128e-002
2.823394e+003;6.059833e-002
2.825323e+003;6.120897e-002
2.827251e+003;6.188000e-002
2.829180e+003;6.266638e-002
2.831108e+003;6.355751e-002
2.833037e+003;6.462150e-002
2.834966e+003;6.580298e-002
2.836894e+003;6.725819e-002
2.838823e+003;6.955805e-002
2.840751e+003;7.225010e-002
2.842680e+003;7.527356e-002
2.844608e+003;7.902067e-002
2.846537e+003;8.320011e-002
2.848465e+003;8.768064e-002
2.850394e+003;9.217551e-002
2.852323e+003;9.611581e-002
2.854251e+003;9.967759e-002
2.856180e+003;1.025307e-001
2.858108e+003;1.048267e-001
2.860037e+003;1.063393e-001
2.861965e+003;1.066905e-001
2.863894e+003;1.061853e-001
2.865822e+003;1.049327e-001
2.867751e+003;1.032351e-001
2.869679e+003;1.012043e-001
2.871608e+003;9.901243e-002
2.873536e+003;9.639124e-002
2.875465e+003;9.339381e-002
2.877394e+003;9.021778e-002
2.879322e+003;8.774803e-002
2.881251e+003;8.645288e-002
2.883179e+003;8.532878e-002
2.885108e+003;8.454906e-002
2.887036e+003;8.452781e-002
2.888965e+003;8.526071e-002
2.890893e+003;8.657787e-002
2.892822e+003;8.863075e-002
2.894750e+003;9.081699e-002
2.896679e+003;9.257070e-002
2.898608e+003;9.392963e-002
2.900536e+003;9.533243e-002
2.902465e+003;9.647551e-002
2.904393e+003;9.728298e-002
2.906322e+003;9.819786e-002
2.908250e+003;9.977660e-002
2.910179e+003;1.016320e-001
2.912107e+003;1.038046e-001
2.914036e+003;1.060133e-001
2.915965e+003;1.083284e-001
2.917893e+003;1.111769e-001
2.919822e+003;1.149275e-001
2.921750e+003;1.188332e-001
2.923679e+003;1.222488e-001
2.925607e+003;1.253344e-001
2.927536e+003;1.282489e-001
2.929464e+003;1.309118e-001
2.931393e+003;1.330149e-001
2.933322e+003;1.340991e-001
2.935250e+003;1.341252e-001
2.937178e+003;1.331200e-001
2.939107e+003;1.311184e-001
2.941036e+003;1.283083e-001
2.942964e+003;1.248058e-001
2.944893e+003;1.207385e-001
2.946821e+003;1.156540e-001
2.948750e+003;1.093715e-001
2.950678e+003;1.030193e-001
2.952607e+003;9.702057e-002
2.954535e+003;9.146769e-002
2.956464e+003;8.633952e-002
2.958393e+003;8.192951e-002
2.960321e+003;7.797981e-002
2.962250e+003;7.428028e-002
2.964178e+003;7.132251e-002
2.966107e+003;6.877824e-002
2.968035e+003;6.624249e-002
2.969964e+003;6.372297e-002
2.971892e+003;6.161281e-002
2.973821e+003;5.994374e-002
2.975750e+003;5.811469e-002
2.977678e+003;5.651011e-002
2.979607e+003;5.504994e-002
2.981535e+003;5.408045e-002
2.983464e+003;5.325764e-002
2.985392e+003;5.196427e-002
2.987321e+003;5.124652e-002
2.989249e+003;5.105831e-002
2.991178e+003;5.085548e-002
2.993106e+003;5.042426e-002
2.995035e+003;4.994938e-002
2.996964e+003;4.967075e-002
2.998892e+003;4.947602e-002
3.000821e+003;4.929270e-002
3.002749e+003;4.928873e-002
3.004678e+003;4.949574e-002
3.006606e+003;4.966659e-002
3.008535e+003;4.970782e-002
3.010463e+003;4.960634e-002
3.012392e+003;4.941405e-002
3.014321e+003;4.954665e-002
3.016249e+003;4.985531e-002
3.018177e+003;5.028231e-002
3.020106e+003;5.082043e-002
3.022035e+003;5.140146e-002
3.023963e+003;5.163333e-002
3.025892e+003;5.162445e-002
3.027820e+003;5.197966e-002
3.029749e+003;5.276248e-002
3.031677e+003;5.345542e-002
3.033606e+003;5.386866e-002
3.035534e+003;5.377174e-002
3.037463e+003;5.417368e-002
3.039392e+003;5.481214e-002
3.041320e+003;5.527390e-002
3.043249e+003;5.588003e-002
3.045177e+003;5.677667e-002
3.047106e+003;5.773770e-002
3.049034e+003;5.848966e-002
3.050963e+003;5.921470e-002
3.052891e+003;6.007655e-002
3.054820e+003;6.098723e-002
3.056749e+003;6.143957e-002
3.058677e+003;6.171971e-002
3.060606e+003;6.201493e-002
3.062534e+003;6.216788e-002
3.064463e+003;6.249543e-002
3.066391e+003;6.290392e-002
3.068320e+003;6.314734e-002
3.070248e+003;6.322601e-002
3.072177e+003;6.328845e-002
3.074105e+003;6.320877e-002
3.076034e+003;6.305660e-002
3.077963e+003;6.306542e-002
3.079891e+003;6.314523e-002
3.081820e+003;6.324176e-002
3.083748e+003;6.306231e-002
3.085677e+003;6.273778e-002
3.087605e+003;6.223422e-002
3.089534e+003;6.193174e-002
3.091462e+003;6.151832e-002
3.093391e+003;6.104260e-002
3.095320e+003;6.045416e-002
3.097248e+003;5.979621e-002
3.099177e+003;5.929966e-002
3.101105e+003;5.858437e-002
3.103034e+003;5.750339e-002
3.104962e+003;5.722630e-002
3.106891e+003;5.697322e-002
3.108819e+003;5.604938e-002
3.110748e+003;5.542355e-002
3.112677e+003;5.509210e-002
3.114605e+003;5.517279e-002
3.116533e+003;5.511399e-002
3.118462e+003;5.480511e-002
3.120391e+003;5.443362e-002
3.122319e+003;5.406791e-002
3.124248e+003;5.372839e-002
3.126176e+003;5.358202e-002
3.128105e+003;5.371474e-002
3.130033e+003;5.354908e-002
3.131962e+003;5.316086e-002
3.133890e+003;5.308605e-002
3.135819e+003;5.337474e-002
3.137748e+003;5.353333e-002
3.139676e+003;5.343444e-002
3.141605e+003;5.339753e-002
3.143533e+003;5.358813e-002
3.145462e+003;5.371092e-002
3.147390e+003;5.376728e-002
3.149319e+003;5.391393e-002
3.151247e+003;5.430090e-002
3.153176e+003;5.465576e-002
3.155104e+003;5.472186e-002
3.157033e+003;5.535052e-002
3.158962e+003;5.571068e-002
3.160890e+003;5.577498e-002
3.162819e+003;5.632255e-002
3.164747e+003;5.677670e-002
3.166676e+003;5.679324e-002
3.168604e+003;5.718264e-002
3.170533e+003;5.818326e-002
3.172461e+003;5.883592e-002
3.174390e+003;5.907206e-002
3.176319e+003;5.941449e-002
3.178247e+003;5.970621e-002
3.180176e+003;6.037770e-002
3.182104e+003;6.126983e-002
3.184033e+003;6.190713e-002
3.185961e+003;6.229456e-002
3.187890e+003;6.280160e-002
3.189818e+003;6.315825e-002
3.191747e+003;6.360899e-002
3.193676e+003;6.429330e-002
3.195604e+003;6.474133e-002
3.197532e+003;6.492121e-002
3.199461e+003;6.501752e-002
3.201390e+003;6.547967e-002
3.203318e+003;6.602369e-002
3.205247e+003;6.617376e-002
3.207175e+003;6.608225e-002
3.209104e+003;6.631309e-002
3.211032e+003;6.698142e-002
3.212961e+003;6.773342e-002
3.214889e+003;6.834421e-002
3.216818e+003;6.873301e-002
3.218747e+003;6.930779e-002
3.220675e+003;6.985915e-002
3.222604e+003;7.052892e-002
3.224532e+003;7.131559e-002
3.226461e+003;7.219219e-002
3.228389e+003;7.300846e-002
3.230318e+003;7.392848e-002
3.232246e+003;7.495772e-002
3.234175e+003;7.601172e-002
3.236104e+003;7.726771e-002
3.238032e+003;7.886585e-002
3.239961e+003;8.025116e-002
3.241889e+003;8.188462e-002
3.243818e+003;8.349979e-002
3.245746e+003;8.528180e-002
3.247675e+003;8.736023e-002
3.249603e+003;8.906357e-002
3.251532e+003;9.066018e-002
3.253460e+003;9.223361e-002
3.255389e+003;9.379876e-002
3.257318e+003;9.590551e-002
3.259246e+003;9.827201e-002
3.261175e+003;1.008400e-001
3.263103e+003;1.035759e-001
3.265032e+003;1.060733e-001
3.266960e+003;1.084927e-001
3.268889e+003;1.104969e-001
3.270817e+003;1.125339e-001
3.272746e+003;1.149700e-001
3.274675e+003;1.172346e-001
3.276603e+003;1.195017e-001
3.278531e+003;1.223027e-001
3.280460e+003;1.247730e-001
3.282389e+003;1.268333e-001
3.284317e+003;1.289794e-001
3.286246e+003;1.312075e-001
3.288174e+003;1.327899e-001
3.290103e+003;1.337114e-001
3.292031e+003;1.345093e-001
3.293960e+003;1.347877e-001
3.295888e+003;1.341175e-001
3.297817e+003;1.326683e-001
3.299746e+003;1.307227e-001
3.301674e+003;1.286055e-001
3.303603e+003;1.260417e-001
3.305531e+003;1.226842e-001
3.307460e+003;1.192512e-001
3.309388e+003;1.164644e-001
3.311317e+003;1.131580e-001
3.313245e+003;1.097762e-001
3.315174e+003;1.065858e-001
3.317103e+003;1.034057e-001
3.319031e+003;1.004827e-001
3.320960e+003;9.788679e-002
3.322888e+003;9.532607e-002
3.324817e+003;9.223574e-002
3.326745e+003;8.929024e-002
3.328674e+003;8.683991e-002
3.330602e+003;8.434606e-002
3.332531e+003;8.205818e-002
3.334459e+003;7.980816e-002
3.336388e+003;7.762168e-002
3.338317e+003;7.553264e-002
3.340245e+003;7.362634e-002
3.342174e+003;7.207103e-002
3.344102e+003;7.056774e-002
3.346031e+003;6.905212e-002
3.347959e+003;6.739643e-002
3.349888e+003;6.572002e-002
3.351816e+003;6.445266e-002
3.353745e+003;6.292468e-002
3.355674e+003;6.155348e-002
3.357602e+003;6.068368e-002
3.359531e+003;5.968269e-002
3.361459e+003;5.848352e-002
3.363388e+003;5.747113e-002
3.365316e+003;5.654502e-002
3.367245e+003;5.580392e-002
3.369173e+003;5.489538e-002
3.371102e+003;5.413017e-002
3.373031e+003;5.331432e-002
3.374959e+003;5.264116e-002
3.376887e+003;5.213340e-002
3.378816e+003;5.165934e-002
3.380745e+003;5.125745e-002
3.382673e+003;5.078221e-002
3.384602e+003;5.027119e-002
3.386530e+003;4.988782e-002
3.388459e+003;4.940763e-002
3.390387e+003;4.888235e-002
3.392316e+003;4.855882e-002
3.394244e+003;4.834489e-002
3.396173e+003;4.819377e-002
3.398102e+003;4.773993e-002
3.400030e+003;4.712247e-002
3.401959e+003;4.690124e-002
3.403887e+003;4.703769e-002
3.405816e+003;4.705393e-002
3.407744e+003;4.684484e-002
3.409673e+003;4.625648e-002
3.411601e+003;4.583131e-002
3.413530e+003;4.570433e-002
3.415458e+003;4.568909e-002
3.417387e+003;4.562380e-002
3.419316e+003;4.563797e-002
3.421244e+003;4.539210e-002
3.423173e+003;4.480986e-002
3.425101e+003;4.456828e-002
3.427030e+003;4.459589e-002
3.428958e+003;4.424348e-002
3.430887e+003;4.428787e-002
3.432815e+003;4.469952e-002
3.434744e+003;4.472997e-002
3.436673e+003;4.451560e-002
3.438601e+003;4.469181e-002
3.440530e+003;4.470786e-002
3.442458e+003;4.448300e-002
3.444387e+003;4.440148e-002
3.446315e+003;4.424502e-002
3.448244e+003;4.406096e-002
3.450172e+003;4.354393e-002
3.452101e+003;4.310462e-002
3.454030e+003;4.327337e-002
3.455958e+003;4.315826e-002
3.457886e+003;4.285108e-002
3.459815e+003;4.266464e-002
3.461744e+003;4.257714e-002
3.463672e+003;4.253274e-002
3.465601e+003;4.223100e-002
3.467529e+003;4.237654e-002
3.469458e+003;4.244534e-002
3.471386e+003;4.203125e-002
3.473315e+003;4.162635e-002
3.475243e+003;4.142434e-002
3.477172e+003;4.147428e-002
3.479101e+003;4.167705e-002
3.481029e+003;4.175521e-002
3.482958e+003;4.185725e-002
3.484886e+003;4.190271e-002
3.486815e+003;4.179286e-002
3.488743e+003;4.147041e-002
3.490672e+003;4.121083e-002
3.492600e+003;4.087291e-002
3.494529e+003;4.072611e-002
3.496458e+003;4.080196e-002
3.498386e+003;4.072815e-002
3.500315e+003;4.115553e-002
3.502243e+003;4.144613e-002
3.504172e+003;4.084589e-002
3.506100e+003;4.048410e-002
3.508029e+003;4.037108e-002
3.509957e+003;4.006981e-002
3.511886e+003;4.030658e-002
3.513814e+003;4.051120e-002
3.515743e+003;4.035410e-002
3.517672e+003;4.009369e-002
3.519600e+003;3.956017e-002
3.521529e+003;3.921188e-002
3.523457e+003;3.930049e-002
3.525386e+003;3.956971e-002
3.527314e+003;3.958648e-002
3.529243e+003;3.923484e-002
3.531171e+003;3.909661e-002
3.533100e+003;3.921584e-002
3.535029e+003;3.884739e-002
3.536957e+003;3.842499e-002
3.538885e+003;3.831938e-002
3.540814e+003;3.798258e-002
3.542743e+003;3.764459e-002
3.544671e+003;3.754234e-002
3.546600e+003;3.731398e-002
3.548528e+003;3.736482e-002
3.550457e+003;3.708072e-002
3.552385e+003;3.655741e-002
3.554314e+003;3.652818e-002
3.556242e+003;3.631357e-002
3.558171e+003;3.606792e-002
3.560100e+003;3.580597e-002
3.562028e+003;3.538206e-002
3.563957e+003;3.502773e-002
3.565885e+003;3.521685e-002
3.567814e+003;3.538644e-002
3.569742e+003;3.512645e-002
3.571671e+003;3.480166e-002
3.573599e+003;3.468762e-002
3.575528e+003;3.446252e-002
3.577457e+003;3.425079e-002
3.579385e+003;3.438034e-002
3.581314e+003;3.407912e-002
3.583242e+003;3.329618e-002
3.585171e+003;3.292950e-002
3.587099e+003;3.290016e-002
3.589028e+003;3.289630e-002
3.590956e+003;3.274889e-002
3.592885e+003;3.252517e-002
3.594813e+003;3.225721e-002
3.596742e+003;3.221292e-002
3.598671e+003;3.235776e-002
3.600599e+003;3.229804e-002
3.602528e+003;3.226035e-002
3.604456e+003;3.209293e-002
3.606385e+003;3.165071e-002
3.608313e+003;3.079408e-002
3.610242e+003;3.046630e-002
3.612170e+003;3.067797e-002
3.614099e+003;3.072235e-002
3.616028e+003;3.063736e-002
3.617956e+003;3.021303e-002
3.619885e+003;2.973529e-002
3.621813e+003;2.937682e-002
3.623742e+003;2.928518e-002
3.625670e+003;2.927246e-002
3.627599e+003;2.894167e-002
3.629527e+003;2.874501e-002
3.631456e+003;2.889135e-002
3.633385e+003;2.882874e-002
3.635313e+003;2.820894e-002
3.637241e+003;2.759087e-002
3.639170e+003;2.771308e-002
3.641099e+003;2.792069e-002
3.643027e+003;2.785911e-002
3.644956e+003;2.754991e-002
3.646884e+003;2.733299e-002
3.648813e+003;2.727325e-002
3.650741e+003;2.710605e-002
3.652670e+003;2.705058e-002
3.654598e+003;2.693398e-002
3.656527e+003;2.639306e-002
3.658456e+003;2.608350e-002
3.660384e+003;2.647296e-002
3.662313e+003;2.656534e-002
3.664241e+003;2.667325e-002
3.666170e+003;2.668072e-002
3.668098e+003;2.627301e-002
3.670027e+003;2.586998e-002
3.671955e+003;2.557934e-002
3.673884e+003;2.540822e-002
3.675813e+003;2.572304e-002
3.677741e+003;2.575436e-002
3.679669e+003;2.555805e-002
3.681598e+003;2.540292e-002
3.683527e+003;2.509557e-002
3.685455e+003;2.527443e-002
3.687384e+003;2.502944e-002
3.689312e+003;2.443918e-002
3.691241e+003;2.435061e-002
3.693169e+003;2.461809e-002
3.695098e+003;2.452850e-002
3.697026e+003;2.413917e-002
3.698955e+003;2.398581e-002
3.700884e+003;2.401855e-002
3.702812e+003;2.406698e-002
3.704741e+003;2.411983e-002
3.706669e+003;2.386478e-002
3.708598e+003;2.352133e-002
3.710526e+003;2.350594e-002
3.712455e+003;2.360196e-002
3.714383e+003;2.374322e-002
3.716312e+003;2.380748e-002
3.718240e+003;2.403378e-002
3.720169e+003;2.409248e-002
3.722098e+003;2.393949e-002
3.724026e+003;2.349923e-002
3.725955e+003;2.357629e-002
3.727883e+003;2.393791e-002
3.729812e+003;2.371795e-002
3.731740e+003;2.351224e-002
3.733669e+003;2.349657e-002
3.735597e+003;2.347146e-002
3.737526e+003;2.355327e-002
3.739455e+003;2.338921e-002
3.741383e+003;2.322996e-002
3.743312e+003;2.302388e-002
3.745240e+003;2.296362e-002
3.747169e+003;2.344711e-002
3.749097e+003;2.360921e-002
3.751026e+003;2.349884e-002
3.752954e+003;2.363537e-002
3.754883e+003;2.411878e-002
3.756812e+003;2.418225e-002
3.758740e+003;2.397089e-002
3.760668e+003;2.360700e-002
3.762597e+003;2.361561e-002
3.764526e+003;2.419651e-002
3.766454e+003;2.423659e-002
3.768383e+003;2.384349e-002
3.770311e+003;2.386996e-002
3.772240e+003;2.390552e-002
3.774168e+003;2.400136e-002
3.776097e+003;2.424006e-002
3.778025e+003;2.380632e-002
3.779954e+003;2.354666e-002
3.781883e+003;2.377447e-002
3.783811e+003;2.391480e-002
3.785740e+003;2.417805e-002
3.787668e+003;2.398689e-002
3.789597e+003;2.361109e-002
3.791525e+003;2.376453e-002
3.793454e+003;2.383408e-002
3.795382e+003;2.378830e-002
3.797311e+003;2.379929e-002
3.799240e+003;2.369241e-002
3.801168e+003;2.365577e-002
3.803097e+003;2.355152e-002
3.805025e+003;2.318365e-002
3.806954e+003;2.301602e-002
3.808882e+003;2.347292e-002
3.810811e+003;2.400570e-002
3.812739e+003;2.451220e-002
3.814668e+003;2.449264e-002
3.816596e+003;2.446736e-002
3.818525e+003;2.450512e-002
3.820454e+003;2.398865e-002
3.822382e+003;2.382935e-002
3.824311e+003;2.406751e-002
3.826239e+003;2.445078e-002
3.828168e+003;2.479377e-002
3.830096e+003;2.475217e-002
3.832025e+003;2.451076e-002
3.833953e+003;2.454134e-002
3.835882e+003;2.414005e-002
3.837811e+003;2.366809e-002
3.839739e+003;2.384973e-002
3.841667e+003;2.394586e-002
3.843596e+003;2.404618e-002
3.845525e+003;2.484819e-002
3.847453e+003;2.549722e-002
3.849382e+003;2.517653e-002
3.851310e+003;2.458551e-002
3.853239e+003;2.420828e-002
3.855167e+003;2.465477e-002
3.857096e+003;2.556736e-002
3.859024e+003;2.575088e-002
3.860953e+003;2.525220e-002
3.862882e+003;2.497230e-002
3.864810e+003;2.471790e-002
3.866739e+003;2.458530e-002
3.868667e+003;2.482093e-002
3.870596e+003;2.499164e-002
3.872524e+003;2.489829e-002
3.874453e+003;2.438356e-002
3.876381e+003;2.440266e-002
3.878310e+003;2.482142e-002
3.880239e+003;2.498125e-002
3.882167e+003;2.461798e-002
3.884096e+003;2.430530e-002
3.886024e+003;2.446477e-002
3.887953e+003;2.504681e-002
3.889881e+003;2.530193e-002
3.891810e+003;2.520662e-002
3.893738e+003;2.530709e-002
3.895667e+003;2.546036e-002
3.897595e+003;2.560240e-002
3.899524e+003;2.565646e-002
3.901453e+003;2.569344e-002
3.903381e+003;2.558767e-002
3.905310e+003;2.524349e-002
3.907238e+003;2.502351e-002
3.909167e+003;2.523545e-002
3.911095e+003;2.591921e-002
3.913024e+003;2.612199e-002
3.914952e+003;2.614617e-002
3.916881e+003;2.633564e-002
3.918810e+003;2.659511e-002
3.920738e+003;2.651659e-002
3.922667e+003;2.604272e-002
3.924595e+003;2.603889e-002
3.926524e+003;2.635496e-002
3.928452e+003;2.648381e-002
3.930381e+003;2.668012e-002
3.932309e+003;2.688089e-002
3.934238e+003;2.708337e-002
3.936167e+003;2.739055e-002
3.938095e+003;2.748044e-002
3.940023e+003;2.712171e-002
3.941952e+003;2.633028e-002
3.943881e+003;2.647268e-002
3.945809e+003;2.735183e-002
3.947738e+003;2.778185e-002
3.949666e+003;2.752707e-002
3.951595e+003;2.745856e-002
3.953523e+003;2.717836e-002
3.955452e+003;2.684899e-002
3.957380e+003;2.711822e-002
3.959309e+003;2.753378e-002
3.961238e+003;2.759253e-002
3.963166e+003;2.752273e-002
3.965095e+003;2.776391e-002
3.967023e+003;2.772721e-002
3.968952e+003;2.745605e-002
3.970880e+003;2.742795e-002
3.972809e+003;2.808351e-002
3.974737e+003;2.828447e-002
3.976666e+003;2.822750e-002
3.978594e+003;2.839814e-002
3.980523e+003;2.850438e-002
3.982452e+003;2.854727e-002
3.984380e+003;2.823730e-002
3.986309e+003;2.816694e-002
3.988237e+003;2.842917e-002
3.990166e+003;2.883735e-002
3.992094e+003;2.913219e-002
3.994023e+003;2.882315e-002
3.995951e+003;2.882460e-002
3.997880e+003;2.926944e-002
3.999809e+003;2.914735e-002
4.001737e+003;0.000000e+000
