3.992094e+002;0.000000e+000
4.011380e+002;0.000000e+000
4.030665e+002;0.000000e+000
4.049951e+002;0.000000e+000
4.069236e+002;0.000000e+000
4.088522e+002;0.000000e+000
4.107807e+002;0.000000e+000
4.127093e+002;0.000000e+000
4.146378e+002;0.000000e+000
4.165664e+002;0.000000e+000
4.184949e+002;0.000000e+000
4.204235e+002;0.000000e+000
4.223520e+002;0.000000e+000
4.242806e+002;0.000000e+000
4.262091e+002;0.000000e+000
4.281377e+002;0.000000e+000
4.300662e+002;0.000000e+000
4.319948e+002;0.000000e+000
4.339233e+002;0.000000e+000
4.358519e+002;0.000000e+000
4.377804e+002;0.000000e+000
4.397090e+002;0.000000e+000
4.416375e+002;0.000000e+000
4.435660e+002;0.000000e+000
4.454946e+002;0.000000e+000
4.474232e+002;0.000000e+000
4.493517e+002;0.000000e+000
4.512802e+002;0.000000e+000
4.532088e+002;0.000000e+000
4.551373e+002;0.000000e+000
4.570659e+002;0.000000e+000
4.589944e+002;0.000000e+000
4.609230e+002;0.000000e+000
4.628515e+002;0.000000e+000
4.647801e+002;0.000000e+000
4.667086e+002;0.000000e+000
4.686372e+002;0.000000e+000
4.705657e+002;0.000000e+000
4.724943e+002;0.000000e+000
4.744228e+002;0.000000e+000
4.763513e+002;0.000000e+000
4.782799e+002;0.000000e+000
4.802085e+002;0.000000e+000
4.821370e+002;0.000000e+000
4.840656e+002;0.000000e+000
4.859941e+002;0.000000e+000
4.879226e+002;0.000000e+000
4.898512e+002;0.000000e+000
4.917798e+002;0.000000e+000
4.937083e+002;0.000000e+000
4.956368e+002;0.000000e+000
4.975654e+002;0.000000e+000
4.994939e+002;0.000000e+000
5.014225e+002;0.000000e+000
5.033510e+002;0.000000e+000
5.052796e+002;0.000000e+000
5.072081e+002;0.000000e+000
5.091367e+002;0.000000e+000
5.110652e+002;0.000000e+000
5.129938e+002;0.000000e+000
5.149223e+002;0.000000e+000
5.168509e+002;0.000000e+000
5.187794e+002;0.000000e+000
5.207079e+002;0.000000e+000
5.226365e+002;0.000000e+000
5.245651e+002;0.000000e+000
5.264936e+002;0.000000e+000
5.284222e+002;0.000000e+000
5.303507e+002;0.000000e+000
5.322792e+002;0.000000e+000
5.342078e+002;0.000000e+000
5.361364e+002;0.000000e+000
5.380649e+002;0.000000e+000
5.399935e+002;0.000000e+000
5.419220e+002;0.000000e+000
5.438505e+002;0.000000e+000
5.457791e+002;0.000000e+000
5.477076e+002;0.000000e+000
5.496362e+002;0.000000e+000
5.515648e+002;0.000000e+000
5.534933e+002;0.000000e+000
5.554218e+002;0.000000e+000
5.573504e+002;0.000000e+000
5.592789e+002;0.000000e+000
5.612075e+002;0.000000e+000
5.631360e+002;0.000000e+000
5.650646e+002;0.000000e+000
5.669931e+002;0.000000e+000
5.689217e+002;0.000000e+000
5.708502e+002;0.000000e+000
5.727787e+002;0.000000e+000
5.747073e+002;0.000000e+000
5.766359e+002;0.000000e+000
5.785644e+002;0.000000e+000
5.804930e+002;0.000000e+000
5.824215e+002;0.000000e+000
5.843500e+002;0.000000e+000
5.862786e+002;0.000000e+000
5.882072e+002;0.000000e+000
5.901357e+002;0.000000e+000
5.920643e+002;0.000000e+000
5.939928e+002;0.000000e+000
5.959213e+002;0.000000e+000
5.978499e+002;0.000000e+000
5.997784e+002;1.418608e-001
6.017070e+002;1.444871e-001
6.036355e+002;1.417350e-001
6.055641e+002;1.367288e-001
6.074926e+002;1.390655e-001
6.094211e+002;1.409077e-001
6.113497e+002;1.435159e-001
6.132783e+002;1.428204e-001
6.152068e+002;1.388882e-001
6.171354e+002;1.373730e-001
6.190639e+002;1.393570e-001
6.209924e+002;1.391390e-001
6.229210e+002;1.364128e-001
6.248495e+002;1.377656e-001
6.267781e+002;1.410598e-001
6.287067e+002;1.397958e-001
6.306352e+002;1.385983e-001
6.325637e+002;1.371374e-001
6.344923e+002;1.366661e-001
6.364208e+002;1.404251e-001
6.383494e+002;1.445019e-001
6.402780e+002;1.437907e-001
6.422065e+002;1.423874e-001
6.441350e+002;1.437750e-001
6.460636e+002;1.443559e-001
6.479921e+002;1.456935e-001
6.499207e+002;1.516026e-001
6.518492e+002;1.568437e-001
6.537778e+002;1.571768e-001
6.557063e+002;1.578925e-001
6.576349e+002;1.595706e-001
6.595634e+002;1.629658e-001
6.614919e+002;1.672561e-001
6.634205e+002;1.738503e-001
6.653491e+002;1.785892e-001
6.672776e+002;1.772140e-001
6.692062e+002;1.759984e-001
6.711347e+002;1.781747e-001
6.730632e+002;1.817145e-001
6.749918e+002;1.858896e-001
6.769203e+002;1.881601e-001
6.788489e+002;1.897345e-001
6.807775e+002;1.915788e-001
6.827060e+002;1.921810e-001
6.846345e+002;1.920242e-001
6.865631e+002;1.893769e-001
6.884916e+002;1.876271e-001
6.904202e+002;1.854304e-001
6.923488e+002;1.835530e-001
6.942773e+002;1.828870e-001
6.962058e+002;1.796395e-001
6.981344e+002;1.760803e-001
7.000629e+002;1.730462e-001
7.019915e+002;1.693574e-001
7.039200e+002;1.668255e-001
7.058486e+002;1.660100e-001
7.077771e+002;1.656633e-001
7.097057e+002;1.642556e-001
7.116342e+002;1.624340e-001
7.135627e+002;1.610402e-001
7.154913e+002;1.589394e-001
7.174199e+002;1.558659e-001
7.193484e+002;1.537015e-001
7.212770e+002;1.524125e-001
7.232055e+002;1.527171e-001
7.251340e+002;1.548165e-001
7.270626e+002;1.556814e-001
7.289911e+002;1.538025e-001
7.309197e+002;1.485312e-001
7.328483e+002;1.418537e-001
7.347768e+002;1.361229e-001
7.367053e+002;1.303726e-001
7.386339e+002;1.249150e-001
7.405624e+002;1.204956e-001
7.424910e+002;1.178791e-001
7.444196e+002;1.156378e-001
7.463481e+002;1.130079e-001
7.482766e+002;1.105679e-001
7.502052e+002;1.086922e-001
7.521337e+002;1.067778e-001
7.540623e+002;1.042254e-001
7.559908e+002;1.016565e-001
7.579194e+002;9.995979e-002
7.598479e+002;9.848084e-002
7.617765e+002;9.779260e-002
7.637050e+002;9.700872e-002
7.656335e+002;9.615455e-002
7.675621e+002;9.539887e-002
7.694907e+002;9.366439e-002
7.714192e+002;9.254126e-002
7.733478e+002;9.243184e-002
7.752763e+002;9.168412e-002
7.772048e+002;9.070775e-002
7.791334e+002;9.016269e-002
7.810620e+002;8.829994e-002
7.829905e+002;8.571872e-002
7.849191e+002;8.410069e-002
7.868476e+002;8.316592e-002
7.887761e+002;8.205441e-002
7.907047e+002;7.996164e-002
7.926332e+002;7.824635e-002
7.945618e+002;7.727499e-002
7.964903e+002;7.668381e-002
7.984189e+002;7.608368e-002
8.003474e+002;7.492591e-002
8.022759e+002;7.435962e-002
8.042045e+002;7.398182e-002
8.061331e+002;7.296535e-002
8.080616e+002;7.215276e-002
8.099902e+002;7.172727e-002
8.119187e+002;7.091086e-002
8.138472e+002;6.938253e-002
8.157758e+002;6.850266e-002
8.177043e+002;6.873158e-002
8.196329e+002;6.880976e-002
8.215615e+002;6.862279e-002
8.234900e+002;6.835900e-002
8.254185e+002;6.788611e-002
8.273471e+002;6.836074e-002
8.292756e+002;7.031094e-002
8.312042e+002;7.160695e-002
8.331328e+002;7.188965e-002
8.350613e+002;7.061382e-002
8.369898e+002;6.818013e-002
8.389184e+002;6.665251e-002
8.408469e+002;6.529254e-002
8.427755e+002;6.372113e-002
8.447040e+002;6.228882e-002
8.466326e+002;6.134542e-002
8.485611e+002;6.103818e-002
8.504897e+002;6.123427e-002
8.524182e+002;6.164111e-002
8.543467e+002;6.142949e-002
8.562753e+002;6.103859e-002
8.582039e+002;6.118307e-002
8.601324e+002;6.116602e-002
8.620610e+002;6.022508e-002
8.639895e+002;5.989056e-002
8.659180e+002;6.059166e-002
8.678466e+002;6.119425e-002
8.697751e+002;6.124411e-002
8.717037e+002;6.130443e-002
8.736323e+002;6.140365e-002
8.755608e+002;6.135080e-002
8.774893e+002;6.177219e-002
8.794179e+002;6.188622e-002
8.813464e+002;6.128310e-002
8.832750e+002;6.139705e-002
8.852036e+002;6.240805e-002
8.871321e+002;6.291897e-002
8.890606e+002;6.299829e-002
8.909892e+002;6.299316e-002
8.929177e+002;6.316251e-002
8.948463e+002;6.362356e-002
8.967748e+002;6.382493e-002
8.987034e+002;6.365015e-002
9.006319e+002;6.354355e-002
9.025605e+002;6.407262e-002
9.044890e+002;6.471302e-002
9.064175e+002;6.563445e-002
9.083461e+002;6.645304e-002
9.102747e+002;6.656197e-002
9.122032e+002;6.680204e-002
9.141318e+002;6.769810e-002
9.160603e+002;6.822653e-002
9.179888e+002;6.831726e-002
9.199174e+002;6.928268e-002
9.218459e+002;7.081810e-002
9.237745e+002;7.183887e-002
9.257031e+002;7.294548e-002
9.276316e+002;7.411247e-002
9.295601e+002;7.409982e-002
9.314887e+002;7.311910e-002
9.334172e+002;7.191917e-002
9.353458e+002;7.055999e-002
9.372744e+002;6.954506e-002
9.392029e+002;6.934899e-002
9.411314e+002;6.989811e-002
9.430600e+002;7.069706e-002
9.449885e+002;7.168581e-002
9.469171e+002;7.315753e-002
9.488456e+002;7.495627e-002
9.507742e+002;7.630746e-002
9.527027e+002;7.689430e-002
9.546313e+002;7.743563e-002
9.565598e+002;7.850082e-002
9.584883e+002;7.948113e-002
9.604169e+002;7.967725e-002
9.623455e+002;7.885209e-002
9.642740e+002;7.782088e-002
9.662026e+002;7.775655e-002
9.681311e+002;7.818942e-002
9.700596e+002;7.890113e-002
9.719882e+002;7.943951e-002
9.739167e+002;7.927842e-002
9.758453e+002;7.841258e-002
9.777739e+002;7.700110e-002
9.797024e+002;7.568237e-002
9.816309e+002;7.462123e-002
9.835595e+002;7.384375e-002
9.854880e+002;7.320819e-002
9.874166e+002;7.222561e-002
9.893452e+002;7.156330e-002
9.912737e+002;7.091781e-002
9.932022e+002;6.995915e-002
9.951307e+002;6.933865e-002
9.970593e+002;6.909182e-002
9.989879e+002;6.890104e-002
1.000916e+003;6.891308e-002
1.002845e+003;6.876811e-002
1.004773e+003;6.864254e-002
1.006702e+003;6.871632e-002
1.008631e+003;6.876779e-002
1.010559e+003;6.830858e-002
1.012488e+003;6.781704e-002
1.014416e+003;6.772920e-002
1.016345e+003;6.796546e-002
1.018273e+003;6.819866e-002
1.020202e+003;6.802951e-002
1.022130e+003;6.873426e-002
1.024059e+003;7.024896e-002
1.025988e+003;7.134734e-002
1.027916e+003;7.213882e-002
1.029845e+003;7.271817e-002
1.031773e+003;7.236810e-002
1.033702e+003;7.162019e-002
1.035630e+003;7.103236e-002
1.037559e+003;7.024164e-002
1.039487e+003;6.934895e-002
1.041416e+003;6.879357e-002
1.043344e+003;6.818590e-002
1.045273e+003;6.802447e-002
1.047202e+003;6.833503e-002
1.049130e+003;6.914710e-002
1.051059e+003;7.046442e-002
1.052987e+003;7.143462e-002
1.054916e+003;7.210659e-002
1.056844e+003;7.350784e-002
1.058773e+003;7.499942e-002
1.060701e+003;7.600240e-002
1.062630e+003;7.670817e-002
1.064558e+003;7.784224e-002
1.066487e+003;7.949056e-002
1.068416e+003;8.075224e-002
1.070344e+003;8.095337e-002
1.072273e+003;8.120915e-002
1.074201e+003;8.152556e-002
1.076130e+003;8.107675e-002
1.078058e+003;8.063135e-002
1.079987e+003;8.032495e-002
1.081915e+003;7.959534e-002
1.083844e+003;7.886060e-002
1.085773e+003;7.823429e-002
1.087701e+003;7.756890e-002
1.089630e+003;7.650595e-002
1.091558e+003;7.592927e-002
1.093487e+003;7.630529e-002
1.095415e+003;7.674292e-002
1.097344e+003;7.758693e-002
1.099272e+003;7.914004e-002
1.101201e+003;8.059436e-002
1.103129e+003;8.199782e-002
1.105058e+003;8.349336e-002
1.106987e+003;8.534048e-002
1.108915e+003;8.726410e-002
1.110844e+003;8.873227e-002
1.112772e+003;8.956947e-002
1.114701e+003;9.026538e-002
1.116629e+003;9.079775e-002
1.118558e+003;9.089447e-002
1.120486e+003;9.018315e-002
1.122415e+003;8.828244e-002
1.124344e+003;8.598751e-002
1.126272e+003;8.331891e-002
1.128201e+003;8.051204e-002
1.130129e+003;7.813682e-002
1.132058e+003;7.658333e-002
1.133986e+003;7.588416e-002
1.135915e+003;7.576951e-002
1.137843e+003;7.594265e-002
1.139772e+003;7.629897e-002
1.141700e+003;7.742256e-002
1.143629e+003;7.972948e-002
1.145557e+003;8.168306e-002
1.147486e+003;8.332903e-002
1.149415e+003;8.557206e-002
1.151343e+003;8.860657e-002
1.153272e+003;9.223590e-002
1.155200e+003;9.573510e-002
1.157129e+003;9.959190e-002
1.159057e+003;1.047377e-001
1.160986e+003;1.107683e-001
1.162914e+003;1.172298e-001
1.164843e+003;1.239773e-001
1.166771e+003;1.296251e-001
1.168700e+003;1.323473e-001
1.170629e+003;1.314666e-001
1.172557e+003;1.269179e-001
1.174486e+003;1.207171e-001
1.176414e+003;1.146511e-001
1.178343e+003;1.093170e-001
1.180271e+003;1.056454e-001
1.182200e+003;1.040993e-001
1.184128e+003;1.044114e-001
1.186057e+003;1.062485e-001
1.187986e+003;1.089522e-001
1.189914e+003;1.121548e-001
1.191843e+003;1.163741e-001
1.193771e+003;1.209771e-001
1.195700e+003;1.257974e-001
1.197628e+003;1.304180e-001
1.199557e+003;1.325721e-001
1.201485e+003;1.306780e-001
1.203414e+003;1.267024e-001
1.205343e+003;1.236285e-001
1.207271e+003;1.222806e-001
1.209200e+003;1.219265e-001
1.211128e+003;1.219918e-001
1.213057e+003;1.218075e-001
1.214985e+003;1.204419e-001
1.216914e+003;1.175200e-001
1.218842e+003;1.140763e-001
1.220771e+003;1.118239e-001
1.222699e+003;1.115731e-001
1.224628e+003;1.132734e-001
1.226557e+003;1.171137e-001
1.228485e+003;1.219631e-001
1.230414e+003;1.271927e-001
1.232342e+003;1.315957e-001
1.234271e+003;1.346419e-001
1.236199e+003;1.361503e-001
1.238128e+003;1.355700e-001
1.240056e+003;1.345692e-001
1.241985e+003;1.339577e-001
1.243913e+003;1.340891e-001
1.245842e+003;1.347210e-001
1.247771e+003;1.360223e-001
1.249699e+003;1.383253e-001
1.251628e+003;1.409460e-001
1.253556e+003;1.439539e-001
1.255485e+003;1.470973e-001
1.257413e+003;1.496984e-001
1.259342e+003;1.513255e-001
1.261270e+003;1.522820e-001
1.263199e+003;1.516171e-001
1.265127e+003;1.478667e-001
1.267056e+003;1.421477e-001
1.268985e+003;1.362403e-001
1.270913e+003;1.319815e-001
1.272842e+003;1.299494e-001
1.274770e+003;1.292446e-001
1.276699e+003;1.289160e-001
1.278627e+003;1.280514e-001
1.280556e+003;1.265737e-001
1.282484e+003;1.245974e-001
1.284413e+003;1.224654e-001
1.286342e+003;1.203959e-001
1.288270e+003;1.189612e-001
1.290199e+003;1.183169e-001
1.292127e+003;1.180373e-001
1.294056e+003;1.175104e-001
1.295984e+003;1.171062e-001
1.297913e+003;1.173211e-001
1.299841e+003;1.173298e-001
1.301770e+003;1.166341e-001
1.303698e+003;1.153866e-001
1.305627e+003;1.141727e-001
1.307556e+003;1.132946e-001
1.309484e+003;1.121814e-001
1.311413e+003;1.108134e-001
1.313341e+003;1.097660e-001
1.315270e+003;1.089353e-001
1.317198e+003;1.079985e-001
1.319127e+003;1.072306e-001
1.321055e+003;1.066438e-001
1.322984e+003;1.058747e-001
1.324912e+003;1.051841e-001
1.326841e+003;1.052461e-001
1.328770e+003;1.056038e-001
1.330698e+003;1.060050e-001
1.332627e+003;1.065490e-001
1.334555e+003;1.068238e-001
1.336484e+003;1.071340e-001
1.338412e+003;1.074741e-001
1.340341e+003;1.082599e-001
1.342269e+003;1.093923e-001
1.344198e+003;1.102778e-001
1.346126e+003;1.111400e-001
1.348055e+003;1.121979e-001
1.349984e+003;1.136682e-001
1.351912e+003;1.152863e-001
1.353841e+003;1.167356e-001
1.355769e+003;1.183410e-001
1.357698e+003;1.202970e-001
1.359626e+003;1.221684e-001
1.361555e+003;1.241882e-001
1.363483e+003;1.258095e-001
1.365412e+003;1.271982e-001
1.367341e+003;1.286926e-001
1.369269e+003;1.299689e-001
1.371198e+003;1.302847e-001
1.373126e+003;1.294922e-001
1.375055e+003;1.279323e-001
1.376983e+003;1.255530e-001
1.378912e+003;1.224072e-001
1.380840e+003;1.189874e-001
1.382769e+003;1.155478e-001
1.384698e+003;1.122451e-001
1.386626e+003;1.092059e-001
1.388555e+003;1.066583e-001
1.390483e+003;1.048056e-001
1.392412e+003;1.033580e-001
1.394340e+003;1.023073e-001
1.396269e+003;1.023005e-001
1.398197e+003;1.028889e-001
1.400126e+003;1.039512e-001
1.402054e+003;1.059863e-001
1.403983e+003;1.091260e-001
1.405911e+003;1.134045e-001
1.407840e+003;1.188411e-001
1.409769e+003;1.252377e-001
1.411697e+003;1.321201e-001
1.413626e+003;1.382890e-001
1.415554e+003;1.424800e-001
1.417483e+003;1.436628e-001
1.419411e+003;1.420145e-001
1.421340e+003;1.391719e-001
1.423268e+003;1.365405e-001
1.425197e+003;1.349766e-001
1.427125e+003;1.350971e-001
1.429054e+003;1.369287e-001
1.430983e+003;1.398125e-001
1.432911e+003;1.421645e-001
1.434840e+003;1.432267e-001
1.436768e+003;1.431758e-001
1.438697e+003;1.425725e-001
1.440625e+003;1.415053e-001
1.442554e+003;1.403309e-001
1.444482e+003;1.394392e-001
1.446411e+003;1.390715e-001
1.448340e+003;1.398489e-001
1.450268e+003;1.414939e-001
1.452197e+003;1.434541e-001
1.454125e+003;1.459986e-001
1.456054e+003;1.490234e-001
1.457982e+003;1.535938e-001
1.459911e+003;1.595197e-001
1.461839e+003;1.634282e-001
1.463768e+003;1.618241e-001
1.465697e+003;1.550163e-001
1.467625e+003;1.467423e-001
1.469554e+003;1.405729e-001
1.471482e+003;1.375808e-001
1.473411e+003;1.374484e-001
1.475339e+003;1.382027e-001
1.477268e+003;1.374447e-001
1.479196e+003;1.344066e-001
1.481125e+003;1.292126e-001
1.483053e+003;1.230299e-001
1.484982e+003;1.174769e-001
1.486911e+003;1.142721e-001
1.488839e+003;1.137297e-001
1.490768e+003;1.151905e-001
1.492696e+003;1.179381e-001
1.494625e+003;1.208591e-001
1.496553e+003;1.242253e-001
1.498482e+003;1.287256e-001
1.500410e+003;1.339574e-001
1.502339e+003;1.392471e-001
1.504267e+003;1.446948e-001
1.506196e+003;1.505121e-001
1.508125e+003;1.572207e-001
1.510053e+003;1.644294e-001
1.511982e+003;1.718038e-001
1.513910e+003;1.795784e-001
1.515839e+003;1.878421e-001
1.517767e+003;1.963935e-001
1.519696e+003;2.052820e-001
1.521624e+003;2.149983e-001
1.523553e+003;2.249955e-001
1.525481e+003;2.347763e-001
1.527410e+003;2.449614e-001
1.529339e+003;2.545537e-001
1.531267e+003;2.631338e-001
1.533196e+003;2.706561e-001
1.535124e+003;2.766958e-001
1.537053e+003;2.801475e-001
1.538981e+003;2.800768e-001
1.540910e+003;2.768790e-001
1.542838e+003;2.712284e-001
1.544767e+003;2.634386e-001
1.546695e+003;2.536630e-001
1.548624e+003;2.427638e-001
1.550553e+003;2.322507e-001
1.552481e+003;2.224209e-001
1.554410e+003;2.130172e-001
1.556338e+003;2.041986e-001
1.558267e+003;1.957361e-001
1.560195e+003;1.876313e-001
1.562124e+003;1.800310e-001
1.564052e+003;1.723039e-001
1.565981e+003;1.642080e-001
1.567910e+003;1.560319e-001
1.569838e+003;1.478362e-001
1.571767e+003;1.400803e-001
1.573695e+003;1.325881e-001
1.575624e+003;1.256461e-001
1.577552e+003;1.196392e-001
1.579481e+003;1.148362e-001
1.581409e+003;1.108215e-001
1.583338e+003;1.079068e-001
1.585266e+003;1.062741e-001
1.587195e+003;1.055655e-001
1.589124e+003;1.055078e-001
1.591052e+003;1.061860e-001
1.592981e+003;1.077261e-001
1.594909e+003;1.101496e-001
1.596838e+003;1.136447e-001
1.598766e+003;1.179147e-001
1.600695e+003;1.228918e-001
1.602623e+003;1.290241e-001
1.604552e+003;1.362773e-001
1.606480e+003;1.442846e-001
1.608409e+003;1.528047e-001
1.610338e+003;1.618606e-001
1.612266e+003;1.716190e-001
1.614195e+003;1.824765e-001
1.616123e+003;1.953541e-001
1.618052e+003;2.104851e-001
1.619980e+003;2.268520e-001
1.621909e+003;2.442390e-001
1.623837e+003;2.621715e-001
1.625766e+003;2.802027e-001
1.627694e+003;2.987236e-001
1.629623e+003;3.176527e-001
1.631552e+003;3.358975e-001
1.633480e+003;3.511823e-001
1.635409e+003;3.595352e-001
1.637337e+003;3.585009e-001
1.639266e+003;3.482911e-001
1.641194e+003;3.307937e-001
1.643123e+003;3.088727e-001
1.645051e+003;2.850033e-001
1.646980e+003;2.616354e-001
1.648909e+003;2.407605e-001
1.650837e+003;2.224133e-001
1.652766e+003;2.058717e-001
1.654694e+003;1.923609e-001
1.656623e+003;1.812859e-001
1.658551e+003;1.711241e-001
1.660480e+003;1.613286e-001
1.662408e+003;1.515962e-001
1.664337e+003;1.422038e-001
1.666266e+003;1.329655e-001
1.668194e+003;1.240401e-001
1.670123e+003;1.157622e-001
1.672051e+003;1.084609e-001
1.673980e+003;1.016192e-001
1.675908e+003;9.492964e-002
1.677837e+003;8.852978e-002
1.679765e+003;8.198558e-002
1.681694e+003;7.537531e-002
1.683622e+003;6.907722e-002
1.685551e+003;6.373060e-002
1.687479e+003;5.960122e-002
1.689408e+003;5.603841e-002
1.691337e+003;5.329487e-002
1.693265e+003;5.120324e-002
1.695194e+003;4.941721e-002
1.697122e+003;4.825535e-002
1.699051e+003;4.743847e-002
1.700979e+003;4.683952e-002
1.702908e+003;4.656155e-002
1.704836e+003;4.604920e-002
1.706765e+003;4.567536e-002
1.708693e+003;4.553238e-002
1.710622e+003;4.533744e-002
1.712551e+003;4.497822e-002
1.714479e+003;4.497983e-002
1.716408e+003;4.484513e-002
1.718336e+003;4.476567e-002
1.720265e+003;4.501541e-002
1.722193e+003;4.512465e-002
1.724122e+003;4.497028e-002
1.726050e+003;4.494180e-002
1.727979e+003;4.461414e-002
1.729908e+003;4.410012e-002
1.731836e+003;4.360306e-002
1.733765e+003;4.299295e-002
1.735693e+003;4.262758e-002
1.737622e+003;4.217294e-002
1.739550e+003;4.163106e-002
1.741479e+003;4.106024e-002
1.743407e+003;4.050094e-002
1.745336e+003;4.005226e-002
1.747265e+003;3.955708e-002
1.749193e+003;3.907359e-002
1.751122e+003;3.858079e-002
1.753050e+003;3.841044e-002
1.754979e+003;3.832083e-002
1.756907e+003;3.807491e-002
1.758836e+003;3.759126e-002
1.760764e+003;3.692175e-002
1.762693e+003;3.648806e-002
1.764621e+003;3.617774e-002
1.766550e+003;3.583407e-002
1.768479e+003;3.546269e-002
1.770407e+003;3.500978e-002
1.772336e+003;3.452023e-002
1.774264e+003;3.432680e-002
1.776193e+003;3.402239e-002
1.778121e+003;3.355458e-002
1.780050e+003;3.316212e-002
1.781978e+003;3.289926e-002
1.783907e+003;3.286924e-002
1.785835e+003;3.274578e-002
1.787764e+003;3.243698e-002
1.789693e+003;3.215019e-002
1.791621e+003;3.180121e-002
1.793550e+003;3.148453e-002
1.795478e+003;3.135740e-002
1.797407e+003;3.133617e-002
1.799335e+003;3.121962e-002
1.801264e+003;3.083915e-002
1.803192e+003;3.058719e-002
1.805121e+003;3.046758e-002
1.807049e+003;3.051279e-002
1.808978e+003;3.065112e-002
1.810907e+003;3.067128e-002
1.812835e+003;3.044689e-002
1.814764e+003;3.032394e-002
1.816692e+003;3.025214e-002
1.818621e+003;3.015514e-002
1.820549e+003;3.011096e-002
1.822478e+003;2.992161e-002
1.824406e+003;2.988693e-002
1.826335e+003;2.989268e-002
1.828264e+003;2.960643e-002
1.830192e+003;2.956125e-002
1.832121e+003;2.965450e-002
1.834049e+003;2.960948e-002
1.835978e+003;2.972304e-002
1.837906e+003;2.969335e-002
1.839835e+003;2.932697e-002
1.841763e+003;2.931577e-002
1.843692e+003;2.919406e-002
1.845620e+003;2.896385e-002
1.847549e+003;2.880944e-002
1.849478e+003;2.877376e-002
1.851406e+003;2.877344e-002
1.853335e+003;2.879560e-002
1.855263e+003;2.862972e-002
1.857192e+003;2.854981e-002
1.859120e+003;2.850187e-002
1.861049e+003;2.844562e-002
1.862977e+003;2.845326e-002
1.864906e+003;2.846171e-002
1.866834e+003;2.822584e-002
1.868763e+003;2.811500e-002
1.870692e+003;2.803639e-002
1.872620e+003;2.793324e-002
1.874549e+003;2.805187e-002
1.876477e+003;2.828875e-002
1.878406e+003;2.823065e-002
1.880334e+003;2.799419e-002
1.882263e+003;2.794030e-002
1.884191e+003;2.804141e-002
1.886120e+003;2.826933e-002
1.888048e+003;2.839443e-002
1.889977e+003;2.828122e-002
1.891906e+003;2.807481e-002
1.893834e+003;2.814756e-002
1.895763e+003;2.858669e-002
1.897691e+003;2.888483e-002
1.899620e+003;2.886496e-002
1.901548e+003;2.879705e-002
1.903477e+003;2.890250e-002
1.905405e+003;2.882945e-002
1.907334e+003;2.859327e-002
1.909262e+003;2.835810e-002
1.911191e+003;2.830215e-002
1.913120e+003;2.827552e-002
1.915048e+003;2.824677e-002
1.916977e+003;2.829193e-002
1.918905e+003;2.822319e-002
1.920834e+003;2.807146e-002
1.922762e+003;2.791317e-002
1.924691e+003;2.804152e-002
1.926619e+003;2.801978e-002
1.928548e+003;2.780933e-002
1.930477e+003;2.777186e-002
1.932405e+003;2.794348e-002
1.934334e+003;2.812161e-002
1.936262e+003;2.797783e-002
1.938191e+003;2.785261e-002
1.940119e+003;2.788730e-002
1.942048e+003;2.790617e-002
1.943976e+003;2.796921e-002
1.945905e+003;2.805983e-002
1.947833e+003;2.825112e-002
1.949762e+003;2.821979e-002
1.951691e+003;2.795105e-002
1.953619e+003;2.790419e-002
1.955548e+003;2.803092e-002
1.957476e+003;2.820141e-002
1.959405e+003;2.828723e-002
1.961333e+003;2.817281e-002
1.963262e+003;2.810429e-002
1.965190e+003;2.839217e-002
1.967119e+003;2.864572e-002
1.969047e+003;2.868565e-002
1.970976e+003;2.860817e-002
1.972905e+003;2.861500e-002
1.974833e+003;2.868363e-002
1.976762e+003;2.881058e-002
1.978690e+003;2.900391e-002
1.980619e+003;2.889117e-002
1.982547e+003;2.861033e-002
1.984476e+003;2.864307e-002
1.986404e+003;2.894957e-002
1.988333e+003;2.882786e-002
1.990261e+003;2.856071e-002
1.992190e+003;2.868157e-002
1.994119e+003;2.885016e-002
1.996047e+003;2.890990e-002
1.997976e+003;2.897755e-002
1.999904e+003;2.884549e-002
2.001833e+003;2.876986e-002
2.003761e+003;2.874359e-002
2.005690e+003;2.879836e-002
2.007618e+003;2.892712e-002
2.009547e+003;2.883926e-002
2.011476e+003;2.879078e-002
2.013404e+003;2.873959e-002
2.015333e+003;2.881040e-002
2.017261e+003;2.908071e-002
2.019190e+003;2.920349e-002
2.021118e+003;2.924332e-002
2.023047e+003;2.940933e-002
2.024975e+003;2.952741e-002
2.026904e+003;2.961747e-002
2.028833e+003;2.969729e-002
2.030761e+003;2.971886e-002
2.032690e+003;2.989956e-002
2.034618e+003;3.014281e-002
2.036547e+003;3.021673e-002
2.038475e+003;3.033116e-002
2.040404e+003;3.036989e-002
2.042332e+003;3.014033e-002
2.044261e+003;2.998718e-002
2.046189e+003;2.997642e-002
2.048118e+003;3.001618e-002
2.050047e+003;2.994113e-002
2.051975e+003;2.975934e-002
2.053904e+003;2.988228e-002
2.055832e+003;3.025616e-002
2.057761e+003;3.049914e-002
2.059689e+003;3.065194e-002
2.061618e+003;3.068455e-002
2.063546e+003;3.053934e-002
2.065475e+003;3.040467e-002
2.067404e+003;3.056643e-002
2.069332e+003;3.079095e-002
2.071260e+003;3.089735e-002
2.073189e+003;3.085292e-002
2.075118e+003;3.077217e-002
2.077046e+003;3.076090e-002
2.078975e+003;3.053184e-002
2.080903e+003;3.035258e-002
2.082832e+003;3.029889e-002
2.084760e+003;3.025420e-002
2.086689e+003;3.023470e-002
2.088617e+003;3.035482e-002
2.090546e+003;3.019673e-002
2.092475e+003;3.000581e-002
2.094403e+003;3.003241e-002
2.096332e+003;3.010012e-002
2.098260e+003;3.000351e-002
2.100189e+003;2.988558e-002
2.102117e+003;2.995331e-002
2.104046e+003;3.004427e-002
2.105974e+003;3.018817e-002
2.107903e+003;3.035603e-002
2.109832e+003;3.056810e-002
2.111760e+003;3.073042e-002
2.113688e+003;3.061592e-002
2.115617e+003;3.053967e-002
2.117546e+003;3.075368e-002
2.119474e+003;3.103815e-002
2.121403e+003;3.108325e-002
2.123331e+003;3.085562e-002
2.125260e+003;3.076819e-002
2.127188e+003;3.084922e-002
2.129117e+003;3.102951e-002
2.131045e+003;3.109524e-002
2.132974e+003;3.103025e-002
2.134903e+003;3.080945e-002
2.136831e+003;3.063658e-002
2.138760e+003;3.068401e-002
2.140688e+003;3.096364e-002
2.142617e+003;3.118128e-002
2.144545e+003;3.125875e-002
2.146474e+003;3.130960e-002
2.148402e+003;3.117779e-002
2.150331e+003;3.106926e-002
2.152260e+003;3.116273e-002
2.154188e+003;3.134197e-002
2.156117e+003;3.123276e-002
2.158045e+003;3.104396e-002
2.159974e+003;3.114305e-002
2.161902e+003;3.126904e-002
2.163831e+003;3.135800e-002
2.165759e+003;3.174652e-002
2.167688e+003;3.199769e-002
2.169616e+003;3.203172e-002
2.171545e+003;3.199844e-002
2.173474e+003;3.197023e-002
2.175402e+003;3.208444e-002
2.177331e+003;3.209386e-002
2.179259e+003;3.200939e-002
2.181188e+003;3.214409e-002
2.183116e+003;3.219737e-002
2.185045e+003;3.222359e-002
2.186973e+003;3.214630e-002
2.188902e+003;3.211623e-002
2.190831e+003;3.220943e-002
2.192759e+003;3.224751e-002
2.194688e+003;3.213874e-002
2.196616e+003;3.193182e-002
2.198545e+003;3.183026e-002
2.200473e+003;3.188806e-002
2.202402e+003;3.199009e-002
2.204330e+003;3.201560e-002
2.206259e+003;3.213228e-002
2.208188e+003;3.208334e-002
2.210116e+003;3.184007e-002
2.212044e+003;3.161985e-002
2.213973e+003;3.125028e-002
2.215902e+003;3.106285e-002
2.217830e+003;3.114287e-002
2.219759e+003;3.112297e-002
2.221687e+003;3.097926e-002
2.223616e+003;3.091539e-002
2.225544e+003;3.078615e-002
2.227473e+003;3.079430e-002
2.229401e+003;3.084008e-002
2.231330e+003;3.083424e-002
2.233259e+003;3.099207e-002
2.235187e+003;3.104314e-002
2.237116e+003;3.093660e-002
2.239044e+003;3.072626e-002
2.240973e+003;3.044444e-002
2.242901e+003;3.052345e-002
2.244830e+003;3.094467e-002
2.246758e+003;3.103815e-002
2.248687e+003;3.078800e-002
2.250615e+003;3.053248e-002
2.252544e+003;3.047259e-002
2.254473e+003;3.071154e-002
2.256401e+003;3.099723e-002
2.258330e+003;3.106613e-002
2.260258e+003;3.115170e-002
2.262187e+003;3.127866e-002
2.264115e+003;3.137449e-002
2.266044e+003;3.145004e-002
2.267972e+003;3.138778e-002
2.269901e+003;3.129661e-002
2.271830e+003;3.126246e-002
2.273758e+003;3.125961e-002
2.275687e+003;3.130950e-002
2.277615e+003;3.142482e-002
2.279544e+003;3.152322e-002
2.281472e+003;3.163507e-002
2.283401e+003;3.168821e-002
2.285329e+003;3.189338e-002
2.287258e+003;3.198753e-002
2.289187e+003;3.177604e-002
2.291115e+003;3.162356e-002
2.293043e+003;3.169038e-002
2.294972e+003;3.179354e-002
2.296901e+003;3.189173e-002
2.298829e+003;3.200689e-002
2.300758e+003;3.193710e-002
2.302686e+003;3.213981e-002
2.304615e+003;3.234159e-002
2.306543e+003;3.215548e-002
2.308472e+003;3.208644e-002
2.310400e+003;3.206942e-002
2.312329e+003;3.208558e-002
2.314258e+003;3.211951e-002
2.316186e+003;3.219947e-002
2.318115e+003;3.243409e-002
2.320043e+003;3.254964e-002
2.321972e+003;3.259671e-002
2.323900e+003;3.246340e-002
2.325829e+003;3.243734e-002
2.327757e+003;3.245883e-002
2.329686e+003;3.226617e-002
2.331615e+003;3.221196e-002
2.333543e+003;3.237657e-002
2.335472e+003;3.232056e-002
2.337400e+003;3.205119e-002
2.339329e+003;3.192112e-002
2.341257e+003;3.190529e-002
2.343186e+003;3.176784e-002
2.345114e+003;3.170418e-002
2.347043e+003;3.185034e-002
2.348971e+003;3.195428e-002
2.350900e+003;3.181671e-002
2.352829e+003;3.171815e-002
2.354757e+003;3.179611e-002
2.356686e+003;3.183051e-002
2.358614e+003;3.165631e-002
2.360543e+003;3.157627e-002
2.362471e+003;3.144993e-002
2.364400e+003;3.157691e-002
2.366328e+003;3.185469e-002
2.368257e+003;3.194162e-002
2.370186e+003;3.197097e-002
2.372114e+003;3.212886e-002
2.374042e+003;3.204845e-002
2.375971e+003;3.192775e-002
2.377900e+003;3.205426e-002
2.379828e+003;3.222235e-002
2.381757e+003;3.244573e-002
2.383685e+003;3.266004e-002
2.385614e+003;3.283726e-002
2.387542e+003;3.275446e-002
2.389471e+003;3.256400e-002
2.391399e+003;3.241448e-002
2.393328e+003;3.248129e-002
2.395257e+003;3.263439e-002
2.397185e+003;3.259199e-002
2.399114e+003;3.251700e-002
2.401042e+003;3.261175e-002
2.402971e+003;3.267694e-002
2.404899e+003;3.268576e-002
2.406828e+003;3.261664e-002
2.408756e+003;3.249718e-002
2.410685e+003;3.245990e-002
2.412614e+003;3.256556e-002
2.414542e+003;3.262160e-002
2.416471e+003;3.274378e-002
2.418399e+003;3.283797e-002
2.420328e+003;3.269291e-002
2.422256e+003;3.269887e-002
2.424185e+003;3.287971e-002
2.426113e+003;3.300329e-002
2.428042e+003;3.282986e-002
2.429970e+003;3.275453e-002
2.431899e+003;3.294294e-002
2.433828e+003;3.315918e-002
2.435756e+003;3.327471e-002
2.437685e+003;3.333052e-002
2.439613e+003;3.343028e-002
2.441542e+003;3.381188e-002
2.443470e+003;3.397287e-002
2.445399e+003;3.390799e-002
2.447327e+003;3.399305e-002
2.449256e+003;3.394163e-002
2.451185e+003;3.379466e-002
2.453113e+003;3.399473e-002
2.455042e+003;3.448361e-002
2.456970e+003;3.464833e-002
2.458899e+003;3.465859e-002
2.460827e+003;3.461165e-002
2.462756e+003;3.447546e-002
2.464684e+003;3.467535e-002
2.466613e+003;3.487781e-002
2.468542e+003;3.511836e-002
2.470470e+003;3.536912e-002
2.472398e+003;3.549480e-002
2.474327e+003;3.560750e-002
2.476256e+003;3.563315e-002
2.478184e+003;3.547488e-002
2.480113e+003;3.526173e-002
2.482041e+003;3.531520e-002
2.483970e+003;3.546072e-002
2.485898e+003;3.551763e-002
2.487827e+003;3.542279e-002
2.489755e+003;3.524286e-002
2.491684e+003;3.539198e-002
2.493613e+003;3.537109e-002
2.495541e+003;3.524581e-002
2.497470e+003;3.521260e-002
2.499398e+003;3.521932e-002
2.501327e+003;3.543188e-002
2.503255e+003;3.555539e-002
2.505184e+003;3.568645e-002
2.507112e+003;3.575894e-002
2.509041e+003;3.570023e-002
2.510969e+003;3.588244e-002
2.512898e+003;3.623551e-002
2.514827e+003;3.632066e-002
2.516755e+003;3.620000e-002
2.518684e+003;3.642194e-002
2.520612e+003;3.707112e-002
2.522541e+003;3.727928e-002
2.524469e+003;3.724141e-002
2.526398e+003;3.734467e-002
2.528326e+003;3.742589e-002
2.530255e+003;3.765272e-002
2.532184e+003;3.793087e-002
2.534112e+003;3.812052e-002
2.536041e+003;3.815789e-002
2.537969e+003;3.824997e-002
2.539898e+003;3.837374e-002
2.541826e+003;3.846355e-002
2.543755e+003;3.854679e-002
2.545683e+003;3.854784e-002
2.547612e+003;3.874073e-002
2.549541e+003;3.916819e-002
2.551469e+003;3.942848e-002
2.553397e+003;3.932047e-002
2.555326e+003;3.899185e-002
2.557255e+003;3.891008e-002
2.559183e+003;3.902081e-002
2.561112e+003;3.914179e-002
2.563040e+003;3.922592e-002
2.564969e+003;3.928583e-002
2.566897e+003;3.943780e-002
2.568826e+003;3.943954e-002
2.570754e+003;3.940054e-002
2.572683e+003;3.971001e-002
2.574612e+003;4.014118e-002
2.576540e+003;4.014289e-002
2.578469e+003;3.985635e-002
2.580397e+003;3.989271e-002
2.582326e+003;4.026135e-002
2.584254e+003;4.049949e-002
2.586183e+003;4.036849e-002
2.588111e+003;4.060218e-002
2.590040e+003;4.101498e-002
2.591969e+003;4.071978e-002
2.593897e+003;4.052110e-002
2.595826e+003;4.081084e-002
2.597754e+003;4.082904e-002
2.599683e+003;4.081768e-002
2.601611e+003;4.088852e-002
2.603540e+003;4.087880e-002
2.605468e+003;4.084054e-002
2.607397e+003;4.079271e-002
2.609325e+003;4.101403e-002
2.611254e+003;4.138071e-002
2.613183e+003;4.153115e-002
2.615111e+003;4.158380e-002
2.617040e+003;4.166683e-002
2.618968e+003;4.176900e-002
2.620897e+003;4.183036e-002
2.622825e+003;4.159277e-002
2.624754e+003;4.174255e-002
2.626682e+003;4.216753e-002
2.628611e+003;4.214650e-002
2.630540e+003;4.201541e-002
2.632468e+003;4.234863e-002
2.634396e+003;4.269195e-002
2.636325e+003;4.256048e-002
2.638254e+003;4.250197e-002
2.640182e+003;4.267352e-002
2.642111e+003;4.267499e-002
2.644039e+003;4.268087e-002
2.645968e+003;4.283506e-002
2.647896e+003;4.284193e-002
2.649825e+003;4.274207e-002
2.651753e+003;4.294756e-002
2.653682e+003;4.315091e-002
2.655611e+003;4.322407e-002
2.657539e+003;4.330039e-002
2.659468e+003;4.343699e-002
2.661396e+003;4.339836e-002
2.663325e+003;4.324628e-002
2.665253e+003;4.335435e-002
2.667182e+003;4.365299e-002
2.669110e+003;4.371213e-002
2.671039e+003;4.359576e-002
2.672968e+003;4.379059e-002
2.674896e+003;4.409917e-002
2.676825e+003;4.421141e-002
2.678753e+003;4.418159e-002
2.680682e+003;4.447463e-002
2.682610e+003;4.464091e-002
2.684539e+003;4.459902e-002
2.686467e+003;4.468116e-002
2.688396e+003;4.483583e-002
2.690324e+003;4.499891e-002
2.692253e+003;4.547355e-002
2.694182e+003;4.579519e-002
2.696110e+003;4.574799e-002
2.698039e+003;4.607499e-002
2.699967e+003;4.641378e-002
2.701896e+003;4.640069e-002
2.703824e+003;4.656974e-002
2.705753e+003;4.684465e-002
2.707681e+003;4.682960e-002
2.709610e+003;4.685130e-002
2.711539e+003;4.734057e-002
2.713467e+003;4.766042e-002
2.715396e+003;4.766441e-002
2.717324e+003;4.794457e-002
2.719253e+003;4.839785e-002
2.721181e+003;4.886225e-002
2.723110e+003;4.912189e-002
2.725038e+003;4.943436e-002
2.726967e+003;4.963412e-002
2.728896e+003;4.954260e-002
2.730824e+003;4.965648e-002
2.732752e+003;5.021956e-002
2.734681e+003;5.086494e-002
2.736610e+003;5.109644e-002
2.738538e+003;5.117297e-002
2.740467e+003;5.142809e-002
2.742395e+003;5.145510e-002
2.744324e+003;5.139251e-002
2.746252e+003;5.154157e-002
2.748181e+003;5.182761e-002
2.750109e+003;5.197417e-002
2.752038e+003;5.162370e-002
2.753967e+003;5.137737e-002
2.755895e+003;5.142007e-002
2.757824e+003;5.155650e-002
2.759752e+003;5.181499e-002
2.761681e+003;5.220372e-002
2.763609e+003;5.267378e-002
2.765538e+003;5.282437e-002
2.767466e+003;5.275462e-002
2.769395e+003;5.294091e-002
2.771323e+003;5.324127e-002
2.773252e+003;5.331162e-002
2.775181e+003;5.346419e-002
2.777109e+003;5.398874e-002
2.779038e+003;5.447234e-002
2.780966e+003;5.453173e-002
2.782895e+003;5.456517e-002
2.784823e+003;5.505471e-002
2.786752e+003;5.579631e-002
2.788680e+003;5.609779e-002
2.790609e+003;5.613870e-002
2.792538e+003;5.638544e-002
2.794466e+003;5.663942e-002
2.796395e+003;5.692181e-002
2.798323e+003;5.733858e-002
2.800252e+003;5.757333e-002
2.802180e+003;5.771299e-002
2.804109e+003;5.820326e-002
2.806037e+003;5.894540e-002
2.807966e+003;5.945671e-002
2.809895e+003;5.994271e-002
2.811823e+003;6.039605e-002
2.813751e+003;6.093599e-002
2.815680e+003;6.162828e-002
2.817609e+003;6.229663e-002
2.819537e+003;6.269030e-002
2.821466e+003;6.296808e-002
2.823394e+003;6.357975e-002
2.825323e+003;6.424163e-002
2.827251e+003;6.468456e-002
2.829180e+003;6.537955e-002
2.831108e+003;6.628545e-002
2.833037e+003;6.743153e-002
2.834966e+003;6.888396e-002
2.836894e+003;7.054202e-002
2.838823e+003;7.289088e-002
2.840751e+003;7.601235e-002
2.842680e+003;7.944930e-002
2.844608e+003;8.346605e-002
2.846537e+003;8.802696e-002
2.848465e+003;9.263176e-002
2.850394e+003;9.752450e-002
2.852323e+003;1.020488e-001
2.854251e+003;1.055847e-001
2.856180e+003;1.082517e-001
2.858108e+003;1.098407e-001
2.860037e+003;1.104058e-001
2.861965e+003;1.104414e-001
2.863894e+003;1.098821e-001
2.865822e+003;1.084986e-001
2.867751e+003;1.063748e-001
2.869679e+003;1.039062e-001
2.871608e+003;1.016327e-001
2.873536e+003;9.893624e-002
2.875465e+003;9.599040e-002
2.877394e+003;9.307598e-002
2.879322e+003;9.059667e-002
2.881251e+003;8.880820e-002
2.883179e+003;8.754317e-002
2.885108e+003;8.680239e-002
2.887036e+003;8.683711e-002
2.888965e+003;8.782180e-002
2.890893e+003;8.919457e-002
2.892822e+003;9.123654e-002
2.894750e+003;9.377404e-002
2.896679e+003;9.587329e-002
2.898608e+003;9.722747e-002
2.900536e+003;9.824488e-002
2.902465e+003;9.923574e-002
2.904393e+003;1.004036e-001
2.906322e+003;1.018530e-001
2.908250e+003;1.037733e-001
2.910179e+003;1.058704e-001
2.912107e+003;1.083262e-001
2.914036e+003;1.108991e-001
2.915965e+003;1.136910e-001
2.917893e+003;1.164978e-001
2.919822e+003;1.200923e-001
2.921750e+003;1.237587e-001
2.923679e+003;1.270784e-001
2.925607e+003;1.302609e-001
2.927536e+003;1.327468e-001
2.929464e+003;1.348353e-001
2.931393e+003;1.363593e-001
2.933322e+003;1.366470e-001
2.935250e+003;1.363770e-001
2.937178e+003;1.352794e-001
2.939107e+003;1.326412e-001
2.941036e+003;1.293022e-001
2.942964e+003;1.259827e-001
2.944893e+003;1.221991e-001
2.946821e+003;1.172670e-001
2.948750e+003;1.112644e-001
2.950678e+003;1.050865e-001
2.952607e+003;9.917261e-002
2.954535e+003;9.378999e-002
2.956464e+003;8.869642e-002
2.958393e+003;8.433668e-002
2.960321e+003;8.076413e-002
2.962250e+003;7.745780e-002
2.964178e+003;7.484012e-002
2.966107e+003;7.231349e-002
2.968035e+003;6.970947e-002
2.969964e+003;6.738611e-002
2.971892e+003;6.500860e-002
2.973821e+003;6.287137e-002
2.975750e+003;6.112395e-002
2.977678e+003;5.966151e-002
2.979607e+003;5.814753e-002
2.981535e+003;5.681311e-002
2.983464e+003;5.586922e-002
2.985392e+003;5.487075e-002
2.987321e+003;5.439227e-002
2.989249e+003;5.413982e-002
2.991178e+003;5.373034e-002
2.993106e+003;5.322318e-002
2.995035e+003;5.263850e-002
2.996964e+003;5.205189e-002
2.998892e+003;5.186815e-002
3.000821e+003;5.198283e-002
3.002749e+003;5.185755e-002
3.004678e+003;5.199138e-002
3.006606e+003;5.230301e-002
3.008535e+003;5.271841e-002
3.010463e+003;5.278717e-002
3.012392e+003;5.255832e-002
3.014321e+003;5.256569e-002
3.016249e+003;5.247396e-002
3.018177e+003;5.261793e-002
3.020106e+003;5.322902e-002
3.022035e+003;5.373420e-002
3.023963e+003;5.426790e-002
3.025892e+003;5.456907e-002
3.027820e+003;5.469984e-002
3.029749e+003;5.523066e-002
3.031677e+003;5.588542e-002
3.033606e+003;5.633410e-002
3.035534e+003;5.655687e-002
3.037463e+003;5.687878e-002
3.039392e+003;5.767042e-002
3.041320e+003;5.861186e-002
3.043249e+003;5.941761e-002
3.045177e+003;6.018051e-002
3.047106e+003;6.094487e-002
3.049034e+003;6.169137e-002
3.050963e+003;6.260587e-002
3.052891e+003;6.346071e-002
3.054820e+003;6.418297e-002
3.056749e+003;6.481922e-002
3.058677e+003;6.537986e-002
3.060606e+003;6.577110e-002
3.062534e+003;6.624740e-002
3.064463e+003;6.708864e-002
3.066391e+003;6.763747e-002
3.068320e+003;6.793857e-002
3.070248e+003;6.814353e-002
3.072177e+003;6.835414e-002
3.074105e+003;6.860370e-002
3.076034e+003;6.852365e-002
3.077963e+003;6.807039e-002
3.079891e+003;6.786542e-002
3.081820e+003;6.802889e-002
3.083748e+003;6.815710e-002
3.085677e+003;6.833177e-002
3.087605e+003;6.786786e-002
3.089534e+003;6.721994e-002
3.091462e+003;6.683207e-002
3.093391e+003;6.647065e-002
3.095320e+003;6.584994e-002
3.097248e+003;6.500128e-002
3.099177e+003;6.435620e-002
3.101105e+003;6.392992e-002
3.103034e+003;6.326810e-002
3.104962e+003;6.256507e-002
3.106891e+003;6.212594e-002
3.108819e+003;6.122645e-002
3.110748e+003;6.023780e-002
3.112677e+003;5.969249e-002
3.114605e+003;5.950705e-002
3.116533e+003;5.943015e-002
3.118462e+003;5.903991e-002
3.120391e+003;5.809791e-002
3.122319e+003;5.748433e-002
3.124248e+003;5.744908e-002
3.126176e+003;5.738498e-002
3.128105e+003;5.719814e-002
3.130033e+003;5.698588e-002
3.131962e+003;5.696476e-002
3.133890e+003;5.703707e-002
3.135819e+003;5.699687e-002
3.137748e+003;5.682606e-002
3.139676e+003;5.682746e-002
3.141605e+003;5.678814e-002
3.143533e+003;5.677874e-002
3.145462e+003;5.703786e-002
3.147390e+003;5.719995e-002
3.149319e+003;5.726368e-002
3.151247e+003;5.755552e-002
3.153176e+003;5.797173e-002
3.155104e+003;5.818375e-002
3.157033e+003;5.844061e-002
3.158962e+003;5.871290e-002
3.160890e+003;5.898787e-002
3.162819e+003;5.939322e-002
3.164747e+003;6.001480e-002
3.166676e+003;6.059567e-002
3.168604e+003;6.089840e-002
3.170533e+003;6.179587e-002
3.172461e+003;6.267522e-002
3.174390e+003;6.286164e-002
3.176319e+003;6.322563e-002
3.178247e+003;6.379281e-002
3.180176e+003;6.455645e-002
3.182104e+003;6.520806e-002
3.184033e+003;6.592761e-002
3.185961e+003;6.660419e-002
3.187890e+003;6.692514e-002
3.189818e+003;6.710581e-002
3.191747e+003;6.750105e-002
3.193676e+003;6.805280e-002
3.195604e+003;6.855620e-002
3.197532e+003;6.922209e-002
3.199461e+003;6.971224e-002
3.201390e+003;7.001660e-002
3.203318e+003;7.038816e-002
3.205247e+003;7.058583e-002
3.207175e+003;7.084810e-002
3.209104e+003;7.116260e-002
3.211032e+003;7.156104e-002
3.212961e+003;7.199762e-002
3.214889e+003;7.252234e-002
3.216818e+003;7.304778e-002
3.218747e+003;7.381853e-002
3.220675e+003;7.461966e-002
3.222604e+003;7.511719e-002
3.224532e+003;7.577835e-002
3.226461e+003;7.712349e-002
3.228389e+003;7.815745e-002
3.230318e+003;7.877010e-002
3.232246e+003;7.998933e-002
3.234175e+003;8.113977e-002
3.236104e+003;8.230716e-002
3.238032e+003;8.348545e-002
3.239961e+003;8.482421e-002
3.241889e+003;8.668000e-002
3.243818e+003;8.877470e-002
3.245746e+003;9.058369e-002
3.247675e+003;9.239044e-002
3.249603e+003;9.417016e-002
3.251532e+003;9.586436e-002
3.253460e+003;9.760410e-002
3.255389e+003;9.956415e-002
3.257318e+003;1.018660e-001
3.259246e+003;1.042591e-001
3.261175e+003;1.065318e-001
3.263103e+003;1.090488e-001
3.265032e+003;1.118443e-001
3.266960e+003;1.142705e-001
3.268889e+003;1.164203e-001
3.270817e+003;1.184609e-001
3.272746e+003;1.202907e-001
3.274675e+003;1.226916e-001
3.276603e+003;1.257692e-001
3.278531e+003;1.284640e-001
3.280460e+003;1.307476e-001
3.282389e+003;1.332545e-001
3.284317e+003;1.356028e-001
3.286246e+003;1.382311e-001
3.288174e+003;1.404392e-001
3.290103e+003;1.410347e-001
3.292031e+003;1.412174e-001
3.293960e+003;1.415210e-001
3.295888e+003;1.412354e-001
3.297817e+003;1.399545e-001
3.299746e+003;1.379595e-001
3.301674e+003;1.352199e-001
3.303603e+003;1.321245e-001
3.305531e+003;1.288235e-001
3.307460e+003;1.248615e-001
3.309388e+003;1.210314e-001
3.311317e+003;1.174612e-001
3.313245e+003;1.138355e-001
3.315174e+003;1.105490e-001
3.317103e+003;1.073920e-001
3.319031e+003;1.039820e-001
3.320960e+003;1.007460e-001
3.322888e+003;9.763202e-002
3.324817e+003;9.450428e-002
3.326745e+003;9.164962e-002
3.328674e+003;8.896881e-002
3.330602e+003;8.669380e-002
3.332531e+003;8.449520e-002
3.334459e+003;8.236127e-002
3.336388e+003;8.022936e-002
3.338317e+003;7.789917e-002
3.340245e+003;7.558201e-002
3.342174e+003;7.372464e-002
3.344102e+003;7.232141e-002
3.346031e+003;7.093126e-002
3.347959e+003;6.918529e-002
3.349888e+003;6.752713e-002
3.351816e+003;6.627770e-002
3.353745e+003;6.475209e-002
3.355674e+003;6.340224e-002
3.357602e+003;6.235924e-002
3.359531e+003;6.105820e-002
3.361459e+003;6.003610e-002
3.363388e+003;5.937548e-002
3.365316e+003;5.850903e-002
3.367245e+003;5.774005e-002
3.369173e+003;5.696208e-002
3.371102e+003;5.625692e-002
3.373031e+003;5.549199e-002
3.374959e+003;5.471310e-002
3.376887e+003;5.400172e-002
3.378816e+003;5.345149e-002
3.380745e+003;5.309099e-002
3.382673e+003;5.262646e-002
3.384602e+003;5.239736e-002
3.386530e+003;5.226358e-002
3.388459e+003;5.143854e-002
3.390387e+003;5.057601e-002
3.392316e+003;5.024489e-002
3.394244e+003;5.000139e-002
3.396173e+003;4.965455e-002
3.398102e+003;4.928502e-002
3.400030e+003;4.887167e-002
3.401959e+003;4.871473e-002
3.403887e+003;4.853418e-002
3.405816e+003;4.801048e-002
3.407744e+003;4.764463e-002
3.409673e+003;4.759464e-002
3.411601e+003;4.752281e-002
3.413530e+003;4.736666e-002
3.415458e+003;4.723646e-002
3.417387e+003;4.709071e-002
3.419316e+003;4.699574e-002
3.421244e+003;4.688341e-002
3.423173e+003;4.644749e-002
3.425101e+003;4.617013e-002
3.427030e+003;4.608616e-002
3.428958e+003;4.570264e-002
3.430887e+003;4.579048e-002
3.432815e+003;4.605683e-002
3.434744e+003;4.581220e-002
3.436673e+003;4.546535e-002
3.438601e+003;4.553658e-002
3.440530e+003;4.553783e-002
3.442458e+003;4.562840e-002
3.444387e+003;4.534704e-002
3.446315e+003;4.505756e-002
3.448244e+003;4.510550e-002
3.450172e+003;4.464286e-002
3.452101e+003;4.441554e-002
3.454030e+003;4.450297e-002
3.455958e+003;4.429092e-002
3.457886e+003;4.424711e-002
3.459815e+003;4.419458e-002
3.461744e+003;4.386964e-002
3.463672e+003;4.381928e-002
3.465601e+003;4.361885e-002
3.467529e+003;4.326444e-002
3.469458e+003;4.308998e-002
3.471386e+003;4.305734e-002
3.473315e+003;4.275531e-002
3.475243e+003;4.206031e-002
3.477172e+003;4.206546e-002
3.479101e+003;4.247288e-002
3.481029e+003;4.254184e-002
3.482958e+003;4.247252e-002
3.484886e+003;4.264388e-002
3.486815e+003;4.258222e-002
3.488743e+003;4.219232e-002
3.490672e+003;4.215421e-002
3.492600e+003;4.186911e-002
3.494529e+003;4.155135e-002
3.496458e+003;4.160524e-002
3.498386e+003;4.138399e-002
3.500315e+003;4.146451e-002
3.502243e+003;4.172461e-002
3.504172e+003;4.152830e-002
3.506100e+003;4.145758e-002
3.508029e+003;4.109674e-002
3.509957e+003;4.061269e-002
3.511886e+003;4.057260e-002
3.513814e+003;4.066731e-002
3.515743e+003;4.062496e-002
3.517672e+003;4.062659e-002
3.519600e+003;4.041827e-002
3.521529e+003;4.011771e-002
3.523457e+003;3.971618e-002
3.525386e+003;3.956695e-002
3.527314e+003;3.955577e-002
3.529243e+003;3.915375e-002
3.531171e+003;3.898728e-002
3.533100e+003;3.907323e-002
3.535029e+003;3.878906e-002
3.536957e+003;3.832101e-002
3.538885e+003;3.805842e-002
3.540814e+003;3.758205e-002
3.542743e+003;3.726217e-002
3.544671e+003;3.738327e-002
3.546600e+003;3.744525e-002
3.548528e+003;3.732575e-002
3.550457e+003;3.703179e-002
3.552385e+003;3.689758e-002
3.554314e+003;3.682620e-002
3.556242e+003;3.629955e-002
3.558171e+003;3.562149e-002
3.560100e+003;3.535873e-002
3.562028e+003;3.509537e-002
3.563957e+003;3.466361e-002
3.565885e+003;3.463544e-002
3.567814e+003;3.490520e-002
3.569742e+003;3.474448e-002
3.571671e+003;3.436689e-002
3.573599e+003;3.390595e-002
3.575528e+003;3.350969e-002
3.577457e+003;3.328348e-002
3.579385e+003;3.278802e-002
3.581314e+003;3.225090e-002
3.583242e+003;3.204563e-002
3.585171e+003;3.189241e-002
3.587099e+003;3.166696e-002
3.589028e+003;3.158689e-002
3.590956e+003;3.111076e-002
3.592885e+003;3.078377e-002
3.594813e+003;3.075546e-002
3.596742e+003;3.046296e-002
3.598671e+003;3.032085e-002
3.600599e+003;3.011490e-002
3.602528e+003;3.022063e-002
3.604456e+003;3.031861e-002
3.606385e+003;2.981314e-002
3.608313e+003;2.922316e-002
3.610242e+003;2.890024e-002
3.612170e+003;2.883193e-002
3.614099e+003;2.878753e-002
3.616028e+003;2.888529e-002
3.617956e+003;2.879426e-002
3.619885e+003;2.828433e-002
3.621813e+003;2.777447e-002
3.623742e+003;2.745312e-002
3.625670e+003;2.693288e-002
3.627599e+003;2.667367e-002
3.629527e+003;2.659285e-002
3.631456e+003;2.689023e-002
3.633385e+003;2.716453e-002
3.635313e+003;2.664221e-002
3.637241e+003;2.564233e-002
3.639170e+003;2.549613e-002
3.641099e+003;2.553809e-002
3.643027e+003;2.530709e-002
3.644956e+003;2.501228e-002
3.646884e+003;2.496223e-002
3.648813e+003;2.493506e-002
3.650741e+003;2.487225e-002
3.652670e+003;2.488075e-002
3.654598e+003;2.456833e-002
3.656527e+003;2.400895e-002
3.658456e+003;2.369416e-002
3.660384e+003;2.409290e-002
3.662313e+003;2.431694e-002
3.664241e+003;2.433880e-002
3.666170e+003;2.432549e-002
3.668098e+003;2.414891e-002
3.670027e+003;2.385196e-002
3.671955e+003;2.375890e-002
3.673884e+003;2.365028e-002
3.675813e+003;2.373146e-002
3.677741e+003;2.365318e-002
3.679669e+003;2.322346e-002
3.681598e+003;2.291321e-002
3.683527e+003;2.280376e-002
3.685455e+003;2.285272e-002
3.687384e+003;2.258601e-002
3.689312e+003;2.220117e-002
3.691241e+003;2.221191e-002
3.693169e+003;2.209005e-002
3.695098e+003;2.190468e-002
3.697026e+003;2.180329e-002
3.698955e+003;2.164514e-002
3.700884e+003;2.190772e-002
3.702812e+003;2.194079e-002
3.704741e+003;2.157912e-002
3.706669e+003;2.128285e-002
3.708598e+003;2.119659e-002
3.710526e+003;2.120724e-002
3.712455e+003;2.145078e-002
3.714383e+003;2.128696e-002
3.716312e+003;2.119423e-002
3.718240e+003;2.126117e-002
3.720169e+003;2.109606e-002
3.722098e+003;2.083130e-002
3.724026e+003;2.045520e-002
3.725955e+003;2.077940e-002
3.727883e+003;2.116326e-002
3.729812e+003;2.069217e-002
3.731740e+003;2.046068e-002
3.733669e+003;2.032254e-002
3.735597e+003;2.029338e-002
3.737526e+003;2.066687e-002
3.739455e+003;2.085709e-002
3.741383e+003;2.069783e-002
3.743312e+003;2.032573e-002
3.745240e+003;2.045294e-002
3.747169e+003;2.095347e-002
3.749097e+003;2.084809e-002
3.751026e+003;2.072066e-002
3.752954e+003;2.073748e-002
3.754883e+003;2.106232e-002
3.756812e+003;2.129882e-002
3.758740e+003;2.117053e-002
3.760668e+003;2.115843e-002
3.762597e+003;2.140052e-002
3.764526e+003;2.097016e-002
3.766454e+003;2.078284e-002
3.768383e+003;2.120773e-002
3.770311e+003;2.142144e-002
3.772240e+003;2.136564e-002
3.774168e+003;2.131629e-002
3.776097e+003;2.126427e-002
3.778025e+003;2.101140e-002
3.779954e+003;2.095131e-002
3.781883e+003;2.077398e-002
3.783811e+003;2.065610e-002
3.785740e+003;2.100455e-002
3.787668e+003;2.131737e-002
3.789597e+003;2.124238e-002
3.791525e+003;2.108072e-002
3.793454e+003;2.121350e-002
3.795382e+003;2.104437e-002
3.797311e+003;2.094460e-002
3.799240e+003;2.095222e-002
3.801168e+003;2.096453e-002
3.803097e+003;2.109115e-002
3.805025e+003;2.074683e-002
3.806954e+003;2.047753e-002
3.808882e+003;2.093994e-002
3.810811e+003;2.129430e-002
3.812739e+003;2.175389e-002
3.814668e+003;2.190343e-002
3.816596e+003;2.153841e-002
3.818525e+003;2.139801e-002
3.820454e+003;2.133728e-002
3.822382e+003;2.176270e-002
3.824311e+003;2.196780e-002
3.826239e+003;2.184830e-002
3.828168e+003;2.179775e-002
3.830096e+003;2.215978e-002
3.832025e+003;2.229017e-002
3.833953e+003;2.226851e-002
3.835882e+003;2.186301e-002
3.837811e+003;2.167795e-002
3.839739e+003;2.182273e-002
3.841667e+003;2.180817e-002
3.843596e+003;2.156278e-002
3.845525e+003;2.184102e-002
3.847453e+003;2.235359e-002
3.849382e+003;2.234173e-002
3.851310e+003;2.170160e-002
3.853239e+003;2.124798e-002
3.855167e+003;2.154242e-002
3.857096e+003;2.236119e-002
3.859024e+003;2.253579e-002
3.860953e+003;2.232756e-002
3.862882e+003;2.283016e-002
3.864810e+003;2.294873e-002
3.866739e+003;2.195365e-002
3.868667e+003;2.162815e-002
3.870596e+003;2.233140e-002
3.872524e+003;2.220560e-002
3.874453e+003;2.202256e-002
3.876381e+003;2.275585e-002
3.878310e+003;2.288921e-002
3.880239e+003;2.218841e-002
3.882167e+003;2.153159e-002
3.884096e+003;2.143334e-002
3.886024e+003;2.188412e-002
3.887953e+003;2.225481e-002
3.889881e+003;2.237699e-002
3.891810e+003;2.239377e-002
3.893738e+003;2.259111e-002
3.895667e+003;2.277226e-002
3.897595e+003;2.258709e-002
3.899524e+003;2.229474e-002
3.901453e+003;2.245448e-002
3.903381e+003;2.278665e-002
3.905310e+003;2.279492e-002
3.907238e+003;2.270815e-002
3.909167e+003;2.258737e-002
3.911095e+003;2.288852e-002
3.913024e+003;2.319623e-002
3.914952e+003;2.311102e-002
3.916881e+003;2.303548e-002
3.918810e+003;2.343711e-002
3.920738e+003;2.374752e-002
3.922667e+003;2.365014e-002
3.924595e+003;2.389821e-002
3.926524e+003;2.399950e-002
3.928452e+003;2.372712e-002
3.930381e+003;2.385147e-002
3.932309e+003;2.432864e-002
3.934238e+003;2.469475e-002
3.936167e+003;2.482777e-002
3.938095e+003;2.471285e-002
3.940023e+003;2.465140e-002
3.941952e+003;2.447087e-002
3.943881e+003;2.468626e-002
3.945809e+003;2.534953e-002
3.947738e+003;2.532125e-002
3.949666e+003;2.500841e-002
3.951595e+003;2.530148e-002
3.953523e+003;2.537021e-002
3.955452e+003;2.492096e-002
3.957380e+003;2.484503e-002
3.959309e+003;2.476290e-002
3.961238e+003;2.474722e-002
3.963166e+003;2.503786e-002
3.965095e+003;2.529856e-002
3.967023e+003;2.540011e-002
3.968952e+003;2.587620e-002
3.970880e+003;2.613290e-002
3.972809e+003;2.576347e-002
3.974737e+003;2.578942e-002
3.976666e+003;2.614712e-002
3.978594e+003;2.602193e-002
3.980523e+003;2.585281e-002
3.982452e+003;2.588183e-002
3.984380e+003;2.594415e-002
3.986309e+003;2.586122e-002
3.988237e+003;2.566099e-002
3.990166e+003;2.649796e-002
3.992094e+003;2.746929e-002
3.994023e+003;2.719095e-002
3.995951e+003;2.695055e-002
3.997880e+003;2.696091e-002
3.999809e+003;2.686140e-002
4.001737e+003;0.000000e+000
