3.992094e+002;0.000000e+000
4.011380e+002;0.000000e+000
4.030665e+002;0.000000e+000
4.049951e+002;0.000000e+000
4.069236e+002;0.000000e+000
4.088522e+002;0.000000e+000
4.107807e+002;0.000000e+000
4.127093e+002;0.000000e+000
4.146378e+002;0.000000e+000
4.165664e+002;0.000000e+000
4.184949e+002;0.000000e+000
4.204235e+002;0.000000e+000
4.223520e+002;0.000000e+000
4.242806e+002;0.000000e+000
4.262091e+002;0.000000e+000
4.281377e+002;0.000000e+000
4.300662e+002;0.000000e+000
4.319948e+002;0.000000e+000
4.339233e+002;0.000000e+000
4.358519e+002;0.000000e+000
4.377804e+002;0.000000e+000
4.397090e+002;0.000000e+000
4.416375e+002;0.000000e+000
4.435660e+002;0.000000e+000
4.454946e+002;0.000000e+000
4.474232e+002;0.000000e+000
4.493517e+002;0.000000e+000
4.512802e+002;0.000000e+000
4.532088e+002;0.000000e+000
4.551373e+002;0.000000e+000
4.570659e+002;0.000000e+000
4.589944e+002;0.000000e+000
4.609230e+002;0.000000e+000
4.628515e+002;0.000000e+000
4.647801e+002;0.000000e+000
4.667086e+002;0.000000e+000
4.686372e+002;0.000000e+000
4.705657e+002;0.000000e+000
4.724943e+002;0.000000e+000
4.744228e+002;0.000000e+000
4.763513e+002;0.000000e+000
4.782799e+002;0.000000e+000
4.802085e+002;0.000000e+000
4.821370e+002;0.000000e+000
4.840656e+002;0.000000e+000
4.859941e+002;0.000000e+000
4.879226e+002;0.000000e+000
4.898512e+002;0.000000e+000
4.917798e+002;0.000000e+000
4.937083e+002;0.000000e+000
4.956368e+002;0.000000e+000
4.975654e+002;0.000000e+000
4.994939e+002;0.000000e+000
5.014225e+002;0.000000e+000
5.033510e+002;0.000000e+000
5.052796e+002;0.000000e+000
5.072081e+002;0.000000e+000
5.091367e+002;0.000000e+000
5.110652e+002;0.000000e+000
5.129938e+002;0.000000e+000
5.149223e+002;0.000000e+000
5.168509e+002;0.000000e+000
5.187794e+002;0.000000e+000
5.207079e+002;0.000000e+000
5.226365e+002;0.000000e+000
5.245651e+002;0.000000e+000
5.264936e+002;0.000000e+000
5.284222e+002;0.000000e+000
5.303507e+002;0.000000e+000
5.322792e+002;0.000000e+000
5.342078e+002;0.000000e+000
5.361364e+002;0.000000e+000
5.380649e+002;0.000000e+000
5.399935e+002;0.000000e+000
5.419220e+002;0.000000e+000
5.438505e+002;0.000000e+000
5.457791e+002;0.000000e+000
5.477076e+002;0.000000e+000
5.496362e+002;0.000000e+000
5.515648e+002;0.000000e+000
5.534933e+002;0.000000e+000
5.554218e+002;0.000000e+000
5.573504e+002;0.000000e+000
5.592789e+002;0.000000e+000
5.612075e+002;0.000000e+000
5.631360e+002;0.000000e+000
5.650646e+002;0.000000e+000
5.669931e+002;0.000000e+000
5.689217e+002;0.000000e+000
5.708502e+002;0.000000e+000
5.727787e+002;0.000000e+000
5.747073e+002;0.000000e+000
5.766359e+002;0.000000e+000
5.785644e+002;0.000000e+000
5.804930e+002;0.000000e+000
5.824215e+002;0.000000e+000
5.843500e+002;0.000000e+000
5.862786e+002;0.000000e+000
5.882072e+002;0.000000e+000
5.901357e+002;0.000000e+000
5.920643e+002;0.000000e+000
5.939928e+002;0.000000e+000
5.959213e+002;0.000000e+000
5.978499e+002;0.000000e+000
5.997784e+002;1.146633e-001
6.017070e+002;1.161183e-001
6.036355e+002;1.085631e-001
6.055641e+002;1.044865e-001
6.074926e+002;1.069565e-001
6.094211e+002;1.117859e-001
6.113497e+002;1.149236e-001
6.132783e+002;1.117127e-001
6.152068e+002;1.099674e-001
6.171354e+002;1.124855e-001
6.190639e+002;1.123672e-001
6.209924e+002;1.103503e-001
6.229210e+002;1.105767e-001
6.248495e+002;1.103406e-001
6.267781e+002;1.080552e-001
6.287067e+002;1.083330e-001
6.306352e+002;1.082179e-001
6.325637e+002;1.067483e-001
6.344923e+002;1.067992e-001
6.364208e+002;1.097979e-001
6.383494e+002;1.137661e-001
6.402780e+002;1.154883e-001
6.422065e+002;1.144489e-001
6.441350e+002;1.119933e-001
6.460636e+002;1.133835e-001
6.479921e+002;1.182071e-001
6.499207e+002;1.225306e-001
6.518492e+002;1.224430e-001
6.537778e+002;1.215528e-001
6.557063e+002;1.269541e-001
6.576349e+002;1.305857e-001
6.595634e+002;1.316141e-001
6.614919e+002;1.343643e-001
6.634205e+002;1.359725e-001
6.653491e+002;1.363855e-001
6.672776e+002;1.363512e-001
6.692062e+002;1.383504e-001
6.711347e+002;1.401565e-001
6.730632e+002;1.403657e-001
6.749918e+002;1.407850e-001
6.769203e+002;1.436505e-001
6.788489e+002;1.460511e-001
6.807775e+002;1.454365e-001
6.827060e+002;1.459219e-001
6.846345e+002;1.476948e-001
6.865631e+002;1.475539e-001
6.884916e+002;1.454616e-001
6.904202e+002;1.424240e-001
6.923488e+002;1.394689e-001
6.942773e+002;1.372368e-001
6.962058e+002;1.364577e-001
6.981344e+002;1.351761e-001
7.000629e+002;1.320553e-001
7.019915e+002;1.291562e-001
7.039200e+002;1.278924e-001
7.058486e+002;1.266858e-001
7.077771e+002;1.263639e-001
7.097057e+002;1.260868e-001
7.116342e+002;1.241827e-001
7.135627e+002;1.217230e-001
7.154913e+002;1.198719e-001
7.174199e+002;1.187226e-001
7.193484e+002;1.176723e-001
7.212770e+002;1.179315e-001
7.232055e+002;1.192504e-001
7.251340e+002;1.207994e-001
7.270626e+002;1.208447e-001
7.289911e+002;1.185731e-001
7.309197e+002;1.153952e-001
7.328483e+002;1.105798e-001
7.347768e+002;1.041466e-001
7.367053e+002;9.870794e-002
7.386339e+002;9.413226e-002
7.405624e+002;9.058817e-002
7.424910e+002;8.843554e-002
7.444196e+002;8.684500e-002
7.463481e+002;8.416113e-002
7.482766e+002;8.215977e-002
7.502052e+002;8.135502e-002
7.521337e+002;7.961465e-002
7.540623e+002;7.834590e-002
7.559908e+002;7.683327e-002
7.579194e+002;7.516245e-002
7.598479e+002;7.450695e-002
7.617765e+002;7.364444e-002
7.637050e+002;7.220643e-002
7.656335e+002;7.154474e-002
7.675621e+002;7.121057e-002
7.694907e+002;7.027873e-002
7.714192e+002;7.001185e-002
7.733478e+002;7.000329e-002
7.752763e+002;6.815462e-002
7.772048e+002;6.586444e-002
7.791334e+002;6.508130e-002
7.810620e+002;6.527283e-002
7.829905e+002;6.482249e-002
7.849191e+002;6.386550e-002
7.868476e+002;6.267381e-002
7.887761e+002;6.079533e-002
7.907047e+002;5.949664e-002
7.926332e+002;5.929552e-002
7.945618e+002;5.875405e-002
7.964903e+002;5.783437e-002
7.984189e+002;5.672112e-002
8.003474e+002;5.593393e-002
8.022759e+002;5.527247e-002
8.042045e+002;5.457418e-002
8.061331e+002;5.424924e-002
8.080616e+002;5.332312e-002
8.099902e+002;5.263383e-002
8.119187e+002;5.195142e-002
8.138472e+002;5.114732e-002
8.157758e+002;5.109324e-002
8.177043e+002;5.076501e-002
8.196329e+002;5.028953e-002
8.215615e+002;5.024140e-002
8.234900e+002;5.048086e-002
8.254185e+002;5.083469e-002
8.273471e+002;5.168602e-002
8.292756e+002;5.325086e-002
8.312042e+002;5.462679e-002
8.331328e+002;5.469672e-002
8.350613e+002;5.314146e-002
8.369898e+002;5.120805e-002
8.389184e+002;4.938832e-002
8.408469e+002;4.833100e-002
8.427755e+002;4.807543e-002
8.447040e+002;4.735347e-002
8.466326e+002;4.609920e-002
8.485611e+002;4.505304e-002
8.504897e+002;4.419934e-002
8.524182e+002;4.394113e-002
8.543467e+002;4.421934e-002
8.562753e+002;4.451020e-002
8.582039e+002;4.448304e-002
8.601324e+002;4.425749e-002
8.620610e+002;4.388728e-002
8.639895e+002;4.390946e-002
8.659180e+002;4.417602e-002
8.678466e+002;4.445892e-002
8.697751e+002;4.411194e-002
8.717037e+002;4.384619e-002
8.736323e+002;4.421673e-002
8.755608e+002;4.463173e-002
8.774893e+002;4.477089e-002
8.794179e+002;4.485009e-002
8.813464e+002;4.495977e-002
8.832750e+002;4.491876e-002
8.852036e+002;4.497564e-002
8.871321e+002;4.525393e-002
8.890606e+002;4.550420e-002
8.909892e+002;4.562932e-002
8.929177e+002;4.564065e-002
8.948463e+002;4.575657e-002
8.967748e+002;4.621402e-002
8.987034e+002;4.647378e-002
9.006319e+002;4.686676e-002
9.025605e+002;4.714607e-002
9.044890e+002;4.751771e-002
9.064175e+002;4.826793e-002
9.083461e+002;4.881575e-002
9.102747e+002;4.921383e-002
9.122032e+002;4.937050e-002
9.141318e+002;4.952530e-002
9.160603e+002;5.012331e-002
9.179888e+002;5.059391e-002
9.199174e+002;5.102578e-002
9.218459e+002;5.169961e-002
9.237745e+002;5.271276e-002
9.257031e+002;5.432952e-002
9.276316e+002;5.561275e-002
9.295601e+002;5.562638e-002
9.314887e+002;5.473340e-002
9.334172e+002;5.361542e-002
9.353458e+002;5.262302e-002
9.372744e+002;5.215171e-002
9.392029e+002;5.182339e-002
9.411314e+002;5.195923e-002
9.430600e+002;5.275286e-002
9.449885e+002;5.363961e-002
9.469171e+002;5.485256e-002
9.488456e+002;5.619647e-002
9.507742e+002;5.699124e-002
9.527027e+002;5.754315e-002
9.546313e+002;5.825229e-002
9.565598e+002;5.920008e-002
9.584883e+002;5.954809e-002
9.604169e+002;5.920627e-002
9.623455e+002;5.869420e-002
9.642740e+002;5.806992e-002
9.662026e+002;5.785474e-002
9.681311e+002;5.781503e-002
9.700596e+002;5.760822e-002
9.719882e+002;5.738611e-002
9.739167e+002;5.711518e-002
9.758453e+002;5.661613e-002
9.777739e+002;5.582487e-002
9.797024e+002;5.493340e-002
9.816309e+002;5.400285e-002
9.835595e+002;5.333043e-002
9.854880e+002;5.293166e-002
9.874166e+002;5.234151e-002
9.893452e+002;5.175560e-002
9.912737e+002;5.115783e-002
9.932022e+002;5.052452e-002
9.951307e+002;5.001960e-002
9.970593e+002;4.985765e-002
9.989879e+002;5.007013e-002
1.000916e+003;4.985088e-002
1.002845e+003;4.951442e-002
1.004773e+003;4.954517e-002
1.006702e+003;4.949255e-002
1.008631e+003;4.943896e-002
1.010559e+003;4.948274e-002
1.012488e+003;4.912204e-002
1.014416e+003;4.876834e-002
1.016345e+003;4.890775e-002
1.018273e+003;4.949674e-002
1.020202e+003;5.038928e-002
1.022130e+003;5.132576e-002
1.024059e+003;5.213520e-002
1.025988e+003;5.301349e-002
1.027916e+003;5.316779e-002
1.029845e+003;5.296752e-002
1.031773e+003;5.261689e-002
1.033702e+003;5.239078e-002
1.035630e+003;5.217039e-002
1.037559e+003;5.172865e-002
1.039487e+003;5.141176e-002
1.041416e+003;5.058714e-002
1.043344e+003;4.975003e-002
1.045273e+003;4.957774e-002
1.047202e+003;4.937243e-002
1.049130e+003;4.948489e-002
1.051059e+003;5.043829e-002
1.052987e+003;5.143600e-002
1.054916e+003;5.227633e-002
1.056844e+003;5.305048e-002
1.058773e+003;5.427117e-002
1.060701e+003;5.547889e-002
1.062630e+003;5.637876e-002
1.064558e+003;5.759974e-002
1.066487e+003;5.854247e-002
1.068416e+003;5.900817e-002
1.070344e+003;5.903448e-002
1.072273e+003;5.943247e-002
1.074201e+003;5.992308e-002
1.076130e+003;5.968561e-002
1.078058e+003;5.920407e-002
1.079987e+003;5.888620e-002
1.081915e+003;5.848951e-002
1.083844e+003;5.788082e-002
1.085773e+003;5.711038e-002
1.087701e+003;5.660031e-002
1.089630e+003;5.658291e-002
1.091558e+003;5.684589e-002
1.093487e+003;5.702710e-002
1.095415e+003;5.764128e-002
1.097344e+003;5.828385e-002
1.099272e+003;5.954980e-002
1.101201e+003;6.094632e-002
1.103129e+003;6.228554e-002
1.105058e+003;6.365686e-002
1.106987e+003;6.461689e-002
1.108915e+003;6.542519e-002
1.110844e+003;6.623890e-002
1.112772e+003;6.698440e-002
1.114701e+003;6.761315e-002
1.116629e+003;6.754711e-002
1.118558e+003;6.751563e-002
1.120486e+003;6.741308e-002
1.122415e+003;6.616809e-002
1.124344e+003;6.397118e-002
1.126272e+003;6.149996e-002
1.128201e+003;5.896828e-002
1.130129e+003;5.719326e-002
1.132058e+003;5.642215e-002
1.133986e+003;5.603596e-002
1.135915e+003;5.589605e-002
1.137843e+003;5.635533e-002
1.139772e+003;5.659544e-002
1.141700e+003;5.717444e-002
1.143629e+003;5.845683e-002
1.145557e+003;5.992293e-002
1.147486e+003;6.144007e-002
1.149415e+003;6.340392e-002
1.151343e+003;6.544261e-002
1.153272e+003;6.755462e-002
1.155200e+003;6.987289e-002
1.157129e+003;7.280605e-002
1.159057e+003;7.694813e-002
1.160986e+003;8.178261e-002
1.162914e+003;8.677617e-002
1.164843e+003;9.141048e-002
1.166771e+003;9.495108e-002
1.168700e+003;9.696125e-002
1.170629e+003;9.633940e-002
1.172557e+003;9.340626e-002
1.174486e+003;8.936252e-002
1.176414e+003;8.490688e-002
1.178343e+003;8.140498e-002
1.180271e+003;7.906669e-002
1.182200e+003;7.788248e-002
1.184128e+003;7.853878e-002
1.186057e+003;8.045054e-002
1.187986e+003;8.268722e-002
1.189914e+003;8.499713e-002
1.191843e+003;8.806296e-002
1.193771e+003;9.188284e-002
1.195700e+003;9.581057e-002
1.197628e+003;9.934130e-002
1.199557e+003;1.012928e-001
1.201485e+003;1.001037e-001
1.203414e+003;9.723597e-002
1.205343e+003;9.483890e-002
1.207271e+003;9.353717e-002
1.209200e+003;9.262430e-002
1.211128e+003;9.204905e-002
1.213057e+003;9.125914e-002
1.214985e+003;8.961948e-002
1.216914e+003;8.718244e-002
1.218842e+003;8.462773e-002
1.220771e+003;8.313566e-002
1.222699e+003;8.350967e-002
1.224628e+003;8.536573e-002
1.226557e+003;8.808690e-002
1.228485e+003;9.142074e-002
1.230414e+003;9.506143e-002
1.232342e+003;9.880036e-002
1.234271e+003;1.017802e-001
1.236199e+003;1.031149e-001
1.238128e+003;1.031955e-001
1.240056e+003;1.031727e-001
1.241985e+003;1.032429e-001
1.243913e+003;1.029832e-001
1.245842e+003;1.029598e-001
1.247771e+003;1.038033e-001
1.249699e+003;1.056730e-001
1.251628e+003;1.081573e-001
1.253556e+003;1.108453e-001
1.255485e+003;1.135619e-001
1.257413e+003;1.159852e-001
1.259342e+003;1.178547e-001
1.261270e+003;1.191017e-001
1.263199e+003;1.186977e-001
1.265127e+003;1.153964e-001
1.267056e+003;1.103221e-001
1.268985e+003;1.053940e-001
1.270913e+003;1.017062e-001
1.272842e+003;9.938246e-002
1.274770e+003;9.808758e-002
1.276699e+003;9.776252e-002
1.278627e+003;9.729039e-002
1.280556e+003;9.602181e-002
1.282484e+003;9.475932e-002
1.284413e+003;9.354170e-002
1.286342e+003;9.233199e-002
1.288270e+003;9.138598e-002
1.290199e+003;9.103178e-002
1.292127e+003;9.078562e-002
1.294056e+003;9.001089e-002
1.295984e+003;8.945762e-002
1.297913e+003;8.917943e-002
1.299841e+003;8.881901e-002
1.301770e+003;8.827956e-002
1.303698e+003;8.776498e-002
1.305627e+003;8.725802e-002
1.307556e+003;8.631466e-002
1.309484e+003;8.537218e-002
1.311413e+003;8.462398e-002
1.313341e+003;8.388113e-002
1.315270e+003;8.320452e-002
1.317198e+003;8.244539e-002
1.319127e+003;8.140294e-002
1.321055e+003;8.064004e-002
1.322984e+003;8.045042e-002
1.324912e+003;8.029445e-002
1.326841e+003;8.028831e-002
1.328770e+003;8.050506e-002
1.330698e+003;8.086754e-002
1.332627e+003;8.097532e-002
1.334555e+003;8.104460e-002
1.336484e+003;8.123796e-002
1.338412e+003;8.158310e-002
1.340341e+003;8.211786e-002
1.342269e+003;8.298238e-002
1.344198e+003;8.371400e-002
1.346126e+003;8.420381e-002
1.348055e+003;8.502321e-002
1.349984e+003;8.614134e-002
1.351912e+003;8.722436e-002
1.353841e+003;8.829279e-002
1.355769e+003;8.961793e-002
1.357698e+003;9.101290e-002
1.359626e+003;9.253126e-002
1.361555e+003;9.393333e-002
1.363483e+003;9.535484e-002
1.365412e+003;9.699936e-002
1.367341e+003;9.833928e-002
1.369269e+003;9.952956e-002
1.371198e+003;1.001558e-001
1.373126e+003;9.975555e-002
1.375055e+003;9.838491e-002
1.376983e+003;9.648155e-002
1.378912e+003;9.415243e-002
1.380840e+003;9.173131e-002
1.382769e+003;8.933973e-002
1.384698e+003;8.674388e-002
1.386626e+003;8.393797e-002
1.388555e+003;8.202972e-002
1.390483e+003;8.094111e-002
1.392412e+003;7.993428e-002
1.394340e+003;7.903327e-002
1.396269e+003;7.870980e-002
1.398197e+003;7.918783e-002
1.400126e+003;8.073049e-002
1.402054e+003;8.295775e-002
1.403983e+003;8.557796e-002
1.405911e+003;8.889386e-002
1.407840e+003;9.304561e-002
1.409769e+003;9.810954e-002
1.411697e+003;1.033098e-001
1.413626e+003;1.075416e-001
1.415554e+003;1.101331e-001
1.417483e+003;1.102462e-001
1.419411e+003;1.084838e-001
1.421340e+003;1.062559e-001
1.423268e+003;1.037963e-001
1.425197e+003;1.020449e-001
1.427125e+003;1.016668e-001
1.429054e+003;1.025495e-001
1.430983e+003;1.045898e-001
1.432911e+003;1.066639e-001
1.434840e+003;1.073579e-001
1.436768e+003;1.069241e-001
1.438697e+003;1.068990e-001
1.440625e+003;1.065315e-001
1.442554e+003;1.060409e-001
1.444482e+003;1.057289e-001
1.446411e+003;1.055799e-001
1.448340e+003;1.062821e-001
1.450268e+003;1.078440e-001
1.452197e+003;1.096202e-001
1.454125e+003;1.110987e-001
1.456054e+003;1.123157e-001
1.457982e+003;1.161603e-001
1.459911e+003;1.217197e-001
1.461839e+003;1.251379e-001
1.463768e+003;1.240225e-001
1.465697e+003;1.192937e-001
1.467625e+003;1.137102e-001
1.469554e+003;1.090217e-001
1.471482e+003;1.064618e-001
1.473411e+003;1.066717e-001
1.475339e+003;1.076062e-001
1.477268e+003;1.070441e-001
1.479196e+003;1.047290e-001
1.481125e+003;1.004197e-001
1.483053e+003;9.524883e-002
1.484982e+003;9.071731e-002
1.486911e+003;8.821277e-002
1.488839e+003;8.753960e-002
1.490768e+003;8.860999e-002
1.492696e+003;9.068097e-002
1.494625e+003;9.271273e-002
1.496553e+003;9.521170e-002
1.498482e+003;9.894190e-002
1.500410e+003;1.031715e-001
1.502339e+003;1.074615e-001
1.504267e+003;1.107650e-001
1.506196e+003;1.141076e-001
1.508125e+003;1.199552e-001
1.510053e+003;1.263609e-001
1.511982e+003;1.321431e-001
1.513910e+003;1.379428e-001
1.515839e+003;1.438231e-001
1.517767e+003;1.501812e-001
1.519696e+003;1.564063e-001
1.521624e+003;1.630220e-001
1.523553e+003;1.707591e-001
1.525481e+003;1.783928e-001
1.527410e+003;1.858397e-001
1.529339e+003;1.928575e-001
1.531267e+003;1.991724e-001
1.533196e+003;2.045223e-001
1.535124e+003;2.088791e-001
1.537053e+003;2.105147e-001
1.538981e+003;2.088171e-001
1.540910e+003;2.065611e-001
1.542838e+003;2.032976e-001
1.544767e+003;1.980142e-001
1.546695e+003;1.912380e-001
1.548624e+003;1.832945e-001
1.550553e+003;1.750784e-001
1.552481e+003;1.670866e-001
1.554410e+003;1.591337e-001
1.556338e+003;1.515425e-001
1.558267e+003;1.436834e-001
1.560195e+003;1.377919e-001
1.562124e+003;1.332439e-001
1.564052e+003;1.275038e-001
1.565981e+003;1.213848e-001
1.567910e+003;1.152995e-001
1.569838e+003;1.091614e-001
1.571767e+003;1.041355e-001
1.573695e+003;9.919406e-002
1.575624e+003;9.394452e-002
1.577552e+003;9.064859e-002
1.579481e+003;8.848883e-002
1.581409e+003;8.613402e-002
1.583338e+003;8.440763e-002
1.585266e+003;8.342402e-002
1.587195e+003;8.293938e-002
1.589124e+003;8.311191e-002
1.591052e+003;8.403546e-002
1.592981e+003;8.574157e-002
1.594909e+003;8.783811e-002
1.596838e+003;9.038486e-002
1.598766e+003;9.393493e-002
1.600695e+003;9.798597e-002
1.602623e+003;1.027345e-001
1.604552e+003;1.082339e-001
1.606480e+003;1.140690e-001
1.608409e+003;1.206697e-001
1.610338e+003;1.279162e-001
1.612266e+003;1.354849e-001
1.614195e+003;1.436066e-001
1.616123e+003;1.526309e-001
1.618052e+003;1.643100e-001
1.619980e+003;1.771416e-001
1.621909e+003;1.892711e-001
1.623837e+003;2.011663e-001
1.625766e+003;2.135605e-001
1.627694e+003;2.257600e-001
1.629623e+003;2.375493e-001
1.631552e+003;2.482062e-001
1.633480e+003;2.559076e-001
1.635409e+003;2.595899e-001
1.637337e+003;2.589433e-001
1.639266e+003;2.525341e-001
1.641194e+003;2.412393e-001
1.643123e+003;2.270182e-001
1.645051e+003;2.111977e-001
1.646980e+003;1.962816e-001
1.648909e+003;1.831820e-001
1.650837e+003;1.696495e-001
1.652766e+003;1.567560e-001
1.654694e+003;1.487741e-001
1.656623e+003;1.426929e-001
1.658551e+003;1.356333e-001
1.660480e+003;1.281943e-001
1.662408e+003;1.207665e-001
1.664337e+003;1.139683e-001
1.666266e+003;1.070868e-001
1.668194e+003;9.980320e-002
1.670123e+003;9.350245e-002
1.672051e+003;8.833174e-002
1.673980e+003;8.262967e-002
1.675908e+003;7.706068e-002
1.677837e+003;7.242408e-002
1.679765e+003;6.703744e-002
1.681694e+003;6.103165e-002
1.683622e+003;5.466057e-002
1.685551e+003;5.041231e-002
1.687479e+003;4.788704e-002
1.689408e+003;4.505562e-002
1.691337e+003;4.274653e-002
1.693265e+003;4.046424e-002
1.695194e+003;3.800326e-002
1.697122e+003;3.688773e-002
1.699051e+003;3.558319e-002
1.700979e+003;3.508337e-002
1.702908e+003;3.589215e-002
1.704836e+003;3.577268e-002
1.706765e+003;3.585966e-002
1.708693e+003;3.607141e-002
1.710622e+003;3.660084e-002
1.712551e+003;3.681217e-002
1.714479e+003;3.649563e-002
1.716408e+003;3.594473e-002
1.718336e+003;3.615513e-002
1.720265e+003;3.713691e-002
1.722193e+003;3.756861e-002
1.724122e+003;3.747486e-002
1.726050e+003;3.777520e-002
1.727979e+003;3.788571e-002
1.729908e+003;3.746685e-002
1.731836e+003;3.627744e-002
1.733765e+003;3.508966e-002
1.735693e+003;3.549480e-002
1.737622e+003;3.562502e-002
1.739550e+003;3.505913e-002
1.741479e+003;3.472194e-002
1.743407e+003;3.393873e-002
1.745336e+003;3.306614e-002
1.747265e+003;3.221514e-002
1.749193e+003;3.128820e-002
1.751122e+003;3.033190e-002
1.753050e+003;2.986687e-002
1.754979e+003;2.909038e-002
1.756907e+003;2.841633e-002
1.758836e+003;2.802766e-002
1.760764e+003;2.729499e-002
1.762693e+003;2.667335e-002
1.764621e+003;2.645799e-002
1.766550e+003;2.595133e-002
1.768479e+003;2.542765e-002
1.770407e+003;2.483962e-002
1.772336e+003;2.409055e-002
1.774264e+003;2.418082e-002
1.776193e+003;2.429875e-002
1.778121e+003;2.400959e-002
1.780050e+003;2.369111e-002
1.781978e+003;2.333889e-002
1.783907e+003;2.286222e-002
1.785835e+003;2.266630e-002
1.787764e+003;2.276594e-002
1.789693e+003;2.240989e-002
1.791621e+003;2.155286e-002
1.793550e+003;2.137817e-002
1.795478e+003;2.154447e-002
1.797407e+003;2.118153e-002
1.799335e+003;2.085174e-002
1.801264e+003;2.066471e-002
1.803192e+003;2.077982e-002
1.805121e+003;2.105268e-002
1.807049e+003;2.117492e-002
1.808978e+003;2.075858e-002
1.810907e+003;2.042953e-002
1.812835e+003;2.047131e-002
1.814764e+003;2.044068e-002
1.816692e+003;2.021505e-002
1.818621e+003;2.011329e-002
1.820549e+003;2.010208e-002
1.822478e+003;2.002418e-002
1.824406e+003;1.975688e-002
1.826335e+003;1.956568e-002
1.828264e+003;1.951387e-002
1.830192e+003;1.957272e-002
1.832121e+003;1.973171e-002
1.834049e+003;1.971035e-002
1.835978e+003;1.948427e-002
1.837906e+003;1.935212e-002
1.839835e+003;1.933806e-002
1.841763e+003;1.912069e-002
1.843692e+003;1.883402e-002
1.845620e+003;1.905120e-002
1.847549e+003;1.892130e-002
1.849478e+003;1.868875e-002
1.851406e+003;1.877700e-002
1.853335e+003;1.875198e-002
1.855263e+003;1.858741e-002
1.857192e+003;1.858219e-002
1.859120e+003;1.858433e-002
1.861049e+003;1.850372e-002
1.862977e+003;1.848350e-002
1.864906e+003;1.842244e-002
1.866834e+003;1.810894e-002
1.868763e+003;1.779311e-002
1.870692e+003;1.784406e-002
1.872620e+003;1.804231e-002
1.874549e+003;1.818698e-002
1.876477e+003;1.842780e-002
1.878406e+003;1.843029e-002
1.880334e+003;1.825899e-002
1.882263e+003;1.816145e-002
1.884191e+003;1.808251e-002
1.886120e+003;1.809968e-002
1.888048e+003;1.824935e-002
1.889977e+003;1.842531e-002
1.891906e+003;1.855417e-002
1.893834e+003;1.829683e-002
1.895763e+003;1.810687e-002
1.897691e+003;1.822351e-002
1.899620e+003;1.838656e-002
1.901548e+003;1.845688e-002
1.903477e+003;1.844647e-002
1.905405e+003;1.827071e-002
1.907334e+003;1.818197e-002
1.909262e+003;1.817976e-002
1.911191e+003;1.793021e-002
1.913120e+003;1.780281e-002
1.915048e+003;1.766326e-002
1.916977e+003;1.738183e-002
1.918905e+003;1.754257e-002
1.920834e+003;1.789585e-002
1.922762e+003;1.805588e-002
1.924691e+003;1.793155e-002
1.926619e+003;1.774195e-002
1.928548e+003;1.786201e-002
1.930477e+003;1.792171e-002
1.932405e+003;1.774319e-002
1.934334e+003;1.782328e-002
1.936262e+003;1.789854e-002
1.938191e+003;1.773418e-002
1.940119e+003;1.760477e-002
1.942048e+003;1.741766e-002
1.943976e+003;1.744729e-002
1.945905e+003;1.775748e-002
1.947833e+003;1.787448e-002
1.949762e+003;1.772521e-002
1.951691e+003;1.772055e-002
1.953619e+003;1.788546e-002
1.955548e+003;1.788004e-002
1.957476e+003;1.778099e-002
1.959405e+003;1.779162e-002
1.961333e+003;1.817596e-002
1.963262e+003;1.827320e-002
1.965190e+003;1.804462e-002
1.967119e+003;1.809174e-002
1.969047e+003;1.815997e-002
1.970976e+003;1.817582e-002
1.972905e+003;1.821815e-002
1.974833e+003;1.814566e-002
1.976762e+003;1.815029e-002
1.978690e+003;1.818384e-002
1.980619e+003;1.821397e-002
1.982547e+003;1.839168e-002
1.984476e+003;1.836406e-002
1.986404e+003;1.817676e-002
1.988333e+003;1.815188e-002
1.990261e+003;1.825737e-002
1.992190e+003;1.815039e-002
1.994119e+003;1.797127e-002
1.996047e+003;1.799889e-002
1.997976e+003;1.811982e-002
1.999904e+003;1.815385e-002
2.001833e+003;1.822890e-002
2.003761e+003;1.836247e-002
2.005690e+003;1.849525e-002
2.007618e+003;1.853045e-002
2.009547e+003;1.851022e-002
2.011476e+003;1.839970e-002
2.013404e+003;1.856790e-002
2.015333e+003;1.883955e-002
2.017261e+003;1.891597e-002
2.019190e+003;1.885395e-002
2.021118e+003;1.882063e-002
2.023047e+003;1.886284e-002
2.024975e+003;1.887997e-002
2.026904e+003;1.899260e-002
2.028833e+003;1.929212e-002
2.030761e+003;1.933196e-002
2.032690e+003;1.920062e-002
2.034618e+003;1.927099e-002
2.036547e+003;1.935881e-002
2.038475e+003;1.951914e-002
2.040404e+003;1.970241e-002
2.042332e+003;1.975598e-002
2.044261e+003;1.976968e-002
2.046189e+003;1.960298e-002
2.048118e+003;1.948940e-002
2.050047e+003;1.957369e-002
2.051975e+003;1.970383e-002
2.053904e+003;1.992582e-002
2.055832e+003;2.012551e-002
2.057761e+003;2.019117e-002
2.059689e+003;1.999639e-002
2.061618e+003;1.978923e-002
2.063546e+003;1.977907e-002
2.065475e+003;1.999129e-002
2.067404e+003;2.011582e-002
2.069332e+003;2.013592e-002
2.071260e+003;2.004274e-002
2.073189e+003;2.000169e-002
2.075118e+003;2.005173e-002
2.077046e+003;2.004035e-002
2.078975e+003;1.981053e-002
2.080903e+003;1.957574e-002
2.082832e+003;1.971753e-002
2.084760e+003;1.986612e-002
2.086689e+003;1.965009e-002
2.088617e+003;1.937672e-002
2.090546e+003;1.936089e-002
2.092475e+003;1.954981e-002
2.094403e+003;1.955958e-002
2.096332e+003;1.955795e-002
2.098260e+003;1.963900e-002
2.100189e+003;1.965158e-002
2.102117e+003;1.967776e-002
2.104046e+003;1.970841e-002
2.105974e+003;1.974859e-002
2.107903e+003;1.972904e-002
2.109832e+003;1.977977e-002
2.111760e+003;2.005843e-002
2.113688e+003;2.019631e-002
2.115617e+003;2.009254e-002
2.117546e+003;1.995236e-002
2.119474e+003;2.002026e-002
2.121403e+003;2.014636e-002
2.123331e+003;2.025161e-002
2.125260e+003;2.042338e-002
2.127188e+003;2.059289e-002
2.129117e+003;2.068654e-002
2.131045e+003;2.075757e-002
2.132974e+003;2.075257e-002
2.134903e+003;2.065849e-002
2.136831e+003;2.056451e-002
2.138760e+003;2.056326e-002
2.140688e+003;2.065763e-002
2.142617e+003;2.071191e-002
2.144545e+003;2.083255e-002
2.146474e+003;2.091957e-002
2.148402e+003;2.093539e-002
2.150331e+003;2.092426e-002
2.152260e+003;2.081878e-002
2.154188e+003;2.066204e-002
2.156117e+003;2.066784e-002
2.158045e+003;2.104427e-002
2.159974e+003;2.133032e-002
2.161902e+003;2.126134e-002
2.163831e+003;2.122244e-002
2.165759e+003;2.126023e-002
2.167688e+003;2.121138e-002
2.169616e+003;2.131988e-002
2.171545e+003;2.126260e-002
2.173474e+003;2.118869e-002
2.175402e+003;2.111891e-002
2.177331e+003;2.105835e-002
2.179259e+003;2.126782e-002
2.181188e+003;2.140177e-002
2.183116e+003;2.146704e-002
2.185045e+003;2.154492e-002
2.186973e+003;2.156080e-002
2.188902e+003;2.166580e-002
2.190831e+003;2.201635e-002
2.192759e+003;2.217582e-002
2.194688e+003;2.205107e-002
2.196616e+003;2.182465e-002
2.198545e+003;2.169199e-002
2.200473e+003;2.166266e-002
2.202402e+003;2.171790e-002
2.204330e+003;2.169530e-002
2.206259e+003;2.156306e-002
2.208188e+003;2.142673e-002
2.210116e+003;2.136115e-002
2.212044e+003;2.148218e-002
2.213973e+003;2.145855e-002
2.215902e+003;2.115589e-002
2.217830e+003;2.096154e-002
2.219759e+003;2.097663e-002
2.221687e+003;2.111954e-002
2.223616e+003;2.112851e-002
2.225544e+003;2.094408e-002
2.227473e+003;2.086620e-002
2.229401e+003;2.075938e-002
2.231330e+003;2.065012e-002
2.233259e+003;2.059654e-002
2.235187e+003;2.037785e-002
2.237116e+003;2.045134e-002
2.239044e+003;2.060898e-002
2.240973e+003;2.041932e-002
2.242901e+003;2.052675e-002
2.244830e+003;2.079143e-002
2.246758e+003;2.062997e-002
2.248687e+003;2.057938e-002
2.250615e+003;2.083832e-002
2.252544e+003;2.095900e-002
2.254473e+003;2.119503e-002
2.256401e+003;2.141124e-002
2.258330e+003;2.133585e-002
2.260258e+003;2.100128e-002
2.262187e+003;2.097388e-002
2.264115e+003;2.124172e-002
2.266044e+003;2.141931e-002
2.267972e+003;2.141705e-002
2.269901e+003;2.149956e-002
2.271830e+003;2.164497e-002
2.273758e+003;2.172146e-002
2.275687e+003;2.164487e-002
2.277615e+003;2.161206e-002
2.279544e+003;2.166879e-002
2.281472e+003;2.170784e-002
2.283401e+003;2.154478e-002
2.285329e+003;2.154987e-002
2.287258e+003;2.189116e-002
2.289187e+003;2.200203e-002
2.291115e+003;2.167221e-002
2.293043e+003;2.163344e-002
2.294972e+003;2.180994e-002
2.296901e+003;2.188266e-002
2.298829e+003;2.185283e-002
2.300758e+003;2.206592e-002
2.302686e+003;2.233726e-002
2.304615e+003;2.234717e-002
2.306543e+003;2.240850e-002
2.308472e+003;2.251384e-002
2.310400e+003;2.246481e-002
2.312329e+003;2.247409e-002
2.314258e+003;2.244482e-002
2.316186e+003;2.221484e-002
2.318115e+003;2.199551e-002
2.320043e+003;2.225648e-002
2.321972e+003;2.246258e-002
2.323900e+003;2.207847e-002
2.325829e+003;2.179273e-002
2.327757e+003;2.194441e-002
2.329686e+003;2.198348e-002
2.331615e+003;2.223831e-002
2.333543e+003;2.255896e-002
2.335472e+003;2.243896e-002
2.337400e+003;2.230238e-002
2.339329e+003;2.224773e-002
2.341257e+003;2.221216e-002
2.343186e+003;2.210215e-002
2.345114e+003;2.203950e-002
2.347043e+003;2.212467e-002
2.348971e+003;2.217020e-002
2.350900e+003;2.222202e-002
2.352829e+003;2.224368e-002
2.354757e+003;2.205125e-002
2.356686e+003;2.183026e-002
2.358614e+003;2.198101e-002
2.360543e+003;2.224113e-002
2.362471e+003;2.233287e-002
2.364400e+003;2.221470e-002
2.366328e+003;2.235237e-002
2.368257e+003;2.248289e-002
2.370186e+003;2.245127e-002
2.372114e+003;2.263662e-002
2.374042e+003;2.278556e-002
2.375971e+003;2.282048e-002
2.377900e+003;2.290612e-002
2.379828e+003;2.284985e-002
2.381757e+003;2.292233e-002
2.383685e+003;2.311885e-002
2.385614e+003;2.306518e-002
2.387542e+003;2.291503e-002
2.389471e+003;2.297409e-002
2.391399e+003;2.302800e-002
2.393328e+003;2.314719e-002
2.395257e+003;2.334609e-002
2.397185e+003;2.348062e-002
2.399114e+003;2.343981e-002
2.401042e+003;2.332193e-002
2.402971e+003;2.326390e-002
2.404899e+003;2.329323e-002
2.406828e+003;2.320731e-002
2.408756e+003;2.300292e-002
2.410685e+003;2.303523e-002
2.412614e+003;2.302874e-002
2.414542e+003;2.299310e-002
2.416471e+003;2.325180e-002
2.418399e+003;2.346887e-002
2.420328e+003;2.332532e-002
2.422256e+003;2.332648e-002
2.424185e+003;2.370710e-002
2.426113e+003;2.386236e-002
2.428042e+003;2.351423e-002
2.429970e+003;2.337260e-002
2.431899e+003;2.363586e-002
2.433828e+003;2.378196e-002
2.435756e+003;2.394267e-002
2.437685e+003;2.402240e-002
2.439613e+003;2.409111e-002
2.441542e+003;2.447788e-002
2.443470e+003;2.463482e-002
2.445399e+003;2.458786e-002
2.447327e+003;2.475890e-002
2.449256e+003;2.501171e-002
2.451185e+003;2.504474e-002
2.453113e+003;2.488390e-002
2.455042e+003;2.477216e-002
2.456970e+003;2.488913e-002
2.458899e+003;2.520360e-002
2.460827e+003;2.557572e-002
2.462756e+003;2.552340e-002
2.464684e+003;2.544244e-002
2.466613e+003;2.565846e-002
2.468542e+003;2.573088e-002
2.470470e+003;2.577314e-002
2.472398e+003;2.576990e-002
2.474327e+003;2.590880e-002
2.476256e+003;2.620459e-002
2.478184e+003;2.623426e-002
2.480113e+003;2.604539e-002
2.482041e+003;2.601778e-002
2.483970e+003;2.610749e-002
2.485898e+003;2.618565e-002
2.487827e+003;2.622461e-002
2.489755e+003;2.634292e-002
2.491684e+003;2.613248e-002
2.493613e+003;2.590082e-002
2.495541e+003;2.603667e-002
2.497470e+003;2.609240e-002
2.499398e+003;2.598496e-002
2.501327e+003;2.602038e-002
2.503255e+003;2.606883e-002
2.505184e+003;2.614585e-002
2.507112e+003;2.634366e-002
2.509041e+003;2.660219e-002
2.510969e+003;2.667723e-002
2.512898e+003;2.664013e-002
2.514827e+003;2.681054e-002
2.516755e+003;2.670640e-002
2.518684e+003;2.667099e-002
2.520612e+003;2.704522e-002
2.522541e+003;2.731365e-002
2.524469e+003;2.717621e-002
2.526398e+003;2.738045e-002
2.528326e+003;2.780594e-002
2.530255e+003;2.810931e-002
2.532184e+003;2.832698e-002
2.534112e+003;2.836196e-002
2.536041e+003;2.827814e-002
2.537969e+003;2.846642e-002
2.539898e+003;2.862229e-002
2.541826e+003;2.869627e-002
2.543755e+003;2.890714e-002
2.545683e+003;2.905963e-002
2.547612e+003;2.905665e-002
2.549541e+003;2.905378e-002
2.551469e+003;2.904032e-002
2.553397e+003;2.911536e-002
2.555326e+003;2.919275e-002
2.557255e+003;2.902282e-002
2.559183e+003;2.898740e-002
2.561112e+003;2.909835e-002
2.563040e+003;2.917110e-002
2.564969e+003;2.926359e-002
2.566897e+003;2.940564e-002
2.568826e+003;2.944081e-002
2.570754e+003;2.938433e-002
2.572683e+003;2.953738e-002
2.574612e+003;2.979018e-002
2.576540e+003;2.974937e-002
2.578469e+003;2.957270e-002
2.580397e+003;2.975157e-002
2.582326e+003;3.019058e-002
2.584254e+003;3.045592e-002
2.586183e+003;3.064750e-002
2.588111e+003;3.079366e-002
2.590040e+003;3.061318e-002
2.591969e+003;3.044302e-002
2.593897e+003;3.071865e-002
2.595826e+003;3.108595e-002
2.597754e+003;3.112205e-002
2.599683e+003;3.100018e-002
2.601611e+003;3.118577e-002
2.603540e+003;3.150447e-002
2.605468e+003;3.149329e-002
2.607397e+003;3.127086e-002
2.609325e+003;3.125124e-002
2.611254e+003;3.131114e-002
2.613183e+003;3.145545e-002
2.615111e+003;3.145357e-002
2.617040e+003;3.130401e-002
2.618968e+003;3.134881e-002
2.620897e+003;3.154345e-002
2.622825e+003;3.149076e-002
2.624754e+003;3.143223e-002
2.626682e+003;3.161828e-002
2.628611e+003;3.183768e-002
2.630540e+003;3.208205e-002
2.632468e+003;3.239892e-002
2.634396e+003;3.237097e-002
2.636325e+003;3.207082e-002
2.638254e+003;3.221835e-002
2.640182e+003;3.269776e-002
2.642111e+003;3.268841e-002
2.644039e+003;3.247365e-002
2.645968e+003;3.252578e-002
2.647896e+003;3.271852e-002
2.649825e+003;3.283676e-002
2.651753e+003;3.283836e-002
2.653682e+003;3.264364e-002
2.655611e+003;3.253675e-002
2.657539e+003;3.270980e-002
2.659468e+003;3.311949e-002
2.661396e+003;3.344921e-002
2.663325e+003;3.343475e-002
2.665253e+003;3.332312e-002
2.667182e+003;3.335277e-002
2.669110e+003;3.353536e-002
2.671039e+003;3.373524e-002
2.672968e+003;3.361780e-002
2.674896e+003;3.365249e-002
2.676825e+003;3.397911e-002
2.678753e+003;3.419809e-002
2.680682e+003;3.413948e-002
2.682610e+003;3.419898e-002
2.684539e+003;3.420049e-002
2.686467e+003;3.433871e-002
2.688396e+003;3.484926e-002
2.690324e+003;3.537102e-002
2.692253e+003;3.570113e-002
2.694182e+003;3.569929e-002
2.696110e+003;3.545266e-002
2.698039e+003;3.545137e-002
2.699967e+003;3.585282e-002
2.701896e+003;3.610767e-002
2.703824e+003;3.620551e-002
2.705753e+003;3.651037e-002
2.707681e+003;3.662175e-002
2.709610e+003;3.668264e-002
2.711539e+003;3.704023e-002
2.713467e+003;3.718517e-002
2.715396e+003;3.734576e-002
2.717324e+003;3.765915e-002
2.719253e+003;3.808095e-002
2.721181e+003;3.839850e-002
2.723110e+003;3.851673e-002
2.725038e+003;3.867375e-002
2.726967e+003;3.917954e-002
2.728896e+003;3.966543e-002
2.730824e+003;3.998687e-002
2.732752e+003;4.026789e-002
2.734681e+003;4.041722e-002
2.736610e+003;4.054630e-002
2.738538e+003;4.060614e-002
2.740467e+003;4.074358e-002
2.742395e+003;4.114212e-002
2.744324e+003;4.133468e-002
2.746252e+003;4.146932e-002
2.748181e+003;4.143888e-002
2.750109e+003;4.133862e-002
2.752038e+003;4.125801e-002
2.753967e+003;4.126763e-002
2.755895e+003;4.143425e-002
2.757824e+003;4.173117e-002
2.759752e+003;4.180646e-002
2.761681e+003;4.182993e-002
2.763609e+003;4.190217e-002
2.765538e+003;4.225583e-002
2.767466e+003;4.240562e-002
2.769395e+003;4.241790e-002
2.771323e+003;4.269283e-002
2.773252e+003;4.288194e-002
2.775181e+003;4.304336e-002
2.777109e+003;4.346757e-002
2.779038e+003;4.400192e-002
2.780966e+003;4.419293e-002
2.782895e+003;4.398949e-002
2.784823e+003;4.416538e-002
2.786752e+003;4.450789e-002
2.788680e+003;4.464087e-002
2.790609e+003;4.493897e-002
2.792538e+003;4.524227e-002
2.794466e+003;4.553713e-002
2.796395e+003;4.594396e-002
2.798323e+003;4.626418e-002
2.800252e+003;4.661245e-002
2.802180e+003;4.697905e-002
2.804109e+003;4.740310e-002
2.806037e+003;4.802517e-002
2.807966e+003;4.847194e-002
2.809895e+003;4.867144e-002
2.811823e+003;4.917209e-002
2.813751e+003;5.007668e-002
2.815680e+003;5.068126e-002
2.817609e+003;5.102757e-002
2.819537e+003;5.160777e-002
2.821466e+003;5.213127e-002
2.823394e+003;5.233217e-002
2.825323e+003;5.270636e-002
2.827251e+003;5.323262e-002
2.829180e+003;5.379499e-002
2.831108e+003;5.457336e-002
2.833037e+003;5.545189e-002
2.834966e+003;5.673071e-002
2.836894e+003;5.831428e-002
2.838823e+003;6.030795e-002
2.840751e+003;6.306810e-002
2.842680e+003;6.646697e-002
2.844608e+003;7.027974e-002
2.846537e+003;7.436253e-002
2.848465e+003;7.849252e-002
2.850394e+003;8.230672e-002
2.852323e+003;8.554846e-002
2.854251e+003;8.786334e-002
2.856180e+003;8.962274e-002
2.858108e+003;9.079690e-002
2.860037e+003;9.144479e-002
2.861965e+003;9.129427e-002
2.863894e+003;9.035064e-002
2.865822e+003;8.937534e-002
2.867751e+003;8.829596e-002
2.869679e+003;8.649635e-002
2.871608e+003;8.414540e-002
2.873536e+003;8.188330e-002
2.875465e+003;7.939771e-002
2.877394e+003;7.677771e-002
2.879322e+003;7.518258e-002
2.881251e+003;7.429124e-002
2.883179e+003;7.333563e-002
2.885108e+003;7.279550e-002
2.887036e+003;7.310326e-002
2.888965e+003;7.379740e-002
2.890893e+003;7.500903e-002
2.892822e+003;7.677581e-002
2.894750e+003;7.828107e-002
2.896679e+003;7.962089e-002
2.898608e+003;8.095840e-002
2.900536e+003;8.228417e-002
2.902465e+003;8.322065e-002
2.904393e+003;8.402260e-002
2.906322e+003;8.514122e-002
2.908250e+003;8.686435e-002
2.910179e+003;8.890630e-002
2.912107e+003;9.104506e-002
2.914036e+003;9.349567e-002
2.915965e+003;9.610572e-002
2.917893e+003;9.894872e-002
2.919822e+003;1.020805e-001
2.921750e+003;1.047176e-001
2.923679e+003;1.069800e-001
2.925607e+003;1.091110e-001
2.927536e+003;1.108469e-001
2.929464e+003;1.120986e-001
2.931393e+003;1.129068e-001
2.933322e+003;1.134086e-001
2.935250e+003;1.130262e-001
2.937178e+003;1.116325e-001
2.939107e+003;1.097208e-001
2.941036e+003;1.074171e-001
2.942964e+003;1.045041e-001
2.944893e+003;1.009781e-001
2.946821e+003;9.697069e-002
2.948750e+003;9.253946e-002
2.950678e+003;8.743998e-002
2.952607e+003;8.235710e-002
2.954535e+003;7.788220e-002
2.956464e+003;7.378861e-002
2.958393e+003;7.008217e-002
2.960321e+003;6.701946e-002
2.962250e+003;6.459262e-002
2.964178e+003;6.207984e-002
2.966107e+003;5.949721e-002
2.968035e+003;5.716904e-002
2.969964e+003;5.536930e-002
2.971892e+003;5.389097e-002
2.973821e+003;5.246510e-002
2.975750e+003;5.094515e-002
2.977678e+003;4.946737e-002
2.979607e+003;4.810104e-002
2.981535e+003;4.719619e-002
2.983464e+003;4.666628e-002
2.985392e+003;4.590331e-002
2.987321e+003;4.486732e-002
2.989249e+003;4.421593e-002
2.991178e+003;4.388904e-002
2.993106e+003;4.354046e-002
2.995035e+003;4.332997e-002
2.996964e+003;4.340557e-002
2.998892e+003;4.328710e-002
3.000821e+003;4.294891e-002
3.002749e+003;4.281626e-002
3.004678e+003;4.291014e-002
3.006606e+003;4.305796e-002
3.008535e+003;4.320822e-002
3.010463e+003;4.324412e-002
3.012392e+003;4.333648e-002
3.014321e+003;4.337602e-002
3.016249e+003;4.339349e-002
3.018177e+003;4.357536e-002
3.020106e+003;4.382416e-002
3.022035e+003;4.417521e-002
3.023963e+003;4.457258e-002
3.025892e+003;4.471814e-002
3.027820e+003;4.481431e-002
3.029749e+003;4.528621e-002
3.031677e+003;4.570577e-002
3.033606e+003;4.613450e-002
3.035534e+003;4.663588e-002
3.037463e+003;4.747435e-002
3.039392e+003;4.844934e-002
3.041320e+003;4.869765e-002
3.043249e+003;4.893979e-002
3.045177e+003;4.966109e-002
3.047106e+003;5.032316e-002
3.049034e+003;5.061055e-002
3.050963e+003;5.098494e-002
3.052891e+003;5.190415e-002
3.054820e+003;5.273535e-002
3.056749e+003;5.302393e-002
3.058677e+003;5.307073e-002
3.060606e+003;5.334590e-002
3.062534e+003;5.376300e-002
3.064463e+003;5.396308e-002
3.066391e+003;5.436283e-002
3.068320e+003;5.481132e-002
3.070248e+003;5.472494e-002
3.072177e+003;5.445236e-002
3.074105e+003;5.446295e-002
3.076034e+003;5.455536e-002
3.077963e+003;5.445056e-002
3.079891e+003;5.440579e-002
3.081820e+003;5.435216e-002
3.083748e+003;5.412391e-002
3.085677e+003;5.397820e-002
3.087605e+003;5.381018e-002
3.089534e+003;5.322243e-002
3.091462e+003;5.290804e-002
3.093391e+003;5.272092e-002
3.095320e+003;5.229733e-002
3.097248e+003;5.190508e-002
3.099177e+003;5.122561e-002
3.101105e+003;5.041384e-002
3.103034e+003;4.997979e-002
3.104962e+003;4.989228e-002
3.106891e+003;4.929700e-002
3.108819e+003;4.863090e-002
3.110748e+003;4.845186e-002
3.112677e+003;4.811011e-002
3.114605e+003;4.781901e-002
3.116533e+003;4.751841e-002
3.118462e+003;4.698504e-002
3.120391e+003;4.680262e-002
3.122319e+003;4.666226e-002
3.124248e+003;4.634071e-002
3.126176e+003;4.603395e-002
3.128105e+003;4.605635e-002
3.130033e+003;4.614684e-002
3.131962e+003;4.594043e-002
3.133890e+003;4.580079e-002
3.135819e+003;4.601263e-002
3.137748e+003;4.628862e-002
3.139676e+003;4.662083e-002
3.141605e+003;4.659165e-002
3.143533e+003;4.628155e-002
3.145462e+003;4.627465e-002
3.147390e+003;4.654005e-002
3.149319e+003;4.692719e-002
3.151247e+003;4.724381e-002
3.153176e+003;4.728352e-002
3.155104e+003;4.742239e-002
3.157033e+003;4.751896e-002
3.158962e+003;4.773860e-002
3.160890e+003;4.843460e-002
3.162819e+003;4.908278e-002
3.164747e+003;4.922437e-002
3.166676e+003;4.920656e-002
3.168604e+003;4.957321e-002
3.170533e+003;5.042061e-002
3.172461e+003;5.113036e-002
3.174390e+003;5.161415e-002
3.176319e+003;5.182133e-002
3.178247e+003;5.216561e-002
3.180176e+003;5.267083e-002
3.182104e+003;5.307178e-002
3.184033e+003;5.355485e-002
3.185961e+003;5.413442e-002
3.187890e+003;5.439741e-002
3.189818e+003;5.471562e-002
3.191747e+003;5.519691e-002
3.193676e+003;5.546194e-002
3.195604e+003;5.572763e-002
3.197532e+003;5.591851e-002
3.199461e+003;5.631282e-002
3.201390e+003;5.648902e-002
3.203318e+003;5.638725e-002
3.205247e+003;5.703609e-002
3.207175e+003;5.752956e-002
3.209104e+003;5.759236e-002
3.211032e+003;5.784285e-002
3.212961e+003;5.814988e-002
3.214889e+003;5.854297e-002
3.216818e+003;5.909525e-002
3.218747e+003;5.946951e-002
3.220675e+003;5.993027e-002
3.222604e+003;6.052379e-002
3.224532e+003;6.116377e-002
3.226461e+003;6.170890e-002
3.228389e+003;6.204043e-002
3.230318e+003;6.277985e-002
3.232246e+003;6.393133e-002
3.234175e+003;6.504754e-002
3.236104e+003;6.634150e-002
3.238032e+003;6.759410e-002
3.239961e+003;6.875262e-002
3.241889e+003;7.003031e-002
3.243818e+003;7.121791e-002
3.245746e+003;7.249345e-002
3.247675e+003;7.387053e-002
3.249603e+003;7.526394e-002
3.251532e+003;7.689228e-002
3.253460e+003;7.851920e-002
3.255389e+003;7.999240e-002
3.257318e+003;8.157174e-002
3.259246e+003;8.308619e-002
3.261175e+003;8.469936e-002
3.263103e+003;8.638233e-002
3.265032e+003;8.802489e-002
3.266960e+003;8.992533e-002
3.268889e+003;9.169824e-002
3.270817e+003;9.344838e-002
3.272746e+003;9.491166e-002
3.274675e+003;9.655409e-002
3.276603e+003;9.869729e-002
3.278531e+003;1.004942e-001
3.280460e+003;1.020686e-001
3.282389e+003;1.035159e-001
3.284317e+003;1.050680e-001
3.286246e+003;1.067603e-001
3.288174e+003;1.083558e-001
3.290103e+003;1.094674e-001
3.292031e+003;1.097945e-001
3.293960e+003;1.100996e-001
3.295888e+003;1.097720e-001
3.297817e+003;1.089388e-001
3.299746e+003;1.076664e-001
3.301674e+003;1.058696e-001
3.303603e+003;1.035228e-001
3.305531e+003;1.009089e-001
3.307460e+003;9.898589e-002
3.309388e+003;9.686818e-002
3.311317e+003;9.402737e-002
3.313245e+003;9.146459e-002
3.315174e+003;8.933032e-002
3.317103e+003;8.688345e-002
3.319031e+003;8.426173e-002
3.320960e+003;8.190666e-002
3.322888e+003;7.973617e-002
3.324817e+003;7.753405e-002
3.326745e+003;7.562381e-002
3.328674e+003;7.378613e-002
3.330602e+003;7.186526e-002
3.332531e+003;6.998511e-002
3.334459e+003;6.814283e-002
3.336388e+003;6.650254e-002
3.338317e+003;6.519959e-002
3.340245e+003;6.375409e-002
3.342174e+003;6.176134e-002
3.344102e+003;5.989771e-002
3.346031e+003;5.843420e-002
3.347959e+003;5.742015e-002
3.349888e+003;5.625160e-002
3.351816e+003;5.507732e-002
3.353745e+003;5.413926e-002
3.355674e+003;5.299825e-002
3.357602e+003;5.198683e-002
3.359531e+003;5.099061e-002
3.361459e+003;5.031554e-002
3.363388e+003;4.999838e-002
3.365316e+003;4.929549e-002
3.367245e+003;4.830019e-002
3.369173e+003;4.736792e-002
3.371102e+003;4.689020e-002
3.373031e+003;4.650239e-002
3.374959e+003;4.590014e-002
3.376887e+003;4.518075e-002
3.378816e+003;4.472956e-002
3.380745e+003;4.454321e-002
3.382673e+003;4.418977e-002
3.384602e+003;4.364178e-002
3.386530e+003;4.326407e-002
3.388459e+003;4.306027e-002
3.390387e+003;4.279030e-002
3.392316e+003;4.240902e-002
3.394244e+003;4.183795e-002
3.396173e+003;4.153097e-002
3.398102e+003;4.172720e-002
3.400030e+003;4.149291e-002
3.401959e+003;4.107135e-002
3.403887e+003;4.091171e-002
3.405816e+003;4.047490e-002
3.407744e+003;4.000492e-002
3.409673e+003;3.995522e-002
3.411601e+003;4.001669e-002
3.413530e+003;3.997659e-002
3.415458e+003;3.968358e-002
3.417387e+003;3.951850e-002
3.419316e+003;3.923002e-002
3.421244e+003;3.920365e-002
3.423173e+003;3.905590e-002
3.425101e+003;3.880674e-002
3.427030e+003;3.907841e-002
3.428958e+003;3.929871e-002
3.430887e+003;3.903107e-002
3.432815e+003;3.881721e-002
3.434744e+003;3.846022e-002
3.436673e+003;3.854842e-002
3.438601e+003;3.869879e-002
3.440530e+003;3.857999e-002
3.442458e+003;3.861505e-002
3.444387e+003;3.824346e-002
3.446315e+003;3.779114e-002
3.448244e+003;3.769883e-002
3.450172e+003;3.772366e-002
3.452101e+003;3.770215e-002
3.454030e+003;3.743037e-002
3.455958e+003;3.725044e-002
3.457886e+003;3.710183e-002
3.459815e+003;3.702295e-002
3.461744e+003;3.661321e-002
3.463672e+003;3.624963e-002
3.465601e+003;3.637431e-002
3.467529e+003;3.671149e-002
3.469458e+003;3.655283e-002
3.471386e+003;3.627344e-002
3.473315e+003;3.627398e-002
3.475243e+003;3.610324e-002
3.477172e+003;3.606173e-002
3.479101e+003;3.620818e-002
3.481029e+003;3.607922e-002
3.482958e+003;3.590435e-002
3.484886e+003;3.565555e-002
3.486815e+003;3.571375e-002
3.488743e+003;3.612978e-002
3.490672e+003;3.597594e-002
3.492600e+003;3.548197e-002
3.494529e+003;3.546956e-002
3.496458e+003;3.536578e-002
3.498386e+003;3.516352e-002
3.500315e+003;3.505668e-002
3.502243e+003;3.540122e-002
3.504172e+003;3.561297e-002
3.506100e+003;3.510601e-002
3.508029e+003;3.464926e-002
3.509957e+003;3.424907e-002
3.511886e+003;3.413188e-002
3.513814e+003;3.429220e-002
3.515743e+003;3.438045e-002
3.517672e+003;3.421723e-002
3.519600e+003;3.394453e-002
3.521529e+003;3.368361e-002
3.523457e+003;3.351599e-002
3.525386e+003;3.344910e-002
3.527314e+003;3.327267e-002
3.529243e+003;3.312843e-002
3.531171e+003;3.314402e-002
3.533100e+003;3.305602e-002
3.535029e+003;3.286678e-002
3.536957e+003;3.253185e-002
3.538885e+003;3.200218e-002
3.540814e+003;3.132784e-002
3.542743e+003;3.079181e-002
3.544671e+003;3.094083e-002
3.546600e+003;3.142453e-002
3.548528e+003;3.153312e-002
3.550457e+003;3.091678e-002
3.552385e+003;3.030621e-002
3.554314e+003;3.032810e-002
3.556242e+003;2.998686e-002
3.558171e+003;2.935498e-002
3.560100e+003;2.926948e-002
3.562028e+003;2.900472e-002
3.563957e+003;2.848581e-002
3.565885e+003;2.809482e-002
3.567814e+003;2.799324e-002
3.569742e+003;2.801208e-002
3.571671e+003;2.795189e-002
3.573599e+003;2.777832e-002
3.575528e+003;2.768003e-002
3.577457e+003;2.732992e-002
3.579385e+003;2.676620e-002
3.581314e+003;2.634549e-002
3.583242e+003;2.625464e-002
3.585171e+003;2.583949e-002
3.587099e+003;2.523408e-002
3.589028e+003;2.508399e-002
3.590956e+003;2.504618e-002
3.592885e+003;2.455936e-002
3.594813e+003;2.422458e-002
3.596742e+003;2.430611e-002
3.598671e+003;2.432286e-002
3.600599e+003;2.401767e-002
3.602528e+003;2.372177e-002
3.604456e+003;2.340365e-002
3.606385e+003;2.261442e-002
3.608313e+003;2.197603e-002
3.610242e+003;2.200060e-002
3.612170e+003;2.206861e-002
3.614099e+003;2.210005e-002
3.616028e+003;2.138638e-002
3.617956e+003;2.057639e-002
3.619885e+003;2.106041e-002
3.621813e+003;2.161735e-002
3.623742e+003;2.165357e-002
3.625670e+003;2.153326e-002
3.627599e+003;2.020905e-002
3.629527e+003;1.977609e-002
3.631456e+003;2.070224e-002
3.633385e+003;2.073815e-002
3.635313e+003;2.041567e-002
3.637241e+003;2.015042e-002
3.639170e+003;1.966015e-002
3.641099e+003;1.935126e-002
3.643027e+003;1.913579e-002
3.644956e+003;1.874714e-002
3.646884e+003;1.799882e-002
3.648813e+003;1.763976e-002
3.650741e+003;1.806023e-002
3.652670e+003;1.839316e-002
3.654598e+003;1.801450e-002
3.656527e+003;1.789485e-002
3.658456e+003;1.795448e-002
3.660384e+003;1.775714e-002
3.662313e+003;1.776083e-002
3.664241e+003;1.787251e-002
3.666170e+003;1.765812e-002
3.668098e+003;1.697359e-002
3.670027e+003;1.659272e-002
3.671955e+003;1.672335e-002
3.673884e+003;1.601467e-002
3.675813e+003;1.563186e-002
3.677741e+003;1.652147e-002
3.679669e+003;1.674304e-002
3.681598e+003;1.625498e-002
3.683527e+003;1.587075e-002
3.685455e+003;1.574231e-002
3.687384e+003;1.487480e-002
3.689312e+003;1.436259e-002
3.691241e+003;1.487603e-002
3.693169e+003;1.532297e-002
3.695098e+003;1.502957e-002
3.697026e+003;1.469910e-002
3.698955e+003;1.464084e-002
3.700884e+003;1.469136e-002
3.702812e+003;1.497826e-002
3.704741e+003;1.491776e-002
3.706669e+003;1.448042e-002
3.708598e+003;1.411080e-002
3.710526e+003;1.388334e-002
3.712455e+003;1.397504e-002
3.714383e+003;1.411569e-002
3.716312e+003;1.418851e-002
3.718240e+003;1.431653e-002
3.720169e+003;1.425667e-002
3.722098e+003;1.402575e-002
3.724026e+003;1.409403e-002
3.725955e+003;1.441434e-002
3.727883e+003;1.419456e-002
3.729812e+003;1.369366e-002
3.731740e+003;1.345251e-002
3.733669e+003;1.306191e-002
3.735597e+003;1.258751e-002
3.737526e+003;1.327677e-002
3.739455e+003;1.408174e-002
3.741383e+003;1.383172e-002
3.743312e+003;1.265638e-002
3.745240e+003;1.282364e-002
3.747169e+003;1.345685e-002
3.749097e+003;1.276481e-002
3.751026e+003;1.264795e-002
3.752954e+003;1.335980e-002
3.754883e+003;1.414975e-002
3.756812e+003;1.380922e-002
3.758740e+003;1.348833e-002
3.760668e+003;1.396611e-002
3.762597e+003;1.472553e-002
3.764526e+003;1.471144e-002
3.766454e+003;1.458039e-002
3.768383e+003;1.422391e-002
3.770311e+003;1.418830e-002
3.772240e+003;1.461891e-002
3.774168e+003;1.477640e-002
3.776097e+003;1.447480e-002
3.778025e+003;1.419508e-002
3.779954e+003;1.414103e-002
3.781883e+003;1.418967e-002
3.783811e+003;1.448169e-002
3.785740e+003;1.444270e-002
3.787668e+003;1.421874e-002
3.789597e+003;1.425373e-002
3.791525e+003;1.423805e-002
3.793454e+003;1.409745e-002
3.795382e+003;1.380987e-002
3.797311e+003;1.381052e-002
3.799240e+003;1.347817e-002
3.801168e+003;1.324330e-002
3.803097e+003;1.420412e-002
3.805025e+003;1.406596e-002
3.806954e+003;1.383515e-002
3.808882e+003;1.458379e-002
3.810811e+003;1.484980e-002
3.812739e+003;1.465304e-002
3.814668e+003;1.399362e-002
3.816596e+003;1.404854e-002
3.818525e+003;1.414787e-002
3.820454e+003;1.362455e-002
3.822382e+003;1.412524e-002
3.824311e+003;1.453540e-002
3.826239e+003;1.449727e-002
3.828168e+003;1.470877e-002
3.830096e+003;1.448151e-002
3.832025e+003;1.418498e-002
3.833953e+003;1.401596e-002
3.835882e+003;1.384790e-002
3.837811e+003;1.388848e-002
3.839739e+003;1.457392e-002
3.841667e+003;1.488666e-002
3.843596e+003;1.499040e-002
3.845525e+003;1.520241e-002
3.847453e+003;1.514353e-002
3.849382e+003;1.449385e-002
3.851310e+003;1.336977e-002
3.853239e+003;1.281889e-002
3.855167e+003;1.413086e-002
3.857096e+003;1.494091e-002
3.859024e+003;1.488337e-002
3.860953e+003;1.498453e-002
3.862882e+003;1.493271e-002
3.864810e+003;1.473578e-002
3.866739e+003;1.473314e-002
3.868667e+003;1.445493e-002
3.870596e+003;1.452547e-002
3.872524e+003;1.493127e-002
3.874453e+003;1.494242e-002
3.876381e+003;1.481154e-002
3.878310e+003;1.419737e-002
3.880239e+003;1.427650e-002
3.882167e+003;1.517808e-002
3.884096e+003;1.511684e-002
3.886024e+003;1.478336e-002
3.887953e+003;1.517812e-002
3.889881e+003;1.527935e-002
3.891810e+003;1.550016e-002
3.893738e+003;1.576120e-002
3.895667e+003;1.559700e-002
3.897595e+003;1.548793e-002
3.899524e+003;1.553113e-002
3.901453e+003;1.567741e-002
3.903381e+003;1.561345e-002
3.905310e+003;1.595654e-002
3.907238e+003;1.648881e-002
3.909167e+003;1.654219e-002
3.911095e+003;1.620734e-002
3.913024e+003;1.612033e-002
3.914952e+003;1.605617e-002
3.916881e+003;1.597559e-002
3.918810e+003;1.587457e-002
3.920738e+003;1.564296e-002
3.922667e+003;1.549075e-002
3.924595e+003;1.573825e-002
3.926524e+003;1.638949e-002
3.928452e+003;1.670861e-002
3.930381e+003;1.668323e-002
3.932309e+003;1.719674e-002
3.934238e+003;1.758062e-002
3.936167e+003;1.719384e-002
3.938095e+003;1.687668e-002
3.940023e+003;1.688123e-002
3.941952e+003;1.673378e-002
3.943881e+003;1.667283e-002
3.945809e+003;1.685653e-002
3.947738e+003;1.667049e-002
3.949666e+003;1.617191e-002
3.951595e+003;1.654123e-002
3.953523e+003;1.692136e-002
3.955452e+003;1.696422e-002
3.957380e+003;1.725190e-002
3.959309e+003;1.757358e-002
3.961238e+003;1.766996e-002
3.963166e+003;1.764970e-002
3.965095e+003;1.772839e-002
3.967023e+003;1.768290e-002
3.968952e+003;1.776290e-002
3.970880e+003;1.779183e-002
3.972809e+003;1.802383e-002
3.974737e+003;1.861155e-002
3.976666e+003;1.835137e-002
3.978594e+003;1.792458e-002
3.980523e+003;1.784227e-002
3.982452e+003;1.795500e-002
3.984380e+003;1.817575e-002
3.986309e+003;1.850310e-002
3.988237e+003;1.850096e-002
3.990166e+003;1.844381e-002
3.992094e+003;1.856565e-002
3.994023e+003;1.878592e-002
3.995951e+003;1.930522e-002
3.997880e+003;1.936238e-002
3.999809e+003;1.899488e-002
4.001737e+003;0.000000e+000
