3.992094e+002;0.000000e+000
4.011380e+002;0.000000e+000
4.030665e+002;0.000000e+000
4.049951e+002;0.000000e+000
4.069236e+002;0.000000e+000
4.088522e+002;0.000000e+000
4.107807e+002;0.000000e+000
4.127093e+002;0.000000e+000
4.146378e+002;0.000000e+000
4.165664e+002;0.000000e+000
4.184949e+002;0.000000e+000
4.204235e+002;0.000000e+000
4.223520e+002;0.000000e+000
4.242806e+002;0.000000e+000
4.262091e+002;0.000000e+000
4.281377e+002;0.000000e+000
4.300662e+002;0.000000e+000
4.319948e+002;0.000000e+000
4.339233e+002;0.000000e+000
4.358519e+002;0.000000e+000
4.377804e+002;0.000000e+000
4.397090e+002;0.000000e+000
4.416375e+002;0.000000e+000
4.435660e+002;0.000000e+000
4.454946e+002;0.000000e+000
4.474232e+002;0.000000e+000
4.493517e+002;0.000000e+000
4.512802e+002;0.000000e+000
4.532088e+002;0.000000e+000
4.551373e+002;0.000000e+000
4.570659e+002;0.000000e+000
4.589944e+002;0.000000e+000
4.609230e+002;0.000000e+000
4.628515e+002;0.000000e+000
4.647801e+002;0.000000e+000
4.667086e+002;0.000000e+000
4.686372e+002;0.000000e+000
4.705657e+002;0.000000e+000
4.724943e+002;0.000000e+000
4.744228e+002;0.000000e+000
4.763513e+002;0.000000e+000
4.782799e+002;0.000000e+000
4.802085e+002;0.000000e+000
4.821370e+002;0.000000e+000
4.840656e+002;0.000000e+000
4.859941e+002;0.000000e+000
4.879226e+002;0.000000e+000
4.898512e+002;0.000000e+000
4.917798e+002;0.000000e+000
4.937083e+002;0.000000e+000
4.956368e+002;0.000000e+000
4.975654e+002;0.000000e+000
4.994939e+002;0.000000e+000
5.014225e+002;0.000000e+000
5.033510e+002;0.000000e+000
5.052796e+002;0.000000e+000
5.072081e+002;0.000000e+000
5.091367e+002;0.000000e+000
5.110652e+002;0.000000e+000
5.129938e+002;0.000000e+000
5.149223e+002;0.000000e+000
5.168509e+002;0.000000e+000
5.187794e+002;0.000000e+000
5.207079e+002;0.000000e+000
5.226365e+002;0.000000e+000
5.245651e+002;0.000000e+000
5.264936e+002;0.000000e+000
5.284222e+002;0.000000e+000
5.303507e+002;0.000000e+000
5.322792e+002;0.000000e+000
5.342078e+002;0.000000e+000
5.361364e+002;0.000000e+000
5.380649e+002;0.000000e+000
5.399935e+002;0.000000e+000
5.419220e+002;0.000000e+000
5.438505e+002;0.000000e+000
5.457791e+002;0.000000e+000
5.477076e+002;0.000000e+000
5.496362e+002;0.000000e+000
5.515648e+002;0.000000e+000
5.534933e+002;0.000000e+000
5.554218e+002;0.000000e+000
5.573504e+002;0.000000e+000
5.592789e+002;0.000000e+000
5.612075e+002;0.000000e+000
5.631360e+002;0.000000e+000
5.650646e+002;0.000000e+000
5.669931e+002;0.000000e+000
5.689217e+002;0.000000e+000
5.708502e+002;0.000000e+000
5.727787e+002;0.000000e+000
5.747073e+002;0.000000e+000
5.766359e+002;0.000000e+000
5.785644e+002;0.000000e+000
5.804930e+002;0.000000e+000
5.824215e+002;0.000000e+000
5.843500e+002;0.000000e+000
5.862786e+002;0.000000e+000
5.882072e+002;0.000000e+000
5.901357e+002;0.000000e+000
5.920643e+002;0.000000e+000
5.939928e+002;0.000000e+000
5.959213e+002;0.000000e+000
5.978499e+002;0.000000e+000
5.997784e+002;1.308520e-001
6.017070e+002;1.329497e-001
6.036355e+002;1.335130e-001
6.055641e+002;1.358363e-001
6.074926e+002;1.372386e-001
6.094211e+002;1.381190e-001
6.113497e+002;1.379288e-001
6.132783e+002;1.322884e-001
6.152068e+002;1.355040e-001
6.171354e+002;1.372723e-001
6.190639e+002;1.341641e-001
6.209924e+002;1.351694e-001
6.229210e+002;1.361072e-001
6.248495e+002;1.335959e-001
6.267781e+002;1.338070e-001
6.287067e+002;1.351447e-001
6.306352e+002;1.339013e-001
6.325637e+002;1.372542e-001
6.344923e+002;1.394318e-001
6.364208e+002;1.373842e-001
6.383494e+002;1.364500e-001
6.402780e+002;1.378440e-001
6.422065e+002;1.414328e-001
6.441350e+002;1.427387e-001
6.460636e+002;1.427946e-001
6.479921e+002;1.469534e-001
6.499207e+002;1.521340e-001
6.518492e+002;1.517432e-001
6.537778e+002;1.503239e-001
6.557063e+002;1.546336e-001
6.576349e+002;1.603057e-001
6.595634e+002;1.639909e-001
6.614919e+002;1.666092e-001
6.634205e+002;1.687552e-001
6.653491e+002;1.699280e-001
6.672776e+002;1.718048e-001
6.692062e+002;1.742799e-001
6.711347e+002;1.760759e-001
6.730632e+002;1.783185e-001
6.749918e+002;1.782123e-001
6.769203e+002;1.796740e-001
6.788489e+002;1.822628e-001
6.807775e+002;1.830421e-001
6.827060e+002;1.847470e-001
6.846345e+002;1.868473e-001
6.865631e+002;1.868844e-001
6.884916e+002;1.830576e-001
6.904202e+002;1.798197e-001
6.923488e+002;1.775260e-001
6.942773e+002;1.746273e-001
6.962058e+002;1.720482e-001
6.981344e+002;1.692255e-001
7.000629e+002;1.662257e-001
7.019915e+002;1.635941e-001
7.039200e+002;1.613194e-001
7.058486e+002;1.593155e-001
7.077771e+002;1.576269e-001
7.097057e+002;1.563380e-001
7.116342e+002;1.547819e-001
7.135627e+002;1.525546e-001
7.154913e+002;1.503539e-001
7.174199e+002;1.489750e-001
7.193484e+002;1.469724e-001
7.212770e+002;1.461659e-001
7.232055e+002;1.474230e-001
7.251340e+002;1.493839e-001
7.270626e+002;1.507317e-001
7.289911e+002;1.494541e-001
7.309197e+002;1.440991e-001
7.328483e+002;1.368025e-001
7.347768e+002;1.294759e-001
7.367053e+002;1.233312e-001
7.386339e+002;1.175474e-001
7.405624e+002;1.131470e-001
7.424910e+002;1.110361e-001
7.444196e+002;1.091534e-001
7.463481e+002;1.060832e-001
7.482766e+002;1.034411e-001
7.502052e+002;1.019441e-001
7.521337e+002;1.005549e-001
7.540623e+002;9.963141e-002
7.559908e+002;9.829241e-002
7.579194e+002;9.612118e-002
7.598479e+002;9.498357e-002
7.617765e+002;9.370657e-002
7.637050e+002;9.220377e-002
7.656335e+002;9.177972e-002
7.675621e+002;9.152770e-002
7.694907e+002;9.013667e-002
7.714192e+002;8.892627e-002
7.733478e+002;8.777869e-002
7.752763e+002;8.640695e-002
7.772048e+002;8.523934e-002
7.791334e+002;8.435515e-002
7.810620e+002;8.354541e-002
7.829905e+002;8.254691e-002
7.849191e+002;8.094211e-002
7.868476e+002;7.963295e-002
7.887761e+002;7.827123e-002
7.907047e+002;7.665578e-002
7.926332e+002;7.594588e-002
7.945618e+002;7.531095e-002
7.964903e+002;7.402135e-002
7.984189e+002;7.245829e-002
8.003474e+002;7.168701e-002
8.022759e+002;7.034297e-002
8.042045e+002;6.888605e-002
8.061331e+002;6.862120e-002
8.080616e+002;6.810939e-002
8.099902e+002;6.723788e-002
8.119187e+002;6.650876e-002
8.138472e+002;6.591608e-002
8.157758e+002;6.561650e-002
8.177043e+002;6.514916e-002
8.196329e+002;6.510566e-002
8.215615e+002;6.499751e-002
8.234900e+002;6.445858e-002
8.254185e+002;6.471705e-002
8.273471e+002;6.567511e-002
8.292756e+002;6.734772e-002
8.312042e+002;6.918701e-002
8.331328e+002;6.971772e-002
8.350613e+002;6.801513e-002
8.369898e+002;6.518396e-002
8.389184e+002;6.256251e-002
8.408469e+002;6.117373e-002
8.427755e+002;6.104046e-002
8.447040e+002;6.044004e-002
8.466326e+002;5.952119e-002
8.485611e+002;5.843420e-002
8.504897e+002;5.743194e-002
8.524182e+002;5.737280e-002
8.543467e+002;5.788093e-002
8.562753e+002;5.803675e-002
8.582039e+002;5.798233e-002
8.601324e+002;5.785019e-002
8.620610e+002;5.744915e-002
8.639895e+002;5.740748e-002
8.659180e+002;5.773570e-002
8.678466e+002;5.810719e-002
8.697751e+002;5.833421e-002
8.717037e+002;5.835347e-002
8.736323e+002;5.824289e-002
8.755608e+002;5.829723e-002
8.774893e+002;5.854304e-002
8.794179e+002;5.870626e-002
8.813464e+002;5.857554e-002
8.832750e+002;5.833080e-002
8.852036e+002;5.857679e-002
8.871321e+002;5.891933e-002
8.890606e+002;5.926742e-002
8.909892e+002;5.950952e-002
8.929177e+002;5.944162e-002
8.948463e+002;5.970899e-002
8.967748e+002;6.035862e-002
8.987034e+002;6.036061e-002
9.006319e+002;5.993354e-002
9.025605e+002;5.994712e-002
9.044890e+002;6.046483e-002
9.064175e+002;6.144404e-002
9.083461e+002;6.199468e-002
9.102747e+002;6.211825e-002
9.122032e+002;6.252807e-002
9.141318e+002;6.331958e-002
9.160603e+002;6.424378e-002
9.179888e+002;6.485672e-002
9.199174e+002;6.544176e-002
9.218459e+002;6.643075e-002
9.237745e+002;6.744647e-002
9.257031e+002;6.863734e-002
9.276316e+002;6.999453e-002
9.295601e+002;7.017068e-002
9.314887e+002;6.930728e-002
9.334172e+002;6.815117e-002
9.353458e+002;6.695154e-002
9.372744e+002;6.626295e-002
9.392029e+002;6.578914e-002
9.411314e+002;6.593656e-002
9.430600e+002;6.684733e-002
9.449885e+002;6.807656e-002
9.469171e+002;6.973149e-002
9.488456e+002;7.138760e-002
9.507742e+002;7.257392e-002
9.527027e+002;7.325396e-002
9.546313e+002;7.389528e-002
9.565598e+002;7.506850e-002
9.584883e+002;7.582191e-002
9.604169e+002;7.573488e-002
9.623455e+002;7.489988e-002
9.642740e+002;7.394607e-002
9.662026e+002;7.348064e-002
9.681311e+002;7.341547e-002
9.700596e+002;7.386747e-002
9.719882e+002;7.406870e-002
9.739167e+002;7.347511e-002
9.758453e+002;7.283860e-002
9.777739e+002;7.219051e-002
9.797024e+002;7.134230e-002
9.816309e+002;7.012115e-002
9.835595e+002;6.922167e-002
9.854880e+002;6.881414e-002
9.874166e+002;6.825817e-002
9.893452e+002;6.750380e-002
9.912737e+002;6.659616e-002
9.932022e+002;6.591067e-002
9.951307e+002;6.564093e-002
9.970593e+002;6.544869e-002
9.989879e+002;6.535960e-002
1.000916e+003;6.534249e-002
1.002845e+003;6.546025e-002
1.004773e+003;6.555734e-002
1.006702e+003;6.536911e-002
1.008631e+003;6.510609e-002
1.010559e+003;6.475498e-002
1.012488e+003;6.444013e-002
1.014416e+003;6.450690e-002
1.016345e+003;6.490096e-002
1.018273e+003;6.557353e-002
1.020202e+003;6.651915e-002
1.022130e+003;6.750886e-002
1.024059e+003;6.864266e-002
1.025988e+003;7.001583e-002
1.027916e+003;7.064945e-002
1.029845e+003;7.040083e-002
1.031773e+003;6.958862e-002
1.033702e+003;6.879776e-002
1.035630e+003;6.817427e-002
1.037559e+003;6.729440e-002
1.039487e+003;6.656031e-002
1.041416e+003;6.570680e-002
1.043344e+003;6.489893e-002
1.045273e+003;6.493806e-002
1.047202e+003;6.547993e-002
1.049130e+003;6.602422e-002
1.051059e+003;6.656004e-002
1.052987e+003;6.734149e-002
1.054916e+003;6.886578e-002
1.056844e+003;7.054498e-002
1.058773e+003;7.163586e-002
1.060701e+003;7.246678e-002
1.062630e+003;7.359517e-002
1.064558e+003;7.498994e-002
1.066487e+003;7.602020e-002
1.068416e+003;7.654065e-002
1.070344e+003;7.660633e-002
1.072273e+003;7.678981e-002
1.074201e+003;7.731146e-002
1.076130e+003;7.720113e-002
1.078058e+003;7.660475e-002
1.079987e+003;7.650599e-002
1.081915e+003;7.620999e-002
1.083844e+003;7.530709e-002
1.085773e+003;7.434480e-002
1.087701e+003;7.390694e-002
1.089630e+003;7.363387e-002
1.091558e+003;7.371832e-002
1.093487e+003;7.452083e-002
1.095415e+003;7.500183e-002
1.097344e+003;7.495292e-002
1.099272e+003;7.589936e-002
1.101201e+003;7.718510e-002
1.103129e+003;7.893248e-002
1.105058e+003;8.093129e-002
1.106987e+003;8.240332e-002
1.108915e+003;8.344574e-002
1.110844e+003;8.438006e-002
1.112772e+003;8.539872e-002
1.114701e+003;8.618692e-002
1.116629e+003;8.653416e-002
1.118558e+003;8.668531e-002
1.120486e+003;8.646606e-002
1.122415e+003;8.517605e-002
1.124344e+003;8.309563e-002
1.126272e+003;7.984527e-002
1.128201e+003;7.594581e-002
1.130129e+003;7.330436e-002
1.132058e+003;7.222310e-002
1.133986e+003;7.181905e-002
1.135915e+003;7.158057e-002
1.137843e+003;7.204898e-002
1.139772e+003;7.304190e-002
1.141700e+003;7.432070e-002
1.143629e+003;7.578975e-002
1.145557e+003;7.759786e-002
1.147486e+003;7.967427e-002
1.149415e+003;8.213279e-002
1.151343e+003;8.485479e-002
1.153272e+003;8.760020e-002
1.155200e+003;9.063863e-002
1.157129e+003;9.415683e-002
1.159057e+003;9.875294e-002
1.160986e+003;1.043444e-001
1.162914e+003;1.104701e-001
1.164843e+003;1.170230e-001
1.166771e+003;1.225599e-001
1.168700e+003;1.253660e-001
1.170629e+003;1.244115e-001
1.172557e+003;1.198081e-001
1.174486e+003;1.137932e-001
1.176414e+003;1.079233e-001
1.178343e+003;1.031074e-001
1.180271e+003;9.990883e-002
1.182200e+003;9.851147e-002
1.184128e+003;9.872395e-002
1.186057e+003;1.005578e-001
1.187986e+003;1.034275e-001
1.189914e+003;1.069441e-001
1.191843e+003;1.110011e-001
1.193771e+003;1.158086e-001
1.195700e+003;1.212129e-001
1.197628e+003;1.265683e-001
1.199557e+003;1.295663e-001
1.201485e+003;1.277785e-001
1.203414e+003;1.235938e-001
1.205343e+003;1.201327e-001
1.207271e+003;1.182907e-001
1.209200e+003;1.172193e-001
1.211128e+003;1.164443e-001
1.213057e+003;1.156620e-001
1.214985e+003;1.135473e-001
1.216914e+003;1.104833e-001
1.218842e+003;1.073568e-001
1.220771e+003;1.050250e-001
1.222699e+003;1.046595e-001
1.224628e+003;1.065108e-001
1.226557e+003;1.100353e-001
1.228485e+003;1.145336e-001
1.230414e+003;1.193985e-001
1.232342e+003;1.243373e-001
1.234271e+003;1.282071e-001
1.236199e+003;1.304502e-001
1.238128e+003;1.307316e-001
1.240056e+003;1.303169e-001
1.241985e+003;1.299307e-001
1.243913e+003;1.294166e-001
1.245842e+003;1.292750e-001
1.247771e+003;1.299660e-001
1.249699e+003;1.318050e-001
1.251628e+003;1.347010e-001
1.253556e+003;1.383302e-001
1.255485e+003;1.419153e-001
1.257413e+003;1.451720e-001
1.259342e+003;1.478399e-001
1.261270e+003;1.494534e-001
1.263199e+003;1.485217e-001
1.265127e+003;1.444871e-001
1.267056e+003;1.385601e-001
1.268985e+003;1.320808e-001
1.270913e+003;1.269183e-001
1.272842e+003;1.241490e-001
1.274770e+003;1.227323e-001
1.276699e+003;1.220511e-001
1.278627e+003;1.214635e-001
1.280556e+003;1.200932e-001
1.282484e+003;1.180750e-001
1.284413e+003;1.158417e-001
1.286342e+003;1.139946e-001
1.288270e+003;1.128325e-001
1.290199e+003;1.123903e-001
1.292127e+003;1.123256e-001
1.294056e+003;1.118212e-001
1.295984e+003;1.112198e-001
1.297913e+003;1.108657e-001
1.299841e+003;1.105595e-001
1.301770e+003;1.100497e-001
1.303698e+003;1.093176e-001
1.305627e+003;1.087473e-001
1.307556e+003;1.076759e-001
1.309484e+003;1.064431e-001
1.311413e+003;1.057019e-001
1.313341e+003;1.047083e-001
1.315270e+003;1.034441e-001
1.317198e+003;1.022785e-001
1.319127e+003;1.013386e-001
1.321055e+003;1.005229e-001
1.322984e+003;9.987763e-002
1.324912e+003;9.962441e-002
1.326841e+003;9.979953e-002
1.328770e+003;1.001838e-001
1.330698e+003;1.006719e-001
1.332627e+003;1.010643e-001
1.334555e+003;1.013332e-001
1.336484e+003;1.015487e-001
1.338412e+003;1.019932e-001
1.340341e+003;1.029350e-001
1.342269e+003;1.040214e-001
1.344198e+003;1.049176e-001
1.346126e+003;1.058379e-001
1.348055e+003;1.065926e-001
1.349984e+003;1.074941e-001
1.351912e+003;1.087081e-001
1.353841e+003;1.103265e-001
1.355769e+003;1.123537e-001
1.357698e+003;1.143833e-001
1.359626e+003;1.161968e-001
1.361555e+003;1.180571e-001
1.363483e+003;1.202216e-001
1.365412e+003;1.223888e-001
1.367341e+003;1.240736e-001
1.369269e+003;1.253881e-001
1.371198e+003;1.261900e-001
1.373126e+003;1.257690e-001
1.375055e+003;1.242466e-001
1.376983e+003;1.217832e-001
1.378912e+003;1.185664e-001
1.380840e+003;1.152100e-001
1.382769e+003;1.118819e-001
1.384698e+003;1.085709e-001
1.386626e+003;1.052014e-001
1.388555e+003;1.027503e-001
1.390483e+003;1.010471e-001
1.392412e+003;9.948298e-002
1.394340e+003;9.819852e-002
1.396269e+003;9.772969e-002
1.398197e+003;9.850224e-002
1.400126e+003;1.003469e-001
1.402054e+003;1.026451e-001
1.403983e+003;1.057447e-001
1.405911e+003;1.102163e-001
1.407840e+003;1.160407e-001
1.409769e+003;1.229382e-001
1.411697e+003;1.299649e-001
1.413626e+003;1.357137e-001
1.415554e+003;1.392826e-001
1.417483e+003;1.399367e-001
1.419411e+003;1.377240e-001
1.421340e+003;1.342783e-001
1.423268e+003;1.308321e-001
1.425197e+003;1.284094e-001
1.427125e+003;1.281192e-001
1.429054e+003;1.296629e-001
1.430983e+003;1.321023e-001
1.432911e+003;1.345324e-001
1.434840e+003;1.357076e-001
1.436768e+003;1.353565e-001
1.438697e+003;1.348896e-001
1.440625e+003;1.341040e-001
1.442554e+003;1.330974e-001
1.444482e+003;1.326651e-001
1.446411e+003;1.327383e-001
1.448340e+003;1.335405e-001
1.450268e+003;1.353810e-001
1.452197e+003;1.376994e-001
1.454125e+003;1.401231e-001
1.456054e+003;1.427944e-001
1.457982e+003;1.477613e-001
1.459911e+003;1.542955e-001
1.461839e+003;1.584750e-001
1.463768e+003;1.570182e-001
1.465697e+003;1.502182e-001
1.467625e+003;1.420996e-001
1.469554e+003;1.358040e-001
1.471482e+003;1.325565e-001
1.473411e+003;1.325970e-001
1.475339e+003;1.336877e-001
1.477268e+003;1.330713e-001
1.479196e+003;1.299539e-001
1.481125e+003;1.244072e-001
1.483053e+003;1.175739e-001
1.484982e+003;1.114178e-001
1.486911e+003;1.079635e-001
1.488839e+003;1.072574e-001
1.490768e+003;1.084436e-001
1.492696e+003;1.106194e-001
1.494625e+003;1.131051e-001
1.496553e+003;1.165231e-001
1.498482e+003;1.210013e-001
1.500410e+003;1.260270e-001
1.502339e+003;1.314861e-001
1.504267e+003;1.366895e-001
1.506196e+003;1.421203e-001
1.508125e+003;1.493037e-001
1.510053e+003;1.570325e-001
1.511982e+003;1.646102e-001
1.513910e+003;1.725893e-001
1.515839e+003;1.808270e-001
1.517767e+003;1.895851e-001
1.519696e+003;1.989497e-001
1.521624e+003;2.089788e-001
1.523553e+003;2.199086e-001
1.525481e+003;2.311619e-001
1.527410e+003;2.422324e-001
1.529339e+003;2.529274e-001
1.531267e+003;2.629364e-001
1.533196e+003;2.721275e-001
1.535124e+003;2.796660e-001
1.537053e+003;2.837349e-001
1.538981e+003;2.843044e-001
1.540910e+003;2.820001e-001
1.542838e+003;2.764809e-001
1.544767e+003;2.677705e-001
1.546695e+003;2.568191e-001
1.548624e+003;2.444058e-001
1.550553e+003;2.320394e-001
1.552481e+003;2.204719e-001
1.554410e+003;2.093034e-001
1.556338e+003;1.993720e-001
1.558267e+003;1.898158e-001
1.560195e+003;1.812698e-001
1.562124e+003;1.738565e-001
1.564052e+003;1.660165e-001
1.565981e+003;1.579052e-001
1.567910e+003;1.496802e-001
1.569838e+003;1.413544e-001
1.571767e+003;1.338560e-001
1.573695e+003;1.269996e-001
1.575624e+003;1.204182e-001
1.577552e+003;1.151731e-001
1.579481e+003;1.111448e-001
1.581409e+003;1.076849e-001
1.583338e+003;1.051529e-001
1.585266e+003;1.035275e-001
1.587195e+003;1.025704e-001
1.589124e+003;1.025044e-001
1.591052e+003;1.036760e-001
1.592981e+003;1.055368e-001
1.594909e+003;1.079258e-001
1.596838e+003;1.112615e-001
1.598766e+003;1.156181e-001
1.600695e+003;1.205840e-001
1.602623e+003;1.269516e-001
1.604552e+003;1.343847e-001
1.606480e+003;1.421627e-001
1.608409e+003;1.508791e-001
1.610338e+003;1.604010e-001
1.612266e+003;1.706136e-001
1.614195e+003;1.818489e-001
1.616123e+003;1.949134e-001
1.618052e+003;2.109509e-001
1.619980e+003;2.283018e-001
1.621909e+003;2.460339e-001
1.623837e+003;2.641748e-001
1.625766e+003;2.826324e-001
1.627694e+003;3.015396e-001
1.629623e+003;3.206296e-001
1.631552e+003;3.382639e-001
1.633480e+003;3.515502e-001
1.635409e+003;3.577178e-001
1.637337e+003;3.548525e-001
1.639266e+003;3.421861e-001
1.641194e+003;3.222657e-001
1.643123e+003;2.991608e-001
1.645051e+003;2.752794e-001
1.646980e+003;2.525428e-001
1.648909e+003;2.325891e-001
1.650837e+003;2.148708e-001
1.652766e+003;1.988577e-001
1.654694e+003;1.866420e-001
1.656623e+003;1.769441e-001
1.658551e+003;1.675079e-001
1.660480e+003;1.580478e-001
1.662408e+003;1.485085e-001
1.664337e+003;1.392303e-001
1.666266e+003;1.300281e-001
1.668194e+003;1.209884e-001
1.670123e+003;1.128495e-001
1.672051e+003;1.056298e-001
1.673980e+003;9.838923e-002
1.675908e+003;9.150197e-002
1.677837e+003;8.527148e-002
1.679765e+003;7.873562e-002
1.681694e+003;7.183094e-002
1.683622e+003;6.498723e-002
1.685551e+003;5.981534e-002
1.687479e+003;5.624662e-002
1.689408e+003;5.286392e-002
1.691337e+003;5.007474e-002
1.693265e+003;4.786206e-002
1.695194e+003;4.581817e-002
1.697122e+003;4.450418e-002
1.699051e+003;4.332557e-002
1.700979e+003;4.268559e-002
1.702908e+003;4.299943e-002
1.704836e+003;4.292579e-002
1.706765e+003;4.271747e-002
1.708693e+003;4.253227e-002
1.710622e+003;4.281527e-002
1.712551e+003;4.268208e-002
1.714479e+003;4.224820e-002
1.716408e+003;4.207258e-002
1.718336e+003;4.240372e-002
1.720265e+003;4.302379e-002
1.722193e+003;4.346263e-002
1.724122e+003;4.363826e-002
1.726050e+003;4.383024e-002
1.727979e+003;4.388611e-002
1.729908e+003;4.366691e-002
1.731836e+003;4.303711e-002
1.733765e+003;4.248593e-002
1.735693e+003;4.276207e-002
1.737622e+003;4.286190e-002
1.739550e+003;4.250544e-002
1.741479e+003;4.218798e-002
1.743407e+003;4.133136e-002
1.745336e+003;4.038268e-002
1.747265e+003;3.952315e-002
1.749193e+003;3.853386e-002
1.751122e+003;3.759628e-002
1.753050e+003;3.711508e-002
1.754979e+003;3.653362e-002
1.756907e+003;3.570839e-002
1.758836e+003;3.505320e-002
1.760764e+003;3.436076e-002
1.762693e+003;3.375766e-002
1.764621e+003;3.326588e-002
1.766550e+003;3.274403e-002
1.768479e+003;3.239485e-002
1.770407e+003;3.190382e-002
1.772336e+003;3.118452e-002
1.774264e+003;3.101022e-002
1.776193e+003;3.099011e-002
1.778121e+003;3.075777e-002
1.780050e+003;3.048354e-002
1.781978e+003;3.009295e-002
1.783907e+003;2.970069e-002
1.785835e+003;2.950805e-002
1.787764e+003;2.948475e-002
1.789693e+003;2.919845e-002
1.791621e+003;2.850070e-002
1.793550e+003;2.830229e-002
1.795478e+003;2.850042e-002
1.797407e+003;2.831987e-002
1.799335e+003;2.824101e-002
1.801264e+003;2.816584e-002
1.803192e+003;2.801572e-002
1.805121e+003;2.798847e-002
1.807049e+003;2.801872e-002
1.808978e+003;2.781767e-002
1.810907e+003;2.767078e-002
1.812835e+003;2.751140e-002
1.814764e+003;2.743117e-002
1.816692e+003;2.733952e-002
1.818621e+003;2.714347e-002
1.820549e+003;2.714428e-002
1.822478e+003;2.708352e-002
1.824406e+003;2.673900e-002
1.826335e+003;2.656943e-002
1.828264e+003;2.666405e-002
1.830192e+003;2.679728e-002
1.832121e+003;2.685280e-002
1.834049e+003;2.690408e-002
1.835978e+003;2.685086e-002
1.837906e+003;2.655270e-002
1.839835e+003;2.637014e-002
1.841763e+003;2.630357e-002
1.843692e+003;2.605876e-002
1.845620e+003;2.594099e-002
1.847549e+003;2.577535e-002
1.849478e+003;2.573038e-002
1.851406e+003;2.582036e-002
1.853335e+003;2.574125e-002
1.855263e+003;2.554255e-002
1.857192e+003;2.555017e-002
1.859120e+003;2.546293e-002
1.861049e+003;2.544511e-002
1.862977e+003;2.560616e-002
1.864906e+003;2.548432e-002
1.866834e+003;2.521491e-002
1.868763e+003;2.519907e-002
1.870692e+003;2.532473e-002
1.872620e+003;2.534759e-002
1.874549e+003;2.547157e-002
1.876477e+003;2.573232e-002
1.878406e+003;2.559790e-002
1.880334e+003;2.532466e-002
1.882263e+003;2.532641e-002
1.884191e+003;2.539589e-002
1.886120e+003;2.534594e-002
1.888048e+003;2.541799e-002
1.889977e+003;2.562078e-002
1.891906e+003;2.586470e-002
1.893834e+003;2.591306e-002
1.895763e+003;2.584174e-002
1.897691e+003;2.582257e-002
1.899620e+003;2.582539e-002
1.901548e+003;2.597219e-002
1.903477e+003;2.598787e-002
1.905405e+003;2.571920e-002
1.907334e+003;2.558792e-002
1.909262e+003;2.564500e-002
1.911191e+003;2.556732e-002
1.913120e+003;2.547153e-002
1.915048e+003;2.535739e-002
1.916977e+003;2.518138e-002
1.918905e+003;2.512022e-002
1.920834e+003;2.525765e-002
1.922762e+003;2.553285e-002
1.924691e+003;2.546398e-002
1.926619e+003;2.538996e-002
1.928548e+003;2.546549e-002
1.930477e+003;2.528672e-002
1.932405e+003;2.527721e-002
1.934334e+003;2.542870e-002
1.936262e+003;2.538427e-002
1.938191e+003;2.530657e-002
1.940119e+003;2.515459e-002
1.942048e+003;2.499083e-002
1.943976e+003;2.505355e-002
1.945905e+003;2.512460e-002
1.947833e+003;2.512215e-002
1.949762e+003;2.516010e-002
1.951691e+003;2.507209e-002
1.953619e+003;2.515174e-002
1.955548e+003;2.527120e-002
1.957476e+003;2.539860e-002
1.959405e+003;2.536516e-002
1.961333e+003;2.546141e-002
1.963262e+003;2.559372e-002
1.965190e+003;2.544255e-002
1.967119e+003;2.546412e-002
1.969047e+003;2.556005e-002
1.970976e+003;2.545867e-002
1.972905e+003;2.562542e-002
1.974833e+003;2.589983e-002
1.976762e+003;2.603216e-002
1.978690e+003;2.604564e-002
1.980619e+003;2.596853e-002
1.982547e+003;2.597363e-002
1.984476e+003;2.586010e-002
1.986404e+003;2.575035e-002
1.988333e+003;2.564303e-002
1.990261e+003;2.565171e-002
1.992190e+003;2.569242e-002
1.994119e+003;2.575218e-002
1.996047e+003;2.576027e-002
1.997976e+003;2.575538e-002
1.999904e+003;2.577489e-002
2.001833e+003;2.578351e-002
2.003761e+003;2.598763e-002
2.005690e+003;2.617076e-002
2.007618e+003;2.602622e-002
2.009547e+003;2.589618e-002
2.011476e+003;2.601679e-002
2.013404e+003;2.622817e-002
2.015333e+003;2.636479e-002
2.017261e+003;2.640302e-002
2.019190e+003;2.644105e-002
2.021118e+003;2.651409e-002
2.023047e+003;2.648395e-002
2.024975e+003;2.647331e-002
2.026904e+003;2.656185e-002
2.028833e+003;2.672723e-002
2.030761e+003;2.686718e-002
2.032690e+003;2.688431e-002
2.034618e+003;2.688321e-002
2.036547e+003;2.693102e-002
2.038475e+003;2.710143e-002
2.040404e+003;2.720330e-002
2.042332e+003;2.703778e-002
2.044261e+003;2.711282e-002
2.046189e+003;2.712319e-002
2.048118e+003;2.713148e-002
2.050047e+003;2.731962e-002
2.051975e+003;2.720626e-002
2.053904e+003;2.709917e-002
2.055832e+003;2.735691e-002
2.057761e+003;2.750614e-002
2.059689e+003;2.736831e-002
2.061618e+003;2.736782e-002
2.063546e+003;2.746142e-002
2.065475e+003;2.756139e-002
2.067404e+003;2.758533e-002
2.069332e+003;2.751285e-002
2.071260e+003;2.755521e-002
2.073189e+003;2.757085e-002
2.075118e+003;2.744320e-002
2.077046e+003;2.735903e-002
2.078975e+003;2.729234e-002
2.080903e+003;2.728296e-002
2.082832e+003;2.735413e-002
2.084760e+003;2.736492e-002
2.086689e+003;2.727283e-002
2.088617e+003;2.715702e-002
2.090546e+003;2.702297e-002
2.092475e+003;2.692562e-002
2.094403e+003;2.667082e-002
2.096332e+003;2.666659e-002
2.098260e+003;2.695510e-002
2.100189e+003;2.696853e-002
2.102117e+003;2.696624e-002
2.104046e+003;2.723631e-002
2.105974e+003;2.750716e-002
2.107903e+003;2.742520e-002
2.109832e+003;2.725597e-002
2.111760e+003;2.715479e-002
2.113688e+003;2.713275e-002
2.115617e+003;2.726076e-002
2.117546e+003;2.746060e-002
2.119474e+003;2.776179e-002
2.121403e+003;2.781078e-002
2.123331e+003;2.756269e-002
2.125260e+003;2.766453e-002
2.127188e+003;2.781467e-002
2.129117e+003;2.780273e-002
2.131045e+003;2.776529e-002
2.132974e+003;2.776857e-002
2.134903e+003;2.772092e-002
2.136831e+003;2.775660e-002
2.138760e+003;2.787254e-002
2.140688e+003;2.793847e-002
2.142617e+003;2.792458e-002
2.144545e+003;2.802738e-002
2.146474e+003;2.799617e-002
2.148402e+003;2.795285e-002
2.150331e+003;2.803159e-002
2.152260e+003;2.816729e-002
2.154188e+003;2.795179e-002
2.156117e+003;2.775352e-002
2.158045e+003;2.809906e-002
2.159974e+003;2.828125e-002
2.161902e+003;2.841049e-002
2.163831e+003;2.864568e-002
2.165759e+003;2.854504e-002
2.167688e+003;2.846550e-002
2.169616e+003;2.862073e-002
2.171545e+003;2.865538e-002
2.173474e+003;2.866356e-002
2.175402e+003;2.868883e-002
2.177331e+003;2.866480e-002
2.179259e+003;2.869502e-002
2.181188e+003;2.858559e-002
2.183116e+003;2.871906e-002
2.185045e+003;2.902991e-002
2.186973e+003;2.897366e-002
2.188902e+003;2.885431e-002
2.190831e+003;2.913013e-002
2.192759e+003;2.934973e-002
2.194688e+003;2.929858e-002
2.196616e+003;2.899866e-002
2.198545e+003;2.889783e-002
2.200473e+003;2.909197e-002
2.202402e+003;2.914434e-002
2.204330e+003;2.893742e-002
2.206259e+003;2.882177e-002
2.208188e+003;2.867881e-002
2.210116e+003;2.847877e-002
2.212044e+003;2.847374e-002
2.213973e+003;2.855307e-002
2.215902e+003;2.831011e-002
2.217830e+003;2.812617e-002
2.219759e+003;2.819388e-002
2.221687e+003;2.826110e-002
2.223616e+003;2.826778e-002
2.225544e+003;2.815407e-002
2.227473e+003;2.791910e-002
2.229401e+003;2.769154e-002
2.231330e+003;2.767657e-002
2.233259e+003;2.768932e-002
2.235187e+003;2.753131e-002
2.237116e+003;2.755157e-002
2.239044e+003;2.779058e-002
2.240973e+003;2.792744e-002
2.242901e+003;2.781365e-002
2.244830e+003;2.770147e-002
2.246758e+003;2.761802e-002
2.248687e+003;2.773283e-002
2.250615e+003;2.790031e-002
2.252544e+003;2.793059e-002
2.254473e+003;2.803014e-002
2.256401e+003;2.835075e-002
2.258330e+003;2.841120e-002
2.260258e+003;2.814544e-002
2.262187e+003;2.804067e-002
2.264115e+003;2.822627e-002
2.266044e+003;2.845475e-002
2.267972e+003;2.850870e-002
2.269901e+003;2.846628e-002
2.271830e+003;2.850003e-002
2.273758e+003;2.853188e-002
2.275687e+003;2.853106e-002
2.277615e+003;2.868211e-002
2.279544e+003;2.864285e-002
2.281472e+003;2.862884e-002
2.283401e+003;2.881550e-002
2.285329e+003;2.891047e-002
2.287258e+003;2.900004e-002
2.289187e+003;2.901804e-002
2.291115e+003;2.887874e-002
2.293043e+003;2.888462e-002
2.294972e+003;2.895949e-002
2.296901e+003;2.893356e-002
2.298829e+003;2.895446e-002
2.300758e+003;2.914363e-002
2.302686e+003;2.930896e-002
2.304615e+003;2.933782e-002
2.306543e+003;2.933789e-002
2.308472e+003;2.939440e-002
2.310400e+003;2.931364e-002
2.312329e+003;2.930297e-002
2.314258e+003;2.951450e-002
2.316186e+003;2.947688e-002
2.318115e+003;2.911731e-002
2.320043e+003;2.893360e-002
2.321972e+003;2.899632e-002
2.323900e+003;2.903763e-002
2.325829e+003;2.913276e-002
2.327757e+003;2.921337e-002
2.329686e+003;2.914523e-002
2.331615e+003;2.927643e-002
2.333543e+003;2.953698e-002
2.335472e+003;2.933679e-002
2.337400e+003;2.913237e-002
2.339329e+003;2.914094e-002
2.341257e+003;2.912765e-002
2.343186e+003;2.907848e-002
2.345114e+003;2.898000e-002
2.347043e+003;2.894702e-002
2.348971e+003;2.905261e-002
2.350900e+003;2.922000e-002
2.352829e+003;2.911795e-002
2.354757e+003;2.883193e-002
2.356686e+003;2.874165e-002
2.358614e+003;2.892067e-002
2.360543e+003;2.895634e-002
2.362471e+003;2.887977e-002
2.364400e+003;2.891685e-002
2.366328e+003;2.918180e-002
2.368257e+003;2.919739e-002
2.370186e+003;2.927639e-002
2.372114e+003;2.961165e-002
2.374042e+003;2.983348e-002
2.375971e+003;2.984856e-002
2.377900e+003;2.980792e-002
2.379828e+003;2.978471e-002
2.381757e+003;2.988146e-002
2.383685e+003;2.980320e-002
2.385614e+003;2.973692e-002
2.387542e+003;2.984267e-002
2.389471e+003;3.006305e-002
2.391399e+003;3.018714e-002
2.393328e+003;3.020273e-002
2.395257e+003;3.016068e-002
2.397185e+003;3.015023e-002
2.399114e+003;3.010030e-002
2.401042e+003;3.016554e-002
2.402971e+003;3.025722e-002
2.404899e+003;3.028937e-002
2.406828e+003;3.025175e-002
2.408756e+003;2.989992e-002
2.410685e+003;2.961605e-002
2.412614e+003;2.968309e-002
2.414542e+003;2.979458e-002
2.416471e+003;3.004132e-002
2.418399e+003;3.021090e-002
2.420328e+003;3.037212e-002
2.422256e+003;3.060124e-002
2.424185e+003;3.083503e-002
2.426113e+003;3.073600e-002
2.428042e+003;3.047952e-002
2.429970e+003;3.052115e-002
2.431899e+003;3.072573e-002
2.433828e+003;3.062922e-002
2.435756e+003;3.061354e-002
2.437685e+003;3.081575e-002
2.439613e+003;3.101602e-002
2.441542e+003;3.132794e-002
2.443470e+003;3.150081e-002
2.445399e+003;3.137200e-002
2.447327e+003;3.142614e-002
2.449256e+003;3.176556e-002
2.451185e+003;3.212012e-002
2.453113e+003;3.202865e-002
2.455042e+003;3.182520e-002
2.456970e+003;3.195707e-002
2.458899e+003;3.221799e-002
2.460827e+003;3.242705e-002
2.462756e+003;3.232114e-002
2.464684e+003;3.243023e-002
2.466613e+003;3.273013e-002
2.468542e+003;3.266675e-002
2.470470e+003;3.270412e-002
2.472398e+003;3.280745e-002
2.474327e+003;3.291024e-002
2.476256e+003;3.302516e-002
2.478184e+003;3.291867e-002
2.480113e+003;3.283551e-002
2.482041e+003;3.291724e-002
2.483970e+003;3.298520e-002
2.485898e+003;3.320979e-002
2.487827e+003;3.323622e-002
2.489755e+003;3.317313e-002
2.491684e+003;3.325987e-002
2.493613e+003;3.332630e-002
2.495541e+003;3.333059e-002
2.497470e+003;3.311323e-002
2.499398e+003;3.297039e-002
2.501327e+003;3.322134e-002
2.503255e+003;3.331979e-002
2.505184e+003;3.311938e-002
2.507112e+003;3.320904e-002
2.509041e+003;3.370953e-002
2.510969e+003;3.404511e-002
2.512898e+003;3.394775e-002
2.514827e+003;3.390935e-002
2.516755e+003;3.395399e-002
2.518684e+003;3.400111e-002
2.520612e+003;3.415919e-002
2.522541e+003;3.431572e-002
2.524469e+003;3.448013e-002
2.526398e+003;3.487357e-002
2.528326e+003;3.528947e-002
2.530255e+003;3.558243e-002
2.532184e+003;3.569390e-002
2.534112e+003;3.563099e-002
2.536041e+003;3.555136e-002
2.537969e+003;3.558064e-002
2.539898e+003;3.584789e-002
2.541826e+003;3.594538e-002
2.543755e+003;3.593213e-002
2.545683e+003;3.615250e-002
2.547612e+003;3.638079e-002
2.549541e+003;3.634822e-002
2.551469e+003;3.617130e-002
2.553397e+003;3.626076e-002
2.555326e+003;3.645981e-002
2.557255e+003;3.624333e-002
2.559183e+003;3.616269e-002
2.561112e+003;3.632301e-002
2.563040e+003;3.633932e-002
2.564969e+003;3.640302e-002
2.566897e+003;3.651985e-002
2.568826e+003;3.661252e-002
2.570754e+003;3.647055e-002
2.572683e+003;3.663293e-002
2.574612e+003;3.695295e-002
2.576540e+003;3.700545e-002
2.578469e+003;3.698791e-002
2.580397e+003;3.725260e-002
2.582326e+003;3.756333e-002
2.584254e+003;3.772416e-002
2.586183e+003;3.779269e-002
2.588111e+003;3.760372e-002
2.590040e+003;3.745186e-002
2.591969e+003;3.764730e-002
2.593897e+003;3.802279e-002
2.595826e+003;3.829980e-002
2.597754e+003;3.830899e-002
2.599683e+003;3.825790e-002
2.601611e+003;3.838246e-002
2.603540e+003;3.848516e-002
2.605468e+003;3.829097e-002
2.607397e+003;3.829636e-002
2.609325e+003;3.854429e-002
2.611254e+003;3.852177e-002
2.613183e+003;3.846942e-002
2.615111e+003;3.849375e-002
2.617040e+003;3.859314e-002
2.618968e+003;3.862392e-002
2.620897e+003;3.878743e-002
2.622825e+003;3.889874e-002
2.624754e+003;3.890526e-002
2.626682e+003;3.877736e-002
2.628611e+003;3.872012e-002
2.630540e+003;3.906463e-002
2.632468e+003;3.946657e-002
2.634396e+003;3.958267e-002
2.636325e+003;3.934782e-002
2.638254e+003;3.932798e-002
2.640182e+003;3.947819e-002
2.642111e+003;3.936470e-002
2.644039e+003;3.941509e-002
2.645968e+003;3.976934e-002
2.647896e+003;4.013573e-002
2.649825e+003;4.004798e-002
2.651753e+003;3.991305e-002
2.653682e+003;4.001698e-002
2.655611e+003;4.005564e-002
2.657539e+003;4.007079e-002
2.659468e+003;4.023576e-002
2.661396e+003;4.064835e-002
2.663325e+003;4.074020e-002
2.665253e+003;4.053412e-002
2.667182e+003;4.046039e-002
2.669110e+003;4.067208e-002
2.671039e+003;4.080822e-002
2.672968e+003;4.052000e-002
2.674896e+003;4.056023e-002
2.676825e+003;4.100653e-002
2.678753e+003;4.127117e-002
2.680682e+003;4.111171e-002
2.682610e+003;4.116751e-002
2.684539e+003;4.125513e-002
2.686467e+003;4.147898e-002
2.688396e+003;4.184014e-002
2.690324e+003;4.230612e-002
2.692253e+003;4.267645e-002
2.694182e+003;4.257498e-002
2.696110e+003;4.236445e-002
2.698039e+003;4.242572e-002
2.699967e+003;4.278361e-002
2.701896e+003;4.329310e-002
2.703824e+003;4.368461e-002
2.705753e+003;4.388882e-002
2.707681e+003;4.359306e-002
2.709610e+003;4.327480e-002
2.711539e+003;4.358932e-002
2.713467e+003;4.395594e-002
2.715396e+003;4.422124e-002
2.717324e+003;4.468542e-002
2.719253e+003;4.511583e-002
2.721181e+003;4.534973e-002
2.723110e+003;4.563995e-002
2.725038e+003;4.576496e-002
2.726967e+003;4.603812e-002
2.728896e+003;4.656041e-002
2.730824e+003;4.698902e-002
2.732752e+003;4.737789e-002
2.734681e+003;4.767562e-002
2.736610e+003;4.792118e-002
2.738538e+003;4.801255e-002
2.740467e+003;4.802931e-002
2.742395e+003;4.820029e-002
2.744324e+003;4.846627e-002
2.746252e+003;4.856942e-002
2.748181e+003;4.844108e-002
2.750109e+003;4.827690e-002
2.752038e+003;4.834756e-002
2.753967e+003;4.857676e-002
2.755895e+003;4.888361e-002
2.757824e+003;4.911302e-002
2.759752e+003;4.891669e-002
2.761681e+003;4.890775e-002
2.763609e+003;4.928502e-002
2.765538e+003;4.953180e-002
2.767466e+003;4.960493e-002
2.769395e+003;4.970827e-002
2.771323e+003;4.997246e-002
2.773252e+003;5.026252e-002
2.775181e+003;5.041183e-002
2.777109e+003;5.054150e-002
2.779038e+003;5.084125e-002
2.780966e+003;5.113040e-002
2.782895e+003;5.121379e-002
2.784823e+003;5.160325e-002
2.786752e+003;5.188779e-002
2.788680e+003;5.204289e-002
2.790609e+003;5.253779e-002
2.792538e+003;5.291871e-002
2.794466e+003;5.306463e-002
2.796395e+003;5.343338e-002
2.798323e+003;5.387792e-002
2.800252e+003;5.408360e-002
2.802180e+003;5.448214e-002
2.804109e+003;5.517787e-002
2.806037e+003;5.580056e-002
2.807966e+003;5.626254e-002
2.809895e+003;5.654102e-002
2.811823e+003;5.673955e-002
2.813751e+003;5.741863e-002
2.815680e+003;5.833160e-002
2.817609e+003;5.904966e-002
2.819537e+003;5.966212e-002
2.821466e+003;6.003717e-002
2.823394e+003;6.043269e-002
2.825323e+003;6.096394e-002
2.827251e+003;6.143465e-002
2.829180e+003;6.234141e-002
2.831108e+003;6.359552e-002
2.833037e+003;6.462707e-002
2.834966e+003;6.571119e-002
2.836894e+003;6.754277e-002
2.838823e+003;7.010495e-002
2.840751e+003;7.343999e-002
2.842680e+003;7.768440e-002
2.844608e+003;8.282028e-002
2.846537e+003;8.827351e-002
2.848465e+003;9.363035e-002
2.850394e+003;9.876122e-002
2.852323e+003;1.028113e-001
2.854251e+003;1.056264e-001
2.856180e+003;1.079495e-001
2.858108e+003;1.095072e-001
2.860037e+003;1.100799e-001
2.861965e+003;1.096471e-001
2.863894e+003;1.084340e-001
2.865822e+003;1.069488e-001
2.867751e+003;1.054286e-001
2.869679e+003;1.033204e-001
2.871608e+003;1.005400e-001
2.873536e+003;9.764294e-002
2.875465e+003;9.452652e-002
2.877394e+003;9.105572e-002
2.879322e+003;8.844598e-002
2.881251e+003;8.695769e-002
2.883179e+003;8.611091e-002
2.885108e+003;8.567158e-002
2.887036e+003;8.579534e-002
2.888965e+003;8.677864e-002
2.890893e+003;8.805038e-002
2.892822e+003;9.018417e-002
2.894750e+003;9.267532e-002
2.896679e+003;9.472136e-002
2.898608e+003;9.661348e-002
2.900536e+003;9.807209e-002
2.902465e+003;9.923998e-002
2.904393e+003;1.005612e-001
2.906322e+003;1.021653e-001
2.908250e+003;1.042166e-001
2.910179e+003;1.066181e-001
2.912107e+003;1.094866e-001
2.914036e+003;1.128492e-001
2.915965e+003;1.166281e-001
2.917893e+003;1.205479e-001
2.919822e+003;1.243452e-001
2.921750e+003;1.277113e-001
2.923679e+003;1.306344e-001
2.925607e+003;1.333437e-001
2.927536e+003;1.358235e-001
2.929464e+003;1.378494e-001
2.931393e+003;1.391747e-001
2.933322e+003;1.395378e-001
2.935250e+003;1.389121e-001
2.937178e+003;1.370331e-001
2.939107e+003;1.339737e-001
2.941036e+003;1.306230e-001
2.942964e+003;1.271403e-001
2.944893e+003;1.232993e-001
2.946821e+003;1.182933e-001
2.948750e+003;1.122389e-001
2.950678e+003;1.057108e-001
2.952607e+003;9.894697e-002
2.954535e+003;9.287179e-002
2.956464e+003;8.776612e-002
2.958393e+003;8.324020e-002
2.960321e+003;7.932603e-002
2.962250e+003;7.615751e-002
2.964178e+003;7.325730e-002
2.966107e+003;7.039829e-002
2.968035e+003;6.775515e-002
2.969964e+003;6.527267e-002
2.971892e+003;6.309461e-002
2.973821e+003;6.111662e-002
2.975750e+003;5.914943e-002
2.977678e+003;5.738982e-002
2.979607e+003;5.579842e-002
2.981535e+003;5.477655e-002
2.983464e+003;5.408731e-002
2.985392e+003;5.298029e-002
2.987321e+003;5.191233e-002
2.989249e+003;5.142220e-002
2.991178e+003;5.095320e-002
2.993106e+003;5.050521e-002
2.995035e+003;5.023700e-002
2.996964e+003;5.031338e-002
2.998892e+003;5.003552e-002
3.000821e+003;4.964381e-002
3.002749e+003;4.971983e-002
3.004678e+003;4.985995e-002
3.006606e+003;4.993503e-002
3.008535e+003;4.988790e-002
3.010463e+003;4.980948e-002
3.012392e+003;5.008017e-002
3.014321e+003;5.030713e-002
3.016249e+003;5.051712e-002
3.018177e+003;5.068513e-002
3.020106e+003;5.094835e-002
3.022035e+003;5.119153e-002
3.023963e+003;5.164363e-002
3.025892e+003;5.204244e-002
3.027820e+003;5.220637e-002
3.029749e+003;5.254938e-002
3.031677e+003;5.330622e-002
3.033606e+003;5.393126e-002
3.035534e+003;5.410000e-002
3.037463e+003;5.469773e-002
3.039392e+003;5.559674e-002
3.041320e+003;5.610789e-002
3.043249e+003;5.669065e-002
3.045177e+003;5.754958e-002
3.047106e+003;5.842715e-002
3.049034e+003;5.924710e-002
3.050963e+003;6.017990e-002
3.052891e+003;6.103082e-002
3.054820e+003;6.175577e-002
3.056749e+003;6.232619e-002
3.058677e+003;6.263898e-002
3.060606e+003;6.296738e-002
3.062534e+003;6.332514e-002
3.064463e+003;6.368222e-002
3.066391e+003;6.411898e-002
3.068320e+003;6.428497e-002
3.070248e+003;6.425269e-002
3.072177e+003;6.419703e-002
3.074105e+003;6.432008e-002
3.076034e+003;6.451601e-002
3.077963e+003;6.488215e-002
3.079891e+003;6.481445e-002
3.081820e+003;6.431343e-002
3.083748e+003;6.430013e-002
3.085677e+003;6.423460e-002
3.087605e+003;6.378007e-002
3.089534e+003;6.306970e-002
3.091462e+003;6.278452e-002
3.093391e+003;6.261184e-002
3.095320e+003;6.180561e-002
3.097248e+003;6.106785e-002
3.099177e+003;6.064070e-002
3.101105e+003;5.979100e-002
3.103034e+003;5.889500e-002
3.104962e+003;5.846616e-002
3.106891e+003;5.805943e-002
3.108819e+003;5.716420e-002
3.110748e+003;5.651785e-002
3.112677e+003;5.606453e-002
3.114605e+003;5.578244e-002
3.116533e+003;5.538797e-002
3.118462e+003;5.488515e-002
3.120391e+003;5.497995e-002
3.122319e+003;5.488959e-002
3.124248e+003;5.448421e-002
3.126176e+003;5.445796e-002
3.128105e+003;5.457749e-002
3.130033e+003;5.453417e-002
3.131962e+003;5.405166e-002
3.133890e+003;5.373154e-002
3.135819e+003;5.380883e-002
3.137748e+003;5.394169e-002
3.139676e+003;5.417082e-002
3.141605e+003;5.402037e-002
3.143533e+003;5.375014e-002
3.145462e+003;5.412485e-002
3.147390e+003;5.454638e-002
3.149319e+003;5.474035e-002
3.151247e+003;5.496848e-002
3.153176e+003;5.505186e-002
3.155104e+003;5.519255e-002
3.157033e+003;5.561102e-002
3.158962e+003;5.595989e-002
3.160890e+003;5.634587e-002
3.162819e+003;5.692536e-002
3.164747e+003;5.724316e-002
3.166676e+003;5.754473e-002
3.168604e+003;5.826665e-002
3.170533e+003;5.900563e-002
3.172461e+003;5.965455e-002
3.174390e+003;6.015992e-002
3.176319e+003;6.042183e-002
3.178247e+003;6.089767e-002
3.180176e+003;6.159372e-002
3.182104e+003;6.220898e-002
3.184033e+003;6.279689e-002
3.185961e+003;6.356250e-002
3.187890e+003;6.406341e-002
3.189818e+003;6.450982e-002
3.191747e+003;6.508292e-002
3.193676e+003;6.543047e-002
3.195604e+003;6.550710e-002
3.197532e+003;6.562971e-002
3.199461e+003;6.643728e-002
3.201390e+003;6.690530e-002
3.203318e+003;6.682012e-002
3.205247e+003;6.719139e-002
3.207175e+003;6.768757e-002
3.209104e+003;6.800567e-002
3.211032e+003;6.845437e-002
3.212961e+003;6.883588e-002
3.214889e+003;6.929690e-002
3.216818e+003;6.988978e-002
3.218747e+003;7.029551e-002
3.220675e+003;7.068010e-002
3.222604e+003;7.131688e-002
3.224532e+003;7.222799e-002
3.226461e+003;7.333296e-002
3.228389e+003;7.410116e-002
3.230318e+003;7.482155e-002
3.232246e+003;7.576557e-002
3.234175e+003;7.694513e-002
3.236104e+003;7.868700e-002
3.238032e+003;8.034691e-002
3.239961e+003;8.166207e-002
3.241889e+003;8.349983e-002
3.243818e+003;8.555572e-002
3.245746e+003;8.718342e-002
3.247675e+003;8.872593e-002
3.249603e+003;9.019723e-002
3.251532e+003;9.199430e-002
3.253460e+003;9.424327e-002
3.255389e+003;9.659155e-002
3.257318e+003;9.891098e-002
3.259246e+003;1.010816e-001
3.261175e+003;1.033352e-001
3.263103e+003;1.054594e-001
3.265032e+003;1.077081e-001
3.266960e+003;1.104866e-001
3.268889e+003;1.133295e-001
3.270817e+003;1.156379e-001
3.272746e+003;1.177120e-001
3.274675e+003;1.204632e-001
3.276603e+003;1.235639e-001
3.278531e+003;1.264040e-001
3.280460e+003;1.290101e-001
3.282389e+003;1.313145e-001
3.284317e+003;1.335915e-001
3.286246e+003;1.357675e-001
3.288174e+003;1.378688e-001
3.290103e+003;1.395349e-001
3.292031e+003;1.398732e-001
3.293960e+003;1.395690e-001
3.295888e+003;1.387218e-001
3.297817e+003;1.372207e-001
3.299746e+003;1.349026e-001
3.301674e+003;1.316973e-001
3.303603e+003;1.277912e-001
3.305531e+003;1.239292e-001
3.307460e+003;1.207661e-001
3.309388e+003;1.174418e-001
3.311317e+003;1.135673e-001
3.313245e+003;1.099945e-001
3.315174e+003;1.071045e-001
3.317103e+003;1.043326e-001
3.319031e+003;1.008041e-001
3.320960e+003;9.705339e-002
3.322888e+003;9.408452e-002
3.324817e+003;9.133188e-002
3.326745e+003;8.838470e-002
3.328674e+003;8.572301e-002
3.330602e+003;8.306140e-002
3.332531e+003;8.081853e-002
3.334459e+003;7.885408e-002
3.336388e+003;7.651480e-002
3.338317e+003;7.454924e-002
3.340245e+003;7.344403e-002
3.342174e+003;7.173716e-002
3.344102e+003;6.963490e-002
3.346031e+003;6.776413e-002
3.347959e+003;6.610443e-002
3.349888e+003;6.448641e-002
3.351816e+003;6.323962e-002
3.353745e+003;6.223410e-002
3.355674e+003;6.112543e-002
3.357602e+003;6.014584e-002
3.359531e+003;5.905012e-002
3.361459e+003;5.790156e-002
3.363388e+003;5.722067e-002
3.365316e+003;5.651120e-002
3.367245e+003;5.537649e-002
3.369173e+003;5.422638e-002
3.371102e+003;5.355841e-002
3.373031e+003;5.291407e-002
3.374959e+003;5.203041e-002
3.376887e+003;5.154120e-002
3.378816e+003;5.115794e-002
3.380745e+003;5.084125e-002
3.382673e+003;5.057831e-002
3.384602e+003;5.017389e-002
3.386530e+003;4.963111e-002
3.388459e+003;4.903337e-002
3.390387e+003;4.889574e-002
3.392316e+003;4.877472e-002
3.394244e+003;4.820618e-002
3.396173e+003;4.768545e-002
3.398102e+003;4.752991e-002
3.400030e+003;4.734013e-002
3.401959e+003;4.683949e-002
3.403887e+003;4.675811e-002
3.405816e+003;4.697998e-002
3.407744e+003;4.677176e-002
3.409673e+003;4.638392e-002
3.411601e+003;4.582929e-002
3.413530e+003;4.547760e-002
3.415458e+003;4.535311e-002
3.417387e+003;4.518796e-002
3.419316e+003;4.506271e-002
3.421244e+003;4.506833e-002
3.423173e+003;4.499868e-002
3.425101e+003;4.489943e-002
3.427030e+003;4.496241e-002
3.428958e+003;4.490266e-002
3.430887e+003;4.465204e-002
3.432815e+003;4.481008e-002
3.434744e+003;4.467279e-002
3.436673e+003;4.429642e-002
3.438601e+003;4.411883e-002
3.440530e+003;4.413578e-002
3.442458e+003;4.402242e-002
3.444387e+003;4.393189e-002
3.446315e+003;4.379297e-002
3.448244e+003;4.346925e-002
3.450172e+003;4.351240e-002
3.452101e+003;4.346420e-002
3.454030e+003;4.317466e-002
3.455958e+003;4.303224e-002
3.457886e+003;4.280562e-002
3.459815e+003;4.265408e-002
3.461744e+003;4.246671e-002
3.463672e+003;4.241592e-002
3.465601e+003;4.239284e-002
3.467529e+003;4.277768e-002
3.469458e+003;4.278379e-002
3.471386e+003;4.219174e-002
3.473315e+003;4.167084e-002
3.475243e+003;4.163379e-002
3.477172e+003;4.188403e-002
3.479101e+003;4.203330e-002
3.481029e+003;4.195184e-002
3.482958e+003;4.186776e-002
3.484886e+003;4.185367e-002
3.486815e+003;4.167964e-002
3.488743e+003;4.155379e-002
3.490672e+003;4.162183e-002
3.492600e+003;4.176856e-002
3.494529e+003;4.163893e-002
3.496458e+003;4.124449e-002
3.498386e+003;4.126712e-002
3.500315e+003;4.153494e-002
3.502243e+003;4.179673e-002
3.504172e+003;4.165221e-002
3.506100e+003;4.104677e-002
3.508029e+003;4.062401e-002
3.509957e+003;4.003915e-002
3.511886e+003;4.000220e-002
3.513814e+003;4.045784e-002
3.515743e+003;4.039511e-002
3.517672e+003;4.025252e-002
3.519600e+003;4.033537e-002
3.521529e+003;3.997324e-002
3.523457e+003;3.954383e-002
3.525386e+003;3.939383e-002
3.527314e+003;3.924608e-002
3.529243e+003;3.936771e-002
3.531171e+003;3.961613e-002
3.533100e+003;3.921337e-002
3.535029e+003;3.878732e-002
3.536957e+003;3.874269e-002
3.538885e+003;3.864855e-002
3.540814e+003;3.812472e-002
3.542743e+003;3.754675e-002
3.544671e+003;3.750047e-002
3.546600e+003;3.742040e-002
3.548528e+003;3.739653e-002
3.550457e+003;3.717373e-002
3.552385e+003;3.669018e-002
3.554314e+003;3.649963e-002
3.556242e+003;3.615804e-002
3.558171e+003;3.582507e-002
3.560100e+003;3.565678e-002
3.562028e+003;3.571379e-002
3.563957e+003;3.548811e-002
3.565885e+003;3.485738e-002
3.567814e+003;3.465188e-002
3.569742e+003;3.465809e-002
3.571671e+003;3.442198e-002
3.573599e+003;3.421178e-002
3.575528e+003;3.419540e-002
3.577457e+003;3.396033e-002
3.579385e+003;3.351001e-002
3.581314e+003;3.309635e-002
3.583242e+003;3.265450e-002
3.585171e+003;3.232552e-002
3.587099e+003;3.221592e-002
3.589028e+003;3.210624e-002
3.590956e+003;3.178527e-002
3.592885e+003;3.140074e-002
3.594813e+003;3.115640e-002
3.596742e+003;3.129917e-002
3.598671e+003;3.145656e-002
3.600599e+003;3.125217e-002
3.602528e+003;3.078583e-002
3.604456e+003;3.024827e-002
3.606385e+003;2.977471e-002
3.608313e+003;2.933395e-002
3.610242e+003;2.924063e-002
3.612170e+003;2.930574e-002
3.614099e+003;2.922794e-002
3.616028e+003;2.836716e-002
3.617956e+003;2.786724e-002
3.619885e+003;2.842988e-002
3.621813e+003;2.865443e-002
3.623742e+003;2.850088e-002
3.625670e+003;2.836847e-002
3.627599e+003;2.744108e-002
3.629527e+003;2.698454e-002
3.631456e+003;2.741426e-002
3.633385e+003;2.758628e-002
3.635313e+003;2.748849e-002
3.637241e+003;2.714354e-002
3.639170e+003;2.679781e-002
3.641099e+003;2.655682e-002
3.643027e+003;2.622401e-002
3.644956e+003;2.582380e-002
3.646884e+003;2.526629e-002
3.648813e+003;2.479686e-002
3.650741e+003;2.491636e-002
3.652670e+003;2.506559e-002
3.654598e+003;2.496717e-002
3.656527e+003;2.504169e-002
3.658456e+003;2.471972e-002
3.660384e+003;2.424633e-002
3.662313e+003;2.418201e-002
3.664241e+003;2.425544e-002
3.666170e+003;2.443017e-002
3.668098e+003;2.418583e-002
3.670027e+003;2.389275e-002
3.671955e+003;2.400216e-002
3.673884e+003;2.343932e-002
3.675813e+003;2.315890e-002
3.677741e+003;2.371764e-002
3.679669e+003;2.360970e-002
3.681598e+003;2.342288e-002
3.683527e+003;2.338340e-002
3.685455e+003;2.330064e-002
3.687384e+003;2.267314e-002
3.689312e+003;2.221324e-002
3.691241e+003;2.231400e-002
3.693169e+003;2.228246e-002
3.695098e+003;2.197888e-002
3.697026e+003;2.180663e-002
3.698955e+003;2.187398e-002
3.700884e+003;2.193856e-002
3.702812e+003;2.221383e-002
3.704741e+003;2.215232e-002
3.706669e+003;2.171407e-002
3.708598e+003;2.145245e-002
3.710526e+003;2.120532e-002
3.712455e+003;2.134521e-002
3.714383e+003;2.153075e-002
3.716312e+003;2.144072e-002
3.718240e+003;2.119019e-002
3.720169e+003;2.092308e-002
3.722098e+003;2.082754e-002
3.724026e+003;2.097054e-002
3.725955e+003;2.093970e-002
3.727883e+003;2.080175e-002
3.729812e+003;2.037098e-002
3.731740e+003;2.013161e-002
3.733669e+003;2.050862e-002
3.735597e+003;2.030150e-002
3.737526e+003;2.049615e-002
3.739455e+003;2.114218e-002
3.741383e+003;2.113919e-002
3.743312e+003;2.045391e-002
3.745240e+003;2.070596e-002
3.747169e+003;2.124123e-002
3.749097e+003;2.060704e-002
3.751026e+003;2.024338e-002
3.752954e+003;2.061054e-002
3.754883e+003;2.112514e-002
3.756812e+003;2.109460e-002
3.758740e+003;2.069029e-002
3.760668e+003;2.093928e-002
3.762597e+003;2.173975e-002
3.764526e+003;2.173609e-002
3.766454e+003;2.144333e-002
3.768383e+003;2.115036e-002
3.770311e+003;2.123281e-002
3.772240e+003;2.139272e-002
3.774168e+003;2.162425e-002
3.776097e+003;2.167649e-002
3.778025e+003;2.129165e-002
3.779954e+003;2.110754e-002
3.781883e+003;2.134970e-002
3.783811e+003;2.155398e-002
3.785740e+003;2.146920e-002
3.787668e+003;2.113150e-002
3.789597e+003;2.104086e-002
3.791525e+003;2.086373e-002
3.793454e+003;2.043325e-002
3.795382e+003;2.030886e-002
3.797311e+003;2.054474e-002
3.799240e+003;2.081444e-002
3.801168e+003;2.095708e-002
3.803097e+003;2.130167e-002
3.805025e+003;2.103909e-002
3.806954e+003;2.083085e-002
3.808882e+003;2.128208e-002
3.810811e+003;2.145364e-002
3.812739e+003;2.135071e-002
3.814668e+003;2.102636e-002
3.816596e+003;2.102020e-002
3.818525e+003;2.124582e-002
3.820454e+003;2.096421e-002
3.822382e+003;2.150986e-002
3.824311e+003;2.216428e-002
3.826239e+003;2.185123e-002
3.828168e+003;2.158002e-002
3.830096e+003;2.132951e-002
3.832025e+003;2.143125e-002
3.833953e+003;2.171348e-002
3.835882e+003;2.152999e-002
3.837811e+003;2.143898e-002
3.839739e+003;2.171763e-002
3.841667e+003;2.175912e-002
3.843596e+003;2.212170e-002
3.845525e+003;2.242734e-002
3.847453e+003;2.228205e-002
3.849382e+003;2.185691e-002
3.851310e+003;2.142488e-002
3.853239e+003;2.100678e-002
3.855167e+003;2.168126e-002
3.857096e+003;2.252748e-002
3.859024e+003;2.266155e-002
3.860953e+003;2.247748e-002
3.862882e+003;2.234249e-002
3.864810e+003;2.227204e-002
3.866739e+003;2.236032e-002
3.868667e+003;2.215082e-002
3.870596e+003;2.200652e-002
3.872524e+003;2.213816e-002
3.874453e+003;2.193389e-002
3.876381e+003;2.178197e-002
3.878310e+003;2.197202e-002
3.880239e+003;2.222823e-002
3.882167e+003;2.258060e-002
3.884096e+003;2.278825e-002
3.886024e+003;2.237284e-002
3.887953e+003;2.235540e-002
3.889881e+003;2.262140e-002
3.891810e+003;2.275777e-002
3.893738e+003;2.287217e-002
3.895667e+003;2.303156e-002
3.897595e+003;2.299296e-002
3.899524e+003;2.296089e-002
3.901453e+003;2.319448e-002
3.903381e+003;2.313804e-002
3.905310e+003;2.324230e-002
3.907238e+003;2.370046e-002
3.909167e+003;2.406772e-002
3.911095e+003;2.401512e-002
3.913024e+003;2.361424e-002
3.914952e+003;2.347275e-002
3.916881e+003;2.362649e-002
3.918810e+003;2.345334e-002
3.920738e+003;2.294678e-002
3.922667e+003;2.310253e-002
3.924595e+003;2.349832e-002
3.926524e+003;2.391589e-002
3.928452e+003;2.418439e-002
3.930381e+003;2.406341e-002
3.932309e+003;2.431627e-002
3.934238e+003;2.474200e-002
3.936167e+003;2.468191e-002
3.938095e+003;2.417921e-002
3.940023e+003;2.409143e-002
3.941952e+003;2.411731e-002
3.943881e+003;2.417812e-002
3.945809e+003;2.500715e-002
3.947738e+003;2.502554e-002
3.949666e+003;2.428410e-002
3.951595e+003;2.465593e-002
3.953523e+003;2.531198e-002
3.955452e+003;2.510027e-002
3.957380e+003;2.500059e-002
3.959309e+003;2.530130e-002
3.961238e+003;2.520311e-002
3.963166e+003;2.485762e-002
3.965095e+003;2.526242e-002
3.967023e+003;2.564573e-002
3.968952e+003;2.571657e-002
3.970880e+003;2.569544e-002
3.972809e+003;2.574856e-002
3.974737e+003;2.610222e-002
3.976666e+003;2.597831e-002
3.978594e+003;2.554160e-002
3.980523e+003;2.558124e-002
3.982452e+003;2.570275e-002
3.984380e+003;2.549265e-002
3.986309e+003;2.562616e-002
3.988237e+003;2.631539e-002
3.990166e+003;2.661008e-002
3.992094e+003;2.660793e-002
3.994023e+003;2.692298e-002
3.995951e+003;2.703958e-002
3.997880e+003;2.689587e-002
3.999809e+003;2.707625e-002
4.001737e+003;0.000000e+000
