3.992094e+002;0.000000e+000
4.011380e+002;0.000000e+000
4.030665e+002;0.000000e+000
4.049951e+002;0.000000e+000
4.069236e+002;0.000000e+000
4.088522e+002;0.000000e+000
4.107807e+002;0.000000e+000
4.127093e+002;0.000000e+000
4.146378e+002;0.000000e+000
4.165664e+002;0.000000e+000
4.184949e+002;0.000000e+000
4.204235e+002;0.000000e+000
4.223520e+002;0.000000e+000
4.242806e+002;0.000000e+000
4.262091e+002;0.000000e+000
4.281377e+002;0.000000e+000
4.300662e+002;0.000000e+000
4.319948e+002;0.000000e+000
4.339233e+002;0.000000e+000
4.358519e+002;0.000000e+000
4.377804e+002;0.000000e+000
4.397090e+002;0.000000e+000
4.416375e+002;0.000000e+000
4.435660e+002;0.000000e+000
4.454946e+002;0.000000e+000
4.474232e+002;0.000000e+000
4.493517e+002;0.000000e+000
4.512802e+002;0.000000e+000
4.532088e+002;0.000000e+000
4.551373e+002;0.000000e+000
4.570659e+002;0.000000e+000
4.589944e+002;0.000000e+000
4.609230e+002;0.000000e+000
4.628515e+002;0.000000e+000
4.647801e+002;0.000000e+000
4.667086e+002;0.000000e+000
4.686372e+002;0.000000e+000
4.705657e+002;0.000000e+000
4.724943e+002;0.000000e+000
4.744228e+002;0.000000e+000
4.763513e+002;0.000000e+000
4.782799e+002;0.000000e+000
4.802085e+002;0.000000e+000
4.821370e+002;0.000000e+000
4.840656e+002;0.000000e+000
4.859941e+002;0.000000e+000
4.879226e+002;0.000000e+000
4.898512e+002;0.000000e+000
4.917798e+002;0.000000e+000
4.937083e+002;0.000000e+000
4.956368e+002;0.000000e+000
4.975654e+002;0.000000e+000
4.994939e+002;0.000000e+000
5.014225e+002;0.000000e+000
5.033510e+002;0.000000e+000
5.052796e+002;0.000000e+000
5.072081e+002;0.000000e+000
5.091367e+002;0.000000e+000
5.110652e+002;0.000000e+000
5.129938e+002;0.000000e+000
5.149223e+002;0.000000e+000
5.168509e+002;0.000000e+000
5.187794e+002;0.000000e+000
5.207079e+002;0.000000e+000
5.226365e+002;0.000000e+000
5.245651e+002;0.000000e+000
5.264936e+002;0.000000e+000
5.284222e+002;0.000000e+000
5.303507e+002;0.000000e+000
5.322792e+002;0.000000e+000
5.342078e+002;0.000000e+000
5.361364e+002;0.000000e+000
5.380649e+002;0.000000e+000
5.399935e+002;0.000000e+000
5.419220e+002;0.000000e+000
5.438505e+002;0.000000e+000
5.457791e+002;0.000000e+000
5.477076e+002;0.000000e+000
5.496362e+002;0.000000e+000
5.515648e+002;0.000000e+000
5.534933e+002;0.000000e+000
5.554218e+002;0.000000e+000
5.573504e+002;0.000000e+000
5.592789e+002;0.000000e+000
5.612075e+002;0.000000e+000
5.631360e+002;0.000000e+000
5.650646e+002;0.000000e+000
5.669931e+002;0.000000e+000
5.689217e+002;0.000000e+000
5.708502e+002;0.000000e+000
5.727787e+002;0.000000e+000
5.747073e+002;0.000000e+000
5.766359e+002;0.000000e+000
5.785644e+002;0.000000e+000
5.804930e+002;0.000000e+000
5.824215e+002;0.000000e+000
5.843500e+002;0.000000e+000
5.862786e+002;0.000000e+000
5.882072e+002;0.000000e+000
5.901357e+002;0.000000e+000
5.920643e+002;0.000000e+000
5.939928e+002;0.000000e+000
5.959213e+002;0.000000e+000
5.978499e+002;0.000000e+000
5.997784e+002;1.841292e-001
6.017070e+002;1.713527e-001
6.036355e+002;1.643086e-001
6.055641e+002;1.658652e-001
6.074926e+002;1.647502e-001
6.094211e+002;1.679121e-001
6.113497e+002;1.742479e-001
6.132783e+002;1.718777e-001
6.152068e+002;1.663878e-001
6.171354e+002;1.613182e-001
6.190639e+002;1.676186e-001
6.209924e+002;1.781361e-001
6.229210e+002;1.753995e-001
6.248495e+002;1.673244e-001
6.267781e+002;1.671431e-001
6.287067e+002;1.690557e-001
6.306352e+002;1.718899e-001
6.325637e+002;1.712185e-001
6.344923e+002;1.757285e-001
6.364208e+002;1.824923e-001
6.383494e+002;1.828975e-001
6.402780e+002;1.789031e-001
6.422065e+002;1.753506e-001
6.441350e+002;1.785062e-001
6.460636e+002;1.871825e-001
6.479921e+002;1.894571e-001
6.499207e+002;1.870589e-001
6.518492e+002;1.873760e-001
6.537778e+002;1.894209e-001
6.557063e+002;1.909886e-001
6.576349e+002;1.936170e-001
6.595634e+002;1.971710e-001
6.614919e+002;1.998347e-001
6.634205e+002;2.033006e-001
6.653491e+002;2.076695e-001
6.672776e+002;2.101899e-001
6.692062e+002;2.126282e-001
6.711347e+002;2.138810e-001
6.730632e+002;2.152969e-001
6.749918e+002;2.170449e-001
6.769203e+002;2.180675e-001
6.788489e+002;2.198597e-001
6.807775e+002;2.189207e-001
6.827060e+002;2.160215e-001
6.846345e+002;2.159237e-001
6.865631e+002;2.160467e-001
6.884916e+002;2.150893e-001
6.904202e+002;2.118419e-001
6.923488e+002;2.088045e-001
6.942773e+002;2.062410e-001
6.962058e+002;2.041298e-001
6.981344e+002;2.015271e-001
7.000629e+002;1.977054e-001
7.019915e+002;1.943996e-001
7.039200e+002;1.925241e-001
7.058486e+002;1.905777e-001
7.077771e+002;1.892459e-001
7.097057e+002;1.882399e-001
7.116342e+002;1.860579e-001
7.135627e+002;1.840864e-001
7.154913e+002;1.826649e-001
7.174199e+002;1.810903e-001
7.193484e+002;1.800303e-001
7.212770e+002;1.797725e-001
7.232055e+002;1.796712e-001
7.251340e+002;1.798453e-001
7.270626e+002;1.793712e-001
7.289911e+002;1.780463e-001
7.309197e+002;1.737797e-001
7.328483e+002;1.666285e-001
7.347768e+002;1.596757e-001
7.367053e+002;1.534567e-001
7.386339e+002;1.487771e-001
7.405624e+002;1.456181e-001
7.424910e+002;1.423331e-001
7.444196e+002;1.401524e-001
7.463481e+002;1.385021e-001
7.482766e+002;1.355971e-001
7.502052e+002;1.329528e-001
7.521337e+002;1.320457e-001
7.540623e+002;1.310052e-001
7.559908e+002;1.281902e-001
7.579194e+002;1.255455e-001
7.598479e+002;1.238131e-001
7.617765e+002;1.222867e-001
7.637050e+002;1.211845e-001
7.656335e+002;1.201063e-001
7.675621e+002;1.184864e-001
7.694907e+002;1.179114e-001
7.714192e+002;1.180406e-001
7.733478e+002;1.173233e-001
7.752763e+002;1.149312e-001
7.772048e+002;1.129190e-001
7.791334e+002;1.117018e-001
7.810620e+002;1.112416e-001
7.829905e+002;1.110833e-001
7.849191e+002;1.094661e-001
7.868476e+002;1.069316e-001
7.887761e+002;1.058195e-001
7.907047e+002;1.051382e-001
7.926332e+002;1.034120e-001
7.945618e+002;1.015207e-001
7.964903e+002;1.004233e-001
7.984189e+002;9.908219e-002
8.003474e+002;9.772401e-002
8.022759e+002;9.771919e-002
8.042045e+002;9.763725e-002
8.061331e+002;9.657681e-002
8.080616e+002;9.550174e-002
8.099902e+002;9.445309e-002
8.119187e+002;9.279970e-002
8.138472e+002;9.168232e-002
8.157758e+002;9.149665e-002
8.177043e+002;9.164553e-002
8.196329e+002;9.203579e-002
8.215615e+002;9.189762e-002
8.234900e+002;9.184256e-002
8.254185e+002;9.249850e-002
8.273471e+002;9.449881e-002
8.292756e+002;9.631285e-002
8.312042e+002;9.731448e-002
8.331328e+002;9.712511e-002
8.350613e+002;9.560426e-002
8.369898e+002;9.286194e-002
8.389184e+002;9.024356e-002
8.408469e+002;8.762716e-002
8.427755e+002;8.603343e-002
8.447040e+002;8.479167e-002
8.466326e+002;8.343474e-002
8.485611e+002;8.246017e-002
8.504897e+002;8.172053e-002
8.524182e+002;8.157986e-002
8.543467e+002;8.162472e-002
8.562753e+002;8.110790e-002
8.582039e+002;7.990050e-002
8.601324e+002;7.966308e-002
8.620610e+002;8.024331e-002
8.639895e+002;8.083872e-002
8.659180e+002;8.140885e-002
8.678466e+002;8.159277e-002
8.697751e+002;8.124359e-002
8.717037e+002;7.987876e-002
8.736323e+002;7.920521e-002
8.755608e+002;7.974426e-002
8.774893e+002;8.038379e-002
8.794179e+002;8.041681e-002
8.813464e+002;8.049285e-002
8.832750e+002;8.129648e-002
8.852036e+002;8.158949e-002
8.871321e+002;8.128957e-002
8.890606e+002;8.176097e-002
8.909892e+002;8.257348e-002
8.929177e+002;8.225430e-002
8.948463e+002;8.154528e-002
8.967748e+002;8.150917e-002
8.987034e+002;8.141285e-002
9.006319e+002;8.168058e-002
9.025605e+002;8.265528e-002
9.044890e+002;8.354589e-002
9.064175e+002;8.358790e-002
9.083461e+002;8.372690e-002
9.102747e+002;8.466691e-002
9.122032e+002;8.576030e-002
9.141318e+002;8.684424e-002
9.160603e+002;8.751759e-002
9.179888e+002;8.808767e-002
9.199174e+002;8.941352e-002
9.218459e+002;9.102201e-002
9.237745e+002;9.263365e-002
9.257031e+002;9.443455e-002
9.276316e+002;9.565803e-002
9.295601e+002;9.598478e-002
9.314887e+002;9.539417e-002
9.334172e+002;9.400976e-002
9.353458e+002;9.226413e-002
9.372744e+002;9.138917e-002
9.392029e+002;9.119889e-002
9.411314e+002;9.142663e-002
9.430600e+002;9.258965e-002
9.449885e+002;9.453007e-002
9.469171e+002;9.665599e-002
9.488456e+002;9.876928e-002
9.507742e+002;1.004484e-001
9.527027e+002;1.012962e-001
9.546313e+002;1.017517e-001
9.565598e+002;1.023443e-001
9.584883e+002;1.029532e-001
9.604169e+002;1.025496e-001
9.623455e+002;1.012090e-001
9.642740e+002;9.928529e-002
9.662026e+002;9.775459e-002
9.681311e+002;9.736145e-002
9.700596e+002;9.738886e-002
9.719882e+002;9.700064e-002
9.739167e+002;9.654445e-002
9.758453e+002;9.563370e-002
9.777739e+002;9.494955e-002
9.797024e+002;9.507211e-002
9.816309e+002;9.485514e-002
9.835595e+002;9.417836e-002
9.854880e+002;9.339595e-002
9.874166e+002;9.280815e-002
9.893452e+002;9.281176e-002
9.912737e+002;9.258547e-002
9.932022e+002;9.182492e-002
9.951307e+002;9.154271e-002
9.970593e+002;9.160073e-002
9.989879e+002;9.112094e-002
1.000916e+003;9.049381e-002
1.002845e+003;9.002479e-002
1.004773e+003;8.978213e-002
1.006702e+003;8.987757e-002
1.008631e+003;9.018083e-002
1.010559e+003;9.055642e-002
1.012488e+003;9.069856e-002
1.014416e+003;9.042579e-002
1.016345e+003;9.026207e-002
1.018273e+003;9.066868e-002
1.020202e+003;9.144410e-002
1.022130e+003;9.221791e-002
1.024059e+003;9.282144e-002
1.025988e+003;9.400009e-002
1.027916e+003;9.480164e-002
1.029845e+003;9.477782e-002
1.031773e+003;9.422219e-002
1.033702e+003;9.319842e-002
1.035630e+003;9.232683e-002
1.037559e+003;9.196904e-002
1.039487e+003;9.164921e-002
1.041416e+003;9.092800e-002
1.043344e+003;9.072588e-002
1.045273e+003;9.168395e-002
1.047202e+003;9.283736e-002
1.049130e+003;9.297726e-002
1.051059e+003;9.337619e-002
1.052987e+003;9.434981e-002
1.054916e+003;9.562990e-002
1.056844e+003;9.735817e-002
1.058773e+003;9.885406e-002
1.060701e+003;1.001828e-001
1.062630e+003;1.015011e-001
1.064558e+003;1.022435e-001
1.066487e+003;1.025791e-001
1.068416e+003;1.033674e-001
1.070344e+003;1.038469e-001
1.072273e+003;1.043907e-001
1.074201e+003;1.048907e-001
1.076130e+003;1.049572e-001
1.078058e+003;1.045746e-001
1.079987e+003;1.043462e-001
1.081915e+003;1.038413e-001
1.083844e+003;1.030984e-001
1.085773e+003;1.024611e-001
1.087701e+003;1.021484e-001
1.089630e+003;1.014780e-001
1.091558e+003;1.017996e-001
1.093487e+003;1.024603e-001
1.095415e+003;1.029544e-001
1.097344e+003;1.035836e-001
1.099272e+003;1.047267e-001
1.101201e+003;1.066898e-001
1.103129e+003;1.089664e-001
1.105058e+003;1.105470e-001
1.106987e+003;1.115012e-001
1.108915e+003;1.124459e-001
1.110844e+003;1.130936e-001
1.112772e+003;1.131396e-001
1.114701e+003;1.132906e-001
1.116629e+003;1.136958e-001
1.118558e+003;1.131824e-001
1.120486e+003;1.124732e-001
1.122415e+003;1.112706e-001
1.124344e+003;1.084032e-001
1.126272e+003;1.047153e-001
1.128201e+003;1.013152e-001
1.130129e+003;9.830986e-002
1.132058e+003;9.614765e-002
1.133986e+003;9.539149e-002
1.135915e+003;9.460302e-002
1.137843e+003;9.471052e-002
1.139772e+003;9.592779e-002
1.141700e+003;9.688728e-002
1.143629e+003;9.775098e-002
1.145557e+003;9.869139e-002
1.147486e+003;1.003542e-001
1.149415e+003;1.030855e-001
1.151343e+003;1.056273e-001
1.153272e+003;1.081986e-001
1.155200e+003;1.113406e-001
1.157129e+003;1.151427e-001
1.159057e+003;1.195962e-001
1.160986e+003;1.247481e-001
1.162914e+003;1.308642e-001
1.164843e+003;1.368306e-001
1.166771e+003;1.412183e-001
1.168700e+003;1.437991e-001
1.170629e+003;1.432061e-001
1.172557e+003;1.395357e-001
1.174486e+003;1.347681e-001
1.176414e+003;1.301004e-001
1.178343e+003;1.264095e-001
1.180271e+003;1.238663e-001
1.182200e+003;1.226597e-001
1.184128e+003;1.230823e-001
1.186057e+003;1.252351e-001
1.187986e+003;1.287046e-001
1.189914e+003;1.331253e-001
1.191843e+003;1.380477e-001
1.193771e+003;1.433277e-001
1.195700e+003;1.490256e-001
1.197628e+003;1.543652e-001
1.199557e+003;1.564678e-001
1.201485e+003;1.538433e-001
1.203414e+003;1.491313e-001
1.205343e+003;1.454150e-001
1.207271e+003;1.432627e-001
1.209200e+003;1.421995e-001
1.211128e+003;1.414720e-001
1.213057e+003;1.400169e-001
1.214985e+003;1.377100e-001
1.216914e+003;1.347446e-001
1.218842e+003;1.317829e-001
1.220771e+003;1.301106e-001
1.222699e+003;1.297587e-001
1.224628e+003;1.308362e-001
1.226557e+003;1.339602e-001
1.228485e+003;1.382402e-001
1.230414e+003;1.427287e-001
1.232342e+003;1.472608e-001
1.234271e+003;1.510482e-001
1.236199e+003;1.536982e-001
1.238128e+003;1.549717e-001
1.240056e+003;1.552044e-001
1.241985e+003;1.547437e-001
1.243913e+003;1.544629e-001
1.245842e+003;1.553298e-001
1.247771e+003;1.570282e-001
1.249699e+003;1.594929e-001
1.251628e+003;1.625637e-001
1.253556e+003;1.661850e-001
1.255485e+003;1.697637e-001
1.257413e+003;1.724121e-001
1.259342e+003;1.742159e-001
1.261270e+003;1.749753e-001
1.263199e+003;1.732408e-001
1.265127e+003;1.679728e-001
1.267056e+003;1.607832e-001
1.268985e+003;1.543198e-001
1.270913e+003;1.500371e-001
1.272842e+003;1.473588e-001
1.274770e+003;1.461620e-001
1.276699e+003;1.458585e-001
1.278627e+003;1.455418e-001
1.280556e+003;1.448542e-001
1.282484e+003;1.437899e-001
1.284413e+003;1.422710e-001
1.286342e+003;1.411243e-001
1.288270e+003;1.410136e-001
1.290199e+003;1.406923e-001
1.292127e+003;1.395523e-001
1.294056e+003;1.387441e-001
1.295984e+003;1.384990e-001
1.297913e+003;1.383291e-001
1.299841e+003;1.382646e-001
1.301770e+003;1.379102e-001
1.303698e+003;1.371621e-001
1.305627e+003;1.363188e-001
1.307556e+003;1.353858e-001
1.309484e+003;1.344957e-001
1.311413e+003;1.337631e-001
1.313341e+003;1.328968e-001
1.315270e+003;1.319140e-001
1.317198e+003;1.309059e-001
1.319127e+003;1.301668e-001
1.321055e+003;1.295620e-001
1.322984e+003;1.290566e-001
1.324912e+003;1.290915e-001
1.326841e+003;1.294090e-001
1.328770e+003;1.296343e-001
1.330698e+003;1.301078e-001
1.332627e+003;1.306748e-001
1.334555e+003;1.313852e-001
1.336484e+003;1.315533e-001
1.338412e+003;1.317201e-001
1.340341e+003;1.327348e-001
1.342269e+003;1.341740e-001
1.344198e+003;1.354673e-001
1.346126e+003;1.366567e-001
1.348055e+003;1.376446e-001
1.349984e+003;1.390671e-001
1.351912e+003;1.408307e-001
1.353841e+003;1.426704e-001
1.355769e+003;1.446055e-001
1.357698e+003;1.466216e-001
1.359626e+003;1.482787e-001
1.361555e+003;1.495087e-001
1.363483e+003;1.514528e-001
1.365412e+003;1.543228e-001
1.367341e+003;1.568462e-001
1.369269e+003;1.587617e-001
1.371198e+003;1.595597e-001
1.373126e+003;1.587005e-001
1.375055e+003;1.568125e-001
1.376983e+003;1.547147e-001
1.378912e+003;1.514833e-001
1.380840e+003;1.477181e-001
1.382769e+003;1.439130e-001
1.384698e+003;1.400335e-001
1.386626e+003;1.361112e-001
1.388555e+003;1.336563e-001
1.390483e+003;1.322562e-001
1.392412e+003;1.306137e-001
1.394340e+003;1.293614e-001
1.396269e+003;1.295103e-001
1.398197e+003;1.304181e-001
1.400126e+003;1.326373e-001
1.402054e+003;1.359858e-001
1.403983e+003;1.399731e-001
1.405911e+003;1.457814e-001
1.407840e+003;1.528687e-001
1.409769e+003;1.602575e-001
1.411697e+003;1.678339e-001
1.413626e+003;1.741635e-001
1.415554e+003;1.772943e-001
1.417483e+003;1.756026e-001
1.419411e+003;1.716992e-001
1.421340e+003;1.688409e-001
1.423268e+003;1.646815e-001
1.425197e+003;1.614397e-001
1.427125e+003;1.607783e-001
1.429054e+003;1.618153e-001
1.430983e+003;1.642631e-001
1.432911e+003;1.665236e-001
1.434840e+003;1.661183e-001
1.436768e+003;1.648044e-001
1.438697e+003;1.658523e-001
1.440625e+003;1.659094e-001
1.442554e+003;1.652387e-001
1.444482e+003;1.647796e-001
1.446411e+003;1.646455e-001
1.448340e+003;1.660129e-001
1.450268e+003;1.688951e-001
1.452197e+003;1.712779e-001
1.454125e+003;1.722834e-001
1.456054e+003;1.721139e-001
1.457982e+003;1.780958e-001
1.459911e+003;1.880682e-001
1.461839e+003;1.929860e-001
1.463768e+003;1.899478e-001
1.465697e+003;1.828169e-001
1.467625e+003;1.753412e-001
1.469554e+003;1.689120e-001
1.471482e+003;1.648809e-001
1.473411e+003;1.658565e-001
1.475339e+003;1.686398e-001
1.477268e+003;1.686002e-001
1.479196e+003;1.654500e-001
1.481125e+003;1.591504e-001
1.483053e+003;1.520443e-001
1.484982e+003;1.453804e-001
1.486911e+003;1.406968e-001
1.488839e+003;1.388461e-001
1.490768e+003;1.404382e-001
1.492696e+003;1.440394e-001
1.494625e+003;1.465973e-001
1.496553e+003;1.499361e-001
1.498482e+003;1.562062e-001
1.500410e+003;1.633491e-001
1.502339e+003;1.700465e-001
1.504267e+003;1.735573e-001
1.506196e+003;1.769579e-001
1.508125e+003;1.867303e-001
1.510053e+003;1.981479e-001
1.511982e+003;2.073404e-001
1.513910e+003;2.161661e-001
1.515839e+003;2.244156e-001
1.517767e+003;2.328876e-001
1.519696e+003;2.406458e-001
1.521624e+003;2.497243e-001
1.523553e+003;2.623535e-001
1.525481e+003;2.739789e-001
1.527410e+003;2.853542e-001
1.529339e+003;2.958816e-001
1.531267e+003;3.039910e-001
1.533196e+003;3.099017e-001
1.535124e+003;3.157621e-001
1.537053e+003;3.163516e-001
1.538981e+003;3.099060e-001
1.540910e+003;3.051846e-001
1.542838e+003;3.011558e-001
1.544767e+003;2.930739e-001
1.546695e+003;2.824949e-001
1.548624e+003;2.696527e-001
1.550553e+003;2.565025e-001
1.552481e+003;2.433469e-001
1.554410e+003;2.303035e-001
1.556338e+003;2.172090e-001
1.558267e+003;2.021714e-001
1.560195e+003;1.941672e-001
1.562124e+003;1.909156e-001
1.564052e+003;1.839058e-001
1.565981e+003;1.757663e-001
1.567910e+003;1.673493e-001
1.569838e+003;1.594756e-001
1.571767e+003;1.542413e-001
1.573695e+003;1.478350e-001
1.575624e+003;1.399662e-001
1.577552e+003;1.373786e-001
1.579481e+003;1.371341e-001
1.581409e+003;1.351296e-001
1.583338e+003;1.333223e-001
1.585266e+003;1.324530e-001
1.587195e+003;1.327976e-001
1.589124e+003;1.333995e-001
1.591052e+003;1.345068e-001
1.592981e+003;1.363872e-001
1.594909e+003;1.394177e-001
1.596838e+003;1.437625e-001
1.598766e+003;1.489885e-001
1.600695e+003;1.546727e-001
1.602623e+003;1.613536e-001
1.604552e+003;1.691836e-001
1.606480e+003;1.776341e-001
1.608409e+003;1.866592e-001
1.610338e+003;1.963325e-001
1.612266e+003;2.070080e-001
1.614195e+003;2.174386e-001
1.616123e+003;2.282315e-001
1.618052e+003;2.453852e-001
1.619980e+003;2.646737e-001
1.621909e+003;2.813258e-001
1.623837e+003;2.983081e-001
1.625766e+003;3.164124e-001
1.627694e+003;3.340864e-001
1.629623e+003;3.521919e-001
1.631552e+003;3.693912e-001
1.633480e+003;3.803003e-001
1.635409e+003;3.844169e-001
1.637337e+003;3.844083e-001
1.639266e+003;3.750326e-001
1.641194e+003;3.569643e-001
1.643123e+003;3.347484e-001
1.645051e+003;3.100902e-001
1.646980e+003;2.874630e-001
1.648909e+003;2.690110e-001
1.650837e+003;2.482651e-001
1.652766e+003;2.275209e-001
1.654694e+003;2.185029e-001
1.656623e+003;2.127096e-001
1.658551e+003;2.033906e-001
1.660480e+003;1.926567e-001
1.662408e+003;1.816453e-001
1.664337e+003;1.726481e-001
1.666266e+003;1.631956e-001
1.668194e+003;1.518317e-001
1.670123e+003;1.424425e-001
1.672051e+003;1.356398e-001
1.673980e+003;1.273978e-001
1.675908e+003;1.200404e-001
1.677837e+003;1.144514e-001
1.679765e+003;1.068509e-001
1.681694e+003;9.757528e-002
1.683622e+003;8.679122e-002
1.685551e+003;8.220697e-002
1.687479e+003;8.107203e-002
1.689408e+003;7.754712e-002
1.691337e+003;7.460919e-002
1.693265e+003;7.052253e-002
1.695194e+003;6.479279e-002
1.697122e+003;6.361558e-002
1.699051e+003;6.141717e-002
1.700979e+003;6.073797e-002
1.702908e+003;6.413791e-002
1.704836e+003;6.412474e-002
1.706765e+003;6.414586e-002
1.708693e+003;6.466725e-002
1.710622e+003;6.491140e-002
1.712551e+003;6.393333e-002
1.714479e+003;6.164508e-002
1.716408e+003;5.875868e-002
1.718336e+003;5.939983e-002
1.720265e+003;6.281500e-002
1.722193e+003;6.399583e-002
1.724122e+003;6.415616e-002
1.726050e+003;6.440135e-002
1.727979e+003;6.382389e-002
1.729908e+003;6.292146e-002
1.731836e+003;6.037123e-002
1.733765e+003;5.755332e-002
1.735693e+003;5.971629e-002
1.737622e+003;6.116869e-002
1.739550e+003;5.985542e-002
1.741479e+003;5.962772e-002
1.743407e+003;5.892904e-002
1.745336e+003;5.781522e-002
1.747265e+003;5.597399e-002
1.749193e+003;5.383111e-002
1.751122e+003;5.239310e-002
1.753050e+003;5.269918e-002
1.754979e+003;5.200472e-002
1.756907e+003;5.079015e-002
1.758836e+003;5.033767e-002
1.760764e+003;4.906898e-002
1.762693e+003;4.845701e-002
1.764621e+003;4.844808e-002
1.766550e+003;4.699268e-002
1.768479e+003;4.574398e-002
1.770407e+003;4.433715e-002
1.772336e+003;4.278298e-002
1.774264e+003;4.392475e-002
1.776193e+003;4.482511e-002
1.778121e+003;4.448377e-002
1.780050e+003;4.402103e-002
1.781978e+003;4.385880e-002
1.783907e+003;4.330049e-002
1.785835e+003;4.284032e-002
1.787764e+003;4.264132e-002
1.789693e+003;4.159306e-002
1.791621e+003;4.010074e-002
1.793550e+003;4.027059e-002
1.795478e+003;4.130192e-002
1.797407e+003;4.119068e-002
1.799335e+003;4.046763e-002
1.801264e+003;4.007280e-002
1.803192e+003;4.038180e-002
1.805121e+003;4.056180e-002
1.807049e+003;4.040395e-002
1.808978e+003;3.977101e-002
1.810907e+003;3.925500e-002
1.812835e+003;3.928659e-002
1.814764e+003;3.938294e-002
1.816692e+003;3.941008e-002
1.818621e+003;3.954336e-002
1.820549e+003;3.939404e-002
1.822478e+003;3.898163e-002
1.824406e+003;3.810283e-002
1.826335e+003;3.806069e-002
1.828264e+003;3.774563e-002
1.830192e+003;3.745973e-002
1.832121e+003;3.820185e-002
1.834049e+003;3.852857e-002
1.835978e+003;3.840541e-002
1.837906e+003;3.820500e-002
1.839835e+003;3.787136e-002
1.841763e+003;3.698106e-002
1.843692e+003;3.592587e-002
1.845620e+003;3.648075e-002
1.847549e+003;3.729763e-002
1.849478e+003;3.741408e-002
1.851406e+003;3.735511e-002
1.853335e+003;3.731232e-002
1.855263e+003;3.717358e-002
1.857192e+003;3.698838e-002
1.859120e+003;3.693542e-002
1.861049e+003;3.690743e-002
1.862977e+003;3.675764e-002
1.864906e+003;3.672591e-002
1.866834e+003;3.656833e-002
1.868763e+003;3.603548e-002
1.870692e+003;3.627290e-002
1.872620e+003;3.694368e-002
1.874549e+003;3.712460e-002
1.876477e+003;3.691468e-002
1.878406e+003;3.677491e-002
1.880334e+003;3.681123e-002
1.882263e+003;3.668733e-002
1.884191e+003;3.683038e-002
1.886120e+003;3.703478e-002
1.888048e+003;3.684770e-002
1.889977e+003;3.705986e-002
1.891906e+003;3.760734e-002
1.893834e+003;3.750792e-002
1.895763e+003;3.767776e-002
1.897691e+003;3.794670e-002
1.899620e+003;3.801050e-002
1.901548e+003;3.792657e-002
1.903477e+003;3.779251e-002
1.905405e+003;3.759115e-002
1.907334e+003;3.738533e-002
1.909262e+003;3.709602e-002
1.911191e+003;3.728784e-002
1.913120e+003;3.742741e-002
1.915048e+003;3.704694e-002
1.916977e+003;3.640720e-002
1.918905e+003;3.638169e-002
1.920834e+003;3.660333e-002
1.922762e+003;3.639805e-002
1.924691e+003;3.641794e-002
1.926619e+003;3.657673e-002
1.928548e+003;3.674596e-002
1.930477e+003;3.670294e-002
1.932405e+003;3.641718e-002
1.934334e+003;3.627985e-002
1.936262e+003;3.643138e-002
1.938191e+003;3.666415e-002
1.940119e+003;3.623850e-002
1.942048e+003;3.553745e-002
1.943976e+003;3.562250e-002
1.945905e+003;3.605132e-002
1.947833e+003;3.614879e-002
1.949762e+003;3.633064e-002
1.951691e+003;3.642562e-002
1.953619e+003;3.637953e-002
1.955548e+003;3.663477e-002
1.957476e+003;3.654342e-002
1.959405e+003;3.637135e-002
1.961333e+003;3.654793e-002
1.963262e+003;3.653762e-002
1.965190e+003;3.631090e-002
1.967119e+003;3.636058e-002
1.969047e+003;3.651985e-002
1.970976e+003;3.654789e-002
1.972905e+003;3.664821e-002
1.974833e+003;3.678779e-002
1.976762e+003;3.701584e-002
1.978690e+003;3.700162e-002
1.980619e+003;3.701934e-002
1.982547e+003;3.715828e-002
1.984476e+003;3.721870e-002
1.986404e+003;3.698377e-002
1.988333e+003;3.651607e-002
1.990261e+003;3.620760e-002
1.992190e+003;3.621545e-002
1.994119e+003;3.630190e-002
1.996047e+003;3.651729e-002
1.997976e+003;3.668895e-002
1.999904e+003;3.700379e-002
2.001833e+003;3.720213e-002
2.003761e+003;3.724239e-002
2.005690e+003;3.727535e-002
2.007618e+003;3.715990e-002
2.009547e+003;3.704546e-002
2.011476e+003;3.701736e-002
2.013404e+003;3.723007e-002
2.015333e+003;3.765503e-002
2.017261e+003;3.775684e-002
2.019190e+003;3.769341e-002
2.021118e+003;3.762089e-002
2.023047e+003;3.773483e-002
2.024975e+003;3.800673e-002
2.026904e+003;3.844027e-002
2.028833e+003;3.862200e-002
2.030761e+003;3.846963e-002
2.032690e+003;3.844646e-002
2.034618e+003;3.869310e-002
2.036547e+003;3.893995e-002
2.038475e+003;3.906145e-002
2.040404e+003;3.908150e-002
2.042332e+003;3.906928e-002
2.044261e+003;3.903139e-002
2.046189e+003;3.906094e-002
2.048118e+003;3.915183e-002
2.050047e+003;3.936099e-002
2.051975e+003;3.950137e-002
2.053904e+003;3.958829e-002
2.055832e+003;3.976277e-002
2.057761e+003;3.981277e-002
2.059689e+003;3.993223e-002
2.061618e+003;3.989452e-002
2.063546e+003;3.963367e-002
2.065475e+003;3.973743e-002
2.067404e+003;4.013610e-002
2.069332e+003;4.045457e-002
2.071260e+003;4.043097e-002
2.073189e+003;4.014544e-002
2.075118e+003;4.014347e-002
2.077046e+003;4.021275e-002
2.078975e+003;4.016492e-002
2.080903e+003;4.017219e-002
2.082832e+003;3.990008e-002
2.084760e+003;3.952667e-002
2.086689e+003;3.949880e-002
2.088617e+003;3.944716e-002
2.090546e+003;3.919690e-002
2.092475e+003;3.922447e-002
2.094403e+003;3.920195e-002
2.096332e+003;3.910136e-002
2.098260e+003;3.907102e-002
2.100189e+003;3.905198e-002
2.102117e+003;3.905478e-002
2.104046e+003;3.896927e-002
2.105974e+003;3.896785e-002
2.107903e+003;3.918189e-002
2.109832e+003;3.905902e-002
2.111760e+003;3.883054e-002
2.113688e+003;3.866970e-002
2.115617e+003;3.838246e-002
2.117546e+003;3.837168e-002
2.119474e+003;3.859915e-002
2.121403e+003;3.876953e-002
2.123331e+003;3.877616e-002
2.125260e+003;3.867470e-002
2.127188e+003;3.863185e-002
2.129117e+003;3.879203e-002
2.131045e+003;3.871059e-002
2.132974e+003;3.848788e-002
2.134903e+003;3.843557e-002
2.136831e+003;3.832332e-002
2.138760e+003;3.815880e-002
2.140688e+003;3.815518e-002
2.142617e+003;3.823604e-002
2.144545e+003;3.822920e-002
2.146474e+003;3.821133e-002
2.148402e+003;3.829846e-002
2.150331e+003;3.825196e-002
2.152260e+003;3.816722e-002
2.154188e+003;3.833367e-002
2.156117e+003;3.837023e-002
2.158045e+003;3.819262e-002
2.159974e+003;3.830161e-002
2.161902e+003;3.847875e-002
2.163831e+003;3.856337e-002
2.165759e+003;3.864507e-002
2.167688e+003;3.869455e-002
2.169616e+003;3.889203e-002
2.171545e+003;3.913218e-002
2.173474e+003;3.918160e-002
2.175402e+003;3.896060e-002
2.177331e+003;3.886769e-002
2.179259e+003;3.902972e-002
2.181188e+003;3.917972e-002
2.183116e+003;3.906844e-002
2.185045e+003;3.911771e-002
2.186973e+003;3.922363e-002
2.188902e+003;3.949299e-002
2.190831e+003;3.958706e-002
2.192759e+003;3.942539e-002
2.194688e+003;3.928039e-002
2.196616e+003;3.938595e-002
2.198545e+003;3.958517e-002
2.200473e+003;3.939807e-002
2.202402e+003;3.913777e-002
2.204330e+003;3.926509e-002
2.206259e+003;3.919237e-002
2.208188e+003;3.878852e-002
2.210116e+003;3.866557e-002
2.212044e+003;3.891280e-002
2.213973e+003;3.890758e-002
2.215902e+003;3.858292e-002
2.217830e+003;3.835094e-002
2.219759e+003;3.839383e-002
2.221687e+003;3.842764e-002
2.223616e+003;3.822301e-002
2.225544e+003;3.787522e-002
2.227473e+003;3.773963e-002
2.229401e+003;3.784146e-002
2.231330e+003;3.784562e-002
2.233259e+003;3.774838e-002
2.235187e+003;3.765080e-002
2.237116e+003;3.792577e-002
2.239044e+003;3.800753e-002
2.240973e+003;3.754884e-002
2.242901e+003;3.773020e-002
2.244830e+003;3.787555e-002
2.246758e+003;3.769699e-002
2.248687e+003;3.772369e-002
2.250615e+003;3.773295e-002
2.252544e+003;3.778890e-002
2.254473e+003;3.776110e-002
2.256401e+003;3.772428e-002
2.258330e+003;3.764708e-002
2.260258e+003;3.746168e-002
2.262187e+003;3.756539e-002
2.264115e+003;3.758324e-002
2.266044e+003;3.775174e-002
2.267972e+003;3.781670e-002
2.269901e+003;3.777408e-002
2.271830e+003;3.781391e-002
2.273758e+003;3.786901e-002
2.275687e+003;3.786109e-002
2.277615e+003;3.771112e-002
2.279544e+003;3.781814e-002
2.281472e+003;3.796001e-002
2.283401e+003;3.784142e-002
2.285329e+003;3.792396e-002
2.287258e+003;3.833643e-002
2.289187e+003;3.856659e-002
2.291115e+003;3.828869e-002
2.293043e+003;3.799798e-002
2.294972e+003;3.823452e-002
2.296901e+003;3.849708e-002
2.298829e+003;3.844755e-002
2.300758e+003;3.850862e-002
2.302686e+003;3.879515e-002
2.304615e+003;3.885410e-002
2.306543e+003;3.893762e-002
2.308472e+003;3.886410e-002
2.310400e+003;3.868100e-002
2.312329e+003;3.870726e-002
2.314258e+003;3.894969e-002
2.316186e+003;3.906580e-002
2.318115e+003;3.899660e-002
2.320043e+003;3.880623e-002
2.321972e+003;3.861371e-002
2.323900e+003;3.850819e-002
2.325829e+003;3.860541e-002
2.327757e+003;3.883703e-002
2.329686e+003;3.878257e-002
2.331615e+003;3.853288e-002
2.333543e+003;3.841660e-002
2.335472e+003;3.833672e-002
2.337400e+003;3.837341e-002
2.339329e+003;3.851507e-002
2.341257e+003;3.842634e-002
2.343186e+003;3.849132e-002
2.345114e+003;3.866760e-002
2.347043e+003;3.851637e-002
2.348971e+003;3.825189e-002
2.350900e+003;3.816484e-002
2.352829e+003;3.809705e-002
2.354757e+003;3.798467e-002
2.356686e+003;3.784558e-002
2.358614e+003;3.804275e-002
2.360543e+003;3.816683e-002
2.362471e+003;3.803997e-002
2.364400e+003;3.794927e-002
2.366328e+003;3.803303e-002
2.368257e+003;3.829654e-002
2.370186e+003;3.850055e-002
2.372114e+003;3.854856e-002
2.374042e+003;3.883257e-002
2.375971e+003;3.895952e-002
2.377900e+003;3.892338e-002
2.379828e+003;3.924340e-002
2.381757e+003;3.931039e-002
2.383685e+003;3.908885e-002
2.385614e+003;3.895825e-002
2.387542e+003;3.901084e-002
2.389471e+003;3.914614e-002
2.391399e+003;3.922403e-002
2.393328e+003;3.942750e-002
2.395257e+003;3.958688e-002
2.397185e+003;3.944034e-002
2.399114e+003;3.915963e-002
2.401042e+003;3.938029e-002
2.402971e+003;3.965022e-002
2.404899e+003;3.949488e-002
2.406828e+003;3.916946e-002
2.408756e+003;3.931075e-002
2.410685e+003;3.950224e-002
2.412614e+003;3.947100e-002
2.414542e+003;3.953505e-002
2.416471e+003;3.939949e-002
2.418399e+003;3.937402e-002
2.420328e+003;3.954449e-002
2.422256e+003;3.955113e-002
2.424185e+003;3.939357e-002
2.426113e+003;3.940678e-002
2.428042e+003;3.940210e-002
2.429970e+003;3.930346e-002
2.431899e+003;3.948555e-002
2.433828e+003;3.981535e-002
2.435756e+003;3.989162e-002
2.437685e+003;3.995395e-002
2.439613e+003;4.015245e-002
2.441542e+003;4.035082e-002
2.443470e+003;4.037780e-002
2.445399e+003;4.049960e-002
2.447327e+003;4.075406e-002
2.449256e+003;4.093137e-002
2.451185e+003;4.120646e-002
2.453113e+003;4.139055e-002
2.455042e+003;4.144839e-002
2.456970e+003;4.167482e-002
2.458899e+003;4.161895e-002
2.460827e+003;4.130323e-002
2.462756e+003;4.143101e-002
2.464684e+003;4.184543e-002
2.466613e+003;4.211981e-002
2.468542e+003;4.226460e-002
2.470470e+003;4.226405e-002
2.472398e+003;4.194614e-002
2.474327e+003;4.195990e-002
2.476256e+003;4.224761e-002
2.478184e+003;4.236361e-002
2.480113e+003;4.232961e-002
2.482041e+003;4.237640e-002
2.483970e+003;4.244906e-002
2.485898e+003;4.241779e-002
2.487827e+003;4.242703e-002
2.489755e+003;4.247135e-002
2.491684e+003;4.242144e-002
2.493613e+003;4.242860e-002
2.495541e+003;4.240201e-002
2.497470e+003;4.246108e-002
2.499398e+003;4.283601e-002
2.501327e+003;4.292769e-002
2.503255e+003;4.276906e-002
2.505184e+003;4.281567e-002
2.507112e+003;4.295944e-002
2.509041e+003;4.310041e-002
2.510969e+003;4.307652e-002
2.512898e+003;4.322685e-002
2.514827e+003;4.360159e-002
2.516755e+003;4.363973e-002
2.518684e+003;4.369175e-002
2.520612e+003;4.425026e-002
2.522541e+003;4.474371e-002
2.524469e+003;4.494970e-002
2.526398e+003;4.472248e-002
2.528326e+003;4.483925e-002
2.530255e+003;4.535102e-002
2.532184e+003;4.570536e-002
2.534112e+003;4.579799e-002
2.536041e+003;4.579210e-002
2.537969e+003;4.610841e-002
2.539898e+003;4.647739e-002
2.541826e+003;4.646917e-002
2.543755e+003;4.653072e-002
2.545683e+003;4.676627e-002
2.547612e+003;4.678140e-002
2.549541e+003;4.681354e-002
2.551469e+003;4.694384e-002
2.553397e+003;4.704592e-002
2.555326e+003;4.697828e-002
2.557255e+003;4.714925e-002
2.559183e+003;4.768475e-002
2.561112e+003;4.810197e-002
2.563040e+003;4.810208e-002
2.564969e+003;4.803035e-002
2.566897e+003;4.806125e-002
2.568826e+003;4.789766e-002
2.570754e+003;4.812007e-002
2.572683e+003;4.870217e-002
2.574612e+003;4.903960e-002
2.576540e+003;4.897836e-002
2.578469e+003;4.904940e-002
2.580397e+003;4.930009e-002
2.582326e+003;4.941932e-002
2.584254e+003;4.963501e-002
2.586183e+003;5.001774e-002
2.588111e+003;5.040424e-002
2.590040e+003;5.053256e-002
2.591969e+003;5.041153e-002
2.593897e+003;5.040818e-002
2.595826e+003;5.037815e-002
2.597754e+003;5.045693e-002
2.599683e+003;5.060720e-002
2.601611e+003;5.061357e-002
2.603540e+003;5.072270e-002
2.605468e+003;5.079469e-002
2.607397e+003;5.101263e-002
2.609325e+003;5.110554e-002
2.611254e+003;5.134459e-002
2.613183e+003;5.182981e-002
2.615111e+003;5.198410e-002
2.617040e+003;5.184870e-002
2.618968e+003;5.195180e-002
2.620897e+003;5.209694e-002
2.622825e+003;5.201305e-002
2.624754e+003;5.230724e-002
2.626682e+003;5.248578e-002
2.628611e+003;5.227868e-002
2.630540e+003;5.211532e-002
2.632468e+003;5.212085e-002
2.634396e+003;5.249359e-002
2.636325e+003;5.253353e-002
2.638254e+003;5.260290e-002
2.640182e+003;5.288394e-002
2.642111e+003;5.296890e-002
2.644039e+003;5.289723e-002
2.645968e+003;5.279806e-002
2.647896e+003;5.296629e-002
2.649825e+003;5.324195e-002
2.651753e+003;5.344189e-002
2.653682e+003;5.338228e-002
2.655611e+003;5.349694e-002
2.657539e+003;5.390384e-002
2.659468e+003;5.424504e-002
2.661396e+003;5.460428e-002
2.663325e+003;5.500082e-002
2.665253e+003;5.520316e-002
2.667182e+003;5.531270e-002
2.669110e+003;5.547836e-002
2.671039e+003;5.554067e-002
2.672968e+003;5.589989e-002
2.674896e+003;5.629509e-002
2.676825e+003;5.615902e-002
2.678753e+003;5.620009e-002
2.680682e+003;5.670345e-002
2.682610e+003;5.708328e-002
2.684539e+003;5.737318e-002
2.686467e+003;5.759051e-002
2.688396e+003;5.772609e-002
2.690324e+003;5.794961e-002
2.692253e+003;5.825634e-002
2.694182e+003;5.894650e-002
2.696110e+003;5.954517e-002
2.698039e+003;6.005509e-002
2.699967e+003;6.046296e-002
2.701896e+003;6.052264e-002
2.703824e+003;6.060172e-002
2.705753e+003;6.079464e-002
2.707681e+003;6.117884e-002
2.709610e+003;6.154153e-002
2.711539e+003;6.203320e-002
2.713467e+003;6.259672e-002
2.715396e+003;6.294865e-002
2.717324e+003;6.306453e-002
2.719253e+003;6.361731e-002
2.721181e+003;6.441811e-002
2.723110e+003;6.470575e-002
2.725038e+003;6.468179e-002
2.726967e+003;6.505717e-002
2.728896e+003;6.551226e-002
2.730824e+003;6.601319e-002
2.732752e+003;6.671603e-002
2.734681e+003;6.727073e-002
2.736610e+003;6.777633e-002
2.738538e+003;6.803873e-002
2.740467e+003;6.840317e-002
2.742395e+003;6.864289e-002
2.744324e+003;6.872125e-002
2.746252e+003;6.867339e-002
2.748181e+003;6.834639e-002
2.750109e+003;6.794588e-002
2.752038e+003;6.781452e-002
2.753967e+003;6.826282e-002
2.755895e+003;6.884420e-002
2.757824e+003;6.923690e-002
2.759752e+003;6.945419e-002
2.761681e+003;6.940586e-002
2.763609e+003;6.964280e-002
2.765538e+003;6.985219e-002
2.767466e+003;6.980973e-002
2.769395e+003;6.986706e-002
2.771323e+003;7.033077e-002
2.773252e+003;7.097067e-002
2.775181e+003;7.130271e-002
2.777109e+003;7.170616e-002
2.779038e+003;7.236759e-002
2.780966e+003;7.279311e-002
2.782895e+003;7.314470e-002
2.784823e+003;7.371671e-002
2.786752e+003;7.427316e-002
2.788680e+003;7.490212e-002
2.790609e+003;7.574502e-002
2.792538e+003;7.640583e-002
2.794466e+003;7.685811e-002
2.796395e+003;7.729787e-002
2.798323e+003;7.750168e-002
2.800252e+003;7.794151e-002
2.802180e+003;7.835349e-002
2.804109e+003;7.891591e-002
2.806037e+003;7.942118e-002
2.807966e+003;7.976161e-002
2.809895e+003;8.006885e-002
2.811823e+003;8.052404e-002
2.813751e+003;8.121175e-002
2.815680e+003;8.187946e-002
2.817609e+003;8.248746e-002
2.819537e+003;8.332140e-002
2.821466e+003;8.423072e-002
2.823394e+003;8.501893e-002
2.825323e+003;8.568429e-002
2.827251e+003;8.615952e-002
2.829180e+003;8.701508e-002
2.831108e+003;8.822280e-002
2.833037e+003;8.954475e-002
2.834966e+003;9.099153e-002
2.836894e+003;9.290757e-002
2.838823e+003;9.565952e-002
2.840751e+003;9.908041e-002
2.842680e+003;1.029374e-001
2.844608e+003;1.077810e-001
2.846537e+003;1.127579e-001
2.848465e+003;1.173150e-001
2.850394e+003;1.219329e-001
2.852323e+003;1.262471e-001
2.854251e+003;1.298339e-001
2.856180e+003;1.329651e-001
2.858108e+003;1.356228e-001
2.860037e+003;1.375317e-001
2.861965e+003;1.383304e-001
2.863894e+003;1.382166e-001
2.865822e+003;1.371496e-001
2.867751e+003;1.354809e-001
2.869679e+003;1.331167e-001
2.871608e+003;1.297247e-001
2.873536e+003;1.264365e-001
2.875465e+003;1.233734e-001
2.877394e+003;1.201589e-001
2.879322e+003;1.171604e-001
2.881251e+003;1.144538e-001
2.883179e+003;1.126540e-001
2.885108e+003;1.123246e-001
2.887036e+003;1.123280e-001
2.888965e+003;1.130414e-001
2.890893e+003;1.149055e-001
2.892822e+003;1.171083e-001
2.894750e+003;1.194792e-001
2.896679e+003;1.220532e-001
2.898608e+003;1.238724e-001
2.900536e+003;1.246912e-001
2.902465e+003;1.255494e-001
2.904393e+003;1.265827e-001
2.906322e+003;1.277590e-001
2.908250e+003;1.294762e-001
2.910179e+003;1.315389e-001
2.912107e+003;1.335656e-001
2.914036e+003;1.359221e-001
2.915965e+003;1.387920e-001
2.917893e+003;1.418209e-001
2.919822e+003;1.450944e-001
2.921750e+003;1.484658e-001
2.923679e+003;1.520507e-001
2.925607e+003;1.558960e-001
2.927536e+003;1.591403e-001
2.929464e+003;1.620399e-001
2.931393e+003;1.647415e-001
2.933322e+003;1.664023e-001
2.935250e+003;1.661040e-001
2.937178e+003;1.644325e-001
2.939107e+003;1.626609e-001
2.941036e+003;1.601111e-001
2.942964e+003;1.560932e-001
2.944893e+003;1.514993e-001
2.946821e+003;1.464649e-001
2.948750e+003;1.398478e-001
2.950678e+003;1.321414e-001
2.952607e+003;1.246549e-001
2.954535e+003;1.179577e-001
2.956464e+003;1.125162e-001
2.958393e+003;1.078094e-001
2.960321e+003;1.032231e-001
2.962250e+003;9.911899e-002
2.964178e+003;9.600660e-002
2.966107e+003;9.347405e-002
2.968035e+003;9.035373e-002
2.969964e+003;8.758958e-002
2.971892e+003;8.535261e-002
2.973821e+003;8.294527e-002
2.975750e+003;8.067024e-002
2.977678e+003;7.872526e-002
2.979607e+003;7.740814e-002
2.981535e+003;7.624534e-002
2.983464e+003;7.498167e-002
2.985392e+003;7.358665e-002
2.987321e+003;7.238356e-002
2.989249e+003;7.175854e-002
2.991178e+003;7.126589e-002
2.993106e+003;7.058135e-002
2.995035e+003;7.005351e-002
2.996964e+003;7.021761e-002
2.998892e+003;7.018548e-002
3.000821e+003;7.005211e-002
3.002749e+003;6.968796e-002
3.004678e+003;6.933527e-002
3.006606e+003;6.958827e-002
3.008535e+003;6.991976e-002
3.010463e+003;6.997620e-002
3.012392e+003;7.049852e-002
3.014321e+003;7.093396e-002
3.016249e+003;7.111447e-002
3.018177e+003;7.086167e-002
3.020106e+003;7.100208e-002
3.022035e+003;7.182995e-002
3.023963e+003;7.249482e-002
3.025892e+003;7.296774e-002
3.027820e+003;7.338023e-002
3.029749e+003;7.363423e-002
3.031677e+003;7.435392e-002
3.033606e+003;7.538615e-002
3.035534e+003;7.590634e-002
3.037463e+003;7.664345e-002
3.039392e+003;7.762302e-002
3.041320e+003;7.846319e-002
3.043249e+003;7.931278e-002
3.045177e+003;7.998351e-002
3.047106e+003;8.046626e-002
3.049034e+003;8.135794e-002
3.050963e+003;8.267428e-002
3.052891e+003;8.356103e-002
3.054820e+003;8.424218e-002
3.056749e+003;8.494516e-002
3.058677e+003;8.535181e-002
3.060606e+003;8.596784e-002
3.062534e+003;8.660582e-002
3.064463e+003;8.686770e-002
3.066391e+003;8.686216e-002
3.068320e+003;8.704492e-002
3.070248e+003;8.725454e-002
3.072177e+003;8.727694e-002
3.074105e+003;8.687111e-002
3.076034e+003;8.633443e-002
3.077963e+003;8.635993e-002
3.079891e+003;8.688082e-002
3.081820e+003;8.689195e-002
3.083748e+003;8.596231e-002
3.085677e+003;8.535104e-002
3.087605e+003;8.507318e-002
3.089534e+003;8.458687e-002
3.091462e+003;8.427127e-002
3.093391e+003;8.368021e-002
3.095320e+003;8.278957e-002
3.097248e+003;8.229166e-002
3.099177e+003;8.138312e-002
3.101105e+003;8.031901e-002
3.103034e+003;7.974278e-002
3.104962e+003;7.944250e-002
3.106891e+003;7.866493e-002
3.108819e+003;7.795527e-002
3.110748e+003;7.779980e-002
3.112677e+003;7.732250e-002
3.114605e+003;7.669809e-002
3.116533e+003;7.613671e-002
3.118462e+003;7.565141e-002
3.120391e+003;7.524436e-002
3.122319e+003;7.468426e-002
3.124248e+003;7.429451e-002
3.126176e+003;7.401734e-002
3.128105e+003;7.387874e-002
3.130033e+003;7.375562e-002
3.131962e+003;7.375091e-002
3.133890e+003;7.402441e-002
3.135819e+003;7.393876e-002
3.137748e+003;7.362971e-002
3.139676e+003;7.384080e-002
3.141605e+003;7.397471e-002
3.143533e+003;7.402618e-002
3.145462e+003;7.460529e-002
3.147390e+003;7.497052e-002
3.149319e+003;7.501908e-002
3.151247e+003;7.538977e-002
3.153176e+003;7.596294e-002
3.155104e+003;7.617173e-002
3.157033e+003;7.647252e-002
3.158962e+003;7.696502e-002
3.160890e+003;7.713164e-002
3.162819e+003;7.766617e-002
3.164747e+003;7.856058e-002
3.166676e+003;7.860691e-002
3.168604e+003;7.900127e-002
3.170533e+003;8.025814e-002
3.172461e+003;8.147140e-002
3.174390e+003;8.208595e-002
3.176319e+003;8.254463e-002
3.178247e+003;8.351103e-002
3.180176e+003;8.414340e-002
3.182104e+003;8.491284e-002
3.184033e+003;8.581795e-002
3.185961e+003;8.637461e-002
3.187890e+003;8.678681e-002
3.189818e+003;8.725154e-002
3.191747e+003;8.756068e-002
3.193676e+003;8.780984e-002
3.195604e+003;8.794898e-002
3.197532e+003;8.818988e-002
3.199461e+003;8.899686e-002
3.201390e+003;8.958617e-002
3.203318e+003;8.975549e-002
3.205247e+003;9.029956e-002
3.207175e+003;9.081196e-002
3.209104e+003;9.095967e-002
3.211032e+003;9.157045e-002
3.212961e+003;9.234330e-002
3.214889e+003;9.268791e-002
3.216818e+003;9.328635e-002
3.218747e+003;9.425475e-002
3.220675e+003;9.495978e-002
3.222604e+003;9.555079e-002
3.224532e+003;9.610010e-002
3.226461e+003;9.689022e-002
3.228389e+003;9.813077e-002
3.230318e+003;9.933710e-002
3.232246e+003;1.002497e-001
3.234175e+003;1.014558e-001
3.236104e+003;1.033136e-001
3.238032e+003;1.051093e-001
3.239961e+003;1.064374e-001
3.241889e+003;1.077709e-001
3.243818e+003;1.093856e-001
3.245746e+003;1.116860e-001
3.247675e+003;1.140202e-001
3.249603e+003;1.157292e-001
3.251532e+003;1.180370e-001
3.253460e+003;1.206615e-001
3.255389e+003;1.231572e-001
3.257318e+003;1.255405e-001
3.259246e+003;1.280907e-001
3.261175e+003;1.305133e-001
3.263103e+003;1.327497e-001
3.265032e+003;1.354414e-001
3.266960e+003;1.383317e-001
3.268889e+003;1.410613e-001
3.270817e+003;1.439802e-001
3.272746e+003;1.467968e-001
3.274675e+003;1.496775e-001
3.276603e+003;1.523669e-001
3.278531e+003;1.547331e-001
3.280460e+003;1.574208e-001
3.282389e+003;1.601691e-001
3.284317e+003;1.622943e-001
3.286246e+003;1.643423e-001
3.288174e+003;1.657750e-001
3.290103e+003;1.665566e-001
3.292031e+003;1.668190e-001
3.293960e+003;1.667075e-001
3.295888e+003;1.659791e-001
3.297817e+003;1.640978e-001
3.299746e+003;1.616192e-001
3.301674e+003;1.584663e-001
3.303603e+003;1.552930e-001
3.305531e+003;1.519102e-001
3.307460e+003;1.478920e-001
3.309388e+003;1.439404e-001
3.311317e+003;1.405968e-001
3.313245e+003;1.376428e-001
3.315174e+003;1.346817e-001
3.317103e+003;1.310047e-001
3.319031e+003;1.271125e-001
3.320960e+003;1.238169e-001
3.322888e+003;1.205396e-001
3.324817e+003;1.173372e-001
3.326745e+003;1.146263e-001
3.328674e+003;1.120007e-001
3.330602e+003;1.089173e-001
3.332531e+003;1.059032e-001
3.334459e+003;1.032678e-001
3.336388e+003;1.016993e-001
3.338317e+003;9.996004e-002
3.340245e+003;9.713145e-002
3.342174e+003;9.481038e-002
3.344102e+003;9.345113e-002
3.346031e+003;9.231068e-002
3.347959e+003;9.096432e-002
3.349888e+003;8.927958e-002
3.351816e+003;8.719674e-002
3.353745e+003;8.555093e-002
3.355674e+003;8.427139e-002
3.357602e+003;8.320777e-002
3.359531e+003;8.168210e-002
3.361459e+003;8.014515e-002
3.363388e+003;7.938804e-002
3.365316e+003;7.872272e-002
3.367245e+003;7.783812e-002
3.369173e+003;7.670528e-002
3.371102e+003;7.574537e-002
3.373031e+003;7.497922e-002
3.374959e+003;7.435297e-002
3.376887e+003;7.352377e-002
3.378816e+003;7.239452e-002
3.380745e+003;7.171973e-002
3.382673e+003;7.148696e-002
3.384602e+003;7.104274e-002
3.386530e+003;7.028546e-002
3.388459e+003;6.958212e-002
3.390387e+003;6.940823e-002
3.392316e+003;6.869684e-002
3.394244e+003;6.786550e-002
3.396173e+003;6.766953e-002
3.398102e+003;6.753290e-002
3.400030e+003;6.720675e-002
3.401959e+003;6.684277e-002
3.403887e+003;6.668821e-002
3.405816e+003;6.620062e-002
3.407744e+003;6.576809e-002
3.409673e+003;6.600633e-002
3.411601e+003;6.589162e-002
3.413530e+003;6.547281e-002
3.415458e+003;6.535975e-002
3.417387e+003;6.516395e-002
3.419316e+003;6.483195e-002
3.421244e+003;6.467664e-002
3.423173e+003;6.461581e-002
3.425101e+003;6.386869e-002
3.427030e+003;6.301527e-002
3.428958e+003;6.303124e-002
3.430887e+003;6.307699e-002
3.432815e+003;6.300645e-002
3.434744e+003;6.293215e-002
3.436673e+003;6.274980e-002
3.438601e+003;6.278288e-002
3.440530e+003;6.307231e-002
3.442458e+003;6.303350e-002
3.444387e+003;6.276990e-002
3.446315e+003;6.232879e-002
3.448244e+003;6.208610e-002
3.450172e+003;6.169045e-002
3.452101e+003;6.112223e-002
3.454030e+003;6.072586e-002
3.455958e+003;6.057540e-002
3.457886e+003;6.052984e-002
3.459815e+003;5.997154e-002
3.461744e+003;5.930065e-002
3.463672e+003;5.899743e-002
3.465601e+003;5.892134e-002
3.467529e+003;5.915342e-002
3.469458e+003;5.897318e-002
3.471386e+003;5.837545e-002
3.473315e+003;5.786545e-002
3.475243e+003;5.778706e-002
3.477172e+003;5.740165e-002
3.479101e+003;5.720751e-002
3.481029e+003;5.699211e-002
3.482958e+003;5.677855e-002
3.484886e+003;5.683161e-002
3.486815e+003;5.692562e-002
3.488743e+003;5.688645e-002
3.490672e+003;5.626265e-002
3.492600e+003;5.582543e-002
3.494529e+003;5.591806e-002
3.496458e+003;5.607543e-002
3.498386e+003;5.602936e-002
3.500315e+003;5.587837e-002
3.502243e+003;5.539482e-002
3.504172e+003;5.543785e-002
3.506100e+003;5.579944e-002
3.508029e+003;5.544399e-002
3.509957e+003;5.515967e-002
3.511886e+003;5.493674e-002
3.513814e+003;5.456130e-002
3.515743e+003;5.426640e-002
3.517672e+003;5.405894e-002
3.519600e+003;5.374001e-002
3.521529e+003;5.301689e-002
3.523457e+003;5.273199e-002
3.525386e+003;5.276487e-002
3.527314e+003;5.240741e-002
3.529243e+003;5.214540e-002
3.531171e+003;5.157736e-002
3.533100e+003;5.134134e-002
3.535029e+003;5.125879e-002
3.536957e+003;5.080862e-002
3.538885e+003;5.068487e-002
3.540814e+003;5.054042e-002
3.542743e+003;4.950539e-002
3.544671e+003;4.848798e-002
3.546600e+003;4.842838e-002
3.548528e+003;4.883481e-002
3.550457e+003;4.843779e-002
3.552385e+003;4.779940e-002
3.554314e+003;4.749239e-002
3.556242e+003;4.717990e-002
3.558171e+003;4.645733e-002
3.560100e+003;4.597450e-002
3.562028e+003;4.617098e-002
3.563957e+003;4.569587e-002
3.565885e+003;4.435223e-002
3.567814e+003;4.429576e-002
3.569742e+003;4.499574e-002
3.571671e+003;4.460129e-002
3.573599e+003;4.405656e-002
3.575528e+003;4.395052e-002
3.577457e+003;4.377200e-002
3.579385e+003;4.302921e-002
3.581314e+003;4.252730e-002
3.583242e+003;4.244789e-002
3.585171e+003;4.142947e-002
3.587099e+003;3.994389e-002
3.589028e+003;3.996209e-002
3.590956e+003;4.060058e-002
3.592885e+003;4.028312e-002
3.594813e+003;3.982799e-002
3.596742e+003;3.981612e-002
3.598671e+003;3.962147e-002
3.600599e+003;3.935736e-002
3.602528e+003;3.968685e-002
3.604456e+003;3.933226e-002
3.606385e+003;3.836755e-002
3.608313e+003;3.716124e-002
3.610242e+003;3.691515e-002
3.612170e+003;3.714254e-002
3.614099e+003;3.719336e-002
3.616028e+003;3.642381e-002
3.617956e+003;3.515598e-002
3.619885e+003;3.541251e-002
3.621813e+003;3.657958e-002
3.623742e+003;3.655889e-002
3.625670e+003;3.515048e-002
3.627599e+003;3.201945e-002
3.629527e+003;3.165987e-002
3.631456e+003;3.427230e-002
3.633385e+003;3.511556e-002
3.635313e+003;3.525583e-002
3.637241e+003;3.530895e-002
3.639170e+003;3.492862e-002
3.641099e+003;3.434097e-002
3.643027e+003;3.418464e-002
3.644956e+003;3.326620e-002
3.646884e+003;3.107182e-002
3.648813e+003;3.016849e-002
3.650741e+003;3.123728e-002
3.652670e+003;3.270041e-002
3.654598e+003;3.214905e-002
3.656527e+003;3.150244e-002
3.658456e+003;3.255214e-002
3.660384e+003;3.299903e-002
3.662313e+003;3.292421e-002
3.664241e+003;3.329052e-002
3.666170e+003;3.270366e-002
3.668098e+003;3.004934e-002
3.670027e+003;2.859854e-002
3.671955e+003;3.008404e-002
3.673884e+003;2.870189e-002
3.675813e+003;2.819151e-002
3.677741e+003;3.108862e-002
3.679669e+003;3.198827e-002
3.681598e+003;3.202384e-002
3.683527e+003;3.205847e-002
3.685455e+003;3.111137e-002
3.687384e+003;2.783148e-002
3.689312e+003;2.715239e-002
3.691241e+003;2.878870e-002
3.693169e+003;3.002847e-002
3.695098e+003;3.034476e-002
3.697026e+003;2.991437e-002
3.698955e+003;2.908967e-002
3.700884e+003;2.850615e-002
3.702812e+003;2.928312e-002
3.704741e+003;2.971552e-002
3.706669e+003;2.888975e-002
3.708598e+003;2.754737e-002
3.710526e+003;2.602168e-002
3.712455e+003;2.597349e-002
3.714383e+003;2.804466e-002
3.716312e+003;2.942560e-002
3.718240e+003;2.952479e-002
3.720169e+003;2.859897e-002
3.722098e+003;2.827899e-002
3.724026e+003;2.830580e-002
3.725955e+003;2.811299e-002
3.727883e+003;2.892751e-002
3.729812e+003;2.828192e-002
3.731740e+003;2.590015e-002
3.733669e+003;2.560960e-002
3.735597e+003;2.551788e-002
3.737526e+003;2.685537e-002
3.739455e+003;2.849391e-002
3.741383e+003;2.763606e-002
3.743312e+003;2.304135e-002
3.745240e+003;2.320566e-002
3.747169e+003;2.539786e-002
3.749097e+003;2.365574e-002
3.751026e+003;2.345946e-002
3.752954e+003;2.629821e-002
3.754883e+003;2.897858e-002
3.756812e+003;2.873450e-002
3.758740e+003;2.819317e-002
3.760668e+003;2.879921e-002
3.762597e+003;2.971779e-002
3.764526e+003;2.886642e-002
3.766454e+003;2.869081e-002
3.768383e+003;2.835068e-002
3.770311e+003;2.873166e-002
3.772240e+003;2.944688e-002
3.774168e+003;2.933466e-002
3.776097e+003;2.918594e-002
3.778025e+003;2.900174e-002
3.779954e+003;2.891207e-002
3.781883e+003;2.964205e-002
3.783811e+003;2.981917e-002
3.785740e+003;2.990372e-002
3.787668e+003;2.950106e-002
3.789597e+003;2.949273e-002
3.791525e+003;2.963779e-002
3.793454e+003;2.989591e-002
3.795382e+003;2.926909e-002
3.797311e+003;2.908159e-002
3.799240e+003;2.732413e-002
3.801168e+003;2.532736e-002
3.803097e+003;2.739107e-002
3.805025e+003;2.800911e-002
3.806954e+003;2.774007e-002
3.808882e+003;2.978723e-002
3.810811e+003;3.092023e-002
3.812739e+003;3.044565e-002
3.814668e+003;2.837887e-002
3.816596e+003;2.836468e-002
3.818525e+003;2.900429e-002
3.820454e+003;2.769493e-002
3.822382e+003;2.891932e-002
3.824311e+003;3.033688e-002
3.826239e+003;3.021026e-002
3.828168e+003;3.035539e-002
3.830096e+003;2.985406e-002
3.832025e+003;2.937238e-002
3.833953e+003;2.895545e-002
3.835882e+003;2.719197e-002
3.837811e+003;2.661536e-002
3.839739e+003;2.885997e-002
3.841667e+003;2.995803e-002
3.843596e+003;3.014484e-002
3.845525e+003;3.120990e-002
3.847453e+003;3.180463e-002
3.849382e+003;3.016533e-002
3.851310e+003;2.612442e-002
3.853239e+003;2.305746e-002
3.855167e+003;2.684000e-002
3.857096e+003;3.115099e-002
3.859024e+003;3.156679e-002
3.860953e+003;3.072061e-002
3.862882e+003;2.996268e-002
3.864810e+003;2.968537e-002
3.866739e+003;3.006802e-002
3.868667e+003;2.873931e-002
3.870596e+003;2.899353e-002
3.872524e+003;3.052900e-002
3.874453e+003;3.084082e-002
3.876381e+003;3.148314e-002
3.878310e+003;3.178499e-002
3.880239e+003;3.171102e-002
3.882167e+003;3.157851e-002
3.884096e+003;3.033293e-002
3.886024e+003;2.996903e-002
3.887953e+003;3.128521e-002
3.889881e+003;3.129084e-002
3.891810e+003;3.159231e-002
3.893738e+003;3.267208e-002
3.895667e+003;3.310107e-002
3.897595e+003;3.195175e-002
3.899524e+003;3.045969e-002
3.901453e+003;2.970616e-002
3.903381e+003;2.986379e-002
3.905310e+003;3.180677e-002
3.907238e+003;3.357813e-002
3.909167e+003;3.365969e-002
3.911095e+003;3.334086e-002
3.913024e+003;3.308308e-002
3.914952e+003;3.251964e-002
3.916881e+003;3.222324e-002
3.918810e+003;3.268319e-002
3.920738e+003;3.342251e-002
3.922667e+003;3.366420e-002
3.924595e+003;3.323075e-002
3.926524e+003;3.313250e-002
3.928452e+003;3.312703e-002
3.930381e+003;3.306860e-002
3.932309e+003;3.303024e-002
3.934238e+003;3.418665e-002
3.936167e+003;3.516543e-002
3.938095e+003;3.504900e-002
3.940023e+003;3.461237e-002
3.941952e+003;3.457613e-002
3.943881e+003;3.501003e-002
3.945809e+003;3.473134e-002
3.947738e+003;3.409607e-002
3.949666e+003;3.416479e-002
3.951595e+003;3.490057e-002
3.953523e+003;3.542883e-002
3.955452e+003;3.548236e-002
3.957380e+003;3.565811e-002
3.959309e+003;3.610824e-002
3.961238e+003;3.593793e-002
3.963166e+003;3.594992e-002
3.965095e+003;3.671005e-002
3.967023e+003;3.732445e-002
3.968952e+003;3.718412e-002
3.970880e+003;3.630827e-002
3.972809e+003;3.631198e-002
3.974737e+003;3.696677e-002
3.976666e+003;3.747963e-002
3.978594e+003;3.738508e-002
3.980523e+003;3.717615e-002
3.982452e+003;3.729076e-002
3.984380e+003;3.756113e-002
3.986309e+003;3.723769e-002
3.988237e+003;3.731629e-002
3.990166e+003;3.776414e-002
3.992094e+003;3.799527e-002
3.994023e+003;3.799682e-002
3.995951e+003;3.846786e-002
3.997880e+003;3.877077e-002
3.999809e+003;3.832969e-002
4.001737e+003;0.000000e+000
