3.992094e+002;0.000000e+000
4.011380e+002;0.000000e+000
4.030665e+002;0.000000e+000
4.049951e+002;0.000000e+000
4.069236e+002;0.000000e+000
4.088522e+002;0.000000e+000
4.107807e+002;0.000000e+000
4.127093e+002;0.000000e+000
4.146378e+002;0.000000e+000
4.165664e+002;0.000000e+000
4.184949e+002;0.000000e+000
4.204235e+002;0.000000e+000
4.223520e+002;0.000000e+000
4.242806e+002;0.000000e+000
4.262091e+002;0.000000e+000
4.281377e+002;0.000000e+000
4.300662e+002;0.000000e+000
4.319948e+002;0.000000e+000
4.339233e+002;0.000000e+000
4.358519e+002;0.000000e+000
4.377804e+002;0.000000e+000
4.397090e+002;0.000000e+000
4.416375e+002;0.000000e+000
4.435660e+002;0.000000e+000
4.454946e+002;0.000000e+000
4.474232e+002;0.000000e+000
4.493517e+002;0.000000e+000
4.512802e+002;0.000000e+000
4.532088e+002;0.000000e+000
4.551373e+002;0.000000e+000
4.570659e+002;0.000000e+000
4.589944e+002;0.000000e+000
4.609230e+002;0.000000e+000
4.628515e+002;0.000000e+000
4.647801e+002;0.000000e+000
4.667086e+002;0.000000e+000
4.686372e+002;0.000000e+000
4.705657e+002;0.000000e+000
4.724943e+002;0.000000e+000
4.744228e+002;0.000000e+000
4.763513e+002;0.000000e+000
4.782799e+002;0.000000e+000
4.802085e+002;0.000000e+000
4.821370e+002;0.000000e+000
4.840656e+002;0.000000e+000
4.859941e+002;0.000000e+000
4.879226e+002;0.000000e+000
4.898512e+002;0.000000e+000
4.917798e+002;0.000000e+000
4.937083e+002;0.000000e+000
4.956368e+002;0.000000e+000
4.975654e+002;0.000000e+000
4.994939e+002;0.000000e+000
5.014225e+002;0.000000e+000
5.033510e+002;0.000000e+000
5.052796e+002;0.000000e+000
5.072081e+002;0.000000e+000
5.091367e+002;0.000000e+000
5.110652e+002;0.000000e+000
5.129938e+002;0.000000e+000
5.149223e+002;0.000000e+000
5.168509e+002;0.000000e+000
5.187794e+002;0.000000e+000
5.207079e+002;0.000000e+000
5.226365e+002;0.000000e+000
5.245651e+002;0.000000e+000
5.264936e+002;0.000000e+000
5.284222e+002;0.000000e+000
5.303507e+002;0.000000e+000
5.322792e+002;0.000000e+000
5.342078e+002;0.000000e+000
5.361364e+002;0.000000e+000
5.380649e+002;0.000000e+000
5.399935e+002;0.000000e+000
5.419220e+002;0.000000e+000
5.438505e+002;0.000000e+000
5.457791e+002;0.000000e+000
5.477076e+002;0.000000e+000
5.496362e+002;0.000000e+000
5.515648e+002;0.000000e+000
5.534933e+002;0.000000e+000
5.554218e+002;0.000000e+000
5.573504e+002;0.000000e+000
5.592789e+002;0.000000e+000
5.612075e+002;0.000000e+000
5.631360e+002;0.000000e+000
5.650646e+002;0.000000e+000
5.669931e+002;0.000000e+000
5.689217e+002;0.000000e+000
5.708502e+002;0.000000e+000
5.727787e+002;0.000000e+000
5.747073e+002;0.000000e+000
5.766359e+002;0.000000e+000
5.785644e+002;0.000000e+000
5.804930e+002;0.000000e+000
5.824215e+002;0.000000e+000
5.843500e+002;0.000000e+000
5.862786e+002;0.000000e+000
5.882072e+002;0.000000e+000
5.901357e+002;0.000000e+000
5.920643e+002;0.000000e+000
5.939928e+002;0.000000e+000
5.959213e+002;0.000000e+000
5.978499e+002;0.000000e+000
5.997784e+002;1.402945e-001
6.017070e+002;1.464286e-001
6.036355e+002;1.415997e-001
6.055641e+002;1.351713e-001
6.074926e+002;1.316897e-001
6.094211e+002;1.310500e-001
6.113497e+002;1.328518e-001
6.132783e+002;1.304972e-001
6.152068e+002;1.298698e-001
6.171354e+002;1.303524e-001
6.190639e+002;1.291987e-001
6.209924e+002;1.304654e-001
6.229210e+002;1.347808e-001
6.248495e+002;1.361667e-001
6.267781e+002;1.342881e-001
6.287067e+002;1.339267e-001
6.306352e+002;1.343888e-001
6.325637e+002;1.340643e-001
6.344923e+002;1.344120e-001
6.364208e+002;1.359814e-001
6.383494e+002;1.362531e-001
6.402780e+002;1.349916e-001
6.422065e+002;1.358834e-001
6.441350e+002;1.386710e-001
6.460636e+002;1.430685e-001
6.479921e+002;1.483034e-001
6.499207e+002;1.510872e-001
6.518492e+002;1.498935e-001
6.537778e+002;1.488069e-001
6.557063e+002;1.527883e-001
6.576349e+002;1.572394e-001
6.595634e+002;1.599951e-001
6.614919e+002;1.632691e-001
6.634205e+002;1.655846e-001
6.653491e+002;1.667009e-001
6.672776e+002;1.677091e-001
6.692062e+002;1.695325e-001
6.711347e+002;1.708655e-001
6.730632e+002;1.721461e-001
6.749918e+002;1.738026e-001
6.769203e+002;1.756618e-001
6.788489e+002;1.784703e-001
6.807775e+002;1.792510e-001
6.827060e+002;1.786247e-001
6.846345e+002;1.783496e-001
6.865631e+002;1.774582e-001
6.884916e+002;1.757951e-001
6.904202e+002;1.743539e-001
6.923488e+002;1.721748e-001
6.942773e+002;1.697065e-001
6.962058e+002;1.671309e-001
6.981344e+002;1.639606e-001
7.000629e+002;1.612984e-001
7.019915e+002;1.595446e-001
7.039200e+002;1.572084e-001
7.058486e+002;1.546100e-001
7.077771e+002;1.533588e-001
7.097057e+002;1.529504e-001
7.116342e+002;1.517825e-001
7.135627e+002;1.498263e-001
7.154913e+002;1.484156e-001
7.174199e+002;1.471186e-001
7.193484e+002;1.461598e-001
7.212770e+002;1.464276e-001
7.232055e+002;1.470859e-001
7.251340e+002;1.475813e-001
7.270626e+002;1.468027e-001
7.289911e+002;1.450660e-001
7.309197e+002;1.413771e-001
7.328483e+002;1.350020e-001
7.347768e+002;1.279596e-001
7.367053e+002;1.216952e-001
7.386339e+002;1.152284e-001
7.405624e+002;1.105961e-001
7.424910e+002;1.084148e-001
7.444196e+002;1.065499e-001
7.463481e+002;1.039273e-001
7.482766e+002;1.015224e-001
7.502052e+002;1.004394e-001
7.521337e+002;9.895671e-002
7.540623e+002;9.778858e-002
7.559908e+002;9.554802e-002
7.579194e+002;9.264185e-002
7.598479e+002;9.119374e-002
7.617765e+002;9.006356e-002
7.637050e+002;8.862007e-002
7.656335e+002;8.749331e-002
7.675621e+002;8.674385e-002
7.694907e+002;8.590949e-002
7.714192e+002;8.550808e-002
7.733478e+002;8.473875e-002
7.752763e+002;8.248085e-002
7.772048e+002;8.052807e-002
7.791334e+002;8.038511e-002
7.810620e+002;8.024076e-002
7.829905e+002;7.880152e-002
7.849191e+002;7.696091e-002
7.868476e+002;7.565319e-002
7.887761e+002;7.400135e-002
7.907047e+002;7.234931e-002
7.926332e+002;7.208320e-002
7.945618e+002;7.131501e-002
7.964903e+002;6.972779e-002
7.984189e+002;6.861328e-002
8.003474e+002;6.809942e-002
8.022759e+002;6.759062e-002
8.042045e+002;6.642485e-002
8.061331e+002;6.536195e-002
8.080616e+002;6.432788e-002
8.099902e+002;6.346340e-002
8.119187e+002;6.276756e-002
8.138472e+002;6.203527e-002
8.157758e+002;6.187908e-002
8.177043e+002;6.193388e-002
8.196329e+002;6.145503e-002
8.215615e+002;6.089756e-002
8.234900e+002;6.115370e-002
8.254185e+002;6.239975e-002
8.273471e+002;6.317811e-002
8.292756e+002;6.416327e-002
8.312042e+002;6.561749e-002
8.331328e+002;6.596745e-002
8.350613e+002;6.453488e-002
8.369898e+002;6.234417e-002
8.389184e+002;5.990087e-002
8.408469e+002;5.824967e-002
8.427755e+002;5.729597e-002
8.447040e+002;5.608135e-002
8.466326e+002;5.455040e-002
8.485611e+002;5.343481e-002
8.504897e+002;5.285550e-002
8.524182e+002;5.254392e-002
8.543467e+002;5.244955e-002
8.562753e+002;5.253196e-002
8.582039e+002;5.300346e-002
8.601324e+002;5.339872e-002
8.620610e+002;5.339633e-002
8.639895e+002;5.296561e-002
8.659180e+002;5.283466e-002
8.678466e+002;5.335133e-002
8.697751e+002;5.320644e-002
8.717037e+002;5.270838e-002
8.736323e+002;5.284629e-002
8.755608e+002;5.317367e-002
8.774893e+002;5.351302e-002
8.794179e+002;5.364137e-002
8.813464e+002;5.372464e-002
8.832750e+002;5.381599e-002
8.852036e+002;5.405707e-002
8.871321e+002;5.451340e-002
8.890606e+002;5.449691e-002
8.909892e+002;5.438325e-002
8.929177e+002;5.452223e-002
8.948463e+002;5.497814e-002
8.967748e+002;5.565162e-002
8.987034e+002;5.575294e-002
9.006319e+002;5.582894e-002
9.025605e+002;5.596389e-002
9.044890e+002;5.652234e-002
9.064175e+002;5.743263e-002
9.083461e+002;5.764730e-002
9.102747e+002;5.777044e-002
9.122032e+002;5.828696e-002
9.141318e+002;5.886044e-002
9.160603e+002;5.955771e-002
9.179888e+002;6.016019e-002
9.199174e+002;6.041228e-002
9.218459e+002;6.077319e-002
9.237745e+002;6.174774e-002
9.257031e+002;6.349910e-002
9.276316e+002;6.495749e-002
9.295601e+002;6.510851e-002
9.314887e+002;6.426237e-002
9.334172e+002;6.296332e-002
9.353458e+002;6.190889e-002
9.372744e+002;6.162171e-002
9.392029e+002;6.101606e-002
9.411314e+002;6.092543e-002
9.430600e+002;6.176126e-002
9.449885e+002;6.306878e-002
9.469171e+002;6.472263e-002
9.488456e+002;6.622884e-002
9.507742e+002;6.699062e-002
9.527027e+002;6.735647e-002
9.546313e+002;6.822482e-002
9.565598e+002;6.943498e-002
9.584883e+002;7.020121e-002
9.604169e+002;7.014541e-002
9.623455e+002;6.942791e-002
9.642740e+002;6.873736e-002
9.662026e+002;6.837280e-002
9.681311e+002;6.808419e-002
9.700596e+002;6.817955e-002
9.719882e+002;6.844374e-002
9.739167e+002;6.810745e-002
9.758453e+002;6.754916e-002
9.777739e+002;6.689217e-002
9.797024e+002;6.606222e-002
9.816309e+002;6.488889e-002
9.835595e+002;6.388915e-002
9.854880e+002;6.333840e-002
9.874166e+002;6.271029e-002
9.893452e+002;6.185944e-002
9.912737e+002;6.097232e-002
9.932022e+002;5.994994e-002
9.951307e+002;5.919253e-002
9.970593e+002;5.887683e-002
9.989879e+002;5.888104e-002
1.000916e+003;5.899603e-002
1.002845e+003;5.894889e-002
1.004773e+003;5.859912e-002
1.006702e+003;5.842552e-002
1.008631e+003;5.841308e-002
1.010559e+003;5.840429e-002
1.012488e+003;5.824202e-002
1.014416e+003;5.791902e-002
1.016345e+003;5.778089e-002
1.018273e+003;5.848579e-002
1.020202e+003;5.952529e-002
1.022130e+003;6.051880e-002
1.024059e+003;6.133496e-002
1.025988e+003;6.211799e-002
1.027916e+003;6.225506e-002
1.029845e+003;6.211527e-002
1.031773e+003;6.177375e-002
1.033702e+003;6.131832e-002
1.035630e+003;6.099242e-002
1.037559e+003;6.030083e-002
1.039487e+003;5.963152e-002
1.041416e+003;5.899515e-002
1.043344e+003;5.856636e-002
1.045273e+003;5.882712e-002
1.047202e+003;5.942304e-002
1.049130e+003;5.996701e-002
1.051059e+003;6.053072e-002
1.052987e+003;6.143934e-002
1.054916e+003;6.291893e-002
1.056844e+003;6.450459e-002
1.058773e+003;6.574396e-002
1.060701e+003;6.677800e-002
1.062630e+003;6.804303e-002
1.064558e+003;6.965217e-002
1.066487e+003;7.096060e-002
1.068416e+003;7.154795e-002
1.070344e+003;7.187280e-002
1.072273e+003;7.261226e-002
1.074201e+003;7.266857e-002
1.076130e+003;7.200520e-002
1.078058e+003;7.142252e-002
1.079987e+003;7.109265e-002
1.081915e+003;7.078238e-002
1.083844e+003;6.990154e-002
1.085773e+003;6.892007e-002
1.087701e+003;6.836357e-002
1.089630e+003;6.762093e-002
1.091558e+003;6.733770e-002
1.093487e+003;6.796847e-002
1.095415e+003;6.861868e-002
1.097344e+003;6.885751e-002
1.099272e+003;6.956591e-002
1.101201e+003;7.106658e-002
1.103129e+003;7.324161e-002
1.105058e+003;7.511991e-002
1.106987e+003;7.636210e-002
1.108915e+003;7.748711e-002
1.110844e+003;7.870798e-002
1.112772e+003;7.943407e-002
1.114701e+003;7.984667e-002
1.116629e+003;8.009139e-002
1.118558e+003;7.995587e-002
1.120486e+003;7.943463e-002
1.122415e+003;7.837476e-002
1.124344e+003;7.619937e-002
1.126272e+003;7.288527e-002
1.128201e+003;6.942087e-002
1.130129e+003;6.744636e-002
1.132058e+003;6.666847e-002
1.133986e+003;6.559873e-002
1.135915e+003;6.503780e-002
1.137843e+003;6.612495e-002
1.139772e+003;6.712468e-002
1.141700e+003;6.787448e-002
1.143629e+003;6.974628e-002
1.145557e+003;7.182471e-002
1.147486e+003;7.357805e-002
1.149415e+003;7.571985e-002
1.151343e+003;7.822167e-002
1.153272e+003;8.137856e-002
1.155200e+003;8.481962e-002
1.157129e+003;8.855851e-002
1.159057e+003;9.306633e-002
1.160986e+003;9.871767e-002
1.162914e+003;1.054209e-001
1.164843e+003;1.119058e-001
1.166771e+003;1.166561e-001
1.168700e+003;1.189838e-001
1.170629e+003;1.181649e-001
1.172557e+003;1.144708e-001
1.174486e+003;1.088254e-001
1.176414e+003;1.030897e-001
1.178343e+003;9.868307e-002
1.180271e+003;9.527709e-002
1.182200e+003;9.343650e-002
1.184128e+003;9.391046e-002
1.186057e+003;9.610196e-002
1.187986e+003;9.889076e-002
1.189914e+003;1.020111e-001
1.191843e+003;1.058063e-001
1.193771e+003;1.104930e-001
1.195700e+003;1.154486e-001
1.197628e+003;1.198031e-001
1.199557e+003;1.222403e-001
1.201485e+003;1.212261e-001
1.203414e+003;1.183108e-001
1.205343e+003;1.155476e-001
1.207271e+003;1.137649e-001
1.209200e+003;1.126329e-001
1.211128e+003;1.119327e-001
1.213057e+003;1.107924e-001
1.214985e+003;1.084459e-001
1.216914e+003;1.055512e-001
1.218842e+003;1.029882e-001
1.220771e+003;1.014168e-001
1.222699e+003;1.016755e-001
1.224628e+003;1.038237e-001
1.226557e+003;1.072031e-001
1.228485e+003;1.115239e-001
1.230414e+003;1.160572e-001
1.232342e+003;1.206773e-001
1.234271e+003;1.243708e-001
1.236199e+003;1.264151e-001
1.238128e+003;1.270965e-001
1.240056e+003;1.271986e-001
1.241985e+003;1.270787e-001
1.243913e+003;1.266003e-001
1.245842e+003;1.265037e-001
1.247771e+003;1.274210e-001
1.249699e+003;1.292175e-001
1.251628e+003;1.316530e-001
1.253556e+003;1.346235e-001
1.255485e+003;1.376884e-001
1.257413e+003;1.403259e-001
1.259342e+003;1.420414e-001
1.261270e+003;1.427913e-001
1.263199e+003;1.417845e-001
1.265127e+003;1.384059e-001
1.267056e+003;1.329025e-001
1.268985e+003;1.269065e-001
1.270913e+003;1.227678e-001
1.272842e+003;1.202485e-001
1.274770e+003;1.188879e-001
1.276699e+003;1.187284e-001
1.278627e+003;1.184368e-001
1.280556e+003;1.170826e-001
1.282484e+003;1.152950e-001
1.284413e+003;1.135107e-001
1.286342e+003;1.117152e-001
1.288270e+003;1.100850e-001
1.290199e+003;1.093599e-001
1.292127e+003;1.090770e-001
1.294056e+003;1.083518e-001
1.295984e+003;1.078023e-001
1.297913e+003;1.074077e-001
1.299841e+003;1.070233e-001
1.301770e+003;1.065944e-001
1.303698e+003;1.061635e-001
1.305627e+003;1.056246e-001
1.307556e+003;1.047531e-001
1.309484e+003;1.036509e-001
1.311413e+003;1.026431e-001
1.313341e+003;1.018023e-001
1.315270e+003;1.009562e-001
1.317198e+003;9.982109e-002
1.319127e+003;9.858065e-002
1.321055e+003;9.763286e-002
1.322984e+003;9.688388e-002
1.324912e+003;9.626802e-002
1.326841e+003;9.647170e-002
1.328770e+003;9.695578e-002
1.330698e+003;9.747565e-002
1.332627e+003;9.784441e-002
1.334555e+003;9.822049e-002
1.336484e+003;9.845635e-002
1.338412e+003;9.875265e-002
1.340341e+003;9.926634e-002
1.342269e+003;1.002676e-001
1.344198e+003;1.013499e-001
1.346126e+003;1.022111e-001
1.348055e+003;1.031377e-001
1.349984e+003;1.043387e-001
1.351912e+003;1.056645e-001
1.353841e+003;1.073757e-001
1.355769e+003;1.092384e-001
1.357698e+003;1.110518e-001
1.359626e+003;1.126189e-001
1.361555e+003;1.141334e-001
1.363483e+003;1.161431e-001
1.365412e+003;1.184691e-001
1.367341e+003;1.201796e-001
1.369269e+003;1.217180e-001
1.371198e+003;1.227068e-001
1.373126e+003;1.223918e-001
1.375055e+003;1.209191e-001
1.376983e+003;1.184985e-001
1.378912e+003;1.154484e-001
1.380840e+003;1.122219e-001
1.382769e+003;1.089759e-001
1.384698e+003;1.055870e-001
1.386626e+003;1.020468e-001
1.388555e+003;9.933560e-002
1.390483e+003;9.716443e-002
1.392412e+003;9.544341e-002
1.394340e+003;9.420733e-002
1.396269e+003;9.380645e-002
1.398197e+003;9.449209e-002
1.400126e+003;9.635971e-002
1.402054e+003;9.885839e-002
1.403983e+003;1.017830e-001
1.405911e+003;1.060820e-001
1.407840e+003;1.115917e-001
1.409769e+003;1.180730e-001
1.411697e+003;1.251512e-001
1.413626e+003;1.313705e-001
1.415554e+003;1.353339e-001
1.417483e+003;1.359778e-001
1.419411e+003;1.342903e-001
1.421340e+003;1.319623e-001
1.423268e+003;1.288851e-001
1.425197e+003;1.267195e-001
1.427125e+003;1.270329e-001
1.429054e+003;1.289826e-001
1.430983e+003;1.317506e-001
1.432911e+003;1.341016e-001
1.434840e+003;1.347650e-001
1.436768e+003;1.341983e-001
1.438697e+003;1.340320e-001
1.440625e+003;1.334641e-001
1.442554e+003;1.323530e-001
1.444482e+003;1.315305e-001
1.446411e+003;1.314916e-001
1.448340e+003;1.325317e-001
1.450268e+003;1.346320e-001
1.452197e+003;1.370131e-001
1.454125e+003;1.390471e-001
1.456054e+003;1.408013e-001
1.457982e+003;1.456397e-001
1.459911e+003;1.522162e-001
1.461839e+003;1.560295e-001
1.463768e+003;1.547516e-001
1.465697e+003;1.489764e-001
1.467625e+003;1.417416e-001
1.469554e+003;1.354969e-001
1.471482e+003;1.315749e-001
1.473411e+003;1.307271e-001
1.475339e+003;1.311790e-001
1.477268e+003;1.300696e-001
1.479196e+003;1.267140e-001
1.481125e+003;1.210345e-001
1.483053e+003;1.147760e-001
1.484982e+003;1.095580e-001
1.486911e+003;1.064223e-001
1.488839e+003;1.058593e-001
1.490768e+003;1.073106e-001
1.492696e+003;1.100371e-001
1.494625e+003;1.128966e-001
1.496553e+003;1.163361e-001
1.498482e+003;1.211331e-001
1.500410e+003;1.268163e-001
1.502339e+003;1.329263e-001
1.504267e+003;1.379447e-001
1.506196e+003;1.428960e-001
1.508125e+003;1.506210e-001
1.510053e+003;1.593294e-001
1.511982e+003;1.674994e-001
1.513910e+003;1.756088e-001
1.515839e+003;1.837227e-001
1.517767e+003;1.924640e-001
1.519696e+003;2.013512e-001
1.521624e+003;2.111628e-001
1.523553e+003;2.219652e-001
1.525481e+003;2.321762e-001
1.527410e+003;2.425520e-001
1.529339e+003;2.527381e-001
1.531267e+003;2.618583e-001
1.533196e+003;2.699154e-001
1.535124e+003;2.769567e-001
1.537053e+003;2.803527e-001
1.538981e+003;2.797192e-001
1.540910e+003;2.777684e-001
1.542838e+003;2.741472e-001
1.544767e+003;2.672040e-001
1.546695e+003;2.578951e-001
1.548624e+003;2.473390e-001
1.550553e+003;2.361146e-001
1.552481e+003;2.243988e-001
1.554410e+003;2.125934e-001
1.556338e+003;2.013310e-001
1.558267e+003;1.900791e-001
1.560195e+003;1.810110e-001
1.562124e+003;1.738916e-001
1.564052e+003;1.657423e-001
1.565981e+003;1.570041e-001
1.567910e+003;1.481443e-001
1.569838e+003;1.393933e-001
1.571767e+003;1.321783e-001
1.573695e+003;1.251002e-001
1.575624e+003;1.177876e-001
1.577552e+003;1.128568e-001
1.579481e+003;1.095373e-001
1.581409e+003;1.062648e-001
1.583338e+003;1.036514e-001
1.585266e+003;1.020487e-001
1.587195e+003;1.013590e-001
1.589124e+003;1.012572e-001
1.591052e+003;1.020209e-001
1.592981e+003;1.039035e-001
1.594909e+003;1.064230e-001
1.596838e+003;1.095717e-001
1.598766e+003;1.139290e-001
1.600695e+003;1.190755e-001
1.602623e+003;1.254292e-001
1.604552e+003;1.328911e-001
1.606480e+003;1.407934e-001
1.608409e+003;1.499344e-001
1.610338e+003;1.603460e-001
1.612266e+003;1.715203e-001
1.614195e+003;1.837441e-001
1.616123e+003;1.975859e-001
1.618052e+003;2.146282e-001
1.619980e+003;2.329060e-001
1.621909e+003;2.506690e-001
1.623837e+003;2.687216e-001
1.625766e+003;2.869083e-001
1.627694e+003;3.049294e-001
1.629623e+003;3.231027e-001
1.631552e+003;3.395382e-001
1.633480e+003;3.509500e-001
1.635409e+003;3.559386e-001
1.637337e+003;3.539820e-001
1.639266e+003;3.432416e-001
1.641194e+003;3.250627e-001
1.643123e+003;3.031974e-001
1.645051e+003;2.803644e-001
1.646980e+003;2.587563e-001
1.648909e+003;2.398536e-001
1.650837e+003;2.217662e-001
1.652766e+003;2.051534e-001
1.654694e+003;1.937349e-001
1.656623e+003;1.843272e-001
1.658551e+003;1.744709e-001
1.660480e+003;1.645873e-001
1.662408e+003;1.547269e-001
1.664337e+003;1.456147e-001
1.666266e+003;1.365828e-001
1.668194e+003;1.271741e-001
1.670123e+003;1.187524e-001
1.672051e+003;1.114246e-001
1.673980e+003;1.035758e-001
1.675908e+003;9.606488e-002
1.677837e+003;8.928381e-002
1.679765e+003;8.169286e-002
1.681694e+003;7.353778e-002
1.683622e+003;6.494267e-002
1.685551e+003;5.903414e-002
1.687479e+003;5.529546e-002
1.689408e+003;5.119339e-002
1.691337e+003;4.777669e-002
1.693265e+003;4.491589e-002
1.695194e+003;4.204958e-002
1.697122e+003;4.080676e-002
1.699051e+003;3.944585e-002
1.700979e+003;3.870686e-002
1.702908e+003;3.948972e-002
1.704836e+003;3.944771e-002
1.706765e+003;3.957810e-002
1.708693e+003;3.962296e-002
1.710622e+003;3.973274e-002
1.712551e+003;3.961036e-002
1.714479e+003;3.898507e-002
1.716408e+003;3.817859e-002
1.718336e+003;3.865119e-002
1.720265e+003;3.991879e-002
1.722193e+003;4.035119e-002
1.724122e+003;4.041748e-002
1.726050e+003;4.068455e-002
1.727979e+003;4.055114e-002
1.729908e+003;4.034203e-002
1.731836e+003;3.952765e-002
1.733765e+003;3.840190e-002
1.735693e+003;3.891824e-002
1.737622e+003;3.933103e-002
1.739550e+003;3.894049e-002
1.741479e+003;3.870295e-002
1.743407e+003;3.799773e-002
1.745336e+003;3.728654e-002
1.747265e+003;3.643452e-002
1.749193e+003;3.525529e-002
1.751122e+003;3.434025e-002
1.753050e+003;3.420909e-002
1.754979e+003;3.362589e-002
1.756907e+003;3.295306e-002
1.758836e+003;3.252175e-002
1.760764e+003;3.164469e-002
1.762693e+003;3.089785e-002
1.764621e+003;3.068839e-002
1.766550e+003;3.009118e-002
1.768479e+003;2.948258e-002
1.770407e+003;2.891851e-002
1.772336e+003;2.832793e-002
1.774264e+003;2.850626e-002
1.776193e+003;2.859957e-002
1.778121e+003;2.835825e-002
1.780050e+003;2.814109e-002
1.781978e+003;2.792691e-002
1.783907e+003;2.748146e-002
1.785835e+003;2.701458e-002
1.787764e+003;2.700428e-002
1.789693e+003;2.670457e-002
1.791621e+003;2.579314e-002
1.793550e+003;2.569175e-002
1.795478e+003;2.612537e-002
1.797407e+003;2.593972e-002
1.799335e+003;2.550305e-002
1.801264e+003;2.522513e-002
1.803192e+003;2.536986e-002
1.805121e+003;2.567150e-002
1.807049e+003;2.564517e-002
1.808978e+003;2.520669e-002
1.810907e+003;2.499037e-002
1.812835e+003;2.498304e-002
1.814764e+003;2.514111e-002
1.816692e+003;2.510273e-002
1.818621e+003;2.497798e-002
1.820549e+003;2.491990e-002
1.822478e+003;2.477167e-002
1.824406e+003;2.435888e-002
1.826335e+003;2.416190e-002
1.828264e+003;2.414061e-002
1.830192e+003;2.418359e-002
1.832121e+003;2.440077e-002
1.834049e+003;2.462391e-002
1.835978e+003;2.460904e-002
1.837906e+003;2.427783e-002
1.839835e+003;2.404611e-002
1.841763e+003;2.380863e-002
1.843692e+003;2.358731e-002
1.845620e+003;2.381045e-002
1.847549e+003;2.377304e-002
1.849478e+003;2.361088e-002
1.851406e+003;2.373843e-002
1.853335e+003;2.376982e-002
1.855263e+003;2.345400e-002
1.857192e+003;2.316138e-002
1.859120e+003;2.302105e-002
1.861049e+003;2.307818e-002
1.862977e+003;2.325663e-002
1.864906e+003;2.333658e-002
1.866834e+003;2.312325e-002
1.868763e+003;2.294056e-002
1.870692e+003;2.301616e-002
1.872620e+003;2.313971e-002
1.874549e+003;2.324901e-002
1.876477e+003;2.334113e-002
1.878406e+003;2.334385e-002
1.880334e+003;2.334553e-002
1.882263e+003;2.335291e-002
1.884191e+003;2.322859e-002
1.886120e+003;2.314440e-002
1.888048e+003;2.326037e-002
1.889977e+003;2.364517e-002
1.891906e+003;2.390318e-002
1.893834e+003;2.370564e-002
1.895763e+003;2.357580e-002
1.897691e+003;2.366721e-002
1.899620e+003;2.381833e-002
1.901548e+003;2.392888e-002
1.903477e+003;2.380527e-002
1.905405e+003;2.360336e-002
1.907334e+003;2.352266e-002
1.909262e+003;2.360886e-002
1.911191e+003;2.353763e-002
1.913120e+003;2.336025e-002
1.915048e+003;2.318455e-002
1.916977e+003;2.305375e-002
1.918905e+003;2.315016e-002
1.920834e+003;2.329061e-002
1.922762e+003;2.328474e-002
1.924691e+003;2.319130e-002
1.926619e+003;2.325439e-002
1.928548e+003;2.354508e-002
1.930477e+003;2.344624e-002
1.932405e+003;2.322870e-002
1.934334e+003;2.318277e-002
1.936262e+003;2.305753e-002
1.938191e+003;2.293616e-002
1.940119e+003;2.296676e-002
1.942048e+003;2.286815e-002
1.943976e+003;2.275927e-002
1.945905e+003;2.294489e-002
1.947833e+003;2.308544e-002
1.949762e+003;2.309645e-002
1.951691e+003;2.307293e-002
1.953619e+003;2.318417e-002
1.955548e+003;2.333372e-002
1.957476e+003;2.345051e-002
1.959405e+003;2.340536e-002
1.961333e+003;2.347982e-002
1.963262e+003;2.358818e-002
1.965190e+003;2.357863e-002
1.967119e+003;2.367456e-002
1.969047e+003;2.388547e-002
1.970976e+003;2.383289e-002
1.972905e+003;2.378984e-002
1.974833e+003;2.384787e-002
1.976762e+003;2.393609e-002
1.978690e+003;2.394180e-002
1.980619e+003;2.386817e-002
1.982547e+003;2.387503e-002
1.984476e+003;2.384825e-002
1.986404e+003;2.382158e-002
1.988333e+003;2.371011e-002
1.990261e+003;2.369475e-002
1.992190e+003;2.384472e-002
1.994119e+003;2.384654e-002
1.996047e+003;2.377615e-002
1.997976e+003;2.381672e-002
1.999904e+003;2.385858e-002
2.001833e+003;2.387815e-002
2.003761e+003;2.400811e-002
2.005690e+003;2.414180e-002
2.007618e+003;2.419977e-002
2.009547e+003;2.412095e-002
2.011476e+003;2.406492e-002
2.013404e+003;2.435948e-002
2.015333e+003;2.471162e-002
2.017261e+003;2.468493e-002
2.019190e+003;2.449951e-002
2.021118e+003;2.448156e-002
2.023047e+003;2.463166e-002
2.024975e+003;2.475490e-002
2.026904e+003;2.477693e-002
2.028833e+003;2.477532e-002
2.030761e+003;2.486229e-002
2.032690e+003;2.501659e-002
2.034618e+003;2.496851e-002
2.036547e+003;2.481040e-002
2.038475e+003;2.497054e-002
2.040404e+003;2.537499e-002
2.042332e+003;2.549975e-002
2.044261e+003;2.542670e-002
2.046189e+003;2.538381e-002
2.048118e+003;2.535588e-002
2.050047e+003;2.547533e-002
2.051975e+003;2.551247e-002
2.053904e+003;2.550347e-002
2.055832e+003;2.577064e-002
2.057761e+003;2.588535e-002
2.059689e+003;2.579128e-002
2.061618e+003;2.571133e-002
2.063546e+003;2.569716e-002
2.065475e+003;2.589002e-002
2.067404e+003;2.591348e-002
2.069332e+003;2.574557e-002
2.071260e+003;2.581885e-002
2.073189e+003;2.593219e-002
2.075118e+003;2.584589e-002
2.077046e+003;2.577268e-002
2.078975e+003;2.568901e-002
2.080903e+003;2.534875e-002
2.082832e+003;2.524511e-002
2.084760e+003;2.550372e-002
2.086689e+003;2.554835e-002
2.088617e+003;2.553643e-002
2.090546e+003;2.546872e-002
2.092475e+003;2.542259e-002
2.094403e+003;2.528806e-002
2.096332e+003;2.526453e-002
2.098260e+003;2.545070e-002
2.100189e+003;2.554047e-002
2.102117e+003;2.551552e-002
2.104046e+003;2.546458e-002
2.105974e+003;2.567624e-002
2.107903e+003;2.569519e-002
2.109832e+003;2.549803e-002
2.111760e+003;2.559892e-002
2.113688e+003;2.573580e-002
2.115617e+003;2.577813e-002
2.117546e+003;2.576512e-002
2.119474e+003;2.575573e-002
2.121403e+003;2.579321e-002
2.123331e+003;2.582964e-002
2.125260e+003;2.599386e-002
2.127188e+003;2.619241e-002
2.129117e+003;2.620339e-002
2.131045e+003;2.619413e-002
2.132974e+003;2.623140e-002
2.134903e+003;2.614800e-002
2.136831e+003;2.605665e-002
2.138760e+003;2.603533e-002
2.140688e+003;2.624897e-002
2.142617e+003;2.646880e-002
2.144545e+003;2.647461e-002
2.146474e+003;2.639975e-002
2.148402e+003;2.643588e-002
2.150331e+003;2.638014e-002
2.152260e+003;2.624323e-002
2.154188e+003;2.602925e-002
2.156117e+003;2.596512e-002
2.158045e+003;2.625418e-002
2.159974e+003;2.652642e-002
2.161902e+003;2.677244e-002
2.163831e+003;2.682245e-002
2.165759e+003;2.672317e-002
2.167688e+003;2.663629e-002
2.169616e+003;2.677642e-002
2.171545e+003;2.689308e-002
2.173474e+003;2.680000e-002
2.175402e+003;2.668205e-002
2.177331e+003;2.657348e-002
2.179259e+003;2.666497e-002
2.181188e+003;2.680610e-002
2.183116e+003;2.691681e-002
2.185045e+003;2.713518e-002
2.186973e+003;2.725674e-002
2.188902e+003;2.713963e-002
2.190831e+003;2.726920e-002
2.192759e+003;2.747017e-002
2.194688e+003;2.739947e-002
2.196616e+003;2.732452e-002
2.198545e+003;2.733511e-002
2.200473e+003;2.724185e-002
2.202402e+003;2.714901e-002
2.204330e+003;2.701109e-002
2.206259e+003;2.699465e-002
2.208188e+003;2.701980e-002
2.210116e+003;2.692432e-002
2.212044e+003;2.688660e-002
2.213973e+003;2.680282e-002
2.215902e+003;2.653283e-002
2.217830e+003;2.632039e-002
2.219759e+003;2.642162e-002
2.221687e+003;2.645718e-002
2.223616e+003;2.619030e-002
2.225544e+003;2.589336e-002
2.227473e+003;2.581558e-002
2.229401e+003;2.579392e-002
2.231330e+003;2.592020e-002
2.233259e+003;2.596941e-002
2.235187e+003;2.576101e-002
2.237116e+003;2.573003e-002
2.239044e+003;2.584332e-002
2.240973e+003;2.570440e-002
2.242901e+003;2.563122e-002
2.244830e+003;2.581526e-002
2.246758e+003;2.575988e-002
2.248687e+003;2.551886e-002
2.250615e+003;2.570068e-002
2.252544e+003;2.603273e-002
2.254473e+003;2.610401e-002
2.256401e+003;2.637380e-002
2.258330e+003;2.650677e-002
2.260258e+003;2.612016e-002
2.262187e+003;2.593423e-002
2.264115e+003;2.609029e-002
2.266044e+003;2.608473e-002
2.267972e+003;2.626146e-002
2.269901e+003;2.650617e-002
2.271830e+003;2.658257e-002
2.273758e+003;2.666176e-002
2.275687e+003;2.675870e-002
2.277615e+003;2.689664e-002
2.279544e+003;2.662012e-002
2.281472e+003;2.647285e-002
2.283401e+003;2.655953e-002
2.285329e+003;2.678171e-002
2.287258e+003;2.696405e-002
2.289187e+003;2.698877e-002
2.291115e+003;2.684659e-002
2.293043e+003;2.667547e-002
2.294972e+003;2.671334e-002
2.296901e+003;2.678801e-002
2.298829e+003;2.689978e-002
2.300758e+003;2.723152e-002
2.302686e+003;2.722612e-002
2.304615e+003;2.706712e-002
2.306543e+003;2.715268e-002
2.308472e+003;2.730451e-002
2.310400e+003;2.726779e-002
2.312329e+003;2.719691e-002
2.314258e+003;2.738081e-002
2.316186e+003;2.738013e-002
2.318115e+003;2.709240e-002
2.320043e+003;2.724584e-002
2.321972e+003;2.740441e-002
2.323900e+003;2.727579e-002
2.325829e+003;2.713349e-002
2.327757e+003;2.712083e-002
2.329686e+003;2.705929e-002
2.331615e+003;2.703245e-002
2.333543e+003;2.717874e-002
2.335472e+003;2.721123e-002
2.337400e+003;2.713649e-002
2.339329e+003;2.711589e-002
2.341257e+003;2.712376e-002
2.343186e+003;2.703799e-002
2.345114e+003;2.679824e-002
2.347043e+003;2.672053e-002
2.348971e+003;2.667149e-002
2.350900e+003;2.668900e-002
2.352829e+003;2.685286e-002
2.354757e+003;2.688582e-002
2.356686e+003;2.685561e-002
2.358614e+003;2.698602e-002
2.360543e+003;2.724902e-002
2.362471e+003;2.728035e-002
2.364400e+003;2.710446e-002
2.366328e+003;2.716513e-002
2.368257e+003;2.719303e-002
2.370186e+003;2.724372e-002
2.372114e+003;2.761082e-002
2.374042e+003;2.782120e-002
2.375971e+003;2.769461e-002
2.377900e+003;2.762339e-002
2.379828e+003;2.768437e-002
2.381757e+003;2.784894e-002
2.383685e+003;2.793310e-002
2.385614e+003;2.779489e-002
2.387542e+003;2.779771e-002
2.389471e+003;2.796780e-002
2.391399e+003;2.794804e-002
2.393328e+003;2.796557e-002
2.395257e+003;2.816669e-002
2.397185e+003;2.821389e-002
2.399114e+003;2.812975e-002
2.401042e+003;2.807340e-002
2.402971e+003;2.811497e-002
2.404899e+003;2.809224e-002
2.406828e+003;2.797228e-002
2.408756e+003;2.787504e-002
2.410685e+003;2.803360e-002
2.412614e+003;2.817599e-002
2.414542e+003;2.811744e-002
2.416471e+003;2.810578e-002
2.418399e+003;2.828132e-002
2.420328e+003;2.837494e-002
2.422256e+003;2.842885e-002
2.424185e+003;2.867966e-002
2.426113e+003;2.857430e-002
2.428042e+003;2.831792e-002
2.429970e+003;2.842581e-002
2.431899e+003;2.877655e-002
2.433828e+003;2.880427e-002
2.435756e+003;2.870710e-002
2.437685e+003;2.865736e-002
2.439613e+003;2.890541e-002
2.441542e+003;2.936799e-002
2.443470e+003;2.959838e-002
2.445399e+003;2.964631e-002
2.447327e+003;2.967156e-002
2.449256e+003;2.973269e-002
2.451185e+003;2.980512e-002
2.453113e+003;2.993886e-002
2.455042e+003;3.003475e-002
2.456970e+003;3.011159e-002
2.458899e+003;3.025324e-002
2.460827e+003;3.037227e-002
2.462756e+003;3.036939e-002
2.464684e+003;3.024386e-002
2.466613e+003;3.035667e-002
2.468542e+003;3.050071e-002
2.470470e+003;3.058929e-002
2.472398e+003;3.067182e-002
2.474327e+003;3.081806e-002
2.476256e+003;3.095400e-002
2.478184e+003;3.096584e-002
2.480113e+003;3.098961e-002
2.482041e+003;3.094357e-002
2.483970e+003;3.096129e-002
2.485898e+003;3.122614e-002
2.487827e+003;3.104275e-002
2.489755e+003;3.077381e-002
2.491684e+003;3.090482e-002
2.493613e+003;3.106129e-002
2.495541e+003;3.111090e-002
2.497470e+003;3.113667e-002
2.499398e+003;3.100065e-002
2.501327e+003;3.107360e-002
2.503255e+003;3.110129e-002
2.505184e+003;3.106563e-002
2.507112e+003;3.118274e-002
2.509041e+003;3.135006e-002
2.510969e+003;3.155585e-002
2.512898e+003;3.167563e-002
2.514827e+003;3.165759e-002
2.516755e+003;3.168389e-002
2.518684e+003;3.181490e-002
2.520612e+003;3.204459e-002
2.522541e+003;3.219933e-002
2.524469e+003;3.228119e-002
2.526398e+003;3.264046e-002
2.528326e+003;3.315171e-002
2.530255e+003;3.330841e-002
2.532184e+003;3.328669e-002
2.534112e+003;3.335667e-002
2.536041e+003;3.344216e-002
2.537969e+003;3.357291e-002
2.539898e+003;3.366492e-002
2.541826e+003;3.364963e-002
2.543755e+003;3.360706e-002
2.545683e+003;3.378563e-002
2.547612e+003;3.400953e-002
2.549541e+003;3.416629e-002
2.551469e+003;3.407572e-002
2.553397e+003;3.392031e-002
2.555326e+003;3.388134e-002
2.557255e+003;3.385562e-002
2.559183e+003;3.394568e-002
2.561112e+003;3.412331e-002
2.563040e+003;3.416091e-002
2.564969e+003;3.411005e-002
2.566897e+003;3.418977e-002
2.568826e+003;3.435241e-002
2.570754e+003;3.440043e-002
2.572683e+003;3.459572e-002
2.574612e+003;3.469071e-002
2.576540e+003;3.464169e-002
2.578469e+003;3.486147e-002
2.580397e+003;3.542725e-002
2.582326e+003;3.564926e-002
2.584254e+003;3.567631e-002
2.586183e+003;3.565264e-002
2.588111e+003;3.563764e-002
2.590040e+003;3.569444e-002
2.591969e+003;3.560757e-002
2.593897e+003;3.577423e-002
2.595826e+003;3.599181e-002
2.597754e+003;3.594768e-002
2.599683e+003;3.587045e-002
2.601611e+003;3.616247e-002
2.603540e+003;3.637968e-002
2.605468e+003;3.625111e-002
2.607397e+003;3.608833e-002
2.609325e+003;3.621340e-002
2.611254e+003;3.631958e-002
2.613183e+003;3.638054e-002
2.615111e+003;3.635525e-002
2.617040e+003;3.638278e-002
2.618968e+003;3.651167e-002
2.620897e+003;3.667630e-002
2.622825e+003;3.678072e-002
2.624754e+003;3.675772e-002
2.626682e+003;3.670157e-002
2.628611e+003;3.677874e-002
2.630540e+003;3.707408e-002
2.632468e+003;3.731611e-002
2.634396e+003;3.732470e-002
2.636325e+003;3.720928e-002
2.638254e+003;3.731434e-002
2.640182e+003;3.740826e-002
2.642111e+003;3.753508e-002
2.644039e+003;3.754874e-002
2.645968e+003;3.751333e-002
2.647896e+003;3.780282e-002
2.649825e+003;3.797220e-002
2.651753e+003;3.796800e-002
2.653682e+003;3.807921e-002
2.655611e+003;3.817587e-002
2.657539e+003;3.803350e-002
2.659468e+003;3.810504e-002
2.661396e+003;3.840375e-002
2.663325e+003;3.841225e-002
2.665253e+003;3.842188e-002
2.667182e+003;3.858901e-002
2.669110e+003;3.876355e-002
2.671039e+003;3.884783e-002
2.672968e+003;3.881645e-002
2.674896e+003;3.896271e-002
2.676825e+003;3.921656e-002
2.678753e+003;3.939492e-002
2.680682e+003;3.937982e-002
2.682610e+003;3.933901e-002
2.684539e+003;3.937140e-002
2.686467e+003;3.966521e-002
2.688396e+003;4.007944e-002
2.690324e+003;4.045566e-002
2.692253e+003;4.064762e-002
2.694182e+003;4.067673e-002
2.696110e+003;4.056809e-002
2.698039e+003;4.059527e-002
2.699967e+003;4.093796e-002
2.701896e+003;4.124504e-002
2.703824e+003;4.144905e-002
2.705753e+003;4.177757e-002
2.707681e+003;4.184448e-002
2.709610e+003;4.180147e-002
2.711539e+003;4.221036e-002
2.713467e+003;4.256680e-002
2.715396e+003;4.299591e-002
2.717324e+003;4.333956e-002
2.719253e+003;4.354214e-002
2.721181e+003;4.377204e-002
2.723110e+003;4.387632e-002
2.725038e+003;4.386232e-002
2.726967e+003;4.426377e-002
2.728896e+003;4.477331e-002
2.730824e+003;4.511939e-002
2.732752e+003;4.547410e-002
2.734681e+003;4.558070e-002
2.736610e+003;4.585363e-002
2.738538e+003;4.601229e-002
2.740467e+003;4.601885e-002
2.742395e+003;4.623260e-002
2.744324e+003;4.657409e-002
2.746252e+003;4.660201e-002
2.748181e+003;4.678439e-002
2.750109e+003;4.717743e-002
2.752038e+003;4.719169e-002
2.753967e+003;4.718246e-002
2.755895e+003;4.730085e-002
2.757824e+003;4.741012e-002
2.759752e+003;4.745916e-002
2.761681e+003;4.747768e-002
2.763609e+003;4.753726e-002
2.765538e+003;4.783691e-002
2.767466e+003;4.802413e-002
2.769395e+003;4.812010e-002
2.771323e+003;4.842767e-002
2.773252e+003;4.860166e-002
2.775181e+003;4.882892e-002
2.777109e+003;4.915120e-002
2.779038e+003;4.927076e-002
2.780966e+003;4.941116e-002
2.782895e+003;4.975096e-002
2.784823e+003;5.047707e-002
2.786752e+003;5.092786e-002
2.788680e+003;5.082650e-002
2.790609e+003;5.113383e-002
2.792538e+003;5.148375e-002
2.794466e+003;5.181230e-002
2.796395e+003;5.225888e-002
2.798323e+003;5.233015e-002
2.800252e+003;5.256438e-002
2.802180e+003;5.324206e-002
2.804109e+003;5.381483e-002
2.806037e+003;5.430736e-002
2.807966e+003;5.475092e-002
2.809895e+003;5.526310e-002
2.811823e+003;5.579868e-002
2.813751e+003;5.654087e-002
2.815680e+003;5.724236e-002
2.817609e+003;5.771212e-002
2.819537e+003;5.835517e-002
2.821466e+003;5.916993e-002
2.823394e+003;5.957200e-002
2.825323e+003;5.992468e-002
2.827251e+003;6.052161e-002
2.829180e+003;6.129615e-002
2.831108e+003;6.232680e-002
2.833037e+003;6.352207e-002
2.834966e+003;6.508253e-002
2.836894e+003;6.711254e-002
2.838823e+003;6.935327e-002
2.840751e+003;7.255606e-002
2.842680e+003;7.695019e-002
2.844608e+003;8.179345e-002
2.846537e+003;8.675679e-002
2.848465e+003;9.183343e-002
2.850394e+003;9.684247e-002
2.852323e+003;1.012384e-001
2.854251e+003;1.047169e-001
2.856180e+003;1.072459e-001
2.858108e+003;1.089222e-001
2.860037e+003;1.096776e-001
2.861965e+003;1.095243e-001
2.863894e+003;1.087698e-001
2.865822e+003;1.075620e-001
2.867751e+003;1.058762e-001
2.869679e+003;1.034524e-001
2.871608e+003;1.004604e-001
2.873536e+003;9.742601e-002
2.875465e+003;9.422062e-002
2.877394e+003;9.116226e-002
2.879322e+003;8.897853e-002
2.881251e+003;8.783847e-002
2.883179e+003;8.663547e-002
2.885108e+003;8.574448e-002
2.887036e+003;8.599260e-002
2.888965e+003;8.703072e-002
2.890893e+003;8.859816e-002
2.892822e+003;9.075761e-002
2.894750e+003;9.272647e-002
2.896679e+003;9.454609e-002
2.898608e+003;9.632807e-002
2.900536e+003;9.790239e-002
2.902465e+003;9.935939e-002
2.904393e+003;1.009389e-001
2.906322e+003;1.026580e-001
2.908250e+003;1.047001e-001
2.910179e+003;1.069327e-001
2.912107e+003;1.093970e-001
2.914036e+003;1.125582e-001
2.915965e+003;1.161800e-001
2.917893e+003;1.200885e-001
2.919822e+003;1.237991e-001
2.921750e+003;1.271270e-001
2.923679e+003;1.304030e-001
2.925607e+003;1.332596e-001
2.927536e+003;1.356620e-001
2.929464e+003;1.377451e-001
2.931393e+003;1.392851e-001
2.933322e+003;1.400002e-001
2.935250e+003;1.393797e-001
2.937178e+003;1.374553e-001
2.939107e+003;1.349538e-001
2.941036e+003;1.318267e-001
2.942964e+003;1.279390e-001
2.944893e+003;1.238793e-001
2.946821e+003;1.191932e-001
2.948750e+003;1.133127e-001
2.950678e+003;1.069038e-001
2.952607e+003;1.005320e-001
2.954535e+003;9.439045e-002
2.956464e+003;8.883426e-002
2.958393e+003;8.409124e-002
2.960321e+003;7.981620e-002
2.962250e+003;7.602072e-002
2.964178e+003;7.303190e-002
2.966107e+003;7.015786e-002
2.968035e+003;6.730261e-002
2.969964e+003;6.465868e-002
2.971892e+003;6.229265e-002
2.973821e+003;6.014550e-002
2.975750e+003;5.815541e-002
2.977678e+003;5.632663e-002
2.979607e+003;5.443384e-002
2.981535e+003;5.305066e-002
2.983464e+003;5.233531e-002
2.985392e+003;5.136734e-002
2.987321e+003;5.032536e-002
2.989249e+003;4.959014e-002
2.991178e+003;4.903274e-002
2.993106e+003;4.859966e-002
2.995035e+003;4.822950e-002
2.996964e+003;4.824957e-002
2.998892e+003;4.802768e-002
3.000821e+003;4.749535e-002
3.002749e+003;4.722456e-002
3.004678e+003;4.743192e-002
3.006606e+003;4.748459e-002
3.008535e+003;4.734560e-002
3.010463e+003;4.743658e-002
3.012392e+003;4.779962e-002
3.014321e+003;4.794653e-002
3.016249e+003;4.811192e-002
3.018177e+003;4.833211e-002
3.020106e+003;4.846664e-002
3.022035e+003;4.887185e-002
3.023963e+003;4.955193e-002
3.025892e+003;4.979633e-002
3.027820e+003;4.974617e-002
3.029749e+003;5.020539e-002
3.031677e+003;5.108165e-002
3.033606e+003;5.190807e-002
3.035534e+003;5.235781e-002
3.037463e+003;5.284869e-002
3.039392e+003;5.364103e-002
3.041320e+003;5.416223e-002
3.043249e+003;5.459744e-002
3.045177e+003;5.526073e-002
3.047106e+003;5.620982e-002
3.049034e+003;5.722573e-002
3.050963e+003;5.804849e-002
3.052891e+003;5.880956e-002
3.054820e+003;5.934133e-002
3.056749e+003;5.985911e-002
3.058677e+003;6.019893e-002
3.060606e+003;6.081244e-002
3.062534e+003;6.143972e-002
3.064463e+003;6.196662e-002
3.066391e+003;6.246299e-002
3.068320e+003;6.273268e-002
3.070248e+003;6.295045e-002
3.072177e+003;6.271373e-002
3.074105e+003;6.245334e-002
3.076034e+003;6.262853e-002
3.077963e+003;6.283484e-002
3.079891e+003;6.289385e-002
3.081820e+003;6.264766e-002
3.083748e+003;6.248502e-002
3.085677e+003;6.214819e-002
3.087605e+003;6.173655e-002
3.089534e+003;6.141232e-002
3.091462e+003;6.093671e-002
3.093391e+003;6.012906e-002
3.095320e+003;5.938004e-002
3.097248e+003;5.895898e-002
3.099177e+003;5.844345e-002
3.101105e+003;5.766648e-002
3.103034e+003;5.696755e-002
3.104962e+003;5.657990e-002
3.106891e+003;5.578693e-002
3.108819e+003;5.487192e-002
3.110748e+003;5.429839e-002
3.112677e+003;5.364823e-002
3.114605e+003;5.331416e-002
3.116533e+003;5.308986e-002
3.118462e+003;5.263555e-002
3.120391e+003;5.232963e-002
3.122319e+003;5.191143e-002
3.124248e+003;5.173383e-002
3.126176e+003;5.202787e-002
3.128105e+003;5.230025e-002
3.130033e+003;5.212223e-002
3.131962e+003;5.159631e-002
3.133890e+003;5.156165e-002
3.135819e+003;5.173488e-002
3.137748e+003;5.163131e-002
3.139676e+003;5.164620e-002
3.141605e+003;5.153061e-002
3.143533e+003;5.137099e-002
3.145462e+003;5.172409e-002
3.147390e+003;5.235220e-002
3.149319e+003;5.255339e-002
3.151247e+003;5.261019e-002
3.153176e+003;5.281026e-002
3.155104e+003;5.312398e-002
3.157033e+003;5.340997e-002
3.158962e+003;5.381738e-002
3.160890e+003;5.414785e-002
3.162819e+003;5.444590e-002
3.164747e+003;5.505231e-002
3.166676e+003;5.549737e-002
3.168604e+003;5.583252e-002
3.170533e+003;5.670164e-002
3.172461e+003;5.769581e-002
3.174390e+003;5.841672e-002
3.176319e+003;5.860011e-002
3.178247e+003;5.900859e-002
3.180176e+003;5.963030e-002
3.182104e+003;5.984348e-002
3.184033e+003;6.059567e-002
3.185961e+003;6.166632e-002
3.187890e+003;6.203955e-002
3.189818e+003;6.230320e-002
3.191747e+003;6.293153e-002
3.193676e+003;6.321125e-002
3.195604e+003;6.348165e-002
3.197532e+003;6.406622e-002
3.199461e+003;6.498423e-002
3.201390e+003;6.536614e-002
3.203318e+003;6.534215e-002
3.205247e+003;6.574141e-002
3.207175e+003;6.604656e-002
3.209104e+003;6.637493e-002
3.211032e+003;6.678956e-002
3.212961e+003;6.715291e-002
3.214889e+003;6.743254e-002
3.216818e+003;6.789576e-002
3.218747e+003;6.855865e-002
3.220675e+003;6.916156e-002
3.222604e+003;6.975573e-002
3.224532e+003;7.075544e-002
3.226461e+003;7.174122e-002
3.228389e+003;7.227992e-002
3.230318e+003;7.309185e-002
3.232246e+003;7.462327e-002
3.234175e+003;7.623851e-002
3.236104e+003;7.772557e-002
3.238032e+003;7.917996e-002
3.239961e+003;8.070340e-002
3.241889e+003;8.259023e-002
3.243818e+003;8.445226e-002
3.245746e+003;8.617528e-002
3.247675e+003;8.780453e-002
3.249603e+003;8.959146e-002
3.251532e+003;9.176467e-002
3.253460e+003;9.380891e-002
3.255389e+003;9.581487e-002
3.257318e+003;9.811457e-002
3.259246e+003;1.000841e-001
3.261175e+003;1.020315e-001
3.263103e+003;1.040765e-001
3.265032e+003;1.061193e-001
3.266960e+003;1.084128e-001
3.268889e+003;1.108164e-001
3.270817e+003;1.128813e-001
3.272746e+003;1.147566e-001
3.274675e+003;1.172321e-001
3.276603e+003;1.196827e-001
3.278531e+003;1.216125e-001
3.280460e+003;1.236553e-001
3.282389e+003;1.256006e-001
3.284317e+003;1.269517e-001
3.286246e+003;1.281577e-001
3.288174e+003;1.298149e-001
3.290103e+003;1.315416e-001
3.292031e+003;1.318401e-001
3.293960e+003;1.312775e-001
3.295888e+003;1.304616e-001
3.297817e+003;1.293302e-001
3.299746e+003;1.274330e-001
3.301674e+003;1.249324e-001
3.303603e+003;1.223330e-001
3.305531e+003;1.197979e-001
3.307460e+003;1.170483e-001
3.309388e+003;1.137371e-001
3.311317e+003;1.104448e-001
3.313245e+003;1.075589e-001
3.315174e+003;1.045438e-001
3.317103e+003;1.015987e-001
3.319031e+003;9.881363e-002
3.320960e+003;9.585424e-002
3.322888e+003;9.297012e-002
3.324817e+003;9.045786e-002
3.326745e+003;8.798046e-002
3.328674e+003;8.542550e-002
3.330602e+003;8.308370e-002
3.332531e+003;8.075551e-002
3.334459e+003;7.837936e-002
3.336388e+003;7.666543e-002
3.338317e+003;7.524314e-002
3.340245e+003;7.356628e-002
3.342174e+003;7.146712e-002
3.344102e+003;6.905072e-002
3.346031e+003;6.696267e-002
3.347959e+003;6.560011e-002
3.349888e+003;6.451297e-002
3.351816e+003;6.324724e-002
3.353745e+003;6.165207e-002
3.355674e+003;6.033003e-002
3.357602e+003;5.932268e-002
3.359531e+003;5.800531e-002
3.361459e+003;5.672731e-002
3.363388e+003;5.588844e-002
3.365316e+003;5.530054e-002
3.367245e+003;5.428093e-002
3.369173e+003;5.312345e-002
3.371102e+003;5.242641e-002
3.373031e+003;5.155549e-002
3.374959e+003;5.077242e-002
3.376887e+003;5.030717e-002
3.378816e+003;4.988136e-002
3.380745e+003;4.945749e-002
3.382673e+003;4.891624e-002
3.384602e+003;4.822776e-002
3.386530e+003;4.732494e-002
3.388459e+003;4.695868e-002
3.390387e+003;4.706376e-002
3.392316e+003;4.642949e-002
3.394244e+003;4.559494e-002
3.396173e+003;4.525510e-002
3.398102e+003;4.526194e-002
3.400030e+003;4.517175e-002
3.401959e+003;4.469034e-002
3.403887e+003;4.434720e-002
3.405816e+003;4.432739e-002
3.407744e+003;4.399066e-002
3.409673e+003;4.325818e-002
3.411601e+003;4.292034e-002
3.413530e+003;4.302621e-002
3.415458e+003;4.270796e-002
3.417387e+003;4.227803e-002
3.419316e+003;4.200468e-002
3.421244e+003;4.194172e-002
3.423173e+003;4.217093e-002
3.425101e+003;4.215235e-002
3.427030e+003;4.202870e-002
3.428958e+003;4.204775e-002
3.430887e+003;4.178177e-002
3.432815e+003;4.171596e-002
3.434744e+003;4.171450e-002
3.436673e+003;4.136733e-002
3.438601e+003;4.102870e-002
3.440530e+003;4.099629e-002
3.442458e+003;4.102007e-002
3.444387e+003;4.050906e-002
3.446315e+003;3.996096e-002
3.448244e+003;4.002814e-002
3.450172e+003;4.059880e-002
3.452101e+003;4.064224e-002
3.454030e+003;4.002734e-002
3.455958e+003;3.991665e-002
3.457886e+003;3.994959e-002
3.459815e+003;3.973220e-002
3.461744e+003;3.916286e-002
3.463672e+003;3.887417e-002
3.465601e+003;3.892483e-002
3.467529e+003;3.927005e-002
3.469458e+003;3.924815e-002
3.471386e+003;3.884257e-002
3.473315e+003;3.843777e-002
3.475243e+003;3.828782e-002
3.477172e+003;3.831475e-002
3.479101e+003;3.831272e-002
3.481029e+003;3.858557e-002
3.482958e+003;3.868828e-002
3.484886e+003;3.830230e-002
3.486815e+003;3.808363e-002
3.488743e+003;3.803932e-002
3.490672e+003;3.812417e-002
3.492600e+003;3.808663e-002
3.494529e+003;3.791521e-002
3.496458e+003;3.800167e-002
3.498386e+003;3.801827e-002
3.500315e+003;3.776645e-002
3.502243e+003;3.770660e-002
3.504172e+003;3.757908e-002
3.506100e+003;3.719239e-002
3.508029e+003;3.680049e-002
3.509957e+003;3.645044e-002
3.511886e+003;3.613363e-002
3.513814e+003;3.627895e-002
3.515743e+003;3.633187e-002
3.517672e+003;3.623501e-002
3.519600e+003;3.620281e-002
3.521529e+003;3.592940e-002
3.523457e+003;3.572451e-002
3.525386e+003;3.577366e-002
3.527314e+003;3.577581e-002
3.529243e+003;3.576078e-002
3.531171e+003;3.566753e-002
3.533100e+003;3.563243e-002
3.535029e+003;3.553270e-002
3.536957e+003;3.522094e-002
3.538885e+003;3.499635e-002
3.540814e+003;3.437826e-002
3.542743e+003;3.358300e-002
3.544671e+003;3.350418e-002
3.546600e+003;3.336905e-002
3.548528e+003;3.298802e-002
3.550457e+003;3.285662e-002
3.552385e+003;3.290495e-002
3.554314e+003;3.279180e-002
3.556242e+003;3.231018e-002
3.558171e+003;3.173993e-002
3.560100e+003;3.149186e-002
3.562028e+003;3.120531e-002
3.563957e+003;3.116476e-002
3.565885e+003;3.065130e-002
3.567814e+003;3.018337e-002
3.569742e+003;3.039135e-002
3.571671e+003;3.008137e-002
3.573599e+003;2.966699e-002
3.575528e+003;2.976548e-002
3.577457e+003;2.988427e-002
3.579385e+003;2.973965e-002
3.581314e+003;2.938944e-002
3.583242e+003;2.903015e-002
3.585171e+003;2.845715e-002
3.587099e+003;2.793984e-002
3.589028e+003;2.794808e-002
3.590956e+003;2.796847e-002
3.592885e+003;2.763119e-002
3.594813e+003;2.731101e-002
3.596742e+003;2.680955e-002
3.598671e+003;2.681758e-002
3.600599e+003;2.695626e-002
3.602528e+003;2.673533e-002
3.604456e+003;2.633810e-002
3.606385e+003;2.559407e-002
3.608313e+003;2.464604e-002
3.610242e+003;2.478265e-002
3.612170e+003;2.489296e-002
3.614099e+003;2.473800e-002
3.616028e+003;2.427058e-002
3.617956e+003;2.388133e-002
3.619885e+003;2.403130e-002
3.621813e+003;2.423316e-002
3.623742e+003;2.440504e-002
3.625670e+003;2.428056e-002
3.627599e+003;2.300638e-002
3.629527e+003;2.247182e-002
3.631456e+003;2.334448e-002
3.633385e+003;2.361736e-002
3.635313e+003;2.330728e-002
3.637241e+003;2.301770e-002
3.639170e+003;2.287130e-002
3.641099e+003;2.294430e-002
3.643027e+003;2.281231e-002
3.644956e+003;2.202667e-002
3.646884e+003;2.084364e-002
3.648813e+003;2.018697e-002
3.650741e+003;2.049354e-002
3.652670e+003;2.120505e-002
3.654598e+003;2.113004e-002
3.656527e+003;2.095364e-002
3.658456e+003;2.145639e-002
3.660384e+003;2.108900e-002
3.662313e+003;2.054478e-002
3.664241e+003;2.072105e-002
3.666170e+003;2.084913e-002
3.668098e+003;2.032372e-002
3.670027e+003;1.966094e-002
3.671955e+003;1.971596e-002
3.673884e+003;1.898962e-002
3.675813e+003;1.831242e-002
3.677741e+003;1.929732e-002
3.679669e+003;2.002803e-002
3.681598e+003;2.014012e-002
3.683527e+003;1.986890e-002
3.685455e+003;1.920650e-002
3.687384e+003;1.783481e-002
3.689312e+003;1.758311e-002
3.691241e+003;1.815233e-002
3.693169e+003;1.823543e-002
3.695098e+003;1.816107e-002
3.697026e+003;1.825592e-002
3.698955e+003;1.811668e-002
3.700884e+003;1.791467e-002
3.702812e+003;1.806700e-002
3.704741e+003;1.800922e-002
3.706669e+003;1.789868e-002
3.708598e+003;1.765043e-002
3.710526e+003;1.689170e-002
3.712455e+003;1.679918e-002
3.714383e+003;1.753598e-002
3.716312e+003;1.783823e-002
3.718240e+003;1.775110e-002
3.720169e+003;1.725407e-002
3.722098e+003;1.694368e-002
3.724026e+003;1.738824e-002
3.725955e+003;1.771113e-002
3.727883e+003;1.771196e-002
3.729812e+003;1.720263e-002
3.731740e+003;1.676405e-002
3.733669e+003;1.673660e-002
3.735597e+003;1.653031e-002
3.737526e+003;1.686765e-002
3.739455e+003;1.739586e-002
3.741383e+003;1.738262e-002
3.743312e+003;1.628807e-002
3.745240e+003;1.630984e-002
3.747169e+003;1.670196e-002
3.749097e+003;1.596139e-002
3.751026e+003;1.570840e-002
3.752954e+003;1.635495e-002
3.754883e+003;1.746005e-002
3.756812e+003;1.753346e-002
3.758740e+003;1.722935e-002
3.760668e+003;1.734334e-002
3.762597e+003;1.777509e-002
3.764526e+003;1.786743e-002
3.766454e+003;1.784734e-002
3.768383e+003;1.754895e-002
3.770311e+003;1.769174e-002
3.772240e+003;1.803571e-002
3.774168e+003;1.817817e-002
3.776097e+003;1.801081e-002
3.778025e+003;1.757707e-002
3.779954e+003;1.742566e-002
3.781883e+003;1.774309e-002
3.783811e+003;1.799910e-002
3.785740e+003;1.791891e-002
3.787668e+003;1.786837e-002
3.789597e+003;1.777264e-002
3.791525e+003;1.751097e-002
3.793454e+003;1.734272e-002
3.795382e+003;1.699316e-002
3.797311e+003;1.684120e-002
3.799240e+003;1.658067e-002
3.801168e+003;1.645277e-002
3.803097e+003;1.737734e-002
3.805025e+003;1.754888e-002
3.806954e+003;1.723449e-002
3.808882e+003;1.772176e-002
3.810811e+003;1.793145e-002
3.812739e+003;1.757859e-002
3.814668e+003;1.714183e-002
3.816596e+003;1.746340e-002
3.818525e+003;1.780540e-002
3.820454e+003;1.732286e-002
3.822382e+003;1.789274e-002
3.824311e+003;1.828909e-002
3.826239e+003;1.776315e-002
3.828168e+003;1.790717e-002
3.830096e+003;1.801817e-002
3.832025e+003;1.809906e-002
3.833953e+003;1.813412e-002
3.835882e+003;1.736610e-002
3.837811e+003;1.689073e-002
3.839739e+003;1.774972e-002
3.841667e+003;1.837329e-002
3.843596e+003;1.858156e-002
3.845525e+003;1.878174e-002
3.847453e+003;1.916044e-002
3.849382e+003;1.840454e-002
3.851310e+003;1.668699e-002
3.853239e+003;1.615334e-002
3.855167e+003;1.785031e-002
3.857096e+003;1.883353e-002
3.859024e+003;1.879395e-002
3.860953e+003;1.908905e-002
3.862882e+003;1.923778e-002
3.864810e+003;1.866595e-002
3.866739e+003;1.871428e-002
3.868667e+003;1.859367e-002
3.870596e+003;1.853882e-002
3.872524e+003;1.903022e-002
3.874453e+003;1.908357e-002
3.876381e+003;1.886613e-002
3.878310e+003;1.866125e-002
3.880239e+003;1.850044e-002
3.882167e+003;1.880160e-002
3.884096e+003;1.860210e-002
3.886024e+003;1.860612e-002
3.887953e+003;1.968310e-002
3.889881e+003;1.970241e-002
3.891810e+003;1.934038e-002
3.893738e+003;1.964891e-002
3.895667e+003;1.976551e-002
3.897595e+003;1.931876e-002
3.899524e+003;1.921696e-002
3.901453e+003;1.923043e-002
3.903381e+003;1.881658e-002
3.905310e+003;1.933258e-002
3.907238e+003;2.017680e-002
3.909167e+003;2.037452e-002
3.911095e+003;2.029358e-002
3.913024e+003;2.029931e-002
3.914952e+003;2.016289e-002
3.916881e+003;2.008338e-002
3.918810e+003;1.982509e-002
3.920738e+003;1.945610e-002
3.922667e+003;1.980033e-002
3.924595e+003;2.008560e-002
3.926524e+003;1.993044e-002
3.928452e+003;2.014657e-002
3.930381e+003;2.025116e-002
3.932309e+003;2.035671e-002
3.934238e+003;2.088459e-002
3.936167e+003;2.097687e-002
3.938095e+003;2.073797e-002
3.940023e+003;2.100699e-002
3.941952e+003;2.093984e-002
3.943881e+003;2.104500e-002
3.945809e+003;2.164222e-002
3.947738e+003;2.180325e-002
3.949666e+003;2.145092e-002
3.951595e+003;2.148173e-002
3.953523e+003;2.164229e-002
3.955452e+003;2.163013e-002
3.957380e+003;2.203660e-002
3.959309e+003;2.202611e-002
3.961238e+003;2.145186e-002
3.963166e+003;2.125150e-002
3.965095e+003;2.146272e-002
3.967023e+003;2.187067e-002
3.968952e+003;2.230475e-002
3.970880e+003;2.232823e-002
3.972809e+003;2.211797e-002
3.974737e+003;2.198523e-002
3.976666e+003;2.212411e-002
3.978594e+003;2.220811e-002
3.980523e+003;2.206603e-002
3.982452e+003;2.234905e-002
3.984380e+003;2.271531e-002
3.986309e+003;2.300627e-002
3.988237e+003;2.293239e-002
3.990166e+003;2.284549e-002
3.992094e+003;2.294171e-002
3.994023e+003;2.319476e-002
3.995951e+003;2.341068e-002
3.997880e+003;2.342473e-002
3.999809e+003;2.373762e-002
4.001737e+003;0.000000e+000
