3.992094e+002;0.000000e+000
4.011380e+002;0.000000e+000
4.030665e+002;0.000000e+000
4.049951e+002;0.000000e+000
4.069236e+002;0.000000e+000
4.088522e+002;0.000000e+000
4.107807e+002;0.000000e+000
4.127093e+002;0.000000e+000
4.146378e+002;0.000000e+000
4.165664e+002;0.000000e+000
4.184949e+002;0.000000e+000
4.204235e+002;0.000000e+000
4.223520e+002;0.000000e+000
4.242806e+002;0.000000e+000
4.262091e+002;0.000000e+000
4.281377e+002;0.000000e+000
4.300662e+002;0.000000e+000
4.319948e+002;0.000000e+000
4.339233e+002;0.000000e+000
4.358519e+002;0.000000e+000
4.377804e+002;0.000000e+000
4.397090e+002;0.000000e+000
4.416375e+002;0.000000e+000
4.435660e+002;0.000000e+000
4.454946e+002;0.000000e+000
4.474232e+002;0.000000e+000
4.493517e+002;0.000000e+000
4.512802e+002;0.000000e+000
4.532088e+002;0.000000e+000
4.551373e+002;0.000000e+000
4.570659e+002;0.000000e+000
4.589944e+002;0.000000e+000
4.609230e+002;0.000000e+000
4.628515e+002;0.000000e+000
4.647801e+002;0.000000e+000
4.667086e+002;0.000000e+000
4.686372e+002;0.000000e+000
4.705657e+002;0.000000e+000
4.724943e+002;0.000000e+000
4.744228e+002;0.000000e+000
4.763513e+002;0.000000e+000
4.782799e+002;0.000000e+000
4.802085e+002;0.000000e+000
4.821370e+002;0.000000e+000
4.840656e+002;0.000000e+000
4.859941e+002;0.000000e+000
4.879226e+002;0.000000e+000
4.898512e+002;0.000000e+000
4.917798e+002;0.000000e+000
4.937083e+002;0.000000e+000
4.956368e+002;0.000000e+000
4.975654e+002;0.000000e+000
4.994939e+002;0.000000e+000
5.014225e+002;0.000000e+000
5.033510e+002;0.000000e+000
5.052796e+002;0.000000e+000
5.072081e+002;0.000000e+000
5.091367e+002;0.000000e+000
5.110652e+002;0.000000e+000
5.129938e+002;0.000000e+000
5.149223e+002;0.000000e+000
5.168509e+002;0.000000e+000
5.187794e+002;0.000000e+000
5.207079e+002;0.000000e+000
5.226365e+002;0.000000e+000
5.245651e+002;0.000000e+000
5.264936e+002;0.000000e+000
5.284222e+002;0.000000e+000
5.303507e+002;0.000000e+000
5.322792e+002;0.000000e+000
5.342078e+002;0.000000e+000
5.361364e+002;0.000000e+000
5.380649e+002;0.000000e+000
5.399935e+002;0.000000e+000
5.419220e+002;0.000000e+000
5.438505e+002;0.000000e+000
5.457791e+002;0.000000e+000
5.477076e+002;0.000000e+000
5.496362e+002;0.000000e+000
5.515648e+002;0.000000e+000
5.534933e+002;0.000000e+000
5.554218e+002;0.000000e+000
5.573504e+002;0.000000e+000
5.592789e+002;0.000000e+000
5.612075e+002;0.000000e+000
5.631360e+002;0.000000e+000
5.650646e+002;0.000000e+000
5.669931e+002;0.000000e+000
5.689217e+002;0.000000e+000
5.708502e+002;0.000000e+000
5.727787e+002;0.000000e+000
5.747073e+002;0.000000e+000
5.766359e+002;0.000000e+000
5.785644e+002;0.000000e+000
5.804930e+002;0.000000e+000
5.824215e+002;0.000000e+000
5.843500e+002;0.000000e+000
5.862786e+002;0.000000e+000
5.882072e+002;0.000000e+000
5.901357e+002;0.000000e+000
5.920643e+002;0.000000e+000
5.939928e+002;0.000000e+000
5.959213e+002;0.000000e+000
5.978499e+002;0.000000e+000
5.997784e+002;1.445452e-001
6.017070e+002;1.403483e-001
6.036355e+002;1.351452e-001
6.055641e+002;1.371978e-001
6.074926e+002;1.390555e-001
6.094211e+002;1.376886e-001
6.113497e+002;1.395533e-001
6.132783e+002;1.409036e-001
6.152068e+002;1.447578e-001
6.171354e+002;1.486887e-001
6.190639e+002;1.489634e-001
6.209924e+002;1.464359e-001
6.229210e+002;1.474271e-001
6.248495e+002;1.492304e-001
6.267781e+002;1.483301e-001
6.287067e+002;1.482468e-001
6.306352e+002;1.474880e-001
6.325637e+002;1.471967e-001
6.344923e+002;1.477230e-001
6.364208e+002;1.491865e-001
6.383494e+002;1.519153e-001
6.402780e+002;1.559691e-001
6.422065e+002;1.575682e-001
6.441350e+002;1.594805e-001
6.460636e+002;1.576282e-001
6.479921e+002;1.541749e-001
6.499207e+002;1.559888e-001
6.518492e+002;1.581623e-001
6.537778e+002;1.613566e-001
6.557063e+002;1.662980e-001
6.576349e+002;1.683872e-001
6.595634e+002;1.720349e-001
6.614919e+002;1.737009e-001
6.634205e+002;1.734599e-001
6.653491e+002;1.751223e-001
6.672776e+002;1.785359e-001
6.692062e+002;1.817618e-001
6.711347e+002;1.820756e-001
6.730632e+002;1.811758e-001
6.749918e+002;1.816356e-001
6.769203e+002;1.838776e-001
6.788489e+002;1.857383e-001
6.807775e+002;1.862691e-001
6.827060e+002;1.864830e-001
6.846345e+002;1.851647e-001
6.865631e+002;1.826072e-001
6.884916e+002;1.814694e-001
6.904202e+002;1.806241e-001
6.923488e+002;1.782331e-001
6.942773e+002;1.750585e-001
6.962058e+002;1.716698e-001
6.981344e+002;1.675623e-001
7.000629e+002;1.646959e-001
7.019915e+002;1.631521e-001
7.039200e+002;1.614235e-001
7.058486e+002;1.591082e-001
7.077771e+002;1.565086e-001
7.097057e+002;1.553661e-001
7.116342e+002;1.547388e-001
7.135627e+002;1.539917e-001
7.154913e+002;1.514442e-001
7.174199e+002;1.481632e-001
7.193484e+002;1.471140e-001
7.212770e+002;1.470013e-001
7.232055e+002;1.472614e-001
7.251340e+002;1.490608e-001
7.270626e+002;1.498928e-001
7.289911e+002;1.468176e-001
7.309197e+002;1.412994e-001
7.328483e+002;1.352555e-001
7.347768e+002;1.291451e-001
7.367053e+002;1.244872e-001
7.386339e+002;1.209741e-001
7.405624e+002;1.162446e-001
7.424910e+002;1.126090e-001
7.444196e+002;1.107268e-001
7.463481e+002;1.090373e-001
7.482766e+002;1.071361e-001
7.502052e+002;1.053386e-001
7.521337e+002;1.031839e-001
7.540623e+002;1.007046e-001
7.559908e+002;9.900907e-002
7.579194e+002;9.751845e-002
7.598479e+002;9.601603e-002
7.617765e+002;9.486578e-002
7.637050e+002;9.368519e-002
7.656335e+002;9.216133e-002
7.675621e+002;9.027692e-002
7.694907e+002;8.860503e-002
7.714192e+002;8.768554e-002
7.733478e+002;8.717936e-002
7.752763e+002;8.626939e-002
7.772048e+002;8.562759e-002
7.791334e+002;8.463002e-002
7.810620e+002;8.320669e-002
7.829905e+002;8.225846e-002
7.849191e+002;8.121654e-002
7.868476e+002;8.017966e-002
7.887761e+002;7.883211e-002
7.907047e+002;7.716428e-002
7.926332e+002;7.594983e-002
7.945618e+002;7.498162e-002
7.964903e+002;7.413153e-002
7.984189e+002;7.294924e-002
8.003474e+002;7.171785e-002
8.022759e+002;7.081697e-002
8.042045e+002;6.935171e-002
8.061331e+002;6.711269e-002
8.080616e+002;6.575105e-002
8.099902e+002;6.521407e-002
8.119187e+002;6.440754e-002
8.138472e+002;6.341719e-002
8.157758e+002;6.296156e-002
8.177043e+002;6.279340e-002
8.196329e+002;6.206642e-002
8.215615e+002;6.135660e-002
8.234900e+002;6.171956e-002
8.254185e+002;6.312105e-002
8.273471e+002;6.485680e-002
8.292756e+002;6.625747e-002
8.312042e+002;6.745077e-002
8.331328e+002;6.725804e-002
8.350613e+002;6.511752e-002
8.369898e+002;6.233847e-002
8.389184e+002;6.047454e-002
8.408469e+002;5.872098e-002
8.427755e+002;5.696940e-002
8.447040e+002;5.525091e-002
8.466326e+002;5.371917e-002
8.485611e+002;5.303176e-002
8.504897e+002;5.258382e-002
8.524182e+002;5.177258e-002
8.543467e+002;5.097857e-002
8.562753e+002;5.119560e-002
8.582039e+002;5.168151e-002
8.601324e+002;5.113558e-002
8.620610e+002;5.053569e-002
8.639895e+002;5.005976e-002
8.659180e+002;5.014409e-002
8.678466e+002;5.062023e-002
8.697751e+002;5.093371e-002
8.717037e+002;5.109741e-002
8.736323e+002;5.095152e-002
8.755608e+002;5.092123e-002
8.774893e+002;5.128690e-002
8.794179e+002;5.147875e-002
8.813464e+002;5.142690e-002
8.832750e+002;5.181958e-002
8.852036e+002;5.207180e-002
8.871321e+002;5.187204e-002
8.890606e+002;5.205540e-002
8.909892e+002;5.214424e-002
8.929177e+002;5.203755e-002
8.948463e+002;5.185172e-002
8.967748e+002;5.199725e-002
8.987034e+002;5.222151e-002
9.006319e+002;5.236514e-002
9.025605e+002;5.291804e-002
9.044890e+002;5.390151e-002
9.064175e+002;5.410139e-002
9.083461e+002;5.391671e-002
9.102747e+002;5.450818e-002
9.122032e+002;5.554007e-002
9.141318e+002;5.621781e-002
9.160603e+002;5.697375e-002
9.179888e+002;5.789540e-002
9.199174e+002;5.893876e-002
9.218459e+002;6.039404e-002
9.237745e+002;6.198233e-002
9.257031e+002;6.368092e-002
9.276316e+002;6.504281e-002
9.295601e+002;6.550494e-002
9.314887e+002;6.495556e-002
9.334172e+002;6.340660e-002
9.353458e+002;6.146552e-002
9.372744e+002;6.024350e-002
9.392029e+002;6.002979e-002
9.411314e+002;6.005703e-002
9.430600e+002;6.064721e-002
9.449885e+002;6.162015e-002
9.469171e+002;6.332172e-002
9.488456e+002;6.544045e-002
9.507742e+002;6.685587e-002
9.527027e+002;6.740096e-002
9.546313e+002;6.776843e-002
9.565598e+002;6.871167e-002
9.584883e+002;6.911819e-002
9.604169e+002;6.838199e-002
9.623455e+002;6.740309e-002
9.642740e+002;6.638076e-002
9.662026e+002;6.509835e-002
9.681311e+002;6.432623e-002
9.700596e+002;6.417763e-002
9.719882e+002;6.383464e-002
9.739167e+002;6.345944e-002
9.758453e+002;6.296516e-002
9.777739e+002;6.204482e-002
9.797024e+002;6.112658e-002
9.816309e+002;6.039857e-002
9.835595e+002;5.993689e-002
9.854880e+002;5.945203e-002
9.874166e+002;5.844235e-002
9.893452e+002;5.761313e-002
9.912737e+002;5.723144e-002
9.932022e+002;5.649067e-002
9.951307e+002;5.586820e-002
9.970593e+002;5.533686e-002
9.989879e+002;5.492708e-002
1.000916e+003;5.470194e-002
1.002845e+003;5.446374e-002
1.004773e+003;5.442975e-002
1.006702e+003;5.456870e-002
1.008631e+003;5.478959e-002
1.010559e+003;5.480380e-002
1.012488e+003;5.464839e-002
1.014416e+003;5.470036e-002
1.016345e+003;5.525309e-002
1.018273e+003;5.610929e-002
1.020202e+003;5.646517e-002
1.022130e+003;5.702506e-002
1.024059e+003;5.824191e-002
1.025988e+003;5.970964e-002
1.027916e+003;6.080806e-002
1.029845e+003;6.098517e-002
1.031773e+003;6.012335e-002
1.033702e+003;5.896775e-002
1.035630e+003;5.799888e-002
1.037559e+003;5.727756e-002
1.039487e+003;5.674162e-002
1.041416e+003;5.613655e-002
1.043344e+003;5.589601e-002
1.045273e+003;5.604878e-002
1.047202e+003;5.666090e-002
1.049130e+003;5.771295e-002
1.051059e+003;5.851210e-002
1.052987e+003;5.915376e-002
1.054916e+003;6.013789e-002
1.056844e+003;6.115339e-002
1.058773e+003;6.227334e-002
1.060701e+003;6.393590e-002
1.062630e+003;6.546961e-002
1.064558e+003;6.628553e-002
1.066487e+003;6.674771e-002
1.068416e+003;6.777714e-002
1.070344e+003;6.905441e-002
1.072273e+003;6.969982e-002
1.074201e+003;6.965143e-002
1.076130e+003;6.917380e-002
1.078058e+003;6.874350e-002
1.079987e+003;6.815013e-002
1.081915e+003;6.734919e-002
1.083844e+003;6.674284e-002
1.085773e+003;6.595051e-002
1.087701e+003;6.512160e-002
1.089630e+003;6.507014e-002
1.091558e+003;6.571744e-002
1.093487e+003;6.642385e-002
1.095415e+003;6.713458e-002
1.097344e+003;6.778292e-002
1.099272e+003;6.873830e-002
1.101201e+003;7.022941e-002
1.103129e+003;7.208641e-002
1.105058e+003;7.390577e-002
1.106987e+003;7.590859e-002
1.108915e+003;7.731827e-002
1.110844e+003;7.772295e-002
1.112772e+003;7.833555e-002
1.114701e+003;7.849122e-002
1.116629e+003;7.820942e-002
1.118558e+003;7.832706e-002
1.120486e+003;7.792391e-002
1.122415e+003;7.669295e-002
1.124344e+003;7.462229e-002
1.126272e+003;7.168096e-002
1.128201e+003;6.838513e-002
1.130129e+003;6.549981e-002
1.132058e+003;6.288572e-002
1.133986e+003;6.130947e-002
1.135915e+003;6.087385e-002
1.137843e+003;6.072151e-002
1.139772e+003;6.143018e-002
1.141700e+003;6.266860e-002
1.143629e+003;6.429130e-002
1.145557e+003;6.618214e-002
1.147486e+003;6.794244e-002
1.149415e+003;6.985729e-002
1.151343e+003;7.190651e-002
1.153272e+003;7.447147e-002
1.155200e+003;7.774828e-002
1.157129e+003;8.148199e-002
1.159057e+003;8.544825e-002
1.160986e+003;8.991971e-002
1.162914e+003;9.551359e-002
1.164843e+003;1.007243e-001
1.166771e+003;1.045299e-001
1.168700e+003;1.066889e-001
1.170629e+003;1.065727e-001
1.172557e+003;1.042286e-001
1.174486e+003;1.003341e-001
1.176414e+003;9.583049e-002
1.178343e+003;9.209161e-002
1.180271e+003;8.972660e-002
1.182200e+003;8.860999e-002
1.184128e+003;8.897231e-002
1.186057e+003;9.090840e-002
1.187986e+003;9.380205e-002
1.189914e+003;9.699637e-002
1.191843e+003;1.010784e-001
1.193771e+003;1.058618e-001
1.195700e+003;1.108075e-001
1.197628e+003;1.154491e-001
1.199557e+003;1.173863e-001
1.201485e+003;1.153364e-001
1.203414e+003;1.110766e-001
1.205343e+003;1.072139e-001
1.207271e+003;1.050561e-001
1.209200e+003;1.041709e-001
1.211128e+003;1.035842e-001
1.213057e+003;1.026648e-001
1.214985e+003;1.006527e-001
1.216914e+003;9.771119e-002
1.218842e+003;9.516661e-002
1.220771e+003;9.369449e-002
1.222699e+003;9.369995e-002
1.224628e+003;9.540667e-002
1.226557e+003;9.853608e-002
1.228485e+003;1.023764e-001
1.230414e+003;1.062165e-001
1.232342e+003;1.097950e-001
1.234271e+003;1.129276e-001
1.236199e+003;1.151575e-001
1.238128e+003;1.162354e-001
1.240056e+003;1.164262e-001
1.241985e+003;1.164498e-001
1.243913e+003;1.166200e-001
1.245842e+003;1.169461e-001
1.247771e+003;1.179989e-001
1.249699e+003;1.201828e-001
1.251628e+003;1.229088e-001
1.253556e+003;1.258245e-001
1.255485e+003;1.288950e-001
1.257413e+003;1.316943e-001
1.259342e+003;1.339830e-001
1.261270e+003;1.350533e-001
1.263199e+003;1.336441e-001
1.265127e+003;1.296179e-001
1.267056e+003;1.237195e-001
1.268985e+003;1.175660e-001
1.270913e+003;1.127788e-001
1.272842e+003;1.100082e-001
1.274770e+003;1.090044e-001
1.276699e+003;1.085652e-001
1.278627e+003;1.080818e-001
1.280556e+003;1.073684e-001
1.282484e+003;1.061610e-001
1.284413e+003;1.043093e-001
1.286342e+003;1.026991e-001
1.288270e+003;1.017877e-001
1.290199e+003;1.013193e-001
1.292127e+003;1.006669e-001
1.294056e+003;9.974834e-002
1.295984e+003;9.906213e-002
1.297913e+003;9.860240e-002
1.299841e+003;9.815843e-002
1.301770e+003;9.772185e-002
1.303698e+003;9.695645e-002
1.305627e+003;9.564820e-002
1.307556e+003;9.411345e-002
1.309484e+003;9.304548e-002
1.311413e+003;9.231203e-002
1.313341e+003;9.162422e-002
1.315270e+003;9.072531e-002
1.317198e+003;8.988813e-002
1.319127e+003;8.917988e-002
1.321055e+003;8.840565e-002
1.322984e+003;8.806446e-002
1.324912e+003;8.799259e-002
1.326841e+003;8.795007e-002
1.328770e+003;8.848969e-002
1.330698e+003;8.930342e-002
1.332627e+003;8.979004e-002
1.334555e+003;9.009545e-002
1.336484e+003;9.007033e-002
1.338412e+003;8.980414e-002
1.340341e+003;9.015559e-002
1.342269e+003;9.128457e-002
1.344198e+003;9.237683e-002
1.346126e+003;9.331806e-002
1.348055e+003;9.427385e-002
1.349984e+003;9.544791e-002
1.351912e+003;9.661965e-002
1.353841e+003;9.805173e-002
1.355769e+003;9.980137e-002
1.357698e+003;1.014559e-001
1.359626e+003;1.027129e-001
1.361555e+003;1.037746e-001
1.363483e+003;1.053949e-001
1.365412e+003;1.076115e-001
1.367341e+003;1.094031e-001
1.369269e+003;1.106166e-001
1.371198e+003;1.110722e-001
1.373126e+003;1.106557e-001
1.375055e+003;1.096376e-001
1.376983e+003;1.077767e-001
1.378912e+003;1.048434e-001
1.380840e+003;1.014959e-001
1.382769e+003;9.824488e-002
1.384698e+003;9.515934e-002
1.386626e+003;9.168793e-002
1.388555e+003;8.946099e-002
1.390483e+003;8.848964e-002
1.392412e+003;8.695870e-002
1.394340e+003;8.523963e-002
1.396269e+003;8.502804e-002
1.398197e+003;8.565056e-002
1.400126e+003;8.716223e-002
1.402054e+003;8.930387e-002
1.403983e+003;9.199909e-002
1.405911e+003;9.651292e-002
1.407840e+003;1.021105e-001
1.409769e+003;1.082128e-001
1.411697e+003;1.145140e-001
1.413626e+003;1.200342e-001
1.415554e+003;1.233198e-001
1.417483e+003;1.228582e-001
1.419411e+003;1.204942e-001
1.421340e+003;1.185779e-001
1.423268e+003;1.158312e-001
1.425197e+003;1.136473e-001
1.427125e+003;1.134350e-001
1.429054e+003;1.143552e-001
1.430983e+003;1.164523e-001
1.432911e+003;1.188688e-001
1.434840e+003;1.192345e-001
1.436768e+003;1.184646e-001
1.438697e+003;1.192048e-001
1.440625e+003;1.191184e-001
1.442554e+003;1.182333e-001
1.444482e+003;1.176893e-001
1.446411e+003;1.176555e-001
1.448340e+003;1.185824e-001
1.450268e+003;1.208605e-001
1.452197e+003;1.229930e-001
1.454125e+003;1.237779e-001
1.456054e+003;1.236946e-001
1.457982e+003;1.280641e-001
1.459911e+003;1.352011e-001
1.461839e+003;1.392477e-001
1.463768e+003;1.377245e-001
1.465697e+003;1.323227e-001
1.467625e+003;1.260843e-001
1.469554e+003;1.206883e-001
1.471482e+003;1.175452e-001
1.473411e+003;1.183014e-001
1.475339e+003;1.206120e-001
1.477268e+003;1.207724e-001
1.479196e+003;1.182343e-001
1.481125e+003;1.130471e-001
1.483053e+003;1.072422e-001
1.484982e+003;1.018341e-001
1.486911e+003;9.783909e-002
1.488839e+003;9.637254e-002
1.490768e+003;9.790509e-002
1.492696e+003;1.010958e-001
1.494625e+003;1.030394e-001
1.496553e+003;1.056063e-001
1.498482e+003;1.106511e-001
1.500410e+003;1.160489e-001
1.502339e+003;1.208204e-001
1.504267e+003;1.235599e-001
1.506196e+003;1.264209e-001
1.508125e+003;1.340519e-001
1.510053e+003;1.429493e-001
1.511982e+003;1.501532e-001
1.513910e+003;1.571460e-001
1.515839e+003;1.637317e-001
1.517767e+003;1.710194e-001
1.519696e+003;1.780558e-001
1.521624e+003;1.862007e-001
1.523553e+003;1.968181e-001
1.525481e+003;2.066095e-001
1.527410e+003;2.163743e-001
1.529339e+003;2.259644e-001
1.531267e+003;2.341247e-001
1.533196e+003;2.405144e-001
1.535124e+003;2.459609e-001
1.537053e+003;2.473956e-001
1.538981e+003;2.440297e-001
1.540910e+003;2.412116e-001
1.542838e+003;2.377032e-001
1.544767e+003;2.305835e-001
1.546695e+003;2.217179e-001
1.548624e+003;2.114631e-001
1.550553e+003;2.004880e-001
1.552481e+003;1.893693e-001
1.554410e+003;1.783890e-001
1.556338e+003;1.679341e-001
1.558267e+003;1.562216e-001
1.560195e+003;1.490880e-001
1.562124e+003;1.454763e-001
1.564052e+003;1.392468e-001
1.565981e+003;1.317509e-001
1.567910e+003;1.239329e-001
1.569838e+003;1.170088e-001
1.571767e+003;1.124343e-001
1.573695e+003;1.064045e-001
1.575624e+003;9.896283e-002
1.577552e+003;9.593527e-002
1.579481e+003;9.476682e-002
1.581409e+003;9.254278e-002
1.583338e+003;9.076525e-002
1.585266e+003;8.934372e-002
1.587195e+003;8.888175e-002
1.589124e+003;8.914619e-002
1.591052e+003;8.980357e-002
1.592981e+003;9.113950e-002
1.594909e+003;9.342475e-002
1.596838e+003;9.631141e-002
1.598766e+003;9.977835e-002
1.600695e+003;1.039558e-001
1.602623e+003;1.092188e-001
1.604552e+003;1.156163e-001
1.606480e+003;1.223512e-001
1.608409e+003;1.293437e-001
1.610338e+003;1.374801e-001
1.612266e+003;1.466510e-001
1.614195e+003;1.555189e-001
1.616123e+003;1.647853e-001
1.618052e+003;1.784984e-001
1.619980e+003;1.938420e-001
1.621909e+003;2.078932e-001
1.623837e+003;2.227065e-001
1.625766e+003;2.383860e-001
1.627694e+003;2.536632e-001
1.629623e+003;2.697084e-001
1.631552e+003;2.855694e-001
1.633480e+003;2.971416e-001
1.635409e+003;3.035623e-001
1.637337e+003;3.056826e-001
1.639266e+003;2.995280e-001
1.641194e+003;2.855566e-001
1.643123e+003;2.673524e-001
1.645051e+003;2.466835e-001
1.646980e+003;2.272036e-001
1.648909e+003;2.112870e-001
1.650837e+003;1.937844e-001
1.652766e+003;1.764898e-001
1.654694e+003;1.680280e-001
1.656623e+003;1.621604e-001
1.658551e+003;1.541490e-001
1.660480e+003;1.455085e-001
1.662408e+003;1.365845e-001
1.664337e+003;1.285225e-001
1.666266e+003;1.200637e-001
1.668194e+003;1.107880e-001
1.670123e+003;1.029346e-001
1.672051e+003;9.694526e-002
1.673980e+003;9.045117e-002
1.675908e+003;8.446727e-002
1.677837e+003;7.959674e-002
1.679765e+003;7.359607e-002
1.681694e+003;6.612410e-002
1.683622e+003;5.745634e-002
1.685551e+003;5.376263e-002
1.687479e+003;5.288769e-002
1.689408e+003;5.005266e-002
1.691337e+003;4.737124e-002
1.693265e+003;4.379803e-002
1.695194e+003;3.922581e-002
1.697122e+003;3.827773e-002
1.699051e+003;3.670294e-002
1.700979e+003;3.600895e-002
1.702908e+003;3.808775e-002
1.704836e+003;3.784724e-002
1.706765e+003;3.778814e-002
1.708693e+003;3.804659e-002
1.710622e+003;3.811933e-002
1.712551e+003;3.751912e-002
1.714479e+003;3.599876e-002
1.716408e+003;3.404454e-002
1.718336e+003;3.453745e-002
1.720265e+003;3.686703e-002
1.722193e+003;3.759173e-002
1.724122e+003;3.731333e-002
1.726050e+003;3.726888e-002
1.727979e+003;3.702356e-002
1.729908e+003;3.631054e-002
1.731836e+003;3.403769e-002
1.733765e+003;3.155165e-002
1.735693e+003;3.305502e-002
1.737622e+003;3.405597e-002
1.739550e+003;3.289873e-002
1.741479e+003;3.257800e-002
1.743407e+003;3.223712e-002
1.745336e+003;3.152646e-002
1.747265e+003;3.036061e-002
1.749193e+003;2.892393e-002
1.751122e+003;2.796695e-002
1.753050e+003;2.844010e-002
1.754979e+003;2.829865e-002
1.756907e+003;2.749629e-002
1.758836e+003;2.700379e-002
1.760764e+003;2.601422e-002
1.762693e+003;2.542375e-002
1.764621e+003;2.546735e-002
1.766550e+003;2.455013e-002
1.768479e+003;2.350115e-002
1.770407e+003;2.208555e-002
1.772336e+003;2.077297e-002
1.774264e+003;2.150328e-002
1.776193e+003;2.203490e-002
1.778121e+003;2.182175e-002
1.780050e+003;2.150875e-002
1.781978e+003;2.126326e-002
1.783907e+003;2.067118e-002
1.785835e+003;2.037421e-002
1.787764e+003;2.026286e-002
1.789693e+003;1.921911e-002
1.791621e+003;1.810203e-002
1.793550e+003;1.823453e-002
1.795478e+003;1.865385e-002
1.797407e+003;1.842317e-002
1.799335e+003;1.803592e-002
1.801264e+003;1.769287e-002
1.803192e+003;1.782186e-002
1.805121e+003;1.789588e-002
1.807049e+003;1.771317e-002
1.808978e+003;1.739842e-002
1.810907e+003;1.717892e-002
1.812835e+003;1.710643e-002
1.814764e+003;1.722918e-002
1.816692e+003;1.723280e-002
1.818621e+003;1.713014e-002
1.820549e+003;1.705181e-002
1.822478e+003;1.683579e-002
1.824406e+003;1.644944e-002
1.826335e+003;1.640123e-002
1.828264e+003;1.605679e-002
1.830192e+003;1.572849e-002
1.832121e+003;1.599514e-002
1.834049e+003;1.637655e-002
1.835978e+003;1.652474e-002
1.837906e+003;1.647346e-002
1.839835e+003;1.651431e-002
1.841763e+003;1.584055e-002
1.843692e+003;1.464869e-002
1.845620e+003;1.497610e-002
1.847549e+003;1.554761e-002
1.849478e+003;1.558611e-002
1.851406e+003;1.562441e-002
1.853335e+003;1.556527e-002
1.855263e+003;1.525512e-002
1.857192e+003;1.511989e-002
1.859120e+003;1.518340e-002
1.861049e+003;1.519870e-002
1.862977e+003;1.516158e-002
1.864906e+003;1.477986e-002
1.866834e+003;1.409177e-002
1.868763e+003;1.378558e-002
1.870692e+003;1.448741e-002
1.872620e+003;1.512466e-002
1.874549e+003;1.505643e-002
1.876477e+003;1.482786e-002
1.878406e+003;1.480407e-002
1.880334e+003;1.473105e-002
1.882263e+003;1.469825e-002
1.884191e+003;1.487466e-002
1.886120e+003;1.488947e-002
1.888048e+003;1.470089e-002
1.889977e+003;1.468258e-002
1.891906e+003;1.488358e-002
1.893834e+003;1.489201e-002
1.895763e+003;1.504024e-002
1.897691e+003;1.513790e-002
1.899620e+003;1.515955e-002
1.901548e+003;1.517921e-002
1.903477e+003;1.500378e-002
1.905405e+003;1.482738e-002
1.907334e+003;1.471662e-002
1.909262e+003;1.433266e-002
1.911191e+003;1.417618e-002
1.913120e+003;1.436550e-002
1.915048e+003;1.440287e-002
1.916977e+003;1.391622e-002
1.918905e+003;1.370860e-002
1.920834e+003;1.400621e-002
1.922762e+003;1.416081e-002
1.924691e+003;1.425801e-002
1.926619e+003;1.430906e-002
1.928548e+003;1.429718e-002
1.930477e+003;1.427643e-002
1.932405e+003;1.432810e-002
1.934334e+003;1.415612e-002
1.936262e+003;1.404409e-002
1.938191e+003;1.406350e-002
1.940119e+003;1.400132e-002
1.942048e+003;1.375938e-002
1.943976e+003;1.382848e-002
1.945905e+003;1.395882e-002
1.947833e+003;1.394548e-002
1.949762e+003;1.403616e-002
1.951691e+003;1.410546e-002
1.953619e+003;1.396063e-002
1.955548e+003;1.374707e-002
1.957476e+003;1.373965e-002
1.959405e+003;1.396293e-002
1.961333e+003;1.426013e-002
1.963262e+003;1.420446e-002
1.965190e+003;1.392125e-002
1.967119e+003;1.383135e-002
1.969047e+003;1.399335e-002
1.970976e+003;1.417279e-002
1.972905e+003;1.437622e-002
1.974833e+003;1.446004e-002
1.976762e+003;1.458879e-002
1.978690e+003;1.459944e-002
1.980619e+003;1.439358e-002
1.982547e+003;1.443904e-002
1.984476e+003;1.456497e-002
1.986404e+003;1.449816e-002
1.988333e+003;1.434136e-002
1.990261e+003;1.422966e-002
1.992190e+003;1.430283e-002
1.994119e+003;1.449340e-002
1.996047e+003;1.453715e-002
1.997976e+003;1.439944e-002
1.999904e+003;1.439797e-002
2.001833e+003;1.432951e-002
2.003761e+003;1.430512e-002
2.005690e+003;1.427030e-002
2.007618e+003;1.410656e-002
2.009547e+003;1.420398e-002
2.011476e+003;1.445503e-002
2.013404e+003;1.456288e-002
2.015333e+003;1.467374e-002
2.017261e+003;1.469972e-002
2.019190e+003;1.475288e-002
2.021118e+003;1.484037e-002
2.023047e+003;1.502233e-002
2.024975e+003;1.513128e-002
2.026904e+003;1.500498e-002
2.028833e+003;1.491519e-002
2.030761e+003;1.503087e-002
2.032690e+003;1.507433e-002
2.034618e+003;1.505605e-002
2.036547e+003;1.519390e-002
2.038475e+003;1.525728e-002
2.040404e+003;1.532668e-002
2.042332e+003;1.545930e-002
2.044261e+003;1.534662e-002
2.046189e+003;1.522561e-002
2.048118e+003;1.533015e-002
2.050047e+003;1.560809e-002
2.051975e+003;1.552227e-002
2.053904e+003;1.550414e-002
2.055832e+003;1.581127e-002
2.057761e+003;1.583518e-002
2.059689e+003;1.569466e-002
2.061618e+003;1.586082e-002
2.063546e+003;1.579549e-002
2.065475e+003;1.561249e-002
2.067404e+003;1.582082e-002
2.069332e+003;1.585168e-002
2.071260e+003;1.576859e-002
2.073189e+003;1.585463e-002
2.075118e+003;1.596789e-002
2.077046e+003;1.605459e-002
2.078975e+003;1.595692e-002
2.080903e+003;1.581924e-002
2.082832e+003;1.580168e-002
2.084760e+003;1.569758e-002
2.086689e+003;1.548330e-002
2.088617e+003;1.524150e-002
2.090546e+003;1.530883e-002
2.092475e+003;1.538847e-002
2.094403e+003;1.530368e-002
2.096332e+003;1.531299e-002
2.098260e+003;1.524362e-002
2.100189e+003;1.519222e-002
2.102117e+003;1.512922e-002
2.104046e+003;1.497874e-002
2.105974e+003;1.507982e-002
2.107903e+003;1.535926e-002
2.109832e+003;1.553096e-002
2.111760e+003;1.557876e-002
2.113688e+003;1.568325e-002
2.115617e+003;1.593722e-002
2.117546e+003;1.598370e-002
2.119474e+003;1.589749e-002
2.121403e+003;1.585797e-002
2.123331e+003;1.585515e-002
2.125260e+003;1.590072e-002
2.127188e+003;1.585075e-002
2.129117e+003;1.577955e-002
2.131045e+003;1.579254e-002
2.132974e+003;1.601728e-002
2.134903e+003;1.621415e-002
2.136831e+003;1.619183e-002
2.138760e+003;1.605703e-002
2.140688e+003;1.592186e-002
2.142617e+003;1.592478e-002
2.144545e+003;1.588244e-002
2.146474e+003;1.586948e-002
2.148402e+003;1.591413e-002
2.150331e+003;1.613876e-002
2.152260e+003;1.640312e-002
2.154188e+003;1.614657e-002
2.156117e+003;1.588154e-002
2.158045e+003;1.629891e-002
2.159974e+003;1.666860e-002
2.161902e+003;1.668027e-002
2.163831e+003;1.667414e-002
2.165759e+003;1.674762e-002
2.167688e+003;1.704157e-002
2.169616e+003;1.715544e-002
2.171545e+003;1.704860e-002
2.173474e+003;1.710168e-002
2.175402e+003;1.727831e-002
2.177331e+003;1.740707e-002
2.179259e+003;1.714324e-002
2.181188e+003;1.690765e-002
2.183116e+003;1.709151e-002
2.185045e+003;1.747040e-002
2.186973e+003;1.761554e-002
2.188902e+003;1.745826e-002
2.190831e+003;1.740704e-002
2.192759e+003;1.754453e-002
2.194688e+003;1.751038e-002
2.196616e+003;1.751607e-002
2.198545e+003;1.755274e-002
2.200473e+003;1.734127e-002
2.202402e+003;1.707669e-002
2.204330e+003;1.711622e-002
2.206259e+003;1.719350e-002
2.208188e+003;1.731593e-002
2.210116e+003;1.722880e-002
2.212044e+003;1.693507e-002
2.213973e+003;1.671570e-002
2.215902e+003;1.680782e-002
2.217830e+003;1.679963e-002
2.219759e+003;1.660591e-002
2.221687e+003;1.664026e-002
2.223616e+003;1.652274e-002
2.225544e+003;1.623792e-002
2.227473e+003;1.636558e-002
2.229401e+003;1.644159e-002
2.231330e+003;1.624947e-002
2.233259e+003;1.625477e-002
2.235187e+003;1.626688e-002
2.237116e+003;1.623073e-002
2.239044e+003;1.644114e-002
2.240973e+003;1.661885e-002
2.242901e+003;1.658484e-002
2.244830e+003;1.651713e-002
2.246758e+003;1.657245e-002
2.248687e+003;1.675913e-002
2.250615e+003;1.684030e-002
2.252544e+003;1.677962e-002
2.254473e+003;1.674187e-002
2.256401e+003;1.692642e-002
2.258330e+003;1.694427e-002
2.260258e+003;1.699188e-002
2.262187e+003;1.733072e-002
2.264115e+003;1.739600e-002
2.266044e+003;1.721118e-002
2.267972e+003;1.723301e-002
2.269901e+003;1.742673e-002
2.271830e+003;1.746036e-002
2.273758e+003;1.722253e-002
2.275687e+003;1.711388e-002
2.277615e+003;1.745950e-002
2.279544e+003;1.775006e-002
2.281472e+003;1.768711e-002
2.283401e+003;1.760677e-002
2.285329e+003;1.766492e-002
2.287258e+003;1.774627e-002
2.289187e+003;1.781475e-002
2.291115e+003;1.780136e-002
2.293043e+003;1.786819e-002
2.294972e+003;1.795721e-002
2.296901e+003;1.809578e-002
2.298829e+003;1.791584e-002
2.300758e+003;1.776615e-002
2.302686e+003;1.804459e-002
2.304615e+003;1.839302e-002
2.306543e+003;1.848035e-002
2.308472e+003;1.856579e-002
2.310400e+003;1.870155e-002
2.312329e+003;1.883516e-002
2.314258e+003;1.882720e-002
2.316186e+003;1.875922e-002
2.318115e+003;1.880537e-002
2.320043e+003;1.877997e-002
2.321972e+003;1.855711e-002
2.323900e+003;1.847551e-002
2.325829e+003;1.846621e-002
2.327757e+003;1.816601e-002
2.329686e+003;1.775303e-002
2.331615e+003;1.759856e-002
2.333543e+003;1.759208e-002
2.335472e+003;1.743032e-002
2.337400e+003;1.724249e-002
2.339329e+003;1.737186e-002
2.341257e+003;1.748930e-002
2.343186e+003;1.765329e-002
2.345114e+003;1.796291e-002
2.347043e+003;1.827645e-002
2.348971e+003;1.824469e-002
2.350900e+003;1.805782e-002
2.352829e+003;1.782259e-002
2.354757e+003;1.761916e-002
2.356686e+003;1.761847e-002
2.358614e+003;1.751655e-002
2.360543e+003;1.741397e-002
2.362471e+003;1.753232e-002
2.364400e+003;1.768573e-002
2.366328e+003;1.752825e-002
2.368257e+003;1.736358e-002
2.370186e+003;1.789102e-002
2.372114e+003;1.845418e-002
2.374042e+003;1.841982e-002
2.375971e+003;1.838680e-002
2.377900e+003;1.863731e-002
2.379828e+003;1.904736e-002
2.381757e+003;1.926233e-002
2.383685e+003;1.935867e-002
2.385614e+003;1.947512e-002
2.387542e+003;1.963730e-002
2.389471e+003;1.958665e-002
2.391399e+003;1.957976e-002
2.393328e+003;1.955182e-002
2.395257e+003;1.932770e-002
2.397185e+003;1.926850e-002
2.399114e+003;1.934547e-002
2.401042e+003;1.918088e-002
2.402971e+003;1.920972e-002
2.404899e+003;1.943967e-002
2.406828e+003;1.955009e-002
2.408756e+003;1.949134e-002
2.410685e+003;1.929510e-002
2.412614e+003;1.935541e-002
2.414542e+003;1.953588e-002
2.416471e+003;1.982887e-002
2.418399e+003;2.015227e-002
2.420328e+003;2.028317e-002
2.422256e+003;2.013675e-002
2.424185e+003;1.982731e-002
2.426113e+003;1.989190e-002
2.428042e+003;2.006734e-002
2.429970e+003;2.003372e-002
2.431899e+003;2.003979e-002
2.433828e+003;2.012599e-002
2.435756e+003;2.039688e-002
2.437685e+003;2.063181e-002
2.439613e+003;2.076915e-002
2.441542e+003;2.095180e-002
2.443470e+003;2.096592e-002
2.445399e+003;2.113474e-002
2.447327e+003;2.124805e-002
2.449256e+003;2.112416e-002
2.451185e+003;2.103950e-002
2.453113e+003;2.116006e-002
2.455042e+003;2.136021e-002
2.456970e+003;2.148608e-002
2.458899e+003;2.155129e-002
2.460827e+003;2.162724e-002
2.462756e+003;2.164191e-002
2.464684e+003;2.166918e-002
2.466613e+003;2.175152e-002
2.468542e+003;2.181217e-002
2.470470e+003;2.169519e-002
2.472398e+003;2.172181e-002
2.474327e+003;2.215594e-002
2.476256e+003;2.223650e-002
2.478184e+003;2.227071e-002
2.480113e+003;2.236803e-002
2.482041e+003;2.233042e-002
2.483970e+003;2.242472e-002
2.485898e+003;2.240466e-002
2.487827e+003;2.232788e-002
2.489755e+003;2.255917e-002
2.491684e+003;2.249643e-002
2.493613e+003;2.218094e-002
2.495541e+003;2.210103e-002
2.497470e+003;2.217094e-002
2.499398e+003;2.233168e-002
2.501327e+003;2.271559e-002
2.503255e+003;2.284315e-002
2.505184e+003;2.260249e-002
2.507112e+003;2.287461e-002
2.509041e+003;2.310113e-002
2.510969e+003;2.297636e-002
2.512898e+003;2.306249e-002
2.514827e+003;2.329106e-002
2.516755e+003;2.360714e-002
2.518684e+003;2.394124e-002
2.520612e+003;2.423712e-002
2.522541e+003;2.424052e-002
2.524469e+003;2.417217e-002
2.526398e+003;2.431525e-002
2.528326e+003;2.444521e-002
2.530255e+003;2.454049e-002
2.532184e+003;2.475522e-002
2.534112e+003;2.519788e-002
2.536041e+003;2.532964e-002
2.537969e+003;2.552037e-002
2.539898e+003;2.592621e-002
2.541826e+003;2.597254e-002
2.543755e+003;2.572834e-002
2.545683e+003;2.563762e-002
2.547612e+003;2.586263e-002
2.549541e+003;2.609718e-002
2.551469e+003;2.599973e-002
2.553397e+003;2.572901e-002
2.555326e+003;2.579908e-002
2.557255e+003;2.596825e-002
2.559183e+003;2.603874e-002
2.561112e+003;2.598095e-002
2.563040e+003;2.598791e-002
2.564969e+003;2.618065e-002
2.566897e+003;2.644753e-002
2.568826e+003;2.632124e-002
2.570754e+003;2.624900e-002
2.572683e+003;2.650487e-002
2.574612e+003;2.679661e-002
2.576540e+003;2.684804e-002
2.578469e+003;2.695171e-002
2.580397e+003;2.730621e-002
2.582326e+003;2.745182e-002
2.584254e+003;2.760369e-002
2.586183e+003;2.772922e-002
2.588111e+003;2.778461e-002
2.590040e+003;2.781149e-002
2.591969e+003;2.793861e-002
2.593897e+003;2.819823e-002
2.595826e+003;2.835881e-002
2.597754e+003;2.831679e-002
2.599683e+003;2.825151e-002
2.601611e+003;2.805011e-002
2.603540e+003;2.832291e-002
2.605468e+003;2.871148e-002
2.607397e+003;2.878806e-002
2.609325e+003;2.879815e-002
2.611254e+003;2.862498e-002
2.613183e+003;2.873655e-002
2.615111e+003;2.897231e-002
2.617040e+003;2.888689e-002
2.618968e+003;2.882293e-002
2.620897e+003;2.896462e-002
2.622825e+003;2.919945e-002
2.624754e+003;2.925831e-002
2.626682e+003;2.916677e-002
2.628611e+003;2.930110e-002
2.630540e+003;2.936856e-002
2.632468e+003;2.928486e-002
2.634396e+003;2.944493e-002
2.636325e+003;2.954752e-002
2.638254e+003;2.948461e-002
2.640182e+003;2.968629e-002
2.642111e+003;2.995977e-002
2.644039e+003;3.006887e-002
2.645968e+003;3.027271e-002
2.647896e+003;3.039430e-002
2.649825e+003;3.042443e-002
2.651753e+003;3.067171e-002
2.653682e+003;3.075464e-002
2.655611e+003;3.066364e-002
2.657539e+003;3.049313e-002
2.659468e+003;3.046936e-002
2.661396e+003;3.076538e-002
2.663325e+003;3.106414e-002
2.665253e+003;3.128524e-002
2.667182e+003;3.142795e-002
2.669110e+003;3.157880e-002
2.671039e+003;3.171123e-002
2.672968e+003;3.150529e-002
2.674896e+003;3.154538e-002
2.676825e+003;3.202473e-002
2.678753e+003;3.224151e-002
2.680682e+003;3.222070e-002
2.682610e+003;3.233031e-002
2.684539e+003;3.241684e-002
2.686467e+003;3.258049e-002
2.688396e+003;3.293640e-002
2.690324e+003;3.332369e-002
2.692253e+003;3.370033e-002
2.694182e+003;3.403332e-002
2.696110e+003;3.409658e-002
2.698039e+003;3.434484e-002
2.699967e+003;3.468795e-002
2.701896e+003;3.488513e-002
2.703824e+003;3.514412e-002
2.705753e+003;3.538864e-002
2.707681e+003;3.556262e-002
2.709610e+003;3.582608e-002
2.711539e+003;3.610497e-002
2.713467e+003;3.640573e-002
2.715396e+003;3.690580e-002
2.717324e+003;3.728365e-002
2.719253e+003;3.761644e-002
2.721181e+003;3.792183e-002
2.723110e+003;3.837544e-002
2.725038e+003;3.898141e-002
2.726967e+003;3.938026e-002
2.728896e+003;3.970177e-002
2.730824e+003;4.008380e-002
2.732752e+003;4.041824e-002
2.734681e+003;4.099783e-002
2.736610e+003;4.145539e-002
2.738538e+003;4.168992e-002
2.740467e+003;4.208243e-002
2.742395e+003;4.231328e-002
2.744324e+003;4.221270e-002
2.746252e+003;4.241757e-002
2.748181e+003;4.249229e-002
2.750109e+003;4.220317e-002
2.752038e+003;4.236624e-002
2.753967e+003;4.269838e-002
2.755895e+003;4.267265e-002
2.757824e+003;4.248750e-002
2.759752e+003;4.260492e-002
2.761681e+003;4.285052e-002
2.763609e+003;4.304102e-002
2.765538e+003;4.338551e-002
2.767466e+003;4.367450e-002
2.769395e+003;4.385949e-002
2.771323e+003;4.415885e-002
2.773252e+003;4.448194e-002
2.775181e+003;4.475168e-002
2.777109e+003;4.531291e-002
2.779038e+003;4.586589e-002
2.780966e+003;4.606118e-002
2.782895e+003;4.635818e-002
2.784823e+003;4.673121e-002
2.786752e+003;4.724909e-002
2.788680e+003;4.746145e-002
2.790609e+003;4.748359e-002
2.792538e+003;4.766157e-002
2.794466e+003;4.801447e-002
2.796395e+003;4.870321e-002
2.798323e+003;4.945259e-002
2.800252e+003;4.989203e-002
2.802180e+003;5.002841e-002
2.804109e+003;5.046389e-002
2.806037e+003;5.128176e-002
2.807966e+003;5.217424e-002
2.809895e+003;5.279855e-002
2.811823e+003;5.332964e-002
2.813751e+003;5.414954e-002
2.815680e+003;5.503222e-002
2.817609e+003;5.561757e-002
2.819537e+003;5.625854e-002
2.821466e+003;5.696910e-002
2.823394e+003;5.749057e-002
2.825323e+003;5.784686e-002
2.827251e+003;5.851434e-002
2.829180e+003;5.951723e-002
2.831108e+003;6.065255e-002
2.833037e+003;6.182579e-002
2.834966e+003;6.315047e-002
2.836894e+003;6.491243e-002
2.838823e+003;6.710067e-002
2.840751e+003;6.978577e-002
2.842680e+003;7.321121e-002
2.844608e+003;7.731102e-002
2.846537e+003;8.173989e-002
2.848465e+003;8.595145e-002
2.850394e+003;8.950721e-002
2.852323e+003;9.268418e-002
2.854251e+003;9.537403e-002
2.856180e+003;9.777493e-002
2.858108e+003;9.987717e-002
2.860037e+003;1.015153e-001
2.861965e+003;1.021724e-001
2.863894e+003;1.017643e-001
2.865822e+003;1.007079e-001
2.867751e+003;9.904744e-002
2.869679e+003;9.722494e-002
2.871608e+003;9.515819e-002
2.873536e+003;9.271625e-002
2.875465e+003;8.989921e-002
2.877394e+003;8.716851e-002
2.879322e+003;8.496203e-002
2.881251e+003;8.322310e-002
2.883179e+003;8.213387e-002
2.885108e+003;8.188910e-002
2.887036e+003;8.241090e-002
2.888965e+003;8.327211e-002
2.890893e+003;8.447266e-002
2.892822e+003;8.607815e-002
2.894750e+003;8.820392e-002
2.896679e+003;9.031674e-002
2.898608e+003;9.173740e-002
2.900536e+003;9.249948e-002
2.902465e+003;9.342340e-002
2.904393e+003;9.444460e-002
2.906322e+003;9.550025e-002
2.908250e+003;9.692024e-002
2.910179e+003;9.884221e-002
2.912107e+003;1.008992e-001
2.914036e+003;1.028509e-001
2.915965e+003;1.052130e-001
2.917893e+003;1.081598e-001
2.919822e+003;1.111649e-001
2.921750e+003;1.140921e-001
2.923679e+003;1.171094e-001
2.925607e+003;1.198821e-001
2.927536e+003;1.225346e-001
2.929464e+003;1.248787e-001
2.931393e+003;1.264920e-001
2.933322e+003;1.273129e-001
2.935250e+003;1.273338e-001
2.937178e+003;1.262858e-001
2.939107e+003;1.242140e-001
2.941036e+003;1.217403e-001
2.942964e+003;1.188879e-001
2.944893e+003;1.150183e-001
2.946821e+003;1.101900e-001
2.948750e+003;1.048874e-001
2.950678e+003;9.899142e-002
2.952607e+003;9.308473e-002
2.954535e+003;8.760437e-002
2.956464e+003;8.293842e-002
2.958393e+003;7.933251e-002
2.960321e+003;7.602692e-002
2.962250e+003;7.267520e-002
2.964178e+003;6.956194e-002
2.966107e+003;6.725135e-002
2.968035e+003;6.494768e-002
2.969964e+003;6.268208e-002
2.971892e+003;6.038764e-002
2.973821e+003;5.819705e-002
2.975750e+003;5.666117e-002
2.977678e+003;5.546876e-002
2.979607e+003;5.409339e-002
2.981535e+003;5.266387e-002
2.983464e+003;5.147308e-002
2.985392e+003;5.042459e-002
2.987321e+003;4.947568e-002
2.989249e+003;4.870858e-002
2.991178e+003;4.821828e-002
2.993106e+003;4.756935e-002
2.995035e+003;4.710187e-002
2.996964e+003;4.685576e-002
2.998892e+003;4.668952e-002
3.000821e+003;4.647422e-002
3.002749e+003;4.629201e-002
3.004678e+003;4.622924e-002
3.006606e+003;4.621328e-002
3.008535e+003;4.630801e-002
3.010463e+003;4.648661e-002
3.012392e+003;4.671328e-002
3.014321e+003;4.691818e-002
3.016249e+003;4.714593e-002
3.018177e+003;4.733381e-002
3.020106e+003;4.764296e-002
3.022035e+003;4.835563e-002
3.023963e+003;4.884701e-002
3.025892e+003;4.911372e-002
3.027820e+003;4.943451e-002
3.029749e+003;4.980911e-002
3.031677e+003;5.018330e-002
3.033606e+003;5.094690e-002
3.035534e+003;5.200363e-002
3.037463e+003;5.255862e-002
3.039392e+003;5.317903e-002
3.041320e+003;5.403752e-002
3.043249e+003;5.489215e-002
3.045177e+003;5.561750e-002
3.047106e+003;5.625711e-002
3.049034e+003;5.709742e-002
3.050963e+003;5.796169e-002
3.052891e+003;5.852033e-002
3.054820e+003;5.930540e-002
3.056749e+003;6.005315e-002
3.058677e+003;6.042435e-002
3.060606e+003;6.105286e-002
3.062534e+003;6.165402e-002
3.064463e+003;6.166510e-002
3.066391e+003;6.156173e-002
3.068320e+003;6.183629e-002
3.070248e+003;6.216738e-002
3.072177e+003;6.219040e-002
3.074105e+003;6.232852e-002
3.076034e+003;6.226102e-002
3.077963e+003;6.192677e-002
3.079891e+003;6.210678e-002
3.081820e+003;6.214700e-002
3.083748e+003;6.194576e-002
3.085677e+003;6.162920e-002
3.087605e+003;6.095070e-002
3.089534e+003;6.025180e-002
3.091462e+003;5.964007e-002
3.093391e+003;5.893523e-002
3.095320e+003;5.841593e-002
3.097248e+003;5.793882e-002
3.099177e+003;5.755945e-002
3.101105e+003;5.715463e-002
3.103034e+003;5.636778e-002
3.104962e+003;5.529746e-002
3.106891e+003;5.472212e-002
3.108819e+003;5.421324e-002
3.110748e+003;5.386066e-002
3.112677e+003;5.336841e-002
3.114605e+003;5.261311e-002
3.116533e+003;5.222465e-002
3.118462e+003;5.185520e-002
3.120391e+003;5.156620e-002
3.122319e+003;5.150665e-002
3.124248e+003;5.132300e-002
3.126176e+003;5.087861e-002
3.128105e+003;5.074270e-002
3.130033e+003;5.063483e-002
3.131962e+003;5.030318e-002
3.133890e+003;5.037894e-002
3.135819e+003;5.070334e-002
3.137748e+003;5.069388e-002
3.139676e+003;5.040521e-002
3.141605e+003;5.034813e-002
3.143533e+003;5.068133e-002
3.145462e+003;5.058729e-002
3.147390e+003;5.071708e-002
3.149319e+003;5.126214e-002
3.151247e+003;5.187573e-002
3.153176e+003;5.217880e-002
3.155104e+003;5.232522e-002
3.157033e+003;5.259291e-002
3.158962e+003;5.295696e-002
3.160890e+003;5.335054e-002
3.162819e+003;5.390140e-002
3.164747e+003;5.435614e-002
3.166676e+003;5.468323e-002
3.168604e+003;5.545291e-002
3.170533e+003;5.612497e-002
3.172461e+003;5.634500e-002
3.174390e+003;5.682836e-002
3.176319e+003;5.763122e-002
3.178247e+003;5.826006e-002
3.180176e+003;5.873623e-002
3.182104e+003;5.915760e-002
3.184033e+003;5.963494e-002
3.185961e+003;6.004976e-002
3.187890e+003;6.035996e-002
3.189818e+003;6.090370e-002
3.191747e+003;6.156570e-002
3.193676e+003;6.195730e-002
3.195604e+003;6.253679e-002
3.197532e+003;6.315059e-002
3.199461e+003;6.350573e-002
3.201390e+003;6.330731e-002
3.203318e+003;6.312829e-002
3.205247e+003;6.340615e-002
3.207175e+003;6.383172e-002
3.209104e+003;6.432238e-002
3.211032e+003;6.487431e-002
3.212961e+003;6.532979e-002
3.214889e+003;6.598492e-002
3.216818e+003;6.675582e-002
3.218747e+003;6.702499e-002
3.220675e+003;6.701100e-002
3.222604e+003;6.752210e-002
3.224532e+003;6.841011e-002
3.226461e+003;6.929792e-002
3.228389e+003;7.027740e-002
3.230318e+003;7.110967e-002
3.232246e+003;7.179470e-002
3.234175e+003;7.302920e-002
3.236104e+003;7.454506e-002
3.238032e+003;7.585710e-002
3.239961e+003;7.734039e-002
3.241889e+003;7.866890e-002
3.243818e+003;7.984527e-002
3.245746e+003;8.145869e-002
3.247675e+003;8.330996e-002
3.249603e+003;8.452950e-002
3.251532e+003;8.610777e-002
3.253460e+003;8.809794e-002
3.255389e+003;8.947121e-002
3.257318e+003;9.120870e-002
3.259246e+003;9.332907e-002
3.261175e+003;9.534044e-002
3.263103e+003;9.750853e-002
3.265032e+003;9.984744e-002
3.266960e+003;1.019721e-001
3.268889e+003;1.035339e-001
3.270817e+003;1.051797e-001
3.272746e+003;1.071492e-001
3.274675e+003;1.092285e-001
3.276603e+003;1.112553e-001
3.278531e+003;1.133793e-001
3.280460e+003;1.154465e-001
3.282389e+003;1.175585e-001
3.284317e+003;1.198151e-001
3.286246e+003;1.216581e-001
3.288174e+003;1.230488e-001
3.290103e+003;1.242633e-001
3.292031e+003;1.252829e-001
3.293960e+003;1.257993e-001
3.295888e+003;1.254977e-001
3.297817e+003;1.243481e-001
3.299746e+003;1.222732e-001
3.301674e+003;1.198295e-001
3.303603e+003;1.172951e-001
3.305531e+003;1.146769e-001
3.307460e+003;1.116210e-001
3.309388e+003;1.085080e-001
3.311317e+003;1.050100e-001
3.313245e+003;1.016944e-001
3.315174e+003;9.950273e-002
3.317103e+003;9.711454e-002
3.319031e+003;9.405251e-002
3.320960e+003;9.103803e-002
3.322888e+003;8.787640e-002
3.324817e+003;8.539598e-002
3.326745e+003;8.327384e-002
3.328674e+003;8.128226e-002
3.330602e+003;7.918283e-002
3.332531e+003;7.696249e-002
3.334459e+003;7.514244e-002
3.336388e+003;7.334179e-002
3.338317e+003;7.122404e-002
3.340245e+003;6.946293e-002
3.342174e+003;6.821056e-002
3.344102e+003;6.680552e-002
3.346031e+003;6.500236e-002
3.347959e+003;6.361528e-002
3.349888e+003;6.237618e-002
3.351816e+003;6.126357e-002
3.353745e+003;6.006209e-002
3.355674e+003;5.876210e-002
3.357602e+003;5.775825e-002
3.359531e+003;5.701689e-002
3.361459e+003;5.602371e-002
3.363388e+003;5.494381e-002
3.365316e+003;5.392548e-002
3.367245e+003;5.313862e-002
3.369173e+003;5.247400e-002
3.371102e+003;5.199702e-002
3.373031e+003;5.145577e-002
3.374959e+003;5.096754e-002
3.376887e+003;5.077059e-002
3.378816e+003;5.023637e-002
3.380745e+003;4.946340e-002
3.382673e+003;4.839485e-002
3.384602e+003;4.796903e-002
3.386530e+003;4.833945e-002
3.388459e+003;4.824683e-002
3.390387e+003;4.759797e-002
3.392316e+003;4.699508e-002
3.394244e+003;4.679443e-002
3.396173e+003;4.635273e-002
3.398102e+003;4.594433e-002
3.400030e+003;4.558975e-002
3.401959e+003;4.514921e-002
3.403887e+003;4.475417e-002
3.405816e+003;4.451402e-002
3.407744e+003;4.434115e-002
3.409673e+003;4.390110e-002
3.411601e+003;4.384501e-002
3.413530e+003;4.396551e-002
3.415458e+003;4.371572e-002
3.417387e+003;4.317934e-002
3.419316e+003;4.280939e-002
3.421244e+003;4.296983e-002
3.423173e+003;4.307505e-002
3.425101e+003;4.290970e-002
3.427030e+003;4.254590e-002
3.428958e+003;4.192669e-002
3.430887e+003;4.152232e-002
3.432815e+003;4.148663e-002
3.434744e+003;4.190531e-002
3.436673e+003;4.196603e-002
3.438601e+003;4.171975e-002
3.440530e+003;4.166297e-002
3.442458e+003;4.139106e-002
3.444387e+003;4.092285e-002
3.446315e+003;4.067127e-002
3.448244e+003;4.056191e-002
3.450172e+003;4.019879e-002
3.452101e+003;4.002465e-002
3.454030e+003;3.980137e-002
3.455958e+003;3.945260e-002
3.457886e+003;3.904332e-002
3.459815e+003;3.883522e-002
3.461744e+003;3.862290e-002
3.463672e+003;3.830519e-002
3.465601e+003;3.780610e-002
3.467529e+003;3.761247e-002
3.469458e+003;3.784258e-002
3.471386e+003;3.794902e-002
3.473315e+003;3.733565e-002
3.475243e+003;3.691482e-002
3.477172e+003;3.703092e-002
3.479101e+003;3.727094e-002
3.481029e+003;3.718921e-002
3.482958e+003;3.678865e-002
3.484886e+003;3.658715e-002
3.486815e+003;3.657648e-002
3.488743e+003;3.639358e-002
3.490672e+003;3.636714e-002
3.492600e+003;3.657968e-002
3.494529e+003;3.656530e-002
3.496458e+003;3.627985e-002
3.498386e+003;3.609877e-002
3.500315e+003;3.600312e-002
3.502243e+003;3.565473e-002
3.504172e+003;3.514103e-002
3.506100e+003;3.482704e-002
3.508029e+003;3.468281e-002
3.509957e+003;3.450818e-002
3.511886e+003;3.442536e-002
3.513814e+003;3.439684e-002
3.515743e+003;3.438120e-002
3.517672e+003;3.374266e-002
3.519600e+003;3.306285e-002
3.521529e+003;3.272427e-002
3.523457e+003;3.248361e-002
3.525386e+003;3.242316e-002
3.527314e+003;3.210517e-002
3.529243e+003;3.193556e-002
3.531171e+003;3.178438e-002
3.533100e+003;3.141709e-002
3.535029e+003;3.118363e-002
3.536957e+003;3.085452e-002
3.538885e+003;3.071886e-002
3.540814e+003;3.072338e-002
3.542743e+003;3.015734e-002
3.544671e+003;2.954465e-002
3.546600e+003;2.939068e-002
3.548528e+003;2.930786e-002
3.550457e+003;2.860679e-002
3.552385e+003;2.801886e-002
3.554314e+003;2.780828e-002
3.556242e+003;2.750476e-002
3.558171e+003;2.726440e-002
3.560100e+003;2.714679e-002
3.562028e+003;2.693863e-002
3.563957e+003;2.605155e-002
3.565885e+003;2.496781e-002
3.567814e+003;2.477567e-002
3.569742e+003;2.521182e-002
3.571671e+003;2.522769e-002
3.573599e+003;2.479065e-002
3.575528e+003;2.418376e-002
3.577457e+003;2.372208e-002
3.579385e+003;2.354890e-002
3.581314e+003;2.339228e-002
3.583242e+003;2.300931e-002
3.585171e+003;2.199635e-002
3.587099e+003;2.122867e-002
3.589028e+003;2.154364e-002
3.590956e+003;2.178117e-002
3.592885e+003;2.129524e-002
3.594813e+003;2.078340e-002
3.596742e+003;2.071062e-002
3.598671e+003;2.073550e-002
3.600599e+003;2.031310e-002
3.602528e+003;2.025317e-002
3.604456e+003;1.962083e-002
3.606385e+003;1.837384e-002
3.608313e+003;1.752735e-002
3.610242e+003;1.738507e-002
3.612170e+003;1.742007e-002
3.614099e+003;1.759525e-002
3.616028e+003;1.704815e-002
3.617956e+003;1.594087e-002
3.619885e+003;1.616806e-002
3.621813e+003;1.762323e-002
3.623742e+003;1.764401e-002
3.625670e+003;1.622894e-002
3.627599e+003;1.425503e-002
3.629527e+003;1.395321e-002
3.631456e+003;1.504717e-002
3.633385e+003;1.510998e-002
3.635313e+003;1.550002e-002
3.637241e+003;1.555156e-002
3.639170e+003;1.503403e-002
3.641099e+003;1.508037e-002
3.643027e+003;1.479646e-002
3.644956e+003;1.367399e-002
3.646884e+003;1.208232e-002
3.648813e+003;1.094672e-002
3.650741e+003;1.190877e-002
3.652670e+003;1.323681e-002
3.654598e+003;1.245468e-002
3.656527e+003;1.199347e-002
3.658456e+003;1.267282e-002
3.660384e+003;1.287954e-002
3.662313e+003;1.300492e-002
3.664241e+003;1.327790e-002
3.666170e+003;1.299267e-002
3.668098e+003;1.125571e-002
3.670027e+003;9.887233e-003
3.671955e+003;1.047894e-002
3.673884e+003;9.244953e-003
3.675813e+003;8.748736e-003
3.677741e+003;1.107923e-002
3.679669e+003;1.176144e-002
3.681598e+003;1.168570e-002
3.683527e+003;1.172021e-002
3.685455e+003;1.044642e-002
3.687384e+003;7.791867e-003
3.689312e+003;7.145434e-003
3.691241e+003;8.519712e-003
3.693169e+003;1.004183e-002
3.695098e+003;1.055263e-002
3.697026e+003;1.037661e-002
3.698955e+003;1.004895e-002
3.700884e+003;9.474463e-003
3.702812e+003;9.494545e-003
3.704741e+003;1.009585e-002
3.706669e+003;9.891132e-003
3.708598e+003;8.690387e-003
3.710526e+003;7.751085e-003
3.712455e+003;7.879213e-003
3.714383e+003;8.711988e-003
3.716312e+003;9.153306e-003
3.718240e+003;9.212699e-003
3.720169e+003;8.986846e-003
3.722098e+003;8.599397e-003
3.724026e+003;8.683153e-003
3.725955e+003;8.877329e-003
3.727883e+003;9.046216e-003
3.729812e+003;8.447507e-003
3.731740e+003;7.342596e-003
3.733669e+003;7.329588e-003
3.735597e+003;7.274900e-003
3.737526e+003;8.186935e-003
3.739455e+003;9.307507e-003
3.741383e+003;8.447812e-003
3.743312e+003;4.986463e-003
3.745240e+003;4.861665e-003
3.747169e+003;6.232354e-003
3.749097e+003;5.199849e-003
3.751026e+003;5.374257e-003
3.752954e+003;7.263916e-003
3.754883e+003;8.925285e-003
3.756812e+003;8.783763e-003
3.758740e+003;8.858154e-003
3.760668e+003;9.198349e-003
3.762597e+003;9.782369e-003
3.764526e+003;9.642025e-003
3.766454e+003;9.458919e-003
3.768383e+003;8.596558e-003
3.770311e+003;8.197032e-003
3.772240e+003;9.193712e-003
3.774168e+003;9.905098e-003
3.776097e+003;9.590905e-003
3.778025e+003;9.054742e-003
3.779954e+003;8.966685e-003
3.781883e+003;9.294949e-003
3.783811e+003;9.252535e-003
3.785740e+003;9.410361e-003
3.787668e+003;9.796501e-003
3.789597e+003;1.007869e-002
3.791525e+003;1.000216e-002
3.793454e+003;9.535220e-003
3.795382e+003;8.702219e-003
3.797311e+003;8.588514e-003
3.799240e+003;7.520799e-003
3.801168e+003;6.562761e-003
3.803097e+003;8.025436e-003
3.805025e+003;8.098853e-003
3.806954e+003;7.996073e-003
3.808882e+003;9.315361e-003
3.810811e+003;9.926929e-003
3.812739e+003;9.460409e-003
3.814668e+003;7.739583e-003
3.816596e+003;7.614261e-003
3.818525e+003;8.001844e-003
3.820454e+003;7.326016e-003
3.822382e+003;8.193553e-003
3.824311e+003;9.371594e-003
3.826239e+003;9.617361e-003
3.828168e+003;1.019910e-002
3.830096e+003;1.031227e-002
3.832025e+003;1.011807e-002
3.833953e+003;9.550292e-003
3.835882e+003;7.634629e-003
3.837811e+003;6.844070e-003
3.839739e+003;8.321069e-003
3.841667e+003;9.190192e-003
3.843596e+003;9.581760e-003
3.845525e+003;1.007730e-002
3.847453e+003;1.026423e-002
3.849382e+003;9.389707e-003
3.851310e+003;6.782610e-003
3.853239e+003;4.965348e-003
3.855167e+003;7.497807e-003
3.857096e+003;1.007269e-002
3.859024e+003;1.048152e-002
3.860953e+003;1.020944e-002
3.862882e+003;9.458750e-003
3.864810e+003;9.235341e-003
3.866739e+003;9.658252e-003
3.868667e+003;8.612984e-003
3.870596e+003;8.751712e-003
3.872524e+003;9.675328e-003
3.874453e+003;1.024876e-002
3.876381e+003;1.093079e-002
3.878310e+003;1.028584e-002
3.880239e+003;9.608588e-003
3.882167e+003;9.726422e-003
3.884096e+003;9.456616e-003
3.886024e+003;9.629964e-003
3.887953e+003;1.069915e-002
3.889881e+003;1.027814e-002
3.891810e+003;1.012190e-002
3.893738e+003;1.084371e-002
3.895667e+003;1.109300e-002
3.897595e+003;1.062505e-002
3.899524e+003;1.002803e-002
3.901453e+003;9.361064e-003
3.903381e+003;9.113647e-003
3.905310e+003;1.010904e-002
3.907238e+003;1.098495e-002
3.909167e+003;1.122303e-002
3.911095e+003;1.180938e-002
3.913024e+003;1.243940e-002
3.914952e+003;1.246208e-002
3.916881e+003;1.187363e-002
3.918810e+003;1.138171e-002
3.920738e+003;1.143168e-002
3.922667e+003;1.187380e-002
3.924595e+003;1.209165e-002
3.926524e+003;1.235570e-002
3.928452e+003;1.243756e-002
3.930381e+003;1.233235e-002
3.932309e+003;1.214702e-002
3.934238e+003;1.242835e-002
3.936167e+003;1.278962e-002
3.938095e+003;1.296887e-002
3.940023e+003;1.271369e-002
3.941952e+003;1.277859e-002
3.943881e+003;1.316422e-002
3.945809e+003;1.280992e-002
3.947738e+003;1.222253e-002
3.949666e+003;1.234425e-002
3.951595e+003;1.293617e-002
3.953523e+003;1.325061e-002
3.955452e+003;1.327254e-002
3.957380e+003;1.320388e-002
3.959309e+003;1.358031e-002
3.961238e+003;1.375590e-002
3.963166e+003;1.383538e-002
3.965095e+003;1.426253e-002
3.967023e+003;1.431228e-002
3.968952e+003;1.438307e-002
3.970880e+003;1.459245e-002
3.972809e+003;1.469643e-002
3.974737e+003;1.465876e-002
3.976666e+003;1.450676e-002
3.978594e+003;1.463056e-002
3.980523e+003;1.458759e-002
3.982452e+003;1.400426e-002
3.984380e+003;1.391403e-002
3.986309e+003;1.449724e-002
3.988237e+003;1.505101e-002
3.990166e+003;1.530386e-002
3.992094e+003;1.522969e-002
3.994023e+003;1.509945e-002
3.995951e+003;1.523278e-002
3.997880e+003;1.535332e-002
3.999809e+003;1.557797e-002
4.001737e+003;0.000000e+000
