3.992094e+002;0.000000e+000
4.011380e+002;0.000000e+000
4.030665e+002;0.000000e+000
4.049951e+002;0.000000e+000
4.069236e+002;0.000000e+000
4.088522e+002;0.000000e+000
4.107807e+002;0.000000e+000
4.127093e+002;0.000000e+000
4.146378e+002;0.000000e+000
4.165664e+002;0.000000e+000
4.184949e+002;0.000000e+000
4.204235e+002;0.000000e+000
4.223520e+002;0.000000e+000
4.242806e+002;0.000000e+000
4.262091e+002;0.000000e+000
4.281377e+002;0.000000e+000
4.300662e+002;0.000000e+000
4.319948e+002;0.000000e+000
4.339233e+002;0.000000e+000
4.358519e+002;0.000000e+000
4.377804e+002;0.000000e+000
4.397090e+002;0.000000e+000
4.416375e+002;0.000000e+000
4.435660e+002;0.000000e+000
4.454946e+002;0.000000e+000
4.474232e+002;0.000000e+000
4.493517e+002;0.000000e+000
4.512802e+002;0.000000e+000
4.532088e+002;0.000000e+000
4.551373e+002;0.000000e+000
4.570659e+002;0.000000e+000
4.589944e+002;0.000000e+000
4.609230e+002;0.000000e+000
4.628515e+002;0.000000e+000
4.647801e+002;0.000000e+000
4.667086e+002;0.000000e+000
4.686372e+002;0.000000e+000
4.705657e+002;0.000000e+000
4.724943e+002;0.000000e+000
4.744228e+002;0.000000e+000
4.763513e+002;0.000000e+000
4.782799e+002;0.000000e+000
4.802085e+002;0.000000e+000
4.821370e+002;0.000000e+000
4.840656e+002;0.000000e+000
4.859941e+002;0.000000e+000
4.879226e+002;0.000000e+000
4.898512e+002;0.000000e+000
4.917798e+002;0.000000e+000
4.937083e+002;0.000000e+000
4.956368e+002;0.000000e+000
4.975654e+002;0.000000e+000
4.994939e+002;0.000000e+000
5.014225e+002;0.000000e+000
5.033510e+002;0.000000e+000
5.052796e+002;0.000000e+000
5.072081e+002;0.000000e+000
5.091367e+002;0.000000e+000
5.110652e+002;0.000000e+000
5.129938e+002;0.000000e+000
5.149223e+002;0.000000e+000
5.168509e+002;0.000000e+000
5.187794e+002;0.000000e+000
5.207079e+002;0.000000e+000
5.226365e+002;0.000000e+000
5.245651e+002;0.000000e+000
5.264936e+002;0.000000e+000
5.284222e+002;0.000000e+000
5.303507e+002;0.000000e+000
5.322792e+002;0.000000e+000
5.342078e+002;0.000000e+000
5.361364e+002;0.000000e+000
5.380649e+002;0.000000e+000
5.399935e+002;0.000000e+000
5.419220e+002;0.000000e+000
5.438505e+002;0.000000e+000
5.457791e+002;0.000000e+000
5.477076e+002;0.000000e+000
5.496362e+002;0.000000e+000
5.515648e+002;0.000000e+000
5.534933e+002;0.000000e+000
5.554218e+002;0.000000e+000
5.573504e+002;0.000000e+000
5.592789e+002;0.000000e+000
5.612075e+002;0.000000e+000
5.631360e+002;0.000000e+000
5.650646e+002;0.000000e+000
5.669931e+002;0.000000e+000
5.689217e+002;0.000000e+000
5.708502e+002;0.000000e+000
5.727787e+002;0.000000e+000
5.747073e+002;0.000000e+000
5.766359e+002;0.000000e+000
5.785644e+002;0.000000e+000
5.804930e+002;0.000000e+000
5.824215e+002;0.000000e+000
5.843500e+002;0.000000e+000
5.862786e+002;0.000000e+000
5.882072e+002;0.000000e+000
5.901357e+002;0.000000e+000
5.920643e+002;0.000000e+000
5.939928e+002;0.000000e+000
5.959213e+002;0.000000e+000
5.978499e+002;0.000000e+000
5.997784e+002;1.399962e-001
6.017070e+002;1.404693e-001
6.036355e+002;1.418112e-001
6.055641e+002;1.415467e-001
6.074926e+002;1.406845e-001
6.094211e+002;1.425198e-001
6.113497e+002;1.462357e-001
6.132783e+002;1.448611e-001
6.152068e+002;1.413229e-001
6.171354e+002;1.408231e-001
6.190639e+002;1.421573e-001
6.209924e+002;1.432010e-001
6.229210e+002;1.427633e-001
6.248495e+002;1.451366e-001
6.267781e+002;1.474975e-001
6.287067e+002;1.466024e-001
6.306352e+002;1.494826e-001
6.325637e+002;1.491285e-001
6.344923e+002;1.438797e-001
6.364208e+002;1.455725e-001
6.383494e+002;1.496689e-001
6.402780e+002;1.477626e-001
6.422065e+002;1.476144e-001
6.441350e+002;1.513650e-001
6.460636e+002;1.523104e-001
6.479921e+002;1.532761e-001
6.499207e+002;1.557652e-001
6.518492e+002;1.563085e-001
6.537778e+002;1.566251e-001
6.557063e+002;1.591292e-001
6.576349e+002;1.627134e-001
6.595634e+002;1.677687e-001
6.614919e+002;1.711272e-001
6.634205e+002;1.746260e-001
6.653491e+002;1.772494e-001
6.672776e+002;1.782577e-001
6.692062e+002;1.786646e-001
6.711347e+002;1.792257e-001
6.730632e+002;1.823231e-001
6.749918e+002;1.843645e-001
6.769203e+002;1.853533e-001
6.788489e+002;1.866409e-001
6.807775e+002;1.868244e-001
6.827060e+002;1.857201e-001
6.846345e+002;1.847218e-001
6.865631e+002;1.839875e-001
6.884916e+002;1.838024e-001
6.904202e+002;1.814210e-001
6.923488e+002;1.784661e-001
6.942773e+002;1.769574e-001
6.962058e+002;1.747689e-001
6.981344e+002;1.722752e-001
7.000629e+002;1.704190e-001
7.019915e+002;1.692648e-001
7.039200e+002;1.667153e-001
7.058486e+002;1.646955e-001
7.077771e+002;1.641668e-001
7.097057e+002;1.617224e-001
7.116342e+002;1.596921e-001
7.135627e+002;1.595934e-001
7.154913e+002;1.578425e-001
7.174199e+002;1.556698e-001
7.193484e+002;1.545327e-001
7.212770e+002;1.548522e-001
7.232055e+002;1.557376e-001
7.251340e+002;1.562796e-001
7.270626e+002;1.561489e-001
7.289911e+002;1.540598e-001
7.309197e+002;1.491612e-001
7.328483e+002;1.431673e-001
7.347768e+002;1.370316e-001
7.367053e+002;1.313314e-001
7.386339e+002;1.261434e-001
7.405624e+002;1.211193e-001
7.424910e+002;1.183375e-001
7.444196e+002;1.169373e-001
7.463481e+002;1.149255e-001
7.482766e+002;1.125663e-001
7.502052e+002;1.104000e-001
7.521337e+002;1.085444e-001
7.540623e+002;1.078292e-001
7.559908e+002;1.066122e-001
7.579194e+002;1.043118e-001
7.598479e+002;1.029628e-001
7.617765e+002;1.019353e-001
7.637050e+002;1.006413e-001
7.656335e+002;9.991383e-002
7.675621e+002;9.882898e-002
7.694907e+002;9.782162e-002
7.714192e+002;9.760954e-002
7.733478e+002;9.709992e-002
7.752763e+002;9.549055e-002
7.772048e+002;9.350660e-002
7.791334e+002;9.282128e-002
7.810620e+002;9.232704e-002
7.829905e+002;9.055161e-002
7.849191e+002;8.856659e-002
7.868476e+002;8.753433e-002
7.887761e+002;8.662710e-002
7.907047e+002;8.489725e-002
7.926332e+002;8.401588e-002
7.945618e+002;8.321118e-002
7.964903e+002;8.226667e-002
7.984189e+002;8.139318e-002
8.003474e+002;7.975875e-002
8.022759e+002;7.856597e-002
8.042045e+002;7.797822e-002
8.061331e+002;7.715641e-002
8.080616e+002;7.671952e-002
8.099902e+002;7.648548e-002
8.119187e+002;7.554660e-002
8.138472e+002;7.403094e-002
8.157758e+002;7.323992e-002
8.177043e+002;7.366076e-002
8.196329e+002;7.393315e-002
8.215615e+002;7.360961e-002
8.234900e+002;7.389493e-002
8.254185e+002;7.381323e-002
8.273471e+002;7.421467e-002
8.292756e+002;7.555149e-002
8.312042e+002;7.662041e-002
8.331328e+002;7.725073e-002
8.350613e+002;7.617386e-002
8.369898e+002;7.359537e-002
8.389184e+002;7.127342e-002
8.408469e+002;6.971504e-002
8.427755e+002;6.840034e-002
8.447040e+002;6.739133e-002
8.466326e+002;6.653783e-002
8.485611e+002;6.604486e-002
8.504897e+002;6.644890e-002
8.524182e+002;6.625820e-002
8.543467e+002;6.582341e-002
8.562753e+002;6.572206e-002
8.582039e+002;6.576840e-002
8.601324e+002;6.554231e-002
8.620610e+002;6.489743e-002
8.639895e+002;6.512318e-002
8.659180e+002;6.569963e-002
8.678466e+002;6.619306e-002
8.697751e+002;6.664672e-002
8.717037e+002;6.679647e-002
8.736323e+002;6.685912e-002
8.755608e+002;6.697040e-002
8.774893e+002;6.706439e-002
8.794179e+002;6.697400e-002
8.813464e+002;6.694272e-002
8.832750e+002;6.720605e-002
8.852036e+002;6.777776e-002
8.871321e+002;6.806768e-002
8.890606e+002;6.787720e-002
8.909892e+002;6.818474e-002
8.929177e+002;6.867332e-002
8.948463e+002;6.889654e-002
8.967748e+002;6.906074e-002
8.987034e+002;6.933352e-002
9.006319e+002;6.962720e-002
9.025605e+002;7.017127e-002
9.044890e+002;7.066213e-002
9.064175e+002;7.106225e-002
9.083461e+002;7.148877e-002
9.102747e+002;7.175303e-002
9.122032e+002;7.217349e-002
9.141318e+002;7.318102e-002
9.160603e+002;7.382945e-002
9.179888e+002;7.411377e-002
9.199174e+002;7.490197e-002
9.218459e+002;7.606173e-002
9.237745e+002;7.725789e-002
9.257031e+002;7.871048e-002
9.276316e+002;7.986849e-002
9.295601e+002;7.984730e-002
9.314887e+002;7.881904e-002
9.334172e+002;7.736561e-002
9.353458e+002;7.622563e-002
9.372744e+002;7.556572e-002
9.392029e+002;7.547973e-002
9.411314e+002;7.589533e-002
9.430600e+002;7.653326e-002
9.449885e+002;7.725231e-002
9.469171e+002;7.832952e-002
9.488456e+002;7.978793e-002
9.507742e+002;8.125493e-002
9.527027e+002;8.221454e-002
9.546313e+002;8.263031e-002
9.565598e+002;8.309819e-002
9.584883e+002;8.337034e-002
9.604169e+002;8.335556e-002
9.623455e+002;8.285636e-002
9.642740e+002;8.225298e-002
9.662026e+002;8.230400e-002
9.681311e+002;8.216814e-002
9.700596e+002;8.177361e-002
9.719882e+002;8.148667e-002
9.739167e+002;8.103082e-002
9.758453e+002;8.029254e-002
9.777739e+002;7.970114e-002
9.797024e+002;7.931951e-002
9.816309e+002;7.888893e-002
9.835595e+002;7.844616e-002
9.854880e+002;7.767968e-002
9.874166e+002;7.688583e-002
9.893452e+002;7.624941e-002
9.912737e+002;7.534292e-002
9.932022e+002;7.442856e-002
9.951307e+002;7.388196e-002
9.970593e+002;7.374157e-002
9.989879e+002;7.341790e-002
1.000916e+003;7.316137e-002
1.002845e+003;7.316133e-002
1.004773e+003;7.302818e-002
1.006702e+003;7.286184e-002
1.008631e+003;7.295131e-002
1.010559e+003;7.307542e-002
1.012488e+003;7.304963e-002
1.014416e+003;7.270168e-002
1.016345e+003;7.247775e-002
1.018273e+003;7.267316e-002
1.020202e+003;7.298788e-002
1.022130e+003;7.361738e-002
1.024059e+003;7.477604e-002
1.025988e+003;7.569354e-002
1.027916e+003;7.621047e-002
1.029845e+003;7.687270e-002
1.031773e+003;7.713670e-002
1.033702e+003;7.636975e-002
1.035630e+003;7.564822e-002
1.037559e+003;7.507051e-002
1.039487e+003;7.449078e-002
1.041416e+003;7.400080e-002
1.043344e+003;7.363693e-002
1.045273e+003;7.358253e-002
1.047202e+003;7.400343e-002
1.049130e+003;7.433674e-002
1.051059e+003;7.508906e-002
1.052987e+003;7.611167e-002
1.054916e+003;7.717656e-002
1.056844e+003;7.873745e-002
1.058773e+003;8.035883e-002
1.060701e+003;8.181073e-002
1.062630e+003;8.287866e-002
1.064558e+003;8.371875e-002
1.066487e+003;8.501229e-002
1.068416e+003;8.627396e-002
1.070344e+003;8.668105e-002
1.072273e+003;8.701059e-002
1.074201e+003;8.726292e-002
1.076130e+003;8.632800e-002
1.078058e+003;8.501241e-002
1.079987e+003;8.427376e-002
1.081915e+003;8.392105e-002
1.083844e+003;8.354472e-002
1.085773e+003;8.268514e-002
1.087701e+003;8.199554e-002
1.089630e+003;8.184849e-002
1.091558e+003;8.216762e-002
1.093487e+003;8.260414e-002
1.095415e+003;8.276852e-002
1.097344e+003;8.348433e-002
1.099272e+003;8.505488e-002
1.101201e+003;8.696975e-002
1.103129e+003;8.871301e-002
1.105058e+003;9.049704e-002
1.106987e+003;9.227646e-002
1.108915e+003;9.322549e-002
1.110844e+003;9.380785e-002
1.112772e+003;9.482056e-002
1.114701e+003;9.561008e-002
1.116629e+003;9.595812e-002
1.118558e+003;9.567678e-002
1.120486e+003;9.492123e-002
1.122415e+003;9.294914e-002
1.124344e+003;8.991274e-002
1.126272e+003;8.745238e-002
1.128201e+003;8.558691e-002
1.130129e+003;8.339153e-002
1.132058e+003;8.177473e-002
1.133986e+003;8.119753e-002
1.135915e+003;8.087002e-002
1.137843e+003;8.071677e-002
1.139772e+003;8.106497e-002
1.141700e+003;8.217987e-002
1.143629e+003;8.452551e-002
1.145557e+003;8.681922e-002
1.147486e+003;8.848201e-002
1.149415e+003;9.051732e-002
1.151343e+003;9.329711e-002
1.153272e+003;9.666816e-002
1.155200e+003;1.002311e-001
1.157129e+003;1.040838e-001
1.159057e+003;1.084317e-001
1.160986e+003;1.139232e-001
1.162914e+003;1.199551e-001
1.164843e+003;1.253396e-001
1.166771e+003;1.293840e-001
1.168700e+003;1.311416e-001
1.170629e+003;1.303989e-001
1.172557e+003;1.275148e-001
1.174486e+003;1.229725e-001
1.176414e+003;1.177308e-001
1.178343e+003;1.134112e-001
1.180271e+003;1.103904e-001
1.182200e+003;1.091291e-001
1.184128e+003;1.099571e-001
1.186057e+003;1.122283e-001
1.187986e+003;1.151924e-001
1.189914e+003;1.185208e-001
1.191843e+003;1.221897e-001
1.193771e+003;1.265582e-001
1.195700e+003;1.309769e-001
1.197628e+003;1.346334e-001
1.199557e+003;1.358853e-001
1.201485e+003;1.339353e-001
1.203414e+003;1.306729e-001
1.205343e+003;1.280778e-001
1.207271e+003;1.263407e-001
1.209200e+003;1.254099e-001
1.211128e+003;1.250097e-001
1.213057e+003;1.241048e-001
1.214985e+003;1.220480e-001
1.216914e+003;1.193163e-001
1.218842e+003;1.166524e-001
1.220771e+003;1.153837e-001
1.222699e+003;1.160732e-001
1.224628e+003;1.182248e-001
1.226557e+003;1.214939e-001
1.228485e+003;1.259705e-001
1.230414e+003;1.307616e-001
1.232342e+003;1.346739e-001
1.234271e+003;1.373491e-001
1.236199e+003;1.390237e-001
1.238128e+003;1.396114e-001
1.240056e+003;1.395216e-001
1.241985e+003;1.390865e-001
1.243913e+003;1.392200e-001
1.245842e+003;1.402099e-001
1.247771e+003;1.414645e-001
1.249699e+003;1.433168e-001
1.251628e+003;1.459931e-001
1.253556e+003;1.487844e-001
1.255485e+003;1.513796e-001
1.257413e+003;1.531301e-001
1.259342e+003;1.538640e-001
1.261270e+003;1.537851e-001
1.263199e+003;1.519219e-001
1.265127e+003;1.478545e-001
1.267056e+003;1.422337e-001
1.268985e+003;1.365701e-001
1.270913e+003;1.323774e-001
1.272842e+003;1.302217e-001
1.274770e+003;1.297225e-001
1.276699e+003;1.296162e-001
1.278627e+003;1.291775e-001
1.280556e+003;1.280006e-001
1.282484e+003;1.263656e-001
1.284413e+003;1.249247e-001
1.286342e+003;1.236040e-001
1.288270e+003;1.224590e-001
1.290199e+003;1.214164e-001
1.292127e+003;1.204926e-001
1.294056e+003;1.197652e-001
1.295984e+003;1.193105e-001
1.297913e+003;1.192256e-001
1.299841e+003;1.191695e-001
1.301770e+003;1.186031e-001
1.303698e+003;1.177313e-001
1.305627e+003;1.167809e-001
1.307556e+003;1.158144e-001
1.309484e+003;1.147188e-001
1.311413e+003;1.136406e-001
1.313341e+003;1.127190e-001
1.315270e+003;1.118195e-001
1.317198e+003;1.108223e-001
1.319127e+003;1.099248e-001
1.321055e+003;1.090954e-001
1.322984e+003;1.083059e-001
1.324912e+003;1.079724e-001
1.326841e+003;1.078707e-001
1.328770e+003;1.079328e-001
1.330698e+003;1.084728e-001
1.332627e+003;1.088970e-001
1.334555e+003;1.090942e-001
1.336484e+003;1.094333e-001
1.338412e+003;1.096608e-001
1.340341e+003;1.101163e-001
1.342269e+003;1.109266e-001
1.344198e+003;1.118601e-001
1.346126e+003;1.128963e-001
1.348055e+003;1.140301e-001
1.349984e+003;1.154111e-001
1.351912e+003;1.169038e-001
1.353841e+003;1.182618e-001
1.355769e+003;1.200613e-001
1.357698e+003;1.220695e-001
1.359626e+003;1.238238e-001
1.361555e+003;1.255652e-001
1.363483e+003;1.268932e-001
1.365412e+003;1.281254e-001
1.367341e+003;1.297865e-001
1.369269e+003;1.310418e-001
1.371198e+003;1.313921e-001
1.373126e+003;1.308792e-001
1.375055e+003;1.294977e-001
1.376983e+003;1.269610e-001
1.378912e+003;1.238521e-001
1.380840e+003;1.207123e-001
1.382769e+003;1.174458e-001
1.384698e+003;1.142013e-001
1.386626e+003;1.112927e-001
1.388555e+003;1.090043e-001
1.390483e+003;1.073095e-001
1.392412e+003;1.059269e-001
1.394340e+003;1.049354e-001
1.396269e+003;1.048155e-001
1.398197e+003;1.053227e-001
1.400126e+003;1.063349e-001
1.402054e+003;1.084560e-001
1.403983e+003;1.115651e-001
1.405911e+003;1.156359e-001
1.407840e+003;1.207907e-001
1.409769e+003;1.268311e-001
1.411697e+003;1.335072e-001
1.413626e+003;1.395693e-001
1.415554e+003;1.437957e-001
1.417483e+003;1.451442e-001
1.419411e+003;1.438286e-001
1.421340e+003;1.413616e-001
1.423268e+003;1.390227e-001
1.425197e+003;1.374609e-001
1.427125e+003;1.372817e-001
1.429054e+003;1.388553e-001
1.430983e+003;1.414554e-001
1.432911e+003;1.436537e-001
1.434840e+003;1.447191e-001
1.436768e+003;1.444529e-001
1.438697e+003;1.438776e-001
1.440625e+003;1.430421e-001
1.442554e+003;1.419650e-001
1.444482e+003;1.411247e-001
1.446411e+003;1.410145e-001
1.448340e+003;1.419033e-001
1.450268e+003;1.439099e-001
1.452197e+003;1.464067e-001
1.454125e+003;1.485867e-001
1.456054e+003;1.508526e-001
1.457982e+003;1.546115e-001
1.459911e+003;1.594393e-001
1.461839e+003;1.630331e-001
1.463768e+003;1.623401e-001
1.465697e+003;1.573869e-001
1.467625e+003;1.510579e-001
1.469554e+003;1.457196e-001
1.471482e+003;1.427549e-001
1.473411e+003;1.422080e-001
1.475339e+003;1.424839e-001
1.477268e+003;1.411063e-001
1.479196e+003;1.378662e-001
1.481125e+003;1.333065e-001
1.483053e+003;1.279150e-001
1.484982e+003;1.232432e-001
1.486911e+003;1.207134e-001
1.488839e+003;1.205498e-001
1.490768e+003;1.222879e-001
1.492696e+003;1.252798e-001
1.494625e+003;1.288154e-001
1.496553e+003;1.328163e-001
1.498482e+003;1.376347e-001
1.500410e+003;1.430846e-001
1.502339e+003;1.490127e-001
1.504267e+003;1.550541e-001
1.506196e+003;1.614399e-001
1.508125e+003;1.685027e-001
1.510053e+003;1.754748e-001
1.511982e+003;1.828366e-001
1.513910e+003;1.906520e-001
1.515839e+003;1.984142e-001
1.517767e+003;2.067516e-001
1.519696e+003;2.153690e-001
1.521624e+003;2.241531e-001
1.523553e+003;2.332812e-001
1.525481e+003;2.418855e-001
1.527410e+003;2.503056e-001
1.529339e+003;2.585359e-001
1.531267e+003;2.656997e-001
1.533196e+003;2.717426e-001
1.535124e+003;2.758555e-001
1.537053e+003;2.771647e-001
1.538981e+003;2.756850e-001
1.540910e+003;2.720514e-001
1.542838e+003;2.664956e-001
1.544767e+003;2.586138e-001
1.546695e+003;2.493954e-001
1.548624e+003;2.392915e-001
1.550553e+003;2.287392e-001
1.552481e+003;2.186239e-001
1.554410e+003;2.088094e-001
1.556338e+003;1.988836e-001
1.558267e+003;1.891699e-001
1.560195e+003;1.806103e-001
1.562124e+003;1.727429e-001
1.564052e+003;1.645305e-001
1.565981e+003;1.562764e-001
1.567910e+003;1.484469e-001
1.569838e+003;1.409922e-001
1.571767e+003;1.341336e-001
1.573695e+003;1.276836e-001
1.575624e+003;1.216775e-001
1.577552e+003;1.167046e-001
1.579481e+003;1.130516e-001
1.581409e+003;1.101441e-001
1.583338e+003;1.078267e-001
1.585266e+003;1.061093e-001
1.587195e+003;1.052712e-001
1.589124e+003;1.052860e-001
1.591052e+003;1.058297e-001
1.592981e+003;1.071859e-001
1.594909e+003;1.094369e-001
1.596838e+003;1.125286e-001
1.598766e+003;1.163945e-001
1.600695e+003;1.209205e-001
1.602623e+003;1.264069e-001
1.604552e+003;1.328335e-001
1.606480e+003;1.403558e-001
1.608409e+003;1.487424e-001
1.610338e+003;1.576751e-001
1.612266e+003;1.679038e-001
1.614195e+003;1.794398e-001
1.616123e+003;1.923694e-001
1.618052e+003;2.075309e-001
1.619980e+003;2.238061e-001
1.621909e+003;2.409347e-001
1.623837e+003;2.586696e-001
1.625766e+003;2.765165e-001
1.627694e+003;2.942686e-001
1.629623e+003;3.121618e-001
1.631552e+003;3.294552e-001
1.633480e+003;3.439559e-001
1.635409e+003;3.525557e-001
1.637337e+003;3.530726e-001
1.639266e+003;3.450720e-001
1.641194e+003;3.296564e-001
1.643123e+003;3.101431e-001
1.645051e+003;2.887447e-001
1.646980e+003;2.676036e-001
1.648909e+003;2.485726e-001
1.650837e+003;2.314408e-001
1.652766e+003;2.160247e-001
1.654694e+003;2.034858e-001
1.656623e+003;1.926371e-001
1.658551e+003;1.819421e-001
1.660480e+003;1.717020e-001
1.662408e+003;1.620508e-001
1.664337e+003;1.531131e-001
1.666266e+003;1.442659e-001
1.668194e+003;1.355062e-001
1.670123e+003;1.273161e-001
1.672051e+003;1.199760e-001
1.673980e+003;1.128399e-001
1.675908e+003;1.056270e-001
1.677837e+003;9.833517e-002
1.679765e+003;9.066415e-002
1.681694e+003;8.313819e-002
1.683622e+003;7.595536e-002
1.685551e+003;6.971157e-002
1.687479e+003;6.493129e-002
1.689408e+003;6.078801e-002
1.691337e+003;5.747234e-002
1.693265e+003;5.501112e-002
1.695194e+003;5.273880e-002
1.697122e+003;5.139665e-002
1.699051e+003;5.057079e-002
1.700979e+003;4.970051e-002
1.702908e+003;4.929303e-002
1.704836e+003;4.861115e-002
1.706765e+003;4.832844e-002
1.708693e+003;4.834893e-002
1.710622e+003;4.812022e-002
1.712551e+003;4.778520e-002
1.714479e+003;4.772036e-002
1.716408e+003;4.754470e-002
1.718336e+003;4.727828e-002
1.720265e+003;4.733023e-002
1.722193e+003;4.737826e-002
1.724122e+003;4.731390e-002
1.726050e+003;4.714873e-002
1.727979e+003;4.679143e-002
1.729908e+003;4.635273e-002
1.731836e+003;4.578669e-002
1.733765e+003;4.515965e-002
1.735693e+003;4.488988e-002
1.737622e+003;4.450290e-002
1.739550e+003;4.383812e-002
1.741479e+003;4.321532e-002
1.743407e+003;4.267294e-002
1.745336e+003;4.209397e-002
1.747265e+003;4.163795e-002
1.749193e+003;4.135687e-002
1.751122e+003;4.094288e-002
1.753050e+003;4.075745e-002
1.754979e+003;4.051488e-002
1.756907e+003;4.007675e-002
1.758836e+003;3.967621e-002
1.760764e+003;3.919524e-002
1.762693e+003;3.887544e-002
1.764621e+003;3.844251e-002
1.766550e+003;3.785335e-002
1.768479e+003;3.738501e-002
1.770407e+003;3.691453e-002
1.772336e+003;3.632420e-002
1.774264e+003;3.610158e-002
1.776193e+003;3.607674e-002
1.778121e+003;3.586851e-002
1.780050e+003;3.548606e-002
1.781978e+003;3.525177e-002
1.783907e+003;3.509049e-002
1.785835e+003;3.470564e-002
1.787764e+003;3.442424e-002
1.789693e+003;3.424243e-002
1.791621e+003;3.398617e-002
1.793550e+003;3.390666e-002
1.795478e+003;3.388606e-002
1.797407e+003;3.380501e-002
1.799335e+003;3.362775e-002
1.801264e+003;3.311462e-002
1.803192e+003;3.286181e-002
1.805121e+003;3.290319e-002
1.807049e+003;3.292504e-002
1.808978e+003;3.276193e-002
1.810907e+003;3.260860e-002
1.812835e+003;3.250118e-002
1.814764e+003;3.245704e-002
1.816692e+003;3.230047e-002
1.818621e+003;3.215494e-002
1.820549e+003;3.224001e-002
1.822478e+003;3.216957e-002
1.824406e+003;3.188856e-002
1.826335e+003;3.186050e-002
1.828264e+003;3.189091e-002
1.830192e+003;3.182958e-002
1.832121e+003;3.180424e-002
1.834049e+003;3.165378e-002
1.835978e+003;3.151082e-002
1.837906e+003;3.157641e-002
1.839835e+003;3.139330e-002
1.841763e+003;3.129119e-002
1.843692e+003;3.123422e-002
1.845620e+003;3.108951e-002
1.847549e+003;3.088455e-002
1.849478e+003;3.074582e-002
1.851406e+003;3.061645e-002
1.853335e+003;3.044341e-002
1.855263e+003;3.045230e-002
1.857192e+003;3.052928e-002
1.859120e+003;3.051898e-002
1.861049e+003;3.042195e-002
1.862977e+003;3.030412e-002
1.864906e+003;3.031620e-002
1.866834e+003;3.007868e-002
1.868763e+003;2.999960e-002
1.870692e+003;3.008446e-002
1.872620e+003;3.006944e-002
1.874549e+003;3.013248e-002
1.876477e+003;3.024017e-002
1.878406e+003;3.030451e-002
1.880334e+003;3.038559e-002
1.882263e+003;3.026504e-002
1.884191e+003;3.001923e-002
1.886120e+003;2.998476e-002
1.888048e+003;3.018302e-002
1.889977e+003;3.022504e-002
1.891906e+003;3.001923e-002
1.893834e+003;3.019083e-002
1.895763e+003;3.055268e-002
1.897691e+003;3.062947e-002
1.899620e+003;3.050902e-002
1.901548e+003;3.046147e-002
1.903477e+003;3.052338e-002
1.905405e+003;3.053657e-002
1.907334e+003;3.030593e-002
1.909262e+003;3.016508e-002
1.911191e+003;3.023992e-002
1.913120e+003;3.047213e-002
1.915048e+003;3.041466e-002
1.916977e+003;3.008951e-002
1.918905e+003;3.000045e-002
1.920834e+003;3.001022e-002
1.922762e+003;2.993194e-002
1.924691e+003;2.994312e-002
1.926619e+003;2.983181e-002
1.928548e+003;2.987113e-002
1.930477e+003;2.989793e-002
1.932405e+003;2.978915e-002
1.934334e+003;2.979149e-002
1.936262e+003;2.983025e-002
1.938191e+003;2.967224e-002
1.940119e+003;2.949422e-002
1.942048e+003;2.945415e-002
1.943976e+003;2.938781e-002
1.945905e+003;2.946148e-002
1.947833e+003;2.979508e-002
1.949762e+003;2.979345e-002
1.951691e+003;2.955965e-002
1.953619e+003;2.960175e-002
1.955548e+003;2.971964e-002
1.957476e+003;2.988128e-002
1.959405e+003;3.001849e-002
1.961333e+003;3.004192e-002
1.963262e+003;3.001061e-002
1.965190e+003;3.009639e-002
1.967119e+003;3.050362e-002
1.969047e+003;3.058755e-002
1.970976e+003;3.028649e-002
1.972905e+003;3.009419e-002
1.974833e+003;3.019051e-002
1.976762e+003;3.036733e-002
1.978690e+003;3.042092e-002
1.980619e+003;3.039611e-002
1.982547e+003;3.031730e-002
1.984476e+003;3.025999e-002
1.986404e+003;3.033890e-002
1.988333e+003;3.035144e-002
1.990261e+003;3.025228e-002
1.992190e+003;3.028202e-002
1.994119e+003;3.032810e-002
1.996047e+003;3.042998e-002
1.997976e+003;3.043989e-002
1.999904e+003;3.043733e-002
2.001833e+003;3.073366e-002
2.003761e+003;3.081489e-002
2.005690e+003;3.070197e-002
2.007618e+003;3.076186e-002
2.009547e+003;3.080273e-002
2.011476e+003;3.089287e-002
2.013404e+003;3.100242e-002
2.015333e+003;3.098986e-002
2.017261e+003;3.115778e-002
2.019190e+003;3.125708e-002
2.021118e+003;3.092557e-002
2.023047e+003;3.086163e-002
2.024975e+003;3.131028e-002
2.026904e+003;3.159149e-002
2.028833e+003;3.158546e-002
2.030761e+003;3.155375e-002
2.032690e+003;3.160570e-002
2.034618e+003;3.198949e-002
2.036547e+003;3.228834e-002
2.038475e+003;3.220964e-002
2.040404e+003;3.212294e-002
2.042332e+003;3.201174e-002
2.044261e+003;3.187940e-002
2.046189e+003;3.180784e-002
2.048118e+003;3.179725e-002
2.050047e+003;3.175030e-002
2.051975e+003;3.171262e-002
2.053904e+003;3.179440e-002
2.055832e+003;3.200400e-002
2.057761e+003;3.220985e-002
2.059689e+003;3.225040e-002
2.061618e+003;3.228980e-002
2.063546e+003;3.226646e-002
2.065475e+003;3.228673e-002
2.067404e+003;3.251278e-002
2.069332e+003;3.266425e-002
2.071260e+003;3.261914e-002
2.073189e+003;3.253371e-002
2.075118e+003;3.257124e-002
2.077046e+003;3.263918e-002
2.078975e+003;3.243751e-002
2.080903e+003;3.226617e-002
2.082832e+003;3.218134e-002
2.084760e+003;3.208840e-002
2.086689e+003;3.209593e-002
2.088617e+003;3.222402e-002
2.090546e+003;3.212839e-002
2.092475e+003;3.184666e-002
2.094403e+003;3.185643e-002
2.096332e+003;3.201249e-002
2.098260e+003;3.191320e-002
2.100189e+003;3.182438e-002
2.102117e+003;3.173722e-002
2.104046e+003;3.172749e-002
2.105974e+003;3.191688e-002
2.107903e+003;3.208441e-002
2.109832e+003;3.223484e-002
2.111760e+003;3.241331e-002
2.113688e+003;3.238750e-002
2.115617e+003;3.242095e-002
2.117546e+003;3.262318e-002
2.119474e+003;3.278887e-002
2.121403e+003;3.275700e-002
2.123331e+003;3.279895e-002
2.125260e+003;3.283883e-002
2.127188e+003;3.279598e-002
2.129117e+003;3.287721e-002
2.131045e+003;3.288182e-002
2.132974e+003;3.297558e-002
2.134903e+003;3.296657e-002
2.136831e+003;3.296128e-002
2.138760e+003;3.293526e-002
2.140688e+003;3.272692e-002
2.142617e+003;3.258828e-002
2.144545e+003;3.272445e-002
2.146474e+003;3.296736e-002
2.148402e+003;3.281049e-002
2.150331e+003;3.285437e-002
2.152260e+003;3.311387e-002
2.154188e+003;3.335424e-002
2.156117e+003;3.349595e-002
2.158045e+003;3.324277e-002
2.159974e+003;3.301530e-002
2.161902e+003;3.305158e-002
2.163831e+003;3.339339e-002
2.165759e+003;3.379261e-002
2.167688e+003;3.389874e-002
2.169616e+003;3.373564e-002
2.171545e+003;3.376736e-002
2.173474e+003;3.389566e-002
2.175402e+003;3.395073e-002
2.177331e+003;3.395410e-002
2.179259e+003;3.397979e-002
2.181188e+003;3.412647e-002
2.183116e+003;3.414930e-002
2.185045e+003;3.423193e-002
2.186973e+003;3.428704e-002
2.188902e+003;3.426481e-002
2.190831e+003;3.439659e-002
2.192759e+003;3.445703e-002
2.194688e+003;3.419181e-002
2.196616e+003;3.389255e-002
2.198545e+003;3.387109e-002
2.200473e+003;3.408152e-002
2.202402e+003;3.412779e-002
2.204330e+003;3.405024e-002
2.206259e+003;3.409034e-002
2.208188e+003;3.406285e-002
2.210116e+003;3.384838e-002
2.212044e+003;3.366581e-002
2.213973e+003;3.363126e-002
2.215902e+003;3.347483e-002
2.217830e+003;3.333424e-002
2.219759e+003;3.330240e-002
2.221687e+003;3.314835e-002
2.223616e+003;3.306710e-002
2.225544e+003;3.300186e-002
2.227473e+003;3.297554e-002
2.229401e+003;3.311048e-002
2.231330e+003;3.324009e-002
2.233259e+003;3.314044e-002
2.235187e+003;3.289001e-002
2.237116e+003;3.283515e-002
2.239044e+003;3.297572e-002
2.240973e+003;3.275971e-002
2.242901e+003;3.265283e-002
2.244830e+003;3.286703e-002
2.246758e+003;3.299617e-002
2.248687e+003;3.293315e-002
2.250615e+003;3.288640e-002
2.252544e+003;3.310493e-002
2.254473e+003;3.309703e-002
2.256401e+003;3.295706e-002
2.258330e+003;3.310551e-002
2.260258e+003;3.328763e-002
2.262187e+003;3.335864e-002
2.264115e+003;3.351087e-002
2.266044e+003;3.368919e-002
2.267972e+003;3.357087e-002
2.269901e+003;3.361182e-002
2.271830e+003;3.348471e-002
2.273758e+003;3.322556e-002
2.275687e+003;3.330408e-002
2.277615e+003;3.360842e-002
2.279544e+003;3.372231e-002
2.281472e+003;3.368128e-002
2.283401e+003;3.365492e-002
2.285329e+003;3.390190e-002
2.287258e+003;3.408331e-002
2.289187e+003;3.378943e-002
2.291115e+003;3.365088e-002
2.293043e+003;3.390262e-002
2.294972e+003;3.411131e-002
2.296901e+003;3.417324e-002
2.298829e+003;3.400534e-002
2.300758e+003;3.381478e-002
2.302686e+003;3.403687e-002
2.304615e+003;3.422598e-002
2.306543e+003;3.413439e-002
2.308472e+003;3.413668e-002
2.310400e+003;3.424207e-002
2.312329e+003;3.408274e-002
2.314258e+003;3.395696e-002
2.316186e+003;3.403282e-002
2.318115e+003;3.403268e-002
2.320043e+003;3.407099e-002
2.321972e+003;3.417540e-002
2.323900e+003;3.419855e-002
2.325829e+003;3.430625e-002
2.327757e+003;3.426294e-002
2.329686e+003;3.410948e-002
2.331615e+003;3.406522e-002
2.333543e+003;3.413550e-002
2.335472e+003;3.400394e-002
2.337400e+003;3.390401e-002
2.339329e+003;3.390115e-002
2.341257e+003;3.378373e-002
2.343186e+003;3.369417e-002
2.345114e+003;3.381994e-002
2.347043e+003;3.387983e-002
2.348971e+003;3.386292e-002
2.350900e+003;3.379447e-002
2.352829e+003;3.362077e-002
2.354757e+003;3.354083e-002
2.356686e+003;3.347154e-002
2.358614e+003;3.342985e-002
2.360543e+003;3.341614e-002
2.362471e+003;3.333234e-002
2.364400e+003;3.343032e-002
2.366328e+003;3.359829e-002
2.368257e+003;3.375168e-002
2.370186e+003;3.403848e-002
2.372114e+003;3.435327e-002
2.374042e+003;3.432167e-002
2.375971e+003;3.419898e-002
2.377900e+003;3.420052e-002
2.379828e+003;3.429249e-002
2.381757e+003;3.448034e-002
2.383685e+003;3.451909e-002
2.385614e+003;3.445283e-002
2.387542e+003;3.443590e-002
2.389471e+003;3.451676e-002
2.391399e+003;3.430012e-002
2.393328e+003;3.421888e-002
2.395257e+003;3.451424e-002
2.397185e+003;3.467758e-002
2.399114e+003;3.448253e-002
2.401042e+003;3.439376e-002
2.402971e+003;3.440825e-002
2.404899e+003;3.454570e-002
2.406828e+003;3.454312e-002
2.408756e+003;3.440136e-002
2.410685e+003;3.439379e-002
2.412614e+003;3.447460e-002
2.414542e+003;3.461976e-002
2.416471e+003;3.455504e-002
2.418399e+003;3.458058e-002
2.420328e+003;3.465587e-002
2.422256e+003;3.468185e-002
2.424185e+003;3.482614e-002
2.426113e+003;3.507138e-002
2.428042e+003;3.500213e-002
2.429970e+003;3.499286e-002
2.431899e+003;3.496772e-002
2.433828e+003;3.488283e-002
2.435756e+003;3.481308e-002
2.437685e+003;3.490944e-002
2.439613e+003;3.525267e-002
2.441542e+003;3.566857e-002
2.443470e+003;3.592332e-002
2.445399e+003;3.580640e-002
2.447327e+003;3.571750e-002
2.449256e+003;3.576423e-002
2.451185e+003;3.580222e-002
2.453113e+003;3.599397e-002
2.455042e+003;3.620385e-002
2.456970e+003;3.624538e-002
2.458899e+003;3.652003e-002
2.460827e+003;3.650983e-002
2.462756e+003;3.624978e-002
2.464684e+003;3.643116e-002
2.466613e+003;3.658732e-002
2.468542e+003;3.680899e-002
2.470470e+003;3.707491e-002
2.472398e+003;3.715305e-002
2.474327e+003;3.710385e-002
2.476256e+003;3.725830e-002
2.478184e+003;3.736208e-002
2.480113e+003;3.730986e-002
2.482041e+003;3.728611e-002
2.483970e+003;3.730510e-002
2.485898e+003;3.729246e-002
2.487827e+003;3.728275e-002
2.489755e+003;3.714702e-002
2.491684e+003;3.722228e-002
2.493613e+003;3.727740e-002
2.495541e+003;3.720228e-002
2.497470e+003;3.718080e-002
2.499398e+003;3.712540e-002
2.501327e+003;3.732922e-002
2.503255e+003;3.751344e-002
2.505184e+003;3.733680e-002
2.507112e+003;3.693928e-002
2.509041e+003;3.689275e-002
2.510969e+003;3.742824e-002
2.512898e+003;3.792385e-002
2.514827e+003;3.823557e-002
2.516755e+003;3.826390e-002
2.518684e+003;3.830834e-002
2.520612e+003;3.857261e-002
2.522541e+003;3.872399e-002
2.524469e+003;3.872689e-002
2.526398e+003;3.891189e-002
2.528326e+003;3.910724e-002
2.530255e+003;3.937895e-002
2.532184e+003;3.967897e-002
2.534112e+003;3.982436e-002
2.536041e+003;3.983598e-002
2.537969e+003;3.984244e-002
2.539898e+003;3.977882e-002
2.541826e+003;3.989049e-002
2.543755e+003;4.021733e-002
2.545683e+003;4.036675e-002
2.547612e+003;4.029251e-002
2.549541e+003;4.046654e-002
2.551469e+003;4.088040e-002
2.553397e+003;4.092096e-002
2.555326e+003;4.073729e-002
2.557255e+003;4.074747e-002
2.559183e+003;4.062896e-002
2.561112e+003;4.059665e-002
2.563040e+003;4.070064e-002
2.564969e+003;4.076425e-002
2.566897e+003;4.081561e-002
2.568826e+003;4.084655e-002
2.570754e+003;4.087422e-002
2.572683e+003;4.093549e-002
2.574612e+003;4.112759e-002
2.576540e+003;4.157585e-002
2.578469e+003;4.156509e-002
2.580397e+003;4.152313e-002
2.582326e+003;4.190815e-002
2.584254e+003;4.209973e-002
2.586183e+003;4.192301e-002
2.588111e+003;4.207064e-002
2.590040e+003;4.240245e-002
2.591969e+003;4.233877e-002
2.593897e+003;4.226357e-002
2.595826e+003;4.242195e-002
2.597754e+003;4.249415e-002
2.599683e+003;4.252532e-002
2.601611e+003;4.245958e-002
2.603540e+003;4.260466e-002
2.605468e+003;4.288501e-002
2.607397e+003;4.278445e-002
2.609325e+003;4.271780e-002
2.611254e+003;4.271509e-002
2.613183e+003;4.265865e-002
2.615111e+003;4.298626e-002
2.617040e+003;4.336175e-002
2.618968e+003;4.342524e-002
2.620897e+003;4.337317e-002
2.622825e+003;4.324617e-002
2.624754e+003;4.338888e-002
2.626682e+003;4.347878e-002
2.628611e+003;4.345882e-002
2.630540e+003;4.360690e-002
2.632468e+003;4.383625e-002
2.634396e+003;4.386745e-002
2.636325e+003;4.370997e-002
2.638254e+003;4.392595e-002
2.640182e+003;4.417352e-002
2.642111e+003;4.416549e-002
2.644039e+003;4.425225e-002
2.645968e+003;4.408098e-002
2.647896e+003;4.406268e-002
2.649825e+003;4.434952e-002
2.651753e+003;4.461249e-002
2.653682e+003;4.470929e-002
2.655611e+003;4.472519e-002
2.657539e+003;4.472340e-002
2.659468e+003;4.485394e-002
2.661396e+003;4.486633e-002
2.663325e+003;4.484667e-002
2.665253e+003;4.502878e-002
2.667182e+003;4.510020e-002
2.669110e+003;4.518197e-002
2.671039e+003;4.538202e-002
2.672968e+003;4.570772e-002
2.674896e+003;4.588335e-002
2.676825e+003;4.593737e-002
2.678753e+003;4.602728e-002
2.680682e+003;4.609710e-002
2.682610e+003;4.615805e-002
2.684539e+003;4.614297e-002
2.686467e+003;4.631015e-002
2.688396e+003;4.655421e-002
2.690324e+003;4.667277e-002
2.692253e+003;4.701480e-002
2.694182e+003;4.731766e-002
2.696110e+003;4.734948e-002
2.698039e+003;4.753061e-002
2.699967e+003;4.792932e-002
2.701896e+003;4.806529e-002
2.703824e+003;4.828882e-002
2.705753e+003;4.860133e-002
2.707681e+003;4.859276e-002
2.709610e+003;4.887775e-002
2.711539e+003;4.929641e-002
2.713467e+003;4.955564e-002
2.715396e+003;4.972283e-002
2.717324e+003;4.989336e-002
2.719253e+003;5.027171e-002
2.721181e+003;5.076791e-002
2.723110e+003;5.110677e-002
2.725038e+003;5.135186e-002
2.726967e+003;5.152027e-002
2.728896e+003;5.150359e-002
2.730824e+003;5.160952e-002
2.732752e+003;5.192734e-002
2.734681e+003;5.241138e-002
2.736610e+003;5.278425e-002
2.738538e+003;5.289076e-002
2.740467e+003;5.293114e-002
2.742395e+003;5.305988e-002
2.744324e+003;5.302832e-002
2.746252e+003;5.312154e-002
2.748181e+003;5.343338e-002
2.750109e+003;5.364984e-002
2.752038e+003;5.335534e-002
2.753967e+003;5.317573e-002
2.755895e+003;5.318150e-002
2.757824e+003;5.326813e-002
2.759752e+003;5.365584e-002
2.761681e+003;5.381682e-002
2.763609e+003;5.405095e-002
2.765538e+003;5.437349e-002
2.767466e+003;5.451494e-002
2.769395e+003;5.469548e-002
2.771323e+003;5.502180e-002
2.773252e+003;5.510801e-002
2.775181e+003;5.514529e-002
2.777109e+003;5.561787e-002
2.779038e+003;5.622271e-002
2.780966e+003;5.627367e-002
2.782895e+003;5.627178e-002
2.784823e+003;5.660934e-002
2.786752e+003;5.719111e-002
2.788680e+003;5.756437e-002
2.790609e+003;5.763201e-002
2.792538e+003;5.796620e-002
2.794466e+003;5.840554e-002
2.796395e+003;5.877606e-002
2.798323e+003;5.913265e-002
2.800252e+003;5.943987e-002
2.802180e+003;5.974001e-002
2.804109e+003;6.008111e-002
2.806037e+003;6.055148e-002
2.807966e+003;6.109611e-002
2.809895e+003;6.170229e-002
2.811823e+003;6.215128e-002
2.813751e+003;6.254514e-002
2.815680e+003;6.304634e-002
2.817609e+003;6.375386e-002
2.819537e+003;6.452958e-002
2.821466e+003;6.508218e-002
2.823394e+003;6.555168e-002
2.825323e+003;6.604394e-002
2.827251e+003;6.647624e-002
2.829180e+003;6.718834e-002
2.831108e+003;6.819389e-002
2.833037e+003;6.910293e-002
2.834966e+003;7.024955e-002
2.836894e+003;7.195804e-002
2.838823e+003;7.427953e-002
2.840751e+003;7.687504e-002
2.842680e+003;7.991520e-002
2.844608e+003;8.378079e-002
2.846537e+003;8.758743e-002
2.848465e+003;9.165110e-002
2.850394e+003;9.613612e-002
2.852323e+003;1.002093e-001
2.854251e+003;1.037503e-001
2.856180e+003;1.066849e-001
2.858108e+003;1.089521e-001
2.860037e+003;1.104901e-001
2.861965e+003;1.111996e-001
2.863894e+003;1.107363e-001
2.865822e+003;1.094059e-001
2.867751e+003;1.074379e-001
2.869679e+003;1.051412e-001
2.871608e+003;1.028785e-001
2.873536e+003;1.003028e-001
2.875465e+003;9.761319e-002
2.877394e+003;9.527066e-002
2.879322e+003;9.316064e-002
2.881251e+003;9.119971e-002
2.883179e+003;8.995896e-002
2.885108e+003;8.941035e-002
2.887036e+003;8.931665e-002
2.888965e+003;9.014910e-002
2.890893e+003;9.154689e-002
2.892822e+003;9.348219e-002
2.894750e+003;9.550563e-002
2.896679e+003;9.713555e-002
2.898608e+003;9.839895e-002
2.900536e+003;9.971794e-002
2.902465e+003;1.010887e-001
2.904393e+003;1.021485e-001
2.906322e+003;1.030017e-001
2.908250e+003;1.044347e-001
2.910179e+003;1.062003e-001
2.912107e+003;1.084454e-001
2.914036e+003;1.109861e-001
2.915965e+003;1.131286e-001
2.917893e+003;1.155450e-001
2.919822e+003;1.189215e-001
2.921750e+003;1.223362e-001
2.923679e+003;1.258557e-001
2.925607e+003;1.290856e-001
2.927536e+003;1.318262e-001
2.929464e+003;1.341480e-001
2.931393e+003;1.358152e-001
2.933322e+003;1.369418e-001
2.935250e+003;1.372095e-001
2.937178e+003;1.359505e-001
2.939107e+003;1.335073e-001
2.941036e+003;1.308246e-001
2.942964e+003;1.276549e-001
2.944893e+003;1.237929e-001
2.946821e+003;1.191615e-001
2.948750e+003;1.137258e-001
2.950678e+003;1.082132e-001
2.952607e+003;1.026028e-001
2.954535e+003;9.734594e-002
2.956464e+003;9.253605e-002
2.958393e+003;8.820868e-002
2.960321e+003;8.436988e-002
2.962250e+003;8.088239e-002
2.964178e+003;7.804964e-002
2.966107e+003;7.537346e-002
2.968035e+003;7.287826e-002
2.969964e+003;7.066727e-002
2.971892e+003;6.827217e-002
2.973821e+003;6.629684e-002
2.975750e+003;6.470933e-002
2.977678e+003;6.317477e-002
2.979607e+003;6.147675e-002
2.981535e+003;6.031027e-002
2.983464e+003;5.930502e-002
2.985392e+003;5.799782e-002
2.987321e+003;5.735718e-002
2.989249e+003;5.702215e-002
2.991178e+003;5.645596e-002
2.993106e+003;5.574006e-002
2.995035e+003;5.533712e-002
2.996964e+003;5.515248e-002
2.998892e+003;5.476854e-002
3.000821e+003;5.441108e-002
3.002749e+003;5.441270e-002
3.004678e+003;5.486290e-002
3.006606e+003;5.495204e-002
3.008535e+003;5.471276e-002
3.010463e+003;5.448605e-002
3.012392e+003;5.472163e-002
3.014321e+003;5.533949e-002
3.016249e+003;5.537808e-002
3.018177e+003;5.546691e-002
3.020106e+003;5.604342e-002
3.022035e+003;5.666034e-002
3.023963e+003;5.709700e-002
3.025892e+003;5.734633e-002
3.027820e+003;5.744666e-002
3.029749e+003;5.780454e-002
3.031677e+003;5.817901e-002
3.033606e+003;5.839042e-002
3.035534e+003;5.857436e-002
3.037463e+003;5.904256e-002
3.039392e+003;5.972994e-002
3.041320e+003;6.040409e-002
3.043249e+003;6.110312e-002
3.045177e+003;6.201807e-002
3.047106e+003;6.285632e-002
3.049034e+003;6.361417e-002
3.050963e+003;6.446342e-002
3.052891e+003;6.520976e-002
3.054820e+003;6.598561e-002
3.056749e+003;6.658673e-002
3.058677e+003;6.689460e-002
3.060606e+003;6.707796e-002
3.062534e+003;6.734601e-002
3.064463e+003;6.773493e-002
3.066391e+003;6.817137e-002
3.068320e+003;6.855838e-002
3.070248e+003;6.870942e-002
3.072177e+003;6.880592e-002
3.074105e+003;6.897020e-002
3.076034e+003;6.909636e-002
3.077963e+003;6.910491e-002
3.079891e+003;6.889048e-002
3.081820e+003;6.874152e-002
3.083748e+003;6.868046e-002
3.085677e+003;6.863195e-002
3.087605e+003;6.808008e-002
3.089534e+003;6.740630e-002
3.091462e+003;6.695823e-002
3.093391e+003;6.658252e-002
3.095320e+003;6.584392e-002
3.097248e+003;6.513584e-002
3.099177e+003;6.459547e-002
3.101105e+003;6.391513e-002
3.103034e+003;6.324007e-002
3.104962e+003;6.294153e-002
3.106891e+003;6.263568e-002
3.108819e+003;6.161388e-002
3.110748e+003;6.077006e-002
3.112677e+003;6.038425e-002
3.114605e+003;6.040348e-002
3.116533e+003;6.026604e-002
3.118462e+003;5.994069e-002
3.120391e+003;5.956071e-002
3.122319e+003;5.908508e-002
3.124248e+003;5.883372e-002
3.126176e+003;5.855988e-002
3.128105e+003;5.845721e-002
3.130033e+003;5.873095e-002
3.131962e+003;5.872849e-002
3.133890e+003;5.852135e-002
3.135819e+003;5.838443e-002
3.137748e+003;5.837249e-002
3.139676e+003;5.838420e-002
3.141605e+003;5.832986e-002
3.143533e+003;5.834725e-002
3.145462e+003;5.857622e-002
3.147390e+003;5.883236e-002
3.149319e+003;5.917871e-002
3.151247e+003;5.946495e-002
3.153176e+003;5.972181e-002
3.155104e+003;5.980933e-002
3.157033e+003;6.008233e-002
3.158962e+003;6.064896e-002
3.160890e+003;6.118185e-002
3.162819e+003;6.151557e-002
3.164747e+003;6.173193e-002
3.166676e+003;6.164233e-002
3.168604e+003;6.197117e-002
3.170533e+003;6.315442e-002
3.172461e+003;6.383514e-002
3.174390e+003;6.416987e-002
3.176319e+003;6.482168e-002
3.178247e+003;6.535405e-002
3.180176e+003;6.586787e-002
3.182104e+003;6.652285e-002
3.184033e+003;6.707901e-002
3.185961e+003;6.731948e-002
3.187890e+003;6.750011e-002
3.189818e+003;6.785519e-002
3.191747e+003;6.835221e-002
3.193676e+003;6.885809e-002
3.195604e+003;6.929170e-002
3.197532e+003;6.981441e-002
3.199461e+003;7.029761e-002
3.201390e+003;7.050826e-002
3.203318e+003;7.056798e-002
3.205247e+003;7.076865e-002
3.207175e+003;7.126839e-002
3.209104e+003;7.183265e-002
3.211032e+003;7.241037e-002
3.212961e+003;7.287940e-002
3.214889e+003;7.329738e-002
3.216818e+003;7.373866e-002
3.218747e+003;7.414309e-002
3.220675e+003;7.485843e-002
3.222604e+003;7.564806e-002
3.224532e+003;7.622445e-002
3.226461e+003;7.714070e-002
3.228389e+003;7.799135e-002
3.230318e+003;7.860361e-002
3.232246e+003;7.951850e-002
3.234175e+003;8.086263e-002
3.236104e+003;8.201783e-002
3.238032e+003;8.340041e-002
3.239961e+003;8.502933e-002
3.241889e+003;8.635601e-002
3.243818e+003;8.795835e-002
3.245746e+003;8.985524e-002
3.247675e+003;9.143702e-002
3.249603e+003;9.284483e-002
3.251532e+003;9.464043e-002
3.253460e+003;9.633312e-002
3.255389e+003;9.762244e-002
3.257318e+003;9.975000e-002
3.259246e+003;1.020553e-001
3.261175e+003;1.035690e-001
3.263103e+003;1.052919e-001
3.265032e+003;1.076357e-001
3.266960e+003;1.097218e-001
3.268889e+003;1.115763e-001
3.270817e+003;1.135843e-001
3.272746e+003;1.157212e-001
3.274675e+003;1.176581e-001
3.276603e+003;1.194225e-001
3.278531e+003;1.212963e-001
3.280460e+003;1.230569e-001
3.282389e+003;1.248846e-001
3.284317e+003;1.265959e-001
3.286246e+003;1.284564e-001
3.288174e+003;1.301214e-001
3.290103e+003;1.307592e-001
3.292031e+003;1.311713e-001
3.293960e+003;1.315449e-001
3.295888e+003;1.311531e-001
3.297817e+003;1.297839e-001
3.299746e+003;1.280945e-001
3.301674e+003;1.262362e-001
3.303603e+003;1.245743e-001
3.305531e+003;1.223989e-001
3.307460e+003;1.191731e-001
3.309388e+003;1.163428e-001
3.311317e+003;1.138675e-001
3.313245e+003;1.113891e-001
3.315174e+003;1.087923e-001
3.317103e+003;1.062259e-001
3.319031e+003;1.039136e-001
3.320960e+003;1.013080e-001
3.322888e+003;9.866942e-002
3.324817e+003;9.627803e-002
3.326745e+003;9.386172e-002
3.328674e+003;9.156419e-002
3.330602e+003;8.926753e-002
3.332531e+003;8.698744e-002
3.334459e+003;8.465623e-002
3.336388e+003;8.278070e-002
3.338317e+003;8.122661e-002
3.340245e+003;7.923722e-002
3.342174e+003;7.737160e-002
3.344102e+003;7.584680e-002
3.346031e+003;7.475459e-002
3.347959e+003;7.326863e-002
3.349888e+003;7.162035e-002
3.351816e+003;7.035590e-002
3.353745e+003;6.885111e-002
3.355674e+003;6.715759e-002
3.357602e+003;6.595322e-002
3.359531e+003;6.495168e-002
3.361459e+003;6.415354e-002
3.363388e+003;6.341454e-002
3.365316e+003;6.211355e-002
3.367245e+003;6.089493e-002
3.369173e+003;5.991361e-002
3.371102e+003;5.918045e-002
3.373031e+003;5.871487e-002
3.374959e+003;5.807280e-002
3.376887e+003;5.756161e-002
3.378816e+003;5.700080e-002
3.380745e+003;5.654072e-002
3.382673e+003;5.611068e-002
3.384602e+003;5.569535e-002
3.386530e+003;5.531225e-002
3.388459e+003;5.446472e-002
3.390387e+003;5.381614e-002
3.392316e+003;5.359185e-002
3.394244e+003;5.332892e-002
3.396173e+003;5.321075e-002
3.398102e+003;5.290389e-002
3.400030e+003;5.239717e-002
3.401959e+003;5.185844e-002
3.403887e+003;5.151348e-002
3.405816e+003;5.131327e-002
3.407744e+003;5.086825e-002
3.409673e+003;5.042329e-002
3.411601e+003;5.045496e-002
3.413530e+003;5.044901e-002
3.415458e+003;5.011130e-002
3.417387e+003;4.971723e-002
3.419316e+003;4.974379e-002
3.421244e+003;4.973260e-002
3.423173e+003;4.915339e-002
3.425101e+003;4.876333e-002
3.427030e+003;4.904743e-002
3.428958e+003;4.893927e-002
3.430887e+003;4.856342e-002
3.432815e+003;4.841726e-002
3.434744e+003;4.826079e-002
3.436673e+003;4.821388e-002
3.438601e+003;4.860807e-002
3.440530e+003;4.834541e-002
3.442458e+003;4.806469e-002
3.444387e+003;4.804175e-002
3.446315e+003;4.825205e-002
3.448244e+003;4.837452e-002
3.450172e+003;4.765646e-002
3.452101e+003;4.714917e-002
3.454030e+003;4.748721e-002
3.455958e+003;4.736559e-002
3.457886e+003;4.687990e-002
3.459815e+003;4.664293e-002
3.461744e+003;4.642554e-002
3.463672e+003;4.584888e-002
3.465601e+003;4.538383e-002
3.467529e+003;4.538195e-002
3.469458e+003;4.533531e-002
3.471386e+003;4.501008e-002
3.473315e+003;4.439741e-002
3.475243e+003;4.431110e-002
3.477172e+003;4.461807e-002
3.479101e+003;4.464359e-002
3.481029e+003;4.457056e-002
3.482958e+003;4.459747e-002
3.484886e+003;4.461176e-002
3.486815e+003;4.447841e-002
3.488743e+003;4.424557e-002
3.490672e+003;4.433737e-002
3.492600e+003;4.444615e-002
3.494529e+003;4.421607e-002
3.496458e+003;4.372213e-002
3.498386e+003;4.322718e-002
3.500315e+003;4.334194e-002
3.502243e+003;4.371231e-002
3.504172e+003;4.373877e-002
3.506100e+003;4.343941e-002
3.508029e+003;4.278690e-002
3.509957e+003;4.221771e-002
3.511886e+003;4.218590e-002
3.513814e+003;4.264147e-002
3.515743e+003;4.266760e-002
3.517672e+003;4.218784e-002
3.519600e+003;4.182263e-002
3.521529e+003;4.171479e-002
3.523457e+003;4.130520e-002
3.525386e+003;4.114966e-002
3.527314e+003;4.127568e-002
3.529243e+003;4.097994e-002
3.531171e+003;4.048472e-002
3.533100e+003;4.039024e-002
3.535029e+003;4.033941e-002
3.536957e+003;4.011651e-002
3.538885e+003;3.979059e-002
3.540814e+003;3.947717e-002
3.542743e+003;3.937816e-002
3.544671e+003;3.911677e-002
3.546600e+003;3.892682e-002
3.548528e+003;3.891360e-002
3.550457e+003;3.858879e-002
3.552385e+003;3.824092e-002
3.554314e+003;3.824943e-002
3.556242e+003;3.806171e-002
3.558171e+003;3.751868e-002
3.560100e+003;3.675317e-002
3.562028e+003;3.620191e-002
3.563957e+003;3.604963e-002
3.565885e+003;3.618289e-002
3.567814e+003;3.626534e-002
3.569742e+003;3.618466e-002
3.571671e+003;3.573307e-002
3.573599e+003;3.533982e-002
3.575528e+003;3.517646e-002
3.577457e+003;3.505740e-002
3.579385e+003;3.458194e-002
3.581314e+003;3.429385e-002
3.583242e+003;3.378645e-002
3.585171e+003;3.294584e-002
3.587099e+003;3.241034e-002
3.589028e+003;3.258292e-002
3.590956e+003;3.265372e-002
3.592885e+003;3.245590e-002
3.594813e+003;3.228048e-002
3.596742e+003;3.221257e-002
3.598671e+003;3.207078e-002
3.600599e+003;3.162573e-002
3.602528e+003;3.154751e-002
3.604456e+003;3.158339e-002
3.606385e+003;3.113187e-002
3.608313e+003;3.035880e-002
3.610242e+003;3.014555e-002
3.612170e+003;3.012619e-002
3.614099e+003;2.997936e-002
3.616028e+003;3.026021e-002
3.617956e+003;3.016956e-002
3.619885e+003;2.959657e-002
3.621813e+003;2.911706e-002
3.623742e+003;2.885371e-002
3.625670e+003;2.869180e-002
3.627599e+003;2.831895e-002
3.629527e+003;2.798550e-002
3.631456e+003;2.787402e-002
3.633385e+003;2.755426e-002
3.635313e+003;2.755065e-002
3.637241e+003;2.726397e-002
3.639170e+003;2.704159e-002
3.641099e+003;2.713215e-002
3.643027e+003;2.726147e-002
3.644956e+003;2.680331e-002
3.646884e+003;2.625471e-002
3.648813e+003;2.587842e-002
3.650741e+003;2.561965e-002
3.652670e+003;2.563238e-002
3.654598e+003;2.561660e-002
3.656527e+003;2.552227e-002
3.658456e+003;2.552969e-002
3.660384e+003;2.556370e-002
3.662313e+003;2.530583e-002
3.664241e+003;2.535033e-002
3.666170e+003;2.552283e-002
3.668098e+003;2.519953e-002
3.670027e+003;2.491591e-002
3.671955e+003;2.468931e-002
3.673884e+003;2.461967e-002
3.675813e+003;2.483808e-002
3.677741e+003;2.450803e-002
3.679669e+003;2.410758e-002
3.681598e+003;2.412372e-002
3.683527e+003;2.387132e-002
3.685455e+003;2.358094e-002
3.687384e+003;2.312965e-002
3.689312e+003;2.303985e-002
3.691241e+003;2.344659e-002
3.693169e+003;2.352000e-002
3.695098e+003;2.325747e-002
3.697026e+003;2.308195e-002
3.698955e+003;2.282611e-002
3.700884e+003;2.267391e-002
3.702812e+003;2.256643e-002
3.704741e+003;2.244091e-002
3.706669e+003;2.253090e-002
3.708598e+003;2.246596e-002
3.710526e+003;2.240407e-002
3.712455e+003;2.262612e-002
3.714383e+003;2.258497e-002
3.716312e+003;2.244489e-002
3.718240e+003;2.242043e-002
3.720169e+003;2.245864e-002
3.722098e+003;2.273148e-002
3.724026e+003;2.238463e-002
3.725955e+003;2.223172e-002
3.727883e+003;2.230800e-002
3.729812e+003;2.180712e-002
3.731740e+003;2.187294e-002
3.733669e+003;2.225592e-002
3.735597e+003;2.216769e-002
3.737526e+003;2.232931e-002
3.739455e+003;2.240756e-002
3.741383e+003;2.215556e-002
3.743312e+003;2.190092e-002
3.745240e+003;2.194309e-002
3.747169e+003;2.227238e-002
3.749097e+003;2.244949e-002
3.751026e+003;2.253118e-002
3.752954e+003;2.254636e-002
3.754883e+003;2.292411e-002
3.756812e+003;2.312357e-002
3.758740e+003;2.276981e-002
3.760668e+003;2.261729e-002
3.762597e+003;2.291422e-002
3.764526e+003;2.299548e-002
3.766454e+003;2.282806e-002
3.768383e+003;2.274754e-002
3.770311e+003;2.274227e-002
3.772240e+003;2.281193e-002
3.774168e+003;2.283812e-002
3.776097e+003;2.282579e-002
3.778025e+003;2.246956e-002
3.779954e+003;2.245389e-002
3.781883e+003;2.292771e-002
3.783811e+003;2.301790e-002
3.785740e+003;2.301511e-002
3.787668e+003;2.301277e-002
3.789597e+003;2.286959e-002
3.791525e+003;2.273350e-002
3.793454e+003;2.251227e-002
3.795382e+003;2.226307e-002
3.797311e+003;2.233639e-002
3.799240e+003;2.221351e-002
3.801168e+003;2.204926e-002
3.803097e+003;2.209514e-002
3.805025e+003;2.197543e-002
3.806954e+003;2.193880e-002
3.808882e+003;2.238997e-002
3.810811e+003;2.294206e-002
3.812739e+003;2.327708e-002
3.814668e+003;2.329470e-002
3.816596e+003;2.351906e-002
3.818525e+003;2.355033e-002
3.820454e+003;2.316250e-002
3.822382e+003;2.335046e-002
3.824311e+003;2.355001e-002
3.826239e+003;2.351066e-002
3.828168e+003;2.301542e-002
3.830096e+003;2.273951e-002
3.832025e+003;2.305770e-002
3.833953e+003;2.354155e-002
3.835882e+003;2.330274e-002
3.837811e+003;2.306818e-002
3.839739e+003;2.351182e-002
3.841667e+003;2.375424e-002
3.843596e+003;2.353207e-002
3.845525e+003;2.350335e-002
3.847453e+003;2.386268e-002
3.849382e+003;2.409455e-002
3.851310e+003;2.378858e-002
3.853239e+003;2.343449e-002
3.855167e+003;2.331553e-002
3.857096e+003;2.374168e-002
3.859024e+003;2.401333e-002
3.860953e+003;2.412694e-002
3.862882e+003;2.423169e-002
3.864810e+003;2.396501e-002
3.866739e+003;2.349115e-002
3.868667e+003;2.303873e-002
3.870596e+003;2.332686e-002
3.872524e+003;2.368793e-002
3.874453e+003;2.395675e-002
3.876381e+003;2.436926e-002
3.878310e+003;2.423228e-002
3.880239e+003;2.373367e-002
3.882167e+003;2.331571e-002
3.884096e+003;2.348181e-002
3.886024e+003;2.389306e-002
3.887953e+003;2.396830e-002
3.889881e+003;2.360952e-002
3.891810e+003;2.373314e-002
3.893738e+003;2.443476e-002
3.895667e+003;2.467108e-002
3.897595e+003;2.457282e-002
3.899524e+003;2.423298e-002
3.901453e+003;2.418166e-002
3.903381e+003;2.457829e-002
3.905310e+003;2.450617e-002
3.907238e+003;2.439463e-002
3.909167e+003;2.448384e-002
3.911095e+003;2.482745e-002
3.913024e+003;2.467900e-002
3.914952e+003;2.452072e-002
3.916881e+003;2.481868e-002
3.918810e+003;2.523840e-002
3.920738e+003;2.551138e-002
3.922667e+003;2.537443e-002
3.924595e+003;2.548664e-002
3.926524e+003;2.585721e-002
3.928452e+003;2.567329e-002
3.930381e+003;2.579416e-002
3.932309e+003;2.598510e-002
3.934238e+003;2.594071e-002
3.936167e+003;2.595182e-002
3.938095e+003;2.611133e-002
3.940023e+003;2.602696e-002
3.941952e+003;2.527029e-002
3.943881e+003;2.540773e-002
3.945809e+003;2.639936e-002
3.947738e+003;2.692464e-002
3.949666e+003;2.686904e-002
3.951595e+003;2.691536e-002
3.953523e+003;2.693511e-002
3.955452e+003;2.687705e-002
3.957380e+003;2.690570e-002
3.959309e+003;2.676162e-002
3.961238e+003;2.684131e-002
3.963166e+003;2.690525e-002
3.965095e+003;2.680966e-002
3.967023e+003;2.686319e-002
3.968952e+003;2.692425e-002
3.970880e+003;2.681110e-002
3.972809e+003;2.699684e-002
3.974737e+003;2.727929e-002
3.976666e+003;2.747973e-002
3.978594e+003;2.770549e-002
3.980523e+003;2.768370e-002
3.982452e+003;2.763391e-002
3.984380e+003;2.764758e-002
3.986309e+003;2.754158e-002
3.988237e+003;2.763603e-002
3.990166e+003;2.832291e-002
3.992094e+003;2.887226e-002
3.994023e+003;2.874342e-002
3.995951e+003;2.871481e-002
3.997880e+003;2.894709e-002
3.999809e+003;2.879061e-002
4.001737e+003;0.000000e+000
