3.992094e+002;0.000000e+000
4.011380e+002;0.000000e+000
4.030665e+002;0.000000e+000
4.049951e+002;0.000000e+000
4.069236e+002;0.000000e+000
4.088522e+002;0.000000e+000
4.107807e+002;0.000000e+000
4.127093e+002;0.000000e+000
4.146378e+002;0.000000e+000
4.165664e+002;0.000000e+000
4.184949e+002;0.000000e+000
4.204235e+002;0.000000e+000
4.223520e+002;0.000000e+000
4.242806e+002;0.000000e+000
4.262091e+002;0.000000e+000
4.281377e+002;0.000000e+000
4.300662e+002;0.000000e+000
4.319948e+002;0.000000e+000
4.339233e+002;0.000000e+000
4.358519e+002;0.000000e+000
4.377804e+002;0.000000e+000
4.397090e+002;0.000000e+000
4.416375e+002;0.000000e+000
4.435660e+002;0.000000e+000
4.454946e+002;0.000000e+000
4.474232e+002;0.000000e+000
4.493517e+002;0.000000e+000
4.512802e+002;0.000000e+000
4.532088e+002;0.000000e+000
4.551373e+002;0.000000e+000
4.570659e+002;0.000000e+000
4.589944e+002;0.000000e+000
4.609230e+002;0.000000e+000
4.628515e+002;0.000000e+000
4.647801e+002;0.000000e+000
4.667086e+002;0.000000e+000
4.686372e+002;0.000000e+000
4.705657e+002;0.000000e+000
4.724943e+002;0.000000e+000
4.744228e+002;0.000000e+000
4.763513e+002;0.000000e+000
4.782799e+002;0.000000e+000
4.802085e+002;0.000000e+000
4.821370e+002;0.000000e+000
4.840656e+002;0.000000e+000
4.859941e+002;0.000000e+000
4.879226e+002;0.000000e+000
4.898512e+002;0.000000e+000
4.917798e+002;0.000000e+000
4.937083e+002;0.000000e+000
4.956368e+002;0.000000e+000
4.975654e+002;0.000000e+000
4.994939e+002;0.000000e+000
5.014225e+002;0.000000e+000
5.033510e+002;0.000000e+000
5.052796e+002;0.000000e+000
5.072081e+002;0.000000e+000
5.091367e+002;0.000000e+000
5.110652e+002;0.000000e+000
5.129938e+002;0.000000e+000
5.149223e+002;0.000000e+000
5.168509e+002;0.000000e+000
5.187794e+002;0.000000e+000
5.207079e+002;0.000000e+000
5.226365e+002;0.000000e+000
5.245651e+002;0.000000e+000
5.264936e+002;0.000000e+000
5.284222e+002;0.000000e+000
5.303507e+002;0.000000e+000
5.322792e+002;0.000000e+000
5.342078e+002;0.000000e+000
5.361364e+002;0.000000e+000
5.380649e+002;0.000000e+000
5.399935e+002;0.000000e+000
5.419220e+002;0.000000e+000
5.438505e+002;0.000000e+000
5.457791e+002;0.000000e+000
5.477076e+002;0.000000e+000
5.496362e+002;0.000000e+000
5.515648e+002;0.000000e+000
5.534933e+002;0.000000e+000
5.554218e+002;0.000000e+000
5.573504e+002;0.000000e+000
5.592789e+002;0.000000e+000
5.612075e+002;0.000000e+000
5.631360e+002;0.000000e+000
5.650646e+002;0.000000e+000
5.669931e+002;0.000000e+000
5.689217e+002;0.000000e+000
5.708502e+002;0.000000e+000
5.727787e+002;0.000000e+000
5.747073e+002;0.000000e+000
5.766359e+002;0.000000e+000
5.785644e+002;0.000000e+000
5.804930e+002;0.000000e+000
5.824215e+002;0.000000e+000
5.843500e+002;0.000000e+000
5.862786e+002;0.000000e+000
5.882072e+002;0.000000e+000
5.901357e+002;0.000000e+000
5.920643e+002;0.000000e+000
5.939928e+002;0.000000e+000
5.959213e+002;0.000000e+000
5.978499e+002;0.000000e+000
5.997784e+002;6.722675e-002
6.017070e+002;6.831621e-002
6.036355e+002;6.786770e-002
6.055641e+002;6.226553e-002
6.074926e+002;5.932211e-002
6.094211e+002;6.322919e-002
6.113497e+002;6.972539e-002
6.132783e+002;6.767599e-002
6.152068e+002;6.420494e-002
6.171354e+002;6.379550e-002
6.190639e+002;6.631494e-002
6.209924e+002;6.687044e-002
6.229210e+002;6.479429e-002
6.248495e+002;6.848090e-002
6.267781e+002;7.332433e-002
6.287067e+002;7.631288e-002
6.306352e+002;7.692879e-002
6.325637e+002;7.104605e-002
6.344923e+002;6.785124e-002
6.364208e+002;7.375865e-002
6.383494e+002;7.805139e-002
6.402780e+002;7.560859e-002
6.422065e+002;7.481600e-002
6.441350e+002;7.904945e-002
6.460636e+002;8.007028e-002
6.479921e+002;8.034448e-002
6.499207e+002;8.046582e-002
6.518492e+002;7.697250e-002
6.537778e+002;7.544342e-002
6.557063e+002;7.911670e-002
6.576349e+002;8.194604e-002
6.595634e+002;8.450732e-002
6.614919e+002;8.814864e-002
6.634205e+002;8.983111e-002
6.653491e+002;9.265010e-002
6.672776e+002;9.525403e-002
6.692062e+002;9.459565e-002
6.711347e+002;9.305710e-002
6.730632e+002;9.301338e-002
6.749918e+002;9.373741e-002
6.769203e+002;9.473104e-002
6.788489e+002;9.536131e-002
6.807775e+002;9.599441e-002
6.827060e+002;9.661625e-002
6.846345e+002;9.780169e-002
6.865631e+002;9.754474e-002
6.884916e+002;9.645714e-002
6.904202e+002;9.534832e-002
6.923488e+002;9.345926e-002
6.942773e+002;9.071241e-002
6.962058e+002;8.790038e-002
6.981344e+002;8.550484e-002
7.000629e+002;8.320881e-002
7.019915e+002;8.076349e-002
7.039200e+002;7.879779e-002
7.058486e+002;7.673126e-002
7.077771e+002;7.540259e-002
7.097057e+002;7.488547e-002
7.116342e+002;7.395786e-002
7.135627e+002;7.302991e-002
7.154913e+002;7.248848e-002
7.174199e+002;7.060213e-002
7.193484e+002;6.864720e-002
7.212770e+002;6.780422e-002
7.232055e+002;6.773090e-002
7.251340e+002;6.987776e-002
7.270626e+002;7.261527e-002
7.289911e+002;7.314333e-002
7.309197e+002;7.060602e-002
7.328483e+002;6.597956e-002
7.347768e+002;6.148885e-002
7.367053e+002;5.776265e-002
7.386339e+002;5.510241e-002
7.405624e+002;5.367957e-002
7.424910e+002;5.280050e-002
7.444196e+002;5.173144e-002
7.463481e+002;4.997496e-002
7.482766e+002;4.773734e-002
7.502052e+002;4.654610e-002
7.521337e+002;4.562325e-002
7.540623e+002;4.391785e-002
7.559908e+002;4.284083e-002
7.579194e+002;4.183368e-002
7.598479e+002;4.080203e-002
7.617765e+002;4.043155e-002
7.637050e+002;3.999787e-002
7.656335e+002;3.871642e-002
7.675621e+002;3.798373e-002
7.694907e+002;3.785393e-002
7.714192e+002;3.677679e-002
7.733478e+002;3.605903e-002
7.752763e+002;3.561660e-002
7.772048e+002;3.482413e-002
7.791334e+002;3.430629e-002
7.810620e+002;3.384143e-002
7.829905e+002;3.371479e-002
7.849191e+002;3.318039e-002
7.868476e+002;3.223826e-002
7.887761e+002;3.189598e-002
7.907047e+002;3.188407e-002
7.926332e+002;3.177778e-002
7.945618e+002;3.101121e-002
7.964903e+002;2.980001e-002
7.984189e+002;2.881652e-002
8.003474e+002;2.829303e-002
8.022759e+002;2.807612e-002
8.042045e+002;2.731393e-002
8.061331e+002;2.609630e-002
8.080616e+002;2.576906e-002
8.099902e+002;2.580956e-002
8.119187e+002;2.534478e-002
8.138472e+002;2.491878e-002
8.157758e+002;2.554799e-002
8.177043e+002;2.642369e-002
8.196329e+002;2.710891e-002
8.215615e+002;2.796978e-002
8.234900e+002;2.867680e-002
8.254185e+002;2.962946e-002
8.273471e+002;3.118986e-002
8.292756e+002;3.205052e-002
8.312042e+002;3.233259e-002
8.331328e+002;3.197911e-002
8.350613e+002;3.044874e-002
8.369898e+002;2.828309e-002
8.389184e+002;2.589445e-002
8.408469e+002;2.445544e-002
8.427755e+002;2.380832e-002
8.447040e+002;2.267090e-002
8.466326e+002;2.146335e-002
8.485611e+002;2.095298e-002
8.504897e+002;2.098675e-002
8.524182e+002;2.066524e-002
8.543467e+002;2.033278e-002
8.562753e+002;1.982117e-002
8.582039e+002;1.957275e-002
8.601324e+002;2.041251e-002
8.620610e+002;2.107481e-002
8.639895e+002;2.112552e-002
8.659180e+002;2.127091e-002
8.678466e+002;2.168380e-002
8.697751e+002;2.183667e-002
8.717037e+002;2.166385e-002
8.736323e+002;2.179029e-002
8.755608e+002;2.224085e-002
8.774893e+002;2.248561e-002
8.794179e+002;2.301612e-002
8.813464e+002;2.366585e-002
8.832750e+002;2.395633e-002
8.852036e+002;2.396007e-002
8.871321e+002;2.367729e-002
8.890606e+002;2.313482e-002
8.909892e+002;2.277683e-002
8.929177e+002;2.293626e-002
8.948463e+002;2.328386e-002
8.967748e+002;2.337704e-002
8.987034e+002;2.303251e-002
9.006319e+002;2.303670e-002
9.025605e+002;2.335389e-002
9.044890e+002;2.340917e-002
9.064175e+002;2.374826e-002
9.083461e+002;2.442488e-002
9.102747e+002;2.483727e-002
9.122032e+002;2.483370e-002
9.141318e+002;2.484534e-002
9.160603e+002;2.520578e-002
9.179888e+002;2.511147e-002
9.199174e+002;2.511063e-002
9.218459e+002;2.605412e-002
9.237745e+002;2.721525e-002
9.257031e+002;2.804678e-002
9.276316e+002;2.869184e-002
9.295601e+002;2.878491e-002
9.314887e+002;2.820664e-002
9.334172e+002;2.716837e-002
9.353458e+002;2.634563e-002
9.372744e+002;2.607259e-002
9.392029e+002;2.624559e-002
9.411314e+002;2.656351e-002
9.430600e+002;2.707371e-002
9.449885e+002;2.782099e-002
9.469171e+002;2.921465e-002
9.488456e+002;3.067409e-002
9.507742e+002;3.126207e-002
9.527027e+002;3.135583e-002
9.546313e+002;3.183461e-002
9.565598e+002;3.288511e-002
9.584883e+002;3.347788e-002
9.604169e+002;3.356339e-002
9.623455e+002;3.313447e-002
9.642740e+002;3.187362e-002
9.662026e+002;3.105769e-002
9.681311e+002;3.081649e-002
9.700596e+002;3.022241e-002
9.719882e+002;2.965915e-002
9.739167e+002;2.964584e-002
9.758453e+002;2.968285e-002
9.777739e+002;2.948276e-002
9.797024e+002;2.910884e-002
9.816309e+002;2.934835e-002
9.835595e+002;2.965677e-002
9.854880e+002;2.979742e-002
9.874166e+002;3.014292e-002
9.893452e+002;3.055189e-002
9.912737e+002;3.024624e-002
9.932022e+002;2.838916e-002
9.951307e+002;2.648180e-002
9.970593e+002;2.565642e-002
9.989879e+002;2.525438e-002
1.000916e+003;2.485738e-002
1.002845e+003;2.465179e-002
1.004773e+003;2.464930e-002
1.006702e+003;2.493275e-002
1.008631e+003;2.513563e-002
1.010559e+003;2.485699e-002
1.012488e+003;2.519275e-002
1.014416e+003;2.584244e-002
1.016345e+003;2.624890e-002
1.018273e+003;2.641190e-002
1.020202e+003;2.650353e-002
1.022130e+003;2.745157e-002
1.024059e+003;2.866451e-002
1.025988e+003;2.980008e-002
1.027916e+003;3.126666e-002
1.029845e+003;3.282975e-002
1.031773e+003;3.423956e-002
1.033702e+003;3.513360e-002
1.035630e+003;3.547632e-002
1.037559e+003;3.674805e-002
1.039487e+003;3.979563e-002
1.041416e+003;4.331177e-002
1.043344e+003;4.522730e-002
1.045273e+003;4.493254e-002
1.047202e+003;4.268211e-002
1.049130e+003;3.900736e-002
1.051059e+003;3.511563e-002
1.052987e+003;3.236272e-002
1.054916e+003;3.082233e-002
1.056844e+003;2.993758e-002
1.058773e+003;2.957894e-002
1.060701e+003;2.967117e-002
1.062630e+003;3.014061e-002
1.064558e+003;3.092792e-002
1.066487e+003;3.135889e-002
1.068416e+003;3.099011e-002
1.070344e+003;3.098111e-002
1.072273e+003;3.158953e-002
1.074201e+003;3.206318e-002
1.076130e+003;3.161828e-002
1.078058e+003;3.114579e-002
1.079987e+003;3.092301e-002
1.081915e+003;3.079956e-002
1.083844e+003;3.079373e-002
1.085773e+003;3.070915e-002
1.087701e+003;3.081383e-002
1.089630e+003;3.108392e-002
1.091558e+003;3.103257e-002
1.093487e+003;3.110311e-002
1.095415e+003;3.183408e-002
1.097344e+003;3.238064e-002
1.099272e+003;3.274367e-002
1.101201e+003;3.348160e-002
1.103129e+003;3.451844e-002
1.105058e+003;3.550800e-002
1.106987e+003;3.614274e-002
1.108915e+003;3.606727e-002
1.110844e+003;3.631022e-002
1.112772e+003;3.636029e-002
1.114701e+003;3.619442e-002
1.116629e+003;3.662002e-002
1.118558e+003;3.702078e-002
1.120486e+003;3.676193e-002
1.122415e+003;3.614314e-002
1.124344e+003;3.491253e-002
1.126272e+003;3.293887e-002
1.128201e+003;3.146735e-002
1.130129e+003;3.019534e-002
1.132058e+003;2.932261e-002
1.133986e+003;2.948922e-002
1.135915e+003;3.000528e-002
1.137843e+003;3.102609e-002
1.139772e+003;3.241038e-002
1.141700e+003;3.355730e-002
1.143629e+003;3.445667e-002
1.145557e+003;3.502906e-002
1.147486e+003;3.589122e-002
1.149415e+003;3.771022e-002
1.151343e+003;3.938232e-002
1.153272e+003;4.020195e-002
1.155200e+003;4.053503e-002
1.157129e+003;4.184952e-002
1.159057e+003;4.365566e-002
1.160986e+003;4.608476e-002
1.162914e+003;4.897514e-002
1.164843e+003;5.175171e-002
1.166771e+003;5.445097e-002
1.168700e+003;5.625967e-002
1.170629e+003;5.612339e-002
1.172557e+003;5.461510e-002
1.174486e+003;5.289921e-002
1.176414e+003;5.122948e-002
1.178343e+003;4.969226e-002
1.180271e+003;4.857046e-002
1.182200e+003;4.849472e-002
1.184128e+003;4.944216e-002
1.186057e+003;5.074534e-002
1.187986e+003;5.224277e-002
1.189914e+003;5.445281e-002
1.191843e+003;5.638295e-002
1.193771e+003;5.841813e-002
1.195700e+003;6.131893e-002
1.197628e+003;6.394622e-002
1.199557e+003;6.546918e-002
1.201485e+003;6.497307e-002
1.203414e+003;6.231437e-002
1.205343e+003;5.938121e-002
1.207271e+003;5.766054e-002
1.209200e+003;5.703114e-002
1.211128e+003;5.706995e-002
1.213057e+003;5.680857e-002
1.214985e+003;5.577566e-002
1.216914e+003;5.400949e-002
1.218842e+003;5.183634e-002
1.220771e+003;5.062779e-002
1.222699e+003;5.044644e-002
1.224628e+003;5.088830e-002
1.226557e+003;5.202970e-002
1.228485e+003;5.303475e-002
1.230414e+003;5.424354e-002
1.232342e+003;5.598703e-002
1.234271e+003;5.749863e-002
1.236199e+003;5.835006e-002
1.238128e+003;5.867004e-002
1.240056e+003;5.841627e-002
1.241985e+003;5.780341e-002
1.243913e+003;5.753301e-002
1.245842e+003;5.751326e-002
1.247771e+003;5.800505e-002
1.249699e+003;5.911978e-002
1.251628e+003;6.053822e-002
1.253556e+003;6.255275e-002
1.255485e+003;6.466015e-002
1.257413e+003;6.611527e-002
1.259342e+003;6.740367e-002
1.261270e+003;6.862543e-002
1.263199e+003;6.885099e-002
1.265127e+003;6.766581e-002
1.267056e+003;6.476440e-002
1.268985e+003;6.139491e-002
1.270913e+003;5.913204e-002
1.272842e+003;5.800138e-002
1.274770e+003;5.774637e-002
1.276699e+003;5.771416e-002
1.278627e+003;5.743478e-002
1.280556e+003;5.722588e-002
1.282484e+003;5.672988e-002
1.284413e+003;5.594052e-002
1.286342e+003;5.546560e-002
1.288270e+003;5.551066e-002
1.290199e+003;5.600230e-002
1.292127e+003;5.648750e-002
1.294056e+003;5.629747e-002
1.295984e+003;5.608241e-002
1.297913e+003;5.568540e-002
1.299841e+003;5.493964e-002
1.301770e+003;5.410203e-002
1.303698e+003;5.317472e-002
1.305627e+003;5.233258e-002
1.307556e+003;5.165590e-002
1.309484e+003;5.128876e-002
1.311413e+003;5.166053e-002
1.313341e+003;5.225439e-002
1.315270e+003;5.301042e-002
1.317198e+003;5.421043e-002
1.319127e+003;5.556029e-002
1.321055e+003;5.688959e-002
1.322984e+003;5.809253e-002
1.324912e+003;5.886006e-002
1.326841e+003;5.963965e-002
1.328770e+003;6.022257e-002
1.330698e+003;5.995294e-002
1.332627e+003;5.910835e-002
1.334555e+003;5.779228e-002
1.336484e+003;5.617328e-002
1.338412e+003;5.469950e-002
1.340341e+003;5.364838e-002
1.342269e+003;5.305403e-002
1.344198e+003;5.273371e-002
1.346126e+003;5.240031e-002
1.348055e+003;5.214487e-002
1.349984e+003;5.225166e-002
1.351912e+003;5.240121e-002
1.353841e+003;5.273580e-002
1.355769e+003;5.331079e-002
1.357698e+003;5.392710e-002
1.359626e+003;5.468811e-002
1.361555e+003;5.532628e-002
1.363483e+003;5.610326e-002
1.365412e+003;5.709647e-002
1.367341e+003;5.812106e-002
1.369269e+003;5.916747e-002
1.371198e+003;5.986710e-002
1.373126e+003;6.001552e-002
1.375055e+003;5.945617e-002
1.376983e+003;5.834778e-002
1.378912e+003;5.695543e-002
1.380840e+003;5.511829e-002
1.382769e+003;5.323869e-002
1.384698e+003;5.159444e-002
1.386626e+003;4.999228e-002
1.388555e+003;4.866596e-002
1.390483e+003;4.779570e-002
1.392412e+003;4.724636e-002
1.394340e+003;4.678228e-002
1.396269e+003;4.648960e-002
1.398197e+003;4.686956e-002
1.400126e+003;4.819418e-002
1.402054e+003;4.961481e-002
1.403983e+003;5.137300e-002
1.405911e+003;5.416812e-002
1.407840e+003;5.775780e-002
1.409769e+003;6.188218e-002
1.411697e+003;6.628746e-002
1.413626e+003;6.999344e-002
1.415554e+003;7.189783e-002
1.417483e+003;7.167768e-002
1.419411e+003;6.967539e-002
1.421340e+003;6.670327e-002
1.423268e+003;6.340308e-002
1.425197e+003;6.098773e-002
1.427125e+003;6.030578e-002
1.429054e+003;6.114676e-002
1.430983e+003;6.267710e-002
1.432911e+003;6.413454e-002
1.434840e+003;6.484995e-002
1.436768e+003;6.472363e-002
1.438697e+003;6.426779e-002
1.440625e+003;6.348149e-002
1.442554e+003;6.243708e-002
1.444482e+003;6.165761e-002
1.446411e+003;6.164650e-002
1.448340e+003;6.240801e-002
1.450268e+003;6.376476e-002
1.452197e+003;6.557834e-002
1.454125e+003;6.795410e-002
1.456054e+003;7.085641e-002
1.457982e+003;7.401659e-002
1.459911e+003;7.694386e-002
1.461839e+003;7.824635e-002
1.463768e+003;7.628784e-002
1.465697e+003;7.129908e-002
1.467625e+003;6.596506e-002
1.469554e+003;6.245729e-002
1.471482e+003;6.158559e-002
1.473411e+003;6.301443e-002
1.475339e+003;6.447300e-002
1.477268e+003;6.423882e-002
1.479196e+003;6.217140e-002
1.481125e+003;5.839804e-002
1.483053e+003;5.383655e-002
1.484982e+003;4.993797e-002
1.486911e+003;4.745894e-002
1.488839e+003;4.660865e-002
1.490768e+003;4.726391e-002
1.492696e+003;4.861463e-002
1.494625e+003;5.027320e-002
1.496553e+003;5.222644e-002
1.498482e+003;5.445946e-002
1.500410e+003;5.642758e-002
1.502339e+003;5.833065e-002
1.504267e+003;6.025645e-002
1.506196e+003;6.261215e-002
1.508125e+003;6.560963e-002
1.510053e+003;6.890360e-002
1.511982e+003;7.244831e-002
1.513910e+003;7.588121e-002
1.515839e+003;7.936843e-002
1.517767e+003;8.297644e-002
1.519696e+003;8.675509e-002
1.521624e+003;9.077264e-002
1.523553e+003;9.548841e-002
1.525481e+003;1.005821e-001
1.527410e+003;1.060732e-001
1.529339e+003;1.117052e-001
1.531267e+003;1.169467e-001
1.533196e+003;1.222230e-001
1.535124e+003;1.273768e-001
1.537053e+003;1.311098e-001
1.538981e+003;1.329208e-001
1.540910e+003;1.331202e-001
1.542838e+003;1.313336e-001
1.544767e+003;1.276030e-001
1.546695e+003;1.224359e-001
1.548624e+003;1.162262e-001
1.550553e+003;1.099210e-001
1.552481e+003;1.043090e-001
1.554410e+003;9.912145e-002
1.556338e+003;9.435385e-002
1.558267e+003;8.991098e-002
1.560195e+003;8.558546e-002
1.562124e+003;8.156846e-002
1.564052e+003;7.766351e-002
1.565981e+003;7.374381e-002
1.567910e+003;7.008645e-002
1.569838e+003;6.662559e-002
1.571767e+003;6.369170e-002
1.573695e+003;6.116499e-002
1.575624e+003;5.888715e-002
1.577552e+003;5.721451e-002
1.579481e+003;5.623161e-002
1.581409e+003;5.569904e-002
1.583338e+003;5.521395e-002
1.585266e+003;5.498262e-002
1.587195e+003;5.495032e-002
1.589124e+003;5.494219e-002
1.591052e+003;5.540446e-002
1.592981e+003;5.621823e-002
1.594909e+003;5.705377e-002
1.596838e+003;5.806712e-002
1.598766e+003;5.997211e-002
1.600695e+003;6.265517e-002
1.602623e+003;6.604861e-002
1.604552e+003;7.016309e-002
1.606480e+003;7.480852e-002
1.608409e+003;7.942762e-002
1.610338e+003;8.372562e-002
1.612266e+003;8.793141e-002
1.614195e+003;9.249276e-002
1.616123e+003;9.809152e-002
1.618052e+003;1.050669e-001
1.619980e+003;1.125389e-001
1.621909e+003;1.201289e-001
1.623837e+003;1.278189e-001
1.625766e+003;1.354894e-001
1.627694e+003;1.431935e-001
1.629623e+003;1.511240e-001
1.631552e+003;1.589330e-001
1.633480e+003;1.647339e-001
1.635409e+003;1.666148e-001
1.637337e+003;1.640926e-001
1.639266e+003;1.574196e-001
1.641194e+003;1.478883e-001
1.643123e+003;1.370447e-001
1.645051e+003;1.261627e-001
1.646980e+003;1.160863e-001
1.648909e+003;1.069001e-001
1.650837e+003;9.858149e-002
1.652766e+003;9.139551e-002
1.654694e+003;8.593335e-002
1.656623e+003;8.164603e-002
1.658551e+003;7.759640e-002
1.660480e+003;7.379889e-002
1.662408e+003;6.980845e-002
1.664337e+003;6.534180e-002
1.666266e+003;6.060401e-002
1.668194e+003;5.574511e-002
1.670123e+003;5.086024e-002
1.672051e+003;4.696082e-002
1.673980e+003;4.376310e-002
1.675908e+003;4.063220e-002
1.677837e+003;3.760669e-002
1.679765e+003;3.456626e-002
1.681694e+003;3.170924e-002
1.683622e+003;2.896193e-002
1.685551e+003;2.651219e-002
1.687479e+003;2.460178e-002
1.689408e+003;2.305005e-002
1.691337e+003;2.178036e-002
1.693265e+003;2.057851e-002
1.695194e+003;1.962849e-002
1.697122e+003;1.880855e-002
1.699051e+003;1.801975e-002
1.700979e+003;1.758066e-002
1.702908e+003;1.748861e-002
1.704836e+003;1.728379e-002
1.706765e+003;1.718378e-002
1.708693e+003;1.700646e-002
1.710622e+003;1.680300e-002
1.712551e+003;1.659282e-002
1.714479e+003;1.631597e-002
1.716408e+003;1.593733e-002
1.718336e+003;1.583745e-002
1.720265e+003;1.603035e-002
1.722193e+003;1.599645e-002
1.724122e+003;1.561503e-002
1.726050e+003;1.542129e-002
1.727979e+003;1.540354e-002
1.729908e+003;1.529685e-002
1.731836e+003;1.512325e-002
1.733765e+003;1.484116e-002
1.735693e+003;1.470301e-002
1.737622e+003;1.449614e-002
1.739550e+003;1.427615e-002
1.741479e+003;1.406056e-002
1.743407e+003;1.375042e-002
1.745336e+003;1.323619e-002
1.747265e+003;1.239607e-002
1.749193e+003;1.179865e-002
1.751122e+003;1.142842e-002
1.753050e+003;1.092100e-002
1.754979e+003;1.052137e-002
1.756907e+003;1.024347e-002
1.758836e+003;9.976121e-003
1.760764e+003;9.548396e-003
1.762693e+003;9.030214e-003
1.764621e+003;8.797964e-003
1.766550e+003;8.542622e-003
1.768479e+003;8.222356e-003
1.770407e+003;7.922404e-003
1.772336e+003;7.676277e-003
1.774264e+003;7.483818e-003
1.776193e+003;7.240399e-003
1.778121e+003;7.108518e-003
1.780050e+003;6.880761e-003
1.781978e+003;6.691750e-003
1.783907e+003;6.652988e-003
1.785835e+003;6.597847e-003
1.787764e+003;6.411985e-003
1.789693e+003;6.113481e-003
1.791621e+003;5.913618e-003
1.793550e+003;5.670742e-003
1.795478e+003;5.464741e-003
1.797407e+003;5.455011e-003
1.799335e+003;5.418004e-003
1.801264e+003;5.333197e-003
1.803192e+003;5.300360e-003
1.805121e+003;5.236703e-003
1.807049e+003;5.258670e-003
1.808978e+003;5.255786e-003
1.810907e+003;5.110761e-003
1.812835e+003;4.931902e-003
1.814764e+003;4.882976e-003
1.816692e+003;4.940849e-003
1.818621e+003;4.811776e-003
1.820549e+003;4.649215e-003
1.822478e+003;4.679559e-003
1.824406e+003;4.749029e-003
1.826335e+003;4.700158e-003
1.828264e+003;4.574538e-003
1.830192e+003;4.554648e-003
1.832121e+003;4.455415e-003
1.834049e+003;4.191673e-003
1.835978e+003;4.099781e-003
1.837906e+003;4.114899e-003
1.839835e+003;4.041484e-003
1.841763e+003;4.043791e-003
1.843692e+003;4.006503e-003
1.845620e+003;3.828934e-003
1.847549e+003;3.870519e-003
1.849478e+003;3.919465e-003
1.851406e+003;3.671085e-003
1.853335e+003;3.492683e-003
1.855263e+003;3.569080e-003
1.857192e+003;3.496124e-003
1.859120e+003;3.471775e-003
1.861049e+003;3.551875e-003
1.862977e+003;3.587588e-003
1.864906e+003;3.550706e-003
1.866834e+003;3.658521e-003
1.868763e+003;3.749618e-003
1.870692e+003;3.902046e-003
1.872620e+003;3.871088e-003
1.874549e+003;3.628449e-003
1.876477e+003;3.630019e-003
1.878406e+003;3.627680e-003
1.880334e+003;3.565839e-003
1.882263e+003;3.729699e-003
1.884191e+003;3.940964e-003
1.886120e+003;3.897599e-003
1.888048e+003;3.676164e-003
1.889977e+003;3.567342e-003
1.891906e+003;3.723784e-003
1.893834e+003;3.843408e-003
1.895763e+003;3.786216e-003
1.897691e+003;3.851631e-003
1.899620e+003;3.900541e-003
1.901548e+003;3.764824e-003
1.903477e+003;3.802460e-003
1.905405e+003;4.027639e-003
1.907334e+003;3.962430e-003
1.909262e+003;3.746710e-003
1.911191e+003;3.609337e-003
1.913120e+003;3.496525e-003
1.915048e+003;3.537143e-003
1.916977e+003;3.616554e-003
1.918905e+003;3.453872e-003
1.920834e+003;3.291118e-003
1.922762e+003;3.292320e-003
1.924691e+003;3.182594e-003
1.926619e+003;3.177487e-003
1.928548e+003;3.222348e-003
1.930477e+003;3.109636e-003
1.932405e+003;3.233865e-003
1.934334e+003;3.446792e-003
1.936262e+003;3.491180e-003
1.938191e+003;3.555516e-003
1.940119e+003;3.403911e-003
1.942048e+003;3.311685e-003
1.943976e+003;3.285543e-003
1.945905e+003;3.096020e-003
1.947833e+003;3.109603e-003
1.949762e+003;3.138337e-003
1.951691e+003;3.035957e-003
1.953619e+003;3.171078e-003
1.955548e+003;3.189903e-003
1.957476e+003;3.143543e-003
1.959405e+003;3.354924e-003
1.961333e+003;3.376261e-003
1.963262e+003;3.414664e-003
1.965190e+003;3.496525e-003
1.967119e+003;3.563668e-003
1.969047e+003;3.762986e-003
1.970976e+003;3.771676e-003
1.972905e+003;3.576363e-003
1.974833e+003;3.422446e-003
1.976762e+003;3.503372e-003
1.978690e+003;3.524483e-003
1.980619e+003;3.464794e-003
1.982547e+003;3.515765e-003
1.984476e+003;3.510821e-003
1.986404e+003;3.379033e-003
1.988333e+003;3.403611e-003
1.990261e+003;3.530730e-003
1.992190e+003;3.532266e-003
1.994119e+003;3.316826e-003
1.996047e+003;3.156526e-003
1.997976e+003;3.364607e-003
1.999904e+003;3.536809e-003
2.001833e+003;3.514629e-003
2.003761e+003;3.511789e-003
2.005690e+003;3.503639e-003
2.007618e+003;3.562699e-003
2.009547e+003;3.678068e-003
2.011476e+003;3.699188e-003
2.013404e+003;3.643317e-003
2.015333e+003;3.690199e-003
2.017261e+003;3.811518e-003
2.019190e+003;3.991656e-003
2.021118e+003;3.954906e-003
2.023047e+003;3.778996e-003
2.024975e+003;3.675262e-003
2.026904e+003;3.734144e-003
2.028833e+003;3.843408e-003
2.030761e+003;3.930632e-003
2.032690e+003;3.997775e-003
2.034618e+003;4.001755e-003
2.036547e+003;3.893052e-003
2.038475e+003;4.021351e-003
2.040404e+003;4.060280e-003
2.042332e+003;4.091151e-003
2.044261e+003;4.258321e-003
2.046189e+003;4.278732e-003
2.048118e+003;4.317751e-003
2.050047e+003;4.395564e-003
2.051975e+003;4.430007e-003
2.053904e+003;4.471215e-003
2.055832e+003;4.529503e-003
2.057761e+003;4.562818e-003
2.059689e+003;4.525519e-003
2.061618e+003;4.555753e-003
2.063546e+003;4.786884e-003
2.065475e+003;4.911727e-003
2.067404e+003;4.892526e-003
2.069332e+003;4.652230e-003
2.071260e+003;4.574337e-003
2.073189e+003;4.670348e-003
2.075118e+003;4.657789e-003
2.077046e+003;4.514202e-003
2.078975e+003;4.533320e-003
2.080903e+003;4.262102e-003
2.082832e+003;4.081284e-003
2.084760e+003;4.279502e-003
2.086689e+003;4.350916e-003
2.088617e+003;4.273646e-003
2.090546e+003;4.171500e-003
2.092475e+003;4.195219e-003
2.094403e+003;4.239048e-003
2.096332e+003;4.309552e-003
2.098260e+003;4.391849e-003
2.100189e+003;4.464487e-003
2.102117e+003;4.372804e-003
2.104046e+003;4.200806e-003
2.105974e+003;4.042019e-003
2.107903e+003;4.083525e-003
2.109832e+003;4.341144e-003
2.111760e+003;4.589774e-003
2.113688e+003;4.792579e-003
2.115617e+003;4.786716e-003
2.117546e+003;4.699354e-003
2.119474e+003;4.558164e-003
2.121403e+003;4.473124e-003
2.123331e+003;4.554648e-003
2.125260e+003;4.595265e-003
2.127188e+003;4.672324e-003
2.129117e+003;4.777604e-003
2.131045e+003;4.900736e-003
2.132974e+003;4.782562e-003
2.134903e+003;4.820654e-003
2.136831e+003;5.058295e-003
2.138760e+003;5.112303e-003
2.140688e+003;4.992630e-003
2.142617e+003;5.072308e-003
2.144545e+003;5.224396e-003
2.146474e+003;5.058429e-003
2.148402e+003;4.986363e-003
2.150331e+003;4.930829e-003
2.152260e+003;4.824239e-003
2.154188e+003;4.917592e-003
2.156117e+003;4.996485e-003
2.158045e+003;4.946748e-003
2.159974e+003;4.950367e-003
2.161902e+003;4.928483e-003
2.163831e+003;4.878854e-003
2.165759e+003;5.034495e-003
2.167688e+003;5.170241e-003
2.169616e+003;5.061815e-003
2.171545e+003;4.998999e-003
2.173474e+003;5.128966e-003
2.175402e+003;5.116025e-003
2.177331e+003;5.033758e-003
2.179259e+003;5.053904e-003
2.181188e+003;5.024272e-003
2.183116e+003;4.930293e-003
2.185045e+003;4.949395e-003
2.186973e+003;4.900502e-003
2.188902e+003;4.976978e-003
2.190831e+003;5.156660e-003
2.192759e+003;5.167524e-003
2.194688e+003;5.165379e-003
2.196616e+003;5.375934e-003
2.198545e+003;5.422264e-003
2.200473e+003;5.217689e-003
2.202402e+003;5.069224e-003
2.204330e+003;4.986161e-003
2.206259e+003;5.022562e-003
2.208188e+003;5.328770e-003
2.210116e+003;5.517826e-003
2.212044e+003;5.461721e-003
2.213973e+003;5.360804e-003
2.215902e+003;5.264103e-003
2.217830e+003;5.129904e-003
2.219759e+003;4.917793e-003
2.221687e+003;4.780251e-003
2.223616e+003;4.823234e-003
2.225544e+003;5.004127e-003
2.227473e+003;5.168966e-003
2.229401e+003;5.005669e-003
2.231330e+003;4.922753e-003
2.233259e+003;4.982408e-003
2.235187e+003;4.824943e-003
2.237116e+003;4.747320e-003
2.239044e+003;4.845347e-003
2.240973e+003;4.821458e-003
2.242901e+003;4.857979e-003
2.244830e+003;5.005769e-003
2.246758e+003;4.934582e-003
2.248687e+003;4.944067e-003
2.250615e+003;4.861297e-003
2.252544e+003;4.801759e-003
2.254473e+003;4.856606e-003
2.256401e+003;4.986463e-003
2.258330e+003;5.128731e-003
2.260258e+003;5.243310e-003
2.262187e+003;5.194450e-003
2.264115e+003;5.231942e-003
2.266044e+003;5.184491e-003
2.267972e+003;5.060608e-003
2.269901e+003;5.075224e-003
2.271830e+003;4.992027e-003
2.273758e+003;4.943631e-003
2.275687e+003;4.935454e-003
2.277615e+003;5.043982e-003
2.279544e+003;5.072207e-003
2.281472e+003;5.190628e-003
2.283401e+003;5.390460e-003
2.285329e+003;5.327428e-003
2.287258e+003;5.094165e-003
2.289187e+003;5.053300e-003
2.291115e+003;5.085315e-003
2.293043e+003;5.050887e-003
2.294972e+003;5.137851e-003
2.296901e+003;5.304955e-003
2.298829e+003;5.514806e-003
2.300758e+003;5.499605e-003
2.302686e+003;5.515208e-003
2.304615e+003;5.679470e-003
2.306543e+003;5.701896e-003
2.308472e+003;5.663457e-003
2.310400e+003;5.526450e-003
2.312329e+003;5.448569e-003
2.314258e+003;5.239286e-003
2.316186e+003;5.074118e-003
2.318115e+003;5.065536e-003
2.320043e+003;4.822765e-003
2.321972e+003;4.502986e-003
2.323900e+003;4.346465e-003
2.325829e+003;4.225598e-003
2.327757e+003;4.191204e-003
2.329686e+003;4.205456e-003
2.331615e+003;4.274985e-003
2.333543e+003;4.384988e-003
2.335472e+003;4.360421e-003
2.337400e+003;4.474898e-003
2.339329e+003;4.334317e-003
2.341257e+003;4.097907e-003
2.343186e+003;4.212917e-003
2.345114e+003;4.625371e-003
2.347043e+003;5.020685e-003
2.348971e+003;5.224899e-003
2.350900e+003;5.163668e-003
2.352829e+003;4.580163e-003
2.354757e+003;3.969352e-003
2.356686e+003;3.790026e-003
2.358614e+003;3.500767e-003
2.360543e+003;3.277564e-003
2.362471e+003;3.376261e-003
2.364400e+003;3.492182e-003
2.366328e+003;3.810248e-003
2.368257e+003;4.151193e-003
2.370186e+003;4.329832e-003
2.372114e+003;4.655244e-003
2.374042e+003;5.187375e-003
2.375971e+003;5.470412e-003
2.377900e+003;5.558936e-003
2.379828e+003;5.656274e-003
2.381757e+003;5.831469e-003
2.383685e+003;6.044162e-003
2.385614e+003;6.151959e-003
2.387542e+003;6.236320e-003
2.389471e+003;6.209430e-003
2.391399e+003;6.155252e-003
2.393328e+003;6.101283e-003
2.395257e+003;5.945696e-003
2.397185e+003;5.859880e-003
2.399114e+003;5.811992e-003
2.401042e+003;5.902803e-003
2.402971e+003;6.077862e-003
2.404899e+003;6.213632e-003
2.406828e+003;6.113145e-003
2.408756e+003;6.011304e-003
2.410685e+003;6.300862e-003
2.412614e+003;6.581868e-003
2.414542e+003;6.472316e-003
2.416471e+003;6.379032e-003
2.418399e+003;6.564005e-003
2.420328e+003;6.705310e-003
2.422256e+003;6.541232e-003
2.424185e+003;6.314511e-003
2.426113e+003;6.306577e-003
2.428042e+003;6.456375e-003
2.429970e+003;6.720116e-003
2.431899e+003;6.733308e-003
2.433828e+003;6.688015e-003
2.435756e+003;6.580118e-003
2.437685e+003;6.457821e-003
2.439613e+003;6.581767e-003
2.441542e+003;6.688452e-003
2.443470e+003;6.765076e-003
2.445399e+003;6.893654e-003
2.447327e+003;6.895371e-003
2.449256e+003;6.813271e-003
2.451185e+003;6.881973e-003
2.453113e+003;6.883387e-003
2.455042e+003;7.190303e-003
2.456970e+003;7.633010e-003
2.458899e+003;7.670679e-003
2.460827e+003;7.564122e-003
2.462756e+003;7.611091e-003
2.464684e+003;7.812817e-003
2.466613e+003;8.039916e-003
2.468542e+003;8.148344e-003
2.470470e+003;8.059628e-003
2.472398e+003;7.921391e-003
2.474327e+003;7.754897e-003
2.476256e+003;7.694050e-003
2.478184e+003;7.667812e-003
2.480113e+003;7.759012e-003
2.482041e+003;7.866662e-003
2.483970e+003;7.993272e-003
2.485898e+003;8.026888e-003
2.487827e+003;8.015277e-003
2.489755e+003;8.023850e-003
2.491684e+003;7.975790e-003
2.493613e+003;7.834307e-003
2.495541e+003;7.579565e-003
2.497470e+003;7.685956e-003
2.499398e+003;7.935968e-003
2.501327e+003;7.895780e-003
2.503255e+003;7.877694e-003
2.505184e+003;7.884476e-003
2.507112e+003;7.993879e-003
2.509041e+003;8.122991e-003
2.510969e+003;8.038769e-003
2.512898e+003;8.088017e-003
2.514827e+003;8.212530e-003
2.516755e+003;8.232554e-003
2.518684e+003;8.196525e-003
2.520612e+003;8.413893e-003
2.522541e+003;8.599498e-003
2.524469e+003;8.763173e-003
2.526398e+003;8.910843e-003
2.528326e+003;8.891499e-003
2.530255e+003;8.897620e-003
2.532184e+003;9.076632e-003
2.534112e+003;9.277279e-003
2.536041e+003;9.346033e-003
2.537969e+003;9.460002e-003
2.539898e+003;9.756309e-003
2.541826e+003;9.710395e-003
2.543755e+003;9.545619e-003
2.545683e+003;9.555881e-003
2.547612e+003;9.456616e-003
2.549541e+003;9.571327e-003
2.551469e+003;9.865100e-003
2.553397e+003;9.881810e-003
2.555326e+003;9.613601e-003
2.557255e+003;9.390452e-003
2.559183e+003;9.524687e-003
2.561112e+003;9.669771e-003
2.563040e+003;9.586603e-003
2.564969e+003;9.742111e-003
2.566897e+003;9.769017e-003
2.568826e+003;9.874184e-003
2.570754e+003;1.020476e-002
2.572683e+003;1.028924e-002
2.574612e+003;1.027804e-002
2.576540e+003;1.031662e-002
2.578469e+003;1.038421e-002
2.580397e+003;1.063201e-002
2.582326e+003;1.065089e-002
2.584254e+003;1.053182e-002
2.586183e+003;1.036582e-002
2.588111e+003;1.059466e-002
2.590040e+003;1.098424e-002
2.591969e+003;1.115843e-002
2.593897e+003;1.100779e-002
2.595826e+003;1.086725e-002
2.597754e+003;1.084174e-002
2.599683e+003;1.072173e-002
2.601611e+003;1.052812e-002
2.603540e+003;1.066291e-002
2.605468e+003;1.098288e-002
2.607397e+003;1.112451e-002
2.609325e+003;1.102645e-002
2.611254e+003;1.108637e-002
2.613183e+003;1.132359e-002
2.615111e+003;1.116755e-002
2.617040e+003;1.073369e-002
2.618968e+003;1.084592e-002
2.620897e+003;1.105255e-002
2.622825e+003;1.107185e-002
2.624754e+003;1.117676e-002
2.626682e+003;1.138858e-002
2.628611e+003;1.164850e-002
2.630540e+003;1.155661e-002
2.632468e+003;1.124592e-002
2.634396e+003;1.139324e-002
2.636325e+003;1.154253e-002
2.638254e+003;1.177792e-002
2.640182e+003;1.212249e-002
2.642111e+003;1.211768e-002
2.644039e+003;1.203895e-002
2.645968e+003;1.215530e-002
2.647896e+003;1.205346e-002
2.649825e+003;1.177424e-002
2.651753e+003;1.174224e-002
2.653682e+003;1.183355e-002
2.655611e+003;1.207802e-002
2.657539e+003;1.238621e-002
2.659468e+003;1.233971e-002
2.661396e+003;1.220553e-002
2.663325e+003;1.230788e-002
2.665253e+003;1.232611e-002
2.667182e+003;1.213335e-002
2.669110e+003;1.202927e-002
2.671039e+003;1.223616e-002
2.672968e+003;1.234159e-002
2.674896e+003;1.242218e-002
2.676825e+003;1.247364e-002
2.678753e+003;1.248929e-002
2.680682e+003;1.272274e-002
2.682610e+003;1.295928e-002
2.684539e+003;1.289739e-002
2.686467e+003;1.295723e-002
2.688396e+003;1.298130e-002
2.690324e+003;1.316269e-002
2.692253e+003;1.348351e-002
2.694182e+003;1.379071e-002
2.696110e+003;1.396713e-002
2.698039e+003;1.382830e-002
2.699967e+003;1.373274e-002
2.701896e+003;1.382269e-002
2.703824e+003;1.395068e-002
2.705753e+003;1.390315e-002
2.707681e+003;1.405994e-002
2.709610e+003;1.424849e-002
2.711539e+003;1.420915e-002
2.713467e+003;1.426016e-002
2.715396e+003;1.462727e-002
2.717324e+003;1.504233e-002
2.719253e+003;1.526500e-002
2.721181e+003;1.546036e-002
2.723110e+003;1.564962e-002
2.725038e+003;1.575351e-002
2.726967e+003;1.596899e-002
2.728896e+003;1.642077e-002
2.730824e+003;1.654198e-002
2.732752e+003;1.647373e-002
2.734681e+003;1.643295e-002
2.736610e+003;1.678981e-002
2.738538e+003;1.715675e-002
2.740467e+003;1.734444e-002
2.742395e+003;1.732693e-002
2.744324e+003;1.724287e-002
2.746252e+003;1.737452e-002
2.748181e+003;1.748437e-002
2.750109e+003;1.753408e-002
2.752038e+003;1.777250e-002
2.753967e+003;1.774219e-002
2.755895e+003;1.750044e-002
2.757824e+003;1.765363e-002
2.759752e+003;1.775006e-002
2.761681e+003;1.768124e-002
2.763609e+003;1.784610e-002
2.765538e+003;1.817866e-002
2.767466e+003;1.820606e-002
2.769395e+003;1.808821e-002
2.771323e+003;1.816757e-002
2.773252e+003;1.855065e-002
2.775181e+003;1.902666e-002
2.777109e+003;1.919688e-002
2.779038e+003;1.905834e-002
2.780966e+003;1.928641e-002
2.782895e+003;1.950531e-002
2.784823e+003;1.941064e-002
2.786752e+003;1.930473e-002
2.788680e+003;1.964236e-002
2.790609e+003;2.013755e-002
2.792538e+003;2.043120e-002
2.794466e+003;2.069901e-002
2.796395e+003;2.089179e-002
2.798323e+003;2.108287e-002
2.800252e+003;2.131939e-002
2.802180e+003;2.159886e-002
2.804109e+003;2.192187e-002
2.806037e+003;2.218767e-002
2.807966e+003;2.243997e-002
2.809895e+003;2.278668e-002
2.811823e+003;2.308929e-002
2.813751e+003;2.341994e-002
2.815680e+003;2.359920e-002
2.817609e+003;2.405763e-002
2.819537e+003;2.467094e-002
2.821466e+003;2.505303e-002
2.823394e+003;2.540696e-002
2.825323e+003;2.550172e-002
2.827251e+003;2.555365e-002
2.829180e+003;2.607217e-002
2.831108e+003;2.669717e-002
2.833037e+003;2.735148e-002
2.834966e+003;2.830166e-002
2.836894e+003;2.916571e-002
2.838823e+003;3.046136e-002
2.840751e+003;3.233798e-002
2.842680e+003;3.446086e-002
2.844608e+003;3.707783e-002
2.846537e+003;3.995137e-002
2.848465e+003;4.280939e-002
2.850394e+003;4.556734e-002
2.852323e+003;4.773438e-002
2.854251e+003;4.924998e-002
2.856180e+003;5.030743e-002
2.858108e+003;5.126367e-002
2.860037e+003;5.185128e-002
2.861965e+003;5.209784e-002
2.863894e+003;5.226370e-002
2.865822e+003;5.187551e-002
2.867751e+003;5.127408e-002
2.869679e+003;5.033131e-002
2.871608e+003;4.884082e-002
2.873536e+003;4.722479e-002
2.875465e+003;4.536396e-002
2.877394e+003;4.355609e-002
2.879322e+003;4.190870e-002
2.881251e+003;4.052833e-002
2.883179e+003;3.965784e-002
2.885108e+003;3.925645e-002
2.887036e+003;3.943138e-002
2.888965e+003;3.991418e-002
2.890893e+003;4.094743e-002
2.892822e+003;4.272595e-002
2.894750e+003;4.433950e-002
2.896679e+003;4.563723e-002
2.898608e+003;4.646098e-002
2.900536e+003;4.675534e-002
2.902465e+003;4.686137e-002
2.904393e+003;4.734926e-002
2.906322e+003;4.814428e-002
2.908250e+003;4.892370e-002
2.910179e+003;5.017493e-002
2.912107e+003;5.157836e-002
2.914036e+003;5.284914e-002
2.915965e+003;5.465854e-002
2.917893e+003;5.698539e-002
2.919822e+003;5.897618e-002
2.921750e+003;6.104687e-002
2.923679e+003;6.317952e-002
2.925607e+003;6.481364e-002
2.927536e+003;6.621232e-002
2.929464e+003;6.765942e-002
2.931393e+003;6.862244e-002
2.933322e+003;6.933951e-002
2.935250e+003;6.986593e-002
2.937178e+003;6.949027e-002
2.939107e+003;6.846492e-002
2.941036e+003;6.699464e-002
2.942964e+003;6.488069e-002
2.944893e+003;6.220470e-002
2.946821e+003;5.884488e-002
2.948750e+003;5.470547e-002
2.950678e+003;5.036759e-002
2.952607e+003;4.637024e-002
2.954535e+003;4.303803e-002
2.956464e+003;3.993405e-002
2.958393e+003;3.758320e-002
2.960321e+003;3.605532e-002
2.962250e+003;3.469462e-002
2.964178e+003;3.320156e-002
2.966107e+003;3.161276e-002
2.968035e+003;3.007814e-002
2.969964e+003;2.866328e-002
2.971892e+003;2.722111e-002
2.973821e+003;2.604821e-002
2.975750e+003;2.528195e-002
2.977678e+003;2.455634e-002
2.979607e+003;2.380968e-002
2.981535e+003;2.310711e-002
2.983464e+003;2.222366e-002
2.985392e+003;2.167962e-002
2.987321e+003;2.139192e-002
2.989249e+003;2.101523e-002
2.991178e+003;2.079668e-002
2.993106e+003;2.055294e-002
2.995035e+003;2.024699e-002
2.996964e+003;2.017226e-002
2.998892e+003;2.022512e-002
3.000821e+003;2.017489e-002
3.002749e+003;1.993886e-002
3.004678e+003;1.999881e-002
3.006606e+003;2.009073e-002
3.008535e+003;2.005148e-002
3.010463e+003;2.003833e-002
3.012392e+003;2.011985e-002
3.014321e+003;2.016542e-002
3.016249e+003;2.045210e-002
3.018177e+003;2.068282e-002
3.020106e+003;2.062854e-002
3.022035e+003;2.049799e-002
3.023963e+003;2.082514e-002
3.025892e+003;2.139992e-002
3.027820e+003;2.170390e-002
3.029749e+003;2.177678e-002
3.031677e+003;2.204455e-002
3.033606e+003;2.249367e-002
3.035534e+003;2.295852e-002
3.037463e+003;2.336046e-002
3.039392e+003;2.390045e-002
3.041320e+003;2.448384e-002
3.043249e+003;2.489433e-002
3.045177e+003;2.538156e-002
3.047106e+003;2.608473e-002
3.049034e+003;2.670926e-002
3.050963e+003;2.698214e-002
3.052891e+003;2.725321e-002
3.054820e+003;2.770627e-002
3.056749e+003;2.836390e-002
3.058677e+003;2.878905e-002
3.060606e+003;2.900854e-002
3.062534e+003;2.908188e-002
3.064463e+003;2.897206e-002
3.066391e+003;2.900185e-002
3.068320e+003;2.895814e-002
3.070248e+003;2.903749e-002
3.072177e+003;2.908418e-002
3.074105e+003;2.904234e-002
3.076034e+003;2.902626e-002
3.077963e+003;2.902948e-002
3.079891e+003;2.892793e-002
3.081820e+003;2.894267e-002
3.083748e+003;2.872834e-002
3.085677e+003;2.866466e-002
3.087605e+003;2.864940e-002
3.089534e+003;2.847417e-002
3.091462e+003;2.822015e-002
3.093391e+003;2.777888e-002
3.095320e+003;2.760923e-002
3.097248e+003;2.720344e-002
3.099177e+003;2.667501e-002
3.101105e+003;2.645419e-002
3.103034e+003;2.614990e-002
3.104962e+003;2.580387e-002
3.106891e+003;2.537007e-002
3.108819e+003;2.501831e-002
3.110748e+003;2.480089e-002
3.112677e+003;2.440385e-002
3.114605e+003;2.389604e-002
3.116533e+003;2.363160e-002
3.118462e+003;2.361529e-002
3.120391e+003;2.344568e-002
3.122319e+003;2.314380e-002
3.124248e+003;2.328505e-002
3.126176e+003;2.293773e-002
3.128105e+003;2.239590e-002
3.130033e+003;2.248931e-002
3.131962e+003;2.278769e-002
3.133890e+003;2.306291e-002
3.135819e+003;2.285771e-002
3.137748e+003;2.259449e-002
3.139676e+003;2.255980e-002
3.141605e+003;2.259062e-002
3.143533e+003;2.256793e-002
3.145462e+003;2.231438e-002
3.147390e+003;2.238861e-002
3.149319e+003;2.275602e-002
3.151247e+003;2.286270e-002
3.153176e+003;2.274160e-002
3.155104e+003;2.284227e-002
3.157033e+003;2.321101e-002
3.158962e+003;2.352647e-002
3.160890e+003;2.374420e-002
3.162819e+003;2.403046e-002
3.164747e+003;2.437473e-002
3.166676e+003;2.464656e-002
3.168604e+003;2.505871e-002
3.170533e+003;2.520318e-002
3.172461e+003;2.544364e-002
3.174390e+003;2.605021e-002
3.176319e+003;2.653466e-002
3.178247e+003;2.708327e-002
3.180176e+003;2.735695e-002
3.182104e+003;2.743025e-002
3.184033e+003;2.758723e-002
3.185961e+003;2.791924e-002
3.187890e+003;2.827057e-002
3.189818e+003;2.828493e-002
3.191747e+003;2.845390e-002
3.193676e+003;2.867198e-002
3.195604e+003;2.915504e-002
3.197532e+003;2.943464e-002
3.199461e+003;2.954291e-002
3.201390e+003;2.990730e-002
3.203318e+003;3.006802e-002
3.205247e+003;3.013368e-002
3.207175e+003;3.013972e-002
3.209104e+003;2.983834e-002
3.211032e+003;2.982847e-002
3.212961e+003;3.043200e-002
3.214889e+003;3.083663e-002
3.216818e+003;3.091062e-002
3.218747e+003;3.121329e-002
3.220675e+003;3.161012e-002
3.222604e+003;3.184253e-002
3.224532e+003;3.231160e-002
3.226461e+003;3.325124e-002
3.228389e+003;3.374599e-002
3.230318e+003;3.380669e-002
3.232246e+003;3.426269e-002
3.234175e+003;3.502562e-002
3.236104e+003;3.592001e-002
3.238032e+003;3.660506e-002
3.239961e+003;3.724459e-002
3.241889e+003;3.788477e-002
3.243818e+003;3.864616e-002
3.245746e+003;3.978826e-002
3.247675e+003;4.096028e-002
3.249603e+003;4.166672e-002
3.251532e+003;4.214479e-002
3.253460e+003;4.312269e-002
3.255389e+003;4.488529e-002
3.257318e+003;4.638134e-002
3.259246e+003;4.698064e-002
3.261175e+003;4.783310e-002
3.263103e+003;4.951189e-002
3.265032e+003;5.108999e-002
3.266960e+003;5.225137e-002
3.268889e+003;5.337089e-002
3.270817e+003;5.468296e-002
3.272746e+003;5.636247e-002
3.274675e+003;5.786677e-002
3.276603e+003;5.924326e-002
3.278531e+003;6.110743e-002
3.280460e+003;6.332605e-002
3.282389e+003;6.561980e-002
3.284317e+003;6.759271e-002
3.286246e+003;6.945185e-002
3.288174e+003;7.138764e-002
3.290103e+003;7.340530e-002
3.292031e+003;7.490934e-002
3.293960e+003;7.559533e-002
3.295888e+003;7.580115e-002
3.297817e+003;7.508430e-002
3.299746e+003;7.383216e-002
3.301674e+003;7.230348e-002
3.303603e+003;7.020561e-002
3.305531e+003;6.765520e-002
3.307460e+003;6.495072e-002
3.309388e+003;6.210281e-002
3.311317e+003;5.925974e-002
3.313245e+003;5.690009e-002
3.315174e+003;5.493990e-002
3.317103e+003;5.305212e-002
3.319031e+003;5.089701e-002
3.320960e+003;4.881653e-002
3.322888e+003;4.715582e-002
3.324817e+003;4.535639e-002
3.326745e+003;4.336193e-002
3.328674e+003;4.162030e-002
3.330602e+003;4.036875e-002
3.332531e+003;3.888606e-002
3.334459e+003;3.747161e-002
3.336388e+003;3.627845e-002
3.338317e+003;3.472689e-002
3.340245e+003;3.335202e-002
3.342174e+003;3.272377e-002
3.344102e+003;3.196142e-002
3.346031e+003;3.086427e-002
3.347959e+003;2.990336e-002
3.349888e+003;2.917241e-002
3.351816e+003;2.850569e-002
3.353745e+003;2.795808e-002
3.355674e+003;2.738836e-002
3.357602e+003;2.660906e-002
3.359531e+003;2.601225e-002
3.361459e+003;2.598010e-002
3.363388e+003;2.568141e-002
3.365316e+003;2.503274e-002
3.367245e+003;2.443732e-002
3.369173e+003;2.409833e-002
3.371102e+003;2.366952e-002
3.373031e+003;2.318896e-002
3.374959e+003;2.277928e-002
3.376887e+003;2.268421e-002
3.378816e+003;2.273088e-002
3.380745e+003;2.222659e-002
3.382673e+003;2.180684e-002
3.384602e+003;2.152240e-002
3.386530e+003;2.156609e-002
3.388459e+003;2.167712e-002
3.390387e+003;2.135732e-002
3.392316e+003;2.093278e-002
3.394244e+003;2.055075e-002
3.396173e+003;2.043033e-002
3.398102e+003;2.027862e-002
3.400030e+003;2.005176e-002
3.401959e+003;2.011305e-002
3.403887e+003;2.008383e-002
3.405816e+003;1.973268e-002
3.407744e+003;1.949377e-002
3.409673e+003;1.954759e-002
3.411601e+003;1.943787e-002
3.413530e+003;1.911533e-002
3.415458e+003;1.884488e-002
3.417387e+003;1.889828e-002
3.419316e+003;1.878385e-002
3.421244e+003;1.841193e-002
3.423173e+003;1.840015e-002
3.425101e+003;1.849767e-002
3.427030e+003;1.858060e-002
3.428958e+003;1.856628e-002
3.430887e+003;1.812587e-002
3.432815e+003;1.795106e-002
3.434744e+003;1.801689e-002
3.436673e+003;1.764587e-002
3.438601e+003;1.746947e-002
3.440530e+003;1.744149e-002
3.442458e+003;1.771986e-002
3.444387e+003;1.791633e-002
3.446315e+003;1.788052e-002
3.448244e+003;1.733710e-002
3.450172e+003;1.689935e-002
3.452101e+003;1.701659e-002
3.454030e+003;1.698716e-002
3.455958e+003;1.688243e-002
3.457886e+003;1.689921e-002
3.459815e+003;1.698251e-002
3.461744e+003;1.665841e-002
3.463672e+003;1.597607e-002
3.465601e+003;1.571647e-002
3.467529e+003;1.600347e-002
3.469458e+003;1.610469e-002
3.471386e+003;1.597892e-002
3.473315e+003;1.574670e-002
3.475243e+003;1.540848e-002
3.477172e+003;1.544766e-002
3.479101e+003;1.542956e-002
3.481029e+003;1.513763e-002
3.482958e+003;1.516398e-002
3.484886e+003;1.545981e-002
3.486815e+003;1.562293e-002
3.488743e+003;1.555276e-002
3.490672e+003;1.515520e-002
3.492600e+003;1.486256e-002
3.494529e+003;1.484901e-002
3.496458e+003;1.472430e-002
3.498386e+003;1.468330e-002
3.500315e+003;1.467035e-002
3.502243e+003;1.474322e-002
3.504172e+003;1.485344e-002
3.506100e+003;1.469365e-002
3.508029e+003;1.448213e-002
3.509957e+003;1.458827e-002
3.511886e+003;1.450978e-002
3.513814e+003;1.447747e-002
3.515743e+003;1.445702e-002
3.517672e+003;1.422301e-002
3.519600e+003;1.416362e-002
3.521529e+003;1.404926e-002
3.523457e+003;1.386665e-002
3.525386e+003;1.327548e-002
3.527314e+003;1.293549e-002
3.529243e+003;1.288531e-002
3.531171e+003;1.273666e-002
3.533100e+003;1.284981e-002
3.535029e+003;1.313308e-002
3.536957e+003;1.290050e-002
3.538885e+003;1.222826e-002
3.540814e+003;1.196078e-002
3.542743e+003;1.209847e-002
3.544671e+003;1.181591e-002
3.546600e+003;1.146393e-002
3.548528e+003;1.146056e-002
3.550457e+003;1.127876e-002
3.552385e+003;1.126938e-002
3.554314e+003;1.116891e-002
3.556242e+003;1.077869e-002
3.558171e+003;1.046594e-002
3.560100e+003;1.024269e-002
3.562028e+003;9.834697e-003
3.563957e+003;9.763900e-003
3.565885e+003;9.830596e-003
3.567814e+003;9.898555e-003
3.569742e+003;1.020632e-002
3.571671e+003;1.029860e-002
3.573599e+003;1.003380e-002
3.575528e+003;9.351043e-003
3.577457e+003;8.876381e-003
3.579385e+003;8.858492e-003
3.581314e+003;8.968986e-003
3.583242e+003;8.800872e-003
3.585171e+003;8.545326e-003
3.587099e+003;8.281724e-003
3.589028e+003;7.759282e-003
3.590956e+003;7.416538e-003
3.592885e+003;7.352065e-003
3.594813e+003;7.104982e-003
3.596742e+003;7.438986e-003
3.598671e+003;7.730308e-003
3.600599e+003;7.317963e-003
3.602528e+003;7.033787e-003
3.604456e+003;6.909409e-003
3.606385e+003;6.681184e-003
3.608313e+003;6.431422e-003
3.610242e+003;6.141373e-003
3.612170e+003;5.992558e-003
3.614099e+003;5.518900e-003
3.616028e+003;5.586423e-003
3.617956e+003;5.480646e-003
3.619885e+003;5.101843e-003
3.621813e+003;5.373183e-003
3.623742e+003;5.652682e-003
3.625670e+003;5.385260e-003
3.627599e+003;4.903082e-003
3.629527e+003;4.817002e-003
3.631456e+003;5.129569e-003
3.633385e+003;5.116393e-003
3.635313e+003;4.833051e-003
3.637241e+003;4.851345e-003
3.639170e+003;5.167256e-003
3.641099e+003;4.591816e-003
3.643027e+003;3.896563e-003
3.644956e+003;3.962798e-003
3.646884e+003;4.038775e-003
3.648813e+003;3.619260e-003
3.650741e+003;3.534838e-003
3.652670e+003;3.553679e-003
3.654598e+003;3.394060e-003
3.656527e+003;3.293923e-003
3.658456e+003;3.326643e-003
3.660384e+003;3.639274e-003
3.662313e+003;3.740560e-003
3.664241e+003;3.347043e-003
3.666170e+003;3.091716e-003
3.668098e+003;2.872191e-003
3.670027e+003;2.918489e-003
3.671955e+003;2.971197e-003
3.673884e+003;2.680582e-003
3.675813e+003;2.511219e-003
3.677741e+003;2.581643e-003
3.679669e+003;2.514818e-003
3.681598e+003;2.344587e-003
3.683527e+003;2.267473e-003
3.685455e+003;1.978793e-003
3.687384e+003;1.523655e-003
3.689312e+003;1.541610e-003
3.691241e+003;1.687544e-003
3.693169e+003;1.623351e-003
3.695098e+003;1.468429e-003
3.697026e+003;1.333204e-003
3.698955e+003;1.551785e-003
3.700884e+003;1.723736e-003
3.702812e+003;1.532699e-003
3.704741e+003;1.715419e-003
3.706669e+003;1.484620e-003
3.708598e+003;1.185795e-003
3.710526e+003;1.271955e-003
3.712455e+003;1.474746e-003
3.714383e+003;1.510754e-003
3.716312e+003;1.582146e-003
3.718240e+003;1.661134e-003
3.720169e+003;1.586270e-003
3.722098e+003;1.237363e-003
3.724026e+003;1.208056e-003
3.725955e+003;1.326723e-003
3.727883e+003;1.241682e-003
3.729812e+003;1.000375e-003
3.731740e+003;7.606944e-004
3.733669e+003;1.128453e-003
3.735597e+003;1.165462e-003
3.737526e+003;1.112408e-003
3.739455e+003;1.447717e-003
3.741383e+003;1.738805e-003
3.743312e+003;1.713390e-003
3.745240e+003;1.345967e-003
3.747169e+003;1.437611e-003
3.749097e+003;1.481561e-003
3.751026e+003;1.182406e-003
3.752954e+003;1.140778e-003
3.754883e+003;1.087395e-003
3.756812e+003;1.057633e-003
3.758740e+003;1.387183e-003
3.760668e+003;1.513879e-003
3.762597e+003;1.348892e-003
3.764526e+003;1.181708e-003
3.766454e+003;1.256403e-003
3.768383e+003;1.423981e-003
3.770311e+003;1.568013e-003
3.772240e+003;1.783884e-003
3.774168e+003;1.938120e-003
3.776097e+003;1.849465e-003
3.778025e+003;1.691402e-003
3.779954e+003;1.675503e-003
3.781883e+003;1.621655e-003
3.783811e+003;1.588764e-003
3.785740e+003;1.917552e-003
3.787668e+003;1.984418e-003
3.789597e+003;1.711328e-003
3.791525e+003;1.670181e-003
3.793454e+003;1.829334e-003
3.795382e+003;1.771475e-003
3.797311e+003;1.390906e-003
3.799240e+003;1.184267e-003
3.801168e+003;1.665258e-003
3.803097e+003;2.279430e-003
3.805025e+003;2.137660e-003
3.806954e+003;1.783651e-003
3.808882e+003;1.555210e-003
3.810811e+003;1.682688e-003
3.812739e+003;1.921746e-003
3.814668e+003;1.669083e-003
3.816596e+003;9.408323e-004
3.818525e+003;9.155301e-004
3.820454e+003;1.602066e-003
3.822382e+003;1.941681e-003
3.824311e+003;1.821215e-003
3.826239e+003;1.666622e-003
3.828168e+003;1.880712e-003
3.830096e+003;1.828436e-003
3.832025e+003;1.730688e-003
3.833953e+003;2.266773e-003
3.835882e+003;2.467997e-003
3.837811e+003;2.059717e-003
3.839739e+003;2.161068e-003
3.841667e+003;2.050629e-003
3.843596e+003;2.046201e-003
3.845525e+003;2.408786e-003
3.847453e+003;2.311874e-003
3.849382e+003;1.784017e-003
3.851310e+003;1.498551e-003
3.853239e+003;1.553614e-003
3.855167e+003;1.770344e-003
3.857096e+003;1.728825e-003
3.859024e+003;1.683220e-003
3.860953e+003;1.702579e-003
3.862882e+003;1.571870e-003
3.864810e+003;2.021467e-003
3.866739e+003;2.213918e-003
3.868667e+003;1.582578e-003
3.870596e+003;1.387582e-003
3.872524e+003;1.770543e-003
3.874453e+003;2.152278e-003
3.876381e+003;2.360877e-003
3.878310e+003;2.224775e-003
3.880239e+003;1.715419e-003
3.882167e+003;1.527578e-003
3.884096e+003;1.429267e-003
3.886024e+003;1.661134e-003
3.887953e+003;1.957491e-003
3.889881e+003;1.914224e-003
3.891810e+003;2.056088e-003
3.893738e+003;2.139524e-003
3.895667e+003;2.075764e-003
3.897595e+003;1.914357e-003
3.899524e+003;1.994804e-003
3.901453e+003;2.243259e-003
3.903381e+003;2.132365e-003
3.905310e+003;1.724966e-003
3.907238e+003;1.958190e-003
3.909167e+003;2.571410e-003
3.911095e+003;2.421014e-003
3.913024e+003;2.152211e-003
3.914952e+003;2.040342e-003
3.916881e+003;2.205459e-003
3.918810e+003;2.534848e-003
3.920738e+003;2.656812e-003
3.922667e+003;2.528082e-003
3.924595e+003;2.483592e-003
3.926524e+003;2.631876e-003
3.928452e+003;2.588776e-003
3.930381e+003;2.458967e-003
3.932309e+003;2.305245e-003
3.934238e+003;2.273468e-003
3.936167e+003;2.724192e-003
3.938095e+003;3.047068e-003
3.940023e+003;2.754401e-003
3.941952e+003;2.978470e-003
3.943881e+003;3.141374e-003
3.945809e+003;2.510352e-003
3.947738e+003;2.370838e-003
3.949666e+003;2.596542e-003
3.951595e+003;2.932566e-003
3.953523e+003;3.256265e-003
3.955452e+003;3.242945e-003
3.957380e+003;3.458983e-003
3.959309e+003;3.564068e-003
3.961238e+003;3.193308e-003
3.963166e+003;3.289015e-003
3.965095e+003;3.414598e-003
3.967023e+003;3.219978e-003
3.968952e+003;3.141174e-003
3.970880e+003;3.237704e-003
3.972809e+003;3.684852e-003
3.974737e+003;4.043424e-003
3.976666e+003;4.068374e-003
3.978594e+003;4.003594e-003
3.980523e+003;3.831274e-003
3.982452e+003;3.443686e-003
3.984380e+003;3.163202e-003
3.986309e+003;3.218009e-003
3.988237e+003;3.787853e-003
3.990166e+003;3.767131e-003
3.992094e+003;3.281336e-003
3.994023e+003;3.541052e-003
3.995951e+003;3.895861e-003
3.997880e+003;3.902848e-003
3.999809e+003;4.372704e-003
4.001737e+003;0.000000e+000
