3.992094e+002;0.000000e+000
4.011380e+002;0.000000e+000
4.030665e+002;0.000000e+000
4.049951e+002;0.000000e+000
4.069236e+002;0.000000e+000
4.088522e+002;0.000000e+000
4.107807e+002;0.000000e+000
4.127093e+002;0.000000e+000
4.146378e+002;0.000000e+000
4.165664e+002;0.000000e+000
4.184949e+002;0.000000e+000
4.204235e+002;0.000000e+000
4.223520e+002;0.000000e+000
4.242806e+002;0.000000e+000
4.262091e+002;0.000000e+000
4.281377e+002;0.000000e+000
4.300662e+002;0.000000e+000
4.319948e+002;0.000000e+000
4.339233e+002;0.000000e+000
4.358519e+002;0.000000e+000
4.377804e+002;0.000000e+000
4.397090e+002;0.000000e+000
4.416375e+002;0.000000e+000
4.435660e+002;0.000000e+000
4.454946e+002;0.000000e+000
4.474232e+002;0.000000e+000
4.493517e+002;0.000000e+000
4.512802e+002;0.000000e+000
4.532088e+002;0.000000e+000
4.551373e+002;0.000000e+000
4.570659e+002;0.000000e+000
4.589944e+002;0.000000e+000
4.609230e+002;0.000000e+000
4.628515e+002;0.000000e+000
4.647801e+002;0.000000e+000
4.667086e+002;0.000000e+000
4.686372e+002;0.000000e+000
4.705657e+002;0.000000e+000
4.724943e+002;0.000000e+000
4.744228e+002;0.000000e+000
4.763513e+002;0.000000e+000
4.782799e+002;0.000000e+000
4.802085e+002;0.000000e+000
4.821370e+002;0.000000e+000
4.840656e+002;0.000000e+000
4.859941e+002;0.000000e+000
4.879226e+002;0.000000e+000
4.898512e+002;0.000000e+000
4.917798e+002;0.000000e+000
4.937083e+002;0.000000e+000
4.956368e+002;0.000000e+000
4.975654e+002;0.000000e+000
4.994939e+002;0.000000e+000
5.014225e+002;0.000000e+000
5.033510e+002;0.000000e+000
5.052796e+002;0.000000e+000
5.072081e+002;0.000000e+000
5.091367e+002;0.000000e+000
5.110652e+002;0.000000e+000
5.129938e+002;0.000000e+000
5.149223e+002;0.000000e+000
5.168509e+002;0.000000e+000
5.187794e+002;0.000000e+000
5.207079e+002;0.000000e+000
5.226365e+002;0.000000e+000
5.245651e+002;0.000000e+000
5.264936e+002;0.000000e+000
5.284222e+002;0.000000e+000
5.303507e+002;0.000000e+000
5.322792e+002;0.000000e+000
5.342078e+002;0.000000e+000
5.361364e+002;0.000000e+000
5.380649e+002;0.000000e+000
5.399935e+002;0.000000e+000
5.419220e+002;0.000000e+000
5.438505e+002;0.000000e+000
5.457791e+002;0.000000e+000
5.477076e+002;0.000000e+000
5.496362e+002;0.000000e+000
5.515648e+002;0.000000e+000
5.534933e+002;0.000000e+000
5.554218e+002;0.000000e+000
5.573504e+002;0.000000e+000
5.592789e+002;0.000000e+000
5.612075e+002;0.000000e+000
5.631360e+002;0.000000e+000
5.650646e+002;0.000000e+000
5.669931e+002;0.000000e+000
5.689217e+002;0.000000e+000
5.708502e+002;0.000000e+000
5.727787e+002;0.000000e+000
5.747073e+002;0.000000e+000
5.766359e+002;0.000000e+000
5.785644e+002;0.000000e+000
5.804930e+002;0.000000e+000
5.824215e+002;0.000000e+000
5.843500e+002;0.000000e+000
5.862786e+002;0.000000e+000
5.882072e+002;0.000000e+000
5.901357e+002;0.000000e+000
5.920643e+002;0.000000e+000
5.939928e+002;0.000000e+000
5.959213e+002;0.000000e+000
5.978499e+002;0.000000e+000
5.997784e+002;1.284650e-001
6.017070e+002;1.372874e-001
6.036355e+002;1.343816e-001
6.055641e+002;1.328232e-001
6.074926e+002;1.349856e-001
6.094211e+002;1.347414e-001
6.113497e+002;1.340841e-001
6.132783e+002;1.355717e-001
6.152068e+002;1.376234e-001
6.171354e+002;1.391693e-001
6.190639e+002;1.405230e-001
6.209924e+002;1.374846e-001
6.229210e+002;1.339482e-001
6.248495e+002;1.335006e-001
6.267781e+002;1.312440e-001
6.287067e+002;1.302754e-001
6.306352e+002;1.352001e-001
6.325637e+002;1.339781e-001
6.344923e+002;1.325678e-001
6.364208e+002;1.346963e-001
6.383494e+002;1.345320e-001
6.402780e+002;1.322064e-001
6.422065e+002;1.333173e-001
6.441350e+002;1.369086e-001
6.460636e+002;1.400740e-001
6.479921e+002;1.425205e-001
6.499207e+002;1.461610e-001
6.518492e+002;1.506877e-001
6.537778e+002;1.548197e-001
6.557063e+002;1.577469e-001
6.576349e+002;1.586428e-001
6.595634e+002;1.602237e-001
6.614919e+002;1.621900e-001
6.634205e+002;1.661041e-001
6.653491e+002;1.701756e-001
6.672776e+002;1.719505e-001
6.692062e+002;1.733798e-001
6.711347e+002;1.742308e-001
6.730632e+002;1.759231e-001
6.749918e+002;1.786077e-001
6.769203e+002;1.805890e-001
6.788489e+002;1.824679e-001
6.807775e+002;1.838406e-001
6.827060e+002;1.842960e-001
6.846345e+002;1.852356e-001
6.865631e+002;1.838581e-001
6.884916e+002;1.806946e-001
6.904202e+002;1.782749e-001
6.923488e+002;1.759725e-001
6.942773e+002;1.741665e-001
6.962058e+002;1.712765e-001
6.981344e+002;1.677159e-001
7.000629e+002;1.647679e-001
7.019915e+002;1.625150e-001
7.039200e+002;1.611724e-001
7.058486e+002;1.594442e-001
7.077771e+002;1.576906e-001
7.097057e+002;1.555842e-001
7.116342e+002;1.538013e-001
7.135627e+002;1.529525e-001
7.154913e+002;1.501259e-001
7.174199e+002;1.463715e-001
7.193484e+002;1.453247e-001
7.212770e+002;1.460754e-001
7.232055e+002;1.466768e-001
7.251340e+002;1.472954e-001
7.270626e+002;1.473126e-001
7.289911e+002;1.459815e-001
7.309197e+002;1.419788e-001
7.328483e+002;1.352882e-001
7.347768e+002;1.281063e-001
7.367053e+002;1.217127e-001
7.386339e+002;1.169047e-001
7.405624e+002;1.125881e-001
7.424910e+002;1.101715e-001
7.444196e+002;1.094740e-001
7.463481e+002;1.068282e-001
7.482766e+002;1.033824e-001
7.502052e+002;1.011307e-001
7.521337e+002;9.917557e-002
7.540623e+002;9.783474e-002
7.559908e+002;9.638871e-002
7.579194e+002;9.487036e-002
7.598479e+002;9.333445e-002
7.617765e+002;9.217821e-002
7.637050e+002;9.146786e-002
7.656335e+002;9.061091e-002
7.675621e+002;8.896518e-002
7.694907e+002;8.755755e-002
7.714192e+002;8.710493e-002
7.733478e+002;8.667357e-002
7.752763e+002;8.575711e-002
7.772048e+002;8.422601e-002
7.791334e+002;8.282626e-002
7.810620e+002;8.208463e-002
7.829905e+002;8.067594e-002
7.849191e+002;7.848705e-002
7.868476e+002;7.743087e-002
7.887761e+002;7.658606e-002
7.907047e+002;7.483150e-002
7.926332e+002;7.338741e-002
7.945618e+002;7.277016e-002
7.964903e+002;7.274081e-002
7.984189e+002;7.217517e-002
8.003474e+002;6.972504e-002
8.022759e+002;6.765249e-002
8.042045e+002;6.693125e-002
8.061331e+002;6.664931e-002
8.080616e+002;6.607862e-002
8.099902e+002;6.555086e-002
8.119187e+002;6.435870e-002
8.138472e+002;6.326284e-002
8.157758e+002;6.294559e-002
8.177043e+002;6.299132e-002
8.196329e+002;6.316155e-002
8.215615e+002;6.296719e-002
8.234900e+002;6.236773e-002
8.254185e+002;6.221648e-002
8.273471e+002;6.353507e-002
8.292756e+002;6.593470e-002
8.312042e+002;6.757393e-002
8.331328e+002;6.794635e-002
8.350613e+002;6.698482e-002
8.369898e+002;6.461804e-002
8.389184e+002;6.249937e-002
8.408469e+002;6.086138e-002
8.427755e+002;5.932195e-002
8.447040e+002;5.822361e-002
8.466326e+002;5.703057e-002
8.485611e+002;5.657299e-002
8.504897e+002;5.680646e-002
8.524182e+002;5.653604e-002
8.543467e+002;5.596125e-002
8.562753e+002;5.557724e-002
8.582039e+002;5.549353e-002
8.601324e+002;5.502410e-002
8.620610e+002;5.437574e-002
8.639895e+002;5.469262e-002
8.659180e+002;5.520350e-002
8.678466e+002;5.521937e-002
8.697751e+002;5.465617e-002
8.717037e+002;5.470401e-002
8.736323e+002;5.525587e-002
8.755608e+002;5.584921e-002
8.774893e+002;5.623852e-002
8.794179e+002;5.592639e-002
8.813464e+002;5.571625e-002
8.832750e+002;5.635526e-002
8.852036e+002;5.705906e-002
8.871321e+002;5.737843e-002
8.890606e+002;5.734096e-002
8.909892e+002;5.727813e-002
8.929177e+002;5.747377e-002
8.948463e+002;5.773732e-002
8.967748e+002;5.816212e-002
8.987034e+002;5.834343e-002
9.006319e+002;5.813053e-002
9.025605e+002;5.851351e-002
9.044890e+002;5.918114e-002
9.064175e+002;5.963209e-002
9.083461e+002;6.048364e-002
9.102747e+002;6.099116e-002
9.122032e+002;6.122099e-002
9.141318e+002;6.166784e-002
9.160603e+002;6.184955e-002
9.179888e+002;6.200438e-002
9.199174e+002;6.304863e-002
9.218459e+002;6.456071e-002
9.237745e+002;6.599911e-002
9.257031e+002;6.755523e-002
9.276316e+002;6.893121e-002
9.295601e+002;6.901685e-002
9.314887e+002;6.793822e-002
9.334172e+002;6.677198e-002
9.353458e+002;6.576840e-002
9.372744e+002;6.503168e-002
9.392029e+002;6.489408e-002
9.411314e+002;6.505793e-002
9.430600e+002;6.561237e-002
9.449885e+002;6.668419e-002
9.469171e+002;6.845988e-002
9.488456e+002;7.045183e-002
9.507742e+002;7.178383e-002
9.527027e+002;7.248930e-002
9.546313e+002;7.303700e-002
9.565598e+002;7.376320e-002
9.584883e+002;7.440814e-002
9.604169e+002;7.478867e-002
9.623455e+002;7.424545e-002
9.642740e+002;7.336925e-002
9.662026e+002;7.323866e-002
9.681311e+002;7.358508e-002
9.700596e+002;7.396104e-002
9.719882e+002;7.419258e-002
9.739167e+002;7.384983e-002
9.758453e+002;7.306550e-002
9.777739e+002;7.201976e-002
9.797024e+002;7.097922e-002
9.816309e+002;6.999523e-002
9.835595e+002;6.902143e-002
9.854880e+002;6.803349e-002
9.874166e+002;6.722323e-002
9.893452e+002;6.677820e-002
9.912737e+002;6.565446e-002
9.932022e+002;6.440984e-002
9.951307e+002;6.407305e-002
9.970593e+002;6.401691e-002
9.989879e+002;6.397882e-002
1.000916e+003;6.404467e-002
1.002845e+003;6.411564e-002
1.004773e+003;6.402463e-002
1.006702e+003;6.368192e-002
1.008631e+003;6.366266e-002
1.010559e+003;6.337440e-002
1.012488e+003;6.288917e-002
1.014416e+003;6.282074e-002
1.016345e+003;6.278031e-002
1.018273e+003;6.256844e-002
1.020202e+003;6.266305e-002
1.022130e+003;6.360856e-002
1.024059e+003;6.490089e-002
1.025988e+003;6.594654e-002
1.027916e+003;6.701177e-002
1.029845e+003;6.757928e-002
1.031773e+003;6.727877e-002
1.033702e+003;6.658781e-002
1.035630e+003;6.567141e-002
1.037559e+003;6.460685e-002
1.039487e+003;6.389149e-002
1.041416e+003;6.339859e-002
1.043344e+003;6.303427e-002
1.045273e+003;6.261785e-002
1.047202e+003;6.284441e-002
1.049130e+003;6.361792e-002
1.051059e+003;6.459743e-002
1.052987e+003;6.559595e-002
1.054916e+003;6.656116e-002
1.056844e+003;6.780654e-002
1.058773e+003;6.915495e-002
1.060701e+003;7.031624e-002
1.062630e+003;7.105090e-002
1.064558e+003;7.192985e-002
1.066487e+003;7.313933e-002
1.068416e+003;7.406952e-002
1.070344e+003;7.445145e-002
1.072273e+003;7.501899e-002
1.074201e+003;7.534812e-002
1.076130e+003;7.456056e-002
1.078058e+003;7.351486e-002
1.079987e+003;7.286976e-002
1.081915e+003;7.239362e-002
1.083844e+003;7.222318e-002
1.085773e+003;7.226994e-002
1.087701e+003;7.174083e-002
1.089630e+003;7.037285e-002
1.091558e+003;6.979666e-002
1.093487e+003;7.013843e-002
1.095415e+003;7.071472e-002
1.097344e+003;7.192950e-002
1.099272e+003;7.298984e-002
1.101201e+003;7.407329e-002
1.103129e+003;7.585161e-002
1.105058e+003;7.762175e-002
1.106987e+003;7.933827e-002
1.108915e+003;8.086746e-002
1.110844e+003;8.188734e-002
1.112772e+003;8.251951e-002
1.114701e+003;8.304744e-002
1.116629e+003;8.391936e-002
1.118558e+003;8.425651e-002
1.120486e+003;8.379401e-002
1.122415e+003;8.242436e-002
1.124344e+003;8.030270e-002
1.126272e+003;7.783174e-002
1.128201e+003;7.513594e-002
1.130129e+003;7.263062e-002
1.132058e+003;7.089905e-002
1.133986e+003;7.018003e-002
1.135915e+003;6.980779e-002
1.137843e+003;6.979752e-002
1.139772e+003;7.052822e-002
1.141700e+003;7.178973e-002
1.143629e+003;7.380927e-002
1.145557e+003;7.613098e-002
1.147486e+003;7.785933e-002
1.149415e+003;8.000148e-002
1.151343e+003;8.301595e-002
1.153272e+003;8.620688e-002
1.155200e+003;8.960913e-002
1.157129e+003;9.338703e-002
1.159057e+003;9.749950e-002
1.160986e+003;1.029347e-001
1.162914e+003;1.094296e-001
1.164843e+003;1.157983e-001
1.166771e+003;1.210898e-001
1.168700e+003;1.236464e-001
1.170629e+003;1.224407e-001
1.172557e+003;1.182565e-001
1.174486e+003;1.127524e-001
1.176414e+003;1.071739e-001
1.178343e+003;1.021526e-001
1.180271e+003;9.845070e-002
1.182200e+003;9.698109e-002
1.184128e+003;9.747001e-002
1.186057e+003;9.940616e-002
1.187986e+003;1.023258e-001
1.189914e+003;1.059224e-001
1.191843e+003;1.100386e-001
1.193771e+003;1.149005e-001
1.195700e+003;1.208309e-001
1.197628e+003;1.264250e-001
1.199557e+003;1.290683e-001
1.201485e+003;1.276342e-001
1.203414e+003;1.235640e-001
1.205343e+003;1.196794e-001
1.207271e+003;1.176075e-001
1.209200e+003;1.168744e-001
1.211128e+003;1.166412e-001
1.213057e+003;1.162311e-001
1.214985e+003;1.143617e-001
1.216914e+003;1.110361e-001
1.218842e+003;1.074773e-001
1.220771e+003;1.054392e-001
1.222699e+003;1.053618e-001
1.224628e+003;1.069015e-001
1.226557e+003;1.097550e-001
1.228485e+003;1.139855e-001
1.230414e+003;1.189927e-001
1.232342e+003;1.238376e-001
1.234271e+003;1.276043e-001
1.236199e+003;1.294115e-001
1.238128e+003;1.294009e-001
1.240056e+003;1.289746e-001
1.241985e+003;1.282686e-001
1.243913e+003;1.275826e-001
1.245842e+003;1.280402e-001
1.247771e+003;1.298598e-001
1.249699e+003;1.318926e-001
1.251628e+003;1.341233e-001
1.253556e+003;1.372798e-001
1.255485e+003;1.409599e-001
1.257413e+003;1.443856e-001
1.259342e+003;1.471724e-001
1.261270e+003;1.486238e-001
1.263199e+003;1.481587e-001
1.265127e+003;1.449949e-001
1.267056e+003;1.393795e-001
1.268985e+003;1.329909e-001
1.270913e+003;1.282453e-001
1.272842e+003;1.256227e-001
1.274770e+003;1.242646e-001
1.276699e+003;1.233439e-001
1.278627e+003;1.226200e-001
1.280556e+003;1.213803e-001
1.282484e+003;1.191556e-001
1.284413e+003;1.169899e-001
1.286342e+003;1.155522e-001
1.288270e+003;1.144617e-001
1.290199e+003;1.139551e-001
1.292127e+003;1.137821e-001
1.294056e+003;1.131079e-001
1.295984e+003;1.125073e-001
1.297913e+003;1.125397e-001
1.299841e+003;1.122975e-001
1.301770e+003;1.115828e-001
1.303698e+003;1.106152e-001
1.305627e+003;1.097694e-001
1.307556e+003;1.090762e-001
1.309484e+003;1.077077e-001
1.311413e+003;1.062392e-001
1.313341e+003;1.052561e-001
1.315270e+003;1.043819e-001
1.317198e+003;1.034063e-001
1.319127e+003;1.026190e-001
1.321055e+003;1.020952e-001
1.322984e+003;1.015126e-001
1.324912e+003;1.009001e-001
1.326841e+003;1.008279e-001
1.328770e+003;1.012288e-001
1.330698e+003;1.017582e-001
1.332627e+003;1.021416e-001
1.334555e+003;1.022298e-001
1.336484e+003;1.024819e-001
1.338412e+003;1.029518e-001
1.340341e+003;1.036468e-001
1.342269e+003;1.043604e-001
1.344198e+003;1.051897e-001
1.346126e+003;1.063901e-001
1.348055e+003;1.076189e-001
1.349984e+003;1.088492e-001
1.351912e+003;1.101461e-001
1.353841e+003;1.114667e-001
1.355769e+003;1.131318e-001
1.357698e+003;1.151407e-001
1.359626e+003;1.169310e-001
1.361555e+003;1.186982e-001
1.363483e+003;1.202611e-001
1.365412e+003;1.218876e-001
1.367341e+003;1.237331e-001
1.369269e+003;1.253933e-001
1.371198e+003;1.259613e-001
1.373126e+003;1.252796e-001
1.375055e+003;1.236886e-001
1.376983e+003;1.213311e-001
1.378912e+003;1.183817e-001
1.380840e+003;1.150371e-001
1.382769e+003;1.117299e-001
1.384698e+003;1.086019e-001
1.386626e+003;1.053962e-001
1.388555e+003;1.030063e-001
1.390483e+003;1.013068e-001
1.392412e+003;9.974241e-002
1.394340e+003;9.867180e-002
1.396269e+003;9.866036e-002
1.398197e+003;9.943616e-002
1.400126e+003;1.006569e-001
1.402054e+003;1.027510e-001
1.403983e+003;1.058193e-001
1.405911e+003;1.098324e-001
1.407840e+003;1.152004e-001
1.409769e+003;1.217853e-001
1.411697e+003;1.284611e-001
1.413626e+003;1.340785e-001
1.415554e+003;1.376898e-001
1.417483e+003;1.385133e-001
1.419411e+003;1.366860e-001
1.421340e+003;1.335261e-001
1.423268e+003;1.304764e-001
1.425197e+003;1.285355e-001
1.427125e+003;1.283008e-001
1.429054e+003;1.298266e-001
1.430983e+003;1.324631e-001
1.432911e+003;1.350242e-001
1.434840e+003;1.364976e-001
1.436768e+003;1.362869e-001
1.438697e+003;1.356519e-001
1.440625e+003;1.348652e-001
1.442554e+003;1.338691e-001
1.444482e+003;1.332728e-001
1.446411e+003;1.332446e-001
1.448340e+003;1.340602e-001
1.450268e+003;1.360666e-001
1.452197e+003;1.382905e-001
1.454125e+003;1.404109e-001
1.456054e+003;1.431106e-001
1.457982e+003;1.476752e-001
1.459911e+003;1.534563e-001
1.461839e+003;1.574926e-001
1.463768e+003;1.562525e-001
1.465697e+003;1.494599e-001
1.467625e+003;1.411802e-001
1.469554e+003;1.352205e-001
1.471482e+003;1.326011e-001
1.473411e+003;1.330585e-001
1.475339e+003;1.344442e-001
1.477268e+003;1.338740e-001
1.479196e+003;1.305989e-001
1.481125e+003;1.252586e-001
1.483053e+003;1.189143e-001
1.484982e+003;1.131456e-001
1.486911e+003;1.095548e-001
1.488839e+003;1.086885e-001
1.490768e+003;1.098082e-001
1.492696e+003;1.121444e-001
1.494625e+003;1.150833e-001
1.496553e+003;1.186049e-001
1.498482e+003;1.229313e-001
1.500410e+003;1.278191e-001
1.502339e+003;1.329473e-001
1.504267e+003;1.382253e-001
1.506196e+003;1.440615e-001
1.508125e+003;1.509489e-001
1.510053e+003;1.580587e-001
1.511982e+003;1.655776e-001
1.513910e+003;1.736761e-001
1.515839e+003;1.820211e-001
1.517767e+003;1.910084e-001
1.519696e+003;2.006152e-001
1.521624e+003;2.108849e-001
1.523553e+003;2.215818e-001
1.525481e+003;2.324240e-001
1.527410e+003;2.435878e-001
1.529339e+003;2.544134e-001
1.531267e+003;2.646188e-001
1.533196e+003;2.738088e-001
1.535124e+003;2.808733e-001
1.537053e+003;2.846314e-001
1.538981e+003;2.846532e-001
1.540910e+003;2.822298e-001
1.542838e+003;2.767421e-001
1.544767e+003;2.676262e-001
1.546695e+003;2.563044e-001
1.548624e+003;2.444012e-001
1.550553e+003;2.325383e-001
1.552481e+003;2.212014e-001
1.554410e+003;2.107676e-001
1.556338e+003;2.012568e-001
1.558267e+003;1.919284e-001
1.560195e+003;1.835153e-001
1.562124e+003;1.759759e-001
1.564052e+003;1.681473e-001
1.565981e+003;1.602693e-001
1.567910e+003;1.521749e-001
1.569838e+003;1.440333e-001
1.571767e+003;1.367603e-001
1.573695e+003;1.297225e-001
1.575624e+003;1.229605e-001
1.577552e+003;1.175075e-001
1.579481e+003;1.131900e-001
1.581409e+003;1.095140e-001
1.583338e+003;1.069302e-001
1.585266e+003;1.054921e-001
1.587195e+003;1.049699e-001
1.589124e+003;1.049045e-001
1.591052e+003;1.057357e-001
1.592981e+003;1.073615e-001
1.594909e+003;1.095274e-001
1.596838e+003;1.129072e-001
1.598766e+003;1.173604e-001
1.600695e+003;1.224791e-001
1.602623e+003;1.287091e-001
1.604552e+003;1.358221e-001
1.606480e+003;1.436846e-001
1.608409e+003;1.522771e-001
1.610338e+003;1.613110e-001
1.612266e+003;1.711843e-001
1.614195e+003;1.823288e-001
1.616123e+003;1.951161e-001
1.618052e+003;2.103217e-001
1.619980e+003;2.269996e-001
1.621909e+003;2.442477e-001
1.623837e+003;2.618187e-001
1.625766e+003;2.793629e-001
1.627694e+003;2.975241e-001
1.629623e+003;3.161564e-001
1.631552e+003;3.335119e-001
1.633480e+003;3.471975e-001
1.635409e+003;3.534944e-001
1.637337e+003;3.506532e-001
1.639266e+003;3.385755e-001
1.641194e+003;3.193401e-001
1.643123e+003;2.969570e-001
1.645051e+003;2.736957e-001
1.646980e+003;2.510033e-001
1.648909e+003;2.310761e-001
1.650837e+003;2.136127e-001
1.652766e+003;1.981332e-001
1.654694e+003;1.860399e-001
1.656623e+003;1.758205e-001
1.658551e+003;1.661690e-001
1.660480e+003;1.568511e-001
1.662408e+003;1.478597e-001
1.664337e+003;1.391358e-001
1.666266e+003;1.298623e-001
1.668194e+003;1.205848e-001
1.670123e+003;1.119479e-001
1.672051e+003;1.043742e-001
1.673980e+003;9.760659e-002
1.675908e+003;9.115638e-002
1.677837e+003;8.477483e-002
1.679765e+003;7.833464e-002
1.681694e+003;7.193642e-002
1.683622e+003;6.582272e-002
1.685551e+003;6.076995e-002
1.687479e+003;5.684064e-002
1.689408e+003;5.354840e-002
1.691337e+003;5.102992e-002
1.693265e+003;4.894862e-002
1.695194e+003;4.713222e-002
1.697122e+003;4.610480e-002
1.699051e+003;4.532082e-002
1.700979e+003;4.457886e-002
1.702908e+003;4.443679e-002
1.704836e+003;4.422968e-002
1.706765e+003;4.409316e-002
1.708693e+003;4.412341e-002
1.710622e+003;4.400771e-002
1.712551e+003;4.371282e-002
1.714479e+003;4.378828e-002
1.716408e+003;4.402003e-002
1.718336e+003;4.435106e-002
1.720265e+003;4.479697e-002
1.722193e+003;4.505381e-002
1.724122e+003;4.504213e-002
1.726050e+003;4.497347e-002
1.727979e+003;4.464433e-002
1.729908e+003;4.427323e-002
1.731836e+003;4.373690e-002
1.733765e+003;4.304984e-002
1.735693e+003;4.279176e-002
1.737622e+003;4.247343e-002
1.739550e+003;4.186554e-002
1.741479e+003;4.127477e-002
1.743407e+003;4.068918e-002
1.745336e+003;4.027615e-002
1.747265e+003;3.985083e-002
1.749193e+003;3.938995e-002
1.751122e+003;3.893781e-002
1.753050e+003;3.870219e-002
1.754979e+003;3.834645e-002
1.756907e+003;3.796352e-002
1.758836e+003;3.752345e-002
1.760764e+003;3.704741e-002
1.762693e+003;3.662939e-002
1.764621e+003;3.620781e-002
1.766550e+003;3.597259e-002
1.768479e+003;3.575498e-002
1.770407e+003;3.525512e-002
1.772336e+003;3.478823e-002
1.774264e+003;3.446420e-002
1.776193e+003;3.412396e-002
1.778121e+003;3.386189e-002
1.780050e+003;3.355891e-002
1.781978e+003;3.328090e-002
1.783907e+003;3.316623e-002
1.785835e+003;3.306553e-002
1.787764e+003;3.282239e-002
1.789693e+003;3.241766e-002
1.791621e+003;3.206147e-002
1.793550e+003;3.192433e-002
1.795478e+003;3.198849e-002
1.797407e+003;3.211690e-002
1.799335e+003;3.200361e-002
1.801264e+003;3.175864e-002
1.803192e+003;3.162202e-002
1.805121e+003;3.135693e-002
1.807049e+003;3.124305e-002
1.808978e+003;3.145111e-002
1.810907e+003;3.159280e-002
1.812835e+003;3.136395e-002
1.814764e+003;3.122528e-002
1.816692e+003;3.102872e-002
1.818621e+003;3.081365e-002
1.820549e+003;3.081155e-002
1.822478e+003;3.080910e-002
1.824406e+003;3.079081e-002
1.826335e+003;3.087718e-002
1.828264e+003;3.072697e-002
1.830192e+003;3.063501e-002
1.832121e+003;3.070176e-002
1.834049e+003;3.061770e-002
1.835978e+003;3.064013e-002
1.837906e+003;3.053291e-002
1.839835e+003;3.020713e-002
1.841763e+003;3.021605e-002
1.843692e+003;3.015450e-002
1.845620e+003;3.004583e-002
1.847549e+003;2.995338e-002
1.849478e+003;3.002296e-002
1.851406e+003;3.005613e-002
1.853335e+003;2.996715e-002
1.855263e+003;2.998171e-002
1.857192e+003;2.984859e-002
1.859120e+003;2.980956e-002
1.861049e+003;2.977276e-002
1.862977e+003;2.961566e-002
1.864906e+003;2.975161e-002
1.866834e+003;2.973390e-002
1.868763e+003;2.966156e-002
1.870692e+003;2.954121e-002
1.872620e+003;2.944390e-002
1.874549e+003;2.948095e-002
1.876477e+003;2.956146e-002
1.878406e+003;2.959810e-002
1.880334e+003;2.960913e-002
1.882263e+003;2.961303e-002
1.884191e+003;2.955621e-002
1.886120e+003;2.955128e-002
1.888048e+003;2.966738e-002
1.889977e+003;2.978589e-002
1.891906e+003;2.973958e-002
1.893834e+003;2.981634e-002
1.895763e+003;3.015862e-002
1.897691e+003;3.022813e-002
1.899620e+003;2.999726e-002
1.901548e+003;2.994575e-002
1.903477e+003;3.019147e-002
1.905405e+003;3.020799e-002
1.907334e+003;2.990070e-002
1.909262e+003;2.977357e-002
1.911191e+003;2.976424e-002
1.913120e+003;2.966997e-002
1.915048e+003;2.951397e-002
1.916977e+003;2.947914e-002
1.918905e+003;2.948028e-002
1.920834e+003;2.942234e-002
1.922762e+003;2.949471e-002
1.924691e+003;2.961349e-002
1.926619e+003;2.954234e-002
1.928548e+003;2.941174e-002
1.930477e+003;2.937791e-002
1.932405e+003;2.928419e-002
1.934334e+003;2.938178e-002
1.936262e+003;2.954965e-002
1.938191e+003;2.965620e-002
1.940119e+003;2.961445e-002
1.942048e+003;2.946095e-002
1.943976e+003;2.943620e-002
1.945905e+003;2.938327e-002
1.947833e+003;2.946259e-002
1.949762e+003;2.950666e-002
1.951691e+003;2.945156e-002
1.953619e+003;2.960750e-002
1.955548e+003;2.963577e-002
1.957476e+003;2.964613e-002
1.959405e+003;2.966348e-002
1.961333e+003;2.958657e-002
1.963262e+003;2.963038e-002
1.965190e+003;2.981523e-002
1.967119e+003;2.984937e-002
1.969047e+003;2.962570e-002
1.970976e+003;2.967373e-002
1.972905e+003;2.996566e-002
1.974833e+003;3.004157e-002
1.976762e+003;3.006390e-002
1.978690e+003;3.017144e-002
1.980619e+003;3.015819e-002
1.982547e+003;3.001054e-002
1.984476e+003;3.007694e-002
1.986404e+003;3.024465e-002
1.988333e+003;3.026493e-002
1.990261e+003;3.010705e-002
1.992190e+003;3.002350e-002
1.994119e+003;3.014040e-002
1.996047e+003;3.021516e-002
1.997976e+003;3.009672e-002
1.999904e+003;3.007417e-002
2.001833e+003;3.027470e-002
2.003761e+003;3.023100e-002
2.005690e+003;3.018799e-002
2.007618e+003;3.024951e-002
2.009547e+003;3.023054e-002
2.011476e+003;3.024223e-002
2.013404e+003;3.039010e-002
2.015333e+003;3.051155e-002
2.017261e+003;3.056320e-002
2.019190e+003;3.074020e-002
2.021118e+003;3.074753e-002
2.023047e+003;3.081585e-002
2.024975e+003;3.096076e-002
2.026904e+003;3.096730e-002
2.028833e+003;3.107876e-002
2.030761e+003;3.115576e-002
2.032690e+003;3.126403e-002
2.034618e+003;3.138568e-002
2.036547e+003;3.144630e-002
2.038475e+003;3.174962e-002
2.040404e+003;3.188917e-002
2.042332e+003;3.161240e-002
2.044261e+003;3.153544e-002
2.046189e+003;3.155984e-002
2.048118e+003;3.153764e-002
2.050047e+003;3.142129e-002
2.051975e+003;3.133265e-002
2.053904e+003;3.134140e-002
2.055832e+003;3.137620e-002
2.057761e+003;3.143419e-002
2.059689e+003;3.171580e-002
2.061618e+003;3.201035e-002
2.063546e+003;3.208062e-002
2.065475e+003;3.200457e-002
2.067404e+003;3.198642e-002
2.069332e+003;3.194658e-002
2.071260e+003;3.194048e-002
2.073189e+003;3.203040e-002
2.075118e+003;3.202123e-002
2.077046e+003;3.200076e-002
2.078975e+003;3.185444e-002
2.080903e+003;3.163318e-002
2.082832e+003;3.152493e-002
2.084760e+003;3.148695e-002
2.086689e+003;3.152927e-002
2.088617e+003;3.155311e-002
2.090546e+003;3.142076e-002
2.092475e+003;3.129322e-002
2.094403e+003;3.131936e-002
2.096332e+003;3.152806e-002
2.098260e+003;3.149660e-002
2.100189e+003;3.122966e-002
2.102117e+003;3.119442e-002
2.104046e+003;3.143084e-002
2.105974e+003;3.148894e-002
2.107903e+003;3.164366e-002
2.109832e+003;3.189095e-002
2.111760e+003;3.196648e-002
2.113688e+003;3.188072e-002
2.115617e+003;3.188075e-002
2.117546e+003;3.213888e-002
2.119474e+003;3.231421e-002
2.121403e+003;3.217417e-002
2.123331e+003;3.210310e-002
2.125260e+003;3.213624e-002
2.127188e+003;3.234212e-002
2.129117e+003;3.252792e-002
2.131045e+003;3.246711e-002
2.132974e+003;3.247361e-002
2.134903e+003;3.242091e-002
2.136831e+003;3.228087e-002
2.138760e+003;3.199227e-002
2.140688e+003;3.198389e-002
2.142617e+003;3.222816e-002
2.144545e+003;3.226524e-002
2.146474e+003;3.231093e-002
2.148402e+003;3.227755e-002
2.150331e+003;3.234141e-002
2.152260e+003;3.259375e-002
2.154188e+003;3.289372e-002
2.156117e+003;3.288250e-002
2.158045e+003;3.267340e-002
2.159974e+003;3.244108e-002
2.161902e+003;3.224329e-002
2.163831e+003;3.229276e-002
2.165759e+003;3.282728e-002
2.167688e+003;3.316605e-002
2.169616e+003;3.303217e-002
2.171545e+003;3.313333e-002
2.173474e+003;3.334272e-002
2.175402e+003;3.351581e-002
2.177331e+003;3.347057e-002
2.179259e+003;3.344109e-002
2.181188e+003;3.352863e-002
2.183116e+003;3.347544e-002
2.185045e+003;3.337721e-002
2.186973e+003;3.333982e-002
2.188902e+003;3.339722e-002
2.190831e+003;3.344774e-002
2.192759e+003;3.344631e-002
2.194688e+003;3.346059e-002
2.196616e+003;3.334830e-002
2.198545e+003;3.319627e-002
2.200473e+003;3.317774e-002
2.202402e+003;3.337446e-002
2.204330e+003;3.346277e-002
2.206259e+003;3.336472e-002
2.208188e+003;3.322674e-002
2.210116e+003;3.309724e-002
2.212044e+003;3.290055e-002
2.213973e+003;3.266415e-002
2.215902e+003;3.245354e-002
2.217830e+003;3.232895e-002
2.219759e+003;3.236808e-002
2.221687e+003;3.249557e-002
2.223616e+003;3.251471e-002
2.225544e+003;3.246126e-002
2.227473e+003;3.223062e-002
2.229401e+003;3.207295e-002
2.231330e+003;3.221603e-002
2.233259e+003;3.245512e-002
2.235187e+003;3.248229e-002
2.237116e+003;3.226007e-002
2.239044e+003;3.225932e-002
2.240973e+003;3.213499e-002
2.242901e+003;3.194790e-002
2.244830e+003;3.202719e-002
2.246758e+003;3.194797e-002
2.248687e+003;3.173041e-002
2.250615e+003;3.183440e-002
2.252544e+003;3.206828e-002
2.254473e+003;3.220022e-002
2.256401e+003;3.243037e-002
2.258330e+003;3.256167e-002
2.260258e+003;3.241252e-002
2.262187e+003;3.220643e-002
2.264115e+003;3.229287e-002
2.266044e+003;3.264389e-002
2.267972e+003;3.279827e-002
2.269901e+003;3.272052e-002
2.271830e+003;3.266415e-002
2.273758e+003;3.267033e-002
2.275687e+003;3.265579e-002
2.277615e+003;3.266926e-002
2.279544e+003;3.266290e-002
2.281472e+003;3.266558e-002
2.283401e+003;3.268362e-002
2.285329e+003;3.291024e-002
2.287258e+003;3.319877e-002
2.289187e+003;3.316730e-002
2.291115e+003;3.294448e-002
2.293043e+003;3.303528e-002
2.294972e+003;3.318776e-002
2.296901e+003;3.319316e-002
2.298829e+003;3.322564e-002
2.300758e+003;3.320167e-002
2.302686e+003;3.318279e-002
2.304615e+003;3.314731e-002
2.306543e+003;3.318461e-002
2.308472e+003;3.328187e-002
2.310400e+003;3.327793e-002
2.312329e+003;3.321909e-002
2.314258e+003;3.318275e-002
2.316186e+003;3.310636e-002
2.318115e+003;3.327189e-002
2.320043e+003;3.341997e-002
2.321972e+003;3.336823e-002
2.323900e+003;3.329553e-002
2.325829e+003;3.338766e-002
2.327757e+003;3.348643e-002
2.329686e+003;3.360015e-002
2.331615e+003;3.369528e-002
2.333543e+003;3.363939e-002
2.335472e+003;3.365510e-002
2.337400e+003;3.359145e-002
2.339329e+003;3.346778e-002
2.341257e+003;3.331331e-002
2.343186e+003;3.293858e-002
2.345114e+003;3.291278e-002
2.347043e+003;3.308494e-002
2.348971e+003;3.307300e-002
2.350900e+003;3.306317e-002
2.352829e+003;3.299410e-002
2.354757e+003;3.304379e-002
2.356686e+003;3.307912e-002
2.358614e+003;3.305984e-002
2.360543e+003;3.313118e-002
2.362471e+003;3.321158e-002
2.364400e+003;3.318923e-002
2.366328e+003;3.312396e-002
2.368257e+003;3.322513e-002
2.370186e+003;3.337335e-002
2.372114e+003;3.349284e-002
2.374042e+003;3.339750e-002
2.375971e+003;3.326369e-002
2.377900e+003;3.336505e-002
2.379828e+003;3.350483e-002
2.381757e+003;3.372915e-002
2.383685e+003;3.384684e-002
2.385614e+003;3.380866e-002
2.387542e+003;3.369073e-002
2.389471e+003;3.358576e-002
2.391399e+003;3.352258e-002
2.393328e+003;3.357108e-002
2.395257e+003;3.368629e-002
2.397185e+003;3.378495e-002
2.399114e+003;3.366892e-002
2.401042e+003;3.354001e-002
2.402971e+003;3.349269e-002
2.404899e+003;3.348378e-002
2.406828e+003;3.336773e-002
2.408756e+003;3.344012e-002
2.410685e+003;3.335353e-002
2.412614e+003;3.335392e-002
2.414542e+003;3.356969e-002
2.416471e+003;3.383821e-002
2.418399e+003;3.403246e-002
2.420328e+003;3.381177e-002
2.422256e+003;3.379487e-002
2.424185e+003;3.398871e-002
2.426113e+003;3.406203e-002
2.428042e+003;3.401838e-002
2.429970e+003;3.401845e-002
2.431899e+003;3.393339e-002
2.433828e+003;3.390960e-002
2.435756e+003;3.414790e-002
2.437685e+003;3.436112e-002
2.439613e+003;3.440610e-002
2.441542e+003;3.448153e-002
2.443470e+003;3.473116e-002
2.445399e+003;3.498410e-002
2.447327e+003;3.518929e-002
2.449256e+003;3.522446e-002
2.451185e+003;3.511323e-002
2.453113e+003;3.505866e-002
2.455042e+003;3.526068e-002
2.456970e+003;3.546870e-002
2.458899e+003;3.553090e-002
2.460827e+003;3.536218e-002
2.462756e+003;3.534331e-002
2.464684e+003;3.555518e-002
2.466613e+003;3.548966e-002
2.468542e+003;3.545630e-002
2.470470e+003;3.580543e-002
2.472398e+003;3.600578e-002
2.474327e+003;3.594758e-002
2.476256e+003;3.615171e-002
2.478184e+003;3.641862e-002
2.480113e+003;3.621217e-002
2.482041e+003;3.603192e-002
2.483970e+003;3.612816e-002
2.485898e+003;3.630741e-002
2.487827e+003;3.625968e-002
2.489755e+003;3.622571e-002
2.491684e+003;3.623072e-002
2.493613e+003;3.602623e-002
2.495541e+003;3.587085e-002
2.497470e+003;3.590381e-002
2.499398e+003;3.607710e-002
2.501327e+003;3.612690e-002
2.503255e+003;3.626314e-002
2.505184e+003;3.646745e-002
2.507112e+003;3.628367e-002
2.509041e+003;3.632153e-002
2.510969e+003;3.666829e-002
2.512898e+003;3.684780e-002
2.514827e+003;3.693351e-002
2.516755e+003;3.685671e-002
2.518684e+003;3.701670e-002
2.520612e+003;3.737926e-002
2.522541e+003;3.739472e-002
2.524469e+003;3.753486e-002
2.526398e+003;3.785512e-002
2.528326e+003;3.787223e-002
2.530255e+003;3.815807e-002
2.532184e+003;3.865818e-002
2.534112e+003;3.877134e-002
2.536041e+003;3.859567e-002
2.537969e+003;3.846847e-002
2.539898e+003;3.853234e-002
2.541826e+003;3.859723e-002
2.543755e+003;3.876403e-002
2.545683e+003;3.897253e-002
2.547612e+003;3.899090e-002
2.549541e+003;3.919988e-002
2.551469e+003;3.932080e-002
2.553397e+003;3.919633e-002
2.555326e+003;3.918066e-002
2.557255e+003;3.927974e-002
2.559183e+003;3.921068e-002
2.561112e+003;3.921090e-002
2.563040e+003;3.935301e-002
2.564969e+003;3.946831e-002
2.566897e+003;3.980442e-002
2.568826e+003;3.997553e-002
2.570754e+003;3.980228e-002
2.572683e+003;3.989529e-002
2.574612e+003;4.006571e-002
2.576540e+003;4.003918e-002
2.578469e+003;4.008231e-002
2.580397e+003;4.034122e-002
2.582326e+003;4.061753e-002
2.584254e+003;4.062183e-002
2.586183e+003;4.058144e-002
2.588111e+003;4.070100e-002
2.590040e+003;4.077037e-002
2.591969e+003;4.067371e-002
2.593897e+003;4.062063e-002
2.595826e+003;4.069380e-002
2.597754e+003;4.084757e-002
2.599683e+003;4.093272e-002
2.601611e+003;4.105616e-002
2.603540e+003;4.118799e-002
2.605468e+003;4.122996e-002
2.607397e+003;4.119651e-002
2.609325e+003;4.133723e-002
2.611254e+003;4.131919e-002
2.613183e+003;4.128723e-002
2.615111e+003;4.164612e-002
2.617040e+003;4.199358e-002
2.618968e+003;4.191862e-002
2.620897e+003;4.168868e-002
2.622825e+003;4.167978e-002
2.624754e+003;4.181413e-002
2.626682e+003;4.188287e-002
2.628611e+003;4.186203e-002
2.630540e+003;4.191468e-002
2.632468e+003;4.216790e-002
2.634396e+003;4.225846e-002
2.636325e+003;4.195490e-002
2.638254e+003;4.213354e-002
2.640182e+003;4.259527e-002
2.642111e+003;4.258650e-002
2.644039e+003;4.254597e-002
2.645968e+003;4.258463e-002
2.647896e+003;4.258719e-002
2.649825e+003;4.276533e-002
2.651753e+003;4.306319e-002
2.653682e+003;4.329270e-002
2.655611e+003;4.327538e-002
2.657539e+003;4.327872e-002
2.659468e+003;4.350240e-002
2.661396e+003;4.341931e-002
2.663325e+003;4.317308e-002
2.665253e+003;4.336306e-002
2.667182e+003;4.363211e-002
2.669110e+003;4.352628e-002
2.671039e+003;4.352694e-002
2.672968e+003;4.402836e-002
2.674896e+003;4.445345e-002
2.676825e+003;4.448770e-002
2.678753e+003;4.427841e-002
2.680682e+003;4.436199e-002
2.682610e+003;4.456777e-002
2.684539e+003;4.463210e-002
2.686467e+003;4.455841e-002
2.688396e+003;4.441426e-002
2.690324e+003;4.461928e-002
2.692253e+003;4.521660e-002
2.694182e+003;4.560742e-002
2.696110e+003;4.568607e-002
2.698039e+003;4.597778e-002
2.699967e+003;4.623989e-002
2.701896e+003;4.631789e-002
2.703824e+003;4.647348e-002
2.705753e+003;4.648208e-002
2.707681e+003;4.655078e-002
2.709610e+003;4.669981e-002
2.711539e+003;4.684879e-002
2.713467e+003;4.712949e-002
2.715396e+003;4.760019e-002
2.717324e+003;4.816790e-002
2.719253e+003;4.845727e-002
2.721181e+003;4.846586e-002
2.723110e+003;4.849743e-002
2.725038e+003;4.882213e-002
2.726967e+003;4.915669e-002
2.728896e+003;4.918816e-002
2.730824e+003;4.937685e-002
2.732752e+003;4.985817e-002
2.734681e+003;5.017485e-002
2.736610e+003;5.029667e-002
2.738538e+003;5.063282e-002
2.740467e+003;5.098837e-002
2.742395e+003;5.114374e-002
2.744324e+003;5.107393e-002
2.746252e+003;5.121129e-002
2.748181e+003;5.143477e-002
2.750109e+003;5.135596e-002
2.752038e+003;5.107162e-002
2.753967e+003;5.103946e-002
2.755895e+003;5.126490e-002
2.757824e+003;5.154172e-002
2.759752e+003;5.181775e-002
2.761681e+003;5.199758e-002
2.763609e+003;5.207580e-002
2.765538e+003;5.208528e-002
2.767466e+003;5.219968e-002
2.769395e+003;5.250530e-002
2.771323e+003;5.281011e-002
2.773252e+003;5.295247e-002
2.775181e+003;5.319322e-002
2.777109e+003;5.331465e-002
2.779038e+003;5.352936e-002
2.780966e+003;5.387660e-002
2.782895e+003;5.429678e-002
2.784823e+003;5.465557e-002
2.786752e+003;5.506171e-002
2.788680e+003;5.559437e-002
2.790609e+003;5.588448e-002
2.792538e+003;5.590525e-002
2.794466e+003;5.599178e-002
2.796395e+003;5.621758e-002
2.798323e+003;5.664980e-002
2.800252e+003;5.700650e-002
2.802180e+003;5.720294e-002
2.804109e+003;5.788139e-002
2.806037e+003;5.846763e-002
2.807966e+003;5.870774e-002
2.809895e+003;5.923491e-002
2.811823e+003;5.958792e-002
2.813751e+003;5.995526e-002
2.815680e+003;6.061776e-002
2.817609e+003;6.117361e-002
2.819537e+003;6.176890e-002
2.821466e+003;6.238858e-002
2.823394e+003;6.303094e-002
2.825323e+003;6.359057e-002
2.827251e+003;6.395575e-002
2.829180e+003;6.480775e-002
2.831108e+003;6.578852e-002
2.833037e+003;6.654100e-002
2.834966e+003;6.766798e-002
2.836894e+003;6.926539e-002
2.838823e+003;7.162640e-002
2.840751e+003;7.443182e-002
2.842680e+003;7.773840e-002
2.844608e+003;8.169813e-002
2.846537e+003;8.585748e-002
2.848465e+003;9.026501e-002
2.850394e+003;9.513620e-002
2.852323e+003;9.936476e-002
2.854251e+003;1.026199e-001
2.856180e+003;1.048686e-001
2.858108e+003;1.062922e-001
2.860037e+003;1.071237e-001
2.861965e+003;1.074255e-001
2.863894e+003;1.069835e-001
2.865822e+003;1.057040e-001
2.867751e+003;1.040314e-001
2.869679e+003;1.019039e-001
2.871608e+003;9.966092e-002
2.873536e+003;9.725470e-002
2.875465e+003;9.439354e-002
2.877394e+003;9.139469e-002
2.879322e+003;8.900460e-002
2.881251e+003;8.722161e-002
2.883179e+003;8.578525e-002
2.885108e+003;8.500583e-002
2.887036e+003;8.514336e-002
2.888965e+003;8.636507e-002
2.890893e+003;8.815651e-002
2.892822e+003;9.013341e-002
2.894750e+003;9.216342e-002
2.896679e+003;9.414934e-002
2.898608e+003;9.576034e-002
2.900536e+003;9.671602e-002
2.902465e+003;9.730308e-002
2.904393e+003;9.790908e-002
2.906322e+003;9.905930e-002
2.908250e+003;1.010829e-001
2.910179e+003;1.030892e-001
2.912107e+003;1.052173e-001
2.914036e+003;1.077393e-001
2.915965e+003;1.104164e-001
2.917893e+003;1.133402e-001
2.919822e+003;1.172349e-001
2.921750e+003;1.209571e-001
2.923679e+003;1.240528e-001
2.925607e+003;1.272461e-001
2.927536e+003;1.302592e-001
2.929464e+003;1.324059e-001
2.931393e+003;1.340511e-001
2.933322e+003;1.351314e-001
2.935250e+003;1.352258e-001
2.937178e+003;1.341106e-001
2.939107e+003;1.318439e-001
2.941036e+003;1.287138e-001
2.942964e+003;1.251985e-001
2.944893e+003;1.213241e-001
2.946821e+003;1.163274e-001
2.948750e+003;1.101331e-001
2.950678e+003;1.034223e-001
2.952607e+003;9.698561e-002
2.954535e+003;9.126013e-002
2.956464e+003;8.598836e-002
2.958393e+003;8.159585e-002
2.960321e+003;7.800963e-002
2.962250e+003;7.480348e-002
2.964178e+003;7.219157e-002
2.966107e+003;6.965855e-002
2.968035e+003;6.724388e-002
2.969964e+003;6.506040e-002
2.971892e+003;6.297615e-002
2.973821e+003;6.130703e-002
2.975750e+003;5.954775e-002
2.977678e+003;5.774395e-002
2.979607e+003;5.623456e-002
2.981535e+003;5.511877e-002
2.983464e+003;5.462611e-002
2.985392e+003;5.395688e-002
2.987321e+003;5.310840e-002
2.989249e+003;5.246955e-002
2.991178e+003;5.194589e-002
2.993106e+003;5.152415e-002
2.995035e+003;5.138990e-002
2.996964e+003;5.120085e-002
2.998892e+003;5.081570e-002
3.000821e+003;5.067005e-002
3.002749e+003;5.069228e-002
3.004678e+003;5.087615e-002
3.006606e+003;5.095934e-002
3.008535e+003;5.116212e-002
3.010463e+003;5.127527e-002
3.012392e+003;5.119694e-002
3.014321e+003;5.134485e-002
3.016249e+003;5.149643e-002
3.018177e+003;5.181794e-002
3.020106e+003;5.245220e-002
3.022035e+003;5.292459e-002
3.023963e+003;5.322913e-002
3.025892e+003;5.346284e-002
3.027820e+003;5.366113e-002
3.029749e+003;5.429707e-002
3.031677e+003;5.494170e-002
3.033606e+003;5.529087e-002
3.035534e+003;5.561866e-002
3.037463e+003;5.603487e-002
3.039392e+003;5.664708e-002
3.041320e+003;5.738207e-002
3.043249e+003;5.808079e-002
3.045177e+003;5.885091e-002
3.047106e+003;5.989961e-002
3.049034e+003;6.074845e-002
3.050963e+003;6.132729e-002
3.052891e+003;6.206011e-002
3.054820e+003;6.297309e-002
3.056749e+003;6.360480e-002
3.058677e+003;6.386612e-002
3.060606e+003;6.397115e-002
3.062534e+003;6.431454e-002
3.064463e+003;6.500940e-002
3.066391e+003;6.571396e-002
3.068320e+003;6.608985e-002
3.070248e+003;6.602542e-002
3.072177e+003;6.597867e-002
3.074105e+003;6.601277e-002
3.076034e+003;6.634424e-002
3.077963e+003;6.675045e-002
3.079891e+003;6.637435e-002
3.081820e+003;6.595758e-002
3.083748e+003;6.587435e-002
3.085677e+003;6.585619e-002
3.087605e+003;6.546672e-002
3.089534e+003;6.501644e-002
3.091462e+003;6.458224e-002
3.093391e+003;6.413185e-002
3.095320e+003;6.377063e-002
3.097248e+003;6.321160e-002
3.099177e+003;6.238758e-002
3.101105e+003;6.169656e-002
3.103034e+003;6.104947e-002
3.104962e+003;6.066637e-002
3.106891e+003;6.030441e-002
3.108819e+003;5.939120e-002
3.110748e+003;5.844402e-002
3.112677e+003;5.805568e-002
3.114605e+003;5.784683e-002
3.116533e+003;5.753380e-002
3.118462e+003;5.719266e-002
3.120391e+003;5.670319e-002
3.122319e+003;5.623852e-002
3.124248e+003;5.582102e-002
3.126176e+003;5.537427e-002
3.128105e+003;5.526521e-002
3.130033e+003;5.539370e-002
3.131962e+003;5.555954e-002
3.133890e+003;5.558424e-002
3.135819e+003;5.557999e-002
3.137748e+003;5.563523e-002
3.139676e+003;5.552870e-002
3.141605e+003;5.531970e-002
3.143533e+003;5.551160e-002
3.145462e+003;5.582875e-002
3.147390e+003;5.590272e-002
3.149319e+003;5.593189e-002
3.151247e+003;5.648260e-002
3.153176e+003;5.700310e-002
3.155104e+003;5.714027e-002
3.157033e+003;5.747290e-002
3.158962e+003;5.784084e-002
3.160890e+003;5.801372e-002
3.162819e+003;5.816462e-002
3.164747e+003;5.831886e-002
3.166676e+003;5.834270e-002
3.168604e+003;5.872587e-002
3.170533e+003;5.987090e-002
3.172461e+003;6.070894e-002
3.174390e+003;6.120981e-002
3.176319e+003;6.189975e-002
3.178247e+003;6.249386e-002
3.180176e+003;6.295865e-002
3.182104e+003;6.375413e-002
3.184033e+003;6.444859e-002
3.185961e+003;6.487735e-002
3.187890e+003;6.529863e-002
3.189818e+003;6.549627e-002
3.191747e+003;6.583922e-002
3.193676e+003;6.652185e-002
3.195604e+003;6.719391e-002
3.197532e+003;6.771998e-002
3.199461e+003;6.790238e-002
3.201390e+003;6.804512e-002
3.203318e+003;6.834460e-002
3.205247e+003;6.851194e-002
3.207175e+003;6.886081e-002
3.209104e+003;6.936407e-002
3.211032e+003;6.981028e-002
3.212961e+003;7.001107e-002
3.214889e+003;7.037102e-002
3.216818e+003;7.106628e-002
3.218747e+003;7.179825e-002
3.220675e+003;7.237945e-002
3.222604e+003;7.299267e-002
3.224532e+003;7.378417e-002
3.226461e+003;7.484674e-002
3.228389e+003;7.561214e-002
3.230318e+003;7.634017e-002
3.232246e+003;7.745392e-002
3.234175e+003;7.850245e-002
3.236104e+003;7.958814e-002
3.238032e+003;8.100703e-002
3.239961e+003;8.222920e-002
3.241889e+003;8.400869e-002
3.243818e+003;8.607056e-002
3.245746e+003;8.781442e-002
3.247675e+003;8.958454e-002
3.249603e+003;9.130649e-002
3.251532e+003;9.296425e-002
3.253460e+003;9.472705e-002
3.255389e+003;9.683762e-002
3.257318e+003;9.919922e-002
3.259246e+003;1.015810e-001
3.261175e+003;1.037670e-001
3.263103e+003;1.057780e-001
3.265032e+003;1.080267e-001
3.266960e+003;1.104626e-001
3.268889e+003;1.128865e-001
3.270817e+003;1.150549e-001
3.272746e+003;1.175367e-001
3.274675e+003;1.202091e-001
3.276603e+003;1.224177e-001
3.278531e+003;1.250184e-001
3.280460e+003;1.277200e-001
3.282389e+003;1.305514e-001
3.284317e+003;1.332417e-001
3.286246e+003;1.351491e-001
3.288174e+003;1.369635e-001
3.290103e+003;1.388074e-001
3.292031e+003;1.398613e-001
3.293960e+003;1.401161e-001
3.295888e+003;1.392150e-001
3.297817e+003;1.370277e-001
3.299746e+003;1.342303e-001
3.301674e+003;1.313795e-001
3.303603e+003;1.284699e-001
3.305531e+003;1.250746e-001
3.307460e+003;1.209694e-001
3.309388e+003;1.170085e-001
3.311317e+003;1.134486e-001
3.313245e+003;1.100881e-001
3.315174e+003;1.068216e-001
3.317103e+003;1.039070e-001
3.319031e+003;1.007589e-001
3.320960e+003;9.736779e-002
3.322888e+003;9.399474e-002
3.324817e+003;9.081335e-002
3.326745e+003;8.790322e-002
3.328674e+003;8.553579e-002
3.330602e+003;8.338776e-002
3.332531e+003;8.084818e-002
3.334459e+003;7.825059e-002
3.336388e+003;7.623953e-002
3.338317e+003;7.436324e-002
3.340245e+003;7.273497e-002
3.342174e+003;7.098190e-002
3.344102e+003;6.934433e-002
3.346031e+003;6.814907e-002
3.347959e+003;6.672411e-002
3.349888e+003;6.488600e-002
3.351816e+003;6.343525e-002
3.353745e+003;6.238460e-002
3.355674e+003;6.129482e-002
3.357602e+003;6.027700e-002
3.359531e+003;5.919473e-002
3.361459e+003;5.816451e-002
3.363388e+003;5.734456e-002
3.365316e+003;5.656306e-002
3.367245e+003;5.596969e-002
3.369173e+003;5.511674e-002
3.371102e+003;5.441371e-002
3.373031e+003;5.363042e-002
3.374959e+003;5.292216e-002
3.376887e+003;5.245807e-002
3.378816e+003;5.211928e-002
3.380745e+003;5.180577e-002
3.382673e+003;5.140344e-002
3.384602e+003;5.096709e-002
3.386530e+003;5.050640e-002
3.388459e+003;5.004451e-002
3.390387e+003;4.971499e-002
3.392316e+003;4.927793e-002
3.394244e+003;4.905574e-002
3.396173e+003;4.888487e-002
3.398102e+003;4.832863e-002
3.400030e+003;4.783783e-002
3.401959e+003;4.776382e-002
3.403887e+003;4.778250e-002
3.405816e+003;4.718921e-002
3.407744e+003;4.674874e-002
3.409673e+003;4.655144e-002
3.411601e+003;4.646279e-002
3.413530e+003;4.649708e-002
3.415458e+003;4.629459e-002
3.417387e+003;4.647850e-002
3.419316e+003;4.688367e-002
3.421244e+003;4.674044e-002
3.423173e+003;4.613395e-002
3.425101e+003;4.585145e-002
3.427030e+003;4.591745e-002
3.428958e+003;4.581618e-002
3.430887e+003;4.584939e-002
3.432815e+003;4.602154e-002
3.434744e+003;4.599778e-002
3.436673e+003;4.585790e-002
3.438601e+003;4.591678e-002
3.440530e+003;4.569763e-002
3.442458e+003;4.547282e-002
3.444387e+003;4.529405e-002
3.446315e+003;4.526481e-002
3.448244e+003;4.555476e-002
3.450172e+003;4.500795e-002
3.452101e+003;4.437264e-002
3.454030e+003;4.448825e-002
3.455958e+003;4.460551e-002
3.457886e+003;4.432739e-002
3.459815e+003;4.406921e-002
3.461744e+003;4.420646e-002
3.463672e+003;4.424509e-002
3.465601e+003;4.367516e-002
3.467529e+003;4.343432e-002
3.469458e+003;4.363980e-002
3.471386e+003;4.341532e-002
3.473315e+003;4.295787e-002
3.475243e+003;4.283677e-002
3.477172e+003;4.289357e-002
3.479101e+003;4.255543e-002
3.481029e+003;4.243996e-002
3.482958e+003;4.284307e-002
3.484886e+003;4.304556e-002
3.486815e+003;4.283407e-002
3.488743e+003;4.262813e-002
3.490672e+003;4.252247e-002
3.492600e+003;4.266527e-002
3.494529e+003;4.268691e-002
3.496458e+003;4.220372e-002
3.498386e+003;4.180862e-002
3.500315e+003;4.221818e-002
3.502243e+003;4.255021e-002
3.504172e+003;4.217378e-002
3.506100e+003;4.198837e-002
3.508029e+003;4.193727e-002
3.509957e+003;4.146928e-002
3.511886e+003;4.111222e-002
3.513814e+003;4.126686e-002
3.515743e+003;4.140283e-002
3.517672e+003;4.107885e-002
3.519600e+003;4.044359e-002
3.521529e+003;4.030305e-002
3.523457e+003;4.046123e-002
3.525386e+003;4.056191e-002
3.527314e+003;4.036649e-002
3.529243e+003;4.000419e-002
3.531171e+003;4.006959e-002
3.533100e+003;4.007043e-002
3.535029e+003;3.957933e-002
3.536957e+003;3.925388e-002
3.538885e+003;3.924093e-002
3.540814e+003;3.881392e-002
3.542743e+003;3.846648e-002
3.544671e+003;3.861675e-002
3.546600e+003;3.858553e-002
3.548528e+003;3.833118e-002
3.550457e+003;3.782457e-002
3.552385e+003;3.749249e-002
3.554314e+003;3.744770e-002
3.556242e+003;3.752529e-002
3.558171e+003;3.756781e-002
3.560100e+003;3.697579e-002
3.562028e+003;3.599747e-002
3.563957e+003;3.553594e-002
3.565885e+003;3.583831e-002
3.567814e+003;3.605841e-002
3.569742e+003;3.588535e-002
3.571671e+003;3.564537e-002
3.573599e+003;3.525091e-002
3.575528e+003;3.510238e-002
3.577457e+003;3.481566e-002
3.579385e+003;3.438935e-002
3.581314e+003;3.415468e-002
3.583242e+003;3.359485e-002
3.585171e+003;3.317857e-002
3.587099e+003;3.282893e-002
3.589028e+003;3.251239e-002
3.590956e+003;3.221532e-002
3.592885e+003;3.208173e-002
3.594813e+003;3.207524e-002
3.596742e+003;3.205776e-002
3.598671e+003;3.229094e-002
3.600599e+003;3.215230e-002
3.602528e+003;3.191188e-002
3.604456e+003;3.183996e-002
3.606385e+003;3.143251e-002
3.608313e+003;3.076809e-002
3.610242e+003;3.060878e-002
3.612170e+003;3.043232e-002
3.614099e+003;3.027687e-002
3.616028e+003;3.035844e-002
3.617956e+003;3.002328e-002
3.619885e+003;2.953415e-002
3.621813e+003;2.909839e-002
3.623742e+003;2.883834e-002
3.625670e+003;2.861135e-002
3.627599e+003;2.822238e-002
3.629527e+003;2.798455e-002
3.631456e+003;2.799985e-002
3.633385e+003;2.781160e-002
3.635313e+003;2.758645e-002
3.637241e+003;2.760213e-002
3.639170e+003;2.747688e-002
3.641099e+003;2.685040e-002
3.643027e+003;2.683299e-002
3.644956e+003;2.689520e-002
3.646884e+003;2.640281e-002
3.648813e+003;2.600019e-002
3.650741e+003;2.607516e-002
3.652670e+003;2.611629e-002
3.654598e+003;2.603058e-002
3.656527e+003;2.590318e-002
3.658456e+003;2.588675e-002
3.660384e+003;2.601957e-002
3.662313e+003;2.586389e-002
3.664241e+003;2.572722e-002
3.666170e+003;2.557122e-002
3.668098e+003;2.535602e-002
3.670027e+003;2.513640e-002
3.671955e+003;2.501915e-002
3.673884e+003;2.519079e-002
3.675813e+003;2.530049e-002
3.677741e+003;2.508788e-002
3.679669e+003;2.474964e-002
3.681598e+003;2.441938e-002
3.683527e+003;2.404839e-002
3.685455e+003;2.399274e-002
3.687384e+003;2.368503e-002
3.689312e+003;2.326282e-002
3.691241e+003;2.344173e-002
3.693169e+003;2.370466e-002
3.695098e+003;2.368139e-002
3.697026e+003;2.332578e-002
3.698955e+003;2.277271e-002
3.700884e+003;2.256601e-002
3.702812e+003;2.282087e-002
3.704741e+003;2.301078e-002
3.706669e+003;2.288642e-002
3.708598e+003;2.261596e-002
3.710526e+003;2.269765e-002
3.712455e+003;2.262078e-002
3.714383e+003;2.217027e-002
3.716312e+003;2.222774e-002
3.718240e+003;2.253900e-002
3.720169e+003;2.256172e-002
3.722098e+003;2.239995e-002
3.724026e+003;2.215071e-002
3.725955e+003;2.228623e-002
3.727883e+003;2.226949e-002
3.729812e+003;2.190360e-002
3.731740e+003;2.198063e-002
3.733669e+003;2.200115e-002
3.735597e+003;2.191775e-002
3.737526e+003;2.231895e-002
3.739455e+003;2.251412e-002
3.741383e+003;2.192396e-002
3.743312e+003;2.125310e-002
3.745240e+003;2.170962e-002
3.747169e+003;2.243798e-002
3.749097e+003;2.237005e-002
3.751026e+003;2.215685e-002
3.752954e+003;2.244457e-002
3.754883e+003;2.287667e-002
3.756812e+003;2.292543e-002
3.758740e+003;2.255177e-002
3.760668e+003;2.202810e-002
3.762597e+003;2.223078e-002
3.764526e+003;2.260496e-002
3.766454e+003;2.246195e-002
3.768383e+003;2.212007e-002
3.770311e+003;2.222146e-002
3.772240e+003;2.238791e-002
3.774168e+003;2.263694e-002
3.776097e+003;2.296882e-002
3.778025e+003;2.244967e-002
3.779954e+003;2.221871e-002
3.781883e+003;2.265160e-002
3.783811e+003;2.242319e-002
3.785740e+003;2.218565e-002
3.787668e+003;2.237382e-002
3.789597e+003;2.250895e-002
3.791525e+003;2.269398e-002
3.793454e+003;2.252661e-002
3.795382e+003;2.227737e-002
3.797311e+003;2.249332e-002
3.799240e+003;2.218007e-002
3.801168e+003;2.182827e-002
3.803097e+003;2.206669e-002
3.805025e+003;2.189273e-002
3.806954e+003;2.160415e-002
3.808882e+003;2.217798e-002
3.810811e+003;2.288509e-002
3.812739e+003;2.349769e-002
3.814668e+003;2.347719e-002
3.816596e+003;2.312559e-002
3.818525e+003;2.287842e-002
3.820454e+003;2.241869e-002
3.822382e+003;2.264916e-002
3.824311e+003;2.315701e-002
3.826239e+003;2.338316e-002
3.828168e+003;2.338809e-002
3.830096e+003;2.316963e-002
3.832025e+003;2.329812e-002
3.833953e+003;2.346618e-002
3.835882e+003;2.282142e-002
3.837811e+003;2.225491e-002
3.839739e+003;2.281084e-002
3.841667e+003;2.312304e-002
3.843596e+003;2.265142e-002
3.845525e+003;2.288726e-002
3.847453e+003;2.359161e-002
3.849382e+003;2.382172e-002
3.851310e+003;2.338487e-002
3.853239e+003;2.273395e-002
3.855167e+003;2.280051e-002
3.857096e+003;2.373318e-002
3.859024e+003;2.406551e-002
3.860953e+003;2.373769e-002
3.862882e+003;2.405059e-002
3.864810e+003;2.414786e-002
3.866739e+003;2.335308e-002
3.868667e+003;2.264926e-002
3.870596e+003;2.282673e-002
3.872524e+003;2.341120e-002
3.874453e+003;2.354204e-002
3.876381e+003;2.368156e-002
3.878310e+003;2.372618e-002
3.880239e+003;2.364272e-002
3.882167e+003;2.338886e-002
3.884096e+003;2.324506e-002
3.886024e+003;2.352696e-002
3.887953e+003;2.361627e-002
3.889881e+003;2.330952e-002
3.891810e+003;2.343781e-002
3.893738e+003;2.390129e-002
3.895667e+003;2.411017e-002
3.897595e+003;2.379547e-002
3.899524e+003;2.351916e-002
3.901453e+003;2.378091e-002
3.903381e+003;2.413731e-002
3.905310e+003;2.409360e-002
3.907238e+003;2.422205e-002
3.909167e+003;2.428162e-002
3.911095e+003;2.446845e-002
3.913024e+003;2.460287e-002
3.914952e+003;2.443879e-002
3.916881e+003;2.446610e-002
3.918810e+003;2.489159e-002
3.920738e+003;2.515497e-002
3.922667e+003;2.502677e-002
3.924595e+003;2.505053e-002
3.926524e+003;2.515346e-002
3.928452e+003;2.480293e-002
3.930381e+003;2.492124e-002
3.932309e+003;2.507711e-002
3.934238e+003;2.525578e-002
3.936167e+003;2.574441e-002
3.938095e+003;2.550460e-002
3.940023e+003;2.519198e-002
3.941952e+003;2.506777e-002
3.943881e+003;2.557435e-002
3.945809e+003;2.647951e-002
3.947738e+003;2.683024e-002
3.949666e+003;2.637521e-002
3.951595e+003;2.595368e-002
3.953523e+003;2.601630e-002
3.955452e+003;2.601732e-002
3.957380e+003;2.612783e-002
3.959309e+003;2.623267e-002
3.961238e+003;2.648229e-002
3.963166e+003;2.636070e-002
3.965095e+003;2.635134e-002
3.967023e+003;2.634951e-002
3.968952e+003;2.641693e-002
3.970880e+003;2.681089e-002
3.972809e+003;2.693609e-002
3.974737e+003;2.674118e-002
3.976666e+003;2.701581e-002
3.978594e+003;2.759331e-002
3.980523e+003;2.736422e-002
3.982452e+003;2.661614e-002
3.984380e+003;2.629631e-002
3.986309e+003;2.676113e-002
3.988237e+003;2.740149e-002
3.990166e+003;2.763264e-002
3.992094e+003;2.769221e-002
3.994023e+003;2.779648e-002
3.995951e+003;2.761950e-002
3.997880e+003;2.731602e-002
3.999809e+003;2.759422e-002
4.001737e+003;0.000000e+000
