3.992094e+002;0.000000e+000
4.011380e+002;0.000000e+000
4.030665e+002;0.000000e+000
4.049951e+002;0.000000e+000
4.069236e+002;0.000000e+000
4.088522e+002;0.000000e+000
4.107807e+002;0.000000e+000
4.127093e+002;0.000000e+000
4.146378e+002;0.000000e+000
4.165664e+002;0.000000e+000
4.184949e+002;0.000000e+000
4.204235e+002;0.000000e+000
4.223520e+002;0.000000e+000
4.242806e+002;0.000000e+000
4.262091e+002;0.000000e+000
4.281377e+002;0.000000e+000
4.300662e+002;0.000000e+000
4.319948e+002;0.000000e+000
4.339233e+002;0.000000e+000
4.358519e+002;0.000000e+000
4.377804e+002;0.000000e+000
4.397090e+002;0.000000e+000
4.416375e+002;0.000000e+000
4.435660e+002;0.000000e+000
4.454946e+002;0.000000e+000
4.474232e+002;0.000000e+000
4.493517e+002;0.000000e+000
4.512802e+002;0.000000e+000
4.532088e+002;0.000000e+000
4.551373e+002;0.000000e+000
4.570659e+002;0.000000e+000
4.589944e+002;0.000000e+000
4.609230e+002;0.000000e+000
4.628515e+002;0.000000e+000
4.647801e+002;0.000000e+000
4.667086e+002;0.000000e+000
4.686372e+002;0.000000e+000
4.705657e+002;0.000000e+000
4.724943e+002;0.000000e+000
4.744228e+002;0.000000e+000
4.763513e+002;0.000000e+000
4.782799e+002;0.000000e+000
4.802085e+002;0.000000e+000
4.821370e+002;0.000000e+000
4.840656e+002;0.000000e+000
4.859941e+002;0.000000e+000
4.879226e+002;0.000000e+000
4.898512e+002;0.000000e+000
4.917798e+002;0.000000e+000
4.937083e+002;0.000000e+000
4.956368e+002;0.000000e+000
4.975654e+002;0.000000e+000
4.994939e+002;0.000000e+000
5.014225e+002;0.000000e+000
5.033510e+002;0.000000e+000
5.052796e+002;0.000000e+000
5.072081e+002;0.000000e+000
5.091367e+002;0.000000e+000
5.110652e+002;0.000000e+000
5.129938e+002;0.000000e+000
5.149223e+002;0.000000e+000
5.168509e+002;0.000000e+000
5.187794e+002;0.000000e+000
5.207079e+002;0.000000e+000
5.226365e+002;0.000000e+000
5.245651e+002;0.000000e+000
5.264936e+002;0.000000e+000
5.284222e+002;0.000000e+000
5.303507e+002;0.000000e+000
5.322792e+002;0.000000e+000
5.342078e+002;0.000000e+000
5.361364e+002;0.000000e+000
5.380649e+002;0.000000e+000
5.399935e+002;0.000000e+000
5.419220e+002;0.000000e+000
5.438505e+002;0.000000e+000
5.457791e+002;0.000000e+000
5.477076e+002;0.000000e+000
5.496362e+002;0.000000e+000
5.515648e+002;0.000000e+000
5.534933e+002;0.000000e+000
5.554218e+002;0.000000e+000
5.573504e+002;0.000000e+000
5.592789e+002;0.000000e+000
5.612075e+002;0.000000e+000
5.631360e+002;0.000000e+000
5.650646e+002;0.000000e+000
5.669931e+002;0.000000e+000
5.689217e+002;0.000000e+000
5.708502e+002;0.000000e+000
5.727787e+002;0.000000e+000
5.747073e+002;0.000000e+000
5.766359e+002;0.000000e+000
5.785644e+002;0.000000e+000
5.804930e+002;0.000000e+000
5.824215e+002;0.000000e+000
5.843500e+002;0.000000e+000
5.862786e+002;0.000000e+000
5.882072e+002;0.000000e+000
5.901357e+002;0.000000e+000
5.920643e+002;0.000000e+000
5.939928e+002;0.000000e+000
5.959213e+002;0.000000e+000
5.978499e+002;0.000000e+000
5.997784e+002;1.089576e-001
6.017070e+002;1.168587e-001
6.036355e+002;1.178684e-001
6.055641e+002;1.148901e-001
6.074926e+002;1.138922e-001
6.094211e+002;1.153568e-001
6.113497e+002;1.170220e-001
6.132783e+002;1.176751e-001
6.152068e+002;1.152109e-001
6.171354e+002;1.145368e-001
6.190639e+002;1.146702e-001
6.209924e+002;1.138231e-001
6.229210e+002;1.193391e-001
6.248495e+002;1.265260e-001
6.267781e+002;1.262268e-001
6.287067e+002;1.254056e-001
6.306352e+002;1.281816e-001
6.325637e+002;1.257253e-001
6.344923e+002;1.225340e-001
6.364208e+002;1.252674e-001
6.383494e+002;1.294218e-001
6.402780e+002;1.314940e-001
6.422065e+002;1.336406e-001
6.441350e+002;1.368352e-001
6.460636e+002;1.391225e-001
6.479921e+002;1.375096e-001
6.499207e+002;1.320305e-001
6.518492e+002;1.316452e-001
6.537778e+002;1.371696e-001
6.557063e+002;1.390989e-001
6.576349e+002;1.391907e-001
6.595634e+002;1.437710e-001
6.614919e+002;1.498607e-001
6.634205e+002;1.526969e-001
6.653491e+002;1.537888e-001
6.672776e+002;1.540144e-001
6.692062e+002;1.544181e-001
6.711347e+002;1.570940e-001
6.730632e+002;1.591928e-001
6.749918e+002;1.596278e-001
6.769203e+002;1.591761e-001
6.788489e+002;1.602441e-001
6.807775e+002;1.599942e-001
6.827060e+002;1.607461e-001
6.846345e+002;1.614996e-001
6.865631e+002;1.594857e-001
6.884916e+002;1.571363e-001
6.904202e+002;1.559984e-001
6.923488e+002;1.545230e-001
6.942773e+002;1.521435e-001
6.962058e+002;1.482715e-001
6.981344e+002;1.448067e-001
7.000629e+002;1.406377e-001
7.019915e+002;1.372113e-001
7.039200e+002;1.361574e-001
7.058486e+002;1.348910e-001
7.077771e+002;1.332841e-001
7.097057e+002;1.326918e-001
7.116342e+002;1.320335e-001
7.135627e+002;1.302613e-001
7.154913e+002;1.288515e-001
7.174199e+002;1.280022e-001
7.193484e+002;1.268813e-001
7.212770e+002;1.262997e-001
7.232055e+002;1.266613e-001
7.251340e+002;1.284551e-001
7.270626e+002;1.294622e-001
7.289911e+002;1.284948e-001
7.309197e+002;1.256411e-001
7.328483e+002;1.199099e-001
7.347768e+002;1.126720e-001
7.367053e+002;1.065804e-001
7.386339e+002;1.029371e-001
7.405624e+002;1.012134e-001
7.424910e+002;9.960274e-002
7.444196e+002;9.692609e-002
7.463481e+002;9.336621e-002
7.482766e+002;9.053858e-002
7.502052e+002;8.856855e-002
7.521337e+002;8.688459e-002
7.540623e+002;8.555556e-002
7.559908e+002;8.462249e-002
7.579194e+002;8.382407e-002
7.598479e+002;8.257949e-002
7.617765e+002;8.097018e-002
7.637050e+002;7.957568e-002
7.656335e+002;7.833365e-002
7.675621e+002;7.713203e-002
7.694907e+002;7.632477e-002
7.714192e+002;7.512423e-002
7.733478e+002;7.345804e-002
7.752763e+002;7.167123e-002
7.772048e+002;7.046836e-002
7.791334e+002;6.915359e-002
7.810620e+002;6.803257e-002
7.829905e+002;6.774636e-002
7.849191e+002;6.736548e-002
7.868476e+002;6.608418e-002
7.887761e+002;6.479033e-002
7.907047e+002;6.413235e-002
7.926332e+002;6.358862e-002
7.945618e+002;6.230194e-002
7.964903e+002;6.111170e-002
7.984189e+002;5.984017e-002
8.003474e+002;5.765729e-002
8.022759e+002;5.601945e-002
8.042045e+002;5.635409e-002
8.061331e+002;5.623376e-002
8.080616e+002;5.513028e-002
8.099902e+002;5.406750e-002
8.119187e+002;5.341630e-002
8.138472e+002;5.360643e-002
8.157758e+002;5.395805e-002
8.177043e+002;5.470747e-002
8.196329e+002;5.553487e-002
8.215615e+002;5.685287e-002
8.234900e+002;5.863359e-002
8.254185e+002;6.011738e-002
8.273471e+002;6.175389e-002
8.292756e+002;6.298389e-002
8.312042e+002;6.403922e-002
8.331328e+002;6.386492e-002
8.350613e+002;6.126082e-002
8.369898e+002;5.784781e-002
8.389184e+002;5.484477e-002
8.408469e+002;5.220843e-002
8.427755e+002;5.029165e-002
8.447040e+002;4.933290e-002
8.466326e+002;4.822746e-002
8.485611e+002;4.600393e-002
8.504897e+002;4.455628e-002
8.524182e+002;4.437304e-002
8.543467e+002;4.400577e-002
8.562753e+002;4.386276e-002
8.582039e+002;4.385385e-002
8.601324e+002;4.368996e-002
8.620610e+002;4.401721e-002
8.639895e+002;4.426168e-002
8.659180e+002;4.421640e-002
8.678466e+002;4.431279e-002
8.697751e+002;4.445676e-002
8.717037e+002;4.432772e-002
8.736323e+002;4.458782e-002
8.755608e+002;4.516005e-002
8.774893e+002;4.582572e-002
8.794179e+002;4.688300e-002
8.813464e+002;4.753878e-002
8.832750e+002;4.776985e-002
8.852036e+002;4.801473e-002
8.871321e+002;4.785223e-002
8.890606e+002;4.736688e-002
8.909892e+002;4.696783e-002
8.929177e+002;4.662108e-002
8.948463e+002;4.667539e-002
8.967748e+002;4.702764e-002
8.987034e+002;4.745794e-002
9.006319e+002;4.753926e-002
9.025605e+002;4.729062e-002
9.044890e+002;4.749228e-002
9.064175e+002;4.833800e-002
9.083461e+002;4.947583e-002
9.102747e+002;5.014525e-002
9.122032e+002;5.018657e-002
9.141318e+002;5.014127e-002
9.160603e+002;5.046307e-002
9.179888e+002;5.096825e-002
9.199174e+002;5.153303e-002
9.218459e+002;5.249759e-002
9.237745e+002;5.356516e-002
9.257031e+002;5.489745e-002
9.276316e+002;5.607434e-002
9.295601e+002;5.616660e-002
9.314887e+002;5.569173e-002
9.334172e+002;5.482166e-002
9.353458e+002;5.352584e-002
9.372744e+002;5.214271e-002
9.392029e+002;5.165415e-002
9.411314e+002;5.237990e-002
9.430600e+002;5.325423e-002
9.449885e+002;5.443482e-002
9.469171e+002;5.591353e-002
9.488456e+002;5.761151e-002
9.507742e+002;5.922260e-002
9.527027e+002;6.041982e-002
9.546313e+002;6.124972e-002
9.565598e+002;6.182659e-002
9.584883e+002;6.222925e-002
9.604169e+002;6.211611e-002
9.623455e+002;6.134164e-002
9.642740e+002;6.044190e-002
9.662026e+002;5.973538e-002
9.681311e+002;5.953840e-002
9.700596e+002;5.917525e-002
9.719882e+002;5.866727e-002
9.739167e+002;5.835555e-002
9.758453e+002;5.789540e-002
9.777739e+002;5.720003e-002
9.797024e+002;5.690122e-002
9.816309e+002;5.675401e-002
9.835595e+002;5.696015e-002
9.854880e+002;5.747502e-002
9.874166e+002;5.792674e-002
9.893452e+002;5.805894e-002
9.912737e+002;5.742071e-002
9.932022e+002;5.575068e-002
9.951307e+002;5.333649e-002
9.970593e+002;5.103242e-002
9.989879e+002;4.943789e-002
1.000916e+003;4.853437e-002
1.002845e+003;4.817115e-002
1.004773e+003;4.794228e-002
1.006702e+003;4.761671e-002
1.008631e+003;4.744600e-002
1.010559e+003;4.794128e-002
1.012488e+003;4.875455e-002
1.014416e+003;4.920326e-002
1.016345e+003;4.934188e-002
1.018273e+003;4.947528e-002
1.020202e+003;4.945849e-002
1.022130e+003;5.021156e-002
1.024059e+003;5.166703e-002
1.025988e+003;5.347914e-002
1.027916e+003;5.567538e-002
1.029845e+003;5.840350e-002
1.031773e+003;6.147129e-002
1.033702e+003;6.417824e-002
1.035630e+003;6.644887e-002
1.037559e+003;6.847485e-002
1.039487e+003;7.178215e-002
1.041416e+003;7.689580e-002
1.043344e+003;8.117364e-002
1.045273e+003;8.212010e-002
1.047202e+003;7.920883e-002
1.049130e+003;7.397750e-002
1.051059e+003;6.834224e-002
1.052987e+003;6.380409e-002
1.054916e+003;6.034671e-002
1.056844e+003;5.829382e-002
1.058773e+003;5.803625e-002
1.060701e+003;5.850156e-002
1.062630e+003;5.934988e-002
1.064558e+003;6.046296e-002
1.066487e+003;6.171524e-002
1.068416e+003;6.261337e-002
1.070344e+003;6.337778e-002
1.072273e+003;6.413868e-002
1.074201e+003;6.389467e-002
1.076130e+003;6.326296e-002
1.078058e+003;6.334338e-002
1.079987e+003;6.334653e-002
1.081915e+003;6.298983e-002
1.083844e+003;6.263737e-002
1.085773e+003;6.254479e-002
1.087701e+003;6.285789e-002
1.089630e+003;6.327941e-002
1.091558e+003;6.358137e-002
1.093487e+003;6.370517e-002
1.095415e+003;6.427605e-002
1.097344e+003;6.534246e-002
1.099272e+003;6.650640e-002
1.101201e+003;6.809399e-002
1.103129e+003;6.985219e-002
1.105058e+003;7.124051e-002
1.106987e+003;7.275597e-002
1.108915e+003;7.356098e-002
1.110844e+003;7.405227e-002
1.112772e+003;7.466148e-002
1.114701e+003;7.502498e-002
1.116629e+003;7.514720e-002
1.118558e+003;7.520831e-002
1.120486e+003;7.458975e-002
1.122415e+003;7.329346e-002
1.124344e+003;7.087860e-002
1.126272e+003;6.764637e-002
1.128201e+003;6.442425e-002
1.130129e+003;6.130504e-002
1.132058e+003;5.895128e-002
1.133986e+003;5.818617e-002
1.135915e+003;5.931166e-002
1.137843e+003;6.173453e-002
1.139772e+003;6.475736e-002
1.141700e+003;6.674562e-002
1.143629e+003;6.785504e-002
1.145557e+003;6.956346e-002
1.147486e+003;7.187816e-002
1.149415e+003;7.457886e-002
1.151343e+003;7.772204e-002
1.153272e+003;8.023474e-002
1.155200e+003;8.192487e-002
1.157129e+003;8.428201e-002
1.159057e+003;8.812299e-002
1.160986e+003;9.319279e-002
1.162914e+003;9.846795e-002
1.164843e+003;1.032306e-001
1.166771e+003;1.070159e-001
1.168700e+003;1.091033e-001
1.170629e+003;1.093958e-001
1.172557e+003;1.078211e-001
1.174486e+003;1.048470e-001
1.176414e+003;1.013504e-001
1.178343e+003;9.889937e-002
1.180271e+003;9.767161e-002
1.182200e+003;9.784934e-002
1.184128e+003;9.971849e-002
1.186057e+003;1.021895e-001
1.187986e+003;1.046034e-001
1.189914e+003;1.078533e-001
1.191843e+003;1.113820e-001
1.193771e+003;1.148538e-001
1.195700e+003;1.186110e-001
1.197628e+003;1.217288e-001
1.199557e+003;1.230299e-001
1.201485e+003;1.214185e-001
1.203414e+003;1.175244e-001
1.205343e+003;1.140642e-001
1.207271e+003;1.122021e-001
1.209200e+003;1.111608e-001
1.211128e+003;1.100757e-001
1.213057e+003;1.086662e-001
1.214985e+003;1.068513e-001
1.216914e+003;1.047333e-001
1.218842e+003;1.022161e-001
1.220771e+003;1.006793e-001
1.222699e+003;1.012110e-001
1.224628e+003;1.030536e-001
1.226557e+003;1.056146e-001
1.228485e+003;1.084562e-001
1.230414e+003;1.109848e-001
1.232342e+003;1.135703e-001
1.234271e+003;1.156450e-001
1.236199e+003;1.171006e-001
1.238128e+003;1.178434e-001
1.240056e+003;1.172737e-001
1.241985e+003;1.164498e-001
1.243913e+003;1.157248e-001
1.245842e+003;1.154451e-001
1.247771e+003;1.162268e-001
1.249699e+003;1.179658e-001
1.251628e+003;1.201144e-001
1.253556e+003;1.222823e-001
1.255485e+003;1.248490e-001
1.257413e+003;1.273228e-001
1.259342e+003;1.295205e-001
1.261270e+003;1.308168e-001
1.263199e+003;1.295639e-001
1.265127e+003;1.263728e-001
1.267056e+003;1.219080e-001
1.268985e+003;1.172847e-001
1.270913e+003;1.136065e-001
1.272842e+003;1.116917e-001
1.274770e+003;1.113389e-001
1.276699e+003;1.117842e-001
1.278627e+003;1.123036e-001
1.280556e+003;1.122901e-001
1.282484e+003;1.114222e-001
1.284413e+003;1.103846e-001
1.286342e+003;1.097038e-001
1.288270e+003;1.094958e-001
1.290199e+003;1.095120e-001
1.292127e+003;1.094121e-001
1.294056e+003;1.090768e-001
1.295984e+003;1.091094e-001
1.297913e+003;1.092546e-001
1.299841e+003;1.085938e-001
1.301770e+003;1.069405e-001
1.303698e+003;1.050191e-001
1.305627e+003;1.034194e-001
1.307556e+003;1.023081e-001
1.309484e+003;1.018134e-001
1.311413e+003;1.017576e-001
1.313341e+003;1.022804e-001
1.315270e+003;1.035729e-001
1.317198e+003;1.048205e-001
1.319127e+003;1.058852e-001
1.321055e+003;1.071399e-001
1.322984e+003;1.084633e-001
1.324912e+003;1.095072e-001
1.326841e+003;1.102999e-001
1.328770e+003;1.105458e-001
1.330698e+003;1.100840e-001
1.332627e+003;1.087920e-001
1.334555e+003;1.069020e-001
1.336484e+003;1.047783e-001
1.338412e+003;1.028594e-001
1.340341e+003;1.014877e-001
1.342269e+003;1.005554e-001
1.344198e+003;9.985194e-002
1.346126e+003;9.945744e-002
1.348055e+003;9.922887e-002
1.349984e+003;9.929516e-002
1.351912e+003;9.952106e-002
1.353841e+003;9.992251e-002
1.355769e+003;1.007880e-001
1.357698e+003;1.021212e-001
1.359626e+003;1.033250e-001
1.361555e+003;1.044131e-001
1.363483e+003;1.057870e-001
1.365412e+003;1.073567e-001
1.367341e+003;1.089804e-001
1.369269e+003;1.104479e-001
1.371198e+003;1.112283e-001
1.373126e+003;1.111298e-001
1.375055e+003;1.101726e-001
1.376983e+003;1.087022e-001
1.378912e+003;1.063825e-001
1.380840e+003;1.035002e-001
1.382769e+003;1.008913e-001
1.384698e+003;9.836284e-002
1.386626e+003;9.557725e-002
1.388555e+003;9.298908e-002
1.390483e+003;9.078068e-002
1.392412e+003;8.936024e-002
1.394340e+003;8.879966e-002
1.396269e+003;8.895189e-002
1.398197e+003;8.994950e-002
1.400126e+003;9.167983e-002
1.402054e+003;9.380994e-002
1.403983e+003;9.653212e-002
1.405911e+003;1.002033e-001
1.407840e+003;1.050166e-001
1.409769e+003;1.108983e-001
1.411697e+003;1.172522e-001
1.413626e+003;1.229319e-001
1.415554e+003;1.267019e-001
1.417483e+003;1.276356e-001
1.419411e+003;1.259467e-001
1.421340e+003;1.230827e-001
1.423268e+003;1.200477e-001
1.425197e+003;1.179043e-001
1.427125e+003;1.175960e-001
1.429054e+003;1.188127e-001
1.430983e+003;1.209680e-001
1.432911e+003;1.235908e-001
1.434840e+003;1.252362e-001
1.436768e+003;1.250805e-001
1.438697e+003;1.242896e-001
1.440625e+003;1.231019e-001
1.442554e+003;1.214863e-001
1.444482e+003;1.203142e-001
1.446411e+003;1.200370e-001
1.448340e+003;1.208165e-001
1.450268e+003;1.230230e-001
1.452197e+003;1.261274e-001
1.454125e+003;1.295745e-001
1.456054e+003;1.332078e-001
1.457982e+003;1.373494e-001
1.459911e+003;1.411370e-001
1.461839e+003;1.429175e-001
1.463768e+003;1.409292e-001
1.465697e+003;1.350203e-001
1.467625e+003;1.278396e-001
1.469554e+003;1.222238e-001
1.471482e+003;1.194494e-001
1.473411e+003;1.193098e-001
1.475339e+003;1.197184e-001
1.477268e+003;1.186781e-001
1.479196e+003;1.160131e-001
1.481125e+003;1.119306e-001
1.483053e+003;1.069003e-001
1.484982e+003;1.020413e-001
1.486911e+003;9.877927e-002
1.488839e+003;9.779252e-002
1.490768e+003;9.859657e-002
1.492696e+003;1.007096e-001
1.494625e+003;1.039900e-001
1.496553e+003;1.077837e-001
1.498482e+003;1.119491e-001
1.500410e+003;1.163412e-001
1.502339e+003;1.204859e-001
1.504267e+003;1.247753e-001
1.506196e+003;1.293747e-001
1.508125e+003;1.344045e-001
1.510053e+003;1.400575e-001
1.511982e+003;1.461816e-001
1.513910e+003;1.522009e-001
1.515839e+003;1.579119e-001
1.517767e+003;1.639337e-001
1.519696e+003;1.703691e-001
1.521624e+003;1.769943e-001
1.523553e+003;1.840827e-001
1.525481e+003;1.914983e-001
1.527410e+003;1.990804e-001
1.529339e+003;2.064788e-001
1.531267e+003;2.133761e-001
1.533196e+003;2.198721e-001
1.535124e+003;2.256189e-001
1.537053e+003;2.294574e-001
1.538981e+003;2.305477e-001
1.540910e+003;2.292554e-001
1.542838e+003;2.257696e-001
1.544767e+003;2.199409e-001
1.546695e+003;2.126572e-001
1.548624e+003;2.042157e-001
1.550553e+003;1.952997e-001
1.552481e+003;1.865108e-001
1.554410e+003;1.781738e-001
1.556338e+003;1.702476e-001
1.558267e+003;1.620360e-001
1.560195e+003;1.542497e-001
1.562124e+003;1.475338e-001
1.564052e+003;1.411919e-001
1.565981e+003;1.349721e-001
1.567910e+003;1.289860e-001
1.569838e+003;1.233648e-001
1.571767e+003;1.184963e-001
1.573695e+003;1.143535e-001
1.575624e+003;1.105439e-001
1.577552e+003;1.076178e-001
1.579481e+003;1.056762e-001
1.581409e+003;1.044501e-001
1.583338e+003;1.035500e-001
1.585266e+003;1.030121e-001
1.587195e+003;1.031033e-001
1.589124e+003;1.036196e-001
1.591052e+003;1.045370e-001
1.592981e+003;1.054081e-001
1.594909e+003;1.066762e-001
1.596838e+003;1.088516e-001
1.598766e+003;1.117307e-001
1.600695e+003;1.155015e-001
1.602623e+003;1.202169e-001
1.604552e+003;1.263017e-001
1.606480e+003;1.331655e-001
1.608409e+003;1.401100e-001
1.610338e+003;1.474701e-001
1.612266e+003;1.552821e-001
1.614195e+003;1.637740e-001
1.616123e+003;1.733843e-001
1.618052e+003;1.842300e-001
1.619980e+003;1.960162e-001
1.621909e+003;2.082327e-001
1.623837e+003;2.205019e-001
1.625766e+003;2.320302e-001
1.627694e+003;2.433987e-001
1.629623e+003;2.553065e-001
1.631552e+003;2.665804e-001
1.633480e+003;2.749434e-001
1.635409e+003;2.783239e-001
1.637337e+003;2.754887e-001
1.639266e+003;2.664680e-001
1.641194e+003;2.528993e-001
1.643123e+003;2.371011e-001
1.645051e+003;2.210370e-001
1.646980e+003;2.058506e-001
1.648909e+003;1.925840e-001
1.650837e+003;1.806495e-001
1.652766e+003;1.698657e-001
1.654694e+003;1.613264e-001
1.656623e+003;1.541241e-001
1.658551e+003;1.472588e-001
1.660480e+003;1.405216e-001
1.662408e+003;1.334522e-001
1.664337e+003;1.264145e-001
1.666266e+003;1.192100e-001
1.668194e+003;1.116686e-001
1.670123e+003;1.049025e-001
1.672051e+003;9.900461e-002
1.673980e+003;9.304947e-002
1.675908e+003;8.706161e-002
1.677837e+003;8.128853e-002
1.679765e+003;7.558027e-002
1.681694e+003;6.996121e-002
1.683622e+003;6.460919e-002
1.685551e+003;5.991791e-002
1.687479e+003;5.607626e-002
1.689408e+003;5.278051e-002
1.691337e+003;4.994689e-002
1.693265e+003;4.765787e-002
1.695194e+003;4.569020e-002
1.697122e+003;4.426160e-002
1.699051e+003;4.316650e-002
1.700979e+003;4.215742e-002
1.702908e+003;4.181945e-002
1.704836e+003;4.134838e-002
1.706765e+003;4.075665e-002
1.708693e+003;4.042450e-002
1.710622e+003;4.026655e-002
1.712551e+003;3.985933e-002
1.714479e+003;3.935392e-002
1.716408e+003;3.886203e-002
1.718336e+003;3.852930e-002
1.720265e+003;3.850251e-002
1.722193e+003;3.845569e-002
1.724122e+003;3.831826e-002
1.726050e+003;3.802905e-002
1.727979e+003;3.781869e-002
1.729908e+003;3.769872e-002
1.731836e+003;3.725351e-002
1.733765e+003;3.658985e-002
1.735693e+003;3.636905e-002
1.737622e+003;3.625665e-002
1.739550e+003;3.558963e-002
1.741479e+003;3.484219e-002
1.743407e+003;3.402587e-002
1.745336e+003;3.318872e-002
1.747265e+003;3.221992e-002
1.749193e+003;3.126160e-002
1.751122e+003;3.052676e-002
1.753050e+003;2.968373e-002
1.754979e+003;2.885371e-002
1.756907e+003;2.835718e-002
1.758836e+003;2.762713e-002
1.760764e+003;2.665119e-002
1.762693e+003;2.594179e-002
1.764621e+003;2.548295e-002
1.766550e+003;2.505440e-002
1.768479e+003;2.446221e-002
1.770407e+003;2.387307e-002
1.772336e+003;2.337749e-002
1.774264e+003;2.306329e-002
1.776193e+003;2.269101e-002
1.778121e+003;2.228225e-002
1.780050e+003;2.199502e-002
1.781978e+003;2.175598e-002
1.783907e+003;2.144187e-002
1.785835e+003;2.109877e-002
1.787764e+003;2.088073e-002
1.789693e+003;2.058994e-002
1.791621e+003;2.026553e-002
1.793550e+003;2.007317e-002
1.795478e+003;1.975952e-002
1.797407e+003;1.954984e-002
1.799335e+003;1.947693e-002
1.801264e+003;1.917333e-002
1.803192e+003;1.891579e-002
1.805121e+003;1.882551e-002
1.807049e+003;1.874278e-002
1.808978e+003;1.864669e-002
1.810907e+003;1.843973e-002
1.812835e+003;1.810320e-002
1.814764e+003;1.793670e-002
1.816692e+003;1.788335e-002
1.818621e+003;1.772176e-002
1.820549e+003;1.762282e-002
1.822478e+003;1.746622e-002
1.824406e+003;1.729217e-002
1.826335e+003;1.725169e-002
1.828264e+003;1.721760e-002
1.830192e+003;1.725383e-002
1.832121e+003;1.718619e-002
1.834049e+003;1.712535e-002
1.835978e+003;1.706273e-002
1.837906e+003;1.676519e-002
1.839835e+003;1.649700e-002
1.841763e+003;1.634136e-002
1.843692e+003;1.630028e-002
1.845620e+003;1.648760e-002
1.847549e+003;1.659021e-002
1.849478e+003;1.629292e-002
1.851406e+003;1.603599e-002
1.853335e+003;1.597366e-002
1.855263e+003;1.588838e-002
1.857192e+003;1.582721e-002
1.859120e+003;1.573791e-002
1.861049e+003;1.573705e-002
1.862977e+003;1.592437e-002
1.864906e+003;1.586450e-002
1.866834e+003;1.574069e-002
1.868763e+003;1.566199e-002
1.870692e+003;1.561410e-002
1.872620e+003;1.547914e-002
1.874549e+003;1.535229e-002
1.876477e+003;1.534014e-002
1.878406e+003;1.522001e-002
1.880334e+003;1.523271e-002
1.882263e+003;1.529147e-002
1.884191e+003;1.541614e-002
1.886120e+003;1.554531e-002
1.888048e+003;1.553024e-002
1.889977e+003;1.559549e-002
1.891906e+003;1.574608e-002
1.893834e+003;1.588381e-002
1.895763e+003;1.589649e-002
1.897691e+003;1.576447e-002
1.899620e+003;1.557605e-002
1.901548e+003;1.542826e-002
1.903477e+003;1.568772e-002
1.905405e+003;1.576388e-002
1.907334e+003;1.541298e-002
1.909262e+003;1.531364e-002
1.911191e+003;1.538335e-002
1.913120e+003;1.530629e-002
1.915048e+003;1.540491e-002
1.916977e+003;1.533677e-002
1.918905e+003;1.511996e-002
1.920834e+003;1.490422e-002
1.922762e+003;1.491252e-002
1.924691e+003;1.517530e-002
1.926619e+003;1.544972e-002
1.928548e+003;1.551180e-002
1.930477e+003;1.531923e-002
1.932405e+003;1.509783e-002
1.934334e+003;1.495477e-002
1.936262e+003;1.496457e-002
1.938191e+003;1.514672e-002
1.940119e+003;1.513835e-002
1.942048e+003;1.496354e-002
1.943976e+003;1.501431e-002
1.945905e+003;1.512518e-002
1.947833e+003;1.506219e-002
1.949762e+003;1.500954e-002
1.951691e+003;1.490600e-002
1.953619e+003;1.490874e-002
1.955548e+003;1.488642e-002
1.957476e+003;1.482971e-002
1.959405e+003;1.485220e-002
1.961333e+003;1.497106e-002
1.963262e+003;1.506576e-002
1.965190e+003;1.497325e-002
1.967119e+003;1.483842e-002
1.969047e+003;1.498453e-002
1.970976e+003;1.522345e-002
1.972905e+003;1.527997e-002
1.974833e+003;1.514796e-002
1.976762e+003;1.520752e-002
1.978690e+003;1.528398e-002
1.980619e+003;1.519939e-002
1.982547e+003;1.512672e-002
1.984476e+003;1.506823e-002
1.986404e+003;1.482608e-002
1.988333e+003;1.476567e-002
1.990261e+003;1.486842e-002
1.992190e+003;1.514072e-002
1.994119e+003;1.522293e-002
1.996047e+003;1.505464e-002
1.997976e+003;1.489702e-002
1.999904e+003;1.481384e-002
2.001833e+003;1.484366e-002
2.003761e+003;1.502044e-002
2.005690e+003;1.509440e-002
2.007618e+003;1.509921e-002
2.009547e+003;1.521051e-002
2.011476e+003;1.530705e-002
2.013404e+003;1.521590e-002
2.015333e+003;1.528673e-002
2.017261e+003;1.531542e-002
2.019190e+003;1.533818e-002
2.021118e+003;1.535239e-002
2.023047e+003;1.537635e-002
2.024975e+003;1.542383e-002
2.026904e+003;1.539074e-002
2.028833e+003;1.557385e-002
2.030761e+003;1.585161e-002
2.032690e+003;1.603709e-002
2.034618e+003;1.596623e-002
2.036547e+003;1.591028e-002
2.038475e+003;1.592344e-002
2.040404e+003;1.592148e-002
2.042332e+003;1.601997e-002
2.044261e+003;1.605603e-002
2.046189e+003;1.589374e-002
2.048118e+003;1.568019e-002
2.050047e+003;1.584134e-002
2.051975e+003;1.603093e-002
2.053904e+003;1.597129e-002
2.055832e+003;1.599133e-002
2.057761e+003;1.596489e-002
2.059689e+003;1.576577e-002
2.061618e+003;1.575619e-002
2.063546e+003;1.585030e-002
2.065475e+003;1.588416e-002
2.067404e+003;1.586254e-002
2.069332e+003;1.588787e-002
2.071260e+003;1.597864e-002
2.073189e+003;1.604524e-002
2.075118e+003;1.588577e-002
2.077046e+003;1.574846e-002
2.078975e+003;1.571451e-002
2.080903e+003;1.563581e-002
2.082832e+003;1.548161e-002
2.084760e+003;1.538823e-002
2.086689e+003;1.556149e-002
2.088617e+003;1.567975e-002
2.090546e+003;1.558391e-002
2.092475e+003;1.559442e-002
2.094403e+003;1.558553e-002
2.096332e+003;1.559398e-002
2.098260e+003;1.549130e-002
2.100189e+003;1.548282e-002
2.102117e+003;1.564443e-002
2.104046e+003;1.540944e-002
2.105974e+003;1.537992e-002
2.107903e+003;1.552351e-002
2.109832e+003;1.553601e-002
2.111760e+003;1.562293e-002
2.113688e+003;1.583697e-002
2.115617e+003;1.606824e-002
2.117546e+003;1.609042e-002
2.119474e+003;1.588773e-002
2.121403e+003;1.580525e-002
2.123331e+003;1.579323e-002
2.125260e+003;1.598628e-002
2.127188e+003;1.613333e-002
2.129117e+003;1.617246e-002
2.131045e+003;1.623802e-002
2.132974e+003;1.628814e-002
2.134903e+003;1.635161e-002
2.136831e+003;1.631377e-002
2.138760e+003;1.618120e-002
2.140688e+003;1.616964e-002
2.142617e+003;1.626447e-002
2.144545e+003;1.633737e-002
2.146474e+003;1.637872e-002
2.148402e+003;1.648089e-002
2.150331e+003;1.649352e-002
2.152260e+003;1.636269e-002
2.154188e+003;1.651469e-002
2.156117e+003;1.663300e-002
2.158045e+003;1.665407e-002
2.159974e+003;1.684640e-002
2.161902e+003;1.685680e-002
2.163831e+003;1.686190e-002
2.165759e+003;1.678134e-002
2.167688e+003;1.676026e-002
2.169616e+003;1.680162e-002
2.171545e+003;1.682880e-002
2.173474e+003;1.685505e-002
2.175402e+003;1.693193e-002
2.177331e+003;1.708082e-002
2.179259e+003;1.697717e-002
2.181188e+003;1.696094e-002
2.183116e+003;1.719822e-002
2.185045e+003;1.730737e-002
2.186973e+003;1.728458e-002
2.188902e+003;1.725962e-002
2.190831e+003;1.710292e-002
2.192759e+003;1.711929e-002
2.194688e+003;1.726293e-002
2.196616e+003;1.715086e-002
2.198545e+003;1.728034e-002
2.200473e+003;1.750200e-002
2.202402e+003;1.726307e-002
2.204330e+003;1.704254e-002
2.206259e+003;1.709564e-002
2.208188e+003;1.726486e-002
2.210116e+003;1.714555e-002
2.212044e+003;1.702148e-002
2.213973e+003;1.690076e-002
2.215902e+003;1.673244e-002
2.217830e+003;1.688271e-002
2.219759e+003;1.702582e-002
2.221687e+003;1.699275e-002
2.223616e+003;1.690389e-002
2.225544e+003;1.675813e-002
2.227473e+003;1.660584e-002
2.229401e+003;1.644118e-002
2.231330e+003;1.634507e-002
2.233259e+003;1.639840e-002
2.235187e+003;1.651555e-002
2.237116e+003;1.669391e-002
2.239044e+003;1.686514e-002
2.240973e+003;1.677004e-002
2.242901e+003;1.672927e-002
2.244830e+003;1.673337e-002
2.246758e+003;1.683328e-002
2.248687e+003;1.679301e-002
2.250615e+003;1.669249e-002
2.252544e+003;1.671842e-002
2.254473e+003;1.674466e-002
2.256401e+003;1.681347e-002
2.258330e+003;1.707214e-002
2.260258e+003;1.728872e-002
2.262187e+003;1.745984e-002
2.264115e+003;1.758970e-002
2.266044e+003;1.749837e-002
2.267972e+003;1.733424e-002
2.269901e+003;1.749203e-002
2.271830e+003;1.765615e-002
2.273758e+003;1.765888e-002
2.275687e+003;1.762603e-002
2.277615e+003;1.764170e-002
2.279544e+003;1.772946e-002
2.281472e+003;1.788832e-002
2.283401e+003;1.812891e-002
2.285329e+003;1.821497e-002
2.287258e+003;1.829511e-002
2.289187e+003;1.849868e-002
2.291115e+003;1.839289e-002
2.293043e+003;1.824420e-002
2.294972e+003;1.813637e-002
2.296901e+003;1.799174e-002
2.298829e+003;1.814521e-002
2.300758e+003;1.814798e-002
2.302686e+003;1.816114e-002
2.304615e+003;1.831923e-002
2.306543e+003;1.834384e-002
2.308472e+003;1.824541e-002
2.310400e+003;1.830973e-002
2.312329e+003;1.841760e-002
2.314258e+003;1.846251e-002
2.316186e+003;1.824410e-002
2.318115e+003;1.793735e-002
2.320043e+003;1.784813e-002
2.321972e+003;1.765325e-002
2.323900e+003;1.747333e-002
2.325829e+003;1.754043e-002
2.327757e+003;1.739317e-002
2.329686e+003;1.708689e-002
2.331615e+003;1.702424e-002
2.333543e+003;1.704309e-002
2.335472e+003;1.696759e-002
2.337400e+003;1.680169e-002
2.339329e+003;1.679787e-002
2.341257e+003;1.712642e-002
2.343186e+003;1.747661e-002
2.345114e+003;1.765422e-002
2.347043e+003;1.785021e-002
2.348971e+003;1.786536e-002
2.350900e+003;1.772597e-002
2.352829e+003;1.746209e-002
2.354757e+003;1.698630e-002
2.356686e+003;1.657344e-002
2.358614e+003;1.627352e-002
2.360543e+003;1.619571e-002
2.362471e+003;1.625814e-002
2.364400e+003;1.649579e-002
2.366328e+003;1.699178e-002
2.368257e+003;1.716627e-002
2.370186e+003;1.733841e-002
2.372114e+003;1.776525e-002
2.374042e+003;1.811222e-002
2.375971e+003;1.837619e-002
2.377900e+003;1.875863e-002
2.379828e+003;1.890714e-002
2.381757e+003;1.895784e-002
2.383685e+003;1.919573e-002
2.385614e+003;1.927473e-002
2.387542e+003;1.917097e-002
2.389471e+003;1.930885e-002
2.391399e+003;1.952337e-002
2.393328e+003;1.952465e-002
2.395257e+003;1.942391e-002
2.397185e+003;1.942419e-002
2.399114e+003;1.942619e-002
2.401042e+003;1.963917e-002
2.402971e+003;1.972210e-002
2.404899e+003;1.981632e-002
2.406828e+003;1.999434e-002
2.408756e+003;2.004302e-002
2.410685e+003;2.000142e-002
2.412614e+003;2.017136e-002
2.414542e+003;2.042505e-002
2.416471e+003;2.040671e-002
2.418399e+003;2.022717e-002
2.420328e+003;2.033816e-002
2.422256e+003;2.040248e-002
2.424185e+003;2.025255e-002
2.426113e+003;2.025887e-002
2.428042e+003;2.038334e-002
2.429970e+003;2.053471e-002
2.431899e+003;2.071392e-002
2.433828e+003;2.086397e-002
2.435756e+003;2.093295e-002
2.437685e+003;2.091154e-002
2.439613e+003;2.107877e-002
2.441542e+003;2.132346e-002
2.443470e+003;2.147181e-002
2.445399e+003;2.159524e-002
2.447327e+003;2.151745e-002
2.449256e+003;2.144326e-002
2.451185e+003;2.159653e-002
2.453113e+003;2.160931e-002
2.455042e+003;2.136686e-002
2.456970e+003;2.140480e-002
2.458899e+003;2.150823e-002
2.460827e+003;2.166124e-002
2.462756e+003;2.182371e-002
2.464684e+003;2.178409e-002
2.466613e+003;2.194776e-002
2.468542e+003;2.233604e-002
2.470470e+003;2.243362e-002
2.472398e+003;2.226795e-002
2.474327e+003;2.216281e-002
2.476256e+003;2.225564e-002
2.478184e+003;2.231940e-002
2.480113e+003;2.244660e-002
2.482041e+003;2.251904e-002
2.483970e+003;2.242336e-002
2.485898e+003;2.237375e-002
2.487827e+003;2.226823e-002
2.489755e+003;2.224023e-002
2.491684e+003;2.245204e-002
2.493613e+003;2.237364e-002
2.495541e+003;2.222924e-002
2.497470e+003;2.221121e-002
2.499398e+003;2.209639e-002
2.501327e+003;2.230057e-002
2.503255e+003;2.250026e-002
2.505184e+003;2.263320e-002
2.507112e+003;2.278389e-002
2.509041e+003;2.281675e-002
2.510969e+003;2.278106e-002
2.512898e+003;2.289599e-002
2.514827e+003;2.314646e-002
2.516755e+003;2.326778e-002
2.518684e+003;2.343222e-002
2.520612e+003;2.361068e-002
2.522541e+003;2.382172e-002
2.524469e+003;2.397751e-002
2.526398e+003;2.418775e-002
2.528326e+003;2.437241e-002
2.530255e+003;2.464811e-002
2.532184e+003;2.483783e-002
2.534112e+003;2.494745e-002
2.536041e+003;2.493384e-002
2.537969e+003;2.486250e-002
2.539898e+003;2.491668e-002
2.541826e+003;2.490832e-002
2.543755e+003;2.501403e-002
2.545683e+003;2.525192e-002
2.547612e+003;2.529045e-002
2.549541e+003;2.538637e-002
2.551469e+003;2.548105e-002
2.553397e+003;2.524125e-002
2.555326e+003;2.534173e-002
2.557255e+003;2.543774e-002
2.559183e+003;2.552543e-002
2.561112e+003;2.585858e-002
2.563040e+003;2.607013e-002
2.564969e+003;2.615183e-002
2.566897e+003;2.592403e-002
2.568826e+003;2.577904e-002
2.570754e+003;2.596061e-002
2.572683e+003;2.608761e-002
2.574612e+003;2.628653e-002
2.576540e+003;2.659645e-002
2.578469e+003;2.677120e-002
2.580397e+003;2.678069e-002
2.582326e+003;2.676832e-002
2.584254e+003;2.663569e-002
2.586183e+003;2.661318e-002
2.588111e+003;2.680038e-002
2.590040e+003;2.704487e-002
2.591969e+003;2.703386e-002
2.593897e+003;2.685812e-002
2.595826e+003;2.660842e-002
2.597754e+003;2.654061e-002
2.599683e+003;2.667131e-002
2.601611e+003;2.683098e-002
2.603540e+003;2.703037e-002
2.605468e+003;2.723071e-002
2.607397e+003;2.737763e-002
2.609325e+003;2.756464e-002
2.611254e+003;2.773156e-002
2.613183e+003;2.805933e-002
2.615111e+003;2.815103e-002
2.617040e+003;2.804470e-002
2.618968e+003;2.812377e-002
2.620897e+003;2.836744e-002
2.622825e+003;2.839942e-002
2.624754e+003;2.824978e-002
2.626682e+003;2.822107e-002
2.628611e+003;2.833235e-002
2.630540e+003;2.852947e-002
2.632468e+003;2.862990e-002
2.634396e+003;2.869687e-002
2.636325e+003;2.897330e-002
2.638254e+003;2.910328e-002
2.640182e+003;2.931715e-002
2.642111e+003;2.935072e-002
2.644039e+003;2.928986e-002
2.645968e+003;2.952042e-002
2.647896e+003;2.963822e-002
2.649825e+003;2.948734e-002
2.651753e+003;2.956994e-002
2.653682e+003;2.971155e-002
2.655611e+003;2.978138e-002
2.657539e+003;2.999051e-002
2.659468e+003;3.023385e-002
2.661396e+003;3.008532e-002
2.663325e+003;3.000837e-002
2.665253e+003;3.039099e-002
2.667182e+003;3.047017e-002
2.669110e+003;3.039874e-002
2.671039e+003;3.053106e-002
2.672968e+003;3.073284e-002
2.674896e+003;3.089778e-002
2.676825e+003;3.088988e-002
2.678753e+003;3.092614e-002
2.680682e+003;3.126064e-002
2.682610e+003;3.143836e-002
2.684539e+003;3.144088e-002
2.686467e+003;3.200236e-002
2.688396e+003;3.267808e-002
2.690324e+003;3.279927e-002
2.692253e+003;3.281492e-002
2.694182e+003;3.294323e-002
2.696110e+003;3.312861e-002
2.698039e+003;3.348529e-002
2.699967e+003;3.387736e-002
2.701896e+003;3.413435e-002
2.703824e+003;3.425064e-002
2.705753e+003;3.436410e-002
2.707681e+003;3.457581e-002
2.709610e+003;3.487720e-002
2.711539e+003;3.510360e-002
2.713467e+003;3.517146e-002
2.715396e+003;3.550124e-002
2.717324e+003;3.603033e-002
2.719253e+003;3.640198e-002
2.721181e+003;3.660178e-002
2.723110e+003;3.686587e-002
2.725038e+003;3.728921e-002
2.726967e+003;3.767607e-002
2.728896e+003;3.783889e-002
2.730824e+003;3.796457e-002
2.732752e+003;3.851409e-002
2.734681e+003;3.916913e-002
2.736610e+003;3.949546e-002
2.738538e+003;3.973939e-002
2.740467e+003;3.972188e-002
2.742395e+003;3.970428e-002
2.744324e+003;3.993772e-002
2.746252e+003;4.008835e-002
2.748181e+003;4.024605e-002
2.750109e+003;4.054838e-002
2.752038e+003;4.070897e-002
2.753967e+003;4.066403e-002
2.755895e+003;4.056875e-002
2.757824e+003;4.080116e-002
2.759752e+003;4.122092e-002
2.761681e+003;4.136748e-002
2.763609e+003;4.161002e-002
2.765538e+003;4.183821e-002
2.767466e+003;4.178717e-002
2.769395e+003;4.185521e-002
2.771323e+003;4.210944e-002
2.773252e+003;4.251845e-002
2.775181e+003;4.276759e-002
2.777109e+003;4.309532e-002
2.779038e+003;4.348753e-002
2.780966e+003;4.394531e-002
2.782895e+003;4.447963e-002
2.784823e+003;4.478400e-002
2.786752e+003;4.522543e-002
2.788680e+003;4.579501e-002
2.790609e+003;4.614238e-002
2.792538e+003;4.649240e-002
2.794466e+003;4.701129e-002
2.796395e+003;4.741640e-002
2.798323e+003;4.783521e-002
2.800252e+003;4.845431e-002
2.802180e+003;4.886503e-002
2.804109e+003;4.918014e-002
2.806037e+003;4.983680e-002
2.807966e+003;5.083100e-002
2.809895e+003;5.161000e-002
2.811823e+003;5.227278e-002
2.813751e+003;5.289771e-002
2.815680e+003;5.358278e-002
2.817609e+003;5.449702e-002
2.819537e+003;5.544640e-002
2.821466e+003;5.610687e-002
2.823394e+003;5.669159e-002
2.825323e+003;5.730705e-002
2.827251e+003;5.791698e-002
2.829180e+003;5.869408e-002
2.831108e+003;5.970892e-002
2.833037e+003;6.094396e-002
2.834966e+003;6.244539e-002
2.836894e+003;6.422368e-002
2.838823e+003;6.651942e-002
2.840751e+003;6.936007e-002
2.842680e+003;7.300387e-002
2.844608e+003;7.719539e-002
2.846537e+003;8.126225e-002
2.848465e+003;8.526019e-002
2.850394e+003;8.920429e-002
2.852323e+003;9.217292e-002
2.854251e+003;9.490260e-002
2.856180e+003;9.749767e-002
2.858108e+003;9.912803e-002
2.860037e+003;1.000343e-001
2.861965e+003;1.005623e-001
2.863894e+003;1.001567e-001
2.865822e+003;9.941637e-002
2.867751e+003;9.841055e-002
2.869679e+003;9.694998e-002
2.871608e+003;9.495182e-002
2.873536e+003;9.236117e-002
2.875465e+003;8.981225e-002
2.877394e+003;8.783811e-002
2.879322e+003;8.592822e-002
2.881251e+003;8.426435e-002
2.883179e+003;8.311576e-002
2.885108e+003;8.252207e-002
2.887036e+003;8.275184e-002
2.888965e+003;8.349164e-002
2.890893e+003;8.468627e-002
2.892822e+003;8.665217e-002
2.894750e+003;8.884881e-002
2.896679e+003;9.047345e-002
2.898608e+003;9.177281e-002
2.900536e+003;9.324060e-002
2.902465e+003;9.438144e-002
2.904393e+003;9.517968e-002
2.906322e+003;9.626653e-002
2.908250e+003;9.780701e-002
2.910179e+003;9.955123e-002
2.912107e+003;1.019105e-001
2.914036e+003;1.044402e-001
2.915965e+003;1.066618e-001
2.917893e+003;1.087814e-001
2.919822e+003;1.111743e-001
2.921750e+003;1.142931e-001
2.923679e+003;1.174015e-001
2.925607e+003;1.194888e-001
2.927536e+003;1.216444e-001
2.929464e+003;1.242324e-001
2.931393e+003;1.260048e-001
2.933322e+003;1.270385e-001
2.935250e+003;1.272768e-001
2.937178e+003;1.265502e-001
2.939107e+003;1.247297e-001
2.941036e+003;1.224943e-001
2.942964e+003;1.201823e-001
2.944893e+003;1.169904e-001
2.946821e+003;1.122980e-001
2.948750e+003;1.068492e-001
2.950678e+003;1.012091e-001
2.952607e+003;9.564601e-002
2.954535e+003;9.071033e-002
2.956464e+003;8.596570e-002
2.958393e+003;8.152609e-002
2.960321e+003;7.799984e-002
2.962250e+003;7.541500e-002
2.964178e+003;7.308385e-002
2.966107e+003;7.061931e-002
2.968035e+003;6.832068e-002
2.969964e+003;6.608707e-002
2.971892e+003;6.381756e-002
2.973821e+003;6.158475e-002
2.975750e+003;5.976298e-002
2.977678e+003;5.849721e-002
2.979607e+003;5.716930e-002
2.981535e+003;5.593555e-002
2.983464e+003;5.482008e-002
2.985392e+003;5.348544e-002
2.987321e+003;5.222472e-002
2.989249e+003;5.124451e-002
2.991178e+003;5.069440e-002
2.993106e+003;5.024664e-002
2.995035e+003;4.948296e-002
2.996964e+003;4.874439e-002
2.998892e+003;4.830937e-002
3.000821e+003;4.805903e-002
3.002749e+003;4.792426e-002
3.004678e+003;4.802206e-002
3.006606e+003;4.791985e-002
3.008535e+003;4.770339e-002
3.010463e+003;4.804534e-002
3.012392e+003;4.847687e-002
3.014321e+003;4.829778e-002
3.016249e+003;4.811622e-002
3.018177e+003;4.848624e-002
3.020106e+003;4.898582e-002
3.022035e+003;4.935543e-002
3.023963e+003;4.986634e-002
3.025892e+003;5.031003e-002
3.027820e+003;5.072631e-002
3.029749e+003;5.117681e-002
3.031677e+003;5.172189e-002
3.033606e+003;5.233531e-002
3.035534e+003;5.294974e-002
3.037463e+003;5.370012e-002
3.039392e+003;5.450251e-002
3.041320e+003;5.502726e-002
3.043249e+003;5.588022e-002
3.045177e+003;5.691705e-002
3.047106e+003;5.752794e-002
3.049034e+003;5.809776e-002
3.050963e+003;5.910007e-002
3.052891e+003;5.997166e-002
3.054820e+003;6.087518e-002
3.056749e+003;6.140564e-002
3.058677e+003;6.145770e-002
3.060606e+003;6.185535e-002
3.062534e+003;6.254736e-002
3.064463e+003;6.315197e-002
3.066391e+003;6.331658e-002
3.068320e+003;6.337877e-002
3.070248e+003;6.361175e-002
3.072177e+003;6.356656e-002
3.074105e+003;6.354378e-002
3.076034e+003;6.347521e-002
3.077963e+003;6.338222e-002
3.079891e+003;6.371936e-002
3.081820e+003;6.364850e-002
3.083748e+003;6.306530e-002
3.085677e+003;6.245032e-002
3.087605e+003;6.235262e-002
3.089534e+003;6.227574e-002
3.091462e+003;6.174423e-002
3.093391e+003;6.128238e-002
3.095320e+003;6.064992e-002
3.097248e+003;5.986432e-002
3.099177e+003;5.931573e-002
3.101105e+003;5.901299e-002
3.103034e+003;5.874946e-002
3.104962e+003;5.813765e-002
3.106891e+003;5.745449e-002
3.108819e+003;5.675937e-002
3.110748e+003;5.605266e-002
3.112677e+003;5.555223e-002
3.114605e+003;5.493633e-002
3.116533e+003;5.440271e-002
3.118462e+003;5.400243e-002
3.120391e+003;5.383129e-002
3.122319e+003;5.357112e-002
3.124248e+003;5.302038e-002
3.126176e+003;5.278646e-002
3.128105e+003;5.250238e-002
3.130033e+003;5.197816e-002
3.131962e+003;5.201256e-002
3.133890e+003;5.231071e-002
3.135819e+003;5.224699e-002
3.137748e+003;5.178523e-002
3.139676e+003;5.167337e-002
3.141605e+003;5.198037e-002
3.143533e+003;5.221310e-002
3.145462e+003;5.247661e-002
3.147390e+003;5.289367e-002
3.149319e+003;5.336006e-002
3.151247e+003;5.357217e-002
3.153176e+003;5.355084e-002
3.155104e+003;5.323397e-002
3.157033e+003;5.336714e-002
3.158962e+003;5.397733e-002
3.160890e+003;5.446998e-002
3.162819e+003;5.486530e-002
3.164747e+003;5.551055e-002
3.166676e+003;5.623147e-002
3.168604e+003;5.662357e-002
3.170533e+003;5.702260e-002
3.172461e+003;5.786140e-002
3.174390e+003;5.886696e-002
3.176319e+003;5.950021e-002
3.178247e+003;5.974260e-002
3.180176e+003;5.999996e-002
3.182104e+003;6.067678e-002
3.184033e+003;6.133633e-002
3.185961e+003;6.172360e-002
3.187890e+003;6.224718e-002
3.189818e+003;6.261639e-002
3.191747e+003;6.288937e-002
3.193676e+003;6.349514e-002
3.195604e+003;6.417345e-002
3.197532e+003;6.427033e-002
3.199461e+003;6.443494e-002
3.201390e+003;6.489493e-002
3.203318e+003;6.514162e-002
3.205247e+003;6.533880e-002
3.207175e+003;6.538016e-002
3.209104e+003;6.583999e-002
3.211032e+003;6.651254e-002
3.212961e+003;6.700682e-002
3.214889e+003;6.751080e-002
3.216818e+003;6.786561e-002
3.218747e+003;6.851128e-002
3.220675e+003;6.896943e-002
3.222604e+003;6.933457e-002
3.224532e+003;7.054225e-002
3.226461e+003;7.152658e-002
3.228389e+003;7.188489e-002
3.230318e+003;7.257067e-002
3.232246e+003;7.380003e-002
3.234175e+003;7.493646e-002
3.236104e+003;7.583714e-002
3.238032e+003;7.687468e-002
3.239961e+003;7.786734e-002
3.241889e+003;7.902675e-002
3.243818e+003;8.066346e-002
3.245746e+003;8.230139e-002
3.247675e+003;8.348927e-002
3.249603e+003;8.489121e-002
3.251532e+003;8.634162e-002
3.253460e+003;8.807168e-002
3.255389e+003;9.000894e-002
3.257318e+003;9.156571e-002
3.259246e+003;9.303017e-002
3.261175e+003;9.487370e-002
3.263103e+003;9.671456e-002
3.265032e+003;9.807861e-002
3.266960e+003;9.982922e-002
3.268889e+003;1.018075e-001
3.270817e+003;1.036215e-001
3.272746e+003;1.056386e-001
3.274675e+003;1.074272e-001
3.276603e+003;1.088219e-001
3.278531e+003;1.108651e-001
3.280460e+003;1.129456e-001
3.282389e+003;1.145300e-001
3.284317e+003;1.159592e-001
3.286246e+003;1.172902e-001
3.288174e+003;1.185805e-001
3.290103e+003;1.199587e-001
3.292031e+003;1.208676e-001
3.293960e+003;1.211592e-001
3.295888e+003;1.204851e-001
3.297817e+003;1.191702e-001
3.299746e+003;1.173886e-001
3.301674e+003;1.151434e-001
3.303603e+003;1.129144e-001
3.305531e+003;1.105426e-001
3.307460e+003;1.077876e-001
3.309388e+003;1.050049e-001
3.311317e+003;1.023453e-001
3.313245e+003;9.962749e-002
3.315174e+003;9.751040e-002
3.317103e+003;9.530590e-002
3.319031e+003;9.265202e-002
3.320960e+003;8.998778e-002
3.322888e+003;8.748066e-002
3.324817e+003;8.567324e-002
3.326745e+003;8.411513e-002
3.328674e+003;8.200150e-002
3.330602e+003;8.004630e-002
3.332531e+003;7.834269e-002
3.334459e+003;7.646134e-002
3.336388e+003;7.509919e-002
3.338317e+003;7.374000e-002
3.340245e+003;7.222980e-002
3.342174e+003;7.090813e-002
3.344102e+003;6.970185e-002
3.346031e+003;6.847039e-002
3.347959e+003;6.749497e-002
3.349888e+003;6.633528e-002
3.351816e+003;6.471287e-002
3.353745e+003;6.360810e-002
3.355674e+003;6.276048e-002
3.357602e+003;6.163405e-002
3.359531e+003;6.078626e-002
3.361459e+003;6.032592e-002
3.363388e+003;5.986223e-002
3.365316e+003;5.931462e-002
3.367245e+003;5.832402e-002
3.369173e+003;5.719757e-002
3.371102e+003;5.682043e-002
3.373031e+003;5.619556e-002
3.374959e+003;5.514409e-002
3.376887e+003;5.446220e-002
3.378816e+003;5.403117e-002
3.380745e+003;5.334912e-002
3.382673e+003;5.274964e-002
3.384602e+003;5.244637e-002
3.386530e+003;5.220828e-002
3.388459e+003;5.208222e-002
3.390387e+003;5.182398e-002
3.392316e+003;5.134776e-002
3.394244e+003;5.074989e-002
3.396173e+003;5.049371e-002
3.398102e+003;5.002816e-002
3.400030e+003;4.918797e-002
3.401959e+003;4.856093e-002
3.403887e+003;4.823083e-002
3.405816e+003;4.801884e-002
3.407744e+003;4.781749e-002
3.409673e+003;4.767299e-002
3.411601e+003;4.752869e-002
3.413530e+003;4.702964e-002
3.415458e+003;4.660910e-002
3.417387e+003;4.636692e-002
3.419316e+003;4.621472e-002
3.421244e+003;4.606866e-002
3.423173e+003;4.589480e-002
3.425101e+003;4.553673e-002
3.427030e+003;4.499020e-002
3.428958e+003;4.446035e-002
3.430887e+003;4.450573e-002
3.432815e+003;4.448039e-002
3.434744e+003;4.422389e-002
3.436673e+003;4.394161e-002
3.438601e+003;4.359031e-002
3.440530e+003;4.358111e-002
3.442458e+003;4.367409e-002
3.444387e+003;4.339506e-002
3.446315e+003;4.308592e-002
3.448244e+003;4.292704e-002
3.450172e+003;4.272321e-002
3.452101e+003;4.237157e-002
3.454030e+003;4.207619e-002
3.455958e+003;4.174868e-002
3.457886e+003;4.105733e-002
3.459815e+003;4.043690e-002
3.461744e+003;3.975580e-002
3.463672e+003;3.922675e-002
3.465601e+003;3.909476e-002
3.467529e+003;3.909059e-002
3.469458e+003;3.895604e-002
3.471386e+003;3.868325e-002
3.473315e+003;3.807646e-002
3.475243e+003;3.746681e-002
3.477172e+003;3.760961e-002
3.479101e+003;3.811922e-002
3.481029e+003;3.821042e-002
3.482958e+003;3.752392e-002
3.484886e+003;3.689577e-002
3.486815e+003;3.679655e-002
3.488743e+003;3.664663e-002
3.490672e+003;3.665077e-002
3.492600e+003;3.643679e-002
3.494529e+003;3.622622e-002
3.496458e+003;3.623756e-002
3.498386e+003;3.597483e-002
3.500315e+003;3.572048e-002
3.502243e+003;3.562890e-002
3.504172e+003;3.520912e-002
3.506100e+003;3.487457e-002
3.508029e+003;3.484876e-002
3.509957e+003;3.478443e-002
3.511886e+003;3.463042e-002
3.513814e+003;3.445667e-002
3.515743e+003;3.434516e-002
3.517672e+003;3.393085e-002
3.519600e+003;3.346360e-002
3.521529e+003;3.343772e-002
3.523457e+003;3.313730e-002
3.525386e+003;3.267962e-002
3.527314e+003;3.225236e-002
3.529243e+003;3.158315e-002
3.531171e+003;3.111945e-002
3.533100e+003;3.073536e-002
3.535029e+003;3.061254e-002
3.536957e+003;3.046559e-002
3.538885e+003;3.031339e-002
3.540814e+003;2.999033e-002
3.542743e+003;2.935065e-002
3.544671e+003;2.913052e-002
3.546600e+003;2.882446e-002
3.548528e+003;2.841636e-002
3.550457e+003;2.807195e-002
3.552385e+003;2.789412e-002
3.554314e+003;2.755666e-002
3.556242e+003;2.684652e-002
3.558171e+003;2.665908e-002
3.560100e+003;2.659754e-002
3.562028e+003;2.634254e-002
3.563957e+003;2.615042e-002
3.565885e+003;2.555200e-002
3.567814e+003;2.467974e-002
3.569742e+003;2.427457e-002
3.571671e+003;2.418050e-002
3.573599e+003;2.378126e-002
3.575528e+003;2.340302e-002
3.577457e+003;2.336927e-002
3.579385e+003;2.318064e-002
3.581314e+003;2.283292e-002
3.583242e+003;2.242399e-002
3.585171e+003;2.208398e-002
3.587099e+003;2.171237e-002
3.589028e+003;2.137406e-002
3.590956e+003;2.117923e-002
3.592885e+003;2.090743e-002
3.594813e+003;2.068435e-002
3.596742e+003;2.042713e-002
3.598671e+003;1.991954e-002
3.600599e+003;1.966736e-002
3.602528e+003;1.951567e-002
3.604456e+003;1.899890e-002
3.606385e+003;1.855345e-002
3.608313e+003;1.803516e-002
3.610242e+003;1.774185e-002
3.612170e+003;1.790362e-002
3.614099e+003;1.795790e-002
3.616028e+003;1.776667e-002
3.617956e+003;1.749151e-002
3.619885e+003;1.685367e-002
3.621813e+003;1.654443e-002
3.623742e+003;1.654009e-002
3.625670e+003;1.620170e-002
3.627599e+003;1.587398e-002
3.629527e+003;1.592159e-002
3.631456e+003;1.595084e-002
3.633385e+003;1.599649e-002
3.635313e+003;1.583821e-002
3.637241e+003;1.552749e-002
3.639170e+003;1.532524e-002
3.641099e+003;1.521377e-002
3.643027e+003;1.511379e-002
3.644956e+003;1.463262e-002
3.646884e+003;1.385912e-002
3.648813e+003;1.349287e-002
3.650741e+003;1.371599e-002
3.652670e+003;1.388447e-002
3.654598e+003;1.398369e-002
3.656527e+003;1.415105e-002
3.658456e+003;1.400104e-002
3.660384e+003;1.349913e-002
3.662313e+003;1.335272e-002
3.664241e+003;1.359074e-002
3.666170e+003;1.346734e-002
3.668098e+003;1.316566e-002
3.670027e+003;1.296904e-002
3.671955e+003;1.304170e-002
3.673884e+003;1.325423e-002
3.675813e+003;1.318530e-002
3.677741e+003;1.268391e-002
3.679669e+003;1.208201e-002
3.681598e+003;1.205407e-002
3.683527e+003;1.165809e-002
3.685455e+003;1.105279e-002
3.687384e+003;1.087955e-002
3.689312e+003;1.090299e-002
3.691241e+003;1.099304e-002
3.693169e+003;1.096086e-002
3.695098e+003;1.103963e-002
3.697026e+003;1.110618e-002
3.698955e+003;1.084493e-002
3.700884e+003;1.066339e-002
3.702812e+003;1.084697e-002
3.704741e+003;1.082988e-002
3.706669e+003;1.068224e-002
3.708598e+003;1.012105e-002
3.710526e+003;9.781929e-003
3.712455e+003;1.004078e-002
3.714383e+003;1.010789e-002
3.716312e+003;1.023767e-002
3.718240e+003;1.076521e-002
3.720169e+003;1.117995e-002
3.722098e+003;1.059803e-002
3.724026e+003;1.012203e-002
3.725955e+003;9.968934e-003
3.727883e+003;9.960187e-003
3.729812e+003;1.001840e-002
3.731740e+003;1.001776e-002
3.733669e+003;1.021881e-002
3.735597e+003;1.045589e-002
3.737526e+003;1.063351e-002
3.739455e+003;1.071256e-002
3.741383e+003;1.059796e-002
3.743312e+003;1.049329e-002
3.745240e+003;1.032571e-002
3.747169e+003;1.036178e-002
3.749097e+003;1.002610e-002
3.751026e+003;9.821987e-003
3.752954e+003;1.007106e-002
3.754883e+003;1.025616e-002
3.756812e+003;1.056621e-002
3.758740e+003;1.074557e-002
3.760668e+003;1.043807e-002
3.762597e+003;1.028876e-002
3.764526e+003;1.049771e-002
3.766454e+003;1.034933e-002
3.768383e+003;1.028645e-002
3.770311e+003;1.055104e-002
3.772240e+003;1.100062e-002
3.774168e+003;1.080067e-002
3.776097e+003;1.049163e-002
3.778025e+003;1.067035e-002
3.779954e+003;1.056292e-002
3.781883e+003;1.032099e-002
3.783811e+003;1.048732e-002
3.785740e+003;1.094414e-002
3.787668e+003;1.101153e-002
3.789597e+003;1.095746e-002
3.791525e+003;1.070869e-002
3.793454e+003;1.041845e-002
3.795382e+003;1.031767e-002
3.797311e+003;1.049557e-002
3.799240e+003;1.036626e-002
3.801168e+003;9.960898e-003
3.803097e+003;1.006767e-002
3.805025e+003;1.040766e-002
3.806954e+003;1.046295e-002
3.808882e+003;1.081449e-002
3.810811e+003;1.129468e-002
3.812739e+003;1.121797e-002
3.814668e+003;1.056068e-002
3.816596e+003;1.062611e-002
3.818525e+003;1.107522e-002
3.820454e+003;1.086039e-002
3.822382e+003;1.063130e-002
3.824311e+003;1.094152e-002
3.826239e+003;1.092922e-002
3.828168e+003;1.092542e-002
3.830096e+003;1.102186e-002
3.832025e+003;1.092892e-002
3.833953e+003;1.080342e-002
3.835882e+003;1.082941e-002
3.837811e+003;1.049594e-002
3.839739e+003;1.044883e-002
3.841667e+003;1.099912e-002
3.843596e+003;1.087367e-002
3.845525e+003;1.044150e-002
3.847453e+003;1.079449e-002
3.849382e+003;1.117761e-002
3.851310e+003;1.106166e-002
3.853239e+003;1.094132e-002
3.855167e+003;1.129842e-002
3.857096e+003;1.152483e-002
3.859024e+003;1.118431e-002
3.860953e+003;1.105211e-002
3.862882e+003;1.111397e-002
3.864810e+003;1.082098e-002
3.866739e+003;1.083661e-002
3.868667e+003;1.103855e-002
3.870596e+003;1.093048e-002
3.872524e+003;1.120566e-002
3.874453e+003;1.139246e-002
3.876381e+003;1.132859e-002
3.878310e+003;1.124843e-002
3.880239e+003;1.117795e-002
3.882167e+003;1.133719e-002
3.884096e+003;1.132614e-002
3.886024e+003;1.116061e-002
3.887953e+003;1.156393e-002
3.889881e+003;1.172307e-002
3.891810e+003;1.162566e-002
3.893738e+003;1.158019e-002
3.895667e+003;1.130046e-002
3.897595e+003;1.137600e-002
3.899524e+003;1.179923e-002
3.901453e+003;1.201773e-002
3.903381e+003;1.202570e-002
3.905310e+003;1.167089e-002
3.907238e+003;1.159347e-002
3.909167e+003;1.188044e-002
3.911095e+003;1.229175e-002
3.913024e+003;1.232281e-002
3.914952e+003;1.174915e-002
3.916881e+003;1.148472e-002
3.918810e+003;1.156549e-002
3.920738e+003;1.201088e-002
3.922667e+003;1.242406e-002
3.924595e+003;1.248486e-002
3.926524e+003;1.265525e-002
3.928452e+003;1.294296e-002
3.930381e+003;1.302910e-002
3.932309e+003;1.303043e-002
3.934238e+003;1.279282e-002
3.936167e+003;1.267412e-002
3.938095e+003;1.312604e-002
3.940023e+003;1.335563e-002
3.941952e+003;1.315445e-002
3.943881e+003;1.321071e-002
3.945809e+003;1.339838e-002
3.947738e+003;1.349369e-002
3.949666e+003;1.357060e-002
3.951595e+003;1.324914e-002
3.953523e+003;1.282224e-002
3.955452e+003;1.318847e-002
3.957380e+003;1.379201e-002
3.959309e+003;1.408783e-002
3.961238e+003;1.370480e-002
3.963166e+003;1.336110e-002
3.965095e+003;1.363153e-002
3.967023e+003;1.395519e-002
3.968952e+003;1.427841e-002
3.970880e+003;1.416420e-002
3.972809e+003;1.384123e-002
3.974737e+003;1.356937e-002
3.976666e+003;1.335204e-002
3.978594e+003;1.350432e-002
3.980523e+003;1.406696e-002
3.982452e+003;1.471292e-002
3.984380e+003;1.477938e-002
3.986309e+003;1.472920e-002
3.988237e+003;1.468522e-002
3.990166e+003;1.446891e-002
3.992094e+003;1.431649e-002
3.994023e+003;1.407260e-002
3.995951e+003;1.475947e-002
3.997880e+003;1.535177e-002
3.999809e+003;1.483314e-002
4.001737e+003;0.000000e+000
