3.992094e+002;0.000000e+000
4.011380e+002;0.000000e+000
4.030665e+002;0.000000e+000
4.049951e+002;0.000000e+000
4.069236e+002;0.000000e+000
4.088522e+002;0.000000e+000
4.107807e+002;0.000000e+000
4.127093e+002;0.000000e+000
4.146378e+002;0.000000e+000
4.165664e+002;0.000000e+000
4.184949e+002;0.000000e+000
4.204235e+002;0.000000e+000
4.223520e+002;0.000000e+000
4.242806e+002;0.000000e+000
4.262091e+002;0.000000e+000
4.281377e+002;0.000000e+000
4.300662e+002;0.000000e+000
4.319948e+002;0.000000e+000
4.339233e+002;0.000000e+000
4.358519e+002;0.000000e+000
4.377804e+002;0.000000e+000
4.397090e+002;0.000000e+000
4.416375e+002;0.000000e+000
4.435660e+002;0.000000e+000
4.454946e+002;0.000000e+000
4.474232e+002;0.000000e+000
4.493517e+002;0.000000e+000
4.512802e+002;0.000000e+000
4.532088e+002;0.000000e+000
4.551373e+002;0.000000e+000
4.570659e+002;0.000000e+000
4.589944e+002;0.000000e+000
4.609230e+002;0.000000e+000
4.628515e+002;0.000000e+000
4.647801e+002;0.000000e+000
4.667086e+002;0.000000e+000
4.686372e+002;0.000000e+000
4.705657e+002;0.000000e+000
4.724943e+002;0.000000e+000
4.744228e+002;0.000000e+000
4.763513e+002;0.000000e+000
4.782799e+002;0.000000e+000
4.802085e+002;0.000000e+000
4.821370e+002;0.000000e+000
4.840656e+002;0.000000e+000
4.859941e+002;0.000000e+000
4.879226e+002;0.000000e+000
4.898512e+002;0.000000e+000
4.917798e+002;0.000000e+000
4.937083e+002;0.000000e+000
4.956368e+002;0.000000e+000
4.975654e+002;0.000000e+000
4.994939e+002;0.000000e+000
5.014225e+002;0.000000e+000
5.033510e+002;0.000000e+000
5.052796e+002;0.000000e+000
5.072081e+002;0.000000e+000
5.091367e+002;0.000000e+000
5.110652e+002;0.000000e+000
5.129938e+002;0.000000e+000
5.149223e+002;0.000000e+000
5.168509e+002;0.000000e+000
5.187794e+002;0.000000e+000
5.207079e+002;0.000000e+000
5.226365e+002;0.000000e+000
5.245651e+002;0.000000e+000
5.264936e+002;0.000000e+000
5.284222e+002;0.000000e+000
5.303507e+002;0.000000e+000
5.322792e+002;0.000000e+000
5.342078e+002;0.000000e+000
5.361364e+002;0.000000e+000
5.380649e+002;0.000000e+000
5.399935e+002;0.000000e+000
5.419220e+002;0.000000e+000
5.438505e+002;0.000000e+000
5.457791e+002;0.000000e+000
5.477076e+002;0.000000e+000
5.496362e+002;0.000000e+000
5.515648e+002;0.000000e+000
5.534933e+002;0.000000e+000
5.554218e+002;0.000000e+000
5.573504e+002;0.000000e+000
5.592789e+002;0.000000e+000
5.612075e+002;0.000000e+000
5.631360e+002;0.000000e+000
5.650646e+002;0.000000e+000
5.669931e+002;0.000000e+000
5.689217e+002;0.000000e+000
5.708502e+002;0.000000e+000
5.727787e+002;0.000000e+000
5.747073e+002;0.000000e+000
5.766359e+002;0.000000e+000
5.785644e+002;0.000000e+000
5.804930e+002;0.000000e+000
5.824215e+002;0.000000e+000
5.843500e+002;0.000000e+000
5.862786e+002;0.000000e+000
5.882072e+002;0.000000e+000
5.901357e+002;0.000000e+000
5.920643e+002;0.000000e+000
5.939928e+002;0.000000e+000
5.959213e+002;0.000000e+000
5.978499e+002;0.000000e+000
5.997784e+002;1.218590e-001
6.017070e+002;1.180932e-001
6.036355e+002;1.203513e-001
6.055641e+002;1.226488e-001
6.074926e+002;1.234761e-001
6.094211e+002;1.235175e-001
6.113497e+002;1.236997e-001
6.132783e+002;1.225534e-001
6.152068e+002;1.225388e-001
6.171354e+002;1.229795e-001
6.190639e+002;1.181706e-001
6.209924e+002;1.154958e-001
6.229210e+002;1.198030e-001
6.248495e+002;1.203988e-001
6.267781e+002;1.226006e-001
6.287067e+002;1.297400e-001
6.306352e+002;1.277138e-001
6.325637e+002;1.292636e-001
6.344923e+002;1.346864e-001
6.364208e+002;1.293331e-001
6.383494e+002;1.243467e-001
6.402780e+002;1.275161e-001
6.422065e+002;1.360342e-001
6.441350e+002;1.433283e-001
6.460636e+002;1.459809e-001
6.479921e+002;1.448946e-001
6.499207e+002;1.428622e-001
6.518492e+002;1.411684e-001
6.537778e+002;1.423208e-001
6.557063e+002;1.443244e-001
6.576349e+002;1.431523e-001
6.595634e+002;1.464867e-001
6.614919e+002;1.529929e-001
6.634205e+002;1.561762e-001
6.653491e+002;1.576623e-001
6.672776e+002;1.581332e-001
6.692062e+002;1.574620e-001
6.711347e+002;1.573319e-001
6.730632e+002;1.575669e-001
6.749918e+002;1.604887e-001
6.769203e+002;1.621131e-001
6.788489e+002;1.611584e-001
6.807775e+002;1.604335e-001
6.827060e+002;1.610483e-001
6.846345e+002;1.622495e-001
6.865631e+002;1.622152e-001
6.884916e+002;1.608154e-001
6.904202e+002;1.590046e-001
6.923488e+002;1.575481e-001
6.942773e+002;1.560896e-001
6.962058e+002;1.543554e-001
6.981344e+002;1.523934e-001
7.000629e+002;1.507029e-001
7.019915e+002;1.483155e-001
7.039200e+002;1.458696e-001
7.058486e+002;1.448156e-001
7.077771e+002;1.440252e-001
7.097057e+002;1.438077e-001
7.116342e+002;1.434965e-001
7.135627e+002;1.424906e-001
7.154913e+002;1.411867e-001
7.174199e+002;1.405870e-001
7.193484e+002;1.392395e-001
7.212770e+002;1.393058e-001
7.232055e+002;1.403314e-001
7.251340e+002;1.402003e-001
7.270626e+002;1.400000e-001
7.289911e+002;1.385595e-001
7.309197e+002;1.335787e-001
7.328483e+002;1.266246e-001
7.347768e+002;1.200743e-001
7.367053e+002;1.151858e-001
7.386339e+002;1.118660e-001
7.405624e+002;1.096190e-001
7.424910e+002;1.075888e-001
7.444196e+002;1.054463e-001
7.463481e+002;1.019630e-001
7.482766e+002;9.845003e-002
7.502052e+002;9.578318e-002
7.521337e+002;9.358748e-002
7.540623e+002;9.113558e-002
7.559908e+002;8.889017e-002
7.579194e+002;8.635610e-002
7.598479e+002;8.396804e-002
7.617765e+002;8.300271e-002
7.637050e+002;8.228157e-002
7.656335e+002;8.099261e-002
7.675621e+002;7.871779e-002
7.694907e+002;7.743987e-002
7.714192e+002;7.727721e-002
7.733478e+002;7.552543e-002
7.752763e+002;7.296417e-002
7.772048e+002;7.171300e-002
7.791334e+002;7.035866e-002
7.810620e+002;6.853843e-002
7.829905e+002;6.695849e-002
7.849191e+002;6.578317e-002
7.868476e+002;6.517596e-002
7.887761e+002;6.434444e-002
7.907047e+002;6.403158e-002
7.926332e+002;6.352177e-002
7.945618e+002;6.182632e-002
7.964903e+002;5.916257e-002
7.984189e+002;5.675831e-002
8.003474e+002;5.542482e-002
8.022759e+002;5.395306e-002
8.042045e+002;5.336362e-002
8.061331e+002;5.275795e-002
8.080616e+002;5.174734e-002
8.099902e+002;5.081298e-002
8.119187e+002;5.019330e-002
8.138472e+002;5.010419e-002
8.157758e+002;5.116439e-002
8.177043e+002;5.203844e-002
8.196329e+002;5.328850e-002
8.215615e+002;5.510764e-002
8.234900e+002;5.642551e-002
8.254185e+002;5.747510e-002
8.273471e+002;5.891610e-002
8.292756e+002;6.085296e-002
8.312042e+002;6.231980e-002
8.331328e+002;6.188699e-002
8.350613e+002;5.953175e-002
8.369898e+002;5.614922e-002
8.389184e+002;5.298612e-002
8.408469e+002;5.016325e-002
8.427755e+002;4.739437e-002
8.447040e+002;4.555056e-002
8.466326e+002;4.404141e-002
8.485611e+002;4.210328e-002
8.504897e+002;4.073244e-002
8.524182e+002;4.008805e-002
8.543467e+002;3.911380e-002
8.562753e+002;3.853375e-002
8.582039e+002;3.806493e-002
8.601324e+002;3.763331e-002
8.620610e+002;3.764705e-002
8.639895e+002;3.774986e-002
8.659180e+002;3.795112e-002
8.678466e+002;3.848154e-002
8.697751e+002;3.881866e-002
8.717037e+002;3.838771e-002
8.736323e+002;3.849483e-002
8.755608e+002;3.896205e-002
8.774893e+002;3.988163e-002
8.794179e+002;4.102324e-002
8.813464e+002;4.159302e-002
8.832750e+002;4.197866e-002
8.852036e+002;4.266179e-002
8.871321e+002;4.230583e-002
8.890606e+002;4.123258e-002
8.909892e+002;4.117764e-002
8.929177e+002;4.112132e-002
8.948463e+002;4.130571e-002
8.967748e+002;4.171209e-002
8.987034e+002;4.155689e-002
9.006319e+002;4.144304e-002
9.025605e+002;4.223954e-002
9.044890e+002;4.322882e-002
9.064175e+002;4.365882e-002
9.083461e+002;4.424623e-002
9.102747e+002;4.502588e-002
9.122032e+002;4.559741e-002
9.141318e+002;4.569844e-002
9.160603e+002;4.560101e-002
9.179888e+002;4.565350e-002
9.199174e+002;4.601089e-002
9.218459e+002;4.677029e-002
9.237745e+002;4.764156e-002
9.257031e+002;4.860292e-002
9.276316e+002;4.921684e-002
9.295601e+002;4.953874e-002
9.314887e+002;4.947275e-002
9.334172e+002;4.851751e-002
9.353458e+002;4.747073e-002
9.372744e+002;4.717728e-002
9.392029e+002;4.705142e-002
9.411314e+002;4.673837e-002
9.430600e+002;4.712694e-002
9.449885e+002;4.819688e-002
9.469171e+002;4.978570e-002
9.488456e+002;5.180483e-002
9.507742e+002;5.346805e-002
9.527027e+002;5.475200e-002
9.546313e+002;5.593664e-002
9.565598e+002;5.688630e-002
9.584883e+002;5.790940e-002
9.604169e+002;5.869003e-002
9.623455e+002;5.819447e-002
9.642740e+002;5.700722e-002
9.662026e+002;5.620416e-002
9.681311e+002;5.565429e-002
9.700596e+002;5.499759e-002
9.719882e+002;5.425623e-002
9.739167e+002;5.342994e-002
9.758453e+002;5.301723e-002
9.777739e+002;5.293997e-002
9.797024e+002;5.260305e-002
9.816309e+002;5.229890e-002
9.835595e+002;5.220966e-002
9.854880e+002;5.253603e-002
9.874166e+002;5.323981e-002
9.893452e+002;5.366656e-002
9.912737e+002;5.338029e-002
9.932022e+002;5.184773e-002
9.951307e+002;4.926987e-002
9.970593e+002;4.649520e-002
9.989879e+002;4.444842e-002
1.000916e+003;4.361551e-002
1.002845e+003;4.336881e-002
1.004773e+003;4.303173e-002
1.006702e+003;4.226942e-002
1.008631e+003;4.182971e-002
1.010559e+003;4.236522e-002
1.012488e+003;4.325141e-002
1.014416e+003;4.376809e-002
1.016345e+003;4.406591e-002
1.018273e+003;4.432170e-002
1.020202e+003;4.435939e-002
1.022130e+003;4.446733e-002
1.024059e+003;4.514358e-002
1.025988e+003;4.702853e-002
1.027916e+003;4.912122e-002
1.029845e+003;5.148983e-002
1.031773e+003;5.489553e-002
1.033702e+003;5.861577e-002
1.035630e+003;6.159105e-002
1.037559e+003;6.429464e-002
1.039487e+003;6.809016e-002
1.041416e+003;7.350827e-002
1.043344e+003;7.816260e-002
1.045273e+003;8.020832e-002
1.047202e+003;7.898438e-002
1.049130e+003;7.445648e-002
1.051059e+003;6.832405e-002
1.052987e+003;6.314588e-002
1.054916e+003;5.956751e-002
1.056844e+003;5.751924e-002
1.058773e+003;5.687746e-002
1.060701e+003;5.726263e-002
1.062630e+003;5.824494e-002
1.064558e+003;5.979230e-002
1.066487e+003;6.114290e-002
1.068416e+003;6.239619e-002
1.070344e+003;6.307308e-002
1.072273e+003;6.347072e-002
1.074201e+003;6.381879e-002
1.076130e+003;6.337842e-002
1.078058e+003;6.235534e-002
1.079987e+003;6.169000e-002
1.081915e+003;6.147083e-002
1.083844e+003;6.131771e-002
1.085773e+003;6.135042e-002
1.087701e+003;6.153989e-002
1.089630e+003;6.202709e-002
1.091558e+003;6.263342e-002
1.093487e+003;6.355130e-002
1.095415e+003;6.448314e-002
1.097344e+003;6.595530e-002
1.099272e+003;6.759802e-002
1.101201e+003;6.966124e-002
1.103129e+003;7.188012e-002
1.105058e+003;7.350278e-002
1.106987e+003;7.508170e-002
1.108915e+003;7.608475e-002
1.110844e+003;7.655504e-002
1.112772e+003;7.695928e-002
1.114701e+003;7.769977e-002
1.116629e+003;7.805686e-002
1.118558e+003;7.766791e-002
1.120486e+003;7.603892e-002
1.122415e+003;7.346067e-002
1.124344e+003;7.026996e-002
1.126272e+003;6.636243e-002
1.128201e+003;6.254452e-002
1.130129e+003;5.922158e-002
1.132058e+003;5.676651e-002
1.133986e+003;5.580335e-002
1.135915e+003;5.661798e-002
1.137843e+003;5.874814e-002
1.139772e+003;6.122458e-002
1.141700e+003;6.354535e-002
1.143629e+003;6.581875e-002
1.145557e+003;6.823332e-002
1.147486e+003;7.123493e-002
1.149415e+003;7.546282e-002
1.151343e+003;7.959244e-002
1.153272e+003;8.302907e-002
1.155200e+003;8.639292e-002
1.157129e+003;9.013039e-002
1.159057e+003;9.517539e-002
1.160986e+003;1.016395e-001
1.162914e+003;1.081232e-001
1.164843e+003;1.142999e-001
1.166771e+003;1.189917e-001
1.168700e+003;1.213020e-001
1.170629e+003;1.212547e-001
1.172557e+003;1.190906e-001
1.174486e+003;1.153810e-001
1.176414e+003;1.114918e-001
1.178343e+003;1.084583e-001
1.180271e+003;1.069052e-001
1.182200e+003;1.066710e-001
1.184128e+003;1.078266e-001
1.186057e+003;1.103268e-001
1.187986e+003;1.139630e-001
1.189914e+003;1.176574e-001
1.191843e+003;1.211697e-001
1.193771e+003;1.247766e-001
1.195700e+003;1.280068e-001
1.197628e+003;1.301413e-001
1.199557e+003;1.307043e-001
1.201485e+003;1.292154e-001
1.203414e+003;1.262317e-001
1.205343e+003;1.234468e-001
1.207271e+003;1.213855e-001
1.209200e+003;1.199128e-001
1.211128e+003;1.181238e-001
1.213057e+003;1.160190e-001
1.214985e+003;1.142162e-001
1.216914e+003;1.123304e-001
1.218842e+003;1.102529e-001
1.220771e+003;1.090542e-001
1.222699e+003;1.094959e-001
1.224628e+003;1.117000e-001
1.226557e+003;1.149318e-001
1.228485e+003;1.184615e-001
1.230414e+003;1.223052e-001
1.232342e+003;1.255094e-001
1.234271e+003;1.277399e-001
1.236199e+003;1.294328e-001
1.238128e+003;1.301883e-001
1.240056e+003;1.295464e-001
1.241985e+003;1.281090e-001
1.243913e+003;1.269209e-001
1.245842e+003;1.266065e-001
1.247771e+003;1.271320e-001
1.249699e+003;1.285343e-001
1.251628e+003;1.304637e-001
1.253556e+003;1.329184e-001
1.255485e+003;1.354246e-001
1.257413e+003;1.372648e-001
1.259342e+003;1.380483e-001
1.261270e+003;1.375325e-001
1.263199e+003;1.354690e-001
1.265127e+003;1.319290e-001
1.267056e+003;1.277184e-001
1.268985e+003;1.234435e-001
1.270913e+003;1.199747e-001
1.272842e+003;1.182200e-001
1.274770e+003;1.181074e-001
1.276699e+003;1.189573e-001
1.278627e+003;1.196689e-001
1.280556e+003;1.197866e-001
1.282484e+003;1.195700e-001
1.284413e+003;1.188858e-001
1.286342e+003;1.175363e-001
1.288270e+003;1.165510e-001
1.290199e+003;1.162253e-001
1.292127e+003;1.162272e-001
1.294056e+003;1.167240e-001
1.295984e+003;1.173443e-001
1.297913e+003;1.171143e-001
1.299841e+003;1.160981e-001
1.301770e+003;1.147998e-001
1.303698e+003;1.130584e-001
1.305627e+003;1.112226e-001
1.307556e+003;1.095286e-001
1.309484e+003;1.084815e-001
1.311413e+003;1.084012e-001
1.313341e+003;1.087861e-001
1.315270e+003;1.096036e-001
1.317198e+003;1.107628e-001
1.319127e+003;1.118189e-001
1.321055e+003;1.127799e-001
1.322984e+003;1.136616e-001
1.324912e+003;1.146404e-001
1.326841e+003;1.155319e-001
1.328770e+003;1.157955e-001
1.330698e+003;1.152206e-001
1.332627e+003;1.141088e-001
1.334555e+003;1.126480e-001
1.336484e+003;1.109038e-001
1.338412e+003;1.088954e-001
1.340341e+003;1.070423e-001
1.342269e+003;1.058417e-001
1.344198e+003;1.050574e-001
1.346126e+003;1.045631e-001
1.348055e+003;1.045867e-001
1.349984e+003;1.049968e-001
1.351912e+003;1.054755e-001
1.353841e+003;1.061973e-001
1.355769e+003;1.073328e-001
1.357698e+003;1.085730e-001
1.359626e+003;1.097108e-001
1.361555e+003;1.113466e-001
1.363483e+003;1.131477e-001
1.365412e+003;1.144337e-001
1.367341e+003;1.158527e-001
1.369269e+003;1.173675e-001
1.371198e+003;1.183622e-001
1.373126e+003;1.187136e-001
1.375055e+003;1.180937e-001
1.376983e+003;1.163422e-001
1.378912e+003;1.138581e-001
1.380840e+003;1.112070e-001
1.382769e+003;1.080385e-001
1.384698e+003;1.047133e-001
1.386626e+003;1.016990e-001
1.388555e+003;9.875930e-002
1.390483e+003;9.613951e-002
1.392412e+003;9.430489e-002
1.394340e+003;9.325559e-002
1.396269e+003;9.313798e-002
1.398197e+003;9.403984e-002
1.400126e+003;9.594089e-002
1.402054e+003;9.866539e-002
1.403983e+003;1.019802e-001
1.405911e+003;1.064241e-001
1.407840e+003;1.120901e-001
1.409769e+003;1.183597e-001
1.411697e+003;1.251209e-001
1.413626e+003;1.314644e-001
1.415554e+003;1.358323e-001
1.417483e+003;1.375483e-001
1.419411e+003;1.366790e-001
1.421340e+003;1.344999e-001
1.423268e+003;1.320918e-001
1.425197e+003;1.305576e-001
1.427125e+003;1.305594e-001
1.429054e+003;1.317791e-001
1.430983e+003;1.339560e-001
1.432911e+003;1.361128e-001
1.434840e+003;1.376122e-001
1.436768e+003;1.378829e-001
1.438697e+003;1.373399e-001
1.440625e+003;1.362676e-001
1.442554e+003;1.347544e-001
1.444482e+003;1.336263e-001
1.446411e+003;1.331217e-001
1.448340e+003;1.338095e-001
1.450268e+003;1.361100e-001
1.452197e+003;1.392682e-001
1.454125e+003;1.429360e-001
1.456054e+003;1.471980e-001
1.457982e+003;1.518379e-001
1.459911e+003;1.557759e-001
1.461839e+003;1.574016e-001
1.463768e+003;1.556113e-001
1.465697e+003;1.507375e-001
1.467625e+003;1.443307e-001
1.469554e+003;1.383938e-001
1.471482e+003;1.343022e-001
1.473411e+003;1.322742e-001
1.475339e+003;1.310577e-001
1.477268e+003;1.293250e-001
1.479196e+003;1.266394e-001
1.481125e+003;1.227279e-001
1.483053e+003;1.180884e-001
1.484982e+003;1.137600e-001
1.486911e+003;1.106539e-001
1.488839e+003;1.094134e-001
1.490768e+003;1.101412e-001
1.492696e+003;1.126651e-001
1.494625e+003;1.163947e-001
1.496553e+003;1.211610e-001
1.498482e+003;1.268363e-001
1.500410e+003;1.323475e-001
1.502339e+003;1.377318e-001
1.504267e+003;1.429859e-001
1.506196e+003;1.482462e-001
1.508125e+003;1.545359e-001
1.510053e+003;1.615583e-001
1.511982e+003;1.683987e-001
1.513910e+003;1.748799e-001
1.515839e+003;1.813301e-001
1.517767e+003;1.878640e-001
1.519696e+003;1.941297e-001
1.521624e+003;2.004690e-001
1.523553e+003;2.071395e-001
1.525481e+003;2.139925e-001
1.527410e+003;2.208118e-001
1.529339e+003;2.272443e-001
1.531267e+003;2.329317e-001
1.533196e+003;2.377950e-001
1.535124e+003;2.422117e-001
1.537053e+003;2.453584e-001
1.538981e+003;2.463903e-001
1.540910e+003;2.458628e-001
1.542838e+003;2.437997e-001
1.544767e+003;2.400451e-001
1.546695e+003;2.345489e-001
1.548624e+003;2.274400e-001
1.550553e+003;2.190726e-001
1.552481e+003;2.103416e-001
1.554410e+003;2.014473e-001
1.556338e+003;1.924268e-001
1.558267e+003;1.832919e-001
1.560195e+003;1.745495e-001
1.562124e+003;1.662836e-001
1.564052e+003;1.580288e-001
1.565981e+003;1.500324e-001
1.567910e+003;1.426878e-001
1.569838e+003;1.360422e-001
1.571767e+003;1.303283e-001
1.573695e+003;1.254301e-001
1.575624e+003;1.209850e-001
1.577552e+003;1.174925e-001
1.579481e+003;1.151872e-001
1.581409e+003;1.133781e-001
1.583338e+003;1.121175e-001
1.585266e+003;1.114103e-001
1.587195e+003;1.112401e-001
1.589124e+003;1.118850e-001
1.591052e+003;1.128044e-001
1.592981e+003;1.137795e-001
1.594909e+003;1.157355e-001
1.596838e+003;1.183442e-001
1.598766e+003;1.215797e-001
1.600695e+003;1.259930e-001
1.602623e+003;1.318556e-001
1.604552e+003;1.390266e-001
1.606480e+003;1.473049e-001
1.608409e+003;1.560210e-001
1.610338e+003;1.652511e-001
1.612266e+003;1.752846e-001
1.614195e+003;1.861066e-001
1.616123e+003;1.977956e-001
1.618052e+003;2.108682e-001
1.619980e+003;2.241938e-001
1.621909e+003;2.368908e-001
1.623837e+003;2.491588e-001
1.625766e+003;2.612514e-001
1.627694e+003;2.728329e-001
1.629623e+003;2.833862e-001
1.631552e+003;2.925542e-001
1.633480e+003;2.991055e-001
1.635409e+003;3.014455e-001
1.637337e+003;2.983289e-001
1.639266e+003;2.901117e-001
1.641194e+003;2.784159e-001
1.643123e+003;2.645503e-001
1.645051e+003;2.492829e-001
1.646980e+003;2.343070e-001
1.648909e+003;2.209654e-001
1.650837e+003;2.088879e-001
1.652766e+003;1.974245e-001
1.654694e+003;1.876386e-001
1.656623e+003;1.791220e-001
1.658551e+003;1.704672e-001
1.660480e+003;1.622980e-001
1.662408e+003;1.542533e-001
1.664337e+003;1.464335e-001
1.666266e+003;1.387942e-001
1.668194e+003;1.310525e-001
1.670123e+003;1.237100e-001
1.672051e+003;1.169086e-001
1.673980e+003;1.097369e-001
1.675908e+003;1.023374e-001
1.677837e+003;9.495091e-002
1.679765e+003;8.727139e-002
1.681694e+003;7.973446e-002
1.683622e+003;7.239593e-002
1.685551e+003;6.558389e-002
1.687479e+003;6.000723e-002
1.689408e+003;5.513995e-002
1.691337e+003;5.126118e-002
1.693265e+003;4.795419e-002
1.695194e+003;4.483977e-002
1.697122e+003;4.249437e-002
1.699051e+003;4.042064e-002
1.700979e+003;3.861483e-002
1.702908e+003;3.798941e-002
1.704836e+003;3.735821e-002
1.706765e+003;3.638422e-002
1.708693e+003;3.561977e-002
1.710622e+003;3.531441e-002
1.712551e+003;3.488165e-002
1.714479e+003;3.427130e-002
1.716408e+003;3.354499e-002
1.718336e+003;3.292950e-002
1.720265e+003;3.287639e-002
1.722193e+003;3.304157e-002
1.724122e+003;3.293204e-002
1.726050e+003;3.267247e-002
1.727979e+003;3.216589e-002
1.729908e+003;3.153187e-002
1.731836e+003;3.074091e-002
1.733765e+003;2.990741e-002
1.735693e+003;2.914587e-002
1.737622e+003;2.862572e-002
1.739550e+003;2.784279e-002
1.741479e+003;2.687268e-002
1.743407e+003;2.605859e-002
1.745336e+003;2.521266e-002
1.747265e+003;2.449656e-002
1.749193e+003;2.382242e-002
1.751122e+003;2.271280e-002
1.753050e+003;2.187325e-002
1.754979e+003;2.123034e-002
1.756907e+003;2.059571e-002
1.758836e+003;2.000683e-002
1.760764e+003;1.926995e-002
1.762693e+003;1.851690e-002
1.764621e+003;1.784206e-002
1.766550e+003;1.705529e-002
1.768479e+003;1.649844e-002
1.770407e+003;1.602447e-002
1.772336e+003;1.531841e-002
1.774264e+003;1.474212e-002
1.776193e+003;1.440088e-002
1.778121e+003;1.414267e-002
1.780050e+003;1.380142e-002
1.781978e+003;1.343692e-002
1.783907e+003;1.292736e-002
1.785835e+003;1.239167e-002
1.787764e+003;1.209032e-002
1.789693e+003;1.169308e-002
1.791621e+003;1.121807e-002
1.793550e+003;1.096755e-002
1.795478e+003;1.088899e-002
1.797407e+003;1.083301e-002
1.799335e+003;1.058774e-002
1.801264e+003;1.031682e-002
1.803192e+003;1.010046e-002
1.805121e+003;9.783318e-003
1.807049e+003;9.530513e-003
1.808978e+003;9.444764e-003
1.810907e+003;9.378602e-003
1.812835e+003;9.158178e-003
1.814764e+003;8.866980e-003
1.816692e+003;8.499471e-003
1.818621e+003;8.185585e-003
1.820549e+003;8.094161e-003
1.822478e+003;7.972381e-003
1.824406e+003;7.710813e-003
1.826335e+003;7.542646e-003
1.828264e+003;7.474413e-003
1.830192e+003;7.431065e-003
1.832121e+003;7.559065e-003
1.834049e+003;7.627041e-003
1.835978e+003;7.529126e-003
1.837906e+003;7.381790e-003
1.839835e+003;7.092790e-003
1.841763e+003;6.794524e-003
1.843692e+003;6.772514e-003
1.845620e+003;6.825759e-003
1.847549e+003;6.512373e-003
1.849478e+003;6.266775e-003
1.851406e+003;6.150615e-003
1.853335e+003;5.943244e-003
1.855263e+003;5.895414e-003
1.857192e+003;5.955942e-003
1.859120e+003;5.820253e-003
1.861049e+003;5.659295e-003
1.862977e+003;5.709013e-003
1.864906e+003;5.601427e-003
1.866834e+003;5.512155e-003
1.868763e+003;5.518766e-003
1.870692e+003;5.326086e-003
1.872620e+003;5.372143e-003
1.874549e+003;5.474774e-003
1.876477e+003;5.235429e-003
1.878406e+003;5.076968e-003
1.880334e+003;5.124641e-003
1.882263e+003;5.005836e-003
1.884191e+003;5.125311e-003
1.886120e+003;5.504773e-003
1.888048e+003;5.499605e-003
1.889977e+003;5.317935e-003
1.891906e+003;5.419547e-003
1.893834e+003;5.597097e-003
1.895763e+003;5.659060e-003
1.897691e+003;5.584208e-003
1.899620e+003;5.313843e-003
1.901548e+003;5.062620e-003
1.903477e+003;5.078945e-003
1.905405e+003;5.339504e-003
1.907334e+003;5.373317e-003
1.909262e+003;5.129200e-003
1.911191e+003;5.245658e-003
1.913120e+003;5.418775e-003
1.915048e+003;5.351982e-003
1.916977e+003;5.144557e-003
1.918905e+003;4.844275e-003
1.920834e+003;4.804104e-003
1.922762e+003;4.908578e-003
1.924691e+003;4.710909e-003
1.926619e+003;4.603068e-003
1.928548e+003;4.852652e-003
1.930477e+003;4.917692e-003
1.932405e+003;4.712450e-003
1.934334e+003;4.702167e-003
1.936262e+003;4.791172e-003
1.938191e+003;4.596270e-003
1.940119e+003;4.415179e-003
1.942048e+003;4.425857e-003
1.943976e+003;4.520898e-003
1.945905e+003;4.573600e-003
1.947833e+003;4.511758e-003
1.949762e+003;4.618438e-003
1.951691e+003;4.606617e-003
1.953619e+003;4.310958e-003
1.955548e+003;4.035665e-003
1.957476e+003;4.089010e-003
1.959405e+003;4.459298e-003
1.961333e+003;4.617702e-003
1.963262e+003;4.540652e-003
1.965190e+003;4.467868e-003
1.967119e+003;4.415748e-003
1.969047e+003;4.283183e-003
1.970976e+003;4.091987e-003
1.972905e+003;3.903717e-003
1.974833e+003;3.842606e-003
1.976762e+003;3.966877e-003
1.978690e+003;4.054226e-003
1.980619e+003;4.123462e-003
1.982547e+003;4.174812e-003
1.984476e+003;4.060046e-003
1.986404e+003;4.032087e-003
1.988333e+003;4.093593e-003
1.990261e+003;3.920133e-003
1.992190e+003;3.860658e-003
1.994119e+003;4.095265e-003
1.996047e+003;4.160259e-003
1.997976e+003;4.018342e-003
1.999904e+003;3.894724e-003
2.001833e+003;4.001554e-003
2.003761e+003;4.044862e-003
2.005690e+003;3.817803e-003
2.007618e+003;3.775319e-003
2.009547e+003;4.103861e-003
2.011476e+003;4.260864e-003
2.013404e+003;4.011386e-003
2.015333e+003;4.016101e-003
2.017261e+003;4.264378e-003
2.019190e+003;4.384954e-003
2.021118e+003;4.314605e-003
2.023047e+003;4.376319e-003
2.024975e+003;4.505866e-003
2.026904e+003;4.429438e-003
2.028833e+003;4.427597e-003
2.030761e+003;4.673698e-003
2.032690e+003;4.869975e-003
2.034618e+003;4.898726e-003
2.036547e+003;4.885422e-003
2.038475e+003;5.041166e-003
2.040404e+003;5.025545e-003
2.042332e+003;4.894570e-003
2.044261e+003;4.872253e-003
2.046189e+003;4.800887e-003
2.048118e+003;4.777302e-003
2.050047e+003;4.915012e-003
2.051975e+003;4.987770e-003
2.053904e+003;4.854260e-003
2.055832e+003;4.868635e-003
2.057761e+003;4.935722e-003
2.059689e+003;5.022696e-003
2.061618e+003;5.069928e-003
2.063546e+003;5.217589e-003
2.065475e+003;5.264305e-003
2.067404e+003;5.132654e-003
2.069332e+003;5.034428e-003
2.071260e+003;4.986664e-003
2.073189e+003;5.022763e-003
2.075118e+003;5.030842e-003
2.077046e+003;5.087293e-003
2.078975e+003;5.179931e-003
2.080903e+003;4.945776e-003
2.082832e+003;4.766750e-003
2.084760e+003;4.806047e-003
2.086689e+003;4.746215e-003
2.088617e+003;4.711278e-003
2.090546e+003;4.681870e-003
2.092475e+003;4.738712e-003
2.094403e+003;4.598480e-003
2.096332e+003;4.422208e-003
2.098260e+003;4.461039e-003
2.100189e+003;4.592586e-003
2.102117e+003;4.743971e-003
2.104046e+003;4.784036e-003
2.105974e+003;4.702301e-003
2.107903e+003;4.774455e-003
2.109832e+003;5.120350e-003
2.111760e+003;5.239856e-003
2.113688e+003;5.170241e-003
2.115617e+003;5.165881e-003
2.117546e+003;5.100770e-003
2.119474e+003;5.140936e-003
2.121403e+003;5.271784e-003
2.123331e+003;5.204577e-003
2.125260e+003;5.276278e-003
2.127188e+003;5.357483e-003
2.129117e+003;5.503967e-003
2.131045e+003;5.741915e-003
2.132974e+003;5.838958e-003
2.134903e+003;5.670541e-003
2.136831e+003;5.331990e-003
2.138760e+003;5.425653e-003
2.140688e+003;5.706058e-003
2.142617e+003;5.579375e-003
2.144545e+003;5.537995e-003
2.146474e+003;5.619451e-003
2.148402e+003;5.724926e-003
2.150331e+003;5.871400e-003
2.152260e+003;5.792012e-003
2.154188e+003;5.780998e-003
2.156117e+003;6.060122e-003
2.158045e+003;6.186710e-003
2.159974e+003;6.334953e-003
2.161902e+003;6.481262e-003
2.163831e+003;6.443158e-003
2.165759e+003;6.382092e-003
2.167688e+003;6.353545e-003
2.169616e+003;6.221060e-003
2.171545e+003;6.243077e-003
2.173474e+003;6.282843e-003
2.175402e+003;6.484524e-003
2.177331e+003;6.609588e-003
2.179259e+003;6.422309e-003
2.181188e+003;6.267279e-003
2.183116e+003;6.380982e-003
2.185045e+003;6.647470e-003
2.186973e+003;6.897223e-003
2.188902e+003;7.079722e-003
2.190831e+003;6.983412e-003
2.192759e+003;6.601682e-003
2.194688e+003;6.500971e-003
2.196616e+003;6.685996e-003
2.198545e+003;6.725769e-003
2.200473e+003;6.556134e-003
2.202402e+003;6.410707e-003
2.204330e+003;6.585299e-003
2.206259e+003;6.728260e-003
2.208188e+003;6.517687e-003
2.210116e+003;6.381823e-003
2.212044e+003;6.524649e-003
2.213973e+003;6.552871e-003
2.215902e+003;6.388850e-003
2.217830e+003;6.453752e-003
2.219759e+003;6.583146e-003
2.221687e+003;6.415482e-003
2.223616e+003;6.181399e-003
2.225544e+003;6.074166e-003
2.227473e+003;5.962357e-003
2.229401e+003;5.820454e-003
2.231330e+003;6.037442e-003
2.233259e+003;6.215111e-003
2.235187e+003;6.139189e-003
2.237116e+003;5.923191e-003
2.239044e+003;5.832577e-003
2.240973e+003;6.008784e-003
2.242901e+003;6.148867e-003
2.244830e+003;6.380646e-003
2.246758e+003;6.619243e-003
2.248687e+003;6.461755e-003
2.250615e+003;6.206742e-003
2.252544e+003;6.061902e-003
2.254473e+003;6.240757e-003
2.256401e+003;6.541165e-003
2.258330e+003;6.844743e-003
2.260258e+003;7.041566e-003
2.262187e+003;6.913011e-003
2.264115e+003;6.746432e-003
2.266044e+003;6.793481e-003
2.267972e+003;6.879010e-003
2.269901e+003;7.043957e-003
2.271830e+003;7.307753e-003
2.273758e+003;7.468547e-003
2.275687e+003;7.325342e-003
2.277615e+003;7.194076e-003
2.279544e+003;7.175986e-003
2.281472e+003;7.232717e-003
2.283401e+003;7.417549e-003
2.285329e+003;7.619083e-003
2.287258e+003;7.753783e-003
2.289187e+003;7.827019e-003
2.291115e+003;7.755909e-003
2.293043e+003;7.846216e-003
2.294972e+003;7.957093e-003
2.296901e+003;7.876446e-003
2.298829e+003;7.609271e-003
2.300758e+003;7.495684e-003
2.302686e+003;7.597199e-003
2.304615e+003;8.100035e-003
2.306543e+003;8.283412e-003
2.308472e+003;8.034009e-003
2.310400e+003;8.061586e-003
2.312329e+003;8.108406e-003
2.314258e+003;8.170865e-003
2.316186e+003;8.329277e-003
2.318115e+003;8.440751e-003
2.320043e+003;8.303912e-003
2.321972e+003;8.198449e-003
2.323900e+003;8.045452e-003
2.325829e+003;7.874860e-003
2.327757e+003;7.764476e-003
2.329686e+003;7.758033e-003
2.331615e+003;7.897467e-003
2.333543e+003;8.008560e-003
2.335472e+003;7.882655e-003
2.337400e+003;7.613283e-003
2.339329e+003;7.496729e-003
2.341257e+003;7.565943e-003
2.343186e+003;7.807217e-003
2.345114e+003;8.083088e-003
2.347043e+003;8.386058e-003
2.348971e+003;8.398590e-003
2.350900e+003;8.189772e-003
2.352829e+003;7.973191e-003
2.354757e+003;7.608428e-003
2.356686e+003;7.309842e-003
2.358614e+003;7.353279e-003
2.360543e+003;7.494706e-003
2.362471e+003;7.593524e-003
2.364400e+003;7.786875e-003
2.366328e+003;7.897636e-003
2.368257e+003;8.098988e-003
2.370186e+003;8.231473e-003
2.372114e+003;8.141626e-003
2.374042e+003;8.155772e-003
2.375971e+003;8.541406e-003
2.377900e+003;8.967023e-003
2.379828e+003;9.245089e-003
2.381757e+003;9.430237e-003
2.383685e+003;9.435520e-003
2.385614e+003;9.477680e-003
2.387542e+003;9.577085e-003
2.389471e+003;9.384256e-003
2.391399e+003;9.145048e-003
2.393328e+003;9.220246e-003
2.395257e+003;9.393601e-003
2.397185e+003;9.478764e-003
2.399114e+003;9.546736e-003
2.401042e+003;9.469721e-003
2.402971e+003;9.450385e-003
2.404899e+003;9.266040e-003
2.406828e+003;9.108200e-003
2.408756e+003;9.433048e-003
2.410685e+003;9.917708e-003
2.412614e+003;1.005638e-002
2.414542e+003;9.956118e-003
2.416471e+003;1.004895e-002
2.418399e+003;1.027231e-002
2.420328e+003;1.021138e-002
2.422256e+003;1.007988e-002
2.424185e+003;1.008870e-002
2.426113e+003;1.011054e-002
2.428042e+003;1.017155e-002
2.429970e+003;1.046268e-002
2.431899e+003;1.064886e-002
2.433828e+003;1.071450e-002
2.435756e+003;1.079778e-002
2.437685e+003;1.080318e-002
2.439613e+003;1.073895e-002
2.441542e+003;1.079761e-002
2.443470e+003;1.092905e-002
2.445399e+003;1.108620e-002
2.447327e+003;1.134562e-002
2.449256e+003;1.146237e-002
2.451185e+003;1.124925e-002
2.453113e+003;1.135141e-002
2.455042e+003;1.158819e-002
2.456970e+003;1.152255e-002
2.458899e+003;1.162430e-002
2.460827e+003;1.188309e-002
2.462756e+003;1.193956e-002
2.464684e+003;1.185776e-002
2.466613e+003;1.187172e-002
2.468542e+003;1.196415e-002
2.470470e+003;1.224308e-002
2.472398e+003;1.256660e-002
2.474327e+003;1.249396e-002
2.476256e+003;1.206113e-002
2.478184e+003;1.194995e-002
2.480113e+003;1.223085e-002
2.482041e+003;1.229666e-002
2.483970e+003;1.232693e-002
2.485898e+003;1.227730e-002
2.487827e+003;1.217966e-002
2.489755e+003;1.208474e-002
2.491684e+003;1.213339e-002
2.493613e+003;1.241496e-002
2.495541e+003;1.247176e-002
2.497470e+003;1.241833e-002
2.499398e+003;1.253280e-002
2.501327e+003;1.264911e-002
2.503255e+003;1.284626e-002
2.505184e+003;1.299526e-002
2.507112e+003;1.306440e-002
2.509041e+003;1.309671e-002
2.510969e+003;1.309742e-002
2.512898e+003;1.340275e-002
2.514827e+003;1.380354e-002
2.516755e+003;1.408438e-002
2.518684e+003;1.404991e-002
2.520612e+003;1.392324e-002
2.522541e+003;1.443914e-002
2.524469e+003;1.508342e-002
2.526398e+003;1.510792e-002
2.528326e+003;1.492493e-002
2.530255e+003;1.520471e-002
2.532184e+003;1.554600e-002
2.534112e+003;1.550060e-002
2.536041e+003;1.548196e-002
2.537969e+003;1.570455e-002
2.539898e+003;1.579532e-002
2.541826e+003;1.581470e-002
2.543755e+003;1.612838e-002
2.545683e+003;1.621339e-002
2.547612e+003;1.600948e-002
2.549541e+003;1.613704e-002
2.551469e+003;1.625226e-002
2.553397e+003;1.619100e-002
2.555326e+003;1.627799e-002
2.557255e+003;1.647452e-002
2.559183e+003;1.652969e-002
2.561112e+003;1.653634e-002
2.563040e+003;1.672407e-002
2.564969e+003;1.689025e-002
2.566897e+003;1.682308e-002
2.568826e+003;1.657327e-002
2.570754e+003;1.678795e-002
2.572683e+003;1.718092e-002
2.574612e+003;1.730007e-002
2.576540e+003;1.735820e-002
2.578469e+003;1.757662e-002
2.580397e+003;1.768314e-002
2.582326e+003;1.759156e-002
2.584254e+003;1.778683e-002
2.586183e+003;1.805571e-002
2.588111e+003;1.809488e-002
2.590040e+003;1.828826e-002
2.591969e+003;1.822699e-002
2.593897e+003;1.807357e-002
2.595826e+003;1.816190e-002
2.597754e+003;1.834080e-002
2.599683e+003;1.851185e-002
2.601611e+003;1.873666e-002
2.603540e+003;1.891624e-002
2.605468e+003;1.886762e-002
2.607397e+003;1.910435e-002
2.609325e+003;1.924238e-002
2.611254e+003;1.905778e-002
2.613183e+003;1.938718e-002
2.615111e+003;1.975532e-002
2.617040e+003;1.974818e-002
2.618968e+003;1.956461e-002
2.620897e+003;1.960669e-002
2.622825e+003;1.988961e-002
2.624754e+003;1.991843e-002
2.626682e+003;1.992138e-002
2.628611e+003;2.021273e-002
2.630540e+003;2.043682e-002
2.632468e+003;2.051244e-002
2.634396e+003;2.054002e-002
2.636325e+003;2.081972e-002
2.638254e+003;2.091745e-002
2.640182e+003;2.083575e-002
2.642111e+003;2.084367e-002
2.644039e+003;2.099363e-002
2.645968e+003;2.126844e-002
2.647896e+003;2.145900e-002
2.649825e+003;2.152577e-002
2.651753e+003;2.147411e-002
2.653682e+003;2.140967e-002
2.655611e+003;2.148319e-002
2.657539e+003;2.189374e-002
2.659468e+003;2.213931e-002
2.661396e+003;2.228682e-002
2.663325e+003;2.255464e-002
2.665253e+003;2.262688e-002
2.667182e+003;2.268092e-002
2.669110e+003;2.302940e-002
2.671039e+003;2.314191e-002
2.672968e+003;2.304827e-002
2.674896e+003;2.306563e-002
2.676825e+003;2.322699e-002
2.678753e+003;2.334239e-002
2.680682e+003;2.347943e-002
2.682610e+003;2.398812e-002
2.684539e+003;2.437409e-002
2.686467e+003;2.464411e-002
2.688396e+003;2.517885e-002
2.690324e+003;2.552515e-002
2.692253e+003;2.576797e-002
2.694182e+003;2.609226e-002
2.696110e+003;2.617006e-002
2.698039e+003;2.616981e-002
2.699967e+003;2.636827e-002
2.701896e+003;2.683320e-002
2.703824e+003;2.725865e-002
2.705753e+003;2.748602e-002
2.707681e+003;2.745344e-002
2.709610e+003;2.767307e-002
2.711539e+003;2.809182e-002
2.713467e+003;2.844590e-002
2.715396e+003;2.864710e-002
2.717324e+003;2.892251e-002
2.719253e+003;2.944163e-002
2.721181e+003;3.007630e-002
2.723110e+003;3.053700e-002
2.725038e+003;3.094026e-002
2.726967e+003;3.117405e-002
2.728896e+003;3.156608e-002
2.730824e+003;3.219226e-002
2.732752e+003;3.268690e-002
2.734681e+003;3.282829e-002
2.736610e+003;3.291878e-002
2.738538e+003;3.301086e-002
2.740467e+003;3.313540e-002
2.742395e+003;3.355959e-002
2.744324e+003;3.416901e-002
2.746252e+003;3.437170e-002
2.748181e+003;3.432193e-002
2.750109e+003;3.462927e-002
2.752038e+003;3.495648e-002
2.753967e+003;3.498510e-002
2.755895e+003;3.501373e-002
2.757824e+003;3.520434e-002
2.759752e+003;3.558898e-002
2.761681e+003;3.588106e-002
2.763609e+003;3.610940e-002
2.765538e+003;3.657302e-002
2.767466e+003;3.693740e-002
2.769395e+003;3.705817e-002
2.771323e+003;3.717326e-002
2.773252e+003;3.744362e-002
2.775181e+003;3.786282e-002
2.777109e+003;3.828580e-002
2.779038e+003;3.879214e-002
2.780966e+003;3.930651e-002
2.782895e+003;3.965538e-002
2.784823e+003;3.997611e-002
2.786752e+003;4.057210e-002
2.788680e+003;4.127215e-002
2.790609e+003;4.150566e-002
2.792538e+003;4.177980e-002
2.794466e+003;4.219594e-002
2.796395e+003;4.266918e-002
2.798323e+003;4.336471e-002
2.800252e+003;4.433829e-002
2.802180e+003;4.528224e-002
2.804109e+003;4.588898e-002
2.806037e+003;4.644697e-002
2.807966e+003;4.711265e-002
2.809895e+003;4.787405e-002
2.811823e+003;4.906052e-002
2.813751e+003;5.034712e-002
2.815680e+003;5.139542e-002
2.817609e+003;5.231647e-002
2.819537e+003;5.297969e-002
2.821466e+003;5.374774e-002
2.823394e+003;5.462382e-002
2.825323e+003;5.544143e-002
2.827251e+003;5.637767e-002
2.829180e+003;5.741209e-002
2.831108e+003;5.900411e-002
2.833037e+003;6.067182e-002
2.834966e+003;6.239076e-002
2.836894e+003;6.454714e-002
2.838823e+003;6.729858e-002
2.840751e+003;7.062785e-002
2.842680e+003;7.442694e-002
2.844608e+003;7.872415e-002
2.846537e+003;8.301342e-002
2.848465e+003;8.730768e-002
2.850394e+003;9.176487e-002
2.852323e+003;9.562226e-002
2.854251e+003;9.891922e-002
2.856180e+003;1.018427e-001
2.858108e+003;1.042181e-001
2.860037e+003;1.062068e-001
2.861965e+003;1.071381e-001
2.863894e+003;1.067106e-001
2.865822e+003;1.058948e-001
2.867751e+003;1.048371e-001
2.869679e+003;1.030868e-001
2.871608e+003;1.012131e-001
2.873536e+003;9.943036e-002
2.875465e+003;9.717782e-002
2.877394e+003;9.468123e-002
2.879322e+003;9.270132e-002
2.881251e+003;9.119288e-002
2.883179e+003;9.018458e-002
2.885108e+003;8.949951e-002
2.887036e+003;8.914253e-002
2.888965e+003;8.928616e-002
2.890893e+003;9.018850e-002
2.892822e+003;9.164001e-002
2.894750e+003;9.321908e-002
2.896679e+003;9.470928e-002
2.898608e+003;9.630160e-002
2.900536e+003;9.784611e-002
2.902465e+003;9.931961e-002
2.904393e+003;1.010366e-001
2.906322e+003;1.027979e-001
2.908250e+003;1.043494e-001
2.910179e+003;1.057824e-001
2.912107e+003;1.073487e-001
2.914036e+003;1.090957e-001
2.915965e+003;1.115184e-001
2.917893e+003;1.139776e-001
2.919822e+003;1.166051e-001
2.921750e+003;1.193475e-001
2.923679e+003;1.215634e-001
2.925607e+003;1.239277e-001
2.927536e+003;1.261799e-001
2.929464e+003;1.282455e-001
2.931393e+003;1.303071e-001
2.933322e+003;1.316479e-001
2.935250e+003;1.323221e-001
2.937178e+003;1.321557e-001
2.939107e+003;1.313697e-001
2.941036e+003;1.299508e-001
2.942964e+003;1.275913e-001
2.944893e+003;1.246752e-001
2.946821e+003;1.212685e-001
2.948750e+003;1.170650e-001
2.950678e+003;1.123924e-001
2.952607e+003;1.073079e-001
2.954535e+003;1.023120e-001
2.956464e+003;9.761066e-002
2.958393e+003;9.283100e-002
2.960321e+003;8.834465e-002
2.962250e+003;8.460099e-002
2.964178e+003;8.144002e-002
2.966107e+003;7.849248e-002
2.968035e+003;7.524558e-002
2.969964e+003;7.223942e-002
2.971892e+003;6.979281e-002
2.973821e+003;6.734904e-002
2.975750e+003;6.489258e-002
2.977678e+003;6.265742e-002
2.979607e+003;6.061399e-002
2.981535e+003;5.875675e-002
2.983464e+003;5.690825e-002
2.985392e+003;5.488211e-002
2.987321e+003;5.317940e-002
2.989249e+003;5.193809e-002
2.991178e+003;5.083615e-002
2.993106e+003;4.989857e-002
2.995035e+003;4.907896e-002
2.996964e+003;4.826301e-002
2.998892e+003;4.753420e-002
3.000821e+003;4.709009e-002
3.002749e+003;4.684679e-002
3.004678e+003;4.664554e-002
3.006606e+003;4.657239e-002
3.008535e+003;4.631111e-002
3.010463e+003;4.614415e-002
3.012392e+003;4.622420e-002
3.014321e+003;4.651353e-002
3.016249e+003;4.712938e-002
3.018177e+003;4.742808e-002
3.020106e+003;4.745206e-002
3.022035e+003;4.771748e-002
3.023963e+003;4.814550e-002
3.025892e+003;4.864157e-002
3.027820e+003;4.942493e-002
3.029749e+003;4.996529e-002
3.031677e+003;5.053543e-002
3.033606e+003;5.122262e-002
3.035534e+003;5.206433e-002
3.037463e+003;5.279230e-002
3.039392e+003;5.365884e-002
3.041320e+003;5.468454e-002
3.043249e+003;5.580350e-002
3.045177e+003;5.678425e-002
3.047106e+003;5.776310e-002
3.049034e+003;5.877879e-002
3.050963e+003;5.962787e-002
3.052891e+003;6.057014e-002
3.054820e+003;6.159582e-002
3.056749e+003;6.240793e-002
3.058677e+003;6.294210e-002
3.060606e+003;6.343291e-002
3.062534e+003;6.390308e-002
3.064463e+003;6.450920e-002
3.066391e+003;6.505778e-002
3.068320e+003;6.528546e-002
3.070248e+003;6.536379e-002
3.072177e+003;6.565627e-002
3.074105e+003;6.591253e-002
3.076034e+003;6.604020e-002
3.077963e+003;6.596991e-002
3.079891e+003;6.569716e-002
3.081820e+003;6.560057e-002
3.083748e+003;6.542404e-002
3.085677e+003;6.502187e-002
3.087605e+003;6.450851e-002
3.089534e+003;6.413995e-002
3.091462e+003;6.372677e-002
3.093391e+003;6.305036e-002
3.095320e+003;6.231453e-002
3.097248e+003;6.152996e-002
3.099177e+003;6.049046e-002
3.101105e+003;5.979013e-002
3.103034e+003;5.938425e-002
3.104962e+003;5.875990e-002
3.106891e+003;5.782593e-002
3.108819e+003;5.703159e-002
3.110748e+003;5.657793e-002
3.112677e+003;5.590125e-002
3.114605e+003;5.503391e-002
3.116533e+003;5.425863e-002
3.118462e+003;5.352895e-002
3.120391e+003;5.293525e-002
3.122319e+003;5.240218e-002
3.124248e+003;5.203392e-002
3.126176e+003;5.202122e-002
3.128105e+003;5.161019e-002
3.130033e+003;5.111515e-002
3.131962e+003;5.081354e-002
3.133890e+003;5.064961e-002
3.135819e+003;5.063993e-002
3.137748e+003;5.074229e-002
3.139676e+003;5.068647e-002
3.141605e+003;5.049010e-002
3.143533e+003;5.072661e-002
3.145462e+003;5.095290e-002
3.147390e+003;5.108556e-002
3.149319e+003;5.146894e-002
3.151247e+003;5.217241e-002
3.153176e+003;5.281879e-002
3.155104e+003;5.331536e-002
3.157033e+003;5.365374e-002
3.158962e+003;5.400791e-002
3.160890e+003;5.446911e-002
3.162819e+003;5.491433e-002
3.164747e+003;5.559870e-002
3.166676e+003;5.635141e-002
3.168604e+003;5.712126e-002
3.170533e+003;5.810030e-002
3.172461e+003;5.898267e-002
3.174390e+003;5.956865e-002
3.176319e+003;6.026676e-002
3.178247e+003;6.103570e-002
3.180176e+003;6.174679e-002
3.182104e+003;6.244757e-002
3.184033e+003;6.297393e-002
3.185961e+003;6.335212e-002
3.187890e+003;6.411460e-002
3.189818e+003;6.525450e-002
3.191747e+003;6.550590e-002
3.193676e+003;6.549843e-002
3.195604e+003;6.605096e-002
3.197532e+003;6.651845e-002
3.199461e+003;6.696619e-002
3.201390e+003;6.768703e-002
3.203318e+003;6.848199e-002
3.205247e+003;6.905266e-002
3.207175e+003;6.960659e-002
3.209104e+003;7.031624e-002
3.211032e+003;7.069609e-002
3.212961e+003;7.110522e-002
3.214889e+003;7.187828e-002
3.216818e+003;7.252195e-002
3.218747e+003;7.328283e-002
3.220675e+003;7.397499e-002
3.222604e+003;7.448177e-002
3.224532e+003;7.521800e-002
3.226461e+003;7.628274e-002
3.228389e+003;7.760052e-002
3.230318e+003;7.854933e-002
3.232246e+003;7.945344e-002
3.234175e+003;8.065026e-002
3.236104e+003;8.215544e-002
3.238032e+003;8.377757e-002
3.239961e+003;8.517621e-002
3.241889e+003;8.647261e-002
3.243818e+003;8.783251e-002
3.245746e+003;8.956857e-002
3.247675e+003;9.125424e-002
3.249603e+003;9.315978e-002
3.251532e+003;9.529673e-002
3.253460e+003;9.695666e-002
3.255389e+003;9.847240e-002
3.257318e+003;1.002440e-001
3.259246e+003;1.024427e-001
3.261175e+003;1.047262e-001
3.263103e+003;1.058935e-001
3.265032e+003;1.067514e-001
3.266960e+003;1.084193e-001
3.268889e+003;1.103109e-001
3.270817e+003;1.121090e-001
3.272746e+003;1.135323e-001
3.274675e+003;1.146647e-001
3.276603e+003;1.159919e-001
3.278531e+003;1.174655e-001
3.280460e+003;1.191555e-001
3.282389e+003;1.205060e-001
3.284317e+003;1.212577e-001
3.286246e+003;1.215619e-001
3.288174e+003;1.213063e-001
3.290103e+003;1.210270e-001
3.292031e+003;1.206242e-001
3.293960e+003;1.199052e-001
3.295888e+003;1.186299e-001
3.297817e+003;1.171198e-001
3.299746e+003;1.156936e-001
3.301674e+003;1.139337e-001
3.303603e+003;1.119009e-001
3.305531e+003;1.096364e-001
3.307460e+003;1.075375e-001
3.309388e+003;1.054409e-001
3.311317e+003;1.032300e-001
3.313245e+003;1.011969e-001
3.315174e+003;9.935868e-002
3.317103e+003;9.738782e-002
3.319031e+003;9.553630e-002
3.320960e+003;9.375151e-002
3.322888e+003;9.214765e-002
3.324817e+003;9.039119e-002
3.326745e+003;8.835630e-002
3.328674e+003;8.669230e-002
3.330602e+003;8.473339e-002
3.332531e+003;8.267435e-002
3.334459e+003;8.115730e-002
3.336388e+003;7.956351e-002
3.338317e+003;7.765587e-002
3.340245e+003;7.606801e-002
3.342174e+003;7.493378e-002
3.344102e+003;7.368711e-002
3.346031e+003;7.244690e-002
3.347959e+003;7.127549e-002
3.349888e+003;6.964781e-002
3.351816e+003;6.795193e-002
3.353745e+003;6.656758e-002
3.355674e+003;6.539731e-002
3.357602e+003;6.433264e-002
3.359531e+003;6.345833e-002
3.361459e+003;6.310024e-002
3.363388e+003;6.217319e-002
3.365316e+003;6.067525e-002
3.367245e+003;5.937814e-002
3.369173e+003;5.852329e-002
3.371102e+003;5.792693e-002
3.373031e+003;5.709787e-002
3.374959e+003;5.637208e-002
3.376887e+003;5.596947e-002
3.378816e+003;5.526856e-002
3.380745e+003;5.444109e-002
3.382673e+003;5.389551e-002
3.384602e+003;5.335912e-002
3.386530e+003;5.266802e-002
3.388459e+003;5.199743e-002
3.390387e+003;5.166807e-002
3.392316e+003;5.093803e-002
3.394244e+003;5.010698e-002
3.396173e+003;4.993878e-002
3.398102e+003;4.988192e-002
3.400030e+003;4.919283e-002
3.401959e+003;4.848253e-002
3.403887e+003;4.791852e-002
3.405816e+003;4.780439e-002
3.407744e+003;4.779948e-002
3.409673e+003;4.702827e-002
3.411601e+003;4.638384e-002
3.413530e+003;4.609231e-002
3.415458e+003;4.594684e-002
3.417387e+003;4.590124e-002
3.419316e+003;4.563694e-002
3.421244e+003;4.519167e-002
3.423173e+003;4.471932e-002
3.425101e+003;4.409481e-002
3.427030e+003;4.337654e-002
3.428958e+003;4.297111e-002
3.430887e+003;4.246748e-002
3.432815e+003;4.232259e-002
3.434744e+003;4.238995e-002
3.436673e+003;4.220448e-002
3.438601e+003;4.177498e-002
3.440530e+003;4.161443e-002
3.442458e+003;4.169765e-002
3.444387e+003;4.132615e-002
3.446315e+003;4.061728e-002
3.448244e+003;3.996975e-002
3.450172e+003;3.940496e-002
3.452101e+003;3.859020e-002
3.454030e+003;3.819364e-002
3.455958e+003;3.793615e-002
3.457886e+003;3.730192e-002
3.459815e+003;3.601971e-002
3.461744e+003;3.503150e-002
3.463672e+003;3.498133e-002
3.465601e+003;3.483871e-002
3.467529e+003;3.439939e-002
3.469458e+003;3.447632e-002
3.471386e+003;3.400724e-002
3.473315e+003;3.320035e-002
3.475243e+003;3.265589e-002
3.477172e+003;3.218024e-002
3.479101e+003;3.212879e-002
3.481029e+003;3.199426e-002
3.482958e+003;3.163799e-002
3.484886e+003;3.118374e-002
3.486815e+003;3.081927e-002
3.488743e+003;3.065194e-002
3.490672e+003;3.059100e-002
3.492600e+003;3.040905e-002
3.494529e+003;2.987585e-002
3.496458e+003;2.960807e-002
3.498386e+003;2.941918e-002
3.500315e+003;2.935558e-002
3.502243e+003;2.947457e-002
3.504172e+003;2.941628e-002
3.506100e+003;2.901630e-002
3.508029e+003;2.858538e-002
3.509957e+003;2.782272e-002
3.511886e+003;2.721123e-002
3.513814e+003;2.734202e-002
3.515743e+003;2.720548e-002
3.517672e+003;2.688099e-002
3.519600e+003;2.659176e-002
3.521529e+003;2.601155e-002
3.523457e+003;2.548710e-002
3.525386e+003;2.487432e-002
3.527314e+003;2.452160e-002
3.529243e+003;2.390784e-002
3.531171e+003;2.360091e-002
3.533100e+003;2.361323e-002
3.535029e+003;2.328820e-002
3.536957e+003;2.284318e-002
3.538885e+003;2.236925e-002
3.540814e+003;2.216476e-002
3.542743e+003;2.179932e-002
3.544671e+003;2.118163e-002
3.546600e+003;2.071285e-002
3.548528e+003;2.011124e-002
3.550457e+003;1.966399e-002
3.552385e+003;1.949935e-002
3.554314e+003;1.930321e-002
3.556242e+003;1.893870e-002
3.558171e+003;1.837882e-002
3.560100e+003;1.793798e-002
3.562028e+003;1.770668e-002
3.563957e+003;1.742514e-002
3.565885e+003;1.678699e-002
3.567814e+003;1.626622e-002
3.569742e+003;1.603637e-002
3.571671e+003;1.551204e-002
3.573599e+003;1.489403e-002
3.575528e+003;1.468509e-002
3.577457e+003;1.448600e-002
3.579385e+003;1.402233e-002
3.581314e+003;1.389207e-002
3.583242e+003;1.322991e-002
3.585171e+003;1.241284e-002
3.587099e+003;1.236054e-002
3.589028e+003;1.254331e-002
3.590956e+003;1.233971e-002
3.592885e+003;1.165153e-002
3.594813e+003;1.081470e-002
3.596742e+003;1.045562e-002
3.598671e+003;1.038119e-002
3.600599e+003;9.970255e-003
3.602528e+003;9.345829e-003
3.604456e+003;9.366921e-003
3.606385e+003;9.249387e-003
3.608313e+003;8.696438e-003
3.610242e+003;8.584797e-003
3.612170e+003;8.185383e-003
3.614099e+003;7.615745e-003
3.616028e+003;7.580475e-003
3.617956e+003;7.504044e-003
3.619885e+003;6.975668e-003
3.621813e+003;6.773725e-003
3.623742e+003;6.567604e-003
3.625670e+003;6.186004e-003
3.627599e+003;6.017754e-003
3.629527e+003;5.821327e-003
3.631456e+003;5.692831e-003
3.633385e+003;5.643451e-003
3.635313e+003;5.198575e-003
3.637241e+003;4.919535e-003
3.639170e+003;4.848195e-003
3.641099e+003;4.399748e-003
3.643027e+003;4.093726e-003
3.644956e+003;4.203248e-003
3.646884e+003;4.224259e-003
3.648813e+003;3.761750e-003
3.650741e+003;3.472710e-003
3.652670e+003;3.734979e-003
3.654598e+003;3.829803e-003
3.656527e+003;3.699689e-003
3.658456e+003;3.654444e-003
3.660384e+003;3.401974e-003
3.662313e+003;2.985976e-003
3.664241e+003;2.836671e-003
3.666170e+003;2.921725e-003
3.668098e+003;2.524716e-003
3.670027e+003;2.022632e-003
3.671955e+003;2.194636e-003
3.673884e+003;2.392994e-003
3.675813e+003;1.956892e-003
3.677741e+003;1.353911e-003
3.679669e+003;1.333138e-003
3.681598e+003;1.528110e-003
3.683527e+003;1.609350e-003
3.685455e+003;1.462910e-003
3.687384e+003;8.864112e-004
3.689312e+003;7.015500e-004
3.691241e+003;8.147014e-004
3.693169e+003;7.156882e-004
3.695098e+003;6.837287e-004
3.697026e+003;2.966509e-004
3.698955e+003;-9.568057e-005
3.700884e+003;-2.924751e-004
3.702812e+003;-3.414114e-004
3.704741e+003;-4.473772e-004
3.706669e+003;-1.041941e-004
3.708598e+003;2.571631e-004
3.710526e+003;1.580781e-004
3.712455e+003;6.335691e-005
3.714383e+003;1.097538e-004
3.716312e+003;-2.054487e-004
3.718240e+003;-2.946273e-004
3.720169e+003;-2.205504e-004
3.722098e+003;-1.955462e-004
3.724026e+003;-3.975259e-004
3.725955e+003;-9.356906e-004
3.727883e+003;-8.537204e-004
3.729812e+003;-8.003768e-004
3.731740e+003;-1.073606e-003
3.733669e+003;-1.166572e-003
3.735597e+003;-9.714960e-004
3.737526e+003;-6.753097e-004
3.739455e+003;-3.402196e-004
3.741383e+003;-1.807086e-004
3.743312e+003;-5.702929e-004
3.745240e+003;-9.273918e-004
3.747169e+003;-9.622061e-004
3.749097e+003;-1.142284e-003
3.751026e+003;-8.769672e-004
3.752954e+003;-2.342939e-004
3.754883e+003;2.259004e-004
3.756812e+003;-4.694840e-005
3.758740e+003;-4.512168e-004
3.760668e+003;-8.286533e-004
3.762597e+003;-8.802739e-004
3.764526e+003;-4.320848e-004
3.766454e+003;-2.747599e-004
3.768383e+003;-8.095711e-004
3.770311e+003;-7.581736e-004
3.772240e+003;-1.396044e-004
3.774168e+003;-3.495501e-005
3.776097e+003;-8.322473e-005
3.778025e+003;-1.573838e-005
3.779954e+003;-3.354520e-004
3.781883e+003;-8.422784e-004
3.783811e+003;-6.538055e-004
3.785740e+003;-2.168082e-004
3.787668e+003;3.608447e-005
3.789597e+003;-1.116142e-004
3.791525e+003;-3.987838e-004
3.793454e+003;-3.732602e-004
3.795382e+003;-2.256173e-004
3.797311e+003;-2.767467e-004
3.799240e+003;-7.313810e-004
3.801168e+003;-7.776881e-004
3.803097e+003;-4.295360e-004
3.805025e+003;-4.357921e-004
3.806954e+003;-4.896438e-004
3.808882e+003;-5.275048e-004
3.810811e+003;-3.604481e-004
3.812739e+003;7.532020e-005
3.814668e+003;2.040874e-004
3.816596e+003;1.378398e-005
3.818525e+003;-2.069390e-004
3.820454e+003;-2.257829e-004
3.822382e+003;3.356781e-004
3.824311e+003;6.435420e-004
3.826239e+003;2.741381e-004
3.828168e+003;5.368046e-005
3.830096e+003;-3.379540e-005
3.832025e+003;1.881095e-004
3.833953e+003;3.178054e-004
3.835882e+003;2.238450e-004
3.837811e+003;1.128029e-004
3.839739e+003;2.881298e-004
3.841667e+003;4.831310e-004
3.843596e+003;5.769485e-004
3.845525e+003;6.690274e-004
3.847453e+003;6.812729e-004
3.849382e+003;4.462465e-004
3.851310e+003;2.364094e-004
3.853239e+003;1.562551e-004
3.855167e+003;2.886271e-004
3.857096e+003;9.279817e-004
3.859024e+003;1.221812e-003
3.860953e+003;1.082047e-003
3.862882e+003;1.084073e-003
3.864810e+003;1.049429e-003
3.866739e+003;1.011699e-003
3.868667e+003;7.327144e-004
3.870596e+003;6.546585e-004
3.872524e+003;1.064509e-003
3.874453e+003;1.103871e-003
3.876381e+003;1.093208e-003
3.878310e+003;1.014157e-003
3.880239e+003;9.134714e-004
3.882167e+003;6.156690e-004
3.884096e+003;3.534521e-004
3.886024e+003;6.945144e-004
3.887953e+003;1.254908e-003
3.889881e+003;1.118919e-003
3.891810e+003;1.174764e-003
3.893738e+003;1.415438e-003
3.895667e+003;1.171608e-003
3.897595e+003;9.876883e-004
3.899524e+003;1.319445e-003
3.901453e+003;1.629870e-003
3.903381e+003;1.615535e-003
3.905310e+003;1.701481e-003
3.907238e+003;2.077495e-003
3.909167e+003;2.122443e-003
3.911095e+003;1.902277e-003
3.913024e+003;1.957857e-003
3.914952e+003;2.336725e-003
3.916881e+003;2.625443e-003
3.918810e+003;2.107227e-003
3.920738e+003;1.648694e-003
3.922667e+003;1.650025e-003
3.924595e+003;1.835556e-003
3.926524e+003;2.345053e-003
3.928452e+003;2.974567e-003
3.930381e+003;3.287813e-003
3.932309e+003;3.091248e-003
3.934238e+003;2.729394e-003
3.936167e+003;2.807056e-003
3.938095e+003;3.023644e-003
3.940023e+003;3.385979e-003
3.941952e+003;3.545595e-003
3.943881e+003;3.368681e-003
3.945809e+003;3.415633e-003
3.947738e+003;3.525953e-003
3.949666e+003;3.682012e-003
3.951595e+003;3.215973e-003
3.953523e+003;2.829801e-003
3.955452e+003;3.052540e-003
3.957380e+003;3.501368e-003
3.959309e+003;3.515831e-003
3.961238e+003;3.293121e-003
3.963166e+003;3.485369e-003
3.965095e+003;3.947651e-003
3.967023e+003;3.860658e-003
3.968952e+003;3.598279e-003
3.970880e+003;3.770406e-003
3.972809e+003;3.977343e-003
3.974737e+003;4.254473e-003
3.976666e+003;4.760820e-003
3.978594e+003;4.386493e-003
3.980523e+003;3.561496e-003
3.982452e+003;3.613213e-003
3.984380e+003;4.012857e-003
3.986309e+003;4.273479e-003
3.988237e+003;4.646971e-003
3.990166e+003;4.840757e-003
3.992094e+003;5.129167e-003
3.994023e+003;5.226039e-003
3.995951e+003;4.839618e-003
3.997880e+003;4.879457e-003
3.999809e+003;5.371808e-003
4.001737e+003;0.000000e+000
