3.992094e+002;0.000000e+000
4.011380e+002;0.000000e+000
4.030665e+002;0.000000e+000
4.049951e+002;0.000000e+000
4.069236e+002;0.000000e+000
4.088522e+002;0.000000e+000
4.107807e+002;0.000000e+000
4.127093e+002;0.000000e+000
4.146378e+002;0.000000e+000
4.165664e+002;0.000000e+000
4.184949e+002;0.000000e+000
4.204235e+002;0.000000e+000
4.223520e+002;0.000000e+000
4.242806e+002;0.000000e+000
4.262091e+002;0.000000e+000
4.281377e+002;0.000000e+000
4.300662e+002;0.000000e+000
4.319948e+002;0.000000e+000
4.339233e+002;0.000000e+000
4.358519e+002;0.000000e+000
4.377804e+002;0.000000e+000
4.397090e+002;0.000000e+000
4.416375e+002;0.000000e+000
4.435660e+002;0.000000e+000
4.454946e+002;0.000000e+000
4.474232e+002;0.000000e+000
4.493517e+002;0.000000e+000
4.512802e+002;0.000000e+000
4.532088e+002;0.000000e+000
4.551373e+002;0.000000e+000
4.570659e+002;0.000000e+000
4.589944e+002;0.000000e+000
4.609230e+002;0.000000e+000
4.628515e+002;0.000000e+000
4.647801e+002;0.000000e+000
4.667086e+002;0.000000e+000
4.686372e+002;0.000000e+000
4.705657e+002;0.000000e+000
4.724943e+002;0.000000e+000
4.744228e+002;0.000000e+000
4.763513e+002;0.000000e+000
4.782799e+002;0.000000e+000
4.802085e+002;0.000000e+000
4.821370e+002;0.000000e+000
4.840656e+002;0.000000e+000
4.859941e+002;0.000000e+000
4.879226e+002;0.000000e+000
4.898512e+002;0.000000e+000
4.917798e+002;0.000000e+000
4.937083e+002;0.000000e+000
4.956368e+002;0.000000e+000
4.975654e+002;0.000000e+000
4.994939e+002;0.000000e+000
5.014225e+002;0.000000e+000
5.033510e+002;0.000000e+000
5.052796e+002;0.000000e+000
5.072081e+002;0.000000e+000
5.091367e+002;0.000000e+000
5.110652e+002;0.000000e+000
5.129938e+002;0.000000e+000
5.149223e+002;0.000000e+000
5.168509e+002;0.000000e+000
5.187794e+002;0.000000e+000
5.207079e+002;0.000000e+000
5.226365e+002;0.000000e+000
5.245651e+002;0.000000e+000
5.264936e+002;0.000000e+000
5.284222e+002;0.000000e+000
5.303507e+002;0.000000e+000
5.322792e+002;0.000000e+000
5.342078e+002;0.000000e+000
5.361364e+002;0.000000e+000
5.380649e+002;0.000000e+000
5.399935e+002;0.000000e+000
5.419220e+002;0.000000e+000
5.438505e+002;0.000000e+000
5.457791e+002;0.000000e+000
5.477076e+002;0.000000e+000
5.496362e+002;0.000000e+000
5.515648e+002;0.000000e+000
5.534933e+002;0.000000e+000
5.554218e+002;0.000000e+000
5.573504e+002;0.000000e+000
5.592789e+002;0.000000e+000
5.612075e+002;0.000000e+000
5.631360e+002;0.000000e+000
5.650646e+002;0.000000e+000
5.669931e+002;0.000000e+000
5.689217e+002;0.000000e+000
5.708502e+002;0.000000e+000
5.727787e+002;0.000000e+000
5.747073e+002;0.000000e+000
5.766359e+002;0.000000e+000
5.785644e+002;0.000000e+000
5.804930e+002;0.000000e+000
5.824215e+002;0.000000e+000
5.843500e+002;0.000000e+000
5.862786e+002;0.000000e+000
5.882072e+002;0.000000e+000
5.901357e+002;0.000000e+000
5.920643e+002;0.000000e+000
5.939928e+002;0.000000e+000
5.959213e+002;0.000000e+000
5.978499e+002;0.000000e+000
5.997784e+002;1.154804e-001
6.017070e+002;1.213962e-001
6.036355e+002;1.231226e-001
6.055641e+002;1.234543e-001
6.074926e+002;1.201419e-001
6.094211e+002;1.195085e-001
6.113497e+002;1.236968e-001
6.132783e+002;1.238968e-001
6.152068e+002;1.224522e-001
6.171354e+002;1.235909e-001
6.190639e+002;1.226287e-001
6.209924e+002;1.188694e-001
6.229210e+002;1.175000e-001
6.248495e+002;1.177466e-001
6.267781e+002;1.192481e-001
6.287067e+002;1.190915e-001
6.306352e+002;1.195639e-001
6.325637e+002;1.181045e-001
6.344923e+002;1.175384e-001
6.364208e+002;1.192163e-001
6.383494e+002;1.208548e-001
6.402780e+002;1.177158e-001
6.422065e+002;1.164729e-001
6.441350e+002;1.210316e-001
6.460636e+002;1.260984e-001
6.479921e+002;1.271036e-001
6.499207e+002;1.293189e-001
6.518492e+002;1.330600e-001
6.537778e+002;1.361307e-001
6.557063e+002;1.359263e-001
6.576349e+002;1.340131e-001
6.595634e+002;1.355513e-001
6.614919e+002;1.416565e-001
6.634205e+002;1.469973e-001
6.653491e+002;1.495073e-001
6.672776e+002;1.514661e-001
6.692062e+002;1.529371e-001
6.711347e+002;1.542567e-001
6.730632e+002;1.549369e-001
6.749918e+002;1.556162e-001
6.769203e+002;1.559239e-001
6.788489e+002;1.563606e-001
6.807775e+002;1.572763e-001
6.827060e+002;1.582878e-001
6.846345e+002;1.593385e-001
6.865631e+002;1.581018e-001
6.884916e+002;1.566881e-001
6.904202e+002;1.558149e-001
6.923488e+002;1.545575e-001
6.942773e+002;1.524946e-001
6.962058e+002;1.499478e-001
6.981344e+002;1.476402e-001
7.000629e+002;1.450882e-001
7.019915e+002;1.422016e-001
7.039200e+002;1.397893e-001
7.058486e+002;1.382876e-001
7.077771e+002;1.383221e-001
7.097057e+002;1.379218e-001
7.116342e+002;1.369170e-001
7.135627e+002;1.357987e-001
7.154913e+002;1.331561e-001
7.174199e+002;1.303042e-001
7.193484e+002;1.294639e-001
7.212770e+002;1.295237e-001
7.232055e+002;1.292056e-001
7.251340e+002;1.295908e-001
7.270626e+002;1.306095e-001
7.289911e+002;1.296210e-001
7.309197e+002;1.258966e-001
7.328483e+002;1.203901e-001
7.347768e+002;1.145756e-001
7.367053e+002;1.098496e-001
7.386339e+002;1.056634e-001
7.405624e+002;1.024071e-001
7.424910e+002;1.000005e-001
7.444196e+002;9.750257e-002
7.463481e+002;9.516731e-002
7.482766e+002;9.381134e-002
7.502052e+002;9.248378e-002
7.521337e+002;9.010462e-002
7.540623e+002;8.806243e-002
7.559908e+002;8.699197e-002
7.579194e+002;8.642167e-002
7.598479e+002;8.530624e-002
7.617765e+002;8.384907e-002
7.637050e+002;8.275224e-002
7.656335e+002;8.219115e-002
7.675621e+002;8.178349e-002
7.694907e+002;8.095899e-002
7.714192e+002;8.005422e-002
7.733478e+002;7.902151e-002
7.752763e+002;7.880864e-002
7.772048e+002;7.811068e-002
7.791334e+002;7.702646e-002
7.810620e+002;7.676356e-002
7.829905e+002;7.528684e-002
7.849191e+002;7.257576e-002
7.868476e+002;7.079627e-002
7.887761e+002;7.002022e-002
7.907047e+002;6.882408e-002
7.926332e+002;6.746598e-002
7.945618e+002;6.699341e-002
7.964903e+002;6.730172e-002
7.984189e+002;6.695339e-002
8.003474e+002;6.506266e-002
8.022759e+002;6.333990e-002
8.042045e+002;6.298872e-002
8.061331e+002;6.301565e-002
8.080616e+002;6.246134e-002
8.099902e+002;6.088326e-002
8.119187e+002;5.928002e-002
8.138472e+002;5.839269e-002
8.157758e+002;5.807515e-002
8.177043e+002;5.795533e-002
8.196329e+002;5.787598e-002
8.215615e+002;5.782983e-002
8.234900e+002;5.823956e-002
8.254185e+002;5.865149e-002
8.273471e+002;5.937529e-002
8.292756e+002;6.091033e-002
8.312042e+002;6.240262e-002
8.331328e+002;6.270286e-002
8.350613e+002;6.132828e-002
8.369898e+002;5.929620e-002
8.389184e+002;5.773434e-002
8.408469e+002;5.634251e-002
8.427755e+002;5.441281e-002
8.447040e+002;5.302655e-002
8.466326e+002;5.235041e-002
8.485611e+002;5.201835e-002
8.504897e+002;5.227644e-002
8.524182e+002;5.220036e-002
8.543467e+002;5.184116e-002
8.562753e+002;5.162818e-002
8.582039e+002;5.185229e-002
8.601324e+002;5.179087e-002
8.620610e+002;5.129704e-002
8.639895e+002;5.112827e-002
8.659180e+002;5.139964e-002
8.678466e+002;5.152900e-002
8.697751e+002;5.102597e-002
8.717037e+002;5.107706e-002
8.736323e+002;5.162922e-002
8.755608e+002;5.173272e-002
8.774893e+002;5.181036e-002
8.794179e+002;5.181943e-002
8.813464e+002;5.197458e-002
8.832750e+002;5.260559e-002
8.852036e+002;5.326412e-002
8.871321e+002;5.372224e-002
8.890606e+002;5.368452e-002
8.909892e+002;5.331046e-002
8.929177e+002;5.334320e-002
8.948463e+002;5.367054e-002
8.967748e+002;5.429764e-002
8.987034e+002;5.469473e-002
9.006319e+002;5.463843e-002
9.025605e+002;5.485320e-002
9.044890e+002;5.519661e-002
9.064175e+002;5.575863e-002
9.083461e+002;5.647637e-002
9.102747e+002;5.689793e-002
9.122032e+002;5.732024e-002
9.141318e+002;5.780435e-002
9.160603e+002;5.822239e-002
9.179888e+002;5.890263e-002
9.199174e+002;5.990985e-002
9.218459e+002;6.065068e-002
9.237745e+002;6.185474e-002
9.257031e+002;6.362893e-002
9.276316e+002;6.467433e-002
9.295601e+002;6.456160e-002
9.314887e+002;6.359629e-002
9.334172e+002;6.249620e-002
9.353458e+002;6.150618e-002
9.372744e+002;6.060934e-002
9.392029e+002;6.031964e-002
9.411314e+002;6.091620e-002
9.430600e+002;6.165894e-002
9.449885e+002;6.218152e-002
9.469171e+002;6.325410e-002
9.488456e+002;6.489685e-002
9.507742e+002;6.616347e-002
9.527027e+002;6.692378e-002
9.546313e+002;6.749903e-002
9.565598e+002;6.826910e-002
9.584883e+002;6.893529e-002
9.604169e+002;6.910899e-002
9.623455e+002;6.844471e-002
9.642740e+002;6.734408e-002
9.662026e+002;6.701127e-002
9.681311e+002;6.713949e-002
9.700596e+002;6.745220e-002
9.719882e+002;6.732628e-002
9.739167e+002;6.667662e-002
9.758453e+002;6.612665e-002
9.777739e+002;6.553148e-002
9.797024e+002;6.450278e-002
9.816309e+002;6.364693e-002
9.835595e+002;6.311051e-002
9.854880e+002;6.231510e-002
9.874166e+002;6.117117e-002
9.893452e+002;6.029257e-002
9.912737e+002;5.944451e-002
9.932022e+002;5.893060e-002
9.951307e+002;5.863560e-002
9.970593e+002;5.814852e-002
9.989879e+002;5.789290e-002
1.000916e+003;5.790675e-002
1.002845e+003;5.770504e-002
1.004773e+003;5.769581e-002
1.006702e+003;5.762661e-002
1.008631e+003;5.750460e-002
1.010559e+003;5.735794e-002
1.012488e+003;5.698013e-002
1.014416e+003;5.691550e-002
1.016345e+003;5.720422e-002
1.018273e+003;5.731193e-002
1.020202e+003;5.749409e-002
1.022130e+003;5.819277e-002
1.024059e+003;5.971032e-002
1.025988e+003;6.110301e-002
1.027916e+003;6.175771e-002
1.029845e+003;6.182739e-002
1.031773e+003;6.135446e-002
1.033702e+003;6.114603e-002
1.035630e+003;6.084008e-002
1.037559e+003;6.005151e-002
1.039487e+003;5.920358e-002
1.041416e+003;5.853591e-002
1.043344e+003;5.773982e-002
1.045273e+003;5.746829e-002
1.047202e+003;5.788949e-002
1.049130e+003;5.838981e-002
1.051059e+003;5.922743e-002
1.052987e+003;5.999030e-002
1.054916e+003;6.084983e-002
1.056844e+003;6.212338e-002
1.058773e+003;6.347958e-002
1.060701e+003;6.491366e-002
1.062630e+003;6.570132e-002
1.064558e+003;6.621054e-002
1.066487e+003;6.749222e-002
1.068416e+003;6.864347e-002
1.070344e+003;6.905888e-002
1.072273e+003;6.930188e-002
1.074201e+003;6.935210e-002
1.076130e+003;6.858829e-002
1.078058e+003;6.780767e-002
1.079987e+003;6.722759e-002
1.081915e+003;6.645373e-002
1.083844e+003;6.592637e-002
1.085773e+003;6.575953e-002
1.087701e+003;6.562856e-002
1.089630e+003;6.473094e-002
1.091558e+003;6.447987e-002
1.093487e+003;6.492463e-002
1.095415e+003;6.532493e-002
1.097344e+003;6.625531e-002
1.099272e+003;6.770077e-002
1.101201e+003;6.928338e-002
1.103129e+003;7.107022e-002
1.105058e+003;7.254725e-002
1.106987e+003;7.400323e-002
1.108915e+003;7.520291e-002
1.110844e+003;7.612739e-002
1.112772e+003;7.659978e-002
1.114701e+003;7.688820e-002
1.116629e+003;7.786393e-002
1.118558e+003;7.826757e-002
1.120486e+003;7.743064e-002
1.122415e+003;7.608420e-002
1.124344e+003;7.387623e-002
1.126272e+003;7.138175e-002
1.128201e+003;6.897537e-002
1.130129e+003;6.667662e-002
1.132058e+003;6.503130e-002
1.133986e+003;6.399076e-002
1.135915e+003;6.329811e-002
1.137843e+003;6.330869e-002
1.139772e+003;6.379818e-002
1.141700e+003;6.512541e-002
1.143629e+003;6.712104e-002
1.145557e+003;6.907608e-002
1.147486e+003;7.063296e-002
1.149415e+003;7.247004e-002
1.151343e+003;7.507591e-002
1.153272e+003;7.820882e-002
1.155200e+003;8.151098e-002
1.157129e+003;8.505677e-002
1.159057e+003;8.890419e-002
1.160986e+003;9.375661e-002
1.162914e+003;9.910742e-002
1.164843e+003;1.038663e-001
1.166771e+003;1.076416e-001
1.168700e+003;1.092821e-001
1.170629e+003;1.081076e-001
1.172557e+003;1.048354e-001
1.174486e+003;1.005511e-001
1.176414e+003;9.647825e-002
1.178343e+003;9.298855e-002
1.180271e+003;9.044243e-002
1.182200e+003;8.942989e-002
1.184128e+003;8.980976e-002
1.186057e+003;9.140868e-002
1.187986e+003;9.402770e-002
1.189914e+003;9.712014e-002
1.191843e+003;1.006214e-001
1.193771e+003;1.043975e-001
1.195700e+003;1.081767e-001
1.197628e+003;1.117624e-001
1.199557e+003;1.130480e-001
1.201485e+003;1.111405e-001
1.203414e+003;1.080830e-001
1.205343e+003;1.058349e-001
1.207271e+003;1.049381e-001
1.209200e+003;1.045988e-001
1.211128e+003;1.043085e-001
1.213057e+003;1.036437e-001
1.214985e+003;1.020982e-001
1.216914e+003;1.001209e-001
1.218842e+003;9.769177e-002
1.220771e+003;9.596726e-002
1.222699e+003;9.591692e-002
1.224628e+003;9.765547e-002
1.226557e+003;1.005472e-001
1.228485e+003;1.040414e-001
1.230414e+003;1.080106e-001
1.232342e+003;1.116600e-001
1.234271e+003;1.141655e-001
1.236199e+003;1.150995e-001
1.238128e+003;1.149217e-001
1.240056e+003;1.146882e-001
1.241985e+003;1.143887e-001
1.243913e+003;1.143992e-001
1.245842e+003;1.150301e-001
1.247771e+003;1.163207e-001
1.249699e+003;1.179374e-001
1.251628e+003;1.196307e-001
1.253556e+003;1.219709e-001
1.255485e+003;1.244250e-001
1.257413e+003;1.265781e-001
1.259342e+003;1.280137e-001
1.261270e+003;1.281295e-001
1.263199e+003;1.270253e-001
1.265127e+003;1.241694e-001
1.267056e+003;1.196520e-001
1.268985e+003;1.147099e-001
1.270913e+003;1.110341e-001
1.272842e+003;1.093574e-001
1.274770e+003;1.086116e-001
1.276699e+003;1.081566e-001
1.278627e+003;1.075890e-001
1.280556e+003;1.067854e-001
1.282484e+003;1.055725e-001
1.284413e+003;1.040444e-001
1.286342e+003;1.023574e-001
1.288270e+003;1.013586e-001
1.290199e+003;1.009489e-001
1.292127e+003;1.005230e-001
1.294056e+003;1.000073e-001
1.295984e+003;9.971611e-002
1.297913e+003;9.966230e-002
1.299841e+003;9.937076e-002
1.301770e+003;9.888452e-002
1.303698e+003;9.815008e-002
1.305627e+003;9.727269e-002
1.307556e+003;9.644564e-002
1.309484e+003;9.527916e-002
1.311413e+003;9.418638e-002
1.313341e+003;9.332800e-002
1.315270e+003;9.258095e-002
1.317198e+003;9.197272e-002
1.319127e+003;9.118962e-002
1.321055e+003;9.055451e-002
1.322984e+003;9.008627e-002
1.324912e+003;8.964172e-002
1.326841e+003;8.955538e-002
1.328770e+003;8.984684e-002
1.330698e+003;9.036932e-002
1.332627e+003;9.079481e-002
1.334555e+003;9.097196e-002
1.336484e+003;9.129533e-002
1.338412e+003;9.170139e-002
1.340341e+003;9.201215e-002
1.342269e+003;9.245972e-002
1.344198e+003;9.315202e-002
1.346126e+003;9.384605e-002
1.348055e+003;9.459606e-002
1.349984e+003;9.573390e-002
1.351912e+003;9.711023e-002
1.353841e+003;9.833620e-002
1.355769e+003;9.967022e-002
1.357698e+003;1.012738e-001
1.359626e+003;1.029332e-001
1.361555e+003;1.045388e-001
1.363483e+003;1.054859e-001
1.365412e+003;1.065095e-001
1.367341e+003;1.078606e-001
1.369269e+003;1.090026e-001
1.371198e+003;1.092529e-001
1.373126e+003;1.084832e-001
1.375055e+003;1.073685e-001
1.376983e+003;1.055584e-001
1.378912e+003;1.029414e-001
1.380840e+003;1.001485e-001
1.382769e+003;9.743401e-002
1.384698e+003;9.481157e-002
1.386626e+003;9.226015e-002
1.388555e+003;9.027443e-002
1.390483e+003;8.877824e-002
1.392412e+003;8.774316e-002
1.394340e+003;8.696453e-002
1.396269e+003;8.673406e-002
1.398197e+003;8.730291e-002
1.400126e+003;8.836110e-002
1.402054e+003;9.004493e-002
1.403983e+003;9.262492e-002
1.405911e+003;9.617932e-002
1.407840e+003;1.008090e-001
1.409769e+003;1.057457e-001
1.411697e+003;1.108197e-001
1.413626e+003;1.156325e-001
1.415554e+003;1.190500e-001
1.417483e+003;1.201299e-001
1.419411e+003;1.187553e-001
1.421340e+003;1.163309e-001
1.423268e+003;1.142580e-001
1.425197e+003;1.129501e-001
1.427125e+003;1.129445e-001
1.429054e+003;1.142292e-001
1.430983e+003;1.161489e-001
1.432911e+003;1.179933e-001
1.434840e+003;1.188925e-001
1.436768e+003;1.187643e-001
1.438697e+003;1.184014e-001
1.440625e+003;1.176579e-001
1.442554e+003;1.169644e-001
1.444482e+003;1.165307e-001
1.446411e+003;1.164792e-001
1.448340e+003;1.173614e-001
1.450268e+003;1.189161e-001
1.452197e+003;1.203821e-001
1.454125e+003;1.218914e-001
1.456054e+003;1.240502e-001
1.457982e+003;1.276953e-001
1.459911e+003;1.322318e-001
1.461839e+003;1.352541e-001
1.463768e+003;1.342954e-001
1.465697e+003;1.295469e-001
1.467625e+003;1.237382e-001
1.469554e+003;1.192488e-001
1.471482e+003;1.169738e-001
1.473411e+003;1.169150e-001
1.475339e+003;1.174470e-001
1.477268e+003;1.165989e-001
1.479196e+003;1.139767e-001
1.481125e+003;1.099394e-001
1.483053e+003;1.052303e-001
1.484982e+003;1.009596e-001
1.486911e+003;9.833612e-002
1.488839e+003;9.809858e-002
1.490768e+003;9.953156e-002
1.492696e+003;1.017629e-001
1.494625e+003;1.043451e-001
1.496553e+003;1.073513e-001
1.498482e+003;1.111666e-001
1.500410e+003;1.154631e-001
1.502339e+003;1.198997e-001
1.504267e+003;1.246251e-001
1.506196e+003;1.295573e-001
1.508125e+003;1.349968e-001
1.510053e+003;1.408728e-001
1.511982e+003;1.469443e-001
1.513910e+003;1.530693e-001
1.515839e+003;1.594044e-001
1.517767e+003;1.659941e-001
1.519696e+003;1.724400e-001
1.521624e+003;1.793209e-001
1.523553e+003;1.866302e-001
1.525481e+003;1.935972e-001
1.527410e+003;2.005281e-001
1.529339e+003;2.071495e-001
1.531267e+003;2.130692e-001
1.533196e+003;2.179049e-001
1.535124e+003;2.211285e-001
1.537053e+003;2.223745e-001
1.538981e+003;2.212964e-001
1.540910e+003;2.185745e-001
1.542838e+003;2.141973e-001
1.544767e+003;2.077003e-001
1.546695e+003;2.001612e-001
1.548624e+003;1.920547e-001
1.550553e+003;1.839782e-001
1.552481e+003;1.765728e-001
1.554410e+003;1.692591e-001
1.556338e+003;1.620333e-001
1.558267e+003;1.550264e-001
1.560195e+003;1.488726e-001
1.562124e+003;1.433391e-001
1.564052e+003;1.374427e-001
1.565981e+003;1.312089e-001
1.567910e+003;1.248997e-001
1.569838e+003;1.184196e-001
1.571767e+003;1.126787e-001
1.573695e+003;1.073597e-001
1.575624e+003;1.022607e-001
1.577552e+003;9.802254e-002
1.579481e+003;9.486022e-002
1.581409e+003;9.200180e-002
1.583338e+003;8.971854e-002
1.585266e+003;8.860487e-002
1.587195e+003;8.824785e-002
1.589124e+003;8.830664e-002
1.591052e+003;8.889882e-002
1.592981e+003;9.012623e-002
1.594909e+003;9.196367e-002
1.596838e+003;9.462111e-002
1.598766e+003;9.816574e-002
1.600695e+003;1.021630e-001
1.602623e+003;1.067869e-001
1.604552e+003;1.125680e-001
1.606480e+003;1.189672e-001
1.608409e+003;1.254409e-001
1.610338e+003;1.324018e-001
1.612266e+003;1.404468e-001
1.614195e+003;1.492559e-001
1.616123e+003;1.590579e-001
1.618052e+003;1.706710e-001
1.619980e+003;1.830684e-001
1.621909e+003;1.955555e-001
1.623837e+003;2.083583e-001
1.625766e+003;2.210933e-001
1.627694e+003;2.338554e-001
1.629623e+003;2.465194e-001
1.631552e+003;2.581662e-001
1.633480e+003;2.675304e-001
1.635409e+003;2.729079e-001
1.637337e+003;2.731650e-001
1.639266e+003;2.670344e-001
1.641194e+003;2.557339e-001
1.643123e+003;2.417358e-001
1.645051e+003;2.257531e-001
1.646980e+003;2.094976e-001
1.648909e+003;1.951542e-001
1.650837e+003;1.818542e-001
1.652766e+003;1.695393e-001
1.654694e+003;1.598590e-001
1.656623e+003;1.517023e-001
1.658551e+003;1.437239e-001
1.660480e+003;1.361101e-001
1.662408e+003;1.286882e-001
1.664337e+003;1.213056e-001
1.666266e+003;1.139402e-001
1.668194e+003;1.069545e-001
1.670123e+003;1.005466e-001
1.672051e+003;9.486595e-002
1.673980e+003;8.918460e-002
1.675908e+003;8.326457e-002
1.677837e+003;7.789267e-002
1.679765e+003;7.251737e-002
1.681694e+003;6.685657e-002
1.683622e+003;6.099265e-002
1.685551e+003;5.603434e-002
1.687479e+003;5.240614e-002
1.689408e+003;4.927841e-002
1.691337e+003;4.670243e-002
1.693265e+003;4.454372e-002
1.695194e+003;4.272679e-002
1.697122e+003;4.144391e-002
1.699051e+003;4.034253e-002
1.700979e+003;3.954427e-002
1.702908e+003;3.940007e-002
1.704836e+003;3.874388e-002
1.706765e+003;3.814458e-002
1.708693e+003;3.809921e-002
1.710622e+003;3.783105e-002
1.712551e+003;3.738223e-002
1.714479e+003;3.732907e-002
1.716408e+003;3.718622e-002
1.718336e+003;3.718690e-002
1.720265e+003;3.738519e-002
1.722193e+003;3.741661e-002
1.724122e+003;3.723845e-002
1.726050e+003;3.705062e-002
1.727979e+003;3.667976e-002
1.729908e+003;3.612085e-002
1.731836e+003;3.554367e-002
1.733765e+003;3.499268e-002
1.735693e+003;3.449595e-002
1.737622e+003;3.390591e-002
1.739550e+003;3.328276e-002
1.741479e+003;3.275339e-002
1.743407e+003;3.229194e-002
1.745336e+003;3.190136e-002
1.747265e+003;3.132413e-002
1.749193e+003;3.076125e-002
1.751122e+003;3.050319e-002
1.753050e+003;3.044618e-002
1.754979e+003;3.010023e-002
1.756907e+003;2.961214e-002
1.758836e+003;2.913435e-002
1.760764e+003;2.841693e-002
1.762693e+003;2.789200e-002
1.764621e+003;2.745870e-002
1.766550e+003;2.712513e-002
1.768479e+003;2.681977e-002
1.770407e+003;2.632243e-002
1.772336e+003;2.570201e-002
1.774264e+003;2.526432e-002
1.776193e+003;2.485397e-002
1.778121e+003;2.453145e-002
1.780050e+003;2.433386e-002
1.781978e+003;2.408618e-002
1.783907e+003;2.389548e-002
1.785835e+003;2.367152e-002
1.787764e+003;2.325855e-002
1.789693e+003;2.277191e-002
1.791621e+003;2.243798e-002
1.793550e+003;2.239761e-002
1.795478e+003;2.241638e-002
1.797407e+003;2.227277e-002
1.799335e+003;2.210500e-002
1.801264e+003;2.186837e-002
1.803192e+003;2.163616e-002
1.805121e+003;2.152563e-002
1.807049e+003;2.150443e-002
1.808978e+003;2.149454e-002
1.810907e+003;2.146137e-002
1.812835e+003;2.138552e-002
1.814764e+003;2.132931e-002
1.816692e+003;2.124850e-002
1.818621e+003;2.119092e-002
1.820549e+003;2.099791e-002
1.822478e+003;2.071285e-002
1.824406e+003;2.062955e-002
1.826335e+003;2.069901e-002
1.828264e+003;2.061784e-002
1.830192e+003;2.054026e-002
1.832121e+003;2.048979e-002
1.834049e+003;2.034316e-002
1.835978e+003;2.034271e-002
1.837906e+003;2.038834e-002
1.839835e+003;2.019149e-002
1.841763e+003;2.009771e-002
1.843692e+003;1.989387e-002
1.845620e+003;1.980352e-002
1.847549e+003;1.963033e-002
1.849478e+003;1.935351e-002
1.851406e+003;1.908212e-002
1.853335e+003;1.905789e-002
1.855263e+003;1.911661e-002
1.857192e+003;1.913302e-002
1.859120e+003;1.914933e-002
1.861049e+003;1.918119e-002
1.862977e+003;1.926902e-002
1.864906e+003;1.928059e-002
1.866834e+003;1.903621e-002
1.868763e+003;1.891181e-002
1.870692e+003;1.877077e-002
1.872620e+003;1.862593e-002
1.874549e+003;1.878606e-002
1.876477e+003;1.902212e-002
1.878406e+003;1.902226e-002
1.880334e+003;1.899097e-002
1.882263e+003;1.896231e-002
1.884191e+003;1.892756e-002
1.886120e+003;1.902275e-002
1.888048e+003;1.909299e-002
1.889977e+003;1.900966e-002
1.891906e+003;1.898889e-002
1.893834e+003;1.916429e-002
1.895763e+003;1.933740e-002
1.897691e+003;1.929915e-002
1.899620e+003;1.926230e-002
1.901548e+003;1.929694e-002
1.903477e+003;1.942661e-002
1.905405e+003;1.937928e-002
1.907334e+003;1.909853e-002
1.909262e+003;1.897619e-002
1.911191e+003;1.901018e-002
1.913120e+003;1.914292e-002
1.915048e+003;1.897758e-002
1.916977e+003;1.858461e-002
1.918905e+003;1.845179e-002
1.920834e+003;1.852931e-002
1.922762e+003;1.862199e-002
1.924691e+003;1.870469e-002
1.926619e+003;1.859678e-002
1.928548e+003;1.852098e-002
1.930477e+003;1.854857e-002
1.932405e+003;1.844070e-002
1.934334e+003;1.847233e-002
1.936262e+003;1.850763e-002
1.938191e+003;1.847838e-002
1.940119e+003;1.837989e-002
1.942048e+003;1.826749e-002
1.943976e+003;1.827102e-002
1.945905e+003;1.836627e-002
1.947833e+003;1.859253e-002
1.949762e+003;1.866014e-002
1.951691e+003;1.850269e-002
1.953619e+003;1.858035e-002
1.955548e+003;1.869131e-002
1.957476e+003;1.872417e-002
1.959405e+003;1.870500e-002
1.961333e+003;1.867041e-002
1.963262e+003;1.862040e-002
1.965190e+003;1.873268e-002
1.967119e+003;1.891347e-002
1.969047e+003;1.896993e-002
1.970976e+003;1.892278e-002
1.972905e+003;1.879793e-002
1.974833e+003;1.870369e-002
1.976762e+003;1.888548e-002
1.978690e+003;1.920238e-002
1.980619e+003;1.910103e-002
1.982547e+003;1.878634e-002
1.984476e+003;1.881841e-002
1.986404e+003;1.890098e-002
1.988333e+003;1.883281e-002
1.990261e+003;1.868843e-002
1.992190e+003;1.864416e-002
1.994119e+003;1.867955e-002
1.996047e+003;1.886042e-002
1.997976e+003;1.901378e-002
1.999904e+003;1.892856e-002
2.001833e+003;1.891943e-002
2.003761e+003;1.891192e-002
2.005690e+003;1.889835e-002
2.007618e+003;1.900454e-002
2.009547e+003;1.894701e-002
2.011476e+003;1.894611e-002
2.013404e+003;1.888859e-002
2.015333e+003;1.901319e-002
2.017261e+003;1.935434e-002
2.019190e+003;1.945801e-002
2.021118e+003;1.946889e-002
2.023047e+003;1.974648e-002
2.024975e+003;1.998698e-002
2.026904e+003;1.997272e-002
2.028833e+003;2.000270e-002
2.030761e+003;2.008560e-002
2.032690e+003;2.008463e-002
2.034618e+003;2.006738e-002
2.036547e+003;2.020360e-002
2.038475e+003;2.048066e-002
2.040404e+003;2.040060e-002
2.042332e+003;2.024352e-002
2.044261e+003;2.019444e-002
2.046189e+003;2.024248e-002
2.048118e+003;2.029553e-002
2.050047e+003;2.028688e-002
2.051975e+003;2.021603e-002
2.053904e+003;2.014508e-002
2.055832e+003;2.033188e-002
2.057761e+003;2.059748e-002
2.059689e+003;2.063497e-002
2.061618e+003;2.061284e-002
2.063546e+003;2.050111e-002
2.065475e+003;2.042741e-002
2.067404e+003;2.052050e-002
2.069332e+003;2.066027e-002
2.071260e+003;2.070895e-002
2.073189e+003;2.074635e-002
2.075118e+003;2.082636e-002
2.077046e+003;2.083957e-002
2.078975e+003;2.062997e-002
2.080903e+003;2.045825e-002
2.082832e+003;2.052230e-002
2.084760e+003;2.043380e-002
2.086689e+003;2.036521e-002
2.088617e+003;2.050618e-002
2.090546e+003;2.045926e-002
2.092475e+003;2.027803e-002
2.094403e+003;2.020353e-002
2.096332e+003;2.035452e-002
2.098260e+003;2.037966e-002
2.100189e+003;2.029983e-002
2.102117e+003;2.022905e-002
2.104046e+003;2.028181e-002
2.105974e+003;2.057014e-002
2.107903e+003;2.076831e-002
2.109832e+003;2.080912e-002
2.111760e+003;2.095190e-002
2.113688e+003;2.080411e-002
2.115617e+003;2.050716e-002
2.117546e+003;2.067792e-002
2.119474e+003;2.093970e-002
2.121403e+003;2.091154e-002
2.123331e+003;2.082490e-002
2.125260e+003;2.092624e-002
2.127188e+003;2.119523e-002
2.129117e+003;2.131239e-002
2.131045e+003;2.120919e-002
2.132974e+003;2.123344e-002
2.134903e+003;2.112155e-002
2.136831e+003;2.109101e-002
2.138760e+003;2.109223e-002
2.140688e+003;2.103397e-002
2.142617e+003;2.100758e-002
2.144545e+003;2.126173e-002
2.146474e+003;2.157518e-002
2.148402e+003;2.148410e-002
2.150331e+003;2.139728e-002
2.152260e+003;2.150948e-002
2.154188e+003;2.177768e-002
2.156117e+003;2.173351e-002
2.158045e+003;2.148225e-002
2.159974e+003;2.144445e-002
2.161902e+003;2.137730e-002
2.163831e+003;2.148915e-002
2.165759e+003;2.203106e-002
2.167688e+003;2.235899e-002
2.169616e+003;2.231180e-002
2.171545e+003;2.250749e-002
2.173474e+003;2.254088e-002
2.175402e+003;2.239639e-002
2.177331e+003;2.246401e-002
2.179259e+003;2.248920e-002
2.181188e+003;2.251471e-002
2.183116e+003;2.250787e-002
2.185045e+003;2.255621e-002
2.186973e+003;2.261781e-002
2.188902e+003;2.253506e-002
2.190831e+003;2.252818e-002
2.192759e+003;2.260039e-002
2.194688e+003;2.255163e-002
2.196616e+003;2.232006e-002
2.198545e+003;2.224508e-002
2.200473e+003;2.227413e-002
2.202402e+003;2.218691e-002
2.204330e+003;2.222862e-002
2.206259e+003;2.229429e-002
2.208188e+003;2.225836e-002
2.210116e+003;2.205787e-002
2.212044e+003;2.180353e-002
2.213973e+003;2.182740e-002
2.215902e+003;2.195804e-002
2.217830e+003;2.191138e-002
2.219759e+003;2.162010e-002
2.221687e+003;2.141562e-002
2.223616e+003;2.154193e-002
2.225544e+003;2.146547e-002
2.227473e+003;2.127766e-002
2.229401e+003;2.114343e-002
2.231330e+003;2.115311e-002
2.233259e+003;2.137640e-002
2.235187e+003;2.143310e-002
2.237116e+003;2.139944e-002
2.239044e+003;2.140163e-002
2.240973e+003;2.126263e-002
2.242901e+003;2.113390e-002
2.244830e+003;2.131699e-002
2.246758e+003;2.155930e-002
2.248687e+003;2.146561e-002
2.250615e+003;2.126726e-002
2.252544e+003;2.128803e-002
2.254473e+003;2.144361e-002
2.256401e+003;2.160805e-002
2.258330e+003;2.167719e-002
2.260258e+003;2.170575e-002
2.262187e+003;2.171251e-002
2.264115e+003;2.184388e-002
2.266044e+003;2.201238e-002
2.267972e+003;2.203253e-002
2.269901e+003;2.197170e-002
2.271830e+003;2.187615e-002
2.273758e+003;2.171049e-002
2.275687e+003;2.181102e-002
2.277615e+003;2.215919e-002
2.279544e+003;2.221135e-002
2.281472e+003;2.217990e-002
2.283401e+003;2.225052e-002
2.285329e+003;2.246328e-002
2.287258e+003;2.248679e-002
2.289187e+003;2.233848e-002
2.291115e+003;2.219929e-002
2.293043e+003;2.230475e-002
2.294972e+003;2.258360e-002
2.296901e+003;2.275277e-002
2.298829e+003;2.261418e-002
2.300758e+003;2.244311e-002
2.302686e+003;2.250264e-002
2.304615e+003;2.272104e-002
2.306543e+003;2.288747e-002
2.308472e+003;2.280302e-002
2.310400e+003;2.260943e-002
2.312329e+003;2.256378e-002
2.314258e+003;2.270162e-002
2.316186e+003;2.285383e-002
2.318115e+003;2.283092e-002
2.320043e+003;2.271622e-002
2.321972e+003;2.276297e-002
2.323900e+003;2.268337e-002
2.325829e+003;2.268955e-002
2.327757e+003;2.273633e-002
2.329686e+003;2.280334e-002
2.331615e+003;2.294112e-002
2.333543e+003;2.293633e-002
2.335472e+003;2.278783e-002
2.337400e+003;2.264664e-002
2.339329e+003;2.273657e-002
2.341257e+003;2.283127e-002
2.343186e+003;2.258221e-002
2.345114e+003;2.249765e-002
2.347043e+003;2.264549e-002
2.348971e+003;2.288034e-002
2.350900e+003;2.277687e-002
2.352829e+003;2.248816e-002
2.354757e+003;2.249838e-002
2.356686e+003;2.254364e-002
2.358614e+003;2.236482e-002
2.360543e+003;2.223744e-002
2.362471e+003;2.223897e-002
2.364400e+003;2.227915e-002
2.366328e+003;2.229457e-002
2.368257e+003;2.254347e-002
2.370186e+003;2.282998e-002
2.372114e+003;2.291653e-002
2.374042e+003;2.282743e-002
2.375971e+003;2.292208e-002
2.377900e+003;2.316687e-002
2.379828e+003;2.316809e-002
2.381757e+003;2.327816e-002
2.383685e+003;2.331151e-002
2.385614e+003;2.314303e-002
2.387542e+003;2.307045e-002
2.389471e+003;2.316575e-002
2.391399e+003;2.305291e-002
2.393328e+003;2.301301e-002
2.395257e+003;2.315334e-002
2.397185e+003;2.309254e-002
2.399114e+003;2.291513e-002
2.401042e+003;2.291695e-002
2.402971e+003;2.309998e-002
2.404899e+003;2.317183e-002
2.406828e+003;2.302430e-002
2.408756e+003;2.291419e-002
2.410685e+003;2.297284e-002
2.412614e+003;2.323593e-002
2.414542e+003;2.321297e-002
2.416471e+003;2.310330e-002
2.418399e+003;2.331770e-002
2.420328e+003;2.336952e-002
2.422256e+003;2.324457e-002
2.424185e+003;2.329298e-002
2.426113e+003;2.343834e-002
2.428042e+003;2.343386e-002
2.429970e+003;2.359864e-002
2.431899e+003;2.379208e-002
2.433828e+003;2.378746e-002
2.435756e+003;2.379946e-002
2.437685e+003;2.391837e-002
2.439613e+003;2.397751e-002
2.441542e+003;2.427545e-002
2.443470e+003;2.460957e-002
2.445399e+003;2.481493e-002
2.447327e+003;2.484233e-002
2.449256e+003;2.460767e-002
2.451185e+003;2.470362e-002
2.453113e+003;2.499262e-002
2.455042e+003;2.521561e-002
2.456970e+003;2.522878e-002
2.458899e+003;2.528100e-002
2.460827e+003;2.517053e-002
2.462756e+003;2.505320e-002
2.464684e+003;2.532132e-002
2.466613e+003;2.540316e-002
2.468542e+003;2.551612e-002
2.470470e+003;2.570345e-002
2.472398e+003;2.567973e-002
2.474327e+003;2.573664e-002
2.476256e+003;2.598875e-002
2.478184e+003;2.615532e-002
2.480113e+003;2.605968e-002
2.482041e+003;2.584592e-002
2.483970e+003;2.588760e-002
2.485898e+003;2.599248e-002
2.487827e+003;2.580021e-002
2.489755e+003;2.571150e-002
2.491684e+003;2.583449e-002
2.493613e+003;2.581466e-002
2.495541e+003;2.597134e-002
2.497470e+003;2.603442e-002
2.499398e+003;2.590996e-002
2.501327e+003;2.594039e-002
2.503255e+003;2.594929e-002
2.505184e+003;2.611467e-002
2.507112e+003;2.614670e-002
2.509041e+003;2.605633e-002
2.510969e+003;2.638415e-002
2.512898e+003;2.662625e-002
2.514827e+003;2.662435e-002
2.516755e+003;2.668716e-002
2.518684e+003;2.695661e-002
2.520612e+003;2.724344e-002
2.522541e+003;2.744881e-002
2.524469e+003;2.760919e-002
2.526398e+003;2.768331e-002
2.528326e+003;2.756658e-002
2.530255e+003;2.773138e-002
2.532184e+003;2.809090e-002
2.534112e+003;2.828684e-002
2.536041e+003;2.841198e-002
2.537969e+003;2.860686e-002
2.539898e+003;2.870104e-002
2.541826e+003;2.877882e-002
2.543755e+003;2.885841e-002
2.545683e+003;2.895612e-002
2.547612e+003;2.911585e-002
2.549541e+003;2.931577e-002
2.551469e+003;2.937550e-002
2.553397e+003;2.922135e-002
2.555326e+003;2.905240e-002
2.557255e+003;2.903320e-002
2.559183e+003;2.925998e-002
2.561112e+003;2.937238e-002
2.563040e+003;2.931517e-002
2.564969e+003;2.940482e-002
2.566897e+003;2.964620e-002
2.568826e+003;2.971070e-002
2.570754e+003;2.977613e-002
2.572683e+003;3.005627e-002
2.574612e+003;3.009654e-002
2.576540e+003;3.001870e-002
2.578469e+003;3.000475e-002
2.580397e+003;3.017272e-002
2.582326e+003;3.055435e-002
2.584254e+003;3.069948e-002
2.586183e+003;3.068344e-002
2.588111e+003;3.071950e-002
2.590040e+003;3.093090e-002
2.591969e+003;3.093389e-002
2.593897e+003;3.086665e-002
2.595826e+003;3.093816e-002
2.597754e+003;3.107449e-002
2.599683e+003;3.114255e-002
2.601611e+003;3.108197e-002
2.603540e+003;3.127399e-002
2.605468e+003;3.143836e-002
2.607397e+003;3.116138e-002
2.609325e+003;3.105403e-002
2.611254e+003;3.132317e-002
2.613183e+003;3.150337e-002
2.615111e+003;3.170820e-002
2.617040e+003;3.181123e-002
2.618968e+003;3.177579e-002
2.620897e+003;3.174852e-002
2.622825e+003;3.177714e-002
2.624754e+003;3.198039e-002
2.626682e+003;3.202005e-002
2.628611e+003;3.188753e-002
2.630540e+003;3.189722e-002
2.632468e+003;3.226746e-002
2.634396e+003;3.254628e-002
2.636325e+003;3.234205e-002
2.638254e+003;3.242809e-002
2.640182e+003;3.263878e-002
2.642111e+003;3.265779e-002
2.644039e+003;3.263739e-002
2.645968e+003;3.250218e-002
2.647896e+003;3.256996e-002
2.649825e+003;3.274074e-002
2.651753e+003;3.291135e-002
2.653682e+003;3.292064e-002
2.655611e+003;3.299638e-002
2.657539e+003;3.308155e-002
2.659468e+003;3.308509e-002
2.661396e+003;3.308580e-002
2.663325e+003;3.303332e-002
2.665253e+003;3.316373e-002
2.667182e+003;3.347594e-002
2.669110e+003;3.363119e-002
2.671039e+003;3.364075e-002
2.672968e+003;3.384702e-002
2.674896e+003;3.407099e-002
2.676825e+003;3.414772e-002
2.678753e+003;3.409382e-002
2.680682e+003;3.411984e-002
2.682610e+003;3.434290e-002
2.684539e+003;3.446338e-002
2.686467e+003;3.450320e-002
2.688396e+003;3.459314e-002
2.690324e+003;3.481846e-002
2.692253e+003;3.545090e-002
2.694182e+003;3.595693e-002
2.696110e+003;3.611732e-002
2.698039e+003;3.630244e-002
2.699967e+003;3.657056e-002
2.701896e+003;3.649037e-002
2.703824e+003;3.649913e-002
2.705753e+003;3.678278e-002
2.707681e+003;3.691417e-002
2.709610e+003;3.696327e-002
2.711539e+003;3.718954e-002
2.713467e+003;3.748935e-002
2.715396e+003;3.777657e-002
2.717324e+003;3.814613e-002
2.719253e+003;3.871494e-002
2.721181e+003;3.926491e-002
2.723110e+003;3.926056e-002
2.725038e+003;3.947071e-002
2.726967e+003;3.997313e-002
2.728896e+003;4.005695e-002
2.730824e+003;4.038657e-002
2.732752e+003;4.088594e-002
2.734681e+003;4.128931e-002
2.736610e+003;4.176900e-002
2.738538e+003;4.192746e-002
2.740467e+003;4.201946e-002
2.742395e+003;4.205389e-002
2.744324e+003;4.197370e-002
2.746252e+003;4.216290e-002
2.748181e+003;4.238896e-002
2.750109e+003;4.241607e-002
2.752038e+003;4.229461e-002
2.753967e+003;4.229761e-002
2.755895e+003;4.220675e-002
2.757824e+003;4.212949e-002
2.759752e+003;4.230017e-002
2.761681e+003;4.263120e-002
2.763609e+003;4.289463e-002
2.765538e+003;4.295122e-002
2.767466e+003;4.315500e-002
2.769395e+003;4.348651e-002
2.771323e+003;4.370905e-002
2.773252e+003;4.378795e-002
2.775181e+003;4.411421e-002
2.777109e+003;4.451611e-002
2.779038e+003;4.493820e-002
2.780966e+003;4.504723e-002
2.782895e+003;4.516950e-002
2.784823e+003;4.555244e-002
2.786752e+003;4.607267e-002
2.788680e+003;4.645781e-002
2.790609e+003;4.649664e-002
2.792538e+003;4.685200e-002
2.794466e+003;4.731172e-002
2.796395e+003;4.743872e-002
2.798323e+003;4.752813e-002
2.800252e+003;4.787335e-002
2.802180e+003;4.843863e-002
2.804109e+003;4.890942e-002
2.806037e+003;4.935580e-002
2.807966e+003;4.994529e-002
2.809895e+003;5.056476e-002
2.811823e+003;5.092965e-002
2.813751e+003;5.141456e-002
2.815680e+003;5.207576e-002
2.817609e+003;5.266327e-002
2.819537e+003;5.314450e-002
2.821466e+003;5.368970e-002
2.823394e+003;5.437308e-002
2.825323e+003;5.504377e-002
2.827251e+003;5.543578e-002
2.829180e+003;5.598534e-002
2.831108e+003;5.681971e-002
2.833037e+003;5.753751e-002
2.834966e+003;5.841646e-002
2.836894e+003;5.984542e-002
2.838823e+003;6.203867e-002
2.840751e+003;6.468737e-002
2.842680e+003;6.771266e-002
2.844608e+003;7.095405e-002
2.846537e+003;7.402992e-002
2.848465e+003;7.765821e-002
2.850394e+003;8.172937e-002
2.852323e+003;8.520939e-002
2.854251e+003;8.819986e-002
2.856180e+003;9.064055e-002
2.858108e+003;9.224728e-002
2.860037e+003;9.280561e-002
2.861965e+003;9.279383e-002
2.863894e+003;9.252355e-002
2.865822e+003;9.163543e-002
2.867751e+003;9.018152e-002
2.869679e+003;8.838107e-002
2.871608e+003;8.638916e-002
2.873536e+003;8.434156e-002
2.875465e+003;8.227408e-002
2.877394e+003;8.009183e-002
2.879322e+003;7.796609e-002
2.881251e+003;7.639366e-002
2.883179e+003;7.547662e-002
2.885108e+003;7.484619e-002
2.887036e+003;7.480316e-002
2.888965e+003;7.561718e-002
2.890893e+003;7.681983e-002
2.892822e+003;7.833186e-002
2.894750e+003;8.002387e-002
2.896679e+003;8.176085e-002
2.898608e+003;8.318185e-002
2.900536e+003;8.419025e-002
2.902465e+003;8.507358e-002
2.904393e+003;8.575331e-002
2.906322e+003;8.659179e-002
2.908250e+003;8.796882e-002
2.910179e+003;8.954044e-002
2.912107e+003;9.161722e-002
2.914036e+003;9.356216e-002
2.915965e+003;9.517135e-002
2.917893e+003;9.697011e-002
2.919822e+003;1.001914e-001
2.921750e+003;1.036218e-001
2.923679e+003;1.065913e-001
2.925607e+003;1.090048e-001
2.927536e+003;1.108425e-001
2.929464e+003;1.123487e-001
2.931393e+003;1.138259e-001
2.933322e+003;1.147438e-001
2.935250e+003;1.148592e-001
2.937178e+003;1.141940e-001
2.939107e+003;1.124896e-001
2.941036e+003;1.099096e-001
2.942964e+003;1.069821e-001
2.944893e+003;1.036234e-001
2.946821e+003;9.965409e-002
2.948750e+003;9.494877e-002
2.950678e+003;8.983275e-002
2.952607e+003;8.488001e-002
2.954535e+003;8.046063e-002
2.956464e+003;7.640812e-002
2.958393e+003;7.290530e-002
2.960321e+003;6.970111e-002
2.962250e+003;6.662710e-002
2.964178e+003;6.416987e-002
2.966107e+003;6.183618e-002
2.968035e+003;5.986919e-002
2.969964e+003;5.809140e-002
2.971892e+003;5.609918e-002
2.973821e+003;5.425150e-002
2.975750e+003;5.266338e-002
2.977678e+003;5.143466e-002
2.979607e+003;4.999492e-002
2.981535e+003;4.864213e-002
2.983464e+003;4.768249e-002
2.985392e+003;4.685517e-002
2.987321e+003;4.637444e-002
2.989249e+003;4.584998e-002
2.991178e+003;4.538688e-002
2.993106e+003;4.494323e-002
2.995035e+003;4.448645e-002
2.996964e+003;4.426865e-002
2.998892e+003;4.407896e-002
3.000821e+003;4.372920e-002
3.002749e+003;4.358895e-002
3.004678e+003;4.428486e-002
3.006606e+003;4.459108e-002
3.008535e+003;4.438416e-002
3.010463e+003;4.425984e-002
3.012392e+003;4.415921e-002
3.014321e+003;4.438277e-002
3.016249e+003;4.449357e-002
3.018177e+003;4.450047e-002
3.020106e+003;4.478583e-002
3.022035e+003;4.553283e-002
3.023963e+003;4.608192e-002
3.025892e+003;4.603447e-002
3.027820e+003;4.618233e-002
3.029749e+003;4.685203e-002
3.031677e+003;4.751505e-002
3.033606e+003;4.784334e-002
3.035534e+003;4.825527e-002
3.037463e+003;4.877764e-002
3.039392e+003;4.909848e-002
3.041320e+003;4.973038e-002
3.043249e+003;5.076572e-002
3.045177e+003;5.153430e-002
3.047106e+003;5.201230e-002
3.049034e+003;5.262388e-002
3.050963e+003;5.346295e-002
3.052891e+003;5.418948e-002
3.054820e+003;5.488290e-002
3.056749e+003;5.552817e-002
3.058677e+003;5.609899e-002
3.060606e+003;5.639616e-002
3.062534e+003;5.658220e-002
3.064463e+003;5.706688e-002
3.066391e+003;5.766108e-002
3.068320e+003;5.811238e-002
3.070248e+003;5.807685e-002
3.072177e+003;5.782900e-002
3.074105e+003;5.784315e-002
3.076034e+003;5.792939e-002
3.077963e+003;5.788275e-002
3.079891e+003;5.782211e-002
3.081820e+003;5.787514e-002
3.083748e+003;5.790668e-002
3.085677e+003;5.772491e-002
3.087605e+003;5.701697e-002
3.089534e+003;5.634802e-002
3.091462e+003;5.589123e-002
3.093391e+003;5.544896e-002
3.095320e+003;5.497558e-002
3.097248e+003;5.465989e-002
3.099177e+003;5.417488e-002
3.101105e+003;5.366817e-002
3.103034e+003;5.285101e-002
3.104962e+003;5.224553e-002
3.106891e+003;5.190915e-002
3.108819e+003;5.143604e-002
3.110748e+003;5.069797e-002
3.112677e+003;5.000804e-002
3.114605e+003;4.962398e-002
3.116533e+003;4.943592e-002
3.118462e+003;4.928331e-002
3.120391e+003;4.888357e-002
3.122319e+003;4.848009e-002
3.124248e+003;4.835278e-002
3.126176e+003;4.832789e-002
3.128105e+003;4.814387e-002
3.130033e+003;4.778997e-002
3.131962e+003;4.744098e-002
3.133890e+003;4.765539e-002
3.135819e+003;4.779633e-002
3.137748e+003;4.754521e-002
3.139676e+003;4.760170e-002
3.141605e+003;4.784608e-002
3.143533e+003;4.764026e-002
3.145462e+003;4.748925e-002
3.147390e+003;4.789544e-002
3.149319e+003;4.817204e-002
3.151247e+003;4.854482e-002
3.153176e+003;4.892028e-002
3.155104e+003;4.885854e-002
3.157033e+003;4.922564e-002
3.158962e+003;4.974219e-002
3.160890e+003;4.994291e-002
3.162819e+003;5.027926e-002
3.164747e+003;5.063464e-002
3.166676e+003;5.077719e-002
3.168604e+003;5.128090e-002
3.170533e+003;5.213520e-002
3.172461e+003;5.275960e-002
3.174390e+003;5.307099e-002
3.176319e+003;5.324648e-002
3.178247e+003;5.357453e-002
3.180176e+003;5.441292e-002
3.182104e+003;5.534303e-002
3.184033e+003;5.612618e-002
3.185961e+003;5.630554e-002
3.187890e+003;5.628163e-002
3.189818e+003;5.646687e-002
3.191747e+003;5.709662e-002
3.193676e+003;5.771488e-002
3.195604e+003;5.791088e-002
3.197532e+003;5.857785e-002
3.199461e+003;5.916519e-002
3.201390e+003;5.930521e-002
3.203318e+003;5.949174e-002
3.205247e+003;5.972545e-002
3.207175e+003;5.990045e-002
3.209104e+003;6.032268e-002
3.211032e+003;6.076682e-002
3.212961e+003;6.103917e-002
3.214889e+003;6.144190e-002
3.216818e+003;6.208966e-002
3.218747e+003;6.299155e-002
3.220675e+003;6.355425e-002
3.222604e+003;6.365575e-002
3.224532e+003;6.417168e-002
3.226461e+003;6.536321e-002
3.228389e+003;6.627638e-002
3.230318e+003;6.662185e-002
3.232246e+003;6.725819e-002
3.234175e+003;6.821618e-002
3.236104e+003;6.947996e-002
3.238032e+003;7.072186e-002
3.239961e+003;7.184481e-002
3.241889e+003;7.304202e-002
3.243818e+003;7.446557e-002
3.245746e+003;7.587876e-002
3.247675e+003;7.752743e-002
3.249603e+003;7.909282e-002
3.251532e+003;8.060378e-002
3.253460e+003;8.201487e-002
3.255389e+003;8.323037e-002
3.257318e+003;8.515206e-002
3.259246e+003;8.716616e-002
3.261175e+003;8.907366e-002
3.263103e+003;9.095844e-002
3.265032e+003;9.313785e-002
3.266960e+003;9.524471e-002
3.268889e+003;9.678764e-002
3.270817e+003;9.846217e-002
3.272746e+003;1.003888e-001
3.274675e+003;1.020104e-001
3.276603e+003;1.036544e-001
3.278531e+003;1.057607e-001
3.280460e+003;1.077595e-001
3.282389e+003;1.099145e-001
3.284317e+003;1.114779e-001
3.286246e+003;1.127855e-001
3.288174e+003;1.143467e-001
3.290103e+003;1.150779e-001
3.292031e+003;1.153846e-001
3.293960e+003;1.156835e-001
3.295888e+003;1.151338e-001
3.297817e+003;1.139499e-001
3.299746e+003;1.124107e-001
3.301674e+003;1.104518e-001
3.303603e+003;1.079715e-001
3.305531e+003;1.053743e-001
3.307460e+003;1.026037e-001
3.309388e+003;1.000505e-001
3.311317e+003;9.749336e-002
3.313245e+003;9.496741e-002
3.315174e+003;9.227810e-002
3.317103e+003;8.962978e-002
3.319031e+003;8.715061e-002
3.320960e+003;8.474970e-002
3.322888e+003;8.242520e-002
3.324817e+003;8.010371e-002
3.326745e+003;7.783729e-002
3.328674e+003;7.568187e-002
3.330602e+003;7.379226e-002
3.332531e+003;7.202496e-002
3.334459e+003;7.005522e-002
3.336388e+003;6.821087e-002
3.338317e+003;6.650215e-002
3.340245e+003;6.468602e-002
3.342174e+003;6.319393e-002
3.344102e+003;6.180932e-002
3.346031e+003;6.062218e-002
3.347959e+003;5.960058e-002
3.349888e+003;5.833861e-002
3.351816e+003;5.717017e-002
3.353745e+003;5.590329e-002
3.355674e+003;5.458091e-002
3.357602e+003;5.356504e-002
3.359531e+003;5.271612e-002
3.361459e+003;5.208962e-002
3.363388e+003;5.136786e-002
3.365316e+003;5.008114e-002
3.367245e+003;4.911502e-002
3.369173e+003;4.854693e-002
3.371102e+003;4.816182e-002
3.373031e+003;4.771759e-002
3.374959e+003;4.701826e-002
3.376887e+003;4.650903e-002
3.378816e+003;4.602106e-002
3.380745e+003;4.551991e-002
3.382673e+003;4.506293e-002
3.384602e+003;4.462608e-002
3.386530e+003;4.447834e-002
3.388459e+003;4.398670e-002
3.390387e+003;4.328395e-002
3.392316e+003;4.315241e-002
3.394244e+003;4.326239e-002
3.396173e+003;4.306078e-002
3.398102e+003;4.252441e-002
3.400030e+003;4.213051e-002
3.401959e+003;4.193968e-002
3.403887e+003;4.153027e-002
3.405816e+003;4.085914e-002
3.407744e+003;4.061208e-002
3.409673e+003;4.052975e-002
3.411601e+003;4.030061e-002
3.413530e+003;4.021588e-002
3.415458e+003;4.003802e-002
3.417387e+003;3.953839e-002
3.419316e+003;3.944270e-002
3.421244e+003;3.950435e-002
3.423173e+003;3.903266e-002
3.425101e+003;3.858749e-002
3.427030e+003;3.868227e-002
3.428958e+003;3.870900e-002
3.430887e+003;3.870737e-002
3.432815e+003;3.877432e-002
3.434744e+003;3.853002e-002
3.436673e+003;3.853650e-002
3.438601e+003;3.885403e-002
3.440530e+003;3.853701e-002
3.442458e+003;3.808402e-002
3.444387e+003;3.787287e-002
3.446315e+003;3.796670e-002
3.448244e+003;3.831500e-002
3.450172e+003;3.784044e-002
3.452101e+003;3.697709e-002
3.454030e+003;3.686104e-002
3.455958e+003;3.660542e-002
3.457886e+003;3.632434e-002
3.459815e+003;3.639488e-002
3.461744e+003;3.627124e-002
3.463672e+003;3.608358e-002
3.465601e+003;3.552432e-002
3.467529e+003;3.515375e-002
3.469458e+003;3.515903e-002
3.471386e+003;3.500651e-002
3.473315e+003;3.470571e-002
3.475243e+003;3.460354e-002
3.477172e+003;3.448723e-002
3.479101e+003;3.424125e-002
3.481029e+003;3.418973e-002
3.482958e+003;3.423942e-002
3.484886e+003;3.435732e-002
3.486815e+003;3.419866e-002
3.488743e+003;3.395525e-002
3.490672e+003;3.384623e-002
3.492600e+003;3.357223e-002
3.494529e+003;3.325772e-002
3.496458e+003;3.310937e-002
3.498386e+003;3.323587e-002
3.500315e+003;3.358873e-002
3.502243e+003;3.390634e-002
3.504172e+003;3.339510e-002
3.506100e+003;3.278977e-002
3.508029e+003;3.275028e-002
3.509957e+003;3.261303e-002
3.511886e+003;3.225393e-002
3.513814e+003;3.212333e-002
3.515743e+003;3.208344e-002
3.517672e+003;3.170735e-002
3.519600e+003;3.112916e-002
3.521529e+003;3.094165e-002
3.523457e+003;3.087885e-002
3.525386e+003;3.060942e-002
3.527314e+003;3.029303e-002
3.529243e+003;3.001963e-002
3.531171e+003;2.990020e-002
3.533100e+003;3.007282e-002
3.535029e+003;3.000234e-002
3.536957e+003;2.958228e-002
3.538885e+003;2.933654e-002
3.540814e+003;2.885027e-002
3.542743e+003;2.851956e-002
3.544671e+003;2.848213e-002
3.546600e+003;2.822531e-002
3.548528e+003;2.811790e-002
3.550457e+003;2.783523e-002
3.552385e+003;2.727615e-002
3.554314e+003;2.721236e-002
3.556242e+003;2.704257e-002
3.558171e+003;2.665655e-002
3.560100e+003;2.610053e-002
3.562028e+003;2.545386e-002
3.563957e+003;2.505162e-002
3.565885e+003;2.520009e-002
3.567814e+003;2.536681e-002
3.569742e+003;2.521386e-002
3.571671e+003;2.482219e-002
3.573599e+003;2.468405e-002
3.575528e+003;2.446870e-002
3.577457e+003;2.393696e-002
3.579385e+003;2.358713e-002
3.581314e+003;2.332840e-002
3.583242e+003;2.257575e-002
3.585171e+003;2.178064e-002
3.587099e+003;2.163303e-002
3.589028e+003;2.176406e-002
3.590956e+003;2.141510e-002
3.592885e+003;2.082904e-002
3.594813e+003;2.076689e-002
3.596742e+003;2.096383e-002
3.598671e+003;2.111049e-002
3.600599e+003;2.066159e-002
3.602528e+003;2.039504e-002
3.604456e+003;2.046089e-002
3.606385e+003;1.996849e-002
3.608313e+003;1.917707e-002
3.610242e+003;1.892251e-002
3.612170e+003;1.880471e-002
3.614099e+003;1.871843e-002
3.616028e+003;1.889233e-002
3.617956e+003;1.864292e-002
3.619885e+003;1.808500e-002
3.621813e+003;1.769701e-002
3.623742e+003;1.761547e-002
3.625670e+003;1.751041e-002
3.627599e+003;1.723332e-002
3.629527e+003;1.691784e-002
3.631456e+003;1.678113e-002
3.633385e+003;1.650677e-002
3.635313e+003;1.648075e-002
3.637241e+003;1.606116e-002
3.639170e+003;1.580257e-002
3.641099e+003;1.600384e-002
3.643027e+003;1.589900e-002
3.644956e+003;1.532898e-002
3.646884e+003;1.479059e-002
3.648813e+003;1.447004e-002
3.650741e+003;1.463851e-002
3.652670e+003;1.493662e-002
3.654598e+003;1.477023e-002
3.656527e+003;1.420069e-002
3.658456e+003;1.396843e-002
3.660384e+003;1.431711e-002
3.662313e+003;1.428999e-002
3.664241e+003;1.421860e-002
3.666170e+003;1.448268e-002
3.668098e+003;1.455117e-002
3.670027e+003;1.436735e-002
3.671955e+003;1.422528e-002
3.673884e+003;1.396015e-002
3.675813e+003;1.371113e-002
3.677741e+003;1.389145e-002
3.679669e+003;1.376339e-002
3.681598e+003;1.324384e-002
3.683527e+003;1.280630e-002
3.685455e+003;1.305703e-002
3.687384e+003;1.290917e-002
3.689312e+003;1.247827e-002
3.691241e+003;1.244377e-002
3.693169e+003;1.254188e-002
3.695098e+003;1.240541e-002
3.697026e+003;1.211148e-002
3.698955e+003;1.188837e-002
3.700884e+003;1.171174e-002
3.702812e+003;1.140314e-002
3.704741e+003;1.135103e-002
3.706669e+003;1.158421e-002
3.708598e+003;1.177220e-002
3.710526e+003;1.192341e-002
3.712455e+003;1.189236e-002
3.714383e+003;1.168662e-002
3.716312e+003;1.179147e-002
3.718240e+003;1.206974e-002
3.720169e+003;1.193258e-002
3.722098e+003;1.193775e-002
3.724026e+003;1.161787e-002
3.725955e+003;1.134610e-002
3.727883e+003;1.137783e-002
3.729812e+003;1.136783e-002
3.731740e+003;1.131474e-002
3.733669e+003;1.100524e-002
3.735597e+003;1.092725e-002
3.737526e+003;1.143886e-002
3.739455e+003;1.166575e-002
3.741383e+003;1.138066e-002
3.743312e+003;1.106825e-002
3.745240e+003;1.133753e-002
3.747169e+003;1.179269e-002
3.749097e+003;1.166977e-002
3.751026e+003;1.114861e-002
3.752954e+003;1.092623e-002
3.754883e+003;1.130866e-002
3.756812e+003;1.148329e-002
3.758740e+003;1.139505e-002
3.760668e+003;1.128638e-002
3.762597e+003;1.169482e-002
3.764526e+003;1.219687e-002
3.766454e+003;1.201899e-002
3.768383e+003;1.176552e-002
3.770311e+003;1.171977e-002
3.772240e+003;1.157043e-002
3.774168e+003;1.157856e-002
3.776097e+003;1.168440e-002
3.778025e+003;1.156247e-002
3.779954e+003;1.167409e-002
3.781883e+003;1.170806e-002
3.783811e+003;1.132253e-002
3.785740e+003;1.145284e-002
3.787668e+003;1.169111e-002
3.789597e+003;1.154749e-002
3.791525e+003;1.143474e-002
3.793454e+003;1.125180e-002
3.795382e+003;1.104453e-002
3.797311e+003;1.127513e-002
3.799240e+003;1.124547e-002
3.801168e+003;1.107087e-002
3.803097e+003;1.114008e-002
3.805025e+003;1.072231e-002
3.806954e+003;1.050657e-002
3.808882e+003;1.106975e-002
3.810811e+003;1.164472e-002
3.812739e+003;1.229673e-002
3.814668e+003;1.230938e-002
3.816596e+003;1.226132e-002
3.818525e+003;1.204423e-002
3.820454e+003;1.147036e-002
3.822382e+003;1.179429e-002
3.824311e+003;1.220147e-002
3.826239e+003;1.243548e-002
3.828168e+003;1.247353e-002
3.830096e+003;1.231084e-002
3.832025e+003;1.190772e-002
3.833953e+003;1.183328e-002
3.835882e+003;1.163390e-002
3.837811e+003;1.155746e-002
3.839739e+003;1.193489e-002
3.841667e+003;1.188793e-002
3.843596e+003;1.185912e-002
3.845525e+003;1.215226e-002
3.847453e+003;1.258082e-002
3.849382e+003;1.238523e-002
3.851310e+003;1.185078e-002
3.853239e+003;1.180703e-002
3.855167e+003;1.203132e-002
3.857096e+003;1.259249e-002
3.859024e+003;1.284630e-002
3.860953e+003;1.276399e-002
3.862882e+003;1.291340e-002
3.864810e+003;1.258447e-002
3.866739e+003;1.220229e-002
3.868667e+003;1.204409e-002
3.870596e+003;1.261224e-002
3.872524e+003;1.308363e-002
3.874453e+003;1.281630e-002
3.876381e+003;1.286138e-002
3.878310e+003;1.299646e-002
3.880239e+003;1.255320e-002
3.882167e+003;1.194913e-002
3.884096e+003;1.196316e-002
3.886024e+003;1.238788e-002
3.887953e+003;1.282238e-002
3.889881e+003;1.267818e-002
3.891810e+003;1.257792e-002
3.893738e+003;1.273877e-002
3.895667e+003;1.292835e-002
3.897595e+003;1.296583e-002
3.899524e+003;1.256657e-002
3.901453e+003;1.247534e-002
3.903381e+003;1.308414e-002
3.905310e+003;1.325146e-002
3.907238e+003;1.299308e-002
3.909167e+003;1.312877e-002
3.911095e+003;1.350829e-002
3.913024e+003;1.326984e-002
3.914952e+003;1.304555e-002
3.916881e+003;1.314476e-002
3.918810e+003;1.364240e-002
3.920738e+003;1.388793e-002
3.922667e+003;1.366729e-002
3.924595e+003;1.400317e-002
3.926524e+003;1.414257e-002
3.928452e+003;1.409499e-002
3.930381e+003;1.469688e-002
3.932309e+003;1.493477e-002
3.934238e+003;1.485426e-002
3.936167e+003;1.510758e-002
3.938095e+003;1.480653e-002
3.940023e+003;1.400156e-002
3.941952e+003;1.342472e-002
3.943881e+003;1.415841e-002
3.945809e+003;1.517506e-002
3.947738e+003;1.530441e-002
3.949666e+003;1.516902e-002
3.951595e+003;1.513386e-002
3.953523e+003;1.513039e-002
3.955452e+003;1.521126e-002
3.957380e+003;1.517894e-002
3.959309e+003;1.528326e-002
3.961238e+003;1.539612e-002
3.963166e+003;1.528587e-002
3.965095e+003;1.527722e-002
3.967023e+003;1.525275e-002
3.968952e+003;1.537034e-002
3.970880e+003;1.533320e-002
3.972809e+003;1.558573e-002
3.974737e+003;1.600209e-002
3.976666e+003;1.618849e-002
3.978594e+003;1.637686e-002
3.980523e+003;1.624397e-002
3.982452e+003;1.591791e-002
3.984380e+003;1.565223e-002
3.986309e+003;1.556001e-002
3.988237e+003;1.558869e-002
3.990166e+003;1.637294e-002
3.992094e+003;1.710609e-002
3.994023e+003;1.709968e-002
3.995951e+003;1.724900e-002
3.997880e+003;1.698534e-002
3.999809e+003;1.643337e-002
4.001737e+003;0.000000e+000
