3.992094e+002;0.000000e+000
4.011380e+002;0.000000e+000
4.030665e+002;0.000000e+000
4.049951e+002;0.000000e+000
4.069236e+002;0.000000e+000
4.088522e+002;0.000000e+000
4.107807e+002;0.000000e+000
4.127093e+002;0.000000e+000
4.146378e+002;0.000000e+000
4.165664e+002;0.000000e+000
4.184949e+002;0.000000e+000
4.204235e+002;0.000000e+000
4.223520e+002;0.000000e+000
4.242806e+002;0.000000e+000
4.262091e+002;0.000000e+000
4.281377e+002;0.000000e+000
4.300662e+002;0.000000e+000
4.319948e+002;0.000000e+000
4.339233e+002;0.000000e+000
4.358519e+002;0.000000e+000
4.377804e+002;0.000000e+000
4.397090e+002;0.000000e+000
4.416375e+002;0.000000e+000
4.435660e+002;0.000000e+000
4.454946e+002;0.000000e+000
4.474232e+002;0.000000e+000
4.493517e+002;0.000000e+000
4.512802e+002;0.000000e+000
4.532088e+002;0.000000e+000
4.551373e+002;0.000000e+000
4.570659e+002;0.000000e+000
4.589944e+002;0.000000e+000
4.609230e+002;0.000000e+000
4.628515e+002;0.000000e+000
4.647801e+002;0.000000e+000
4.667086e+002;0.000000e+000
4.686372e+002;0.000000e+000
4.705657e+002;0.000000e+000
4.724943e+002;0.000000e+000
4.744228e+002;0.000000e+000
4.763513e+002;0.000000e+000
4.782799e+002;0.000000e+000
4.802085e+002;0.000000e+000
4.821370e+002;0.000000e+000
4.840656e+002;0.000000e+000
4.859941e+002;0.000000e+000
4.879226e+002;0.000000e+000
4.898512e+002;0.000000e+000
4.917798e+002;0.000000e+000
4.937083e+002;0.000000e+000
4.956368e+002;0.000000e+000
4.975654e+002;0.000000e+000
4.994939e+002;0.000000e+000
5.014225e+002;0.000000e+000
5.033510e+002;0.000000e+000
5.052796e+002;0.000000e+000
5.072081e+002;0.000000e+000
5.091367e+002;0.000000e+000
5.110652e+002;0.000000e+000
5.129938e+002;0.000000e+000
5.149223e+002;0.000000e+000
5.168509e+002;0.000000e+000
5.187794e+002;0.000000e+000
5.207079e+002;0.000000e+000
5.226365e+002;0.000000e+000
5.245651e+002;0.000000e+000
5.264936e+002;0.000000e+000
5.284222e+002;0.000000e+000
5.303507e+002;0.000000e+000
5.322792e+002;0.000000e+000
5.342078e+002;0.000000e+000
5.361364e+002;0.000000e+000
5.380649e+002;0.000000e+000
5.399935e+002;0.000000e+000
5.419220e+002;0.000000e+000
5.438505e+002;0.000000e+000
5.457791e+002;0.000000e+000
5.477076e+002;0.000000e+000
5.496362e+002;0.000000e+000
5.515648e+002;0.000000e+000
5.534933e+002;0.000000e+000
5.554218e+002;0.000000e+000
5.573504e+002;0.000000e+000
5.592789e+002;0.000000e+000
5.612075e+002;0.000000e+000
5.631360e+002;0.000000e+000
5.650646e+002;0.000000e+000
5.669931e+002;0.000000e+000
5.689217e+002;0.000000e+000
5.708502e+002;0.000000e+000
5.727787e+002;0.000000e+000
5.747073e+002;0.000000e+000
5.766359e+002;0.000000e+000
5.785644e+002;0.000000e+000
5.804930e+002;0.000000e+000
5.824215e+002;0.000000e+000
5.843500e+002;0.000000e+000
5.862786e+002;0.000000e+000
5.882072e+002;0.000000e+000
5.901357e+002;0.000000e+000
5.920643e+002;0.000000e+000
5.939928e+002;0.000000e+000
5.959213e+002;0.000000e+000
5.978499e+002;0.000000e+000
5.997784e+002;1.337744e-001
6.017070e+002;1.292998e-001
6.036355e+002;1.272305e-001
6.055641e+002;1.265398e-001
6.074926e+002;1.257492e-001
6.094211e+002;1.261516e-001
6.113497e+002;1.257007e-001
6.132783e+002;1.277126e-001
6.152068e+002;1.315332e-001
6.171354e+002;1.333588e-001
6.190639e+002;1.308296e-001
6.209924e+002;1.262912e-001
6.229210e+002;1.268128e-001
6.248495e+002;1.309716e-001
6.267781e+002;1.330608e-001
6.287067e+002;1.330899e-001
6.306352e+002;1.347330e-001
6.325637e+002;1.317091e-001
6.344923e+002;1.294488e-001
6.364208e+002;1.291186e-001
6.383494e+002;1.302825e-001
6.402780e+002;1.346449e-001
6.422065e+002;1.392206e-001
6.441350e+002;1.408651e-001
6.460636e+002;1.424966e-001
6.479921e+002;1.437399e-001
6.499207e+002;1.454975e-001
6.518492e+002;1.497411e-001
6.537778e+002;1.525677e-001
6.557063e+002;1.533042e-001
6.576349e+002;1.558941e-001
6.595634e+002;1.601040e-001
6.614919e+002;1.624734e-001
6.634205e+002;1.649787e-001
6.653491e+002;1.694622e-001
6.672776e+002;1.699335e-001
6.692062e+002;1.694302e-001
6.711347e+002;1.729018e-001
6.730632e+002;1.752181e-001
6.749918e+002;1.755129e-001
6.769203e+002;1.772050e-001
6.788489e+002;1.803202e-001
6.807775e+002;1.828866e-001
6.827060e+002;1.824288e-001
6.846345e+002;1.806474e-001
6.865631e+002;1.798552e-001
6.884916e+002;1.794793e-001
6.904202e+002;1.791651e-001
6.923488e+002;1.785152e-001
6.942773e+002;1.760611e-001
6.962058e+002;1.730173e-001
6.981344e+002;1.698519e-001
7.000629e+002;1.669311e-001
7.019915e+002;1.650198e-001
7.039200e+002;1.631268e-001
7.058486e+002;1.608289e-001
7.077771e+002;1.608760e-001
7.097057e+002;1.614843e-001
7.116342e+002;1.594476e-001
7.135627e+002;1.571717e-001
7.154913e+002;1.568304e-001
7.174199e+002;1.571704e-001
7.193484e+002;1.557691e-001
7.212770e+002;1.545800e-001
7.232055e+002;1.549647e-001
7.251340e+002;1.548420e-001
7.270626e+002;1.546456e-001
7.289911e+002;1.530561e-001
7.309197e+002;1.487702e-001
7.328483e+002;1.416572e-001
7.347768e+002;1.334588e-001
7.367053e+002;1.266257e-001
7.386339e+002;1.216305e-001
7.405624e+002;1.170937e-001
7.424910e+002;1.136398e-001
7.444196e+002;1.110476e-001
7.463481e+002;1.078122e-001
7.482766e+002;1.045834e-001
7.502052e+002;1.023603e-001
7.521337e+002;1.011507e-001
7.540623e+002;9.945174e-002
7.559908e+002;9.723887e-002
7.579194e+002;9.472156e-002
7.598479e+002;9.234007e-002
7.617765e+002;9.149723e-002
7.637050e+002;9.112352e-002
7.656335e+002;8.914526e-002
7.675621e+002;8.634110e-002
7.694907e+002;8.538996e-002
7.714192e+002;8.470919e-002
7.733478e+002;8.307280e-002
7.752763e+002;8.099433e-002
7.772048e+002;7.910657e-002
7.791334e+002;7.779726e-002
7.810620e+002;7.691953e-002
7.829905e+002;7.539994e-002
7.849191e+002;7.335865e-002
7.868476e+002;7.198687e-002
7.887761e+002;7.061191e-002
7.907047e+002;6.867383e-002
7.926332e+002;6.731603e-002
7.945618e+002;6.655444e-002
7.964903e+002;6.514935e-002
7.984189e+002;6.345499e-002
8.003474e+002;6.215132e-002
8.022759e+002;6.102525e-002
8.042045e+002;5.980785e-002
8.061331e+002;5.884275e-002
8.080616e+002;5.803516e-002
8.099902e+002;5.702936e-002
8.119187e+002;5.579616e-002
8.138472e+002;5.511291e-002
8.157758e+002;5.532948e-002
8.177043e+002;5.584657e-002
8.196329e+002;5.676292e-002
8.215615e+002;5.763326e-002
8.234900e+002;5.793780e-002
8.254185e+002;5.905080e-002
8.273471e+002;6.073290e-002
8.292756e+002;6.191424e-002
8.312042e+002;6.285226e-002
8.331328e+002;6.256844e-002
8.350613e+002;6.028979e-002
8.369898e+002;5.750971e-002
8.389184e+002;5.430815e-002
8.408469e+002;5.167561e-002
8.427755e+002;5.022927e-002
8.447040e+002;4.902287e-002
8.466326e+002;4.746208e-002
8.485611e+002;4.547598e-002
8.504897e+002;4.446854e-002
8.524182e+002;4.365119e-002
8.543467e+002;4.270204e-002
8.562753e+002;4.239349e-002
8.582039e+002;4.210240e-002
8.601324e+002;4.207991e-002
8.620610e+002;4.241604e-002
8.639895e+002;4.237059e-002
8.659180e+002;4.201180e-002
8.678466e+002;4.183817e-002
8.697751e+002;4.245816e-002
8.717037e+002;4.291621e-002
8.736323e+002;4.326437e-002
8.755608e+002;4.381980e-002
8.774893e+002;4.449556e-002
8.794179e+002;4.499126e-002
8.813464e+002;4.569929e-002
8.832750e+002;4.644701e-002
8.852036e+002;4.680719e-002
8.871321e+002;4.680915e-002
8.890606e+002;4.695414e-002
8.909892e+002;4.732834e-002
8.929177e+002;4.771456e-002
8.948463e+002;4.756122e-002
8.967748e+002;4.767783e-002
8.987034e+002;4.853677e-002
9.006319e+002;4.885269e-002
9.025605e+002;4.899468e-002
9.044890e+002;5.015868e-002
9.064175e+002;5.124783e-002
9.083461e+002;5.155702e-002
9.102747e+002;5.215492e-002
9.122032e+002;5.310525e-002
9.141318e+002;5.422034e-002
9.160603e+002;5.505708e-002
9.179888e+002;5.584107e-002
9.199174e+002;5.676307e-002
9.218459e+002;5.809333e-002
9.237745e+002;5.964482e-002
9.257031e+002;6.085487e-002
9.276316e+002;6.175133e-002
9.295601e+002;6.170943e-002
9.314887e+002;6.078283e-002
9.334172e+002;6.010311e-002
9.353458e+002;5.928295e-002
9.372744e+002;5.859321e-002
9.392029e+002;5.829833e-002
9.411314e+002;5.803251e-002
9.430600e+002;5.840156e-002
9.449885e+002;5.990406e-002
9.469171e+002;6.189433e-002
9.488456e+002;6.397618e-002
9.507742e+002;6.594550e-002
9.527027e+002;6.708755e-002
9.546313e+002;6.802288e-002
9.565598e+002;6.909353e-002
9.584883e+002;6.964517e-002
9.604169e+002;6.968065e-002
9.623455e+002;6.900357e-002
9.642740e+002;6.828376e-002
9.662026e+002;6.779085e-002
9.681311e+002;6.705248e-002
9.700596e+002;6.619669e-002
9.719882e+002;6.580379e-002
9.739167e+002;6.539095e-002
9.758453e+002;6.436169e-002
9.777739e+002;6.340499e-002
9.797024e+002;6.310035e-002
9.816309e+002;6.316810e-002
9.835595e+002;6.297382e-002
9.854880e+002;6.249034e-002
9.874166e+002;6.228049e-002
9.893452e+002;6.192505e-002
9.912737e+002;6.092341e-002
9.932022e+002;5.926081e-002
9.951307e+002;5.750592e-002
9.970593e+002;5.595627e-002
9.989879e+002;5.460255e-002
1.000916e+003;5.386224e-002
1.002845e+003;5.335294e-002
1.004773e+003;5.280345e-002
1.006702e+003;5.312312e-002
1.008631e+003;5.355297e-002
1.010559e+003;5.333395e-002
1.012488e+003;5.337744e-002
1.014416e+003;5.394394e-002
1.016345e+003;5.430736e-002
1.018273e+003;5.460807e-002
1.020202e+003;5.501236e-002
1.022130e+003;5.576018e-002
1.024059e+003;5.704671e-002
1.025988e+003;5.835521e-002
1.027916e+003;5.957933e-002
1.029845e+003;6.097648e-002
1.031773e+003;6.246004e-002
1.033702e+003;6.398462e-002
1.035630e+003;6.462146e-002
1.037559e+003;6.548645e-002
1.039487e+003;6.733309e-002
1.041416e+003;6.953215e-002
1.043344e+003;7.151193e-002
1.045273e+003;7.228626e-002
1.047202e+003;7.126851e-002
1.049130e+003;6.921541e-002
1.051059e+003;6.657874e-002
1.052987e+003;6.423298e-002
1.054916e+003;6.317010e-002
1.056844e+003;6.353664e-002
1.058773e+003;6.473679e-002
1.060701e+003;6.629804e-002
1.062630e+003;6.818008e-002
1.064558e+003;7.030731e-002
1.066487e+003;7.155064e-002
1.068416e+003;7.228763e-002
1.070344e+003;7.339346e-002
1.072273e+003;7.403612e-002
1.074201e+003;7.355820e-002
1.076130e+003;7.318795e-002
1.078058e+003;7.272816e-002
1.079987e+003;7.251083e-002
1.081915e+003;7.199598e-002
1.083844e+003;7.108711e-002
1.085773e+003;7.104980e-002
1.087701e+003;7.110073e-002
1.089630e+003;7.126144e-002
1.091558e+003;7.139334e-002
1.093487e+003;7.151259e-002
1.095415e+003;7.223738e-002
1.097344e+003;7.371954e-002
1.099272e+003;7.583693e-002
1.101201e+003;7.823155e-002
1.103129e+003;8.075511e-002
1.105058e+003;8.315568e-002
1.106987e+003;8.524475e-002
1.108915e+003;8.648098e-002
1.110844e+003;8.693243e-002
1.112772e+003;8.768830e-002
1.114701e+003;8.861149e-002
1.116629e+003;8.857138e-002
1.118558e+003;8.807408e-002
1.120486e+003;8.719888e-002
1.122415e+003;8.489273e-002
1.124344e+003;8.067758e-002
1.126272e+003;7.606422e-002
1.128201e+003;7.164168e-002
1.130129e+003;6.798130e-002
1.132058e+003;6.540624e-002
1.133986e+003;6.358984e-002
1.135915e+003;6.316899e-002
1.137843e+003;6.460036e-002
1.139772e+003;6.682801e-002
1.141700e+003;6.935059e-002
1.143629e+003;7.181537e-002
1.145557e+003;7.405423e-002
1.147486e+003;7.720383e-002
1.149415e+003;8.139303e-002
1.151343e+003;8.574763e-002
1.153272e+003;8.994518e-002
1.155200e+003;9.451552e-002
1.157129e+003;1.000702e-001
1.159057e+003;1.062585e-001
1.160986e+003;1.133777e-001
1.162914e+003;1.210578e-001
1.164843e+003;1.276407e-001
1.166771e+003;1.320704e-001
1.168700e+003;1.347897e-001
1.170629e+003;1.346809e-001
1.172557e+003;1.314407e-001
1.174486e+003;1.268632e-001
1.176414e+003;1.220264e-001
1.178343e+003;1.178201e-001
1.180271e+003;1.152022e-001
1.182200e+003;1.148638e-001
1.184128e+003;1.164171e-001
1.186057e+003;1.189518e-001
1.187986e+003;1.226250e-001
1.189914e+003;1.271704e-001
1.191843e+003;1.316356e-001
1.193771e+003;1.358577e-001
1.195700e+003;1.401513e-001
1.197628e+003;1.438011e-001
1.199557e+003;1.445172e-001
1.201485e+003;1.421124e-001
1.203414e+003;1.382722e-001
1.205343e+003;1.347347e-001
1.207271e+003;1.324628e-001
1.209200e+003;1.311630e-001
1.211128e+003;1.296387e-001
1.213057e+003;1.281942e-001
1.214985e+003;1.263359e-001
1.216914e+003;1.236563e-001
1.218842e+003;1.215685e-001
1.220771e+003;1.206825e-001
1.222699e+003;1.215541e-001
1.224628e+003;1.242749e-001
1.226557e+003;1.282005e-001
1.228485e+003;1.327185e-001
1.230414e+003;1.373358e-001
1.232342e+003;1.418024e-001
1.234271e+003;1.452683e-001
1.236199e+003;1.472051e-001
1.238128e+003;1.479127e-001
1.240056e+003;1.476011e-001
1.241985e+003;1.472854e-001
1.243913e+003;1.473288e-001
1.245842e+003;1.478931e-001
1.247771e+003;1.491645e-001
1.249699e+003;1.511986e-001
1.251628e+003;1.538870e-001
1.253556e+003;1.566236e-001
1.255485e+003;1.590970e-001
1.257413e+003;1.613337e-001
1.259342e+003;1.627609e-001
1.261270e+003;1.626408e-001
1.263199e+003;1.601451e-001
1.265127e+003;1.551357e-001
1.267056e+003;1.487333e-001
1.268985e+003;1.425847e-001
1.270913e+003;1.378371e-001
1.272842e+003;1.348264e-001
1.274770e+003;1.335002e-001
1.276699e+003;1.332165e-001
1.278627e+003;1.329044e-001
1.280556e+003;1.321482e-001
1.282484e+003;1.308405e-001
1.284413e+003;1.291592e-001
1.286342e+003;1.277744e-001
1.288270e+003;1.270202e-001
1.290199e+003;1.263021e-001
1.292127e+003;1.257442e-001
1.294056e+003;1.251048e-001
1.295984e+003;1.244194e-001
1.297913e+003;1.237652e-001
1.299841e+003;1.232085e-001
1.301770e+003;1.224369e-001
1.303698e+003;1.210662e-001
1.305627e+003;1.192996e-001
1.307556e+003;1.176764e-001
1.309484e+003;1.163890e-001
1.311413e+003;1.153767e-001
1.313341e+003;1.146136e-001
1.315270e+003;1.141851e-001
1.317198e+003;1.138280e-001
1.319127e+003;1.134621e-001
1.321055e+003;1.134363e-001
1.322984e+003;1.136291e-001
1.324912e+003;1.134613e-001
1.326841e+003;1.133564e-001
1.328770e+003;1.137641e-001
1.330698e+003;1.139987e-001
1.332627e+003;1.137941e-001
1.334555e+003;1.131870e-001
1.336484e+003;1.125280e-001
1.338412e+003;1.122553e-001
1.340341e+003;1.121343e-001
1.342269e+003;1.123819e-001
1.344198e+003;1.131019e-001
1.346126e+003;1.140214e-001
1.348055e+003;1.150650e-001
1.349984e+003;1.163326e-001
1.351912e+003;1.177675e-001
1.353841e+003;1.195030e-001
1.355769e+003;1.213620e-001
1.357698e+003;1.231937e-001
1.359626e+003;1.251642e-001
1.361555e+003;1.274597e-001
1.363483e+003;1.297984e-001
1.365412e+003;1.319819e-001
1.367341e+003;1.339673e-001
1.369269e+003;1.356815e-001
1.371198e+003;1.367949e-001
1.373126e+003;1.366546e-001
1.375055e+003;1.351885e-001
1.376983e+003;1.327393e-001
1.378912e+003;1.297296e-001
1.380840e+003;1.263032e-001
1.382769e+003;1.223226e-001
1.384698e+003;1.181983e-001
1.386626e+003;1.142004e-001
1.388555e+003;1.108265e-001
1.390483e+003;1.080528e-001
1.392412e+003;1.057710e-001
1.394340e+003;1.040311e-001
1.396269e+003;1.035857e-001
1.398197e+003;1.044419e-001
1.400126e+003;1.061354e-001
1.402054e+003;1.087558e-001
1.403983e+003;1.125360e-001
1.405911e+003;1.173538e-001
1.407840e+003;1.237050e-001
1.409769e+003;1.315784e-001
1.411697e+003;1.397307e-001
1.413626e+003;1.471166e-001
1.415554e+003;1.524697e-001
1.417483e+003;1.545898e-001
1.419411e+003;1.538291e-001
1.421340e+003;1.512738e-001
1.423268e+003;1.481497e-001
1.425197e+003;1.460102e-001
1.427125e+003;1.458072e-001
1.429054e+003;1.475351e-001
1.430983e+003;1.501998e-001
1.432911e+003;1.523863e-001
1.434840e+003;1.538056e-001
1.436768e+003;1.543595e-001
1.438697e+003;1.539885e-001
1.440625e+003;1.529270e-001
1.442554e+003;1.520332e-001
1.444482e+003;1.517624e-001
1.446411e+003;1.521192e-001
1.448340e+003;1.532490e-001
1.450268e+003;1.552958e-001
1.452197e+003;1.580531e-001
1.454125e+003;1.610979e-001
1.456054e+003;1.642784e-001
1.457982e+003;1.686884e-001
1.459911e+003;1.734549e-001
1.461839e+003;1.764420e-001
1.463768e+003;1.762277e-001
1.465697e+003;1.720061e-001
1.467625e+003;1.654730e-001
1.469554e+003;1.596632e-001
1.471482e+003;1.564245e-001
1.473411e+003;1.556100e-001
1.475339e+003;1.551265e-001
1.477268e+003;1.529815e-001
1.479196e+003;1.491810e-001
1.481125e+003;1.444951e-001
1.483053e+003;1.395859e-001
1.484982e+003;1.348928e-001
1.486911e+003;1.313381e-001
1.488839e+003;1.300091e-001
1.490768e+003;1.312212e-001
1.492696e+003;1.344298e-001
1.494625e+003;1.390301e-001
1.496553e+003;1.444149e-001
1.498482e+003;1.505374e-001
1.500410e+003;1.570708e-001
1.502339e+003;1.637000e-001
1.504267e+003;1.702555e-001
1.506196e+003;1.772885e-001
1.508125e+003;1.850722e-001
1.510053e+003;1.930531e-001
1.511982e+003;2.012950e-001
1.513910e+003;2.095769e-001
1.515839e+003;2.173138e-001
1.517767e+003;2.247013e-001
1.519696e+003;2.324960e-001
1.521624e+003;2.412048e-001
1.523553e+003;2.501697e-001
1.525481e+003;2.585778e-001
1.527410e+003;2.668166e-001
1.529339e+003;2.746584e-001
1.531267e+003;2.813583e-001
1.533196e+003;2.866145e-001
1.535124e+003;2.903060e-001
1.537053e+003;2.913925e-001
1.538981e+003;2.893092e-001
1.540910e+003;2.846788e-001
1.542838e+003;2.776640e-001
1.544767e+003;2.689112e-001
1.546695e+003;2.588261e-001
1.548624e+003;2.474461e-001
1.550553e+003;2.355013e-001
1.552481e+003;2.236492e-001
1.554410e+003;2.123057e-001
1.556338e+003;2.013689e-001
1.558267e+003;1.905319e-001
1.560195e+003;1.810432e-001
1.562124e+003;1.724554e-001
1.564052e+003;1.639211e-001
1.565981e+003;1.553603e-001
1.567910e+003;1.472091e-001
1.569838e+003;1.400101e-001
1.571767e+003;1.335492e-001
1.573695e+003;1.279373e-001
1.575624e+003;1.228910e-001
1.577552e+003;1.185447e-001
1.579481e+003;1.154026e-001
1.581409e+003;1.129452e-001
1.583338e+003;1.111722e-001
1.585266e+003;1.101916e-001
1.587195e+003;1.098623e-001
1.589124e+003;1.102130e-001
1.591052e+003;1.113596e-001
1.592981e+003;1.133193e-001
1.594909e+003;1.156029e-001
1.596838e+003;1.183507e-001
1.598766e+003;1.221944e-001
1.600695e+003;1.274204e-001
1.602623e+003;1.334146e-001
1.604552e+003;1.404722e-001
1.606480e+003;1.486571e-001
1.608409e+003;1.574883e-001
1.610338e+003;1.672489e-001
1.612266e+003;1.778537e-001
1.614195e+003;1.894409e-001
1.616123e+003;2.025544e-001
1.618052e+003;2.173889e-001
1.619980e+003;2.331098e-001
1.621909e+003;2.491074e-001
1.623837e+003;2.657098e-001
1.625766e+003;2.827254e-001
1.627694e+003;2.999283e-001
1.629623e+003;3.174787e-001
1.631552e+003;3.352030e-001
1.633480e+003;3.514095e-001
1.635409e+003;3.626411e-001
1.637337e+003;3.658890e-001
1.639266e+003;3.603915e-001
1.641194e+003;3.468092e-001
1.643123e+003;3.278776e-001
1.645051e+003;3.067975e-001
1.646980e+003;2.857269e-001
1.648909e+003;2.665762e-001
1.650837e+003;2.494129e-001
1.652766e+003;2.339845e-001
1.654694e+003;2.211875e-001
1.656623e+003;2.103211e-001
1.658551e+003;1.996800e-001
1.660480e+003;1.893029e-001
1.662408e+003;1.790198e-001
1.664337e+003;1.689431e-001
1.666266e+003;1.590690e-001
1.668194e+003;1.495271e-001
1.670123e+003;1.403559e-001
1.672051e+003;1.320883e-001
1.673980e+003;1.239436e-001
1.675908e+003;1.154464e-001
1.677837e+003;1.072300e-001
1.679765e+003;9.896500e-002
1.681694e+003;9.038226e-002
1.683622e+003;8.189530e-002
1.685551e+003;7.465798e-002
1.687479e+003;6.879054e-002
1.689408e+003;6.335136e-002
1.691337e+003;5.873331e-002
1.693265e+003;5.504809e-002
1.695194e+003;5.172182e-002
1.697122e+003;4.913914e-002
1.699051e+003;4.737102e-002
1.700979e+003;4.612580e-002
1.702908e+003;4.545950e-002
1.704836e+003;4.453653e-002
1.706765e+003;4.374558e-002
1.708693e+003;4.342509e-002
1.710622e+003;4.307772e-002
1.712551e+003;4.276302e-002
1.714479e+003;4.249963e-002
1.716408e+003;4.198570e-002
1.718336e+003;4.163985e-002
1.720265e+003;4.162621e-002
1.722193e+003;4.172691e-002
1.724122e+003;4.154970e-002
1.726050e+003;4.133224e-002
1.727979e+003;4.123673e-002
1.729908e+003;4.103071e-002
1.731836e+003;4.047410e-002
1.733765e+003;3.989017e-002
1.735693e+003;3.945848e-002
1.737622e+003;3.877022e-002
1.739550e+003;3.763256e-002
1.741479e+003;3.661692e-002
1.743407e+003;3.549556e-002
1.745336e+003;3.412919e-002
1.747265e+003;3.289683e-002
1.749193e+003;3.152315e-002
1.751122e+003;3.005808e-002
1.753050e+003;2.883041e-002
1.754979e+003;2.746237e-002
1.756907e+003;2.608146e-002
1.758836e+003;2.491457e-002
1.760764e+003;2.396813e-002
1.762693e+003;2.290462e-002
1.764621e+003;2.203033e-002
1.766550e+003;2.107745e-002
1.768479e+003;2.020440e-002
1.770407e+003;1.973590e-002
1.772336e+003;1.932721e-002
1.774264e+003;1.886063e-002
1.776193e+003;1.817569e-002
1.778121e+003;1.747268e-002
1.780050e+003;1.713645e-002
1.781978e+003;1.698320e-002
1.783907e+003;1.669570e-002
1.785835e+003;1.625057e-002
1.787764e+003;1.586542e-002
1.789693e+003;1.542438e-002
1.791621e+003;1.493443e-002
1.793550e+003;1.453821e-002
1.795478e+003;1.429793e-002
1.797407e+003;1.415242e-002
1.799335e+003;1.394065e-002
1.801264e+003;1.375220e-002
1.803192e+003;1.366674e-002
1.805121e+003;1.338788e-002
1.807049e+003;1.316265e-002
1.808978e+003;1.296327e-002
1.810907e+003;1.275774e-002
1.812835e+003;1.261995e-002
1.814764e+003;1.247459e-002
1.816692e+003;1.228030e-002
1.818621e+003;1.199797e-002
1.820549e+003;1.184182e-002
1.822478e+003;1.175497e-002
1.824406e+003;1.160895e-002
1.826335e+003;1.162603e-002
1.828264e+003;1.158857e-002
1.830192e+003;1.126214e-002
1.832121e+003;1.102284e-002
1.834049e+003;1.106142e-002
1.835978e+003;1.085512e-002
1.837906e+003;1.050609e-002
1.839835e+003;1.041004e-002
1.841763e+003;1.050636e-002
1.843692e+003;1.027587e-002
1.845620e+003;9.974290e-003
1.847549e+003;1.008961e-002
1.849478e+003;1.022481e-002
1.851406e+003;9.979037e-003
1.853335e+003;9.654458e-003
1.855263e+003;9.410903e-003
1.857192e+003;9.608317e-003
1.859120e+003;9.780777e-003
1.861049e+003;9.517507e-003
1.862977e+003;9.191445e-003
1.864906e+003;8.991683e-003
1.866834e+003;8.950518e-003
1.868763e+003;9.149786e-003
1.870692e+003;9.337738e-003
1.872620e+003;9.331441e-003
1.874549e+003;9.195946e-003
1.876477e+003;9.238083e-003
1.878406e+003;9.280190e-003
1.880334e+003;9.306187e-003
1.882263e+003;9.337399e-003
1.884191e+003;9.243092e-003
1.886120e+003;9.268207e-003
1.888048e+003;9.288347e-003
1.889977e+003;9.097304e-003
1.891906e+003;9.075684e-003
1.893834e+003;9.281408e-003
1.895763e+003;9.397495e-003
1.897691e+003;9.420723e-003
1.899620e+003;9.429492e-003
1.901548e+003;9.218824e-003
1.903477e+003;9.087526e-003
1.905405e+003;9.012149e-003
1.907334e+003;8.835835e-003
1.909262e+003;8.659289e-003
1.911191e+003;8.596254e-003
1.913120e+003;8.645092e-003
1.915048e+003;8.597031e-003
1.916977e+003;8.524037e-003
1.918905e+003;8.586014e-003
1.920834e+003;8.666015e-003
1.922762e+003;8.671626e-003
1.924691e+003;8.695052e-003
1.926619e+003;8.687920e-003
1.928548e+003;8.603486e-003
1.930477e+003;8.444636e-003
1.932405e+003;8.449738e-003
1.934334e+003;8.602371e-003
1.936262e+003;8.613287e-003
1.938191e+003;8.562054e-003
1.940119e+003;8.339983e-003
1.942048e+003;8.105841e-003
1.943976e+003;7.929929e-003
1.945905e+003;8.000157e-003
1.947833e+003;8.096220e-003
1.949762e+003;8.192878e-003
1.951691e+003;8.240591e-003
1.953619e+003;8.085856e-003
1.955548e+003;8.226780e-003
1.957476e+003;8.368053e-003
1.959405e+003;8.229515e-003
1.961333e+003;8.235627e-003
1.963262e+003;8.214691e-003
1.965190e+003;8.287296e-003
1.967119e+003;8.308168e-003
1.969047e+003;8.199125e-003
1.970976e+003;8.123632e-003
1.972905e+003;8.195275e-003
1.974833e+003;8.141930e-003
1.976762e+003;8.014028e-003
1.978690e+003;7.937959e-003
1.980619e+003;8.049502e-003
1.982547e+003;8.197132e-003
1.984476e+003;8.136157e-003
1.986404e+003;8.061789e-003
1.988333e+003;8.229954e-003
1.990261e+003;8.336708e-003
1.992190e+003;8.278177e-003
1.994119e+003;8.188692e-003
1.996047e+003;8.257409e-003
1.997976e+003;8.282399e-003
1.999904e+003;8.074582e-003
2.001833e+003;8.003025e-003
2.003761e+003;8.342686e-003
2.005690e+003;8.542081e-003
2.007618e+003;8.517144e-003
2.009547e+003;8.469671e-003
2.011476e+003;8.395212e-003
2.013404e+003;8.502344e-003
2.015333e+003;8.659053e-003
2.017261e+003;8.725781e-003
2.019190e+003;8.734842e-003
2.021118e+003;8.663447e-003
2.023047e+003;8.720170e-003
2.024975e+003;8.922242e-003
2.026904e+003;9.014957e-003
2.028833e+003;8.971286e-003
2.030761e+003;9.183492e-003
2.032690e+003;9.244006e-003
2.034618e+003;9.125558e-003
2.036547e+003;9.136251e-003
2.038475e+003;9.359946e-003
2.040404e+003;9.682206e-003
2.042332e+003;9.581793e-003
2.044261e+003;9.500268e-003
2.046189e+003;9.459731e-003
2.048118e+003;9.524247e-003
2.050047e+003;9.613059e-003
2.051975e+003;9.455092e-003
2.053904e+003;9.109654e-003
2.055832e+003;8.981400e-003
2.057761e+003;9.252535e-003
2.059689e+003;9.392450e-003
2.061618e+003;9.279580e-003
2.063546e+003;9.293729e-003
2.065475e+003;9.416659e-003
2.067404e+003;9.464947e-003
2.069332e+003;9.448421e-003
2.071260e+003;9.487026e-003
2.073189e+003;9.608046e-003
2.075118e+003;9.672143e-003
2.077046e+003;9.641143e-003
2.078975e+003;9.442495e-003
2.080903e+003;9.211887e-003
2.082832e+003;9.051696e-003
2.084760e+003;9.089387e-003
2.086689e+003;9.278971e-003
2.088617e+003;9.230501e-003
2.090546e+003;8.868502e-003
2.092475e+003;8.752083e-003
2.094403e+003;8.822851e-003
2.096332e+003;8.804693e-003
2.098260e+003;8.925759e-003
2.100189e+003;8.983497e-003
2.102117e+003;9.058226e-003
2.104046e+003;9.032650e-003
2.105974e+003;8.793738e-003
2.107903e+003;8.815986e-003
2.109832e+003;8.916560e-003
2.111760e+003;8.937394e-003
2.113688e+003;9.026290e-003
2.115617e+003;9.095240e-003
2.117546e+003;9.156419e-003
2.119474e+003;9.255886e-003
2.121403e+003;9.209280e-003
2.123331e+003;9.044288e-003
2.125260e+003;9.156588e-003
2.127188e+003;9.403014e-003
2.129117e+003;9.415169e-003
2.131045e+003;9.229960e-003
2.132974e+003;9.224882e-003
2.134903e+003;9.331475e-003
2.136831e+003;9.235679e-003
2.138760e+003;8.967464e-003
2.140688e+003;8.966956e-003
2.142617e+003;9.009510e-003
2.144545e+003;9.039856e-003
2.146474e+003;9.189482e-003
2.148402e+003;9.015363e-003
2.150331e+003;8.930494e-003
2.152260e+003;9.128874e-003
2.154188e+003;9.270712e-003
2.156117e+003;9.409346e-003
2.158045e+003;9.455431e-003
2.159974e+003;9.472667e-003
2.161902e+003;9.523841e-003
2.163831e+003;9.544297e-003
2.165759e+003;9.615194e-003
2.167688e+003;9.712123e-003
2.169616e+003;9.651307e-003
2.171545e+003;9.661098e-003
2.173474e+003;9.847441e-003
2.175402e+003;1.004153e-002
2.177331e+003;1.001148e-002
2.179259e+003;9.829748e-003
2.181188e+003;9.966662e-003
2.183116e+003;1.028849e-002
2.185045e+003;1.033372e-002
2.186973e+003;9.837747e-003
2.188902e+003;9.552630e-003
2.190831e+003;9.832290e-003
2.192759e+003;9.974765e-003
2.194688e+003;9.936082e-003
2.196616e+003;9.956830e-003
2.198545e+003;9.991208e-003
2.200473e+003;9.940692e-003
2.202402e+003;9.841069e-003
2.204330e+003;9.944896e-003
2.206259e+003;9.819818e-003
2.208188e+003;9.707515e-003
2.210116e+003;9.790740e-003
2.212044e+003;9.585045e-003
2.213973e+003;9.423126e-003
2.215902e+003;9.613805e-003
2.217830e+003;9.707075e-003
2.219759e+003;9.387303e-003
2.221687e+003;9.251994e-003
2.223616e+003;9.254329e-003
2.225544e+003;9.155370e-003
2.227473e+003;8.816967e-003
2.229401e+003;8.585372e-003
2.231330e+003;8.820890e-003
2.233259e+003;9.003929e-003
2.235187e+003;8.814329e-003
2.237116e+003;8.702219e-003
2.239044e+003;8.713273e-003
2.240973e+003;8.682071e-003
2.242901e+003;8.891803e-003
2.244830e+003;9.031229e-003
2.246758e+003;8.802563e-003
2.248687e+003;8.853893e-003
2.250615e+003;8.897552e-003
2.252544e+003;8.804659e-003
2.254473e+003;8.833502e-003
2.256401e+003;8.935398e-003
2.258330e+003;9.155911e-003
2.260258e+003;9.130498e-003
2.262187e+003;9.067666e-003
2.264115e+003;9.045167e-003
2.266044e+003;9.037048e-003
2.267972e+003;9.173948e-003
2.269901e+003;9.346472e-003
2.271830e+003;9.465590e-003
2.273758e+003;9.423702e-003
2.275687e+003;9.415169e-003
2.277615e+003;9.552291e-003
2.279544e+003;9.540910e-003
2.281472e+003;9.489499e-003
2.283401e+003;9.757834e-003
2.285329e+003;9.899097e-003
2.287258e+003;9.747329e-003
2.289187e+003;9.745127e-003
2.291115e+003;9.908827e-003
2.293043e+003;9.871743e-003
2.294972e+003;9.715884e-003
2.296901e+003;9.879743e-003
2.298829e+003;1.008293e-002
2.300758e+003;1.012699e-002
2.302686e+003;1.012119e-002
2.304615e+003;1.014143e-002
2.306543e+003;9.770338e-003
2.308472e+003;9.469653e-003
2.310400e+003;9.553476e-003
2.312329e+003;9.629116e-003
2.314258e+003;9.459833e-003
2.316186e+003;9.330798e-003
2.318115e+003;9.300500e-003
2.320043e+003;9.157908e-003
2.321972e+003;8.907732e-003
2.323900e+003;8.740284e-003
2.325829e+003;8.467948e-003
2.327757e+003;8.082548e-003
2.329686e+003;7.723663e-003
2.331615e+003;7.720560e-003
2.333543e+003;7.830697e-003
2.335472e+003;7.639518e-003
2.337400e+003;7.550602e-003
2.339329e+003;7.608562e-003
2.341257e+003;7.825501e-003
2.343186e+003;8.069823e-003
2.345114e+003;8.535762e-003
2.347043e+003;9.217030e-003
2.348971e+003;9.408363e-003
2.350900e+003;9.003692e-003
2.352829e+003;8.565669e-003
2.354757e+003;8.007851e-003
2.356686e+003;7.222004e-003
2.358614e+003;6.977957e-003
2.360543e+003;6.943413e-003
2.362471e+003;6.944995e-003
2.364400e+003;7.220623e-003
2.366328e+003;7.459817e-003
2.368257e+003;7.995026e-003
2.370186e+003;8.364911e-003
2.372114e+003;8.788531e-003
2.374042e+003;9.388962e-003
2.375971e+003;9.742585e-003
2.377900e+003;1.002539e-002
2.379828e+003;1.021996e-002
2.381757e+003;1.028221e-002
2.383685e+003;1.017342e-002
2.385614e+003;1.016986e-002
2.387542e+003;1.022084e-002
2.389471e+003;1.035004e-002
2.391399e+003;1.050168e-002
2.393328e+003;1.066607e-002
2.395257e+003;1.059779e-002
2.397185e+003;1.057687e-002
2.399114e+003;1.087218e-002
2.401042e+003;1.090904e-002
2.402971e+003;1.084500e-002
2.404899e+003;1.108151e-002
2.406828e+003;1.119978e-002
2.408756e+003;1.105255e-002
2.410685e+003;1.082971e-002
2.412614e+003;1.083267e-002
2.414542e+003;1.112988e-002
2.416471e+003;1.128788e-002
2.418399e+003;1.132508e-002
2.420328e+003;1.117071e-002
2.422256e+003;1.102349e-002
2.424185e+003;1.124731e-002
2.426113e+003;1.158785e-002
2.428042e+003;1.190720e-002
2.429970e+003;1.191442e-002
2.431899e+003;1.167232e-002
2.433828e+003;1.166443e-002
2.435756e+003;1.180696e-002
2.437685e+003;1.194136e-002
2.439613e+003;1.224220e-002
2.441542e+003;1.265403e-002
2.443470e+003;1.276542e-002
2.445399e+003;1.267815e-002
2.447327e+003;1.273362e-002
2.449256e+003;1.280838e-002
2.451185e+003;1.281343e-002
2.453113e+003;1.289019e-002
2.455042e+003;1.314383e-002
2.456970e+003;1.323144e-002
2.458899e+003;1.315387e-002
2.460827e+003;1.343874e-002
2.462756e+003;1.372973e-002
2.464684e+003;1.374314e-002
2.466613e+003;1.367875e-002
2.468542e+003;1.361101e-002
2.470470e+003;1.374095e-002
2.472398e+003;1.399003e-002
2.474327e+003;1.422384e-002
2.476256e+003;1.430238e-002
2.478184e+003;1.425790e-002
2.480113e+003;1.445106e-002
2.482041e+003;1.455805e-002
2.483970e+003;1.446240e-002
2.485898e+003;1.453897e-002
2.487827e+003;1.466898e-002
2.489755e+003;1.469622e-002
2.491684e+003;1.476200e-002
2.493613e+003;1.481267e-002
2.495541e+003;1.467412e-002
2.497470e+003;1.457323e-002
2.499398e+003;1.469701e-002
2.501327e+003;1.493892e-002
2.503255e+003;1.514758e-002
2.505184e+003;1.507420e-002
2.507112e+003;1.513242e-002
2.509041e+003;1.521634e-002
2.510969e+003;1.520505e-002
2.512898e+003;1.533399e-002
2.514827e+003;1.569596e-002
2.516755e+003;1.583206e-002
2.518684e+003;1.577766e-002
2.520612e+003;1.595341e-002
2.522541e+003;1.634569e-002
2.524469e+003;1.671870e-002
2.526398e+003;1.686438e-002
2.528326e+003;1.697690e-002
2.530255e+003;1.701911e-002
2.532184e+003;1.705718e-002
2.534112e+003;1.725090e-002
2.536041e+003;1.748496e-002
2.537969e+003;1.767265e-002
2.539898e+003;1.786868e-002
2.541826e+003;1.799692e-002
2.543755e+003;1.798971e-002
2.545683e+003;1.806244e-002
2.547612e+003;1.822852e-002
2.549541e+003;1.840174e-002
2.551469e+003;1.848485e-002
2.553397e+003;1.849861e-002
2.555326e+003;1.839596e-002
2.557255e+003;1.845764e-002
2.559183e+003;1.858606e-002
2.561112e+003;1.845224e-002
2.563040e+003;1.848184e-002
2.564969e+003;1.873258e-002
2.566897e+003;1.902645e-002
2.568826e+003;1.935482e-002
2.570754e+003;1.954482e-002
2.572683e+003;1.947557e-002
2.574612e+003;1.960811e-002
2.576540e+003;1.979444e-002
2.578469e+003;1.992974e-002
2.580397e+003;1.994077e-002
2.582326e+003;1.999285e-002
2.584254e+003;2.039372e-002
2.586183e+003;2.082438e-002
2.588111e+003;2.084784e-002
2.590040e+003;2.073832e-002
2.591969e+003;2.062059e-002
2.593897e+003;2.051664e-002
2.595826e+003;2.082845e-002
2.597754e+003;2.105759e-002
2.599683e+003;2.088953e-002
2.601611e+003;2.098692e-002
2.603540e+003;2.147811e-002
2.605468e+003;2.161958e-002
2.607397e+003;2.152960e-002
2.609325e+003;2.163898e-002
2.611254e+003;2.175783e-002
2.613183e+003;2.188123e-002
2.615111e+003;2.207969e-002
2.617040e+003;2.219217e-002
2.618968e+003;2.244932e-002
2.620897e+003;2.256441e-002
2.622825e+003;2.262364e-002
2.624754e+003;2.259467e-002
2.626682e+003;2.242329e-002
2.628611e+003;2.244374e-002
2.630540e+003;2.273975e-002
2.632468e+003;2.298374e-002
2.634396e+003;2.308918e-002
2.636325e+003;2.297336e-002
2.638254e+003;2.296638e-002
2.640182e+003;2.302563e-002
2.642111e+003;2.326477e-002
2.644039e+003;2.358912e-002
2.645968e+003;2.376611e-002
2.647896e+003;2.409780e-002
2.649825e+003;2.427289e-002
2.651753e+003;2.418527e-002
2.653682e+003;2.434297e-002
2.655611e+003;2.469528e-002
2.657539e+003;2.452058e-002
2.659468e+003;2.416411e-002
2.661396e+003;2.441955e-002
2.663325e+003;2.494443e-002
2.665253e+003;2.518935e-002
2.667182e+003;2.514928e-002
2.669110e+003;2.529340e-002
2.671039e+003;2.549964e-002
2.672968e+003;2.575524e-002
2.674896e+003;2.595305e-002
2.676825e+003;2.605971e-002
2.678753e+003;2.614398e-002
2.680682e+003;2.638299e-002
2.682610e+003;2.676691e-002
2.684539e+003;2.704585e-002
2.686467e+003;2.730709e-002
2.688396e+003;2.754345e-002
2.690324e+003;2.774794e-002
2.692253e+003;2.791062e-002
2.694182e+003;2.802639e-002
2.696110e+003;2.842864e-002
2.698039e+003;2.883536e-002
2.699967e+003;2.935795e-002
2.701896e+003;2.969977e-002
2.703824e+003;2.980274e-002
2.705753e+003;2.990847e-002
2.707681e+003;3.003468e-002
2.709610e+003;3.042603e-002
2.711539e+003;3.096972e-002
2.713467e+003;3.136424e-002
2.715396e+003;3.177169e-002
2.717324e+003;3.239117e-002
2.719253e+003;3.271409e-002
2.721181e+003;3.289808e-002
2.723110e+003;3.329235e-002
2.725038e+003;3.378395e-002
2.726967e+003;3.412525e-002
2.728896e+003;3.434409e-002
2.730824e+003;3.470722e-002
2.732752e+003;3.531912e-002
2.734681e+003;3.573743e-002
2.736610e+003;3.568778e-002
2.738538e+003;3.594009e-002
2.740467e+003;3.665117e-002
2.742395e+003;3.690533e-002
2.744324e+003;3.691212e-002
2.746252e+003;3.715225e-002
2.748181e+003;3.742954e-002
2.750109e+003;3.769901e-002
2.752038e+003;3.771329e-002
2.753967e+003;3.792515e-002
2.755895e+003;3.838869e-002
2.757824e+003;3.865967e-002
2.759752e+003;3.877642e-002
2.761681e+003;3.886584e-002
2.763609e+003;3.901729e-002
2.765538e+003;3.914346e-002
2.767466e+003;3.942114e-002
2.769395e+003;3.990401e-002
2.771323e+003;4.037875e-002
2.773252e+003;4.070308e-002
2.775181e+003;4.095409e-002
2.777109e+003;4.138800e-002
2.779038e+003;4.189057e-002
2.780966e+003;4.240676e-002
2.782895e+003;4.273918e-002
2.784823e+003;4.290143e-002
2.786752e+003;4.335794e-002
2.788680e+003;4.394384e-002
2.790609e+003;4.463863e-002
2.792538e+003;4.507940e-002
2.794466e+003;4.547109e-002
2.796395e+003;4.608211e-002
2.798323e+003;4.704766e-002
2.800252e+003;4.799771e-002
2.802180e+003;4.866807e-002
2.804109e+003;4.916856e-002
2.806037e+003;4.995403e-002
2.807966e+003;5.086777e-002
2.809895e+003;5.189903e-002
2.811823e+003;5.278863e-002
2.813751e+003;5.372085e-002
2.815680e+003;5.497871e-002
2.817609e+003;5.609025e-002
2.819537e+003;5.690726e-002
2.821466e+003;5.778740e-002
2.823394e+003;5.885414e-002
2.825323e+003;5.991296e-002
2.827251e+003;6.093873e-002
2.829180e+003;6.203916e-002
2.831108e+003;6.322505e-002
2.833037e+003;6.488019e-002
2.834966e+003;6.702375e-002
2.836894e+003;6.964669e-002
2.838823e+003;7.276431e-002
2.840751e+003;7.676850e-002
2.842680e+003;8.144043e-002
2.844608e+003;8.638003e-002
2.846537e+003;9.178431e-002
2.848465e+003;9.752288e-002
2.850394e+003;1.029700e-001
2.852323e+003;1.075230e-001
2.854251e+003;1.111646e-001
2.856180e+003;1.138321e-001
2.858108e+003;1.153631e-001
2.860037e+003;1.164002e-001
2.861965e+003;1.170405e-001
2.863894e+003;1.168498e-001
2.865822e+003;1.161901e-001
2.867751e+003;1.150476e-001
2.869679e+003;1.132040e-001
2.871608e+003;1.112148e-001
2.873536e+003;1.090140e-001
2.875465e+003;1.067059e-001
2.877394e+003;1.046349e-001
2.879322e+003;1.026518e-001
2.881251e+003;1.008056e-001
2.883179e+003;9.913935e-002
2.885108e+003;9.788230e-002
2.887036e+003;9.770343e-002
2.888965e+003;9.852623e-002
2.890893e+003;1.000531e-001
2.892822e+003;1.018735e-001
2.894750e+003;1.037378e-001
2.896679e+003;1.056370e-001
2.898608e+003;1.078582e-001
2.900536e+003;1.099575e-001
2.902465e+003;1.117649e-001
2.904393e+003;1.133247e-001
2.906322e+003;1.145987e-001
2.908250e+003;1.163812e-001
2.910179e+003;1.188276e-001
2.912107e+003;1.211302e-001
2.914036e+003;1.241181e-001
2.915965e+003;1.275284e-001
2.917893e+003;1.309129e-001
2.919822e+003;1.346166e-001
2.921750e+003;1.377063e-001
2.923679e+003;1.404355e-001
2.925607e+003;1.431541e-001
2.927536e+003;1.457297e-001
2.929464e+003;1.478526e-001
2.931393e+003;1.492738e-001
2.933322e+003;1.501701e-001
2.935250e+003;1.503953e-001
2.937178e+003;1.497304e-001
2.939107e+003;1.482047e-001
2.941036e+003;1.456554e-001
2.942964e+003;1.426344e-001
2.944893e+003;1.388445e-001
2.946821e+003;1.346657e-001
2.948750e+003;1.298277e-001
2.950678e+003;1.239388e-001
2.952607e+003;1.177841e-001
2.954535e+003;1.119726e-001
2.956464e+003;1.060142e-001
2.958393e+003;1.006588e-001
2.960321e+003;9.568661e-002
2.962250e+003;9.124042e-002
2.964178e+003;8.738677e-002
2.966107e+003;8.364687e-002
2.968035e+003;8.001450e-002
2.969964e+003;7.658116e-002
2.971892e+003;7.356875e-002
2.973821e+003;7.079634e-002
2.975750e+003;6.799114e-002
2.977678e+003;6.565446e-002
2.979607e+003;6.337428e-002
2.981535e+003;6.071374e-002
2.983464e+003;5.840683e-002
2.985392e+003;5.688305e-002
2.987321e+003;5.551808e-002
2.989249e+003;5.404881e-002
2.991178e+003;5.290943e-002
2.993106e+003;5.182716e-002
2.995035e+003;5.065542e-002
2.996964e+003;4.975820e-002
2.998892e+003;4.906123e-002
3.000821e+003;4.849443e-002
3.002749e+003;4.844912e-002
3.004678e+003;4.857050e-002
3.006606e+003;4.832652e-002
3.008535e+003;4.790676e-002
3.010463e+003;4.789433e-002
3.012392e+003;4.785104e-002
3.014321e+003;4.776922e-002
3.016249e+003;4.837848e-002
3.018177e+003;4.926672e-002
3.020106e+003;4.986017e-002
3.022035e+003;5.008701e-002
3.023963e+003;5.022666e-002
3.025892e+003;5.047937e-002
3.027820e+003;5.127236e-002
3.029749e+003;5.197842e-002
3.031677e+003;5.260888e-002
3.033606e+003;5.335886e-002
3.035534e+003;5.421955e-002
3.037463e+003;5.526965e-002
3.039392e+003;5.629732e-002
3.041320e+003;5.726799e-002
3.043249e+003;5.815401e-002
3.045177e+003;5.926107e-002
3.047106e+003;6.038676e-002
3.049034e+003;6.140564e-002
3.050963e+003;6.249333e-002
3.052891e+003;6.340220e-002
3.054820e+003;6.426237e-002
3.056749e+003;6.505971e-002
3.058677e+003;6.583086e-002
3.060606e+003;6.695328e-002
3.062534e+003;6.783660e-002
3.064463e+003;6.819750e-002
3.066391e+003;6.840073e-002
3.068320e+003;6.846837e-002
3.070248e+003;6.851275e-002
3.072177e+003;6.870697e-002
3.074105e+003;6.890535e-002
3.076034e+003;6.903110e-002
3.077963e+003;6.903254e-002
3.079891e+003;6.866676e-002
3.081820e+003;6.819241e-002
3.083748e+003;6.785143e-002
3.085677e+003;6.766523e-002
3.087605e+003;6.735446e-002
3.089534e+003;6.672662e-002
3.091462e+003;6.604903e-002
3.093391e+003;6.520379e-002
3.095320e+003;6.407324e-002
3.097248e+003;6.324272e-002
3.099177e+003;6.250079e-002
3.101105e+003;6.168839e-002
3.103034e+003;6.104660e-002
3.104962e+003;6.019909e-002
3.106891e+003;5.905581e-002
3.108819e+003;5.834513e-002
3.110748e+003;5.783259e-002
3.112677e+003;5.689302e-002
3.114605e+003;5.603060e-002
3.116533e+003;5.541056e-002
3.118462e+003;5.482421e-002
3.120391e+003;5.422071e-002
3.122319e+003;5.382203e-002
3.124248e+003;5.367680e-002
3.126176e+003;5.318715e-002
3.128105e+003;5.246263e-002
3.130033e+003;5.216774e-002
3.131962e+003;5.209392e-002
3.133890e+003;5.189436e-002
3.135819e+003;5.188268e-002
3.137748e+003;5.219972e-002
3.139676e+003;5.214394e-002
3.141605e+003;5.192319e-002
3.143533e+003;5.212107e-002
3.145462e+003;5.242540e-002
3.147390e+003;5.277838e-002
3.149319e+003;5.317651e-002
3.151247e+003;5.382942e-002
3.153176e+003;5.422218e-002
3.155104e+003;5.426730e-002
3.157033e+003;5.477625e-002
3.158962e+003;5.579427e-002
3.160890e+003;5.666966e-002
3.162819e+003;5.727091e-002
3.164747e+003;5.778176e-002
3.166676e+003;5.834854e-002
3.168604e+003;5.921664e-002
3.170533e+003;5.988067e-002
3.172461e+003;6.052801e-002
3.174390e+003;6.155955e-002
3.176319e+003;6.276648e-002
3.178247e+003;6.365905e-002
3.180176e+003;6.441123e-002
3.182104e+003;6.523363e-002
3.184033e+003;6.586359e-002
3.185961e+003;6.630854e-002
3.187890e+003;6.702352e-002
3.189818e+003;6.786212e-002
3.191747e+003;6.844428e-002
3.193676e+003;6.870957e-002
3.195604e+003;6.926516e-002
3.197532e+003;6.988072e-002
3.199461e+003;6.993322e-002
3.201390e+003;7.018353e-002
3.203318e+003;7.079615e-002
3.205247e+003;7.109488e-002
3.207175e+003;7.143814e-002
3.209104e+003;7.208883e-002
3.211032e+003;7.299376e-002
3.212961e+003;7.348229e-002
3.214889e+003;7.388797e-002
3.216818e+003;7.472783e-002
3.218747e+003;7.568376e-002
3.220675e+003;7.651978e-002
3.222604e+003;7.709998e-002
3.224532e+003;7.793144e-002
3.226461e+003;7.893200e-002
3.228389e+003;8.007685e-002
3.230318e+003;8.139019e-002
3.232246e+003;8.258490e-002
3.234175e+003;8.380843e-002
3.236104e+003;8.492319e-002
3.238032e+003;8.631511e-002
3.239961e+003;8.795364e-002
3.241889e+003;8.959073e-002
3.243818e+003;9.116259e-002
3.245746e+003;9.255417e-002
3.247675e+003;9.404313e-002
3.249603e+003;9.604318e-002
3.251532e+003;9.818086e-002
3.253460e+003;1.000133e-001
3.255389e+003;1.017545e-001
3.257318e+003;1.038984e-001
3.259246e+003;1.060364e-001
3.261175e+003;1.080607e-001
3.263103e+003;1.099398e-001
3.265032e+003;1.121995e-001
3.266960e+003;1.147151e-001
3.268889e+003;1.170915e-001
3.270817e+003;1.190341e-001
3.272746e+003;1.211304e-001
3.274675e+003;1.233237e-001
3.276603e+003;1.250631e-001
3.278531e+003;1.268921e-001
3.280460e+003;1.287147e-001
3.282389e+003;1.304397e-001
3.284317e+003;1.318161e-001
3.286246e+003;1.327663e-001
3.288174e+003;1.335297e-001
3.290103e+003;1.344073e-001
3.292031e+003;1.348984e-001
3.293960e+003;1.344354e-001
3.295888e+003;1.331935e-001
3.297817e+003;1.318620e-001
3.299746e+003;1.301896e-001
3.301674e+003;1.279253e-001
3.303603e+003;1.254351e-001
3.305531e+003;1.224818e-001
3.307460e+003;1.197786e-001
3.309388e+003;1.172458e-001
3.311317e+003;1.142641e-001
3.313245e+003;1.117610e-001
3.315174e+003;1.095688e-001
3.317103e+003;1.070511e-001
3.319031e+003;1.041709e-001
3.320960e+003;1.012405e-001
3.322888e+003;9.856365e-002
3.324817e+003;9.649388e-002
3.326745e+003;9.435982e-002
3.328674e+003;9.175198e-002
3.330602e+003;8.961211e-002
3.332531e+003;8.779779e-002
3.334459e+003;8.576515e-002
3.336388e+003;8.366330e-002
3.338317e+003;8.167962e-002
3.340245e+003;7.990763e-002
3.342174e+003;7.817899e-002
3.344102e+003;7.657147e-002
3.346031e+003;7.530362e-002
3.347959e+003;7.390734e-002
3.349888e+003;7.238082e-002
3.351816e+003;7.047393e-002
3.353745e+003;6.886194e-002
3.355674e+003;6.790501e-002
3.357602e+003;6.693770e-002
3.359531e+003;6.576072e-002
3.361459e+003;6.449698e-002
3.363388e+003;6.366123e-002
3.365316e+003;6.301492e-002
3.367245e+003;6.204073e-002
3.369173e+003;6.078691e-002
3.371102e+003;5.992320e-002
3.373031e+003;5.927588e-002
3.374959e+003;5.821845e-002
3.376887e+003;5.707644e-002
3.378816e+003;5.624523e-002
3.380745e+003;5.574869e-002
3.382673e+003;5.535613e-002
3.384602e+003;5.450506e-002
3.386530e+003;5.359649e-002
3.388459e+003;5.289513e-002
3.390387e+003;5.249348e-002
3.392316e+003;5.199075e-002
3.394244e+003;5.097264e-002
3.396173e+003;5.006853e-002
3.398102e+003;4.983735e-002
3.400030e+003;4.962078e-002
3.401959e+003;4.893534e-002
3.403887e+003;4.823739e-002
3.405816e+003;4.773449e-002
3.407744e+003;4.727359e-002
3.409673e+003;4.682513e-002
3.411601e+003;4.640092e-002
3.413530e+003;4.581614e-002
3.415458e+003;4.538864e-002
3.417387e+003;4.493437e-002
3.419316e+003;4.464073e-002
3.421244e+003;4.434526e-002
3.423173e+003;4.356998e-002
3.425101e+003;4.305935e-002
3.427030e+003;4.307655e-002
3.428958e+003;4.286329e-002
3.430887e+003;4.244212e-002
3.432815e+003;4.241509e-002
3.434744e+003;4.247848e-002
3.436673e+003;4.178826e-002
3.438601e+003;4.146053e-002
3.440530e+003;4.178326e-002
3.442458e+003;4.131912e-002
3.444387e+003;4.064719e-002
3.446315e+003;4.023561e-002
3.448244e+003;3.959813e-002
3.450172e+003;3.940504e-002
3.452101e+003;3.873819e-002
3.454030e+003;3.769428e-002
3.455958e+003;3.701804e-002
3.457886e+003;3.666541e-002
3.459815e+003;3.624848e-002
3.461744e+003;3.546740e-002
3.463672e+003;3.447769e-002
3.465601e+003;3.369259e-002
3.467529e+003;3.335975e-002
3.469458e+003;3.321533e-002
3.471386e+003;3.277544e-002
3.473315e+003;3.208694e-002
3.475243e+003;3.161251e-002
3.477172e+003;3.174128e-002
3.479101e+003;3.157289e-002
3.481029e+003;3.084886e-002
3.482958e+003;3.054407e-002
3.484886e+003;3.053515e-002
3.486815e+003;3.034089e-002
3.488743e+003;3.009135e-002
3.490672e+003;2.991731e-002
3.492600e+003;2.965588e-002
3.494529e+003;2.970303e-002
3.496458e+003;2.927604e-002
3.498386e+003;2.895658e-002
3.500315e+003;2.892131e-002
3.502243e+003;2.867814e-002
3.504172e+003;2.811691e-002
3.506100e+003;2.768289e-002
3.508029e+003;2.759955e-002
3.509957e+003;2.747603e-002
3.511886e+003;2.700477e-002
3.513814e+003;2.618555e-002
3.515743e+003;2.572708e-002
3.517672e+003;2.614659e-002
3.519600e+003;2.632684e-002
3.521529e+003;2.572940e-002
3.523457e+003;2.460133e-002
3.525386e+003;2.375249e-002
3.527314e+003;2.348457e-002
3.529243e+003;2.330064e-002
3.531171e+003;2.295439e-002
3.533100e+003;2.258486e-002
3.535029e+003;2.232080e-002
3.536957e+003;2.194041e-002
3.538885e+003;2.170909e-002
3.540814e+003;2.133564e-002
3.542743e+003;2.088000e-002
3.544671e+003;2.052255e-002
3.546600e+003;2.010874e-002
3.548528e+003;1.962946e-002
3.550457e+003;1.899412e-002
3.552385e+003;1.860415e-002
3.554314e+003;1.849688e-002
3.556242e+003;1.817541e-002
3.558171e+003;1.740579e-002
3.560100e+003;1.671402e-002
3.562028e+003;1.642025e-002
3.563957e+003;1.619059e-002
3.565885e+003;1.569156e-002
3.567814e+003;1.559975e-002
3.569742e+003;1.523762e-002
3.571671e+003;1.453462e-002
3.573599e+003;1.405399e-002
3.575528e+003;1.382793e-002
3.577457e+003;1.352770e-002
3.579385e+003;1.321501e-002
3.581314e+003;1.293508e-002
3.583242e+003;1.218624e-002
3.585171e+003;1.118964e-002
3.587099e+003;1.059660e-002
3.589028e+003;1.084918e-002
3.590956e+003;1.118618e-002
3.592885e+003;1.084840e-002
3.594813e+003;1.026932e-002
3.596742e+003;1.002722e-002
3.598671e+003;9.999922e-003
3.600599e+003;9.338720e-003
3.602528e+003;8.554551e-003
3.604456e+003;8.478658e-003
3.606385e+003;8.720913e-003
3.608313e+003;8.179812e-003
3.610242e+003;7.640496e-003
3.612170e+003;7.643126e-003
3.614099e+003;7.539510e-003
3.616028e+003;7.162108e-003
3.617956e+003;7.095518e-003
3.619885e+003;6.665269e-003
3.621813e+003;6.100678e-003
3.623742e+003;6.372004e-003
3.625670e+003;6.288760e-003
3.627599e+003;5.419580e-003
3.629527e+003;5.455279e-003
3.631456e+003;5.517323e-003
3.633385e+003;4.928785e-003
3.635313e+003;4.433991e-003
3.637241e+003;4.216999e-003
3.639170e+003;4.266017e-003
3.641099e+003;4.170295e-003
3.643027e+003;3.991154e-003
3.644956e+003;3.932337e-003
3.646884e+003;3.569748e-003
3.648813e+003;3.141007e-003
3.650741e+003;3.052106e-003
3.652670e+003;3.474914e-003
3.654598e+003;3.696782e-003
3.656527e+003;3.346075e-003
3.658456e+003;3.027715e-003
3.660384e+003;2.882064e-003
3.662313e+003;2.667347e-003
3.664241e+003;2.489191e-003
3.666170e+003;2.540580e-003
3.668098e+003;2.420881e-003
3.670027e+003;2.301514e-003
3.671955e+003;2.335459e-003
3.673884e+003;2.202761e-003
3.675813e+003;1.778528e-003
3.677741e+003;1.360924e-003
3.679669e+003;1.288637e-003
3.681598e+003;1.521792e-003
3.683527e+003;1.585571e-003
3.685455e+003;1.159615e-003
3.687384e+003;7.060968e-004
3.689312e+003;3.887700e-004
3.691241e+003;2.335584e-004
3.693169e+003;-1.212689e-005
3.695098e+003;-2.572759e-004
3.697026e+003;-2.594614e-004
3.698955e+003;-2.235972e-004
3.700884e+003;-2.786483e-005
3.702812e+003;2.612742e-004
3.704741e+003;6.947135e-004
3.706669e+003;6.300699e-004
3.708598e+003;-1.174443e-004
3.710526e+003;-5.561300e-004
3.712455e+003;-4.150043e-004
3.714383e+003;-4.897100e-004
3.716312e+003;-6.512249e-004
3.718240e+003;-5.685391e-004
3.720169e+003;-7.019734e-004
3.722098e+003;-6.409356e-004
3.724026e+003;-3.273734e-004
3.725955e+003;-3.154209e-004
3.727883e+003;-4.137795e-004
3.729812e+003;-4.652177e-004
3.731740e+003;-4.376789e-004
3.733669e+003;-4.026900e-004
3.735597e+003;-5.559314e-004
3.737526e+003;-5.310127e-004
3.739455e+003;-4.497604e-004
3.741383e+003;-4.125878e-004
3.743312e+003;-6.289916e-004
3.745240e+003;-5.320055e-004
3.747169e+003;-1.543441e-004
3.749097e+003;-1.493757e-004
3.751026e+003;-2.578057e-004
3.752954e+003;-4.911000e-004
3.754883e+003;-6.018602e-004
3.756812e+003;-7.228137e-004
3.758740e+003;-8.326218e-004
3.760668e+003;-4.829582e-004
3.762597e+003;-6.500412e-005
3.764526e+003;2.096897e-004
3.766454e+003;3.081575e-005
3.768383e+003;-4.611466e-004
3.770311e+003;-3.657120e-004
3.772240e+003;-3.134012e-004
3.774168e+003;-6.445087e-004
3.776097e+003;-5.053975e-004
3.778025e+003;-1.196637e-004
3.779954e+003;-2.112775e-004
3.781883e+003;-4.154346e-004
3.783811e+003;-7.993515e-004
3.785740e+003;-5.322372e-004
3.787668e+003;-4.141557e-005
3.789597e+003;5.116197e-005
3.791525e+003;-2.345827e-005
3.793454e+003;-8.796197e-005
3.795382e+003;2.392274e-004
3.797311e+003;2.925727e-004
3.799240e+003;-8.229716e-005
3.801168e+003;-2.585342e-004
3.803097e+003;-1.492432e-004
3.805025e+003;-3.155533e-004
3.806954e+003;-3.669701e-004
3.808882e+003;7.217193e-005
3.810811e+003;4.956366e-004
3.812739e+003;3.890353e-004
3.814668e+003;3.244703e-004
3.816596e+003;4.738764e-004
3.818525e+003;7.562799e-004
3.820454e+003;5.154407e-004
3.822382e+003;1.261596e-004
3.824311e+003;7.368299e-004
3.826239e+003;1.002566e-003
3.828168e+003;4.495965e-004
3.830096e+003;4.291070e-005
3.832025e+003;6.196507e-005
3.833953e+003;2.117118e-004
3.835882e+003;4.159982e-004
3.837811e+003;5.459281e-004
3.839739e+003;6.962401e-004
3.841667e+003;7.346062e-004
3.843596e+003;6.669036e-004
3.845525e+003;6.177262e-004
3.847453e+003;1.162306e-003
3.849382e+003;1.194035e-003
3.851310e+003;2.582241e-004
3.853239e+003;-8.643811e-005
3.855167e+003;7.048356e-004
3.857096e+003;1.322935e-003
3.859024e+003;1.206096e-003
3.860953e+003;9.673646e-004
3.862882e+003;8.167264e-004
3.864810e+003;1.273218e-003
3.866739e+003;1.327089e-003
3.868667e+003;7.052671e-004
3.870596e+003;1.187822e-003
3.872524e+003;1.792136e-003
3.874453e+003;1.826173e-003
3.876381e+003;1.633595e-003
3.878310e+003;1.363749e-003
3.880239e+003;1.441766e-003
3.882167e+003;1.591158e-003
3.884096e+003;1.451407e-003
3.886024e+003;1.617431e-003
3.887953e+003;2.172424e-003
3.889881e+003;2.228039e-003
3.891810e+003;2.008251e-003
3.893738e+003;1.981456e-003
3.895667e+003;1.978893e-003
3.897595e+003;1.442996e-003
3.899524e+003;1.117158e-003
3.901453e+003;1.256403e-003
3.903381e+003;1.744394e-003
3.905310e+003;2.201529e-003
3.907238e+003;2.054257e-003
3.909167e+003;1.610746e-003
3.911095e+003;1.734115e-003
3.913024e+003;2.050828e-003
3.914952e+003;2.582676e-003
3.916881e+003;2.933200e-003
3.918810e+003;2.707421e-003
3.920738e+003;3.058112e-003
3.922667e+003;3.121016e-003
3.924595e+003;2.561378e-003
3.926524e+003;2.377768e-003
3.928452e+003;2.508220e-003
3.930381e+003;2.530782e-003
3.932309e+003;2.695318e-003
3.934238e+003;2.939138e-003
3.936167e+003;2.991214e-003
3.938095e+003;2.914119e-003
3.940023e+003;3.034355e-003
3.941952e+003;3.549336e-003
3.943881e+003;3.690733e-003
3.945809e+003;3.391756e-003
3.947738e+003;3.567476e-003
3.949666e+003;3.927355e-003
3.951595e+003;4.045966e-003
3.953523e+003;4.156948e-003
3.955452e+003;4.021318e-003
3.957380e+003;4.053658e-003
3.959309e+003;4.003259e-003
3.961238e+003;3.492583e-003
3.963166e+003;3.356159e-003
3.965095e+003;4.091084e-003
3.967023e+003;4.516546e-003
3.968952e+003;4.333279e-003
3.970880e+003;4.139218e-003
3.972809e+003;4.275988e-003
3.974737e+003;4.303528e-003
3.976666e+003;4.398376e-003
3.978594e+003;4.765711e-003
3.980523e+003;4.819850e-003
3.982452e+003;4.886092e-003
3.984380e+003;4.706019e-003
3.986309e+003;4.230483e-003
3.988237e+003;4.579360e-003
3.990166e+003;5.226442e-003
3.992094e+003;5.605320e-003
3.994023e+003;5.760953e-003
3.995951e+003;5.720595e-003
3.997880e+003;5.672991e-003
3.999809e+003;5.469707e-003
4.001737e+003;0.000000e+000
