3.992094e+002;0.000000e+000
4.011380e+002;0.000000e+000
4.030665e+002;0.000000e+000
4.049951e+002;0.000000e+000
4.069236e+002;0.000000e+000
4.088522e+002;0.000000e+000
4.107807e+002;0.000000e+000
4.127093e+002;0.000000e+000
4.146378e+002;0.000000e+000
4.165664e+002;0.000000e+000
4.184949e+002;0.000000e+000
4.204235e+002;0.000000e+000
4.223520e+002;0.000000e+000
4.242806e+002;0.000000e+000
4.262091e+002;0.000000e+000
4.281377e+002;0.000000e+000
4.300662e+002;0.000000e+000
4.319948e+002;0.000000e+000
4.339233e+002;0.000000e+000
4.358519e+002;0.000000e+000
4.377804e+002;0.000000e+000
4.397090e+002;0.000000e+000
4.416375e+002;0.000000e+000
4.435660e+002;0.000000e+000
4.454946e+002;0.000000e+000
4.474232e+002;0.000000e+000
4.493517e+002;0.000000e+000
4.512802e+002;0.000000e+000
4.532088e+002;0.000000e+000
4.551373e+002;0.000000e+000
4.570659e+002;0.000000e+000
4.589944e+002;0.000000e+000
4.609230e+002;0.000000e+000
4.628515e+002;0.000000e+000
4.647801e+002;0.000000e+000
4.667086e+002;0.000000e+000
4.686372e+002;0.000000e+000
4.705657e+002;0.000000e+000
4.724943e+002;0.000000e+000
4.744228e+002;0.000000e+000
4.763513e+002;0.000000e+000
4.782799e+002;0.000000e+000
4.802085e+002;0.000000e+000
4.821370e+002;0.000000e+000
4.840656e+002;0.000000e+000
4.859941e+002;0.000000e+000
4.879226e+002;0.000000e+000
4.898512e+002;0.000000e+000
4.917798e+002;0.000000e+000
4.937083e+002;0.000000e+000
4.956368e+002;0.000000e+000
4.975654e+002;0.000000e+000
4.994939e+002;0.000000e+000
5.014225e+002;0.000000e+000
5.033510e+002;0.000000e+000
5.052796e+002;0.000000e+000
5.072081e+002;0.000000e+000
5.091367e+002;0.000000e+000
5.110652e+002;0.000000e+000
5.129938e+002;0.000000e+000
5.149223e+002;0.000000e+000
5.168509e+002;0.000000e+000
5.187794e+002;0.000000e+000
5.207079e+002;0.000000e+000
5.226365e+002;0.000000e+000
5.245651e+002;0.000000e+000
5.264936e+002;0.000000e+000
5.284222e+002;0.000000e+000
5.303507e+002;0.000000e+000
5.322792e+002;0.000000e+000
5.342078e+002;0.000000e+000
5.361364e+002;0.000000e+000
5.380649e+002;0.000000e+000
5.399935e+002;0.000000e+000
5.419220e+002;0.000000e+000
5.438505e+002;0.000000e+000
5.457791e+002;0.000000e+000
5.477076e+002;0.000000e+000
5.496362e+002;0.000000e+000
5.515648e+002;0.000000e+000
5.534933e+002;0.000000e+000
5.554218e+002;0.000000e+000
5.573504e+002;0.000000e+000
5.592789e+002;0.000000e+000
5.612075e+002;0.000000e+000
5.631360e+002;0.000000e+000
5.650646e+002;0.000000e+000
5.669931e+002;0.000000e+000
5.689217e+002;0.000000e+000
5.708502e+002;0.000000e+000
5.727787e+002;0.000000e+000
5.747073e+002;0.000000e+000
5.766359e+002;0.000000e+000
5.785644e+002;0.000000e+000
5.804930e+002;0.000000e+000
5.824215e+002;0.000000e+000
5.843500e+002;0.000000e+000
5.862786e+002;0.000000e+000
5.882072e+002;0.000000e+000
5.901357e+002;0.000000e+000
5.920643e+002;0.000000e+000
5.939928e+002;0.000000e+000
5.959213e+002;0.000000e+000
5.978499e+002;0.000000e+000
5.997784e+002;1.108421e-001
6.017070e+002;1.137954e-001
6.036355e+002;1.107733e-001
6.055641e+002;1.060099e-001
6.074926e+002;1.058685e-001
6.094211e+002;1.115226e-001
6.113497e+002;1.116681e-001
6.132783e+002;1.071455e-001
6.152068e+002;1.072892e-001
6.171354e+002;1.079544e-001
6.190639e+002;1.076347e-001
6.209924e+002;1.103356e-001
6.229210e+002;1.134751e-001
6.248495e+002;1.140533e-001
6.267781e+002;1.136139e-001
6.287067e+002;1.122996e-001
6.306352e+002;1.111236e-001
6.325637e+002;1.116494e-001
6.344923e+002;1.110602e-001
6.364208e+002;1.134404e-001
6.383494e+002;1.150124e-001
6.402780e+002;1.124018e-001
6.422065e+002;1.122848e-001
6.441350e+002;1.146072e-001
6.460636e+002;1.162132e-001
6.479921e+002;1.202944e-001
6.499207e+002;1.219446e-001
6.518492e+002;1.217778e-001
6.537778e+002;1.233984e-001
6.557063e+002;1.280862e-001
6.576349e+002;1.319328e-001
6.595634e+002;1.311221e-001
6.614919e+002;1.312974e-001
6.634205e+002;1.339091e-001
6.653491e+002;1.345115e-001
6.672776e+002;1.359236e-001
6.692062e+002;1.374305e-001
6.711347e+002;1.376807e-001
6.730632e+002;1.394962e-001
6.749918e+002;1.409920e-001
6.769203e+002;1.432168e-001
6.788489e+002;1.456113e-001
6.807775e+002;1.460059e-001
6.827060e+002;1.473036e-001
6.846345e+002;1.485929e-001
6.865631e+002;1.474737e-001
6.884916e+002;1.458301e-001
6.904202e+002;1.449078e-001
6.923488e+002;1.425397e-001
6.942773e+002;1.400512e-001
6.962058e+002;1.386958e-001
6.981344e+002;1.363011e-001
7.000629e+002;1.341216e-001
7.019915e+002;1.326624e-001
7.039200e+002;1.311638e-001
7.058486e+002;1.284911e-001
7.077771e+002;1.271548e-001
7.097057e+002;1.270099e-001
7.116342e+002;1.248279e-001
7.135627e+002;1.217400e-001
7.154913e+002;1.202074e-001
7.174199e+002;1.194632e-001
7.193484e+002;1.186824e-001
7.212770e+002;1.185796e-001
7.232055e+002;1.192185e-001
7.251340e+002;1.207309e-001
7.270626e+002;1.208490e-001
7.289911e+002;1.198517e-001
7.309197e+002;1.168462e-001
7.328483e+002;1.110938e-001
7.347768e+002;1.044341e-001
7.367053e+002;1.002234e-001
7.386339e+002;9.646790e-002
7.405624e+002;9.310604e-002
7.424910e+002;9.136607e-002
7.444196e+002;8.997616e-002
7.463481e+002;8.729942e-002
7.482766e+002;8.480633e-002
7.502052e+002;8.415216e-002
7.521337e+002;8.325955e-002
7.540623e+002;8.207615e-002
7.559908e+002;8.086953e-002
7.579194e+002;7.870123e-002
7.598479e+002;7.756910e-002
7.617765e+002;7.621039e-002
7.637050e+002;7.425456e-002
7.656335e+002;7.321008e-002
7.675621e+002;7.283895e-002
7.694907e+002;7.274073e-002
7.714192e+002;7.274308e-002
7.733478e+002;7.231491e-002
7.752763e+002;7.099685e-002
7.772048e+002;6.944917e-002
7.791334e+002;6.863303e-002
7.810620e+002;6.812222e-002
7.829905e+002;6.708740e-002
7.849191e+002;6.546441e-002
7.868476e+002;6.440904e-002
7.887761e+002;6.393386e-002
7.907047e+002;6.301025e-002
7.926332e+002;6.224110e-002
7.945618e+002;6.067632e-002
7.964903e+002;5.919545e-002
7.984189e+002;5.875250e-002
8.003474e+002;5.821550e-002
8.022759e+002;5.675068e-002
8.042045e+002;5.598036e-002
8.061331e+002;5.539652e-002
8.080616e+002;5.447444e-002
8.099902e+002;5.412665e-002
8.119187e+002;5.411088e-002
8.138472e+002;5.302573e-002
8.157758e+002;5.270722e-002
8.177043e+002;5.282253e-002
8.196329e+002;5.270273e-002
8.215615e+002;5.256931e-002
8.234900e+002;5.285453e-002
8.254185e+002;5.339629e-002
8.273471e+002;5.376379e-002
8.292756e+002;5.472295e-002
8.312042e+002;5.609741e-002
8.331328e+002;5.654261e-002
8.350613e+002;5.550167e-002
8.369898e+002;5.341281e-002
8.389184e+002;5.113849e-002
8.408469e+002;5.012996e-002
8.427755e+002;4.974059e-002
8.447040e+002;4.902677e-002
8.466326e+002;4.808538e-002
8.485611e+002;4.696905e-002
8.504897e+002;4.587322e-002
8.524182e+002;4.555925e-002
8.543467e+002;4.585208e-002
8.562753e+002;4.620308e-002
8.582039e+002;4.626149e-002
8.601324e+002;4.621620e-002
8.620610e+002;4.649155e-002
8.639895e+002;4.635369e-002
8.659180e+002;4.606774e-002
8.678466e+002;4.648443e-002
8.697751e+002;4.628317e-002
8.717037e+002;4.560127e-002
8.736323e+002;4.566023e-002
8.755608e+002;4.612323e-002
8.774893e+002;4.612565e-002
8.794179e+002;4.596389e-002
8.813464e+002;4.609349e-002
8.832750e+002;4.638042e-002
8.852036e+002;4.673298e-002
8.871321e+002;4.688913e-002
8.890606e+002;4.679380e-002
8.909892e+002;4.670608e-002
8.929177e+002;4.673143e-002
8.948463e+002;4.740010e-002
8.967748e+002;4.827438e-002
8.987034e+002;4.832352e-002
9.006319e+002;4.811970e-002
9.025605e+002;4.791934e-002
9.044890e+002;4.823528e-002
9.064175e+002;4.908505e-002
9.083461e+002;4.973673e-002
9.102747e+002;4.986374e-002
9.122032e+002;4.994633e-002
9.141318e+002;5.053804e-002
9.160603e+002;5.135041e-002
9.179888e+002;5.174447e-002
9.199174e+002;5.203501e-002
9.218459e+002;5.290744e-002
9.237745e+002;5.414538e-002
9.257031e+002;5.578180e-002
9.276316e+002;5.691750e-002
9.295601e+002;5.651932e-002
9.314887e+002;5.509658e-002
9.334172e+002;5.354495e-002
9.353458e+002;5.228653e-002
9.372744e+002;5.148718e-002
9.392029e+002;5.107822e-002
9.411314e+002;5.131356e-002
9.430600e+002;5.195482e-002
9.449885e+002;5.285939e-002
9.469171e+002;5.432385e-002
9.488456e+002;5.567399e-002
9.507742e+002;5.646392e-002
9.527027e+002;5.690855e-002
9.546313e+002;5.754647e-002
9.565598e+002;5.833740e-002
9.584883e+002;5.908060e-002
9.604169e+002;5.924987e-002
9.623455e+002;5.867228e-002
9.642740e+002;5.761571e-002
9.662026e+002;5.711816e-002
9.681311e+002;5.740589e-002
9.700596e+002;5.761752e-002
9.719882e+002;5.770879e-002
9.739167e+002;5.764147e-002
9.758453e+002;5.727661e-002
9.777739e+002;5.635405e-002
9.797024e+002;5.533660e-002
9.816309e+002;5.410101e-002
9.835595e+002;5.317753e-002
9.854880e+002;5.281397e-002
9.874166e+002;5.207034e-002
9.893452e+002;5.124417e-002
9.912737e+002;5.077868e-002
9.932022e+002;5.015700e-002
9.951307e+002;4.980670e-002
9.970593e+002;4.970374e-002
9.989879e+002;4.957882e-002
1.000916e+003;4.939241e-002
1.002845e+003;4.933724e-002
1.004773e+003;4.944501e-002
1.006702e+003;4.917899e-002
1.008631e+003;4.891116e-002
1.010559e+003;4.916530e-002
1.012488e+003;4.929162e-002
1.014416e+003;4.890211e-002
1.016345e+003;4.855638e-002
1.018273e+003;4.897324e-002
1.020202e+003;4.987835e-002
1.022130e+003;5.086743e-002
1.024059e+003;5.191569e-002
1.025988e+003;5.282294e-002
1.027916e+003;5.297714e-002
1.029845e+003;5.293772e-002
1.031773e+003;5.233123e-002
1.033702e+003;5.157638e-002
1.035630e+003;5.090506e-002
1.037559e+003;5.033071e-002
1.039487e+003;4.963631e-002
1.041416e+003;4.880130e-002
1.043344e+003;4.836003e-002
1.045273e+003;4.838841e-002
1.047202e+003;4.852547e-002
1.049130e+003;4.905852e-002
1.051059e+003;4.979012e-002
1.052987e+003;5.046851e-002
1.054916e+003;5.097391e-002
1.056844e+003;5.167255e-002
1.058773e+003;5.296490e-002
1.060701e+003;5.373675e-002
1.062630e+003;5.432509e-002
1.064558e+003;5.556865e-002
1.066487e+003;5.680340e-002
1.068416e+003;5.777661e-002
1.070344e+003;5.827552e-002
1.072273e+003;5.859222e-002
1.074201e+003;5.882507e-002
1.076130e+003;5.837640e-002
1.078058e+003;5.783543e-002
1.079987e+003;5.745006e-002
1.081915e+003;5.723858e-002
1.083844e+003;5.700201e-002
1.085773e+003;5.638299e-002
1.087701e+003;5.592706e-002
1.089630e+003;5.561787e-002
1.091558e+003;5.525870e-002
1.093487e+003;5.533727e-002
1.095415e+003;5.544546e-002
1.097344e+003;5.546955e-002
1.099272e+003;5.617769e-002
1.101201e+003;5.735011e-002
1.103129e+003;5.938935e-002
1.105058e+003;6.135133e-002
1.106987e+003;6.265528e-002
1.108915e+003;6.354723e-002
1.110844e+003;6.429061e-002
1.112772e+003;6.458628e-002
1.114701e+003;6.498592e-002
1.116629e+003;6.560979e-002
1.118558e+003;6.597547e-002
1.120486e+003;6.587331e-002
1.122415e+003;6.500721e-002
1.124344e+003;6.308737e-002
1.126272e+003;6.062347e-002
1.128201e+003;5.816894e-002
1.130129e+003;5.596928e-002
1.132058e+003;5.456040e-002
1.133986e+003;5.385665e-002
1.135915e+003;5.364189e-002
1.137843e+003;5.398255e-002
1.139772e+003;5.436350e-002
1.141700e+003;5.535018e-002
1.143629e+003;5.701410e-002
1.145557e+003;5.886225e-002
1.147486e+003;6.039796e-002
1.149415e+003;6.209784e-002
1.151343e+003;6.394358e-002
1.153272e+003;6.595005e-002
1.155200e+003;6.831858e-002
1.157129e+003;7.108583e-002
1.159057e+003;7.497261e-002
1.160986e+003;7.976201e-002
1.162914e+003;8.482623e-002
1.164843e+003;8.987826e-002
1.166771e+003;9.408909e-002
1.168700e+003;9.595023e-002
1.170629e+003;9.493805e-002
1.172557e+003;9.167381e-002
1.174486e+003;8.716872e-002
1.176414e+003;8.248473e-002
1.178343e+003;7.876669e-002
1.180271e+003;7.644063e-002
1.182200e+003;7.519495e-002
1.184128e+003;7.527411e-002
1.186057e+003;7.657116e-002
1.187986e+003;7.855342e-002
1.189914e+003;8.103138e-002
1.191843e+003;8.380225e-002
1.193771e+003;8.724073e-002
1.195700e+003;9.095202e-002
1.197628e+003;9.414827e-002
1.199557e+003;9.582280e-002
1.201485e+003;9.444901e-002
1.203414e+003;9.124909e-002
1.205343e+003;8.907443e-002
1.207271e+003;8.828772e-002
1.209200e+003;8.803342e-002
1.211128e+003;8.831570e-002
1.213057e+003;8.825637e-002
1.214985e+003;8.698419e-002
1.216914e+003;8.487235e-002
1.218842e+003;8.236352e-002
1.220771e+003;8.038415e-002
1.222699e+003;8.017113e-002
1.224628e+003;8.181541e-002
1.226557e+003;8.456384e-002
1.228485e+003;8.781276e-002
1.230414e+003;9.148492e-002
1.232342e+003;9.502143e-002
1.234271e+003;9.740432e-002
1.236199e+003;9.838636e-002
1.238128e+003;9.824679e-002
1.240056e+003;9.793586e-002
1.241985e+003;9.771471e-002
1.243913e+003;9.725972e-002
1.245842e+003;9.713431e-002
1.247771e+003;9.767032e-002
1.249699e+003;9.915638e-002
1.251628e+003;1.013712e-001
1.253556e+003;1.035487e-001
1.255485e+003;1.057381e-001
1.257413e+003;1.078484e-001
1.259342e+003;1.097453e-001
1.261270e+003;1.110191e-001
1.263199e+003;1.105645e-001
1.265127e+003;1.080301e-001
1.267056e+003;1.040400e-001
1.268985e+003;9.950656e-002
1.270913e+003;9.582511e-002
1.272842e+003;9.392247e-002
1.274770e+003;9.323838e-002
1.276699e+003;9.301306e-002
1.278627e+003;9.270248e-002
1.280556e+003;9.168392e-002
1.282484e+003;8.993210e-002
1.284413e+003;8.819284e-002
1.286342e+003;8.684124e-002
1.288270e+003;8.587521e-002
1.290199e+003;8.573648e-002
1.292127e+003;8.584823e-002
1.294056e+003;8.557296e-002
1.295984e+003;8.549742e-002
1.297913e+003;8.530378e-002
1.299841e+003;8.486619e-002
1.301770e+003;8.446759e-002
1.303698e+003;8.419915e-002
1.305627e+003;8.384328e-002
1.307556e+003;8.306894e-002
1.309484e+003;8.228446e-002
1.311413e+003;8.158621e-002
1.313341e+003;8.071916e-002
1.315270e+003;7.994049e-002
1.317198e+003;7.940276e-002
1.319127e+003;7.886425e-002
1.321055e+003;7.837801e-002
1.322984e+003;7.800507e-002
1.324912e+003;7.771677e-002
1.326841e+003;7.762306e-002
1.328770e+003;7.788276e-002
1.330698e+003;7.852952e-002
1.332627e+003;7.874142e-002
1.334555e+003;7.893085e-002
1.336484e+003;7.939484e-002
1.338412e+003;7.992113e-002
1.340341e+003;8.050953e-002
1.342269e+003;8.133505e-002
1.344198e+003;8.207238e-002
1.346126e+003;8.276976e-002
1.348055e+003;8.348754e-002
1.349984e+003;8.423699e-002
1.351912e+003;8.513674e-002
1.353841e+003;8.625674e-002
1.355769e+003;8.765761e-002
1.357698e+003;8.908416e-002
1.359626e+003;9.036104e-002
1.361555e+003;9.171383e-002
1.363483e+003;9.329005e-002
1.365412e+003;9.490169e-002
1.367341e+003;9.606951e-002
1.369269e+003;9.676135e-002
1.371198e+003;9.691850e-002
1.373126e+003;9.651458e-002
1.375055e+003;9.527532e-002
1.376983e+003;9.332492e-002
1.378912e+003;9.106794e-002
1.380840e+003;8.870476e-002
1.382769e+003;8.644260e-002
1.384698e+003;8.396953e-002
1.386626e+003;8.126328e-002
1.388555e+003;7.947560e-002
1.390483e+003;7.822751e-002
1.392412e+003;7.687701e-002
1.394340e+003;7.574557e-002
1.396269e+003;7.536585e-002
1.398197e+003;7.588764e-002
1.400126e+003;7.721783e-002
1.402054e+003;7.874865e-002
1.403983e+003;8.093983e-002
1.405911e+003;8.420490e-002
1.407840e+003;8.819792e-002
1.409769e+003;9.292658e-002
1.411697e+003;9.821912e-002
1.413626e+003;1.026800e-001
1.415554e+003;1.051929e-001
1.417483e+003;1.054518e-001
1.419411e+003;1.040129e-001
1.421340e+003;1.020827e-001
1.423268e+003;1.000004e-001
1.425197e+003;9.855404e-002
1.427125e+003;9.855733e-002
1.429054e+003;9.979662e-002
1.430983e+003;1.018049e-001
1.432911e+003;1.035462e-001
1.434840e+003;1.040007e-001
1.436768e+003;1.036608e-001
1.438697e+003;1.038420e-001
1.440625e+003;1.034416e-001
1.442554e+003;1.027724e-001
1.444482e+003;1.023361e-001
1.446411e+003;1.019387e-001
1.448340e+003;1.022392e-001
1.450268e+003;1.035295e-001
1.452197e+003;1.050408e-001
1.454125e+003;1.061674e-001
1.456054e+003;1.071894e-001
1.457982e+003;1.111387e-001
1.459911e+003;1.168934e-001
1.461839e+003;1.204521e-001
1.463768e+003;1.195027e-001
1.465697e+003;1.147074e-001
1.467625e+003;1.089053e-001
1.469554e+003;1.040332e-001
1.471482e+003;1.012001e-001
1.473411e+003;1.012486e-001
1.475339e+003;1.024779e-001
1.477268e+003;1.022351e-001
1.479196e+003;1.003014e-001
1.481125e+003;9.655318e-002
1.483053e+003;9.157111e-002
1.484982e+003;8.698177e-002
1.486911e+003;8.441842e-002
1.488839e+003;8.360597e-002
1.490768e+003;8.448957e-002
1.492696e+003;8.649602e-002
1.494625e+003;8.791953e-002
1.496553e+003;8.976641e-002
1.498482e+003;9.324487e-002
1.500410e+003;9.728699e-002
1.502339e+003;1.010854e-001
1.504267e+003;1.036547e-001
1.506196e+003;1.064055e-001
1.508125e+003;1.117600e-001
1.510053e+003;1.178181e-001
1.511982e+003;1.231098e-001
1.513910e+003;1.283614e-001
1.515839e+003;1.335675e-001
1.517767e+003;1.391906e-001
1.519696e+003;1.449426e-001
1.521624e+003;1.514654e-001
1.523553e+003;1.589368e-001
1.525481e+003;1.659290e-001
1.527410e+003;1.729474e-001
1.529339e+003;1.797002e-001
1.531267e+003;1.857361e-001
1.533196e+003;1.905720e-001
1.535124e+003;1.946582e-001
1.537053e+003;1.961822e-001
1.538981e+003;1.947781e-001
1.540910e+003;1.928748e-001
1.542838e+003;1.901448e-001
1.544767e+003;1.854131e-001
1.546695e+003;1.788281e-001
1.548624e+003;1.714579e-001
1.550553e+003;1.642237e-001
1.552481e+003;1.571781e-001
1.554410e+003;1.504786e-001
1.556338e+003;1.440614e-001
1.558267e+003;1.372058e-001
1.560195e+003;1.326231e-001
1.562124e+003;1.295069e-001
1.564052e+003;1.247698e-001
1.565981e+003;1.193437e-001
1.567910e+003;1.136670e-001
1.569838e+003;1.077629e-001
1.571767e+003;1.025184e-001
1.573695e+003;9.709440e-002
1.575624e+003;9.122705e-002
1.577552e+003;8.744330e-002
1.579481e+003;8.488597e-002
1.581409e+003;8.229659e-002
1.583338e+003;8.036502e-002
1.585266e+003;7.906359e-002
1.587195e+003;7.842663e-002
1.589124e+003;7.841171e-002
1.591052e+003;7.902091e-002
1.592981e+003;8.031901e-002
1.594909e+003;8.212298e-002
1.596838e+003;8.426414e-002
1.598766e+003;8.724543e-002
1.600695e+003;9.077390e-002
1.602623e+003;9.516224e-002
1.604552e+003;1.003222e-001
1.606480e+003;1.058427e-001
1.608409e+003;1.117144e-001
1.610338e+003;1.180620e-001
1.612266e+003;1.247955e-001
1.614195e+003;1.317654e-001
1.616123e+003;1.399420e-001
1.618052e+003;1.508654e-001
1.619980e+003;1.625529e-001
1.621909e+003;1.740431e-001
1.623837e+003;1.858750e-001
1.625766e+003;1.980818e-001
1.627694e+003;2.102325e-001
1.629623e+003;2.226004e-001
1.631552e+003;2.343931e-001
1.633480e+003;2.429293e-001
1.635409e+003;2.469801e-001
1.637337e+003;2.470603e-001
1.639266e+003;2.413770e-001
1.641194e+003;2.301717e-001
1.643123e+003;2.157233e-001
1.645051e+003;1.997618e-001
1.646980e+003;1.845257e-001
1.648909e+003;1.712733e-001
1.650837e+003;1.579065e-001
1.652766e+003;1.450419e-001
1.654694e+003;1.371633e-001
1.656623e+003;1.312280e-001
1.658551e+003;1.245310e-001
1.660480e+003;1.176217e-001
1.662408e+003;1.106908e-001
1.664337e+003;1.043398e-001
1.666266e+003;9.785702e-002
1.668194e+003;9.074507e-002
1.670123e+003;8.448671e-002
1.672051e+003;7.962328e-002
1.673980e+003;7.446411e-002
1.675908e+003;6.949618e-002
1.677837e+003;6.552740e-002
1.679765e+003;6.103604e-002
1.681694e+003;5.583289e-002
1.683622e+003;5.013338e-002
1.685551e+003;4.682576e-002
1.687479e+003;4.518200e-002
1.689408e+003;4.304856e-002
1.691337e+003;4.121418e-002
1.693265e+003;3.920586e-002
1.695194e+003;3.674207e-002
1.697122e+003;3.583630e-002
1.699051e+003;3.485174e-002
1.700979e+003;3.460853e-002
1.702908e+003;3.557082e-002
1.704836e+003;3.541819e-002
1.706765e+003;3.538770e-002
1.708693e+003;3.536833e-002
1.710622e+003;3.556370e-002
1.712551e+003;3.551152e-002
1.714479e+003;3.484463e-002
1.716408e+003;3.395105e-002
1.718336e+003;3.436693e-002
1.720265e+003;3.556593e-002
1.722193e+003;3.607505e-002
1.724122e+003;3.622226e-002
1.726050e+003;3.661519e-002
1.727979e+003;3.675901e-002
1.729908e+003;3.631515e-002
1.731836e+003;3.515515e-002
1.733765e+003;3.395671e-002
1.735693e+003;3.459407e-002
1.737622e+003;3.527779e-002
1.739550e+003;3.501261e-002
1.741479e+003;3.480245e-002
1.743407e+003;3.411995e-002
1.745336e+003;3.313633e-002
1.747265e+003;3.201228e-002
1.749193e+003;3.105919e-002
1.751122e+003;3.035656e-002
1.753050e+003;3.009110e-002
1.754979e+003;2.942706e-002
1.756907e+003;2.876483e-002
1.758836e+003;2.845754e-002
1.760764e+003;2.772262e-002
1.762693e+003;2.707071e-002
1.764621e+003;2.684582e-002
1.766550e+003;2.621838e-002
1.768479e+003;2.569013e-002
1.770407e+003;2.507560e-002
1.772336e+003;2.431578e-002
1.774264e+003;2.458152e-002
1.776193e+003;2.480244e-002
1.778121e+003;2.464716e-002
1.780050e+003;2.454701e-002
1.781978e+003;2.413861e-002
1.783907e+003;2.350115e-002
1.785835e+003;2.347688e-002
1.787764e+003;2.359399e-002
1.789693e+003;2.321800e-002
1.791621e+003;2.241223e-002
1.793550e+003;2.228675e-002
1.795478e+003;2.263338e-002
1.797407e+003;2.249922e-002
1.799335e+003;2.232495e-002
1.801264e+003;2.204584e-002
1.803192e+003;2.190517e-002
1.805121e+003;2.205323e-002
1.807049e+003;2.209385e-002
1.808978e+003;2.175298e-002
1.810907e+003;2.166928e-002
1.812835e+003;2.163041e-002
1.814764e+003;2.153761e-002
1.816692e+003;2.151829e-002
1.818621e+003;2.157045e-002
1.820549e+003;2.150363e-002
1.822478e+003;2.137939e-002
1.824406e+003;2.125188e-002
1.826335e+003;2.103964e-002
1.828264e+003;2.074162e-002
1.830192e+003;2.091067e-002
1.832121e+003;2.139108e-002
1.834049e+003;2.157776e-002
1.835978e+003;2.130094e-002
1.837906e+003;2.099923e-002
1.839835e+003;2.084708e-002
1.841763e+003;2.053304e-002
1.843692e+003;2.013214e-002
1.845620e+003;2.034643e-002
1.847549e+003;2.058782e-002
1.849478e+003;2.060189e-002
1.851406e+003;2.067368e-002
1.853335e+003;2.057726e-002
1.855263e+003;2.034410e-002
1.857192e+003;2.025130e-002
1.859120e+003;2.024921e-002
1.861049e+003;2.017260e-002
1.862977e+003;2.029931e-002
1.864906e+003;2.025602e-002
1.866834e+003;1.992887e-002
1.868763e+003;1.974589e-002
1.870692e+003;1.975858e-002
1.872620e+003;1.982953e-002
1.874549e+003;2.003761e-002
1.876477e+003;2.019617e-002
1.878406e+003;2.012908e-002
1.880334e+003;2.018104e-002
1.882263e+003;2.020062e-002
1.884191e+003;1.996187e-002
1.886120e+003;1.999240e-002
1.888048e+003;2.029754e-002
1.889977e+003;2.051667e-002
1.891906e+003;2.068362e-002
1.893834e+003;2.059481e-002
1.895763e+003;2.046864e-002
1.897691e+003;2.062368e-002
1.899620e+003;2.073293e-002
1.901548e+003;2.071055e-002
1.903477e+003;2.066823e-002
1.905405e+003;2.046617e-002
1.907334e+003;2.042755e-002
1.909262e+003;2.043651e-002
1.911191e+003;2.028574e-002
1.913120e+003;2.026112e-002
1.915048e+003;2.016448e-002
1.916977e+003;1.986266e-002
1.918905e+003;1.995843e-002
1.920834e+003;2.022228e-002
1.922762e+003;2.026550e-002
1.924691e+003;2.018163e-002
1.926619e+003;2.016129e-002
1.928548e+003;2.039925e-002
1.930477e+003;2.037150e-002
1.932405e+003;2.024151e-002
1.934334e+003;2.023210e-002
1.936262e+003;2.026005e-002
1.938191e+003;2.024908e-002
1.940119e+003;2.005239e-002
1.942048e+003;1.986002e-002
1.943976e+003;1.999670e-002
1.945905e+003;2.031789e-002
1.947833e+003;2.041209e-002
1.949762e+003;2.027400e-002
1.951691e+003;2.004628e-002
1.953619e+003;2.003216e-002
1.955548e+003;2.024849e-002
1.957476e+003;2.047600e-002
1.959405e+003;2.054554e-002
1.961333e+003;2.064220e-002
1.963262e+003;2.066315e-002
1.965190e+003;2.050889e-002
1.967119e+003;2.055440e-002
1.969047e+003;2.070402e-002
1.970976e+003;2.065905e-002
1.972905e+003;2.067059e-002
1.974833e+003;2.074718e-002
1.976762e+003;2.083902e-002
1.978690e+003;2.089749e-002
1.980619e+003;2.085800e-002
1.982547e+003;2.081965e-002
1.984476e+003;2.078208e-002
1.986404e+003;2.055725e-002
1.988333e+003;2.036174e-002
1.990261e+003;2.042376e-002
1.992190e+003;2.052043e-002
1.994119e+003;2.055332e-002
1.996047e+003;2.061562e-002
1.997976e+003;2.061826e-002
1.999904e+003;2.053002e-002
2.001833e+003;2.045631e-002
2.003761e+003;2.053078e-002
2.005690e+003;2.082393e-002
2.007618e+003;2.077064e-002
2.009547e+003;2.056441e-002
2.011476e+003;2.062201e-002
2.013404e+003;2.080210e-002
2.015333e+003;2.102079e-002
2.017261e+003;2.113088e-002
2.019190e+003;2.094432e-002
2.021118e+003;2.087350e-002
2.023047e+003;2.095089e-002
2.024975e+003;2.116479e-002
2.026904e+003;2.136749e-002
2.028833e+003;2.134215e-002
2.030761e+003;2.139491e-002
2.032690e+003;2.155673e-002
2.034618e+003;2.160969e-002
2.036547e+003;2.158260e-002
2.038475e+003;2.171285e-002
2.040404e+003;2.176716e-002
2.042332e+003;2.176169e-002
2.044261e+003;2.190294e-002
2.046189e+003;2.193528e-002
2.048118e+003;2.187496e-002
2.050047e+003;2.201078e-002
2.051975e+003;2.203678e-002
2.053904e+003;2.201036e-002
2.055832e+003;2.222094e-002
2.057761e+003;2.235411e-002
2.059689e+003;2.215629e-002
2.061618e+003;2.205020e-002
2.063546e+003;2.212903e-002
2.065475e+003;2.238066e-002
2.067404e+003;2.236377e-002
2.069332e+003;2.216902e-002
2.071260e+003;2.218520e-002
2.073189e+003;2.217474e-002
2.075118e+003;2.208639e-002
2.077046e+003;2.197735e-002
2.078975e+003;2.198237e-002
2.080903e+003;2.208841e-002
2.082832e+003;2.221316e-002
2.084760e+003;2.222007e-002
2.086689e+003;2.203302e-002
2.088617e+003;2.193438e-002
2.090546e+003;2.208130e-002
2.092475e+003;2.222840e-002
2.094403e+003;2.184402e-002
2.096332e+003;2.164271e-002
2.098260e+003;2.184357e-002
2.100189e+003;2.197700e-002
2.102117e+003;2.200137e-002
2.104046e+003;2.200802e-002
2.105974e+003;2.208388e-002
2.107903e+003;2.225097e-002
2.109832e+003;2.224473e-002
2.111760e+003;2.230067e-002
2.113688e+003;2.246596e-002
2.115617e+003;2.253994e-002
2.117546e+003;2.239308e-002
2.119474e+003;2.246478e-002
2.121403e+003;2.269429e-002
2.123331e+003;2.273588e-002
2.125260e+003;2.275630e-002
2.127188e+003;2.283637e-002
2.129117e+003;2.290119e-002
2.131045e+003;2.307992e-002
2.132974e+003;2.308122e-002
2.134903e+003;2.282439e-002
2.136831e+003;2.272495e-002
2.138760e+003;2.278385e-002
2.140688e+003;2.289575e-002
2.142617e+003;2.299855e-002
2.144545e+003;2.295638e-002
2.146474e+003;2.285205e-002
2.148402e+003;2.283766e-002
2.150331e+003;2.293494e-002
2.152260e+003;2.304023e-002
2.154188e+003;2.304310e-002
2.156117e+003;2.300976e-002
2.158045e+003;2.318239e-002
2.159974e+003;2.335267e-002
2.161902e+003;2.356918e-002
2.163831e+003;2.371368e-002
2.165759e+003;2.369626e-002
2.167688e+003;2.341193e-002
2.169616e+003;2.330330e-002
2.171545e+003;2.342124e-002
2.173474e+003;2.354109e-002
2.175402e+003;2.344523e-002
2.177331e+003;2.339994e-002
2.179259e+003;2.349517e-002
2.181188e+003;2.353886e-002
2.183116e+003;2.358360e-002
2.185045e+003;2.362782e-002
2.186973e+003;2.358419e-002
2.188902e+003;2.363275e-002
2.190831e+003;2.394785e-002
2.192759e+003;2.423561e-002
2.194688e+003;2.416859e-002
2.196616e+003;2.378347e-002
2.198545e+003;2.370175e-002
2.200473e+003;2.377307e-002
2.202402e+003;2.376534e-002
2.204330e+003;2.377790e-002
2.206259e+003;2.380608e-002
2.208188e+003;2.372166e-002
2.210116e+003;2.354806e-002
2.212044e+003;2.356338e-002
2.213973e+003;2.358570e-002
2.215902e+003;2.327089e-002
2.217830e+003;2.306944e-002
2.219759e+003;2.306427e-002
2.221687e+003;2.314639e-002
2.223616e+003;2.314020e-002
2.225544e+003;2.299212e-002
2.227473e+003;2.285020e-002
2.229401e+003;2.269747e-002
2.231330e+003;2.263861e-002
2.233259e+003;2.276912e-002
2.235187e+003;2.264078e-002
2.237116e+003;2.236524e-002
2.239044e+003;2.249220e-002
2.240973e+003;2.267115e-002
2.242901e+003;2.268462e-002
2.244830e+003;2.273511e-002
2.246758e+003;2.263422e-002
2.248687e+003;2.273280e-002
2.250615e+003;2.305868e-002
2.252544e+003;2.319472e-002
2.254473e+003;2.327432e-002
2.256401e+003;2.356876e-002
2.258330e+003;2.358787e-002
2.260258e+003;2.323831e-002
2.262187e+003;2.326778e-002
2.264115e+003;2.344299e-002
2.266044e+003;2.337221e-002
2.267972e+003;2.345267e-002
2.269901e+003;2.375270e-002
2.271830e+003;2.379096e-002
2.273758e+003;2.367404e-002
2.275687e+003;2.363212e-002
2.277615e+003;2.369909e-002
2.279544e+003;2.369724e-002
2.281472e+003;2.369083e-002
2.283401e+003;2.366798e-002
2.285329e+003;2.366662e-002
2.287258e+003;2.389131e-002
2.289187e+003;2.390101e-002
2.291115e+003;2.362558e-002
2.293043e+003;2.361522e-002
2.294972e+003;2.385473e-002
2.296901e+003;2.393585e-002
2.298829e+003;2.403834e-002
2.300758e+003;2.435012e-002
2.302686e+003;2.439519e-002
2.304615e+003;2.434259e-002
2.306543e+003;2.442355e-002
2.308472e+003;2.451392e-002
2.310400e+003;2.453334e-002
2.312329e+003;2.451020e-002
2.314258e+003;2.468623e-002
2.316186e+003;2.459393e-002
2.318115e+003;2.426942e-002
2.320043e+003;2.448296e-002
2.321972e+003;2.453397e-002
2.323900e+003;2.430460e-002
2.325829e+003;2.424157e-002
2.327757e+003;2.426059e-002
2.329686e+003;2.427930e-002
2.331615e+003;2.455574e-002
2.333543e+003;2.481714e-002
2.335472e+003;2.473849e-002
2.337400e+003;2.447129e-002
2.339329e+003;2.425180e-002
2.341257e+003;2.435598e-002
2.343186e+003;2.439993e-002
2.345114e+003;2.415973e-002
2.347043e+003;2.422671e-002
2.348971e+003;2.441380e-002
2.350900e+003;2.454498e-002
2.352829e+003;2.443823e-002
2.354757e+003;2.417013e-002
2.356686e+003;2.411948e-002
2.358614e+003;2.439691e-002
2.360543e+003;2.452619e-002
2.362471e+003;2.432489e-002
2.364400e+003;2.424724e-002
2.366328e+003;2.460269e-002
2.368257e+003;2.484654e-002
2.370186e+003;2.470019e-002
2.372114e+003;2.471842e-002
2.374042e+003;2.502940e-002
2.375971e+003;2.517843e-002
2.377900e+003;2.510930e-002
2.379828e+003;2.509540e-002
2.381757e+003;2.508915e-002
2.383685e+003;2.505415e-002
2.385614e+003;2.515536e-002
2.387542e+003;2.531117e-002
2.389471e+003;2.551914e-002
2.391399e+003;2.561853e-002
2.393328e+003;2.561414e-002
2.395257e+003;2.555151e-002
2.397185e+003;2.553401e-002
2.399114e+003;2.575714e-002
2.401042e+003;2.597489e-002
2.402971e+003;2.598851e-002
2.404899e+003;2.585000e-002
2.406828e+003;2.560071e-002
2.408756e+003;2.547803e-002
2.410685e+003;2.550031e-002
2.412614e+003;2.551858e-002
2.414542e+003;2.561203e-002
2.416471e+003;2.581740e-002
2.418399e+003;2.590585e-002
2.420328e+003;2.579775e-002
2.422256e+003;2.566113e-002
2.424185e+003;2.590522e-002
2.426113e+003;2.610433e-002
2.428042e+003;2.593863e-002
2.429970e+003;2.588123e-002
2.431899e+003;2.605648e-002
2.433828e+003;2.616243e-002
2.435756e+003;2.621944e-002
2.437685e+003;2.615841e-002
2.439613e+003;2.602931e-002
2.441542e+003;2.626284e-002
2.443470e+003;2.671669e-002
2.445399e+003;2.686852e-002
2.447327e+003;2.685244e-002
2.449256e+003;2.683803e-002
2.451185e+003;2.699416e-002
2.453113e+003;2.729922e-002
2.455042e+003;2.724598e-002
2.456970e+003;2.707068e-002
2.458899e+003;2.728207e-002
2.460827e+003;2.759747e-002
2.462756e+003;2.772679e-002
2.464684e+003;2.785558e-002
2.466613e+003;2.800045e-002
2.468542e+003;2.797271e-002
2.470470e+003;2.800695e-002
2.472398e+003;2.798702e-002
2.474327e+003;2.798790e-002
2.476256e+003;2.805004e-002
2.478184e+003;2.800321e-002
2.480113e+003;2.793617e-002
2.482041e+003;2.789310e-002
2.483970e+003;2.792214e-002
2.485898e+003;2.805597e-002
2.487827e+003;2.800716e-002
2.489755e+003;2.814735e-002
2.491684e+003;2.821810e-002
2.493613e+003;2.825639e-002
2.495541e+003;2.833667e-002
2.497470e+003;2.827273e-002
2.499398e+003;2.810733e-002
2.501327e+003;2.805979e-002
2.503255e+003;2.796610e-002
2.505184e+003;2.792062e-002
2.507112e+003;2.818281e-002
2.509041e+003;2.858379e-002
2.510969e+003;2.886019e-002
2.512898e+003;2.901280e-002
2.514827e+003;2.898584e-002
2.516755e+003;2.879450e-002
2.518684e+003;2.881511e-002
2.520612e+003;2.895081e-002
2.522541e+003;2.900245e-002
2.524469e+003;2.900678e-002
2.526398e+003;2.932456e-002
2.528326e+003;2.988001e-002
2.530255e+003;3.007580e-002
2.532184e+003;3.019225e-002
2.534112e+003;3.036392e-002
2.536041e+003;3.030827e-002
2.537969e+003;3.036662e-002
2.539898e+003;3.040414e-002
2.541826e+003;3.035326e-002
2.543755e+003;3.060714e-002
2.545683e+003;3.089618e-002
2.547612e+003;3.076741e-002
2.549541e+003;3.067100e-002
2.551469e+003;3.055364e-002
2.553397e+003;3.055566e-002
2.555326e+003;3.066616e-002
2.557255e+003;3.075084e-002
2.559183e+003;3.096253e-002
2.561112e+003;3.109243e-002
2.563040e+003;3.107439e-002
2.564969e+003;3.097503e-002
2.566897e+003;3.098083e-002
2.568826e+003;3.106684e-002
2.570754e+003;3.103879e-002
2.572683e+003;3.126071e-002
2.574612e+003;3.145528e-002
2.576540e+003;3.144847e-002
2.578469e+003;3.159280e-002
2.580397e+003;3.172542e-002
2.582326e+003;3.174759e-002
2.584254e+003;3.187989e-002
2.586183e+003;3.197069e-002
2.588111e+003;3.179090e-002
2.590040e+003;3.175287e-002
2.591969e+003;3.195732e-002
2.593897e+003;3.222013e-002
2.595826e+003;3.253596e-002
2.597754e+003;3.264911e-002
2.599683e+003;3.228876e-002
2.601611e+003;3.219483e-002
2.603540e+003;3.237611e-002
2.605468e+003;3.242334e-002
2.607397e+003;3.233577e-002
2.609325e+003;3.225000e-002
2.611254e+003;3.236879e-002
2.613183e+003;3.274203e-002
2.615111e+003;3.290809e-002
2.617040e+003;3.274571e-002
2.618968e+003;3.259178e-002
2.620897e+003;3.266729e-002
2.622825e+003;3.279966e-002
2.624754e+003;3.278287e-002
2.626682e+003;3.296721e-002
2.628611e+003;3.322703e-002
2.630540e+003;3.313000e-002
2.632468e+003;3.320056e-002
2.634396e+003;3.338859e-002
2.636325e+003;3.331163e-002
2.638254e+003;3.350962e-002
2.640182e+003;3.378119e-002
2.642111e+003;3.375533e-002
2.644039e+003;3.367730e-002
2.645968e+003;3.371003e-002
2.647896e+003;3.390190e-002
2.649825e+003;3.413819e-002
2.651753e+003;3.413869e-002
2.653682e+003;3.397578e-002
2.655611e+003;3.400372e-002
2.657539e+003;3.422655e-002
2.659468e+003;3.422651e-002
2.661396e+003;3.426789e-002
2.663325e+003;3.446090e-002
2.665253e+003;3.459902e-002
2.667182e+003;3.480374e-002
2.669110e+003;3.501922e-002
2.671039e+003;3.488872e-002
2.672968e+003;3.458876e-002
2.674896e+003;3.470259e-002
2.676825e+003;3.508000e-002
2.678753e+003;3.531262e-002
2.680682e+003;3.548466e-002
2.682610e+003;3.553784e-002
2.684539e+003;3.533342e-002
2.686467e+003;3.524624e-002
2.688396e+003;3.538346e-002
2.690324e+003;3.574883e-002
2.692253e+003;3.609550e-002
2.694182e+003;3.636631e-002
2.696110e+003;3.637802e-002
2.698039e+003;3.624513e-002
2.699967e+003;3.651985e-002
2.701896e+003;3.682252e-002
2.703824e+003;3.694448e-002
2.705753e+003;3.716705e-002
2.707681e+003;3.733774e-002
2.709610e+003;3.734969e-002
2.711539e+003;3.754783e-002
2.713467e+003;3.785400e-002
2.715396e+003;3.801375e-002
2.717324e+003;3.827588e-002
2.719253e+003;3.858332e-002
2.721181e+003;3.879116e-002
2.723110e+003;3.913472e-002
2.725038e+003;3.932243e-002
2.726967e+003;3.972875e-002
2.728896e+003;4.019970e-002
2.730824e+003;4.030247e-002
2.732752e+003;4.060000e-002
2.734681e+003;4.093640e-002
2.736610e+003;4.117247e-002
2.738538e+003;4.138494e-002
2.740467e+003;4.170841e-002
2.742395e+003;4.214402e-002
2.744324e+003;4.222826e-002
2.746252e+003;4.199409e-002
2.748181e+003;4.180438e-002
2.750109e+003;4.169510e-002
2.752038e+003;4.177213e-002
2.753967e+003;4.202428e-002
2.755895e+003;4.209736e-002
2.757824e+003;4.211266e-002
2.759752e+003;4.203545e-002
2.761681e+003;4.209973e-002
2.763609e+003;4.223604e-002
2.765538e+003;4.248012e-002
2.767466e+003;4.271341e-002
2.769395e+003;4.290352e-002
2.771323e+003;4.323827e-002
2.773252e+003;4.351049e-002
2.775181e+003;4.368640e-002
2.777109e+003;4.390564e-002
2.779038e+003;4.431932e-002
2.780966e+003;4.462016e-002
2.782895e+003;4.458594e-002
2.784823e+003;4.493584e-002
2.786752e+003;4.545556e-002
2.788680e+003;4.553154e-002
2.790609e+003;4.577148e-002
2.792538e+003;4.596010e-002
2.794466e+003;4.608376e-002
2.796395e+003;4.650033e-002
2.798323e+003;4.687879e-002
2.800252e+003;4.699870e-002
2.802180e+003;4.715612e-002
2.804109e+003;4.761790e-002
2.806037e+003;4.837044e-002
2.807966e+003;4.897532e-002
2.809895e+003;4.903567e-002
2.811823e+003;4.911076e-002
2.813751e+003;4.987519e-002
2.815680e+003;5.071723e-002
2.817609e+003;5.118728e-002
2.819537e+003;5.175011e-002
2.821466e+003;5.219169e-002
2.823394e+003;5.229307e-002
2.825323e+003;5.256128e-002
2.827251e+003;5.302045e-002
2.829180e+003;5.368291e-002
2.831108e+003;5.444639e-002
2.833037e+003;5.531590e-002
2.834966e+003;5.635368e-002
2.836894e+003;5.790365e-002
2.838823e+003;5.988760e-002
2.840751e+003;6.251457e-002
2.842680e+003;6.559337e-002
2.844608e+003;6.893281e-002
2.846537e+003;7.268339e-002
2.848465e+003;7.673438e-002
2.850394e+003;8.078540e-002
2.852323e+003;8.421334e-002
2.854251e+003;8.625472e-002
2.856180e+003;8.740545e-002
2.858108e+003;8.805967e-002
2.860037e+003;8.806710e-002
2.861965e+003;8.763438e-002
2.863894e+003;8.698946e-002
2.865822e+003;8.586317e-002
2.867751e+003;8.464194e-002
2.869679e+003;8.324835e-002
2.871608e+003;8.118534e-002
2.873536e+003;7.896876e-002
2.875465e+003;7.651816e-002
2.877394e+003;7.430874e-002
2.879322e+003;7.259929e-002
2.881251e+003;7.138342e-002
2.883179e+003;7.069476e-002
2.885108e+003;7.038033e-002
2.887036e+003;7.067702e-002
2.888965e+003;7.137577e-002
2.890893e+003;7.252865e-002
2.892822e+003;7.427399e-002
2.894750e+003;7.586680e-002
2.896679e+003;7.712957e-002
2.898608e+003;7.842501e-002
2.900536e+003;7.940844e-002
2.902465e+003;8.014591e-002
2.904393e+003;8.091049e-002
2.906322e+003;8.206058e-002
2.908250e+003;8.375242e-002
2.910179e+003;8.550880e-002
2.912107e+003;8.770014e-002
2.914036e+003;9.044077e-002
2.915965e+003;9.339977e-002
2.917893e+003;9.635545e-002
2.919822e+003;9.904203e-002
2.921750e+003;1.018179e-001
2.923679e+003;1.040020e-001
2.925607e+003;1.054839e-001
2.927536e+003;1.065632e-001
2.929464e+003;1.074054e-001
2.931393e+003;1.077990e-001
2.933322e+003;1.080848e-001
2.935250e+003;1.077218e-001
2.937178e+003;1.061897e-001
2.939107e+003;1.041455e-001
2.941036e+003;1.017485e-001
2.942964e+003;9.938775e-002
2.944893e+003;9.639471e-002
2.946821e+003;9.250715e-002
2.948750e+003;8.819596e-002
2.950678e+003;8.311592e-002
2.952607e+003;7.818752e-002
2.954535e+003;7.442856e-002
2.956464e+003;7.113273e-002
2.958393e+003;6.786150e-002
2.960321e+003;6.516229e-002
2.962250e+003;6.314749e-002
2.964178e+003;6.105778e-002
2.966107e+003;5.892688e-002
2.968035e+003;5.712330e-002
2.969964e+003;5.548220e-002
2.971892e+003;5.386494e-002
2.973821e+003;5.242237e-002
2.975750e+003;5.081339e-002
2.977678e+003;4.941216e-002
2.979607e+003;4.844141e-002
2.981535e+003;4.770028e-002
2.983464e+003;4.711353e-002
2.985392e+003;4.623496e-002
2.987321e+003;4.557338e-002
2.989249e+003;4.517575e-002
2.991178e+003;4.481893e-002
2.993106e+003;4.456707e-002
2.995035e+003;4.426193e-002
2.996964e+003;4.420096e-002
2.998892e+003;4.414990e-002
3.000821e+003;4.394843e-002
3.002749e+003;4.391631e-002
3.004678e+003;4.400797e-002
3.006606e+003;4.395895e-002
3.008535e+003;4.389538e-002
3.010463e+003;4.389714e-002
3.012392e+003;4.402667e-002
3.014321e+003;4.412023e-002
3.016249e+003;4.407270e-002
3.018177e+003;4.424080e-002
3.020106e+003;4.489877e-002
3.022035e+003;4.529787e-002
3.023963e+003;4.555995e-002
3.025892e+003;4.585009e-002
3.027820e+003;4.597041e-002
3.029749e+003;4.631756e-002
3.031677e+003;4.702104e-002
3.033606e+003;4.765077e-002
3.035534e+003;4.773294e-002
3.037463e+003;4.795493e-002
3.039392e+003;4.871685e-002
3.041320e+003;4.933798e-002
3.043249e+003;4.968438e-002
3.045177e+003;5.023276e-002
3.047106e+003;5.092376e-002
3.049034e+003;5.160538e-002
3.050963e+003;5.240334e-002
3.052891e+003;5.296108e-002
3.054820e+003;5.364287e-002
3.056749e+003;5.425581e-002
3.058677e+003;5.463584e-002
3.060606e+003;5.483267e-002
3.062534e+003;5.503294e-002
3.064463e+003;5.544978e-002
3.066391e+003;5.574258e-002
3.068320e+003;5.583018e-002
3.070248e+003;5.568401e-002
3.072177e+003;5.557147e-002
3.074105e+003;5.592669e-002
3.076034e+003;5.598794e-002
3.077963e+003;5.587250e-002
3.079891e+003;5.610476e-002
3.081820e+003;5.620902e-002
3.083748e+003;5.629226e-002
3.085677e+003;5.618316e-002
3.087605e+003;5.596672e-002
3.089534e+003;5.555991e-002
3.091462e+003;5.512919e-002
3.093391e+003;5.471697e-002
3.095320e+003;5.430800e-002
3.097248e+003;5.403530e-002
3.099177e+003;5.344729e-002
3.101105e+003;5.273116e-002
3.103034e+003;5.241482e-002
3.104962e+003;5.228343e-002
3.106891e+003;5.176694e-002
3.108819e+003;5.083052e-002
3.110748e+003;5.031397e-002
3.112677e+003;5.026985e-002
3.114605e+003;4.989511e-002
3.116533e+003;4.929081e-002
3.118462e+003;4.901950e-002
3.120391e+003;4.876382e-002
3.122319e+003;4.826468e-002
3.124248e+003;4.788877e-002
3.126176e+003;4.793328e-002
3.128105e+003;4.808005e-002
3.130033e+003;4.807580e-002
3.131962e+003;4.777521e-002
3.133890e+003;4.762292e-002
3.135819e+003;4.771718e-002
3.137748e+003;4.786939e-002
3.139676e+003;4.805467e-002
3.141605e+003;4.803782e-002
3.143533e+003;4.778324e-002
3.145462e+003;4.764681e-002
3.147390e+003;4.783828e-002
3.149319e+003;4.812777e-002
3.151247e+003;4.837596e-002
3.153176e+003;4.838007e-002
3.155104e+003;4.828697e-002
3.157033e+003;4.859773e-002
3.158962e+003;4.886002e-002
3.160890e+003;4.943143e-002
3.162819e+003;4.994577e-002
3.164747e+003;4.993919e-002
3.166676e+003;5.020996e-002
3.168604e+003;5.064168e-002
3.170533e+003;5.121599e-002
3.172461e+003;5.202391e-002
3.174390e+003;5.262459e-002
3.176319e+003;5.265096e-002
3.178247e+003;5.307309e-002
3.180176e+003;5.381457e-002
3.182104e+003;5.415172e-002
3.184033e+003;5.454315e-002
3.185961e+003;5.514236e-002
3.187890e+003;5.567828e-002
3.189818e+003;5.587419e-002
3.191747e+003;5.606453e-002
3.193676e+003;5.645668e-002
3.195604e+003;5.664663e-002
3.197532e+003;5.674102e-002
3.199461e+003;5.717440e-002
3.201390e+003;5.756392e-002
3.203318e+003;5.756153e-002
3.205247e+003;5.802281e-002
3.207175e+003;5.854657e-002
3.209104e+003;5.858691e-002
3.211032e+003;5.861247e-002
3.212961e+003;5.891291e-002
3.214889e+003;5.910118e-002
3.216818e+003;5.945716e-002
3.218747e+003;5.991057e-002
3.220675e+003;6.032946e-002
3.222604e+003;6.073550e-002
3.224532e+003;6.146915e-002
3.226461e+003;6.216696e-002
3.228389e+003;6.246230e-002
3.230318e+003;6.313856e-002
3.232246e+003;6.422541e-002
3.234175e+003;6.494987e-002
3.236104e+003;6.584851e-002
3.238032e+003;6.695487e-002
3.239961e+003;6.808969e-002
3.241889e+003;6.933305e-002
3.243818e+003;7.047600e-002
3.245746e+003;7.169026e-002
3.247675e+003;7.295841e-002
3.249603e+003;7.405781e-002
3.251532e+003;7.544429e-002
3.253460e+003;7.708605e-002
3.255389e+003;7.861152e-002
3.257318e+003;8.018628e-002
3.259246e+003;8.191723e-002
3.261175e+003;8.376515e-002
3.263103e+003;8.520818e-002
3.265032e+003;8.647957e-002
3.266960e+003;8.833369e-002
3.268889e+003;9.039331e-002
3.270817e+003;9.249362e-002
3.272746e+003;9.417963e-002
3.274675e+003;9.611656e-002
3.276603e+003;9.839563e-002
3.278531e+003;1.004083e-001
3.280460e+003;1.019740e-001
3.282389e+003;1.035965e-001
3.284317e+003;1.058662e-001
3.286246e+003;1.079475e-001
3.288174e+003;1.096074e-001
3.290103e+003;1.108429e-001
3.292031e+003;1.111077e-001
3.293960e+003;1.112789e-001
3.295888e+003;1.111426e-001
3.297817e+003;1.100115e-001
3.299746e+003;1.083596e-001
3.301674e+003;1.064227e-001
3.303603e+003;1.036431e-001
3.305531e+003;1.006034e-001
3.307460e+003;9.769430e-002
3.309388e+003;9.485358e-002
3.311317e+003;9.219623e-002
3.313245e+003;8.978421e-002
3.315174e+003;8.692907e-002
3.317103e+003;8.429468e-002
3.319031e+003;8.202852e-002
3.320960e+003;7.940184e-002
3.322888e+003;7.707093e-002
3.324817e+003;7.486320e-002
3.326745e+003;7.272416e-002
3.328674e+003;7.092144e-002
3.330602e+003;6.900197e-002
3.332531e+003;6.710074e-002
3.334459e+003;6.544407e-002
3.336388e+003;6.415670e-002
3.338317e+003;6.295049e-002
3.340245e+003;6.168942e-002
3.342174e+003;6.020008e-002
3.344102e+003;5.870573e-002
3.346031e+003;5.744011e-002
3.347959e+003;5.636910e-002
3.349888e+003;5.533998e-002
3.351816e+003;5.430053e-002
3.353745e+003;5.349994e-002
3.355674e+003;5.275870e-002
3.357602e+003;5.176026e-002
3.359531e+003;5.100939e-002
3.361459e+003;5.057883e-002
3.363388e+003;4.985857e-002
3.365316e+003;4.916997e-002
3.367245e+003;4.853129e-002
3.369173e+003;4.772225e-002
3.371102e+003;4.730333e-002
3.373031e+003;4.690452e-002
3.374959e+003;4.621970e-002
3.376887e+003;4.572403e-002
3.378816e+003;4.548683e-002
3.380745e+003;4.524734e-002
3.382673e+003;4.503000e-002
3.384602e+003;4.477860e-002
3.386530e+003;4.441135e-002
3.388459e+003;4.370344e-002
3.390387e+003;4.362394e-002
3.392316e+003;4.377856e-002
3.394244e+003;4.341352e-002
3.396173e+003;4.289631e-002
3.398102e+003;4.286570e-002
3.400030e+003;4.298494e-002
3.401959e+003;4.286340e-002
3.403887e+003;4.229768e-002
3.405816e+003;4.187987e-002
3.407744e+003;4.175649e-002
3.409673e+003;4.158599e-002
3.411601e+003;4.122806e-002
3.413530e+003;4.108363e-002
3.415458e+003;4.096654e-002
3.417387e+003;4.101712e-002
3.419316e+003;4.087112e-002
3.421244e+003;4.071007e-002
3.423173e+003;4.076654e-002
3.425101e+003;4.057602e-002
3.427030e+003;4.028469e-002
3.428958e+003;4.013900e-002
3.430887e+003;4.007505e-002
3.432815e+003;4.032759e-002
3.434744e+003;4.024866e-002
3.436673e+003;3.993288e-002
3.438601e+003;3.980021e-002
3.440530e+003;3.990491e-002
3.442458e+003;3.998062e-002
3.444387e+003;3.944005e-002
3.446315e+003;3.886979e-002
3.448244e+003;3.879283e-002
3.450172e+003;3.935287e-002
3.452101e+003;3.954714e-002
3.454030e+003;3.905169e-002
3.455958e+003;3.895194e-002
3.457886e+003;3.881304e-002
3.459815e+003;3.855399e-002
3.461744e+003;3.817417e-002
3.463672e+003;3.793148e-002
3.465601e+003;3.813846e-002
3.467529e+003;3.857633e-002
3.469458e+003;3.843951e-002
3.471386e+003;3.793748e-002
3.473315e+003;3.772785e-002
3.475243e+003;3.771842e-002
3.477172e+003;3.764462e-002
3.479101e+003;3.757193e-002
3.481029e+003;3.768459e-002
3.482958e+003;3.750286e-002
3.484886e+003;3.731138e-002
3.486815e+003;3.755000e-002
3.488743e+003;3.758086e-002
3.490672e+003;3.746251e-002
3.492600e+003;3.766287e-002
3.494529e+003;3.773302e-002
3.496458e+003;3.722892e-002
3.498386e+003;3.701854e-002
3.500315e+003;3.701739e-002
3.502243e+003;3.709844e-002
3.504172e+003;3.695176e-002
3.506100e+003;3.654393e-002
3.508029e+003;3.612020e-002
3.509957e+003;3.597882e-002
3.511886e+003;3.600495e-002
3.513814e+003;3.605993e-002
3.515743e+003;3.623720e-002
3.517672e+003;3.609489e-002
3.519600e+003;3.554237e-002
3.521529e+003;3.529170e-002
3.523457e+003;3.538971e-002
3.525386e+003;3.528304e-002
3.527314e+003;3.514678e-002
3.529243e+003;3.508388e-002
3.531171e+003;3.501904e-002
3.533100e+003;3.480439e-002
3.535029e+003;3.471960e-002
3.536957e+003;3.464022e-002
3.538885e+003;3.426706e-002
3.540814e+003;3.351188e-002
3.542743e+003;3.270066e-002
3.544671e+003;3.262335e-002
3.546600e+003;3.282271e-002
3.548528e+003;3.261418e-002
3.550457e+003;3.232139e-002
3.552385e+003;3.226332e-002
3.554314e+003;3.201563e-002
3.556242e+003;3.146055e-002
3.558171e+003;3.103424e-002
3.560100e+003;3.104702e-002
3.562028e+003;3.106673e-002
3.563957e+003;3.094830e-002
3.565885e+003;3.042930e-002
3.567814e+003;2.982024e-002
3.569742e+003;2.959150e-002
3.571671e+003;2.945514e-002
3.573599e+003;2.920235e-002
3.575528e+003;2.932059e-002
3.577457e+003;2.951166e-002
3.579385e+003;2.885856e-002
3.581314e+003;2.824320e-002
3.583242e+003;2.816630e-002
3.585171e+003;2.772894e-002
3.587099e+003;2.719271e-002
3.589028e+003;2.743579e-002
3.590956e+003;2.755344e-002
3.592885e+003;2.705682e-002
3.594813e+003;2.659317e-002
3.596742e+003;2.650793e-002
3.598671e+003;2.664534e-002
3.600599e+003;2.641802e-002
3.602528e+003;2.627136e-002
3.604456e+003;2.584912e-002
3.606385e+003;2.500659e-002
3.608313e+003;2.453285e-002
3.610242e+003;2.472302e-002
3.612170e+003;2.471067e-002
3.614099e+003;2.434791e-002
3.616028e+003;2.363762e-002
3.617956e+003;2.331893e-002
3.619885e+003;2.382452e-002
3.621813e+003;2.443242e-002
3.623742e+003;2.468353e-002
3.625670e+003;2.424171e-002
3.627599e+003;2.273993e-002
3.629527e+003;2.224950e-002
3.631456e+003;2.291520e-002
3.633385e+003;2.311679e-002
3.635313e+003;2.327051e-002
3.637241e+003;2.309103e-002
3.639170e+003;2.279199e-002
3.641099e+003;2.278574e-002
3.643027e+003;2.255223e-002
3.644956e+003;2.178583e-002
3.646884e+003;2.069168e-002
3.648813e+003;2.005669e-002
3.650741e+003;2.046989e-002
3.652670e+003;2.097621e-002
3.654598e+003;2.098083e-002
3.656527e+003;2.095267e-002
3.658456e+003;2.108315e-002
3.660384e+003;2.101749e-002
3.662313e+003;2.108461e-002
3.664241e+003;2.123880e-002
3.666170e+003;2.112559e-002
3.668098e+003;2.021426e-002
3.670027e+003;1.956333e-002
3.671955e+003;2.003136e-002
3.673884e+003;1.925811e-002
3.675813e+003;1.883831e-002
3.677741e+003;1.999163e-002
3.679669e+003;2.014511e-002
3.681598e+003;1.974575e-002
3.683527e+003;1.962146e-002
3.685455e+003;1.961626e-002
3.687384e+003;1.848924e-002
3.689312e+003;1.808852e-002
3.691241e+003;1.872171e-002
3.693169e+003;1.898401e-002
3.695098e+003;1.865748e-002
3.697026e+003;1.840416e-002
3.698955e+003;1.845809e-002
3.700884e+003;1.831646e-002
3.702812e+003;1.827347e-002
3.704741e+003;1.838528e-002
3.706669e+003;1.832742e-002
3.708598e+003;1.792465e-002
3.710526e+003;1.745477e-002
3.712455e+003;1.748254e-002
3.714383e+003;1.791519e-002
3.716312e+003;1.795376e-002
3.718240e+003;1.789392e-002
3.720169e+003;1.781468e-002
3.722098e+003;1.766223e-002
3.724026e+003;1.770174e-002
3.725955e+003;1.782932e-002
3.727883e+003;1.766306e-002
3.729812e+003;1.739597e-002
3.731740e+003;1.698665e-002
3.733669e+003;1.692790e-002
3.735597e+003;1.680576e-002
3.737526e+003;1.733707e-002
3.739455e+003;1.815523e-002
3.741383e+003;1.773225e-002
3.743312e+003;1.607945e-002
3.745240e+003;1.610554e-002
3.747169e+003;1.680214e-002
3.749097e+003;1.635271e-002
3.751026e+003;1.603245e-002
3.752954e+003;1.643553e-002
3.754883e+003;1.729534e-002
3.756812e+003;1.751635e-002
3.758740e+003;1.746440e-002
3.760668e+003;1.759018e-002
3.762597e+003;1.800898e-002
3.764526e+003;1.803250e-002
3.766454e+003;1.800770e-002
3.768383e+003;1.795182e-002
3.770311e+003;1.816584e-002
3.772240e+003;1.828363e-002
3.774168e+003;1.861397e-002
3.776097e+003;1.871265e-002
3.778025e+003;1.809661e-002
3.779954e+003;1.770250e-002
3.781883e+003;1.793083e-002
3.783811e+003;1.838718e-002
3.785740e+003;1.832749e-002
3.787668e+003;1.819199e-002
3.789597e+003;1.818716e-002
3.791525e+003;1.776995e-002
3.793454e+003;1.757914e-002
3.795382e+003;1.743228e-002
3.797311e+003;1.755140e-002
3.799240e+003;1.719067e-002
3.801168e+003;1.637948e-002
3.803097e+003;1.710395e-002
3.805025e+003;1.752701e-002
3.806954e+003;1.758542e-002
3.808882e+003;1.831422e-002
3.810811e+003;1.837851e-002
3.812739e+003;1.778872e-002
3.814668e+003;1.716603e-002
3.816596e+003;1.758435e-002
3.818525e+003;1.803547e-002
3.820454e+003;1.753232e-002
3.822382e+003;1.803333e-002
3.824311e+003;1.849429e-002
3.826239e+003;1.810410e-002
3.828168e+003;1.825768e-002
3.830096e+003;1.829169e-002
3.832025e+003;1.824959e-002
3.833953e+003;1.804044e-002
3.835882e+003;1.734431e-002
3.837811e+003;1.722856e-002
3.839739e+003;1.817068e-002
3.841667e+003;1.865533e-002
3.843596e+003;1.888655e-002
3.845525e+003;1.913475e-002
3.847453e+003;1.900405e-002
3.849382e+003;1.839175e-002
3.851310e+003;1.716316e-002
3.853239e+003;1.641172e-002
3.855167e+003;1.783350e-002
3.857096e+003;1.857568e-002
3.859024e+003;1.822185e-002
3.860953e+003;1.843067e-002
3.862882e+003;1.843240e-002
3.864810e+003;1.815423e-002
3.866739e+003;1.852776e-002
3.868667e+003;1.845491e-002
3.870596e+003;1.841957e-002
3.872524e+003;1.871846e-002
3.874453e+003;1.884032e-002
3.876381e+003;1.907388e-002
3.878310e+003;1.847897e-002
3.880239e+003;1.799109e-002
3.882167e+003;1.850687e-002
3.884096e+003;1.871701e-002
3.886024e+003;1.864281e-002
3.887953e+003;1.916259e-002
3.889881e+003;1.914019e-002
3.891810e+003;1.901891e-002
3.893738e+003;1.923435e-002
3.895667e+003;1.908666e-002
3.897595e+003;1.851316e-002
3.899524e+003;1.833444e-002
3.901453e+003;1.874237e-002
3.903381e+003;1.874610e-002
3.905310e+003;1.934453e-002
3.907238e+003;2.020190e-002
3.909167e+003;2.022825e-002
3.911095e+003;1.986089e-002
3.913024e+003;2.010413e-002
3.914952e+003;1.994483e-002
3.916881e+003;1.939245e-002
3.918810e+003;1.929891e-002
3.920738e+003;1.938472e-002
3.922667e+003;1.954357e-002
3.924595e+003;1.994046e-002
3.926524e+003;2.005249e-002
3.928452e+003;2.010274e-002
3.930381e+003;2.007748e-002
3.932309e+003;2.024380e-002
3.934238e+003;2.055381e-002
3.936167e+003;2.065387e-002
3.938095e+003;2.033379e-002
3.940023e+003;2.024845e-002
3.941952e+003;2.035393e-002
3.943881e+003;2.045523e-002
3.945809e+003;2.063546e-002
3.947738e+003;2.062347e-002
3.949666e+003;2.018114e-002
3.951595e+003;2.026338e-002
3.953523e+003;2.088101e-002
3.955452e+003;2.116556e-002
3.957380e+003;2.152859e-002
3.959309e+003;2.156282e-002
3.961238e+003;2.128490e-002
3.963166e+003;2.086391e-002
3.965095e+003;2.100838e-002
3.967023e+003;2.104660e-002
3.968952e+003;2.100761e-002
3.970880e+003;2.124516e-002
3.972809e+003;2.127822e-002
3.974737e+003;2.137942e-002
3.976666e+003;2.165389e-002
3.978594e+003;2.154754e-002
3.980523e+003;2.130804e-002
3.982452e+003;2.117544e-002
3.984380e+003;2.109606e-002
3.986309e+003;2.118570e-002
3.988237e+003;2.114357e-002
3.990166e+003;2.149419e-002
3.992094e+003;2.222450e-002
3.994023e+003;2.242413e-002
3.995951e+003;2.232683e-002
3.997880e+003;2.227831e-002
3.999809e+003;2.236304e-002
4.001737e+003;0.000000e+000
