3.992094e+002;0.000000e+000
4.011380e+002;0.000000e+000
4.030665e+002;0.000000e+000
4.049951e+002;0.000000e+000
4.069236e+002;0.000000e+000
4.088522e+002;0.000000e+000
4.107807e+002;0.000000e+000
4.127093e+002;0.000000e+000
4.146378e+002;0.000000e+000
4.165664e+002;0.000000e+000
4.184949e+002;0.000000e+000
4.204235e+002;0.000000e+000
4.223520e+002;0.000000e+000
4.242806e+002;0.000000e+000
4.262091e+002;0.000000e+000
4.281377e+002;0.000000e+000
4.300662e+002;0.000000e+000
4.319948e+002;0.000000e+000
4.339233e+002;0.000000e+000
4.358519e+002;0.000000e+000
4.377804e+002;0.000000e+000
4.397090e+002;0.000000e+000
4.416375e+002;0.000000e+000
4.435660e+002;0.000000e+000
4.454946e+002;0.000000e+000
4.474232e+002;0.000000e+000
4.493517e+002;0.000000e+000
4.512802e+002;0.000000e+000
4.532088e+002;0.000000e+000
4.551373e+002;0.000000e+000
4.570659e+002;0.000000e+000
4.589944e+002;0.000000e+000
4.609230e+002;0.000000e+000
4.628515e+002;0.000000e+000
4.647801e+002;0.000000e+000
4.667086e+002;0.000000e+000
4.686372e+002;0.000000e+000
4.705657e+002;0.000000e+000
4.724943e+002;0.000000e+000
4.744228e+002;0.000000e+000
4.763513e+002;0.000000e+000
4.782799e+002;0.000000e+000
4.802085e+002;0.000000e+000
4.821370e+002;0.000000e+000
4.840656e+002;0.000000e+000
4.859941e+002;0.000000e+000
4.879226e+002;0.000000e+000
4.898512e+002;0.000000e+000
4.917798e+002;0.000000e+000
4.937083e+002;0.000000e+000
4.956368e+002;0.000000e+000
4.975654e+002;0.000000e+000
4.994939e+002;0.000000e+000
5.014225e+002;0.000000e+000
5.033510e+002;0.000000e+000
5.052796e+002;0.000000e+000
5.072081e+002;0.000000e+000
5.091367e+002;0.000000e+000
5.110652e+002;0.000000e+000
5.129938e+002;0.000000e+000
5.149223e+002;0.000000e+000
5.168509e+002;0.000000e+000
5.187794e+002;0.000000e+000
5.207079e+002;0.000000e+000
5.226365e+002;0.000000e+000
5.245651e+002;0.000000e+000
5.264936e+002;0.000000e+000
5.284222e+002;0.000000e+000
5.303507e+002;0.000000e+000
5.322792e+002;0.000000e+000
5.342078e+002;0.000000e+000
5.361364e+002;0.000000e+000
5.380649e+002;0.000000e+000
5.399935e+002;0.000000e+000
5.419220e+002;0.000000e+000
5.438505e+002;0.000000e+000
5.457791e+002;0.000000e+000
5.477076e+002;0.000000e+000
5.496362e+002;0.000000e+000
5.515648e+002;0.000000e+000
5.534933e+002;0.000000e+000
5.554218e+002;0.000000e+000
5.573504e+002;0.000000e+000
5.592789e+002;0.000000e+000
5.612075e+002;0.000000e+000
5.631360e+002;0.000000e+000
5.650646e+002;0.000000e+000
5.669931e+002;0.000000e+000
5.689217e+002;0.000000e+000
5.708502e+002;0.000000e+000
5.727787e+002;0.000000e+000
5.747073e+002;0.000000e+000
5.766359e+002;0.000000e+000
5.785644e+002;0.000000e+000
5.804930e+002;0.000000e+000
5.824215e+002;0.000000e+000
5.843500e+002;0.000000e+000
5.862786e+002;0.000000e+000
5.882072e+002;0.000000e+000
5.901357e+002;0.000000e+000
5.920643e+002;0.000000e+000
5.939928e+002;0.000000e+000
5.959213e+002;0.000000e+000
5.978499e+002;0.000000e+000
5.997784e+002;1.391106e-001
6.017070e+002;1.367593e-001
6.036355e+002;1.360110e-001
6.055641e+002;1.308303e-001
6.074926e+002;1.306659e-001
6.094211e+002;1.360164e-001
6.113497e+002;1.376022e-001
6.132783e+002;1.347348e-001
6.152068e+002;1.320318e-001
6.171354e+002;1.316317e-001
6.190639e+002;1.315867e-001
6.209924e+002;1.323689e-001
6.229210e+002;1.374627e-001
6.248495e+002;1.371928e-001
6.267781e+002;1.336044e-001
6.287067e+002;1.356944e-001
6.306352e+002;1.376983e-001
6.325637e+002;1.374577e-001
6.344923e+002;1.354991e-001
6.364208e+002;1.364314e-001
6.383494e+002;1.394911e-001
6.402780e+002;1.401048e-001
6.422065e+002;1.404976e-001
6.441350e+002;1.395900e-001
6.460636e+002;1.375811e-001
6.479921e+002;1.448074e-001
6.499207e+002;1.524001e-001
6.518492e+002;1.511260e-001
6.537778e+002;1.500477e-001
6.557063e+002;1.544245e-001
6.576349e+002;1.586241e-001
6.595634e+002;1.603628e-001
6.614919e+002;1.634878e-001
6.634205e+002;1.648668e-001
6.653491e+002;1.661976e-001
6.672776e+002;1.704075e-001
6.692062e+002;1.734915e-001
6.711347e+002;1.726793e-001
6.730632e+002;1.740596e-001
6.749918e+002;1.756220e-001
6.769203e+002;1.764407e-001
6.788489e+002;1.781463e-001
6.807775e+002;1.798442e-001
6.827060e+002;1.802896e-001
6.846345e+002;1.814099e-001
6.865631e+002;1.817639e-001
6.884916e+002;1.792895e-001
6.904202e+002;1.773360e-001
6.923488e+002;1.743524e-001
6.942773e+002;1.709750e-001
6.962058e+002;1.695270e-001
6.981344e+002;1.663110e-001
7.000629e+002;1.622158e-001
7.019915e+002;1.610279e-001
7.039200e+002;1.599632e-001
7.058486e+002;1.573382e-001
7.077771e+002;1.553967e-001
7.097057e+002;1.542068e-001
7.116342e+002;1.532297e-001
7.135627e+002;1.510193e-001
7.154913e+002;1.483292e-001
7.174199e+002;1.477032e-001
7.193484e+002;1.473128e-001
7.212770e+002;1.475705e-001
7.232055e+002;1.485084e-001
7.251340e+002;1.497129e-001
7.270626e+002;1.493671e-001
7.289911e+002;1.471574e-001
7.309197e+002;1.425451e-001
7.328483e+002;1.362417e-001
7.347768e+002;1.292627e-001
7.367053e+002;1.227728e-001
7.386339e+002;1.181922e-001
7.405624e+002;1.146447e-001
7.424910e+002;1.118029e-001
7.444196e+002;1.098229e-001
7.463481e+002;1.074089e-001
7.482766e+002;1.055433e-001
7.502052e+002;1.043809e-001
7.521337e+002;1.027634e-001
7.540623e+002;1.007864e-001
7.559908e+002;9.824995e-002
7.579194e+002;9.569553e-002
7.598479e+002;9.492820e-002
7.617765e+002;9.463392e-002
7.637050e+002;9.311379e-002
7.656335e+002;9.204197e-002
7.675621e+002;9.161799e-002
7.694907e+002;9.049940e-002
7.714192e+002;8.987895e-002
7.733478e+002;8.940038e-002
7.752763e+002;8.762355e-002
7.772048e+002;8.577346e-002
7.791334e+002;8.450209e-002
7.810620e+002;8.356268e-002
7.829905e+002;8.227885e-002
7.849191e+002;8.104720e-002
7.868476e+002;8.071377e-002
7.887761e+002;8.017488e-002
7.907047e+002;7.903812e-002
7.926332e+002;7.820977e-002
7.945618e+002;7.683410e-002
7.964903e+002;7.510246e-002
7.984189e+002;7.330201e-002
8.003474e+002;7.245903e-002
8.022759e+002;7.149243e-002
8.042045e+002;7.071394e-002
8.061331e+002;7.077466e-002
8.080616e+002;7.013602e-002
8.099902e+002;6.858360e-002
8.119187e+002;6.766500e-002
8.138472e+002;6.671599e-002
8.157758e+002;6.627700e-002
8.177043e+002;6.654545e-002
8.196329e+002;6.605416e-002
8.215615e+002;6.534450e-002
8.234900e+002;6.571354e-002
8.254185e+002;6.700388e-002
8.273471e+002;6.767619e-002
8.292756e+002;6.821513e-002
8.312042e+002;6.902073e-002
8.331328e+002;6.898632e-002
8.350613e+002;6.753132e-002
8.369898e+002;6.551234e-002
8.389184e+002;6.370862e-002
8.408469e+002;6.269149e-002
8.427755e+002;6.169366e-002
8.447040e+002;6.049122e-002
8.466326e+002;5.977165e-002
8.485611e+002;5.883441e-002
8.504897e+002;5.809958e-002
8.524182e+002;5.772064e-002
8.543467e+002;5.748845e-002
8.562753e+002;5.743701e-002
8.582039e+002;5.762047e-002
8.601324e+002;5.762865e-002
8.620610e+002;5.759373e-002
8.639895e+002;5.743864e-002
8.659180e+002;5.753728e-002
8.678466e+002;5.789922e-002
8.697751e+002;5.777479e-002
8.717037e+002;5.751379e-002
8.736323e+002;5.764730e-002
8.755608e+002;5.768741e-002
8.774893e+002;5.790054e-002
8.794179e+002;5.835836e-002
8.813464e+002;5.829086e-002
8.832750e+002;5.805318e-002
8.852036e+002;5.850501e-002
8.871321e+002;5.875542e-002
8.890606e+002;5.891933e-002
8.909892e+002;5.903091e-002
8.929177e+002;5.909066e-002
8.948463e+002;5.947148e-002
8.967748e+002;5.981956e-002
8.987034e+002;5.960780e-002
9.006319e+002;5.952738e-002
9.025605e+002;5.983401e-002
9.044890e+002;6.020224e-002
9.064175e+002;6.087118e-002
9.083461e+002;6.154386e-002
9.102747e+002;6.184477e-002
9.122032e+002;6.230141e-002
9.141318e+002;6.287780e-002
9.160603e+002;6.358313e-002
9.179888e+002;6.406069e-002
9.199174e+002;6.430498e-002
9.218459e+002;6.517807e-002
9.237745e+002;6.645446e-002
9.257031e+002;6.769400e-002
9.276316e+002;6.871369e-002
9.295601e+002;6.883449e-002
9.314887e+002;6.809396e-002
9.334172e+002;6.659094e-002
9.353458e+002;6.539600e-002
9.372744e+002;6.502980e-002
9.392029e+002;6.457298e-002
9.411314e+002;6.473767e-002
9.430600e+002;6.584231e-002
9.449885e+002;6.710809e-002
9.469171e+002;6.838858e-002
9.488456e+002;6.974994e-002
9.507742e+002;7.080145e-002
9.527027e+002;7.124582e-002
9.546313e+002;7.184891e-002
9.565598e+002;7.307915e-002
9.584883e+002;7.414843e-002
9.604169e+002;7.422324e-002
9.623455e+002;7.360804e-002
9.642740e+002;7.284021e-002
9.662026e+002;7.250390e-002
9.681311e+002;7.248260e-002
9.700596e+002;7.287681e-002
9.719882e+002;7.325780e-002
9.739167e+002;7.297781e-002
9.758453e+002;7.249270e-002
9.777739e+002;7.155053e-002
9.797024e+002;7.055379e-002
9.816309e+002;6.960694e-002
9.835595e+002;6.908591e-002
9.854880e+002;6.897774e-002
9.874166e+002;6.820959e-002
9.893452e+002;6.719855e-002
9.912737e+002;6.638122e-002
9.932022e+002;6.560836e-002
9.951307e+002;6.494041e-002
9.970593e+002;6.479768e-002
9.989879e+002;6.497604e-002
1.000916e+003;6.487077e-002
1.002845e+003;6.483407e-002
1.004773e+003;6.469972e-002
1.006702e+003;6.457929e-002
1.008631e+003;6.488246e-002
1.010559e+003;6.531049e-002
1.012488e+003;6.544376e-002
1.014416e+003;6.535890e-002
1.016345e+003;6.549003e-002
1.018273e+003;6.589614e-002
1.020202e+003;6.685297e-002
1.022130e+003;6.832595e-002
1.024059e+003;6.961752e-002
1.025988e+003;7.009019e-002
1.027916e+003;6.977188e-002
1.029845e+003;6.948308e-002
1.031773e+003;6.930518e-002
1.033702e+003;6.909368e-002
1.035630e+003;6.848823e-002
1.037559e+003;6.747751e-002
1.039487e+003;6.701741e-002
1.041416e+003;6.665502e-002
1.043344e+003;6.625345e-002
1.045273e+003;6.632081e-002
1.047202e+003;6.641725e-002
1.049130e+003;6.698235e-002
1.051059e+003;6.793910e-002
1.052987e+003;6.875409e-002
1.054916e+003;6.944707e-002
1.056844e+003;7.044450e-002
1.058773e+003;7.185803e-002
1.060701e+003;7.321082e-002
1.062630e+003;7.421643e-002
1.064558e+003;7.559711e-002
1.066487e+003;7.702630e-002
1.068416e+003;7.772485e-002
1.070344e+003;7.816407e-002
1.072273e+003;7.883120e-002
1.074201e+003;7.901470e-002
1.076130e+003;7.848188e-002
1.078058e+003;7.799325e-002
1.079987e+003;7.756728e-002
1.081915e+003;7.700612e-002
1.083844e+003;7.655816e-002
1.085773e+003;7.608526e-002
1.087701e+003;7.541477e-002
1.089630e+003;7.449526e-002
1.091558e+003;7.448232e-002
1.093487e+003;7.507867e-002
1.095415e+003;7.517029e-002
1.097344e+003;7.546002e-002
1.099272e+003;7.669662e-002
1.101201e+003;7.799476e-002
1.103129e+003;7.949983e-002
1.105058e+003;8.150893e-002
1.106987e+003;8.364037e-002
1.108915e+003;8.465708e-002
1.110844e+003;8.517750e-002
1.112772e+003;8.574581e-002
1.114701e+003;8.621015e-002
1.116629e+003;8.639599e-002
1.118558e+003;8.656263e-002
1.120486e+003;8.628798e-002
1.122415e+003;8.457784e-002
1.124344e+003;8.165107e-002
1.126272e+003;7.823155e-002
1.128201e+003;7.490917e-002
1.130129e+003;7.271429e-002
1.132058e+003;7.165657e-002
1.133986e+003;7.095420e-002
1.135915e+003;7.035878e-002
1.137843e+003;7.087236e-002
1.139772e+003;7.193834e-002
1.141700e+003;7.313204e-002
1.143629e+003;7.479643e-002
1.145557e+003;7.662151e-002
1.147486e+003;7.843532e-002
1.149415e+003;8.085608e-002
1.151343e+003;8.349850e-002
1.153272e+003;8.620886e-002
1.155200e+003;8.939374e-002
1.157129e+003;9.324442e-002
1.159057e+003;9.802873e-002
1.160986e+003;1.039077e-001
1.162914e+003;1.107060e-001
1.164843e+003;1.169791e-001
1.166771e+003;1.217568e-001
1.168700e+003;1.244961e-001
1.170629e+003;1.237490e-001
1.172557e+003;1.196864e-001
1.174486e+003;1.144872e-001
1.176414e+003;1.087662e-001
1.178343e+003;1.036712e-001
1.180271e+003;1.000649e-001
1.182200e+003;9.827454e-002
1.184128e+003;9.847240e-002
1.186057e+003;1.000614e-001
1.187986e+003;1.022900e-001
1.189914e+003;1.055289e-001
1.191843e+003;1.094086e-001
1.193771e+003;1.136832e-001
1.195700e+003;1.186168e-001
1.197628e+003;1.230018e-001
1.199557e+003;1.251352e-001
1.201485e+003;1.238990e-001
1.203414e+003;1.208376e-001
1.205343e+003;1.183686e-001
1.207271e+003;1.169641e-001
1.209200e+003;1.162538e-001
1.211128e+003;1.160619e-001
1.213057e+003;1.152615e-001
1.214985e+003;1.132745e-001
1.216914e+003;1.102673e-001
1.218842e+003;1.069579e-001
1.220771e+003;1.047451e-001
1.222699e+003;1.048496e-001
1.224628e+003;1.072344e-001
1.226557e+003;1.109257e-001
1.228485e+003;1.154867e-001
1.230414e+003;1.201651e-001
1.232342e+003;1.246749e-001
1.234271e+003;1.285292e-001
1.236199e+003;1.308299e-001
1.238128e+003;1.314203e-001
1.240056e+003;1.311838e-001
1.241985e+003;1.306985e-001
1.243913e+003;1.303055e-001
1.245842e+003;1.305721e-001
1.247771e+003;1.311662e-001
1.249699e+003;1.325754e-001
1.251628e+003;1.351457e-001
1.253556e+003;1.383789e-001
1.255485e+003;1.418787e-001
1.257413e+003;1.446498e-001
1.259342e+003;1.466524e-001
1.261270e+003;1.476378e-001
1.263199e+003;1.464417e-001
1.265127e+003;1.425294e-001
1.267056e+003;1.368033e-001
1.268985e+003;1.312283e-001
1.270913e+003;1.270186e-001
1.272842e+003;1.245164e-001
1.274770e+003;1.234785e-001
1.276699e+003;1.233512e-001
1.278627e+003;1.231357e-001
1.280556e+003;1.218780e-001
1.282484e+003;1.199140e-001
1.284413e+003;1.178815e-001
1.286342e+003;1.159318e-001
1.288270e+003;1.143416e-001
1.290199e+003;1.134979e-001
1.292127e+003;1.130448e-001
1.294056e+003;1.124110e-001
1.295984e+003;1.119538e-001
1.297913e+003;1.115673e-001
1.299841e+003;1.112353e-001
1.301770e+003;1.108823e-001
1.303698e+003;1.102920e-001
1.305627e+003;1.095671e-001
1.307556e+003;1.086350e-001
1.309484e+003;1.076858e-001
1.311413e+003;1.068164e-001
1.313341e+003;1.059390e-001
1.315270e+003;1.052040e-001
1.317198e+003;1.041951e-001
1.319127e+003;1.030965e-001
1.321055e+003;1.024000e-001
1.322984e+003;1.018139e-001
1.324912e+003;1.014323e-001
1.326841e+003;1.016424e-001
1.328770e+003;1.022436e-001
1.330698e+003;1.028618e-001
1.332627e+003;1.029085e-001
1.334555e+003;1.029985e-001
1.336484e+003;1.033286e-001
1.338412e+003;1.039462e-001
1.340341e+003;1.048192e-001
1.342269e+003;1.057869e-001
1.344198e+003;1.065205e-001
1.346126e+003;1.073491e-001
1.348055e+003;1.083391e-001
1.349984e+003;1.095590e-001
1.351912e+003;1.111604e-001
1.353841e+003;1.129772e-001
1.355769e+003;1.147358e-001
1.357698e+003;1.163280e-001
1.359626e+003;1.178037e-001
1.361555e+003;1.193482e-001
1.363483e+003;1.210337e-001
1.365412e+003;1.228573e-001
1.367341e+003;1.245741e-001
1.369269e+003;1.260645e-001
1.371198e+003;1.267061e-001
1.373126e+003;1.262278e-001
1.375055e+003;1.251173e-001
1.376983e+003;1.228614e-001
1.378912e+003;1.196127e-001
1.380840e+003;1.162851e-001
1.382769e+003;1.128948e-001
1.384698e+003;1.094516e-001
1.386626e+003;1.060107e-001
1.388555e+003;1.036231e-001
1.390483e+003;1.020157e-001
1.392412e+003;1.004839e-001
1.394340e+003;9.904785e-002
1.396269e+003;9.870186e-002
1.398197e+003;9.935572e-002
1.400126e+003;1.009792e-001
1.402054e+003;1.032125e-001
1.403983e+003;1.059886e-001
1.405911e+003;1.099164e-001
1.407840e+003;1.152274e-001
1.409769e+003;1.214469e-001
1.411697e+003;1.279077e-001
1.413626e+003;1.335691e-001
1.415554e+003;1.370507e-001
1.417483e+003;1.376621e-001
1.419411e+003;1.361037e-001
1.421340e+003;1.339759e-001
1.423268e+003;1.315846e-001
1.425197e+003;1.301313e-001
1.427125e+003;1.305543e-001
1.429054e+003;1.326288e-001
1.430983e+003;1.357042e-001
1.432911e+003;1.382046e-001
1.434840e+003;1.388317e-001
1.436768e+003;1.382299e-001
1.438697e+003;1.380550e-001
1.440625e+003;1.373952e-001
1.442554e+003;1.362330e-001
1.444482e+003;1.352719e-001
1.446411e+003;1.350580e-001
1.448340e+003;1.359628e-001
1.450268e+003;1.379381e-001
1.452197e+003;1.401555e-001
1.454125e+003;1.421694e-001
1.456054e+003;1.439604e-001
1.457982e+003;1.481122e-001
1.459911e+003;1.538781e-001
1.461839e+003;1.572752e-001
1.463768e+003;1.553565e-001
1.465697e+003;1.491537e-001
1.467625e+003;1.419887e-001
1.469554e+003;1.355712e-001
1.471482e+003;1.315701e-001
1.473411e+003;1.308645e-001
1.475339e+003;1.311171e-001
1.477268e+003;1.297177e-001
1.479196e+003;1.261118e-001
1.481125e+003;1.205282e-001
1.483053e+003;1.145059e-001
1.484982e+003;1.096616e-001
1.486911e+003;1.070975e-001
1.488839e+003;1.065815e-001
1.490768e+003;1.079552e-001
1.492696e+003;1.107146e-001
1.494625e+003;1.132743e-001
1.496553e+003;1.163734e-001
1.498482e+003;1.210841e-001
1.500410e+003;1.265202e-001
1.502339e+003;1.319227e-001
1.504267e+003;1.364661e-001
1.506196e+003;1.413656e-001
1.508125e+003;1.489165e-001
1.510053e+003;1.573439e-001
1.511982e+003;1.653162e-001
1.513910e+003;1.733358e-001
1.515839e+003;1.813868e-001
1.517767e+003;1.901175e-001
1.519696e+003;1.992063e-001
1.521624e+003;2.090900e-001
1.523553e+003;2.203825e-001
1.525481e+003;2.313304e-001
1.527410e+003;2.420060e-001
1.529339e+003;2.523648e-001
1.531267e+003;2.617941e-001
1.533196e+003;2.700323e-001
1.535124e+003;2.768291e-001
1.537053e+003;2.802970e-001
1.538981e+003;2.794849e-001
1.540910e+003;2.773522e-001
1.542838e+003;2.736133e-001
1.544767e+003;2.670194e-001
1.546695e+003;2.585631e-001
1.548624e+003;2.486828e-001
1.550553e+003;2.379542e-001
1.552481e+003;2.273110e-001
1.554410e+003;2.167801e-001
1.556338e+003;2.062683e-001
1.558267e+003;1.950590e-001
1.560195e+003;1.861370e-001
1.562124e+003;1.792380e-001
1.564052e+003;1.711075e-001
1.565981e+003;1.622347e-001
1.567910e+003;1.532962e-001
1.569838e+003;1.446915e-001
1.571767e+003;1.375716e-001
1.573695e+003;1.305449e-001
1.575624e+003;1.232103e-001
1.577552e+003;1.181763e-001
1.579481e+003;1.146766e-001
1.581409e+003;1.113557e-001
1.583338e+003;1.087080e-001
1.585266e+003;1.069334e-001
1.587195e+003;1.061645e-001
1.589124e+003;1.061110e-001
1.591052e+003;1.068728e-001
1.592981e+003;1.086966e-001
1.594909e+003;1.112111e-001
1.596838e+003;1.140734e-001
1.598766e+003;1.181695e-001
1.600695e+003;1.232283e-001
1.602623e+003;1.293243e-001
1.604552e+003;1.366391e-001
1.606480e+003;1.444459e-001
1.608409e+003;1.530785e-001
1.610338e+003;1.625762e-001
1.612266e+003;1.730403e-001
1.614195e+003;1.845008e-001
1.616123e+003;1.975332e-001
1.618052e+003;2.140325e-001
1.619980e+003;2.314319e-001
1.621909e+003;2.480955e-001
1.623837e+003;2.649611e-001
1.625766e+003;2.815059e-001
1.627694e+003;2.975180e-001
1.629623e+003;3.134620e-001
1.631552e+003;3.283244e-001
1.633480e+003;3.389159e-001
1.635409e+003;3.440687e-001
1.637337e+003;3.430898e-001
1.639266e+003;3.338199e-001
1.641194e+003;3.180674e-001
1.643123e+003;2.987279e-001
1.645051e+003;2.773491e-001
1.646980e+003;2.566607e-001
1.648909e+003;2.384432e-001
1.650837e+003;2.207238e-001
1.652766e+003;2.041475e-001
1.654694e+003;1.928419e-001
1.656623e+003;1.835902e-001
1.658551e+003;1.737823e-001
1.660480e+003;1.638637e-001
1.662408e+003;1.539071e-001
1.664337e+003;1.446639e-001
1.666266e+003;1.356958e-001
1.668194e+003;1.263475e-001
1.670123e+003;1.179136e-001
1.672051e+003;1.109051e-001
1.673980e+003;1.038466e-001
1.675908e+003;9.684855e-002
1.677837e+003;9.031232e-002
1.679765e+003;8.304114e-002
1.681694e+003;7.528143e-002
1.683622e+003;6.749930e-002
1.685551e+003;6.236444e-002
1.687479e+003;5.920494e-002
1.689408e+003;5.585226e-002
1.691337e+003;5.297351e-002
1.693265e+003;5.014908e-002
1.695194e+003;4.728101e-002
1.697122e+003;4.620525e-002
1.699051e+003;4.499453e-002
1.700979e+003;4.432989e-002
1.702908e+003;4.517513e-002
1.704836e+003;4.503614e-002
1.706765e+003;4.507263e-002
1.708693e+003;4.520833e-002
1.710622e+003;4.530188e-002
1.712551e+003;4.501798e-002
1.714479e+003;4.430020e-002
1.716408e+003;4.342707e-002
1.718336e+003;4.381511e-002
1.720265e+003;4.516321e-002
1.722193e+003;4.576548e-002
1.724122e+003;4.603904e-002
1.726050e+003;4.656214e-002
1.727979e+003;4.672590e-002
1.729908e+003;4.632339e-002
1.731836e+003;4.515656e-002
1.733765e+003;4.402733e-002
1.735693e+003;4.469585e-002
1.737622e+003;4.517483e-002
1.739550e+003;4.465979e-002
1.741479e+003;4.415048e-002
1.743407e+003;4.334227e-002
1.745336e+003;4.248944e-002
1.747265e+003;4.125663e-002
1.749193e+003;3.996943e-002
1.751122e+003;3.901863e-002
1.753050e+003;3.852767e-002
1.754979e+003;3.766530e-002
1.756907e+003;3.682930e-002
1.758836e+003;3.638893e-002
1.760764e+003;3.539838e-002
1.762693e+003;3.468644e-002
1.764621e+003;3.445516e-002
1.766550e+003;3.378065e-002
1.768479e+003;3.308076e-002
1.770407e+003;3.235240e-002
1.772336e+003;3.176406e-002
1.774264e+003;3.211609e-002
1.776193e+003;3.228612e-002
1.778121e+003;3.203885e-002
1.780050e+003;3.178409e-002
1.781978e+003;3.140908e-002
1.783907e+003;3.086181e-002
1.785835e+003;3.083606e-002
1.787764e+003;3.097097e-002
1.789693e+003;3.044988e-002
1.791621e+003;2.964545e-002
1.793550e+003;2.975164e-002
1.795478e+003;3.008244e-002
1.797407e+003;2.973553e-002
1.799335e+003;2.928904e-002
1.801264e+003;2.900954e-002
1.803192e+003;2.910554e-002
1.805121e+003;2.930659e-002
1.807049e+003;2.931237e-002
1.808978e+003;2.893346e-002
1.810907e+003;2.871715e-002
1.812835e+003;2.883079e-002
1.814764e+003;2.895464e-002
1.816692e+003;2.876657e-002
1.818621e+003;2.863875e-002
1.820549e+003;2.861309e-002
1.822478e+003;2.862682e-002
1.824406e+003;2.832397e-002
1.826335e+003;2.820102e-002
1.828264e+003;2.811681e-002
1.830192e+003;2.809595e-002
1.832121e+003;2.839362e-002
1.834049e+003;2.854412e-002
1.835978e+003;2.839273e-002
1.837906e+003;2.818490e-002
1.839835e+003;2.804244e-002
1.841763e+003;2.772191e-002
1.843692e+003;2.741165e-002
1.845620e+003;2.770298e-002
1.847549e+003;2.771435e-002
1.849478e+003;2.749897e-002
1.851406e+003;2.749527e-002
1.853335e+003;2.734837e-002
1.855263e+003;2.706324e-002
1.857192e+003;2.694307e-002
1.859120e+003;2.687810e-002
1.861049e+003;2.697558e-002
1.862977e+003;2.722213e-002
1.864906e+003;2.720086e-002
1.866834e+003;2.698291e-002
1.868763e+003;2.692700e-002
1.870692e+003;2.697361e-002
1.872620e+003;2.705936e-002
1.874549e+003;2.731965e-002
1.876477e+003;2.757872e-002
1.878406e+003;2.752450e-002
1.880334e+003;2.718806e-002
1.882263e+003;2.712594e-002
1.884191e+003;2.728080e-002
1.886120e+003;2.734432e-002
1.888048e+003;2.745337e-002
1.889977e+003;2.758624e-002
1.891906e+003;2.763970e-002
1.893834e+003;2.768172e-002
1.895763e+003;2.761696e-002
1.897691e+003;2.755214e-002
1.899620e+003;2.757777e-002
1.901548e+003;2.761894e-002
1.903477e+003;2.762554e-002
1.905405e+003;2.737780e-002
1.907334e+003;2.731341e-002
1.909262e+003;2.746907e-002
1.911191e+003;2.727752e-002
1.913120e+003;2.703683e-002
1.915048e+003;2.696528e-002
1.916977e+003;2.684243e-002
1.918905e+003;2.688050e-002
1.920834e+003;2.701852e-002
1.922762e+003;2.702329e-002
1.924691e+003;2.697283e-002
1.926619e+003;2.710951e-002
1.928548e+003;2.738624e-002
1.930477e+003;2.734972e-002
1.932405e+003;2.710051e-002
1.934334e+003;2.699804e-002
1.936262e+003;2.709723e-002
1.938191e+003;2.712601e-002
1.940119e+003;2.685001e-002
1.942048e+003;2.659158e-002
1.943976e+003;2.676310e-002
1.945905e+003;2.717352e-002
1.947833e+003;2.713271e-002
1.949762e+003;2.698178e-002
1.951691e+003;2.689580e-002
1.953619e+003;2.694945e-002
1.955548e+003;2.700407e-002
1.957476e+003;2.714626e-002
1.959405e+003;2.723815e-002
1.961333e+003;2.740554e-002
1.963262e+003;2.750437e-002
1.965190e+003;2.744910e-002
1.967119e+003;2.751984e-002
1.969047e+003;2.759119e-002
1.970976e+003;2.746509e-002
1.972905e+003;2.743551e-002
1.974833e+003;2.757096e-002
1.976762e+003;2.761975e-002
1.978690e+003;2.764133e-002
1.980619e+003;2.779139e-002
1.982547e+003;2.780379e-002
1.984476e+003;2.750804e-002
1.986404e+003;2.744087e-002
1.988333e+003;2.754681e-002
1.990261e+003;2.752220e-002
1.992190e+003;2.741066e-002
1.994119e+003;2.726341e-002
1.996047e+003;2.735204e-002
1.997976e+003;2.749241e-002
1.999904e+003;2.749174e-002
2.001833e+003;2.747303e-002
2.003761e+003;2.759895e-002
2.005690e+003;2.770175e-002
2.007618e+003;2.768794e-002
2.009547e+003;2.768642e-002
2.011476e+003;2.767395e-002
2.013404e+003;2.784706e-002
2.015333e+003;2.804198e-002
2.017261e+003;2.792811e-002
2.019190e+003;2.779750e-002
2.021118e+003;2.786063e-002
2.023047e+003;2.792857e-002
2.024975e+003;2.802738e-002
2.026904e+003;2.802077e-002
2.028833e+003;2.803106e-002
2.030761e+003;2.814350e-002
2.032690e+003;2.824115e-002
2.034618e+003;2.834852e-002
2.036547e+003;2.832511e-002
2.038475e+003;2.844328e-002
2.040404e+003;2.863457e-002
2.042332e+003;2.869623e-002
2.044261e+003;2.866858e-002
2.046189e+003;2.862431e-002
2.048118e+003;2.863761e-002
2.050047e+003;2.873368e-002
2.051975e+003;2.880505e-002
2.053904e+003;2.875938e-002
2.055832e+003;2.906537e-002
2.057761e+003;2.931705e-002
2.059689e+003;2.892414e-002
2.061618e+003;2.868129e-002
2.063546e+003;2.883055e-002
2.065475e+003;2.908000e-002
2.067404e+003;2.905683e-002
2.069332e+003;2.888501e-002
2.071260e+003;2.890339e-002
2.073189e+003;2.903150e-002
2.075118e+003;2.887481e-002
2.077046e+003;2.872285e-002
2.078975e+003;2.873166e-002
2.080903e+003;2.860987e-002
2.082832e+003;2.861624e-002
2.084760e+003;2.872044e-002
2.086689e+003;2.856061e-002
2.088617e+003;2.842266e-002
2.090546e+003;2.835750e-002
2.092475e+003;2.827892e-002
2.094403e+003;2.821831e-002
2.096332e+003;2.830668e-002
2.098260e+003;2.845061e-002
2.100189e+003;2.835835e-002
2.102117e+003;2.826750e-002
2.104046e+003;2.834724e-002
2.105974e+003;2.840582e-002
2.107903e+003;2.845156e-002
2.109832e+003;2.847856e-002
2.111760e+003;2.856885e-002
2.113688e+003;2.871651e-002
2.115617e+003;2.877517e-002
2.117546e+003;2.886521e-002
2.119474e+003;2.888720e-002
2.121403e+003;2.882159e-002
2.123331e+003;2.883572e-002
2.125260e+003;2.892478e-002
2.127188e+003;2.910101e-002
2.129117e+003;2.925466e-002
2.131045e+003;2.938128e-002
2.132974e+003;2.946308e-002
2.134903e+003;2.931666e-002
2.136831e+003;2.898846e-002
2.138760e+003;2.888444e-002
2.140688e+003;2.903618e-002
2.142617e+003;2.927731e-002
2.144545e+003;2.942525e-002
2.146474e+003;2.937355e-002
2.148402e+003;2.926820e-002
2.150331e+003;2.928504e-002
2.152260e+003;2.935647e-002
2.154188e+003;2.937441e-002
2.156117e+003;2.951893e-002
2.158045e+003;2.966418e-002
2.159974e+003;2.971311e-002
2.161902e+003;2.971903e-002
2.163831e+003;2.960136e-002
2.165759e+003;2.957529e-002
2.167688e+003;2.962491e-002
2.169616e+003;2.972038e-002
2.171545e+003;2.988788e-002
2.173474e+003;2.988569e-002
2.175402e+003;2.967855e-002
2.177331e+003;2.952042e-002
2.179259e+003;2.956695e-002
2.181188e+003;2.952181e-002
2.183116e+003;2.962885e-002
2.185045e+003;2.970055e-002
2.186973e+003;2.977457e-002
2.188902e+003;2.995270e-002
2.190831e+003;3.011625e-002
2.192759e+003;3.033261e-002
2.194688e+003;3.038548e-002
2.196616e+003;3.004029e-002
2.198545e+003;2.987671e-002
2.200473e+003;2.992793e-002
2.202402e+003;2.997670e-002
2.204330e+003;2.985200e-002
2.206259e+003;2.951904e-002
2.208188e+003;2.939366e-002
2.210116e+003;2.944503e-002
2.212044e+003;2.956462e-002
2.213973e+003;2.951372e-002
2.215902e+003;2.925845e-002
2.217830e+003;2.908602e-002
2.219759e+003;2.907430e-002
2.221687e+003;2.914112e-002
2.223616e+003;2.915012e-002
2.225544e+003;2.906034e-002
2.227473e+003;2.887938e-002
2.229401e+003;2.866253e-002
2.231330e+003;2.861783e-002
2.233259e+003;2.846168e-002
2.235187e+003;2.838792e-002
2.237116e+003;2.868696e-002
2.239044e+003;2.893363e-002
2.240973e+003;2.879734e-002
2.242901e+003;2.867527e-002
2.244830e+003;2.888157e-002
2.246758e+003;2.875428e-002
2.248687e+003;2.853644e-002
2.250615e+003;2.868041e-002
2.252544e+003;2.898917e-002
2.254473e+003;2.922404e-002
2.256401e+003;2.926749e-002
2.258330e+003;2.927756e-002
2.260258e+003;2.902569e-002
2.262187e+003;2.890601e-002
2.264115e+003;2.913492e-002
2.266044e+003;2.920033e-002
2.267972e+003;2.921132e-002
2.269901e+003;2.925998e-002
2.271830e+003;2.922950e-002
2.273758e+003;2.921660e-002
2.275687e+003;2.926058e-002
2.277615e+003;2.945606e-002
2.279544e+003;2.944723e-002
2.281472e+003;2.932463e-002
2.283401e+003;2.937873e-002
2.285329e+003;2.956568e-002
2.287258e+003;2.977368e-002
2.289187e+003;2.972869e-002
2.291115e+003;2.949333e-002
2.293043e+003;2.954536e-002
2.294972e+003;2.977329e-002
2.296901e+003;2.991603e-002
2.298829e+003;2.987362e-002
2.300758e+003;3.004853e-002
2.302686e+003;3.016355e-002
2.304615e+003;2.996612e-002
2.306543e+003;2.988657e-002
2.308472e+003;3.005151e-002
2.310400e+003;3.011248e-002
2.312329e+003;3.012282e-002
2.314258e+003;3.027694e-002
2.316186e+003;3.030877e-002
2.318115e+003;3.003141e-002
2.320043e+003;2.993598e-002
2.321972e+003;3.000159e-002
2.323900e+003;2.987149e-002
2.325829e+003;2.985342e-002
2.327757e+003;3.000088e-002
2.329686e+003;2.979827e-002
2.331615e+003;2.984771e-002
2.333543e+003;3.021189e-002
2.335472e+003;3.010648e-002
2.337400e+003;2.984277e-002
2.339329e+003;2.977804e-002
2.341257e+003;2.972720e-002
2.343186e+003;2.974540e-002
2.345114e+003;2.968838e-002
2.347043e+003;2.964059e-002
2.348971e+003;2.982414e-002
2.350900e+003;3.005062e-002
2.352829e+003;3.003507e-002
2.354757e+003;2.973578e-002
2.356686e+003;2.955397e-002
2.358614e+003;2.974323e-002
2.360543e+003;2.986641e-002
2.362471e+003;2.980519e-002
2.364400e+003;2.992093e-002
2.366328e+003;3.034014e-002
2.368257e+003;3.032249e-002
2.370186e+003;3.019108e-002
2.372114e+003;3.038150e-002
2.374042e+003;3.065055e-002
2.375971e+003;3.071264e-002
2.377900e+003;3.065962e-002
2.379828e+003;3.061130e-002
2.381757e+003;3.068995e-002
2.383685e+003;3.092482e-002
2.385614e+003;3.103751e-002
2.387542e+003;3.098097e-002
2.389471e+003;3.089671e-002
2.391399e+003;3.088390e-002
2.393328e+003;3.092589e-002
2.395257e+003;3.078754e-002
2.397185e+003;3.085623e-002
2.399114e+003;3.111101e-002
2.401042e+003;3.103453e-002
2.402971e+003;3.079778e-002
2.404899e+003;3.080081e-002
2.406828e+003;3.090525e-002
2.408756e+003;3.095873e-002
2.410685e+003;3.086192e-002
2.412614e+003;3.072654e-002
2.414542e+003;3.078608e-002
2.416471e+003;3.112614e-002
2.418399e+003;3.128877e-002
2.420328e+003;3.130953e-002
2.422256e+003;3.128852e-002
2.424185e+003;3.144395e-002
2.426113e+003;3.139262e-002
2.428042e+003;3.117943e-002
2.429970e+003;3.128521e-002
2.431899e+003;3.142696e-002
2.433828e+003;3.139273e-002
2.435756e+003;3.149511e-002
2.437685e+003;3.165011e-002
2.439613e+003;3.177308e-002
2.441542e+003;3.209871e-002
2.443470e+003;3.229126e-002
2.445399e+003;3.232792e-002
2.447327e+003;3.247722e-002
2.449256e+003;3.270105e-002
2.451185e+003;3.271623e-002
2.453113e+003;3.261110e-002
2.455042e+003;3.261614e-002
2.456970e+003;3.266000e-002
2.458899e+003;3.286034e-002
2.460827e+003;3.314921e-002
2.462756e+003;3.320188e-002
2.464684e+003;3.318822e-002
2.466613e+003;3.320331e-002
2.468542e+003;3.340019e-002
2.470470e+003;3.369757e-002
2.472398e+003;3.368067e-002
2.474327e+003;3.385057e-002
2.476256e+003;3.391831e-002
2.478184e+003;3.366717e-002
2.480113e+003;3.359206e-002
2.482041e+003;3.370240e-002
2.483970e+003;3.379326e-002
2.485898e+003;3.389566e-002
2.487827e+003;3.380726e-002
2.489755e+003;3.381335e-002
2.491684e+003;3.370097e-002
2.493613e+003;3.372156e-002
2.495541e+003;3.379605e-002
2.497470e+003;3.376529e-002
2.499398e+003;3.370921e-002
2.501327e+003;3.369531e-002
2.503255e+003;3.376342e-002
2.505184e+003;3.384799e-002
2.507112e+003;3.392261e-002
2.509041e+003;3.417658e-002
2.510969e+003;3.449032e-002
2.512898e+003;3.475205e-002
2.514827e+003;3.476960e-002
2.516755e+003;3.460731e-002
2.518684e+003;3.470758e-002
2.520612e+003;3.490847e-002
2.522541e+003;3.486617e-002
2.524469e+003;3.490772e-002
2.526398e+003;3.519353e-002
2.528326e+003;3.565728e-002
2.530255e+003;3.580852e-002
2.532184e+003;3.579449e-002
2.534112e+003;3.590007e-002
2.536041e+003;3.604427e-002
2.537969e+003;3.603256e-002
2.539898e+003;3.600409e-002
2.541826e+003;3.614353e-002
2.543755e+003;3.658718e-002
2.545683e+003;3.690696e-002
2.547612e+003;3.677582e-002
2.549541e+003;3.660859e-002
2.551469e+003;3.646168e-002
2.553397e+003;3.647801e-002
2.555326e+003;3.643855e-002
2.557255e+003;3.639074e-002
2.559183e+003;3.650367e-002
2.561112e+003;3.658798e-002
2.563040e+003;3.667406e-002
2.564969e+003;3.681022e-002
2.566897e+003;3.682952e-002
2.568826e+003;3.675241e-002
2.570754e+003;3.691919e-002
2.572683e+003;3.728495e-002
2.574612e+003;3.715012e-002
2.576540e+003;3.700094e-002
2.578469e+003;3.733203e-002
2.580397e+003;3.755600e-002
2.582326e+003;3.755409e-002
2.584254e+003;3.778485e-002
2.586183e+003;3.808193e-002
2.588111e+003;3.811658e-002
2.590040e+003;3.807136e-002
2.591969e+003;3.799849e-002
2.593897e+003;3.813040e-002
2.595826e+003;3.841548e-002
2.597754e+003;3.841309e-002
2.599683e+003;3.824346e-002
2.601611e+003;3.851264e-002
2.603540e+003;3.877366e-002
2.605468e+003;3.866325e-002
2.607397e+003;3.845920e-002
2.609325e+003;3.847807e-002
2.611254e+003;3.852224e-002
2.613183e+003;3.861570e-002
2.615111e+003;3.877297e-002
2.617040e+003;3.875950e-002
2.618968e+003;3.887182e-002
2.620897e+003;3.908527e-002
2.622825e+003;3.919567e-002
2.624754e+003;3.921649e-002
2.626682e+003;3.909027e-002
2.628611e+003;3.907015e-002
2.630540e+003;3.918777e-002
2.632468e+003;3.933186e-002
2.634396e+003;3.965008e-002
2.636325e+003;3.978354e-002
2.638254e+003;3.986754e-002
2.640182e+003;3.992446e-002
2.642111e+003;3.972929e-002
2.644039e+003;3.967128e-002
2.645968e+003;3.974450e-002
2.647896e+003;3.991755e-002
2.649825e+003;4.023096e-002
2.651753e+003;4.018138e-002
2.653682e+003;4.005136e-002
2.655611e+003;4.025321e-002
2.657539e+003;4.044322e-002
2.659468e+003;4.052892e-002
2.661396e+003;4.083938e-002
2.663325e+003;4.091292e-002
2.665253e+003;4.081175e-002
2.667182e+003;4.081364e-002
2.669110e+003;4.097641e-002
2.671039e+003;4.098424e-002
2.672968e+003;4.085084e-002
2.674896e+003;4.106713e-002
2.676825e+003;4.143549e-002
2.678753e+003;4.170418e-002
2.680682e+003;4.156302e-002
2.682610e+003;4.146462e-002
2.684539e+003;4.138472e-002
2.686467e+003;4.143677e-002
2.688396e+003;4.195092e-002
2.690324e+003;4.239938e-002
2.692253e+003;4.252126e-002
2.694182e+003;4.255726e-002
2.696110e+003;4.249411e-002
2.698039e+003;4.250902e-002
2.699967e+003;4.294701e-002
2.701896e+003;4.326126e-002
2.703824e+003;4.343102e-002
2.705753e+003;4.368750e-002
2.707681e+003;4.366757e-002
2.709610e+003;4.361071e-002
2.711539e+003;4.393009e-002
2.713467e+003;4.426696e-002
2.715396e+003;4.446443e-002
2.717324e+003;4.473636e-002
2.719253e+003;4.523767e-002
2.721181e+003;4.547293e-002
2.723110e+003;4.549529e-002
2.725038e+003;4.574656e-002
2.726967e+003;4.636065e-002
2.728896e+003;4.674343e-002
2.730824e+003;4.694852e-002
2.732752e+003;4.749047e-002
2.734681e+003;4.770335e-002
2.736610e+003;4.755368e-002
2.738538e+003;4.753605e-002
2.740467e+003;4.776615e-002
2.742395e+003;4.825298e-002
2.744324e+003;4.852673e-002
2.746252e+003;4.835959e-002
2.748181e+003;4.823643e-002
2.750109e+003;4.837485e-002
2.752038e+003;4.839841e-002
2.753967e+003;4.850706e-002
2.755895e+003;4.856783e-002
2.757824e+003;4.876459e-002
2.759752e+003;4.905003e-002
2.761681e+003;4.913187e-002
2.763609e+003;4.914957e-002
2.765538e+003;4.948326e-002
2.767466e+003;4.971258e-002
2.769395e+003;4.981465e-002
2.771323e+003;5.001685e-002
2.773252e+003;5.027353e-002
2.775181e+003;5.063375e-002
2.777109e+003;5.085846e-002
2.779038e+003;5.086520e-002
2.780966e+003;5.088450e-002
2.782895e+003;5.115526e-002
2.784823e+003;5.193025e-002
2.786752e+003;5.244828e-002
2.788680e+003;5.255529e-002
2.790609e+003;5.290337e-002
2.792538e+003;5.314843e-002
2.794466e+003;5.337819e-002
2.796395e+003;5.369142e-002
2.798323e+003;5.379619e-002
2.800252e+003;5.409884e-002
2.802180e+003;5.474009e-002
2.804109e+003;5.522449e-002
2.806037e+003;5.567406e-002
2.807966e+003;5.632599e-002
2.809895e+003;5.678301e-002
2.811823e+003;5.719428e-002
2.813751e+003;5.804315e-002
2.815680e+003;5.864550e-002
2.817609e+003;5.908314e-002
2.819537e+003;5.985538e-002
2.821466e+003;6.059201e-002
2.823394e+003;6.103040e-002
2.825323e+003;6.147247e-002
2.827251e+003;6.198654e-002
2.829180e+003;6.278544e-002
2.831108e+003;6.375578e-002
2.833037e+003;6.483579e-002
2.834966e+003;6.619584e-002
2.836894e+003;6.816590e-002
2.838823e+003;7.078644e-002
2.840751e+003;7.425099e-002
2.842680e+003;7.857887e-002
2.844608e+003;8.379059e-002
2.846537e+003;8.951727e-002
2.848465e+003;9.515287e-002
2.850394e+003;1.002160e-001
2.852323e+003;1.037704e-001
2.854251e+003;1.061587e-001
2.856180e+003;1.082318e-001
2.858108e+003;1.097389e-001
2.860037e+003;1.102921e-001
2.861965e+003;1.097688e-001
2.863894e+003;1.084203e-001
2.865822e+003;1.064762e-001
2.867751e+003;1.041946e-001
2.869679e+003;1.017998e-001
2.871608e+003;9.899704e-002
2.873536e+003;9.596560e-002
2.875465e+003;9.281562e-002
2.877394e+003;8.982932e-002
2.879322e+003;8.776519e-002
2.881251e+003;8.655126e-002
2.883179e+003;8.597668e-002
2.885108e+003;8.578703e-002
2.887036e+003;8.601845e-002
2.888965e+003;8.700205e-002
2.890893e+003;8.849484e-002
2.892822e+003;9.048182e-002
2.894750e+003;9.233863e-002
2.896679e+003;9.428492e-002
2.898608e+003;9.634329e-002
2.900536e+003;9.795682e-002
2.902465e+003;9.946394e-002
2.904393e+003;1.011933e-001
2.906322e+003;1.032763e-001
2.908250e+003;1.055793e-001
2.910179e+003;1.081176e-001
2.912107e+003;1.114323e-001
2.914036e+003;1.151281e-001
2.915965e+003;1.194482e-001
2.917893e+003;1.238319e-001
2.919822e+003;1.274077e-001
2.921750e+003;1.305885e-001
2.923679e+003;1.332906e-001
2.925607e+003;1.352271e-001
2.927536e+003;1.368879e-001
2.929464e+003;1.381652e-001
2.931393e+003;1.384131e-001
2.933322e+003;1.381678e-001
2.935250e+003;1.371306e-001
2.937178e+003;1.348258e-001
2.939107e+003;1.315008e-001
2.941036e+003;1.280317e-001
2.942964e+003;1.243017e-001
2.944893e+003;1.197368e-001
2.946821e+003;1.147013e-001
2.948750e+003;1.093468e-001
2.950678e+003;1.035133e-001
2.952607e+003;9.774692e-002
2.954535e+003;9.273218e-002
2.956464e+003;8.796285e-002
2.958393e+003;8.348541e-002
2.960321e+003;7.988919e-002
2.962250e+003;7.672366e-002
2.964178e+003;7.378409e-002
2.966107e+003;7.088071e-002
2.968035e+003;6.807558e-002
2.969964e+003;6.586182e-002
2.971892e+003;6.397310e-002
2.973821e+003;6.188080e-002
2.975750e+003;5.973899e-002
2.977678e+003;5.795245e-002
2.979607e+003;5.654804e-002
2.981535e+003;5.523311e-002
2.983464e+003;5.427556e-002
2.985392e+003;5.322996e-002
2.987321e+003;5.218541e-002
2.989249e+003;5.138927e-002
2.991178e+003;5.081331e-002
2.993106e+003;5.056711e-002
2.995035e+003;5.037507e-002
2.996964e+003;5.020903e-002
2.998892e+003;4.995347e-002
3.000821e+003;4.969575e-002
3.002749e+003;4.956270e-002
3.004678e+003;4.964560e-002
3.006606e+003;4.959794e-002
3.008535e+003;4.944193e-002
3.010463e+003;4.953770e-002
3.012392e+003;4.996830e-002
3.014321e+003;5.013264e-002
3.016249e+003;5.029273e-002
3.018177e+003;5.044276e-002
3.020106e+003;5.069906e-002
3.022035e+003;5.101125e-002
3.023963e+003;5.141832e-002
3.025892e+003;5.171499e-002
3.027820e+003;5.190669e-002
3.029749e+003;5.249041e-002
3.031677e+003;5.323329e-002
3.033606e+003;5.371692e-002
3.035534e+003;5.409174e-002
3.037463e+003;5.469044e-002
3.039392e+003;5.563150e-002
3.041320e+003;5.630863e-002
3.043249e+003;5.652668e-002
3.045177e+003;5.711045e-002
3.047106e+003;5.814632e-002
3.049034e+003;5.903926e-002
3.050963e+003;5.975667e-002
3.052891e+003;6.056317e-002
3.054820e+003;6.141651e-002
3.056749e+003;6.214150e-002
3.058677e+003;6.268498e-002
3.060606e+003;6.318385e-002
3.062534e+003;6.370474e-002
3.064463e+003;6.409433e-002
3.066391e+003;6.457705e-002
3.068320e+003;6.507245e-002
3.070248e+003;6.501468e-002
3.072177e+003;6.466349e-002
3.074105e+003;6.476782e-002
3.076034e+003;6.526925e-002
3.077963e+003;6.540216e-002
3.079891e+003;6.520930e-002
3.081820e+003;6.495003e-002
3.083748e+003;6.478925e-002
3.085677e+003;6.448971e-002
3.087605e+003;6.427106e-002
3.089534e+003;6.394400e-002
3.091462e+003;6.338487e-002
3.093391e+003;6.283847e-002
3.095320e+003;6.218451e-002
3.097248e+003;6.155562e-002
3.099177e+003;6.095116e-002
3.101105e+003;6.037435e-002
3.103034e+003;5.976541e-002
3.104962e+003;5.920844e-002
3.106891e+003;5.835574e-002
3.108819e+003;5.758658e-002
3.110748e+003;5.719976e-002
3.112677e+003;5.657322e-002
3.114605e+003;5.593758e-002
3.116533e+003;5.536912e-002
3.118462e+003;5.502824e-002
3.120391e+003;5.499179e-002
3.122319e+003;5.488181e-002
3.124248e+003;5.449402e-002
3.126176e+003;5.442471e-002
3.128105e+003;5.466511e-002
3.130033e+003;5.448049e-002
3.131962e+003;5.425161e-002
3.133890e+003;5.434705e-002
3.135819e+003;5.419774e-002
3.137748e+003;5.383651e-002
3.139676e+003;5.404874e-002
3.141605e+003;5.427428e-002
3.143533e+003;5.415573e-002
3.145462e+003;5.432129e-002
3.147390e+003;5.477226e-002
3.149319e+003;5.515549e-002
3.151247e+003;5.525851e-002
3.153176e+003;5.517599e-002
3.155104e+003;5.540661e-002
3.157033e+003;5.583651e-002
3.158962e+003;5.627163e-002
3.160890e+003;5.680861e-002
3.162819e+003;5.732671e-002
3.164747e+003;5.764053e-002
3.166676e+003;5.790702e-002
3.168604e+003;5.807151e-002
3.170533e+003;5.851787e-002
3.172461e+003;5.929362e-002
3.174390e+003;6.005418e-002
3.176319e+003;6.028286e-002
3.178247e+003;6.111269e-002
3.180176e+003;6.226798e-002
3.182104e+003;6.271029e-002
3.184033e+003;6.310959e-002
3.185961e+003;6.397495e-002
3.187890e+003;6.443759e-002
3.189818e+003;6.438775e-002
3.191747e+003;6.493456e-002
3.193676e+003;6.543748e-002
3.195604e+003;6.561472e-002
3.197532e+003;6.599132e-002
3.199461e+003;6.688161e-002
3.201390e+003;6.746037e-002
3.203318e+003;6.778082e-002
3.205247e+003;6.820463e-002
3.207175e+003;6.841794e-002
3.209104e+003;6.858977e-002
3.211032e+003;6.896888e-002
3.212961e+003;6.932734e-002
3.214889e+003;6.959223e-002
3.216818e+003;7.024822e-002
3.218747e+003;7.119581e-002
3.220675e+003;7.205500e-002
3.222604e+003;7.228160e-002
3.224532e+003;7.278994e-002
3.226461e+003;7.390797e-002
3.228389e+003;7.479545e-002
3.230318e+003;7.565705e-002
3.232246e+003;7.674675e-002
3.234175e+003;7.783305e-002
3.236104e+003;7.924660e-002
3.238032e+003;8.071453e-002
3.239961e+003;8.214760e-002
3.241889e+003;8.402972e-002
3.243818e+003;8.578032e-002
3.245746e+003;8.725020e-002
3.247675e+003;8.882198e-002
3.249603e+003;9.035619e-002
3.251532e+003;9.222282e-002
3.253460e+003;9.462980e-002
3.255389e+003;9.681646e-002
3.257318e+003;9.865338e-002
3.259246e+003;1.007542e-001
3.261175e+003;1.027668e-001
3.263103e+003;1.040369e-001
3.265032e+003;1.056167e-001
3.266960e+003;1.079020e-001
3.268889e+003;1.102275e-001
3.270817e+003;1.120298e-001
3.272746e+003;1.137198e-001
3.274675e+003;1.158056e-001
3.276603e+003;1.177535e-001
3.278531e+003;1.194573e-001
3.280460e+003;1.209868e-001
3.282389e+003;1.225615e-001
3.284317e+003;1.244268e-001
3.286246e+003;1.255799e-001
3.288174e+003;1.264540e-001
3.290103e+003;1.273948e-001
3.292031e+003;1.274337e-001
3.293960e+003;1.270212e-001
3.295888e+003;1.265393e-001
3.297817e+003;1.254423e-001
3.299746e+003;1.233922e-001
3.301674e+003;1.209375e-001
3.303603e+003;1.184263e-001
3.305531e+003;1.160908e-001
3.307460e+003;1.137084e-001
3.309388e+003;1.109801e-001
3.311317e+003;1.081721e-001
3.313245e+003;1.054681e-001
3.315174e+003;1.029762e-001
3.317103e+003;1.004540e-001
3.319031e+003;9.760933e-002
3.320960e+003;9.486244e-002
3.322888e+003;9.257948e-002
3.324817e+003;9.024800e-002
3.326745e+003;8.791165e-002
3.328674e+003;8.577847e-002
3.330602e+003;8.328102e-002
3.332531e+003;8.093448e-002
3.334459e+003;7.900684e-002
3.336388e+003;7.723778e-002
3.338317e+003;7.574596e-002
3.340245e+003;7.423719e-002
3.342174e+003;7.250993e-002
3.344102e+003;7.060377e-002
3.346031e+003;6.888104e-002
3.347959e+003;6.757189e-002
3.349888e+003;6.636096e-002
3.351816e+003;6.504878e-002
3.353745e+003;6.373291e-002
3.355674e+003;6.258930e-002
3.357602e+003;6.152191e-002
3.359531e+003;6.041772e-002
3.361459e+003;5.965406e-002
3.363388e+003;5.891512e-002
3.365316e+003;5.790895e-002
3.367245e+003;5.667125e-002
3.369173e+003;5.566905e-002
3.371102e+003;5.526709e-002
3.373031e+003;5.444154e-002
3.374959e+003;5.321097e-002
3.376887e+003;5.254187e-002
3.378816e+003;5.229281e-002
3.380745e+003;5.196334e-002
3.382673e+003;5.148625e-002
3.384602e+003;5.082918e-002
3.386530e+003;5.021554e-002
3.388459e+003;4.992964e-002
3.390387e+003;4.990481e-002
3.392316e+003;4.931219e-002
3.394244e+003;4.843334e-002
3.396173e+003;4.804145e-002
3.398102e+003;4.799097e-002
3.400030e+003;4.779452e-002
3.401959e+003;4.764352e-002
3.403887e+003;4.752392e-002
3.405816e+003;4.725260e-002
3.407744e+003;4.693073e-002
3.409673e+003;4.658239e-002
3.411601e+003;4.637227e-002
3.413530e+003;4.622836e-002
3.415458e+003;4.570529e-002
3.417387e+003;4.529673e-002
3.419316e+003;4.522329e-002
3.421244e+003;4.539519e-002
3.423173e+003;4.551612e-002
3.425101e+003;4.525572e-002
3.427030e+003;4.538202e-002
3.428958e+003;4.545861e-002
3.430887e+003;4.479359e-002
3.432815e+003;4.458106e-002
3.434744e+003;4.464135e-002
3.436673e+003;4.461278e-002
3.438601e+003;4.427037e-002
3.440530e+003;4.405854e-002
3.442458e+003;4.439253e-002
3.444387e+003;4.429429e-002
3.446315e+003;4.373793e-002
3.448244e+003;4.328450e-002
3.450172e+003;4.354012e-002
3.452101e+003;4.373642e-002
3.454030e+003;4.330017e-002
3.455958e+003;4.284464e-002
3.457886e+003;4.253512e-002
3.459815e+003;4.260817e-002
3.461744e+003;4.252024e-002
3.463672e+003;4.217074e-002
3.465601e+003;4.222731e-002
3.467529e+003;4.258463e-002
3.469458e+003;4.224348e-002
3.471386e+003;4.197048e-002
3.473315e+003;4.188341e-002
3.475243e+003;4.177403e-002
3.477172e+003;4.168062e-002
3.479101e+003;4.159528e-002
3.481029e+003;4.144613e-002
3.482958e+003;4.126989e-002
3.484886e+003;4.128803e-002
3.486815e+003;4.141438e-002
3.488743e+003;4.155904e-002
3.490672e+003;4.155481e-002
3.492600e+003;4.170706e-002
3.494529e+003;4.181759e-002
3.496458e+003;4.110045e-002
3.498386e+003;4.044773e-002
3.500315e+003;4.052372e-002
3.502243e+003;4.087291e-002
3.504172e+003;4.077535e-002
3.506100e+003;4.049971e-002
3.508029e+003;4.013664e-002
3.509957e+003;3.944800e-002
3.511886e+003;3.920220e-002
3.513814e+003;3.950772e-002
3.515743e+003;3.949372e-002
3.517672e+003;3.951680e-002
3.519600e+003;3.969843e-002
3.521529e+003;3.936059e-002
3.523457e+003;3.880015e-002
3.525386e+003;3.865018e-002
3.527314e+003;3.843115e-002
3.529243e+003;3.833382e-002
3.531171e+003;3.868723e-002
3.533100e+003;3.863913e-002
3.535029e+003;3.813586e-002
3.536957e+003;3.764282e-002
3.538885e+003;3.737937e-002
3.540814e+003;3.690476e-002
3.542743e+003;3.632452e-002
3.544671e+003;3.636400e-002
3.546600e+003;3.672324e-002
3.548528e+003;3.654324e-002
3.550457e+003;3.602090e-002
3.552385e+003;3.549617e-002
3.554314e+003;3.533163e-002
3.556242e+003;3.526874e-002
3.558171e+003;3.524200e-002
3.560100e+003;3.512034e-002
3.562028e+003;3.453150e-002
3.563957e+003;3.394263e-002
3.565885e+003;3.343432e-002
3.567814e+003;3.325286e-002
3.569742e+003;3.341371e-002
3.571671e+003;3.328094e-002
3.573599e+003;3.293923e-002
3.575528e+003;3.285777e-002
3.577457e+003;3.273896e-002
3.579385e+003;3.267154e-002
3.581314e+003;3.260282e-002
3.583242e+003;3.244537e-002
3.585171e+003;3.179729e-002
3.587099e+003;3.083161e-002
3.589028e+003;3.085021e-002
3.590956e+003;3.105100e-002
3.592885e+003;3.072804e-002
3.594813e+003;3.041537e-002
3.596742e+003;3.032444e-002
3.598671e+003;3.020614e-002
3.600599e+003;2.998799e-002
3.602528e+003;2.974607e-002
3.604456e+003;2.916631e-002
3.606385e+003;2.850162e-002
3.608313e+003;2.804417e-002
3.610242e+003;2.825844e-002
3.612170e+003;2.804668e-002
3.614099e+003;2.792359e-002
3.616028e+003;2.755595e-002
3.617956e+003;2.689136e-002
3.619885e+003;2.721730e-002
3.621813e+003;2.765443e-002
3.623742e+003;2.789660e-002
3.625670e+003;2.781538e-002
3.627599e+003;2.637651e-002
3.629527e+003;2.548569e-002
3.631456e+003;2.621032e-002
3.633385e+003;2.678005e-002
3.635313e+003;2.665295e-002
3.637241e+003;2.645070e-002
3.639170e+003;2.636176e-002
3.641099e+003;2.634247e-002
3.643027e+003;2.614852e-002
3.644956e+003;2.519553e-002
3.646884e+003;2.399652e-002
3.648813e+003;2.353760e-002
3.650741e+003;2.407003e-002
3.652670e+003;2.444234e-002
3.654598e+003;2.420604e-002
3.656527e+003;2.424269e-002
3.658456e+003;2.423698e-002
3.660384e+003;2.408603e-002
3.662313e+003;2.440851e-002
3.664241e+003;2.439211e-002
3.666170e+003;2.392716e-002
3.668098e+003;2.318022e-002
3.670027e+003;2.283103e-002
3.671955e+003;2.309774e-002
3.673884e+003;2.236203e-002
3.675813e+003;2.179911e-002
3.677741e+003;2.278123e-002
3.679669e+003;2.333242e-002
3.681598e+003;2.334274e-002
3.683527e+003;2.323538e-002
3.685455e+003;2.253767e-002
3.687384e+003;2.109491e-002
3.689312e+003;2.092245e-002
3.691241e+003;2.171571e-002
3.693169e+003;2.207840e-002
3.695098e+003;2.184806e-002
3.697026e+003;2.171794e-002
3.698955e+003;2.163773e-002
3.700884e+003;2.139578e-002
3.702812e+003;2.178301e-002
3.704741e+003;2.201119e-002
3.706669e+003;2.155210e-002
3.708598e+003;2.114319e-002
3.710526e+003;2.081979e-002
3.712455e+003;2.074471e-002
3.714383e+003;2.089293e-002
3.716312e+003;2.092023e-002
3.718240e+003;2.086078e-002
3.720169e+003;2.076578e-002
3.722098e+003;2.078753e-002
3.724026e+003;2.076261e-002
3.725955e+003;2.082219e-002
3.727883e+003;2.084020e-002
3.729812e+003;2.069689e-002
3.731740e+003;2.043335e-002
3.733669e+003;2.020922e-002
3.735597e+003;1.984809e-002
3.737526e+003;2.058782e-002
3.739455e+003;2.146293e-002
3.741383e+003;2.098807e-002
3.743312e+003;1.937093e-002
3.745240e+003;1.941338e-002
3.747169e+003;1.999052e-002
3.749097e+003;1.929895e-002
3.751026e+003;1.931935e-002
3.752954e+003;2.002643e-002
3.754883e+003;2.111077e-002
3.756812e+003;2.134883e-002
3.758740e+003;2.068410e-002
3.760668e+003;2.072814e-002
3.762597e+003;2.153528e-002
3.764526e+003;2.173734e-002
3.766454e+003;2.137305e-002
3.768383e+003;2.085841e-002
3.770311e+003;2.110493e-002
3.772240e+003;2.161610e-002
3.774168e+003;2.183534e-002
3.776097e+003;2.171446e-002
3.778025e+003;2.147602e-002
3.779954e+003;2.158110e-002
3.781883e+003;2.169328e-002
3.783811e+003;2.155175e-002
3.785740e+003;2.130731e-002
3.787668e+003;2.113909e-002
3.789597e+003;2.115843e-002
3.791525e+003;2.095142e-002
3.793454e+003;2.092617e-002
3.795382e+003;2.084197e-002
3.797311e+003;2.077891e-002
3.799240e+003;2.069957e-002
3.801168e+003;2.043453e-002
3.803097e+003;2.097402e-002
3.805025e+003;2.096021e-002
3.806954e+003;2.072522e-002
3.808882e+003;2.114023e-002
3.810811e+003;2.147627e-002
3.812739e+003;2.134225e-002
3.814668e+003;2.079883e-002
3.816596e+003;2.119315e-002
3.818525e+003;2.139032e-002
3.820454e+003;2.072212e-002
3.822382e+003;2.143439e-002
3.824311e+003;2.188963e-002
3.826239e+003;2.130247e-002
3.828168e+003;2.133007e-002
3.830096e+003;2.140260e-002
3.832025e+003;2.147818e-002
3.833953e+003;2.132809e-002
3.835882e+003;2.063886e-002
3.837811e+003;2.080610e-002
3.839739e+003;2.195623e-002
3.841667e+003;2.238471e-002
3.843596e+003;2.218544e-002
3.845525e+003;2.236168e-002
3.847453e+003;2.262751e-002
3.849382e+003;2.211588e-002
3.851310e+003;2.075299e-002
3.853239e+003;1.968327e-002
3.855167e+003;2.101965e-002
3.857096e+003;2.238638e-002
3.859024e+003;2.224225e-002
3.860953e+003;2.202820e-002
3.862882e+003;2.203207e-002
3.864810e+003;2.173821e-002
3.866739e+003;2.145193e-002
3.868667e+003;2.128281e-002
3.870596e+003;2.153037e-002
3.872524e+003;2.183935e-002
3.874453e+003;2.180395e-002
3.876381e+003;2.216860e-002
3.878310e+003;2.207847e-002
3.880239e+003;2.167322e-002
3.882167e+003;2.219866e-002
3.884096e+003;2.252630e-002
3.886024e+003;2.220061e-002
3.887953e+003;2.237828e-002
3.889881e+003;2.251433e-002
3.891810e+003;2.253474e-002
3.893738e+003;2.277114e-002
3.895667e+003;2.286284e-002
3.897595e+003;2.286082e-002
3.899524e+003;2.277781e-002
3.901453e+003;2.248666e-002
3.903381e+003;2.214290e-002
3.905310e+003;2.264525e-002
3.907238e+003;2.338858e-002
3.909167e+003;2.354827e-002
3.911095e+003;2.345526e-002
3.913024e+003;2.315691e-002
3.914952e+003;2.282363e-002
3.916881e+003;2.304334e-002
3.918810e+003;2.327362e-002
3.920738e+003;2.289099e-002
3.922667e+003;2.258189e-002
3.924595e+003;2.306864e-002
3.926524e+003;2.399540e-002
3.928452e+003;2.413945e-002
3.930381e+003;2.349772e-002
3.932309e+003;2.360448e-002
3.934238e+003;2.435534e-002
3.936167e+003;2.464600e-002
3.938095e+003;2.434795e-002
3.940023e+003;2.420082e-002
3.941952e+003;2.382225e-002
3.943881e+003;2.378364e-002
3.945809e+003;2.451178e-002
3.947738e+003;2.451252e-002
3.949666e+003;2.400584e-002
3.951595e+003;2.403963e-002
3.953523e+003;2.442183e-002
3.955452e+003;2.470215e-002
3.957380e+003;2.510593e-002
3.959309e+003;2.520578e-002
3.961238e+003;2.480893e-002
3.963166e+003;2.458085e-002
3.965095e+003;2.528595e-002
3.967023e+003;2.588812e-002
3.968952e+003;2.579469e-002
3.970880e+003;2.550776e-002
3.972809e+003;2.518605e-002
3.974737e+003;2.535553e-002
3.976666e+003;2.572479e-002
3.978594e+003;2.540763e-002
3.980523e+003;2.518116e-002
3.982452e+003;2.545035e-002
3.984380e+003;2.554873e-002
3.986309e+003;2.598467e-002
3.988237e+003;2.606225e-002
3.990166e+003;2.562735e-002
3.992094e+003;2.557203e-002
3.994023e+003;2.604036e-002
3.995951e+003;2.636017e-002
3.997880e+003;2.651011e-002
3.999809e+003;2.685787e-002
4.001737e+003;0.000000e+000
