3.992094e+002;0.000000e+000
4.011380e+002;0.000000e+000
4.030665e+002;0.000000e+000
4.049951e+002;0.000000e+000
4.069236e+002;0.000000e+000
4.088522e+002;0.000000e+000
4.107807e+002;0.000000e+000
4.127093e+002;0.000000e+000
4.146378e+002;0.000000e+000
4.165664e+002;0.000000e+000
4.184949e+002;0.000000e+000
4.204235e+002;0.000000e+000
4.223520e+002;0.000000e+000
4.242806e+002;0.000000e+000
4.262091e+002;0.000000e+000
4.281377e+002;0.000000e+000
4.300662e+002;0.000000e+000
4.319948e+002;0.000000e+000
4.339233e+002;0.000000e+000
4.358519e+002;0.000000e+000
4.377804e+002;0.000000e+000
4.397090e+002;0.000000e+000
4.416375e+002;0.000000e+000
4.435660e+002;0.000000e+000
4.454946e+002;0.000000e+000
4.474232e+002;0.000000e+000
4.493517e+002;0.000000e+000
4.512802e+002;0.000000e+000
4.532088e+002;0.000000e+000
4.551373e+002;0.000000e+000
4.570659e+002;0.000000e+000
4.589944e+002;0.000000e+000
4.609230e+002;0.000000e+000
4.628515e+002;0.000000e+000
4.647801e+002;0.000000e+000
4.667086e+002;0.000000e+000
4.686372e+002;0.000000e+000
4.705657e+002;0.000000e+000
4.724943e+002;0.000000e+000
4.744228e+002;0.000000e+000
4.763513e+002;0.000000e+000
4.782799e+002;0.000000e+000
4.802085e+002;0.000000e+000
4.821370e+002;0.000000e+000
4.840656e+002;0.000000e+000
4.859941e+002;0.000000e+000
4.879226e+002;0.000000e+000
4.898512e+002;0.000000e+000
4.917798e+002;0.000000e+000
4.937083e+002;0.000000e+000
4.956368e+002;0.000000e+000
4.975654e+002;0.000000e+000
4.994939e+002;0.000000e+000
5.014225e+002;0.000000e+000
5.033510e+002;0.000000e+000
5.052796e+002;0.000000e+000
5.072081e+002;0.000000e+000
5.091367e+002;0.000000e+000
5.110652e+002;0.000000e+000
5.129938e+002;0.000000e+000
5.149223e+002;0.000000e+000
5.168509e+002;0.000000e+000
5.187794e+002;0.000000e+000
5.207079e+002;0.000000e+000
5.226365e+002;0.000000e+000
5.245651e+002;0.000000e+000
5.264936e+002;0.000000e+000
5.284222e+002;0.000000e+000
5.303507e+002;0.000000e+000
5.322792e+002;0.000000e+000
5.342078e+002;0.000000e+000
5.361364e+002;0.000000e+000
5.380649e+002;0.000000e+000
5.399935e+002;0.000000e+000
5.419220e+002;0.000000e+000
5.438505e+002;0.000000e+000
5.457791e+002;0.000000e+000
5.477076e+002;0.000000e+000
5.496362e+002;0.000000e+000
5.515648e+002;0.000000e+000
5.534933e+002;0.000000e+000
5.554218e+002;0.000000e+000
5.573504e+002;0.000000e+000
5.592789e+002;0.000000e+000
5.612075e+002;0.000000e+000
5.631360e+002;0.000000e+000
5.650646e+002;0.000000e+000
5.669931e+002;0.000000e+000
5.689217e+002;0.000000e+000
5.708502e+002;0.000000e+000
5.727787e+002;0.000000e+000
5.747073e+002;0.000000e+000
5.766359e+002;0.000000e+000
5.785644e+002;0.000000e+000
5.804930e+002;0.000000e+000
5.824215e+002;0.000000e+000
5.843500e+002;0.000000e+000
5.862786e+002;0.000000e+000
5.882072e+002;0.000000e+000
5.901357e+002;0.000000e+000
5.920643e+002;0.000000e+000
5.939928e+002;0.000000e+000
5.959213e+002;0.000000e+000
5.978499e+002;0.000000e+000
5.997784e+002;1.314541e-001
6.017070e+002;1.333282e-001
6.036355e+002;1.353268e-001
6.055641e+002;1.357540e-001
6.074926e+002;1.337881e-001
6.094211e+002;1.325849e-001
6.113497e+002;1.318191e-001
6.132783e+002;1.299491e-001
6.152068e+002;1.295389e-001
6.171354e+002;1.283882e-001
6.190639e+002;1.280610e-001
6.209924e+002;1.321853e-001
6.229210e+002;1.345172e-001
6.248495e+002;1.306438e-001
6.267781e+002;1.280945e-001
6.287067e+002;1.312704e-001
6.306352e+002;1.325596e-001
6.325637e+002;1.309174e-001
6.344923e+002;1.311381e-001
6.364208e+002;1.348639e-001
6.383494e+002;1.378404e-001
6.402780e+002;1.387481e-001
6.422065e+002;1.387103e-001
6.441350e+002;1.369635e-001
6.460636e+002;1.369499e-001
6.479921e+002;1.408295e-001
6.499207e+002;1.452561e-001
6.518492e+002;1.450455e-001
6.537778e+002;1.456893e-001
6.557063e+002;1.532287e-001
6.576349e+002;1.564936e-001
6.595634e+002;1.564354e-001
6.614919e+002;1.584523e-001
6.634205e+002;1.619252e-001
6.653491e+002;1.658348e-001
6.672776e+002;1.686346e-001
6.692062e+002;1.696235e-001
6.711347e+002;1.714947e-001
6.730632e+002;1.728218e-001
6.749918e+002;1.721965e-001
6.769203e+002;1.722124e-001
6.788489e+002;1.735114e-001
6.807775e+002;1.754725e-001
6.827060e+002;1.775564e-001
6.846345e+002;1.777320e-001
6.865631e+002;1.772732e-001
6.884916e+002;1.758079e-001
6.904202e+002;1.741033e-001
6.923488e+002;1.720326e-001
6.942773e+002;1.691746e-001
6.962058e+002;1.671624e-001
6.981344e+002;1.632486e-001
7.000629e+002;1.593530e-001
7.019915e+002;1.569524e-001
7.039200e+002;1.550022e-001
7.058486e+002;1.539177e-001
7.077771e+002;1.545807e-001
7.097057e+002;1.536745e-001
7.116342e+002;1.508945e-001
7.135627e+002;1.478957e-001
7.154913e+002;1.452578e-001
7.174199e+002;1.441981e-001
7.193484e+002;1.439634e-001
7.212770e+002;1.440412e-001
7.232055e+002;1.444143e-001
7.251340e+002;1.449883e-001
7.270626e+002;1.448259e-001
7.289911e+002;1.431677e-001
7.309197e+002;1.388468e-001
7.328483e+002;1.318290e-001
7.347768e+002;1.243824e-001
7.367053e+002;1.177384e-001
7.386339e+002;1.121740e-001
7.405624e+002;1.078207e-001
7.424910e+002;1.052301e-001
7.444196e+002;1.037619e-001
7.463481e+002;1.011432e-001
7.482766e+002;9.905930e-002
7.502052e+002;9.832702e-002
7.521337e+002;9.652140e-002
7.540623e+002;9.376709e-002
7.559908e+002;9.084954e-002
7.579194e+002;8.880714e-002
7.598479e+002;8.854871e-002
7.617765e+002;8.804584e-002
7.637050e+002;8.634853e-002
7.656335e+002;8.517980e-002
7.675621e+002;8.435600e-002
7.694907e+002;8.339731e-002
7.714192e+002;8.260121e-002
7.733478e+002;8.165507e-002
7.752763e+002;7.990512e-002
7.772048e+002;7.848546e-002
7.791334e+002;7.780590e-002
7.810620e+002;7.714751e-002
7.829905e+002;7.627627e-002
7.849191e+002;7.493201e-002
7.868476e+002;7.350584e-002
7.887761e+002;7.224462e-002
7.907047e+002;7.042421e-002
7.926332e+002;6.950232e-002
7.945618e+002;6.841566e-002
7.964903e+002;6.689908e-002
7.984189e+002;6.606971e-002
8.003474e+002;6.535879e-002
8.022759e+002;6.394208e-002
8.042045e+002;6.258911e-002
8.061331e+002;6.196907e-002
8.080616e+002;6.155409e-002
8.099902e+002;6.109507e-002
8.119187e+002;6.054413e-002
8.138472e+002;5.933814e-002
8.157758e+002;5.846187e-002
8.177043e+002;5.824808e-002
8.196329e+002;5.840369e-002
8.215615e+002;5.861562e-002
8.234900e+002;5.902882e-002
8.254185e+002;5.929730e-002
8.273471e+002;5.978074e-002
8.292756e+002;6.146083e-002
8.312042e+002;6.281603e-002
8.331328e+002;6.311660e-002
8.350613e+002;6.165077e-002
8.369898e+002;5.941373e-002
8.389184e+002;5.740687e-002
8.408469e+002;5.591715e-002
8.427755e+002;5.465282e-002
8.447040e+002;5.302086e-002
8.466326e+002;5.198829e-002
8.485611e+002;5.138658e-002
8.504897e+002;5.059354e-002
8.524182e+002;5.000049e-002
8.543467e+002;4.996473e-002
8.562753e+002;4.990266e-002
8.582039e+002;5.006340e-002
8.601324e+002;5.058926e-002
8.620610e+002;5.064626e-002
8.639895e+002;5.032826e-002
8.659180e+002;5.029102e-002
8.678466e+002;5.039114e-002
8.697751e+002;4.985995e-002
8.717037e+002;4.958461e-002
8.736323e+002;5.034537e-002
8.755608e+002;5.077413e-002
8.774893e+002;5.053141e-002
8.794179e+002;5.045500e-002
8.813464e+002;5.056792e-002
8.832750e+002;5.074329e-002
8.852036e+002;5.111828e-002
8.871321e+002;5.150363e-002
8.890606e+002;5.191684e-002
8.909892e+002;5.200449e-002
8.929177e+002;5.190542e-002
8.948463e+002;5.207834e-002
8.967748e+002;5.276087e-002
8.987034e+002;5.307189e-002
9.006319e+002;5.271684e-002
9.025605e+002;5.259572e-002
9.044890e+002;5.322464e-002
9.064175e+002;5.418610e-002
9.083461e+002;5.476309e-002
9.102747e+002;5.500887e-002
9.122032e+002;5.532617e-002
9.141318e+002;5.571094e-002
9.160603e+002;5.620378e-002
9.179888e+002;5.672059e-002
9.199174e+002;5.759948e-002
9.218459e+002;5.848173e-002
9.237745e+002;5.954460e-002
9.257031e+002;6.130062e-002
9.276316e+002;6.260002e-002
9.295601e+002;6.269111e-002
9.314887e+002;6.214532e-002
9.334172e+002;6.071885e-002
9.353458e+002;5.895340e-002
9.372744e+002;5.836120e-002
9.392029e+002;5.829753e-002
9.411314e+002;5.851419e-002
9.430600e+002;5.933722e-002
9.449885e+002;6.058565e-002
9.469171e+002;6.230041e-002
9.488456e+002;6.402851e-002
9.507742e+002;6.524395e-002
9.527027e+002;6.588075e-002
9.546313e+002;6.662265e-002
9.565598e+002;6.772780e-002
9.584883e+002;6.846988e-002
9.604169e+002;6.827818e-002
9.623455e+002;6.760912e-002
9.642740e+002;6.652173e-002
9.662026e+002;6.594943e-002
9.681311e+002;6.593297e-002
9.700596e+002;6.623513e-002
9.719882e+002;6.653398e-002
9.739167e+002;6.596217e-002
9.758453e+002;6.485407e-002
9.777739e+002;6.381445e-002
9.797024e+002;6.325874e-002
9.816309e+002;6.217503e-002
9.835595e+002;6.120092e-002
9.854880e+002;6.081545e-002
9.874166e+002;6.015878e-002
9.893452e+002;5.913299e-002
9.912737e+002;5.840827e-002
9.932022e+002;5.820766e-002
9.951307e+002;5.798203e-002
9.970593e+002;5.752435e-002
9.989879e+002;5.714069e-002
1.000916e+003;5.689850e-002
1.002845e+003;5.680162e-002
1.004773e+003;5.682523e-002
1.006702e+003;5.656782e-002
1.008631e+003;5.649181e-002
1.010559e+003;5.652064e-002
1.012488e+003;5.643098e-002
1.014416e+003;5.622618e-002
1.016345e+003;5.602480e-002
1.018273e+003;5.638318e-002
1.020202e+003;5.736603e-002
1.022130e+003;5.848155e-002
1.024059e+003;5.973078e-002
1.025988e+003;6.083962e-002
1.027916e+003;6.122889e-002
1.029845e+003;6.120421e-002
1.031773e+003;6.045333e-002
1.033702e+003;5.959089e-002
1.035630e+003;5.891990e-002
1.037559e+003;5.821614e-002
1.039487e+003;5.766527e-002
1.041416e+003;5.706983e-002
1.043344e+003;5.640457e-002
1.045273e+003;5.629687e-002
1.047202e+003;5.654506e-002
1.049130e+003;5.712277e-002
1.051059e+003;5.795628e-002
1.052987e+003;5.900206e-002
1.054916e+003;6.055849e-002
1.056844e+003;6.176837e-002
1.058773e+003;6.288025e-002
1.060701e+003;6.413350e-002
1.062630e+003;6.537612e-002
1.064558e+003;6.676568e-002
1.066487e+003;6.786662e-002
1.068416e+003;6.835973e-002
1.070344e+003;6.864138e-002
1.072273e+003;6.918980e-002
1.074201e+003;6.957294e-002
1.076130e+003;6.953666e-002
1.078058e+003;6.858294e-002
1.079987e+003;6.750716e-002
1.081915e+003;6.695992e-002
1.083844e+003;6.623428e-002
1.085773e+003;6.563507e-002
1.087701e+003;6.539923e-002
1.089630e+003;6.500506e-002
1.091558e+003;6.487580e-002
1.093487e+003;6.521122e-002
1.095415e+003;6.561850e-002
1.097344e+003;6.586845e-002
1.099272e+003;6.670799e-002
1.101201e+003;6.808598e-002
1.103129e+003;7.000967e-002
1.105058e+003;7.215365e-002
1.106987e+003;7.367086e-002
1.108915e+003;7.455104e-002
1.110844e+003;7.573266e-002
1.112772e+003;7.685779e-002
1.114701e+003;7.740549e-002
1.116629e+003;7.765175e-002
1.118558e+003;7.773206e-002
1.120486e+003;7.753246e-002
1.122415e+003;7.618579e-002
1.124344e+003;7.357064e-002
1.126272e+003;7.078616e-002
1.128201e+003;6.799382e-002
1.130129e+003;6.559487e-002
1.132058e+003;6.392357e-002
1.133986e+003;6.304078e-002
1.135915e+003;6.281523e-002
1.137843e+003;6.337865e-002
1.139772e+003;6.414479e-002
1.141700e+003;6.524518e-002
1.143629e+003;6.695482e-002
1.145557e+003;6.882401e-002
1.147486e+003;7.060641e-002
1.149415e+003;7.282360e-002
1.151343e+003;7.527403e-002
1.153272e+003;7.833408e-002
1.155200e+003;8.223107e-002
1.157129e+003;8.615588e-002
1.159057e+003;9.055940e-002
1.160986e+003;9.620289e-002
1.162914e+003;1.027409e-001
1.164843e+003;1.088193e-001
1.166771e+003;1.138744e-001
1.168700e+003;1.166407e-001
1.170629e+003;1.160005e-001
1.172557e+003;1.119163e-001
1.174486e+003;1.059620e-001
1.176414e+003;1.003718e-001
1.178343e+003;9.595473e-002
1.180271e+003;9.241401e-002
1.182200e+003;9.043619e-002
1.184128e+003;9.107223e-002
1.186057e+003;9.325773e-002
1.187986e+003;9.561508e-002
1.189914e+003;9.876363e-002
1.191843e+003;1.029194e-001
1.193771e+003;1.076923e-001
1.195700e+003;1.126375e-001
1.197628e+003;1.171733e-001
1.199557e+003;1.195647e-001
1.201485e+003;1.186072e-001
1.203414e+003;1.154893e-001
1.205343e+003;1.125466e-001
1.207271e+003;1.112686e-001
1.209200e+003;1.104615e-001
1.211128e+003;1.096719e-001
1.213057e+003;1.084167e-001
1.214985e+003;1.062715e-001
1.216914e+003;1.037774e-001
1.218842e+003;1.009252e-001
1.220771e+003;9.848063e-002
1.222699e+003;9.839484e-002
1.224628e+003;1.004415e-001
1.226557e+003;1.036809e-001
1.228485e+003;1.078353e-001
1.230414e+003;1.124332e-001
1.232342e+003;1.172347e-001
1.234271e+003;1.212453e-001
1.236199e+003;1.232179e-001
1.238128e+003;1.236537e-001
1.240056e+003;1.234733e-001
1.241985e+003;1.230100e-001
1.243913e+003;1.221716e-001
1.245842e+003;1.220704e-001
1.247771e+003;1.232006e-001
1.249699e+003;1.251710e-001
1.251628e+003;1.279680e-001
1.253556e+003;1.312548e-001
1.255485e+003;1.345083e-001
1.257413e+003;1.375254e-001
1.259342e+003;1.399796e-001
1.261270e+003;1.412942e-001
1.263199e+003;1.406151e-001
1.265127e+003;1.371978e-001
1.267056e+003;1.314764e-001
1.268985e+003;1.254280e-001
1.270913e+003;1.207482e-001
1.272842e+003;1.178410e-001
1.274770e+003;1.166507e-001
1.276699e+003;1.165506e-001
1.278627e+003;1.160832e-001
1.280556e+003;1.145337e-001
1.282484e+003;1.127423e-001
1.284413e+003;1.109210e-001
1.286342e+003;1.090031e-001
1.288270e+003;1.075420e-001
1.290199e+003;1.068781e-001
1.292127e+003;1.064008e-001
1.294056e+003;1.057557e-001
1.295984e+003;1.055181e-001
1.297913e+003;1.054514e-001
1.299841e+003;1.051935e-001
1.301770e+003;1.046104e-001
1.303698e+003;1.038546e-001
1.305627e+003;1.031996e-001
1.307556e+003;1.021723e-001
1.309484e+003;1.009123e-001
1.311413e+003;9.992830e-002
1.313341e+003;9.894498e-002
1.315270e+003;9.806386e-002
1.317198e+003;9.702359e-002
1.319127e+003;9.606476e-002
1.321055e+003;9.510127e-002
1.322984e+003;9.442706e-002
1.324912e+003;9.412127e-002
1.326841e+003;9.405733e-002
1.328770e+003;9.438724e-002
1.330698e+003;9.504332e-002
1.332627e+003;9.547313e-002
1.334555e+003;9.580123e-002
1.336484e+003;9.601627e-002
1.338412e+003;9.638743e-002
1.340341e+003;9.711205e-002
1.342269e+003;9.817629e-002
1.344198e+003;9.913394e-002
1.346126e+003;1.000431e-001
1.348055e+003;1.010172e-001
1.349984e+003;1.021022e-001
1.351912e+003;1.033414e-001
1.353841e+003;1.048541e-001
1.355769e+003;1.066558e-001
1.357698e+003;1.085161e-001
1.359626e+003;1.103332e-001
1.361555e+003;1.118703e-001
1.363483e+003;1.136204e-001
1.365412e+003;1.157871e-001
1.367341e+003;1.176198e-001
1.369269e+003;1.191669e-001
1.371198e+003;1.198806e-001
1.373126e+003;1.193581e-001
1.375055e+003;1.179252e-001
1.376983e+003;1.157063e-001
1.378912e+003;1.127361e-001
1.380840e+003;1.094515e-001
1.382769e+003;1.062168e-001
1.384698e+003;1.028024e-001
1.386626e+003;9.937000e-002
1.388555e+003;9.688773e-002
1.390483e+003;9.505767e-002
1.392412e+003;9.352760e-002
1.394340e+003;9.241060e-002
1.396269e+003;9.215486e-002
1.398197e+003;9.276462e-002
1.400126e+003;9.444654e-002
1.402054e+003;9.706366e-002
1.403983e+003;1.004863e-001
1.405911e+003;1.051458e-001
1.407840e+003;1.107808e-001
1.409769e+003;1.172081e-001
1.411697e+003;1.241020e-001
1.413626e+003;1.298758e-001
1.415554e+003;1.332047e-001
1.417483e+003;1.336126e-001
1.419411e+003;1.315233e-001
1.421340e+003;1.285103e-001
1.423268e+003;1.252349e-001
1.425197e+003;1.228651e-001
1.427125e+003;1.224401e-001
1.429054e+003;1.237882e-001
1.430983e+003;1.265553e-001
1.432911e+003;1.291270e-001
1.434840e+003;1.299201e-001
1.436768e+003;1.295018e-001
1.438697e+003;1.292569e-001
1.440625e+003;1.286364e-001
1.442554e+003;1.278990e-001
1.444482e+003;1.273970e-001
1.446411e+003;1.273087e-001
1.448340e+003;1.280409e-001
1.450268e+003;1.298846e-001
1.452197e+003;1.322969e-001
1.454125e+003;1.344252e-001
1.456054e+003;1.363397e-001
1.457982e+003;1.414184e-001
1.459911e+003;1.486354e-001
1.461839e+003;1.529169e-001
1.463768e+003;1.512116e-001
1.465697e+003;1.447795e-001
1.467625e+003;1.370708e-001
1.469554e+003;1.306984e-001
1.471482e+003;1.271538e-001
1.473411e+003;1.268839e-001
1.475339e+003;1.277703e-001
1.477268e+003;1.269147e-001
1.479196e+003;1.237793e-001
1.481125e+003;1.182576e-001
1.483053e+003;1.116529e-001
1.484982e+003;1.058354e-001
1.486911e+003;1.024077e-001
1.488839e+003;1.012699e-001
1.490768e+003;1.022549e-001
1.492696e+003;1.047234e-001
1.494625e+003;1.070613e-001
1.496553e+003;1.098956e-001
1.498482e+003;1.145017e-001
1.500410e+003;1.201730e-001
1.502339e+003;1.257826e-001
1.504267e+003;1.302991e-001
1.506196e+003;1.350200e-001
1.508125e+003;1.424184e-001
1.510053e+003;1.506328e-001
1.511982e+003;1.581084e-001
1.513910e+003;1.657554e-001
1.515839e+003;1.737137e-001
1.517767e+003;1.821288e-001
1.519696e+003;1.908235e-001
1.521624e+003;2.006951e-001
1.523553e+003;2.114230e-001
1.525481e+003;2.216310e-001
1.527410e+003;2.321071e-001
1.529339e+003;2.423582e-001
1.531267e+003;2.516861e-001
1.533196e+003;2.597501e-001
1.535124e+003;2.665999e-001
1.537053e+003;2.705220e-001
1.538981e+003;2.707281e-001
1.540910e+003;2.691177e-001
1.542838e+003;2.652310e-001
1.544767e+003;2.582952e-001
1.546695e+003;2.493151e-001
1.548624e+003;2.386373e-001
1.550553e+003;2.272463e-001
1.552481e+003;2.159279e-001
1.554410e+003;2.048218e-001
1.556338e+003;1.944617e-001
1.558267e+003;1.839893e-001
1.560195e+003;1.756218e-001
1.562124e+003;1.690216e-001
1.564052e+003;1.612093e-001
1.565981e+003;1.527248e-001
1.567910e+003;1.445524e-001
1.569838e+003;1.366799e-001
1.571767e+003;1.297586e-001
1.573695e+003;1.225824e-001
1.575624e+003;1.152773e-001
1.577552e+003;1.105395e-001
1.579481e+003;1.071643e-001
1.581409e+003;1.036902e-001
1.583338e+003;1.010460e-001
1.585266e+003;9.942616e-002
1.587195e+003;9.878023e-002
1.589124e+003;9.896883e-002
1.591052e+003;1.000535e-001
1.592981e+003;1.021029e-001
1.594909e+003;1.047999e-001
1.596838e+003;1.080558e-001
1.598766e+003;1.123943e-001
1.600695e+003;1.175820e-001
1.602623e+003;1.239665e-001
1.604552e+003;1.314990e-001
1.606480e+003;1.396907e-001
1.608409e+003;1.490373e-001
1.610338e+003;1.589197e-001
1.612266e+003;1.693656e-001
1.614195e+003;1.810637e-001
1.616123e+003;1.944038e-001
1.618052e+003;2.111192e-001
1.619980e+003;2.291860e-001
1.621909e+003;2.466525e-001
1.623837e+003;2.644556e-001
1.625766e+003;2.825350e-001
1.627694e+003;3.002415e-001
1.629623e+003;3.175519e-001
1.631552e+003;3.330706e-001
1.633480e+003;3.436898e-001
1.635409e+003;3.473924e-001
1.637337e+003;3.434052e-001
1.639266e+003;3.308663e-001
1.641194e+003;3.122904e-001
1.643123e+003;2.904675e-001
1.645051e+003;2.670621e-001
1.646980e+003;2.452610e-001
1.648909e+003;2.265821e-001
1.650837e+003;2.086070e-001
1.652766e+003;1.919588e-001
1.654694e+003;1.811435e-001
1.656623e+003;1.725344e-001
1.658551e+003;1.630828e-001
1.660480e+003;1.535686e-001
1.662408e+003;1.440629e-001
1.664337e+003;1.353190e-001
1.666266e+003;1.265485e-001
1.668194e+003;1.174895e-001
1.670123e+003;1.092226e-001
1.672051e+003;1.022962e-001
1.673980e+003;9.521710e-002
1.675908e+003;8.820283e-002
1.677837e+003;8.208767e-002
1.679765e+003;7.516868e-002
1.681694e+003;6.763747e-002
1.683622e+003;6.007617e-002
1.685551e+003;5.498318e-002
1.687479e+003;5.159112e-002
1.689408e+003;4.803775e-002
1.691337e+003;4.530280e-002
1.693265e+003;4.266870e-002
1.695194e+003;3.989405e-002
1.697122e+003;3.871693e-002
1.699051e+003;3.751254e-002
1.700979e+003;3.687893e-002
1.702908e+003;3.760835e-002
1.704836e+003;3.748082e-002
1.706765e+003;3.748921e-002
1.708693e+003;3.755719e-002
1.710622e+003;3.776689e-002
1.712551e+003;3.760889e-002
1.714479e+003;3.692427e-002
1.716408e+003;3.617338e-002
1.718336e+003;3.668106e-002
1.720265e+003;3.796840e-002
1.722193e+003;3.855888e-002
1.724122e+003;3.868875e-002
1.726050e+003;3.897198e-002
1.727979e+003;3.883145e-002
1.729908e+003;3.838301e-002
1.731836e+003;3.751908e-002
1.733765e+003;3.633522e-002
1.735693e+003;3.670745e-002
1.737622e+003;3.714702e-002
1.739550e+003;3.675937e-002
1.741479e+003;3.637914e-002
1.743407e+003;3.557855e-002
1.745336e+003;3.484510e-002
1.747265e+003;3.399942e-002
1.749193e+003;3.273978e-002
1.751122e+003;3.177561e-002
1.753050e+003;3.150529e-002
1.754979e+003;3.074251e-002
1.756907e+003;2.989999e-002
1.758836e+003;2.939415e-002
1.760764e+003;2.874643e-002
1.762693e+003;2.832298e-002
1.764621e+003;2.808959e-002
1.766550e+003;2.728726e-002
1.768479e+003;2.662142e-002
1.770407e+003;2.583731e-002
1.772336e+003;2.503762e-002
1.774264e+003;2.525048e-002
1.776193e+003;2.559403e-002
1.778121e+003;2.540988e-002
1.780050e+003;2.501526e-002
1.781978e+003;2.464242e-002
1.783907e+003;2.414852e-002
1.785835e+003;2.388557e-002
1.787764e+003;2.393010e-002
1.789693e+003;2.350612e-002
1.791621e+003;2.269185e-002
1.793550e+003;2.262517e-002
1.795478e+003;2.296837e-002
1.797407e+003;2.270072e-002
1.799335e+003;2.244639e-002
1.801264e+003;2.238530e-002
1.803192e+003;2.242908e-002
1.805121e+003;2.259174e-002
1.807049e+003;2.271947e-002
1.808978e+003;2.231665e-002
1.810907e+003;2.195724e-002
1.812835e+003;2.197223e-002
1.814764e+003;2.196661e-002
1.816692e+003;2.181451e-002
1.818621e+003;2.186461e-002
1.820549e+003;2.191876e-002
1.822478e+003;2.183541e-002
1.824406e+003;2.152825e-002
1.826335e+003;2.133505e-002
1.828264e+003;2.121823e-002
1.830192e+003;2.129134e-002
1.832121e+003;2.152657e-002
1.834049e+003;2.158855e-002
1.835978e+003;2.153253e-002
1.837906e+003;2.128198e-002
1.839835e+003;2.117377e-002
1.841763e+003;2.091460e-002
1.843692e+003;2.036136e-002
1.845620e+003;2.039605e-002
1.847549e+003;2.050622e-002
1.849478e+003;2.047024e-002
1.851406e+003;2.059488e-002
1.853335e+003;2.066180e-002
1.855263e+003;2.055548e-002
1.857192e+003;2.047735e-002
1.859120e+003;2.038039e-002
1.861049e+003;2.020697e-002
1.862977e+003;2.014841e-002
1.864906e+003;2.007293e-002
1.866834e+003;1.986578e-002
1.868763e+003;1.977783e-002
1.870692e+003;1.999666e-002
1.872620e+003;2.017701e-002
1.874549e+003;2.028692e-002
1.876477e+003;2.056409e-002
1.878406e+003;2.051612e-002
1.880334e+003;2.019784e-002
1.882263e+003;2.011246e-002
1.884191e+003;2.007421e-002
1.886120e+003;2.009996e-002
1.888048e+003;2.013866e-002
1.889977e+003;2.016799e-002
1.891906e+003;2.033688e-002
1.893834e+003;2.045360e-002
1.895763e+003;2.056670e-002
1.897691e+003;2.060929e-002
1.899620e+003;2.052182e-002
1.901548e+003;2.056771e-002
1.903477e+003;2.063219e-002
1.905405e+003;2.050643e-002
1.907334e+003;2.047802e-002
1.909262e+003;2.059540e-002
1.911191e+003;2.033737e-002
1.913120e+003;2.008206e-002
1.915048e+003;1.994740e-002
1.916977e+003;1.967599e-002
1.918905e+003;1.979232e-002
1.920834e+003;1.994764e-002
1.922762e+003;1.999326e-002
1.924691e+003;1.999215e-002
1.926619e+003;1.994854e-002
1.928548e+003;2.009524e-002
1.930477e+003;2.010364e-002
1.932405e+003;2.014196e-002
1.934334e+003;2.021103e-002
1.936262e+003;2.000797e-002
1.938191e+003;1.985163e-002
1.940119e+003;1.976791e-002
1.942048e+003;1.958433e-002
1.943976e+003;1.964694e-002
1.945905e+003;1.985919e-002
1.947833e+003;1.983592e-002
1.949762e+003;1.970698e-002
1.951691e+003;1.969211e-002
1.953619e+003;1.993949e-002
1.955548e+003;2.007244e-002
1.957476e+003;2.011551e-002
1.959405e+003;2.008459e-002
1.961333e+003;2.025144e-002
1.963262e+003;2.036525e-002
1.965190e+003;2.028709e-002
1.967119e+003;2.038872e-002
1.969047e+003;2.046190e-002
1.970976e+003;2.042640e-002
1.972905e+003;2.047461e-002
1.974833e+003;2.054228e-002
1.976762e+003;2.058209e-002
1.978690e+003;2.053137e-002
1.980619e+003;2.039109e-002
1.982547e+003;2.035514e-002
1.984476e+003;2.035872e-002
1.986404e+003;2.041980e-002
1.988333e+003;2.046489e-002
1.990261e+003;2.033393e-002
1.992190e+003;2.004694e-002
1.994119e+003;1.996648e-002
1.996047e+003;2.009795e-002
1.997976e+003;2.027699e-002
1.999904e+003;2.036737e-002
2.001833e+003;2.027834e-002
2.003761e+003;2.034160e-002
2.005690e+003;2.055259e-002
2.007618e+003;2.061548e-002
2.009547e+003;2.051654e-002
2.011476e+003;2.037098e-002
2.013404e+003;2.045714e-002
2.015333e+003;2.081538e-002
2.017261e+003;2.084308e-002
2.019190e+003;2.070224e-002
2.021118e+003;2.086957e-002
2.023047e+003;2.105689e-002
2.024975e+003;2.101422e-002
2.026904e+003;2.101554e-002
2.028833e+003;2.107226e-002
2.030761e+003;2.112862e-002
2.032690e+003;2.119489e-002
2.034618e+003;2.130658e-002
2.036547e+003;2.136192e-002
2.038475e+003;2.153117e-002
2.040404e+003;2.171930e-002
2.042332e+003;2.177012e-002
2.044261e+003;2.187761e-002
2.046189e+003;2.179601e-002
2.048118e+003;2.187984e-002
2.050047e+003;2.201193e-002
2.051975e+003;2.185524e-002
2.053904e+003;2.172372e-002
2.055832e+003;2.190730e-002
2.057761e+003;2.205393e-002
2.059689e+003;2.181966e-002
2.061618e+003;2.172731e-002
2.063546e+003;2.195323e-002
2.065475e+003;2.209988e-002
2.067404e+003;2.195194e-002
2.069332e+003;2.184879e-002
2.071260e+003;2.198561e-002
2.073189e+003;2.212854e-002
2.075118e+003;2.199805e-002
2.077046e+003;2.189636e-002
2.078975e+003;2.180440e-002
2.080903e+003;2.169300e-002
2.082832e+003;2.185315e-002
2.084760e+003;2.180524e-002
2.086689e+003;2.159033e-002
2.088617e+003;2.156693e-002
2.090546e+003;2.150377e-002
2.092475e+003;2.150245e-002
2.094403e+003;2.153973e-002
2.096332e+003;2.156470e-002
2.098260e+003;2.154255e-002
2.100189e+003;2.145966e-002
2.102117e+003;2.145284e-002
2.104046e+003;2.152320e-002
2.105974e+003;2.176138e-002
2.107903e+003;2.187472e-002
2.109832e+003;2.179698e-002
2.111760e+003;2.182998e-002
2.113688e+003;2.182391e-002
2.115617e+003;2.193953e-002
2.117546e+003;2.200687e-002
2.119474e+003;2.218094e-002
2.121403e+003;2.222422e-002
2.123331e+003;2.216762e-002
2.125260e+003;2.232749e-002
2.127188e+003;2.236025e-002
2.129117e+003;2.235526e-002
2.131045e+003;2.249576e-002
2.132974e+003;2.251087e-002
2.134903e+003;2.238711e-002
2.136831e+003;2.234787e-002
2.138760e+003;2.223088e-002
2.140688e+003;2.229122e-002
2.142617e+003;2.252337e-002
2.144545e+003;2.270574e-002
2.146474e+003;2.281839e-002
2.148402e+003;2.283019e-002
2.150331e+003;2.264092e-002
2.152260e+003;2.259809e-002
2.154188e+003;2.255652e-002
2.156117e+003;2.246520e-002
2.158045e+003;2.259163e-002
2.159974e+003;2.269112e-002
2.161902e+003;2.289809e-002
2.163831e+003;2.308649e-002
2.165759e+003;2.309212e-002
2.167688e+003;2.300299e-002
2.169616e+003;2.299893e-002
2.171545e+003;2.308897e-002
2.173474e+003;2.308153e-002
2.175402e+003;2.292233e-002
2.177331e+003;2.290476e-002
2.179259e+003;2.301916e-002
2.181188e+003;2.296452e-002
2.183116e+003;2.300459e-002
2.185045e+003;2.302101e-002
2.186973e+003;2.300693e-002
2.188902e+003;2.304330e-002
2.190831e+003;2.325149e-002
2.192759e+003;2.351322e-002
2.194688e+003;2.358961e-002
2.196616e+003;2.343092e-002
2.198545e+003;2.338564e-002
2.200473e+003;2.338990e-002
2.202402e+003;2.324688e-002
2.204330e+003;2.305494e-002
2.206259e+003;2.301197e-002
2.208188e+003;2.295320e-002
2.210116e+003;2.297759e-002
2.212044e+003;2.293532e-002
2.213973e+003;2.291384e-002
2.215902e+003;2.268902e-002
2.217830e+003;2.246076e-002
2.219759e+003;2.252295e-002
2.221687e+003;2.256818e-002
2.223616e+003;2.249499e-002
2.225544e+003;2.240571e-002
2.227473e+003;2.220912e-002
2.229401e+003;2.191497e-002
2.231330e+003;2.185782e-002
2.233259e+003;2.189859e-002
2.235187e+003;2.187531e-002
2.237116e+003;2.190023e-002
2.239044e+003;2.209081e-002
2.240973e+003;2.203016e-002
2.242901e+003;2.176608e-002
2.244830e+003;2.188099e-002
2.246758e+003;2.184681e-002
2.248687e+003;2.178901e-002
2.250615e+003;2.207150e-002
2.252544e+003;2.217212e-002
2.254473e+003;2.221644e-002
2.256401e+003;2.255048e-002
2.258330e+003;2.264210e-002
2.260258e+003;2.226119e-002
2.262187e+003;2.214203e-002
2.264115e+003;2.229798e-002
2.266044e+003;2.238007e-002
2.267972e+003;2.239709e-002
2.269901e+003;2.259198e-002
2.271830e+003;2.253282e-002
2.273758e+003;2.236489e-002
2.275687e+003;2.255460e-002
2.277615e+003;2.273214e-002
2.279544e+003;2.266434e-002
2.281472e+003;2.259205e-002
2.283401e+003;2.254706e-002
2.285329e+003;2.260046e-002
2.287258e+003;2.287465e-002
2.289187e+003;2.300127e-002
2.291115e+003;2.279342e-002
2.293043e+003;2.290804e-002
2.294972e+003;2.312189e-002
2.296901e+003;2.307304e-002
2.298829e+003;2.302496e-002
2.300758e+003;2.329162e-002
2.302686e+003;2.343746e-002
2.304615e+003;2.329735e-002
2.306543e+003;2.329361e-002
2.308472e+003;2.335623e-002
2.310400e+003;2.336319e-002
2.312329e+003;2.344204e-002
2.314258e+003;2.363716e-002
2.316186e+003;2.361386e-002
2.318115e+003;2.331560e-002
2.320043e+003;2.334749e-002
2.321972e+003;2.352644e-002
2.323900e+003;2.336690e-002
2.325829e+003;2.324006e-002
2.327757e+003;2.327816e-002
2.329686e+003;2.320025e-002
2.331615e+003;2.322594e-002
2.333543e+003;2.346432e-002
2.335472e+003;2.349251e-002
2.337400e+003;2.322286e-002
2.339329e+003;2.307056e-002
2.341257e+003;2.326152e-002
2.343186e+003;2.327260e-002
2.345114e+003;2.297710e-002
2.347043e+003;2.294891e-002
2.348971e+003;2.305008e-002
2.350900e+003;2.319874e-002
2.352829e+003;2.322041e-002
2.354757e+003;2.292578e-002
2.356686e+003;2.294433e-002
2.358614e+003;2.325561e-002
2.360543e+003;2.328931e-002
2.362471e+003;2.325691e-002
2.364400e+003;2.310152e-002
2.366328e+003;2.321521e-002
2.368257e+003;2.344722e-002
2.370186e+003;2.343410e-002
2.372114e+003;2.361218e-002
2.374042e+003;2.386135e-002
2.375971e+003;2.377472e-002
2.377900e+003;2.384507e-002
2.379828e+003;2.381808e-002
2.381757e+003;2.369129e-002
2.383685e+003;2.375564e-002
2.385614e+003;2.382333e-002
2.387542e+003;2.386275e-002
2.389471e+003;2.391666e-002
2.391399e+003;2.402990e-002
2.393328e+003;2.416936e-002
2.395257e+003;2.411122e-002
2.397185e+003;2.399617e-002
2.399114e+003;2.415689e-002
2.401042e+003;2.436968e-002
2.402971e+003;2.429525e-002
2.404899e+003;2.413829e-002
2.406828e+003;2.406141e-002
2.408756e+003;2.405087e-002
2.410685e+003;2.391046e-002
2.412614e+003;2.392247e-002
2.414542e+003;2.404163e-002
2.416471e+003;2.409402e-002
2.418399e+003;2.423162e-002
2.420328e+003;2.424921e-002
2.422256e+003;2.432366e-002
2.424185e+003;2.458534e-002
2.426113e+003;2.444353e-002
2.428042e+003;2.418166e-002
2.429970e+003;2.421536e-002
2.431899e+003;2.456416e-002
2.433828e+003;2.473070e-002
2.435756e+003;2.471351e-002
2.437685e+003;2.474221e-002
2.439613e+003;2.472256e-002
2.441542e+003;2.499613e-002
2.443470e+003;2.525048e-002
2.445399e+003;2.536628e-002
2.447327e+003;2.547431e-002
2.449256e+003;2.558026e-002
2.451185e+003;2.572483e-002
2.453113e+003;2.586583e-002
2.455042e+003;2.596494e-002
2.456970e+003;2.605725e-002
2.458899e+003;2.603435e-002
2.460827e+003;2.609968e-002
2.462756e+003;2.611214e-002
2.464684e+003;2.609620e-002
2.466613e+003;2.640148e-002
2.468542e+003;2.662946e-002
2.470470e+003;2.668910e-002
2.472398e+003;2.657369e-002
2.474327e+003;2.672843e-002
2.476256e+003;2.690983e-002
2.478184e+003;2.683676e-002
2.480113e+003;2.685632e-002
2.482041e+003;2.702191e-002
2.483970e+003;2.714153e-002
2.485898e+003;2.713190e-002
2.487827e+003;2.691677e-002
2.489755e+003;2.675929e-002
2.491684e+003;2.666595e-002
2.493613e+003;2.671940e-002
2.495541e+003;2.695383e-002
2.497470e+003;2.697184e-002
2.499398e+003;2.674298e-002
2.501327e+003;2.661262e-002
2.503255e+003;2.648613e-002
2.505184e+003;2.660902e-002
2.507112e+003;2.708806e-002
2.509041e+003;2.762448e-002
2.510969e+003;2.780637e-002
2.512898e+003;2.775013e-002
2.514827e+003;2.771044e-002
2.516755e+003;2.771753e-002
2.518684e+003;2.787932e-002
2.520612e+003;2.800399e-002
2.522541e+003;2.788985e-002
2.524469e+003;2.791281e-002
2.526398e+003;2.841583e-002
2.528326e+003;2.891203e-002
2.530255e+003;2.908131e-002
2.532184e+003;2.893569e-002
2.534112e+003;2.884372e-002
2.536041e+003;2.894953e-002
2.537969e+003;2.921288e-002
2.539898e+003;2.950269e-002
2.541826e+003;2.969413e-002
2.543755e+003;2.965826e-002
2.545683e+003;2.976843e-002
2.547612e+003;3.000589e-002
2.549541e+003;3.000819e-002
2.551469e+003;2.995501e-002
2.553397e+003;2.997361e-002
2.555326e+003;2.999779e-002
2.557255e+003;3.000795e-002
2.559183e+003;3.010332e-002
2.561112e+003;3.040574e-002
2.563040e+003;3.053110e-002
2.564969e+003;3.033236e-002
2.566897e+003;3.020959e-002
2.568826e+003;3.020987e-002
2.570754e+003;3.035436e-002
2.572683e+003;3.069596e-002
2.574612e+003;3.085797e-002
2.576540e+003;3.071580e-002
2.578469e+003;3.080472e-002
2.580397e+003;3.102826e-002
2.582326e+003;3.112995e-002
2.584254e+003;3.140569e-002
2.586183e+003;3.173843e-002
2.588111e+003;3.150490e-002
2.590040e+003;3.129856e-002
2.591969e+003;3.135280e-002
2.593897e+003;3.166340e-002
2.595826e+003;3.192151e-002
2.597754e+003;3.181230e-002
2.599683e+003;3.178930e-002
2.601611e+003;3.207224e-002
2.603540e+003;3.226274e-002
2.605468e+003;3.213046e-002
2.607397e+003;3.200472e-002
2.609325e+003;3.223855e-002
2.611254e+003;3.230879e-002
2.613183e+003;3.245297e-002
2.615111e+003;3.265179e-002
2.617040e+003;3.247833e-002
2.618968e+003;3.236572e-002
2.620897e+003;3.256660e-002
2.622825e+003;3.265818e-002
2.624754e+003;3.243212e-002
2.626682e+003;3.241745e-002
2.628611e+003;3.264514e-002
2.630540e+003;3.283175e-002
2.632468e+003;3.311484e-002
2.634396e+003;3.334913e-002
2.636325e+003;3.329399e-002
2.638254e+003;3.322206e-002
2.640182e+003;3.342688e-002
2.642111e+003;3.344989e-002
2.644039e+003;3.344155e-002
2.645968e+003;3.367437e-002
2.647896e+003;3.394267e-002
2.649825e+003;3.396728e-002
2.651753e+003;3.391752e-002
2.653682e+003;3.372038e-002
2.655611e+003;3.377567e-002
2.657539e+003;3.398896e-002
2.659468e+003;3.389527e-002
2.661396e+003;3.396861e-002
2.663325e+003;3.404894e-002
2.665253e+003;3.412202e-002
2.667182e+003;3.429073e-002
2.669110e+003;3.468816e-002
2.671039e+003;3.519626e-002
2.672968e+003;3.511337e-002
2.674896e+003;3.484524e-002
2.676825e+003;3.484499e-002
2.678753e+003;3.506631e-002
2.680682e+003;3.528595e-002
2.682610e+003;3.546104e-002
2.684539e+003;3.538206e-002
2.686467e+003;3.561642e-002
2.688396e+003;3.612308e-002
2.690324e+003;3.646024e-002
2.692253e+003;3.681091e-002
2.694182e+003;3.694935e-002
2.696110e+003;3.678375e-002
2.698039e+003;3.670918e-002
2.699967e+003;3.702436e-002
2.701896e+003;3.722257e-002
2.703824e+003;3.745493e-002
2.705753e+003;3.783054e-002
2.707681e+003;3.793199e-002
2.709610e+003;3.768080e-002
2.711539e+003;3.785704e-002
2.713467e+003;3.831272e-002
2.715396e+003;3.863406e-002
2.717324e+003;3.907457e-002
2.719253e+003;3.954569e-002
2.721181e+003;3.994454e-002
2.723110e+003;4.008101e-002
2.725038e+003;4.003482e-002
2.726967e+003;4.046439e-002
2.728896e+003;4.101523e-002
2.730824e+003;4.134230e-002
2.732752e+003;4.183536e-002
2.734681e+003;4.215304e-002
2.736610e+003;4.228180e-002
2.738538e+003;4.231233e-002
2.740467e+003;4.242345e-002
2.742395e+003;4.283685e-002
2.744324e+003;4.312708e-002
2.746252e+003;4.299127e-002
2.748181e+003;4.285960e-002
2.750109e+003;4.287759e-002
2.752038e+003;4.292009e-002
2.753967e+003;4.324277e-002
2.755895e+003;4.364746e-002
2.757824e+003;4.394817e-002
2.759752e+003;4.396148e-002
2.761681e+003;4.367087e-002
2.763609e+003;4.354324e-002
2.765538e+003;4.388072e-002
2.767466e+003;4.402843e-002
2.769395e+003;4.416967e-002
2.771323e+003;4.440732e-002
2.773252e+003;4.470136e-002
2.775181e+003;4.521406e-002
2.777109e+003;4.557599e-002
2.779038e+003;4.586530e-002
2.780966e+003;4.603244e-002
2.782895e+003;4.614305e-002
2.784823e+003;4.661728e-002
2.786752e+003;4.680380e-002
2.788680e+003;4.671402e-002
2.790609e+003;4.721847e-002
2.792538e+003;4.779252e-002
2.794466e+003;4.820259e-002
2.796395e+003;4.851603e-002
2.798323e+003;4.862560e-002
2.800252e+003;4.889547e-002
2.802180e+003;4.951694e-002
2.804109e+003;5.006887e-002
2.806037e+003;5.068628e-002
2.807966e+003;5.115347e-002
2.809895e+003;5.167531e-002
2.811823e+003;5.231905e-002
2.813751e+003;5.297003e-002
2.815680e+003;5.355935e-002
2.817609e+003;5.397561e-002
2.819537e+003;5.459240e-002
2.821466e+003;5.531627e-002
2.823394e+003;5.593212e-002
2.825323e+003;5.646298e-002
2.827251e+003;5.687119e-002
2.829180e+003;5.730505e-002
2.831108e+003;5.826536e-002
2.833037e+003;5.977013e-002
2.834966e+003;6.144843e-002
2.836894e+003;6.319688e-002
2.838823e+003;6.548417e-002
2.840751e+003;6.864596e-002
2.842680e+003;7.298706e-002
2.844608e+003;7.780395e-002
2.846537e+003;8.271120e-002
2.848465e+003;8.797514e-002
2.850394e+003;9.303362e-002
2.852323e+003;9.700532e-002
2.854251e+003;1.000687e-001
2.856180e+003;1.023521e-001
2.858108e+003;1.039358e-001
2.860037e+003;1.049288e-001
2.861965e+003;1.049270e-001
2.863894e+003;1.039757e-001
2.865822e+003;1.026602e-001
2.867751e+003;1.010730e-001
2.869679e+003;9.891810e-002
2.871608e+003;9.607633e-002
2.873536e+003;9.308194e-002
2.875465e+003;9.014095e-002
2.877394e+003;8.708853e-002
2.879322e+003;8.452511e-002
2.881251e+003;8.270959e-002
2.883179e+003;8.157730e-002
2.885108e+003;8.132369e-002
2.887036e+003;8.170634e-002
2.888965e+003;8.246782e-002
2.890893e+003;8.398870e-002
2.892822e+003;8.600350e-002
2.894750e+003;8.794548e-002
2.896679e+003;8.967443e-002
2.898608e+003;9.145182e-002
2.900536e+003;9.318007e-002
2.902465e+003;9.456462e-002
2.904393e+003;9.577657e-002
2.906322e+003;9.717607e-002
2.908250e+003;9.915871e-002
2.910179e+003;1.015973e-001
2.912107e+003;1.042755e-001
2.914036e+003;1.074315e-001
2.915965e+003;1.113664e-001
2.917893e+003;1.151986e-001
2.919822e+003;1.185787e-001
2.921750e+003;1.218596e-001
2.923679e+003;1.249961e-001
2.925607e+003;1.278290e-001
2.927536e+003;1.299950e-001
2.929464e+003;1.317270e-001
2.931393e+003;1.331398e-001
2.933322e+003;1.335737e-001
2.935250e+003;1.329030e-001
2.937178e+003;1.312014e-001
2.939107e+003;1.288276e-001
2.941036e+003;1.260040e-001
2.942964e+003;1.227100e-001
2.944893e+003;1.188668e-001
2.946821e+003;1.135972e-001
2.948750e+003;1.073348e-001
2.950678e+003;1.009223e-001
2.952607e+003;9.475750e-002
2.954535e+003;8.913891e-002
2.956464e+003;8.375423e-002
2.958393e+003;7.867660e-002
2.960321e+003;7.473838e-002
2.962250e+003;7.165634e-002
2.964178e+003;6.852680e-002
2.966107e+003;6.543968e-002
2.968035e+003;6.258562e-002
2.969964e+003;6.024160e-002
2.971892e+003;5.815954e-002
2.973821e+003;5.615819e-002
2.975750e+003;5.403403e-002
2.977678e+003;5.214693e-002
2.979607e+003;5.069094e-002
2.981535e+003;4.950922e-002
2.983464e+003;4.878606e-002
2.985392e+003;4.760754e-002
2.987321e+003;4.637201e-002
2.989249e+003;4.576496e-002
2.991178e+003;4.532681e-002
2.993106e+003;4.505363e-002
2.995035e+003;4.493963e-002
2.996964e+003;4.479972e-002
2.998892e+003;4.439627e-002
3.000821e+003;4.390040e-002
3.002749e+003;4.377446e-002
3.004678e+003;4.385594e-002
3.006606e+003;4.401791e-002
3.008535e+003;4.413456e-002
3.010463e+003;4.416402e-002
3.012392e+003;4.433304e-002
3.014321e+003;4.450833e-002
3.016249e+003;4.476324e-002
3.018177e+003;4.509649e-002
3.020106e+003;4.555726e-002
3.022035e+003;4.582752e-002
3.023963e+003;4.613048e-002
3.025892e+003;4.651729e-002
3.027820e+003;4.684687e-002
3.029749e+003;4.730004e-002
3.031677e+003;4.789632e-002
3.033606e+003;4.845330e-002
3.035534e+003;4.879281e-002
3.037463e+003;4.944353e-002
3.039392e+003;5.032309e-002
3.041320e+003;5.095018e-002
3.043249e+003;5.143902e-002
3.045177e+003;5.221631e-002
3.047106e+003;5.322378e-002
3.049034e+003;5.408750e-002
3.050963e+003;5.500142e-002
3.052891e+003;5.572281e-002
3.054820e+003;5.631399e-002
3.056749e+003;5.675355e-002
3.058677e+003;5.709723e-002
3.060606e+003;5.762532e-002
3.062534e+003;5.817496e-002
3.064463e+003;5.853993e-002
3.066391e+003;5.882583e-002
3.068320e+003;5.895378e-002
3.070248e+003;5.900316e-002
3.072177e+003;5.906538e-002
3.074105e+003;5.911750e-002
3.076034e+003;5.925906e-002
3.077963e+003;5.946434e-002
3.079891e+003;5.944998e-002
3.081820e+003;5.906804e-002
3.083748e+003;5.903178e-002
3.085677e+003;5.896490e-002
3.087605e+003;5.855165e-002
3.089534e+003;5.781976e-002
3.091462e+003;5.730807e-002
3.093391e+003;5.675148e-002
3.095320e+003;5.607622e-002
3.097248e+003;5.569945e-002
3.099177e+003;5.516636e-002
3.101105e+003;5.434116e-002
3.103034e+003;5.372115e-002
3.104962e+003;5.322693e-002
3.106891e+003;5.237029e-002
3.108819e+003;5.168942e-002
3.110748e+003;5.135156e-002
3.112677e+003;5.107751e-002
3.114605e+003;5.092529e-002
3.116533e+003;5.039844e-002
3.118462e+003;4.969215e-002
3.120391e+003;4.947086e-002
3.122319e+003;4.930844e-002
3.124248e+003;4.903096e-002
3.126176e+003;4.890849e-002
3.128105e+003;4.895500e-002
3.130033e+003;4.882606e-002
3.131962e+003;4.851299e-002
3.133890e+003;4.850287e-002
3.135819e+003;4.862708e-002
3.137748e+003;4.864950e-002
3.139676e+003;4.865973e-002
3.141605e+003;4.852455e-002
3.143533e+003;4.821891e-002
3.145462e+003;4.848839e-002
3.147390e+003;4.914474e-002
3.149319e+003;4.947424e-002
3.151247e+003;4.953061e-002
3.153176e+003;4.962290e-002
3.155104e+003;5.017660e-002
3.157033e+003;5.090532e-002
3.158962e+003;5.104080e-002
3.160890e+003;5.116070e-002
3.162819e+003;5.152930e-002
3.164747e+003;5.205484e-002
3.166676e+003;5.220305e-002
3.168604e+003;5.247650e-002
3.170533e+003;5.336703e-002
3.172461e+003;5.444515e-002
3.174390e+003;5.523954e-002
3.176319e+003;5.546326e-002
3.178247e+003;5.579898e-002
3.180176e+003;5.642136e-002
3.182104e+003;5.695157e-002
3.184033e+003;5.750415e-002
3.185961e+003;5.834824e-002
3.187890e+003;5.879392e-002
3.189818e+003;5.909400e-002
3.191747e+003;5.962840e-002
3.193676e+003;5.994929e-002
3.195604e+003;6.017656e-002
3.197532e+003;6.062172e-002
3.199461e+003;6.151969e-002
3.201390e+003;6.190716e-002
3.203318e+003;6.180042e-002
3.205247e+003;6.234295e-002
3.207175e+003;6.280286e-002
3.209104e+003;6.306465e-002
3.211032e+003;6.356434e-002
3.212961e+003;6.410120e-002
3.214889e+003;6.453753e-002
3.216818e+003;6.508938e-002
3.218747e+003;6.543267e-002
3.220675e+003;6.577769e-002
3.222604e+003;6.644524e-002
3.224532e+003;6.724334e-002
3.226461e+003;6.817617e-002
3.228389e+003;6.904571e-002
3.230318e+003;6.982059e-002
3.232246e+003;7.110452e-002
3.234175e+003;7.249110e-002
3.236104e+003;7.390117e-002
3.238032e+003;7.553118e-002
3.239961e+003;7.708450e-002
3.241889e+003;7.863785e-002
3.243818e+003;8.034755e-002
3.245746e+003;8.209524e-002
3.247675e+003;8.378360e-002
3.249603e+003;8.562408e-002
3.251532e+003;8.770667e-002
3.253460e+003;8.993895e-002
3.255389e+003;9.211348e-002
3.257318e+003;9.425561e-002
3.259246e+003;9.655865e-002
3.261175e+003;9.895867e-002
3.263103e+003;1.012699e-001
3.265032e+003;1.032690e-001
3.266960e+003;1.057219e-001
3.268889e+003;1.082979e-001
3.270817e+003;1.106600e-001
3.272746e+003;1.127494e-001
3.274675e+003;1.152721e-001
3.276603e+003;1.180880e-001
3.278531e+003;1.207281e-001
3.280460e+003;1.227176e-001
3.282389e+003;1.246460e-001
3.284317e+003;1.268757e-001
3.286246e+003;1.287142e-001
3.288174e+003;1.303621e-001
3.290103e+003;1.317973e-001
3.292031e+003;1.320656e-001
3.293960e+003;1.318258e-001
3.295888e+003;1.311097e-001
3.297817e+003;1.294838e-001
3.299746e+003;1.272023e-001
3.301674e+003;1.243012e-001
3.303603e+003;1.206201e-001
3.305531e+003;1.172185e-001
3.307460e+003;1.140899e-001
3.309388e+003;1.107975e-001
3.311317e+003;1.077040e-001
3.313245e+003;1.047259e-001
3.315174e+003;1.013332e-001
3.317103e+003;9.808234e-002
3.319031e+003;9.509578e-002
3.320960e+003;9.182635e-002
3.322888e+003;8.874410e-002
3.324817e+003;8.621023e-002
3.326745e+003;8.357256e-002
3.328674e+003;8.098822e-002
3.330602e+003;7.853044e-002
3.332531e+003;7.641788e-002
3.334459e+003;7.441696e-002
3.336388e+003;7.238881e-002
3.338317e+003;7.053839e-002
3.340245e+003;6.900764e-002
3.342174e+003;6.741772e-002
3.344102e+003;6.549338e-002
3.346031e+003;6.348744e-002
3.347959e+003;6.159243e-002
3.349888e+003;5.994469e-002
3.351816e+003;5.879032e-002
3.353745e+003;5.745369e-002
3.355674e+003;5.618459e-002
3.357602e+003;5.529057e-002
3.359531e+003;5.417176e-002
3.361459e+003;5.308414e-002
3.363388e+003;5.247007e-002
3.365316e+003;5.175392e-002
3.367245e+003;5.087414e-002
3.369173e+003;4.963958e-002
3.371102e+003;4.891735e-002
3.373031e+003;4.825734e-002
3.374959e+003;4.713163e-002
3.376887e+003;4.635273e-002
3.378816e+003;4.628719e-002
3.380745e+003;4.615171e-002
3.382673e+003;4.586199e-002
3.384602e+003;4.531725e-002
3.386530e+003;4.459494e-002
3.388459e+003;4.416105e-002
3.390387e+003;4.416915e-002
3.392316e+003;4.407801e-002
3.394244e+003;4.327004e-002
3.396173e+003;4.239598e-002
3.398102e+003;4.241238e-002
3.400030e+003;4.245520e-002
3.401959e+003;4.202008e-002
3.403887e+003;4.196979e-002
3.405816e+003;4.175131e-002
3.407744e+003;4.124067e-002
3.409673e+003;4.094317e-002
3.411601e+003;4.060258e-002
3.413530e+003;4.042122e-002
3.415458e+003;4.039955e-002
3.417387e+003;4.024986e-002
3.419316e+003;3.990372e-002
3.421244e+003;3.989108e-002
3.423173e+003;3.994770e-002
3.425101e+003;3.980544e-002
3.427030e+003;3.971158e-002
3.428958e+003;3.951930e-002
3.430887e+003;3.917812e-002
3.432815e+003;3.916790e-002
3.434744e+003;3.905478e-002
3.436673e+003;3.924775e-002
3.438601e+003;3.940155e-002
3.440530e+003;3.907921e-002
3.442458e+003;3.895778e-002
3.444387e+003;3.896760e-002
3.446315e+003;3.854349e-002
3.448244e+003;3.818351e-002
3.450172e+003;3.844737e-002
3.452101e+003;3.842369e-002
3.454030e+003;3.798482e-002
3.455958e+003;3.766927e-002
3.457886e+003;3.745012e-002
3.459815e+003;3.730983e-002
3.461744e+003;3.685664e-002
3.463672e+003;3.655024e-002
3.465601e+003;3.672984e-002
3.467529e+003;3.684502e-002
3.469458e+003;3.645163e-002
3.471386e+003;3.632517e-002
3.473315e+003;3.633352e-002
3.475243e+003;3.614663e-002
3.477172e+003;3.620706e-002
3.479101e+003;3.625327e-002
3.481029e+003;3.601763e-002
3.482958e+003;3.600434e-002
3.484886e+003;3.614339e-002
3.486815e+003;3.616435e-002
3.488743e+003;3.607458e-002
3.490672e+003;3.594293e-002
3.492600e+003;3.603570e-002
3.494529e+003;3.612139e-002
3.496458e+003;3.563167e-002
3.498386e+003;3.527251e-002
3.500315e+003;3.534496e-002
3.502243e+003;3.563131e-002
3.504172e+003;3.577499e-002
3.506100e+003;3.545079e-002
3.508029e+003;3.496075e-002
3.509957e+003;3.425964e-002
3.511886e+003;3.414367e-002
3.513814e+003;3.466602e-002
3.515743e+003;3.474121e-002
3.517672e+003;3.423870e-002
3.519600e+003;3.375057e-002
3.521529e+003;3.374881e-002
3.523457e+003;3.355766e-002
3.525386e+003;3.331381e-002
3.527314e+003;3.345018e-002
3.529243e+003;3.338916e-002
3.531171e+003;3.330741e-002
3.533100e+003;3.298852e-002
3.535029e+003;3.248293e-002
3.536957e+003;3.249061e-002
3.538885e+003;3.252653e-002
3.540814e+003;3.172855e-002
3.542743e+003;3.088245e-002
3.544671e+003;3.079035e-002
3.546600e+003;3.117480e-002
3.548528e+003;3.113020e-002
3.550457e+003;3.043485e-002
3.552385e+003;2.994017e-002
3.554314e+003;3.001270e-002
3.556242e+003;3.003724e-002
3.558171e+003;2.978823e-002
3.560100e+003;2.950698e-002
3.562028e+003;2.906742e-002
3.563957e+003;2.875216e-002
3.565885e+003;2.812674e-002
3.567814e+003;2.749731e-002
3.569742e+003;2.739482e-002
3.571671e+003;2.731228e-002
3.573599e+003;2.730321e-002
3.575528e+003;2.746985e-002
3.577457e+003;2.738151e-002
3.579385e+003;2.717561e-002
3.581314e+003;2.686675e-002
3.583242e+003;2.639464e-002
3.585171e+003;2.573822e-002
3.587099e+003;2.525336e-002
3.589028e+003;2.555801e-002
3.590956e+003;2.555313e-002
3.592885e+003;2.494380e-002
3.594813e+003;2.448310e-002
3.596742e+003;2.404317e-002
3.598671e+003;2.411209e-002
3.600599e+003;2.421088e-002
3.602528e+003;2.413353e-002
3.604456e+003;2.381283e-002
3.606385e+003;2.295404e-002
3.608313e+003;2.198777e-002
3.610242e+003;2.191789e-002
3.612170e+003;2.188914e-002
3.614099e+003;2.192253e-002
3.616028e+003;2.139154e-002
3.617956e+003;2.099475e-002
3.619885e+003;2.145534e-002
3.621813e+003;2.183736e-002
3.623742e+003;2.167046e-002
3.625670e+003;2.129377e-002
3.627599e+003;2.007505e-002
3.629527e+003;1.961848e-002
3.631456e+003;2.026209e-002
3.633385e+003;2.051046e-002
3.635313e+003;2.046436e-002
3.637241e+003;2.030219e-002
3.639170e+003;1.993737e-002
3.641099e+003;1.967547e-002
3.643027e+003;1.934589e-002
3.644956e+003;1.860937e-002
3.646884e+003;1.746146e-002
3.648813e+003;1.681296e-002
3.650741e+003;1.746267e-002
3.652670e+003;1.796736e-002
3.654598e+003;1.767810e-002
3.656527e+003;1.748192e-002
3.658456e+003;1.750200e-002
3.660384e+003;1.730651e-002
3.662313e+003;1.771776e-002
3.664241e+003;1.803955e-002
3.666170e+003;1.786485e-002
3.668098e+003;1.730707e-002
3.670027e+003;1.659554e-002
3.671955e+003;1.664429e-002
3.673884e+003;1.599673e-002
3.675813e+003;1.546953e-002
3.677741e+003;1.617553e-002
3.679669e+003;1.632391e-002
3.681598e+003;1.639864e-002
3.683527e+003;1.635381e-002
3.685455e+003;1.580920e-002
3.687384e+003;1.460729e-002
3.689312e+003;1.437516e-002
3.691241e+003;1.519411e-002
3.693169e+003;1.569431e-002
3.695098e+003;1.557413e-002
3.697026e+003;1.527235e-002
3.698955e+003;1.488930e-002
3.700884e+003;1.459663e-002
3.702812e+003;1.481031e-002
3.704741e+003;1.447826e-002
3.706669e+003;1.406059e-002
3.708598e+003;1.380262e-002
3.710526e+003;1.343870e-002
3.712455e+003;1.359645e-002
3.714383e+003;1.411457e-002
3.716312e+003;1.422671e-002
3.718240e+003;1.404492e-002
3.720169e+003;1.379478e-002
3.722098e+003;1.379831e-002
3.724026e+003;1.403383e-002
3.725955e+003;1.406336e-002
3.727883e+003;1.404389e-002
3.729812e+003;1.376123e-002
3.731740e+003;1.339776e-002
3.733669e+003;1.342712e-002
3.735597e+003;1.310241e-002
3.737526e+003;1.374584e-002
3.739455e+003;1.451858e-002
3.741383e+003;1.419884e-002
3.743312e+003;1.275488e-002
3.745240e+003;1.276808e-002
3.747169e+003;1.338173e-002
3.749097e+003;1.259607e-002
3.751026e+003;1.233883e-002
3.752954e+003;1.314055e-002
3.754883e+003;1.389723e-002
3.756812e+003;1.378928e-002
3.758740e+003;1.384790e-002
3.760668e+003;1.409434e-002
3.762597e+003;1.448360e-002
3.764526e+003;1.453345e-002
3.766454e+003;1.423503e-002
3.768383e+003;1.379646e-002
3.770311e+003;1.383528e-002
3.772240e+003;1.398133e-002
3.774168e+003;1.452091e-002
3.776097e+003;1.504151e-002
3.778025e+003;1.494996e-002
3.779954e+003;1.486461e-002
3.781883e+003;1.498975e-002
3.783811e+003;1.480019e-002
3.785740e+003;1.453451e-002
3.787668e+003;1.456401e-002
3.789597e+003;1.472036e-002
3.791525e+003;1.435485e-002
3.793454e+003;1.386959e-002
3.795382e+003;1.331921e-002
3.797311e+003;1.345104e-002
3.799240e+003;1.354592e-002
3.801168e+003;1.358123e-002
3.803097e+003;1.429643e-002
3.805025e+003;1.417820e-002
3.806954e+003;1.379779e-002
3.808882e+003;1.440444e-002
3.810811e+003;1.432406e-002
3.812739e+003;1.385358e-002
3.814668e+003;1.372915e-002
3.816596e+003;1.429965e-002
3.818525e+003;1.430759e-002
3.820454e+003;1.348775e-002
3.822382e+003;1.422038e-002
3.824311e+003;1.507948e-002
3.826239e+003;1.479004e-002
3.828168e+003;1.483492e-002
3.830096e+003;1.473122e-002
3.832025e+003;1.451892e-002
3.833953e+003;1.451687e-002
3.835882e+003;1.411183e-002
3.837811e+003;1.395642e-002
3.839739e+003;1.432053e-002
3.841667e+003;1.478494e-002
3.843596e+003;1.523861e-002
3.845525e+003;1.536406e-002
3.847453e+003;1.541281e-002
3.849382e+003;1.456717e-002
3.851310e+003;1.329222e-002
3.853239e+003;1.302251e-002
3.855167e+003;1.424373e-002
3.857096e+003;1.501801e-002
3.859024e+003;1.498597e-002
3.860953e+003;1.500137e-002
3.862882e+003;1.479769e-002
3.864810e+003;1.463238e-002
3.866739e+003;1.476430e-002
3.868667e+003;1.452050e-002
3.870596e+003;1.472070e-002
3.872524e+003;1.499256e-002
3.874453e+003;1.508565e-002
3.876381e+003;1.519140e-002
3.878310e+003;1.480503e-002
3.880239e+003;1.498584e-002
3.882167e+003;1.586979e-002
3.884096e+003;1.587419e-002
3.886024e+003;1.547159e-002
3.887953e+003;1.587144e-002
3.889881e+003;1.574732e-002
3.891810e+003;1.545082e-002
3.893738e+003;1.568311e-002
3.895667e+003;1.593939e-002
3.897595e+003;1.573918e-002
3.899524e+003;1.553504e-002
3.901453e+003;1.566968e-002
3.903381e+003;1.553425e-002
3.905310e+003;1.555146e-002
3.907238e+003;1.632096e-002
3.909167e+003;1.683844e-002
3.911095e+003;1.672596e-002
3.913024e+003;1.635395e-002
3.914952e+003;1.603516e-002
3.916881e+003;1.641065e-002
3.918810e+003;1.666719e-002
3.920738e+003;1.618082e-002
3.922667e+003;1.589928e-002
3.924595e+003;1.601529e-002
3.926524e+003;1.664016e-002
3.928452e+003;1.735072e-002
3.930381e+003;1.752914e-002
3.932309e+003;1.765139e-002
3.934238e+003;1.806960e-002
3.936167e+003;1.799375e-002
3.938095e+003;1.740538e-002
3.940023e+003;1.722952e-002
3.941952e+003;1.719767e-002
3.943881e+003;1.703220e-002
3.945809e+003;1.748296e-002
3.947738e+003;1.787855e-002
3.949666e+003;1.743287e-002
3.951595e+003;1.752766e-002
3.953523e+003;1.805426e-002
3.955452e+003;1.808980e-002
3.957380e+003;1.810383e-002
3.959309e+003;1.824787e-002
3.961238e+003;1.806217e-002
3.963166e+003;1.788760e-002
3.965095e+003;1.832175e-002
3.967023e+003;1.872604e-002
3.968952e+003;1.868124e-002
3.970880e+003;1.872874e-002
3.972809e+003;1.869013e-002
3.974737e+003;1.862880e-002
3.976666e+003;1.872763e-002
3.978594e+003;1.860491e-002
3.980523e+003;1.866246e-002
3.982452e+003;1.898284e-002
3.984380e+003;1.905789e-002
3.986309e+003;1.904314e-002
3.988237e+003;1.899495e-002
3.990166e+003;1.902642e-002
3.992094e+003;1.915009e-002
3.994023e+003;1.944938e-002
3.995951e+003;1.970539e-002
3.997880e+003;1.976628e-002
3.999809e+003;2.010378e-002
4.001737e+003;0.000000e+000
