3.992094e+002;0.000000e+000
4.011380e+002;0.000000e+000
4.030665e+002;0.000000e+000
4.049951e+002;0.000000e+000
4.069236e+002;0.000000e+000
4.088522e+002;0.000000e+000
4.107807e+002;0.000000e+000
4.127093e+002;0.000000e+000
4.146378e+002;0.000000e+000
4.165664e+002;0.000000e+000
4.184949e+002;0.000000e+000
4.204235e+002;0.000000e+000
4.223520e+002;0.000000e+000
4.242806e+002;0.000000e+000
4.262091e+002;0.000000e+000
4.281377e+002;0.000000e+000
4.300662e+002;0.000000e+000
4.319948e+002;0.000000e+000
4.339233e+002;0.000000e+000
4.358519e+002;0.000000e+000
4.377804e+002;0.000000e+000
4.397090e+002;0.000000e+000
4.416375e+002;0.000000e+000
4.435660e+002;0.000000e+000
4.454946e+002;0.000000e+000
4.474232e+002;0.000000e+000
4.493517e+002;0.000000e+000
4.512802e+002;0.000000e+000
4.532088e+002;0.000000e+000
4.551373e+002;0.000000e+000
4.570659e+002;0.000000e+000
4.589944e+002;0.000000e+000
4.609230e+002;0.000000e+000
4.628515e+002;0.000000e+000
4.647801e+002;0.000000e+000
4.667086e+002;0.000000e+000
4.686372e+002;0.000000e+000
4.705657e+002;0.000000e+000
4.724943e+002;0.000000e+000
4.744228e+002;0.000000e+000
4.763513e+002;0.000000e+000
4.782799e+002;0.000000e+000
4.802085e+002;0.000000e+000
4.821370e+002;0.000000e+000
4.840656e+002;0.000000e+000
4.859941e+002;0.000000e+000
4.879226e+002;0.000000e+000
4.898512e+002;0.000000e+000
4.917798e+002;0.000000e+000
4.937083e+002;0.000000e+000
4.956368e+002;0.000000e+000
4.975654e+002;0.000000e+000
4.994939e+002;0.000000e+000
5.014225e+002;0.000000e+000
5.033510e+002;0.000000e+000
5.052796e+002;0.000000e+000
5.072081e+002;0.000000e+000
5.091367e+002;0.000000e+000
5.110652e+002;0.000000e+000
5.129938e+002;0.000000e+000
5.149223e+002;0.000000e+000
5.168509e+002;0.000000e+000
5.187794e+002;0.000000e+000
5.207079e+002;0.000000e+000
5.226365e+002;0.000000e+000
5.245651e+002;0.000000e+000
5.264936e+002;0.000000e+000
5.284222e+002;0.000000e+000
5.303507e+002;0.000000e+000
5.322792e+002;0.000000e+000
5.342078e+002;0.000000e+000
5.361364e+002;0.000000e+000
5.380649e+002;0.000000e+000
5.399935e+002;0.000000e+000
5.419220e+002;0.000000e+000
5.438505e+002;0.000000e+000
5.457791e+002;0.000000e+000
5.477076e+002;0.000000e+000
5.496362e+002;0.000000e+000
5.515648e+002;0.000000e+000
5.534933e+002;0.000000e+000
5.554218e+002;0.000000e+000
5.573504e+002;0.000000e+000
5.592789e+002;0.000000e+000
5.612075e+002;0.000000e+000
5.631360e+002;0.000000e+000
5.650646e+002;0.000000e+000
5.669931e+002;0.000000e+000
5.689217e+002;0.000000e+000
5.708502e+002;0.000000e+000
5.727787e+002;0.000000e+000
5.747073e+002;0.000000e+000
5.766359e+002;0.000000e+000
5.785644e+002;0.000000e+000
5.804930e+002;0.000000e+000
5.824215e+002;0.000000e+000
5.843500e+002;0.000000e+000
5.862786e+002;0.000000e+000
5.882072e+002;0.000000e+000
5.901357e+002;0.000000e+000
5.920643e+002;0.000000e+000
5.939928e+002;0.000000e+000
5.959213e+002;0.000000e+000
5.978499e+002;0.000000e+000
5.997784e+002;1.363913e-001
6.017070e+002;1.387084e-001
6.036355e+002;1.405628e-001
6.055641e+002;1.422121e-001
6.074926e+002;1.387297e-001
6.094211e+002;1.379574e-001
6.113497e+002;1.427331e-001
6.132783e+002;1.455223e-001
6.152068e+002;1.421119e-001
6.171354e+002;1.384839e-001
6.190639e+002;1.399318e-001
6.209924e+002;1.415222e-001
6.229210e+002;1.408773e-001
6.248495e+002;1.423548e-001
6.267781e+002;1.441556e-001
6.287067e+002;1.438073e-001
6.306352e+002;1.448974e-001
6.325637e+002;1.435784e-001
6.344923e+002;1.446955e-001
6.364208e+002;1.476004e-001
6.383494e+002;1.487053e-001
6.402780e+002;1.473123e-001
6.422065e+002;1.492649e-001
6.441350e+002;1.494774e-001
6.460636e+002;1.505814e-001
6.479921e+002;1.557427e-001
6.499207e+002;1.593065e-001
6.518492e+002;1.603321e-001
6.537778e+002;1.610003e-001
6.557063e+002;1.627319e-001
6.576349e+002;1.644014e-001
6.595634e+002;1.666251e-001
6.614919e+002;1.702482e-001
6.634205e+002;1.751434e-001
6.653491e+002;1.778510e-001
6.672776e+002;1.794518e-001
6.692062e+002;1.791702e-001
6.711347e+002;1.788416e-001
6.730632e+002;1.828596e-001
6.749918e+002;1.858731e-001
6.769203e+002;1.856972e-001
6.788489e+002;1.853945e-001
6.807775e+002;1.868486e-001
6.827060e+002;1.885695e-001
6.846345e+002;1.885776e-001
6.865631e+002;1.859746e-001
6.884916e+002;1.831197e-001
6.904202e+002;1.807234e-001
6.923488e+002;1.788345e-001
6.942773e+002;1.760733e-001
6.962058e+002;1.717188e-001
6.981344e+002;1.685430e-001
7.000629e+002;1.661244e-001
7.019915e+002;1.638076e-001
7.039200e+002;1.612845e-001
7.058486e+002;1.592859e-001
7.077771e+002;1.585988e-001
7.097057e+002;1.572986e-001
7.116342e+002;1.560538e-001
7.135627e+002;1.552615e-001
7.154913e+002;1.528496e-001
7.174199e+002;1.491821e-001
7.193484e+002;1.475984e-001
7.212770e+002;1.482563e-001
7.232055e+002;1.487037e-001
7.251340e+002;1.492030e-001
7.270626e+002;1.493312e-001
7.289911e+002;1.476255e-001
7.309197e+002;1.440968e-001
7.328483e+002;1.381302e-001
7.347768e+002;1.306794e-001
7.367053e+002;1.244962e-001
7.386339e+002;1.197621e-001
7.405624e+002;1.151704e-001
7.424910e+002;1.124068e-001
7.444196e+002;1.105234e-001
7.463481e+002;1.084505e-001
7.482766e+002;1.063651e-001
7.502052e+002;1.048047e-001
7.521337e+002;1.028936e-001
7.540623e+002;1.010468e-001
7.559908e+002;9.953035e-002
7.579194e+002;9.783258e-002
7.598479e+002;9.616695e-002
7.617765e+002;9.526612e-002
7.637050e+002;9.477836e-002
7.656335e+002;9.414189e-002
7.675621e+002;9.298383e-002
7.694907e+002;9.155568e-002
7.714192e+002;9.037740e-002
7.733478e+002;8.945208e-002
7.752763e+002;8.860336e-002
7.772048e+002;8.778745e-002
7.791334e+002;8.657852e-002
7.810620e+002;8.544914e-002
7.829905e+002;8.390405e-002
7.849191e+002;8.182545e-002
7.868476e+002;8.034293e-002
7.887761e+002;7.910518e-002
7.907047e+002;7.767100e-002
7.926332e+002;7.655950e-002
7.945618e+002;7.535592e-002
7.964903e+002;7.469745e-002
7.984189e+002;7.382611e-002
8.003474e+002;7.181323e-002
8.022759e+002;7.074288e-002
8.042045e+002;7.050885e-002
8.061331e+002;6.994969e-002
8.080616e+002;6.900127e-002
8.099902e+002;6.834875e-002
8.119187e+002;6.729305e-002
8.138472e+002;6.562204e-002
8.157758e+002;6.515155e-002
8.177043e+002;6.562154e-002
8.196329e+002;6.547820e-002
8.215615e+002;6.524957e-002
8.234900e+002;6.606901e-002
8.254185e+002;6.638875e-002
8.273471e+002;6.683376e-002
8.292756e+002;6.820079e-002
8.312042e+002;6.949560e-002
8.331328e+002;7.007823e-002
8.350613e+002;6.899720e-002
8.369898e+002;6.636459e-002
8.389184e+002;6.400117e-002
8.408469e+002;6.194297e-002
8.427755e+002;5.983435e-002
8.447040e+002;5.854414e-002
8.466326e+002;5.777759e-002
8.485611e+002;5.718347e-002
8.504897e+002;5.722021e-002
8.524182e+002;5.701153e-002
8.543467e+002;5.691478e-002
8.562753e+002;5.661636e-002
8.582039e+002;5.630788e-002
8.601324e+002;5.607076e-002
8.620610e+002;5.538210e-002
8.639895e+002;5.539979e-002
8.659180e+002;5.601986e-002
8.678466e+002;5.638031e-002
8.697751e+002;5.602567e-002
8.717037e+002;5.577197e-002
8.736323e+002;5.598206e-002
8.755608e+002;5.613926e-002
8.774893e+002;5.651479e-002
8.794179e+002;5.642724e-002
8.813464e+002;5.618613e-002
8.832750e+002;5.723681e-002
8.852036e+002;5.817678e-002
8.871321e+002;5.843518e-002
8.890606e+002;5.830090e-002
8.909892e+002;5.816985e-002
8.929177e+002;5.828639e-002
8.948463e+002;5.849679e-002
8.967748e+002;5.897940e-002
8.987034e+002;5.936188e-002
9.006319e+002;5.939588e-002
9.025605e+002;5.963722e-002
9.044890e+002;6.024476e-002
9.064175e+002;6.114676e-002
9.083461e+002;6.198317e-002
9.102747e+002;6.239328e-002
9.122032e+002;6.266718e-002
9.141318e+002;6.348771e-002
9.160603e+002;6.429699e-002
9.179888e+002;6.521646e-002
9.199174e+002;6.663911e-002
9.218459e+002;6.799641e-002
9.237745e+002;6.959908e-002
9.257031e+002;7.171023e-002
9.276316e+002;7.292686e-002
9.295601e+002;7.289076e-002
9.314887e+002;7.200106e-002
9.334172e+002;7.062759e-002
9.353458e+002;6.895607e-002
9.372744e+002;6.733596e-002
9.392029e+002;6.680946e-002
9.411314e+002;6.733147e-002
9.430600e+002;6.821583e-002
9.449885e+002;6.901048e-002
9.469171e+002;7.074397e-002
9.488456e+002;7.291835e-002
9.507742e+002;7.454888e-002
9.527027e+002;7.533121e-002
9.546313e+002;7.582127e-002
9.565598e+002;7.659961e-002
9.584883e+002;7.720030e-002
9.604169e+002;7.740814e-002
9.623455e+002;7.655384e-002
9.642740e+002;7.511754e-002
9.662026e+002;7.438400e-002
9.681311e+002;7.402696e-002
9.700596e+002;7.401133e-002
9.719882e+002;7.376375e-002
9.739167e+002;7.314945e-002
9.758453e+002;7.255159e-002
9.777739e+002;7.168506e-002
9.797024e+002;7.071187e-002
9.816309e+002;7.021411e-002
9.835595e+002;6.975029e-002
9.854880e+002;6.896636e-002
9.874166e+002;6.797018e-002
9.893452e+002;6.695776e-002
9.912737e+002;6.594558e-002
9.932022e+002;6.499205e-002
9.951307e+002;6.416776e-002
9.970593e+002;6.374484e-002
9.989879e+002;6.365632e-002
1.000916e+003;6.360515e-002
1.002845e+003;6.343517e-002
1.004773e+003;6.365375e-002
1.006702e+003;6.366392e-002
1.008631e+003;6.363549e-002
1.010559e+003;6.360362e-002
1.012488e+003;6.307714e-002
1.014416e+003;6.266668e-002
1.016345e+003;6.275098e-002
1.018273e+003;6.295670e-002
1.020202e+003;6.332069e-002
1.022130e+003;6.462188e-002
1.024059e+003;6.652791e-002
1.025988e+003;6.790245e-002
1.027916e+003;6.873837e-002
1.029845e+003;6.894100e-002
1.031773e+003;6.833301e-002
1.033702e+003;6.786991e-002
1.035630e+003;6.775352e-002
1.037559e+003;6.670880e-002
1.039487e+003;6.538875e-002
1.041416e+003;6.448583e-002
1.043344e+003;6.407136e-002
1.045273e+003;6.408411e-002
1.047202e+003;6.394438e-002
1.049130e+003;6.394838e-002
1.051059e+003;6.501579e-002
1.052987e+003;6.625172e-002
1.054916e+003;6.742883e-002
1.056844e+003;6.923582e-002
1.058773e+003;7.116431e-002
1.060701e+003;7.260486e-002
1.062630e+003;7.338733e-002
1.064558e+003;7.464617e-002
1.066487e+003;7.620190e-002
1.068416e+003;7.709087e-002
1.070344e+003;7.761763e-002
1.072273e+003;7.807292e-002
1.074201e+003;7.806940e-002
1.076130e+003;7.740193e-002
1.078058e+003;7.689113e-002
1.079987e+003;7.622555e-002
1.081915e+003;7.514858e-002
1.083844e+003;7.449896e-002
1.085773e+003;7.417760e-002
1.087701e+003;7.410166e-002
1.089630e+003;7.371553e-002
1.091558e+003;7.347841e-002
1.093487e+003;7.379858e-002
1.095415e+003;7.443740e-002
1.097344e+003;7.535820e-002
1.099272e+003;7.687092e-002
1.101201e+003;7.841972e-002
1.103129e+003;8.038694e-002
1.105058e+003;8.251009e-002
1.106987e+003;8.425904e-002
1.108915e+003;8.568664e-002
1.110844e+003;8.669105e-002
1.112772e+003;8.731583e-002
1.114701e+003;8.773647e-002
1.116629e+003;8.824432e-002
1.118558e+003;8.840232e-002
1.120486e+003;8.834124e-002
1.122415e+003;8.725879e-002
1.124344e+003;8.489568e-002
1.126272e+003;8.209260e-002
1.128201e+003;7.925671e-002
1.130129e+003;7.641215e-002
1.132058e+003;7.413252e-002
1.133986e+003;7.273674e-002
1.135915e+003;7.221453e-002
1.137843e+003;7.251819e-002
1.139772e+003;7.291216e-002
1.141700e+003;7.368216e-002
1.143629e+003;7.584609e-002
1.145557e+003;7.850757e-002
1.147486e+003;8.058336e-002
1.149415e+003;8.265904e-002
1.151343e+003;8.588780e-002
1.153272e+003;8.975802e-002
1.155200e+003;9.325686e-002
1.157129e+003;9.745462e-002
1.159057e+003;1.026113e-001
1.160986e+003;1.082082e-001
1.162914e+003;1.135728e-001
1.164843e+003;1.189560e-001
1.166771e+003;1.237263e-001
1.168700e+003;1.259629e-001
1.170629e+003;1.249739e-001
1.172557e+003;1.216710e-001
1.174486e+003;1.170011e-001
1.176414e+003;1.121993e-001
1.178343e+003;1.082760e-001
1.180271e+003;1.052221e-001
1.182200e+003;1.041728e-001
1.184128e+003;1.054052e-001
1.186057e+003;1.080925e-001
1.187986e+003;1.116088e-001
1.189914e+003;1.150187e-001
1.191843e+003;1.190589e-001
1.193771e+003;1.237689e-001
1.195700e+003;1.285864e-001
1.197628e+003;1.325946e-001
1.199557e+003;1.333585e-001
1.201485e+003;1.307399e-001
1.203414e+003;1.267278e-001
1.205343e+003;1.232405e-001
1.207271e+003;1.210726e-001
1.209200e+003;1.200008e-001
1.211128e+003;1.194163e-001
1.213057e+003;1.185480e-001
1.214985e+003;1.166941e-001
1.216914e+003;1.136631e-001
1.218842e+003;1.104134e-001
1.220771e+003;1.086892e-001
1.222699e+003;1.088929e-001
1.224628e+003;1.107119e-001
1.226557e+003;1.141327e-001
1.228485e+003;1.184065e-001
1.230414e+003;1.228695e-001
1.232342e+003;1.272746e-001
1.234271e+003;1.304189e-001
1.236199e+003;1.323466e-001
1.238128e+003;1.332065e-001
1.240056e+003;1.331429e-001
1.241985e+003;1.329074e-001
1.243913e+003;1.332482e-001
1.245842e+003;1.341458e-001
1.247771e+003;1.355612e-001
1.249699e+003;1.375810e-001
1.251628e+003;1.400927e-001
1.253556e+003;1.434513e-001
1.255485e+003;1.468017e-001
1.257413e+003;1.494360e-001
1.259342e+003;1.511318e-001
1.261270e+003;1.513031e-001
1.263199e+003;1.493814e-001
1.265127e+003;1.450630e-001
1.267056e+003;1.388266e-001
1.268985e+003;1.322979e-001
1.270913e+003;1.275543e-001
1.272842e+003;1.251234e-001
1.274770e+003;1.242675e-001
1.276699e+003;1.240542e-001
1.278627e+003;1.234909e-001
1.280556e+003;1.227203e-001
1.282484e+003;1.214196e-001
1.284413e+003;1.196212e-001
1.286342e+003;1.181606e-001
1.288270e+003;1.171816e-001
1.290199e+003;1.166099e-001
1.292127e+003;1.160511e-001
1.294056e+003;1.149037e-001
1.295984e+003;1.138919e-001
1.297913e+003;1.138457e-001
1.299841e+003;1.138655e-001
1.301770e+003;1.131427e-001
1.303698e+003;1.119920e-001
1.305627e+003;1.110131e-001
1.307556e+003;1.102515e-001
1.309484e+003;1.089830e-001
1.311413e+003;1.075162e-001
1.313341e+003;1.064380e-001
1.315270e+003;1.056802e-001
1.317198e+003;1.048176e-001
1.319127e+003;1.037319e-001
1.321055e+003;1.028038e-001
1.322984e+003;1.022621e-001
1.324912e+003;1.020051e-001
1.326841e+003;1.021013e-001
1.328770e+003;1.025686e-001
1.330698e+003;1.031192e-001
1.332627e+003;1.036283e-001
1.334555e+003;1.038791e-001
1.336484e+003;1.041105e-001
1.338412e+003;1.043701e-001
1.340341e+003;1.049681e-001
1.342269e+003;1.058395e-001
1.344198e+003;1.066982e-001
1.346126e+003;1.077617e-001
1.348055e+003;1.088463e-001
1.349984e+003;1.101271e-001
1.351912e+003;1.115962e-001
1.353841e+003;1.130411e-001
1.355769e+003;1.146223e-001
1.357698e+003;1.162340e-001
1.359626e+003;1.180102e-001
1.361555e+003;1.199565e-001
1.363483e+003;1.216944e-001
1.365412e+003;1.231385e-001
1.367341e+003;1.246703e-001
1.369269e+003;1.261893e-001
1.371198e+003;1.267641e-001
1.373126e+003;1.261151e-001
1.375055e+003;1.244180e-001
1.376983e+003;1.220259e-001
1.378912e+003;1.190736e-001
1.380840e+003;1.157971e-001
1.382769e+003;1.125042e-001
1.384698e+003;1.093831e-001
1.386626e+003;1.064554e-001
1.388555e+003;1.041621e-001
1.390483e+003;1.023610e-001
1.392412e+003;1.010116e-001
1.394340e+003;1.004190e-001
1.396269e+003;1.004865e-001
1.398197e+003;1.011100e-001
1.400126e+003;1.024672e-001
1.402054e+003;1.048633e-001
1.403983e+003;1.082205e-001
1.405911e+003;1.128829e-001
1.407840e+003;1.187946e-001
1.409769e+003;1.253109e-001
1.411697e+003;1.319527e-001
1.413626e+003;1.377043e-001
1.415554e+003;1.415043e-001
1.417483e+003;1.421941e-001
1.419411e+003;1.400002e-001
1.421340e+003;1.365979e-001
1.423268e+003;1.333048e-001
1.425197e+003;1.309370e-001
1.427125e+003;1.302579e-001
1.429054e+003;1.314892e-001
1.430983e+003;1.336433e-001
1.432911e+003;1.356791e-001
1.434840e+003;1.368339e-001
1.436768e+003;1.367566e-001
1.438697e+003;1.363581e-001
1.440625e+003;1.358087e-001
1.442554e+003;1.351210e-001
1.444482e+003;1.346971e-001
1.446411e+003;1.349152e-001
1.448340e+003;1.360267e-001
1.450268e+003;1.379300e-001
1.452197e+003;1.399915e-001
1.454125e+003;1.420930e-001
1.456054e+003;1.447227e-001
1.457982e+003;1.493272e-001
1.459911e+003;1.552499e-001
1.461839e+003;1.591968e-001
1.463768e+003;1.581062e-001
1.465697e+003;1.524048e-001
1.467625e+003;1.456496e-001
1.469554e+003;1.407296e-001
1.471482e+003;1.386090e-001
1.473411e+003;1.394382e-001
1.475339e+003;1.408372e-001
1.477268e+003;1.398143e-001
1.479196e+003;1.365099e-001
1.481125e+003;1.314997e-001
1.483053e+003;1.253500e-001
1.484982e+003;1.198264e-001
1.486911e+003;1.166324e-001
1.488839e+003;1.159048e-001
1.490768e+003;1.171204e-001
1.492696e+003;1.199374e-001
1.494625e+003;1.232391e-001
1.496553e+003;1.270730e-001
1.498482e+003;1.317648e-001
1.500410e+003;1.369507e-001
1.502339e+003;1.422502e-001
1.504267e+003;1.477942e-001
1.506196e+003;1.542632e-001
1.508125e+003;1.613463e-001
1.510053e+003;1.684106e-001
1.511982e+003;1.759563e-001
1.513910e+003;1.838563e-001
1.515839e+003;1.916759e-001
1.517767e+003;1.999855e-001
1.519696e+003;2.085537e-001
1.521624e+003;2.176003e-001
1.523553e+003;2.267239e-001
1.525481e+003;2.357174e-001
1.527410e+003;2.446830e-001
1.529339e+003;2.528212e-001
1.531267e+003;2.596593e-001
1.533196e+003;2.654795e-001
1.535124e+003;2.698928e-001
1.537053e+003;2.715452e-001
1.538981e+003;2.697397e-001
1.540910e+003;2.659536e-001
1.542838e+003;2.598265e-001
1.544767e+003;2.510720e-001
1.546695e+003;2.407936e-001
1.548624e+003;2.294766e-001
1.550553e+003;2.182410e-001
1.552481e+003;2.077024e-001
1.554410e+003;1.975453e-001
1.556338e+003;1.881032e-001
1.558267e+003;1.789887e-001
1.560195e+003;1.708590e-001
1.562124e+003;1.637090e-001
1.564052e+003;1.559736e-001
1.565981e+003;1.479643e-001
1.567910e+003;1.405150e-001
1.569838e+003;1.334444e-001
1.571767e+003;1.270669e-001
1.573695e+003;1.210467e-001
1.575624e+003;1.151953e-001
1.577552e+003;1.105528e-001
1.579481e+003;1.072146e-001
1.581409e+003;1.045540e-001
1.583338e+003;1.024246e-001
1.585266e+003;1.010116e-001
1.587195e+003;1.006125e-001
1.589124e+003;1.006991e-001
1.591052e+003;1.014446e-001
1.592981e+003;1.031132e-001
1.594909e+003;1.055223e-001
1.596838e+003;1.089389e-001
1.598766e+003;1.130868e-001
1.600695e+003;1.177407e-001
1.602623e+003;1.237961e-001
1.604552e+003;1.310883e-001
1.606480e+003;1.388728e-001
1.608409e+003;1.470138e-001
1.610338e+003;1.557761e-001
1.612266e+003;1.657740e-001
1.614195e+003;1.768733e-001
1.616123e+003;1.890815e-001
1.618052e+003;2.037439e-001
1.619980e+003;2.201823e-001
1.621909e+003;2.369474e-001
1.623837e+003;2.541660e-001
1.625766e+003;2.714889e-001
1.627694e+003;2.892554e-001
1.629623e+003;3.074816e-001
1.631552e+003;3.246877e-001
1.633480e+003;3.386402e-001
1.635409e+003;3.462603e-001
1.637337e+003;3.461192e-001
1.639266e+003;3.370043e-001
1.641194e+003;3.201906e-001
1.643123e+003;2.998474e-001
1.645051e+003;2.781190e-001
1.646980e+003;2.567533e-001
1.648909e+003;2.375157e-001
1.650837e+003;2.201973e-001
1.652766e+003;2.046302e-001
1.654694e+003;1.921991e-001
1.656623e+003;1.818077e-001
1.658551e+003;1.716979e-001
1.660480e+003;1.616658e-001
1.662408e+003;1.519257e-001
1.664337e+003;1.427156e-001
1.666266e+003;1.338219e-001
1.668194e+003;1.250124e-001
1.670123e+003;1.167844e-001
1.672051e+003;1.094858e-001
1.673980e+003;1.023006e-001
1.675908e+003;9.523790e-002
1.677837e+003;8.866981e-002
1.679765e+003;8.186261e-002
1.681694e+003;7.490481e-002
1.683622e+003;6.812985e-002
1.685551e+003;6.233789e-002
1.687479e+003;5.774928e-002
1.689408e+003;5.374740e-002
1.691337e+003;5.075238e-002
1.693265e+003;4.833600e-002
1.695194e+003;4.612868e-002
1.697122e+003;4.478338e-002
1.699051e+003;4.361467e-002
1.700979e+003;4.256084e-002
1.702908e+003;4.221708e-002
1.704836e+003;4.162468e-002
1.706765e+003;4.117188e-002
1.708693e+003;4.095944e-002
1.710622e+003;4.076669e-002
1.712551e+003;4.039199e-002
1.714479e+003;4.012276e-002
1.716408e+003;3.989543e-002
1.718336e+003;3.978750e-002
1.720265e+003;4.001873e-002
1.722193e+003;3.999675e-002
1.724122e+003;3.983300e-002
1.726050e+003;3.951654e-002
1.727979e+003;3.877790e-002
1.729908e+003;3.796862e-002
1.731836e+003;3.711919e-002
1.733765e+003;3.628295e-002
1.735693e+003;3.565289e-002
1.737622e+003;3.487389e-002
1.739550e+003;3.430073e-002
1.741479e+003;3.377145e-002
1.743407e+003;3.302138e-002
1.745336e+003;3.256471e-002
1.747265e+003;3.227524e-002
1.749193e+003;3.179928e-002
1.751122e+003;3.154003e-002
1.753050e+003;3.163353e-002
1.754979e+003;3.122155e-002
1.756907e+003;3.074269e-002
1.758836e+003;3.047408e-002
1.760764e+003;2.980008e-002
1.762693e+003;2.918555e-002
1.764621e+003;2.875344e-002
1.766550e+003;2.819621e-002
1.768479e+003;2.774420e-002
1.770407e+003;2.737484e-002
1.772336e+003;2.685678e-002
1.774264e+003;2.650649e-002
1.776193e+003;2.601542e-002
1.778121e+003;2.551862e-002
1.780050e+003;2.515406e-002
1.781978e+003;2.477609e-002
1.783907e+003;2.451655e-002
1.785835e+003;2.445236e-002
1.787764e+003;2.421077e-002
1.789693e+003;2.375694e-002
1.791621e+003;2.331442e-002
1.793550e+003;2.315841e-002
1.795478e+003;2.322080e-002
1.797407e+003;2.307604e-002
1.799335e+003;2.281738e-002
1.801264e+003;2.249266e-002
1.803192e+003;2.228996e-002
1.805121e+003;2.212756e-002
1.807049e+003;2.207847e-002
1.808978e+003;2.203190e-002
1.810907e+003;2.200109e-002
1.812835e+003;2.184932e-002
1.814764e+003;2.154889e-002
1.816692e+003;2.120755e-002
1.818621e+003;2.113564e-002
1.820549e+003;2.122857e-002
1.822478e+003;2.101766e-002
1.824406e+003;2.089613e-002
1.826335e+003;2.107727e-002
1.828264e+003;2.097179e-002
1.830192e+003;2.087454e-002
1.832121e+003;2.078055e-002
1.834049e+003;2.067340e-002
1.835978e+003;2.066670e-002
1.837906e+003;2.042720e-002
1.839835e+003;2.004604e-002
1.841763e+003;1.999434e-002
1.843692e+003;1.987372e-002
1.845620e+003;1.970972e-002
1.847549e+003;1.955314e-002
1.849478e+003;1.947772e-002
1.851406e+003;1.935053e-002
1.853335e+003;1.927511e-002
1.855263e+003;1.926417e-002
1.857192e+003;1.928578e-002
1.859120e+003;1.929794e-002
1.861049e+003;1.918243e-002
1.862977e+003;1.896110e-002
1.864906e+003;1.894030e-002
1.866834e+003;1.879039e-002
1.868763e+003;1.865163e-002
1.870692e+003;1.855410e-002
1.872620e+003;1.842822e-002
1.874549e+003;1.869978e-002
1.876477e+003;1.888541e-002
1.878406e+003;1.876247e-002
1.880334e+003;1.865194e-002
1.882263e+003;1.863475e-002
1.884191e+003;1.856808e-002
1.886120e+003;1.861756e-002
1.888048e+003;1.862064e-002
1.889977e+003;1.850473e-002
1.891906e+003;1.848491e-002
1.893834e+003;1.873358e-002
1.895763e+003;1.909614e-002
1.897691e+003;1.903919e-002
1.899620e+003;1.878928e-002
1.901548e+003;1.898318e-002
1.903477e+003;1.920616e-002
1.905405e+003;1.903760e-002
1.907334e+003;1.876638e-002
1.909262e+003;1.852565e-002
1.911191e+003;1.833022e-002
1.913120e+003;1.828339e-002
1.915048e+003;1.813920e-002
1.916977e+003;1.801671e-002
1.918905e+003;1.800535e-002
1.920834e+003;1.790887e-002
1.922762e+003;1.777809e-002
1.924691e+003;1.788522e-002
1.926619e+003;1.788632e-002
1.928548e+003;1.771058e-002
1.930477e+003;1.752887e-002
1.932405e+003;1.747223e-002
1.934334e+003;1.754671e-002
1.936262e+003;1.752697e-002
1.938191e+003;1.758873e-002
1.940119e+003;1.760943e-002
1.942048e+003;1.753663e-002
1.943976e+003;1.752428e-002
1.945905e+003;1.756299e-002
1.947833e+003;1.787130e-002
1.949762e+003;1.793069e-002
1.951691e+003;1.779393e-002
1.953619e+003;1.777122e-002
1.955548e+003;1.768214e-002
1.957476e+003;1.780550e-002
1.959405e+003;1.789171e-002
1.961333e+003;1.775407e-002
1.963262e+003;1.782045e-002
1.965190e+003;1.800729e-002
1.967119e+003;1.832912e-002
1.969047e+003;1.844211e-002
1.970976e+003;1.828674e-002
1.972905e+003;1.818069e-002
1.974833e+003;1.808811e-002
1.976762e+003;1.800867e-002
1.978690e+003;1.803512e-002
1.980619e+003;1.804738e-002
1.982547e+003;1.797482e-002
1.984476e+003;1.813844e-002
1.986404e+003;1.822205e-002
1.988333e+003;1.815693e-002
1.990261e+003;1.795068e-002
1.992190e+003;1.795535e-002
1.994119e+003;1.822427e-002
1.996047e+003;1.834277e-002
1.997976e+003;1.816356e-002
1.999904e+003;1.806873e-002
2.001833e+003;1.825381e-002
2.003761e+003;1.824648e-002
2.005690e+003;1.814832e-002
2.007618e+003;1.808110e-002
2.009547e+003;1.798915e-002
2.011476e+003;1.811032e-002
2.013404e+003;1.815789e-002
2.015333e+003;1.809474e-002
2.017261e+003;1.830243e-002
2.019190e+003;1.846161e-002
2.021118e+003;1.842438e-002
2.023047e+003;1.858997e-002
2.024975e+003;1.878250e-002
2.026904e+003;1.888264e-002
2.028833e+003;1.892808e-002
2.030761e+003;1.893029e-002
2.032690e+003;1.890832e-002
2.034618e+003;1.902507e-002
2.036547e+003;1.933497e-002
2.038475e+003;1.954510e-002
2.040404e+003;1.951699e-002
2.042332e+003;1.936338e-002
2.044261e+003;1.923750e-002
2.046189e+003;1.922739e-002
2.048118e+003;1.921838e-002
2.050047e+003;1.913132e-002
2.051975e+003;1.893438e-002
2.053904e+003;1.891697e-002
2.055832e+003;1.914649e-002
2.057761e+003;1.939674e-002
2.059689e+003;1.943170e-002
2.061618e+003;1.953830e-002
2.063546e+003;1.954780e-002
2.065475e+003;1.931890e-002
2.067404e+003;1.935607e-002
2.069332e+003;1.953913e-002
2.071260e+003;1.954707e-002
2.073189e+003;1.954149e-002
2.075118e+003;1.951449e-002
2.077046e+003;1.949973e-002
2.078975e+003;1.942710e-002
2.080903e+003;1.922153e-002
2.082832e+003;1.912997e-002
2.084760e+003;1.919670e-002
2.086689e+003;1.930650e-002
2.088617e+003;1.915383e-002
2.090546e+003;1.895566e-002
2.092475e+003;1.884021e-002
2.094403e+003;1.881672e-002
2.096332e+003;1.892026e-002
2.098260e+003;1.896058e-002
2.100189e+003;1.893722e-002
2.102117e+003;1.889309e-002
2.104046e+003;1.900984e-002
2.105974e+003;1.901174e-002
2.107903e+003;1.887236e-002
2.109832e+003;1.903275e-002
2.111760e+003;1.932974e-002
2.113688e+003;1.917125e-002
2.115617e+003;1.918538e-002
2.117546e+003;1.942710e-002
2.119474e+003;1.949678e-002
2.121403e+003;1.930910e-002
2.123331e+003;1.919951e-002
2.125260e+003;1.930781e-002
2.127188e+003;1.945170e-002
2.129117e+003;1.952180e-002
2.131045e+003;1.952478e-002
2.132974e+003;1.971132e-002
2.134903e+003;1.967640e-002
2.136831e+003;1.959182e-002
2.138760e+003;1.965661e-002
2.140688e+003;1.975473e-002
2.142617e+003;1.963747e-002
2.144545e+003;1.956440e-002
2.146474e+003;1.969142e-002
2.148402e+003;1.948763e-002
2.150331e+003;1.948521e-002
2.152260e+003;1.974020e-002
2.154188e+003;2.004909e-002
2.156117e+003;2.006530e-002
2.158045e+003;1.979086e-002
2.159974e+003;1.964305e-002
2.161902e+003;1.952257e-002
2.163831e+003;1.955944e-002
2.165759e+003;1.997217e-002
2.167688e+003;2.021696e-002
2.169616e+003;2.018291e-002
2.171545e+003;2.021509e-002
2.173474e+003;2.033084e-002
2.175402e+003;2.052032e-002
2.177331e+003;2.064446e-002
2.179259e+003;2.061312e-002
2.181188e+003;2.049959e-002
2.183116e+003;2.021474e-002
2.185045e+003;2.018565e-002
2.186973e+003;2.038310e-002
2.188902e+003;2.056573e-002
2.190831e+003;2.058376e-002
2.192759e+003;2.058966e-002
2.194688e+003;2.068775e-002
2.196616e+003;2.054235e-002
2.198545e+003;2.037956e-002
2.200473e+003;2.058716e-002
2.202402e+003;2.061440e-002
2.204330e+003;2.041164e-002
2.206259e+003;2.026768e-002
2.208188e+003;2.029532e-002
2.210116e+003;2.019274e-002
2.212044e+003;1.989776e-002
2.213973e+003;1.966424e-002
2.215902e+003;1.955199e-002
2.217830e+003;1.937952e-002
2.219759e+003;1.912024e-002
2.221687e+003;1.905141e-002
2.223616e+003;1.932846e-002
2.225544e+003;1.948157e-002
2.227473e+003;1.924993e-002
2.229401e+003;1.898837e-002
2.231330e+003;1.886665e-002
2.233259e+003;1.904515e-002
2.235187e+003;1.916578e-002
2.237116e+003;1.912024e-002
2.239044e+003;1.923085e-002
2.240973e+003;1.915695e-002
2.242901e+003;1.889254e-002
2.244830e+003;1.888897e-002
2.246758e+003;1.903092e-002
2.248687e+003;1.896314e-002
2.250615e+003;1.894957e-002
2.252544e+003;1.906664e-002
2.254473e+003;1.913046e-002
2.256401e+003;1.924595e-002
2.258330e+003;1.925748e-002
2.260258e+003;1.928093e-002
2.262187e+003;1.934453e-002
2.264115e+003;1.947065e-002
2.266044e+003;1.961681e-002
2.267972e+003;1.963387e-002
2.269901e+003;1.963057e-002
2.271830e+003;1.948105e-002
2.273758e+003;1.930684e-002
2.275687e+003;1.934433e-002
2.277615e+003;1.946064e-002
2.279544e+003;1.942838e-002
2.281472e+003;1.929943e-002
2.283401e+003;1.929548e-002
2.285329e+003;1.965446e-002
2.287258e+003;1.986713e-002
2.289187e+003;1.968448e-002
2.291115e+003;1.942554e-002
2.293043e+003;1.951553e-002
2.294972e+003;1.978674e-002
2.296901e+003;1.995173e-002
2.298829e+003;1.995187e-002
2.300758e+003;1.996433e-002
2.302686e+003;1.991219e-002
2.304615e+003;1.980380e-002
2.306543e+003;1.984864e-002
2.308472e+003;1.993068e-002
2.310400e+003;1.992294e-002
2.312329e+003;1.984684e-002
2.314258e+003;1.991524e-002
2.316186e+003;2.001970e-002
2.318115e+003;2.001318e-002
2.320043e+003;2.000180e-002
2.321972e+003;2.003514e-002
2.323900e+003;1.981403e-002
2.325829e+003;1.975227e-002
2.327757e+003;1.977092e-002
2.329686e+003;1.969423e-002
2.331615e+003;1.974686e-002
2.333543e+003;1.984219e-002
2.335472e+003;1.976260e-002
2.337400e+003;1.960350e-002
2.339329e+003;1.965401e-002
2.341257e+003;1.971132e-002
2.343186e+003;1.931010e-002
2.345114e+003;1.900108e-002
2.347043e+003;1.918094e-002
2.348971e+003;1.945946e-002
2.350900e+003;1.928741e-002
2.352829e+003;1.919230e-002
2.354757e+003;1.914794e-002
2.356686e+003;1.902950e-002
2.358614e+003;1.911685e-002
2.360543e+003;1.909393e-002
2.362471e+003;1.894154e-002
2.364400e+003;1.911235e-002
2.366328e+003;1.916716e-002
2.368257e+003;1.925229e-002
2.370186e+003;1.941868e-002
2.372114e+003;1.963550e-002
2.374042e+003;1.962284e-002
2.375971e+003;1.956111e-002
2.377900e+003;1.967530e-002
2.379828e+003;1.975005e-002
2.381757e+003;1.982027e-002
2.383685e+003;1.991469e-002
2.385614e+003;1.998421e-002
2.387542e+003;1.983716e-002
2.389471e+003;1.986807e-002
2.391399e+003;1.973951e-002
2.393328e+003;1.954510e-002
2.395257e+003;1.975532e-002
2.397185e+003;1.980262e-002
2.399114e+003;1.954804e-002
2.401042e+003;1.981577e-002
2.402971e+003;2.005173e-002
2.404899e+003;2.005065e-002
2.406828e+003;1.993134e-002
2.408756e+003;1.985423e-002
2.410685e+003;1.998556e-002
2.412614e+003;2.022085e-002
2.414542e+003;2.011804e-002
2.416471e+003;2.004271e-002
2.418399e+003;2.019489e-002
2.420328e+003;2.014348e-002
2.422256e+003;2.015227e-002
2.424185e+003;2.018330e-002
2.426113e+003;2.022700e-002
2.428042e+003;2.026109e-002
2.429970e+003;2.033664e-002
2.431899e+003;2.041571e-002
2.433828e+003;2.060245e-002
2.435756e+003;2.062865e-002
2.437685e+003;2.058796e-002
2.439613e+003;2.069790e-002
2.441542e+003;2.103738e-002
2.443470e+003;2.116319e-002
2.445399e+003;2.117986e-002
2.447327e+003;2.137198e-002
2.449256e+003;2.151491e-002
2.451185e+003;2.168966e-002
2.453113e+003;2.191218e-002
2.455042e+003;2.194414e-002
2.456970e+003;2.172470e-002
2.458899e+003;2.177671e-002
2.460827e+003;2.192765e-002
2.462756e+003;2.198627e-002
2.464684e+003;2.225177e-002
2.466613e+003;2.222307e-002
2.468542e+003;2.214430e-002
2.470470e+003;2.237065e-002
2.472398e+003;2.250477e-002
2.474327e+003;2.256685e-002
2.476256e+003;2.274981e-002
2.478184e+003;2.274799e-002
2.480113e+003;2.259202e-002
2.482041e+003;2.259530e-002
2.483970e+003;2.278776e-002
2.485898e+003;2.281769e-002
2.487827e+003;2.268686e-002
2.489755e+003;2.254574e-002
2.491684e+003;2.274569e-002
2.493613e+003;2.299712e-002
2.495541e+003;2.308754e-002
2.497470e+003;2.297123e-002
2.499398e+003;2.286501e-002
2.501327e+003;2.277376e-002
2.503255e+003;2.297357e-002
2.505184e+003;2.315922e-002
2.507112e+003;2.287723e-002
2.509041e+003;2.286431e-002
2.510969e+003;2.312919e-002
2.512898e+003;2.338609e-002
2.514827e+003;2.354033e-002
2.516755e+003;2.368460e-002
2.518684e+003;2.409090e-002
2.520612e+003;2.437784e-002
2.522541e+003;2.449169e-002
2.524469e+003;2.454035e-002
2.526398e+003;2.468581e-002
2.528326e+003;2.476027e-002
2.530255e+003;2.483745e-002
2.532184e+003;2.519795e-002
2.534112e+003;2.551338e-002
2.536041e+003;2.570222e-002
2.537969e+003;2.574519e-002
2.539898e+003;2.573246e-002
2.541826e+003;2.580928e-002
2.543755e+003;2.578288e-002
2.545683e+003;2.593902e-002
2.547612e+003;2.623468e-002
2.549541e+003;2.665915e-002
2.551469e+003;2.705047e-002
2.553397e+003;2.688970e-002
2.555326e+003;2.659011e-002
2.557255e+003;2.645366e-002
2.559183e+003;2.645760e-002
2.561112e+003;2.664002e-002
2.563040e+003;2.659828e-002
2.564969e+003;2.663488e-002
2.566897e+003;2.703439e-002
2.568826e+003;2.718788e-002
2.570754e+003;2.706352e-002
2.572683e+003;2.718125e-002
2.574612e+003;2.737682e-002
2.576540e+003;2.761675e-002
2.578469e+003;2.776589e-002
2.580397e+003;2.770203e-002
2.582326e+003;2.773639e-002
2.584254e+003;2.791508e-002
2.586183e+003;2.797702e-002
2.588111e+003;2.837116e-002
2.590040e+003;2.882124e-002
2.591969e+003;2.880998e-002
2.593897e+003;2.868589e-002
2.595826e+003;2.859359e-002
2.597754e+003;2.850880e-002
2.599683e+003;2.859401e-002
2.601611e+003;2.868356e-002
2.603540e+003;2.878275e-002
2.605468e+003;2.892219e-002
2.607397e+003;2.881005e-002
2.609325e+003;2.896887e-002
2.611254e+003;2.932687e-002
2.613183e+003;2.931552e-002
2.615111e+003;2.953880e-002
2.617040e+003;2.980970e-002
2.618968e+003;2.966376e-002
2.620897e+003;2.954121e-002
2.622825e+003;2.974377e-002
2.624754e+003;3.005371e-002
2.626682e+003;3.002538e-002
2.628611e+003;2.973933e-002
2.630540e+003;2.971307e-002
2.632468e+003;3.004952e-002
2.634396e+003;3.025204e-002
2.636325e+003;3.025196e-002
2.638254e+003;3.053920e-002
2.640182e+003;3.059157e-002
2.642111e+003;3.060014e-002
2.644039e+003;3.073778e-002
2.645968e+003;3.058072e-002
2.647896e+003;3.038293e-002
2.649825e+003;3.054329e-002
2.651753e+003;3.081938e-002
2.653682e+003;3.084427e-002
2.655611e+003;3.095706e-002
2.657539e+003;3.106332e-002
2.659468e+003;3.114579e-002
2.661396e+003;3.125658e-002
2.663325e+003;3.130900e-002
2.665253e+003;3.145335e-002
2.667182e+003;3.176402e-002
2.669110e+003;3.198100e-002
2.671039e+003;3.205176e-002
2.672968e+003;3.227498e-002
2.674896e+003;3.255710e-002
2.676825e+003;3.265747e-002
2.678753e+003;3.267722e-002
2.680682e+003;3.280945e-002
2.682610e+003;3.286738e-002
2.684539e+003;3.283493e-002
2.686467e+003;3.296221e-002
2.688396e+003;3.318550e-002
2.690324e+003;3.342241e-002
2.692253e+003;3.381414e-002
2.694182e+003;3.420081e-002
2.696110e+003;3.446624e-002
2.698039e+003;3.465647e-002
2.699967e+003;3.506265e-002
2.701896e+003;3.516791e-002
2.703824e+003;3.530442e-002
2.705753e+003;3.562498e-002
2.707681e+003;3.586746e-002
2.709610e+003;3.607890e-002
2.711539e+003;3.623576e-002
2.713467e+003;3.629329e-002
2.715396e+003;3.664522e-002
2.717324e+003;3.717925e-002
2.719253e+003;3.773956e-002
2.721181e+003;3.826904e-002
2.723110e+003;3.839861e-002
2.725038e+003;3.877620e-002
2.726967e+003;3.912500e-002
2.728896e+003;3.910756e-002
2.730824e+003;3.950805e-002
2.732752e+003;4.027418e-002
2.734681e+003;4.059650e-002
2.736610e+003;4.076447e-002
2.738538e+003;4.116930e-002
2.740467e+003;4.153665e-002
2.742395e+003;4.163809e-002
2.744324e+003;4.150526e-002
2.746252e+003;4.160721e-002
2.748181e+003;4.179384e-002
2.750109e+003;4.182865e-002
2.752038e+003;4.174671e-002
2.753967e+003;4.195501e-002
2.755895e+003;4.197479e-002
2.757824e+003;4.182529e-002
2.759752e+003;4.212047e-002
2.761681e+003;4.246905e-002
2.763609e+003;4.262934e-002
2.765538e+003;4.296493e-002
2.767466e+003;4.344780e-002
2.769395e+003;4.359598e-002
2.771323e+003;4.362463e-002
2.773252e+003;4.360991e-002
2.775181e+003;4.397020e-002
2.777109e+003;4.464745e-002
2.779038e+003;4.518208e-002
2.780966e+003;4.535138e-002
2.782895e+003;4.557739e-002
2.784823e+003;4.611394e-002
2.786752e+003;4.665960e-002
2.788680e+003;4.685473e-002
2.790609e+003;4.688079e-002
2.792538e+003;4.730078e-002
2.794466e+003;4.813251e-002
2.796395e+003;4.841834e-002
2.798323e+003;4.850198e-002
2.800252e+003;4.889014e-002
2.802180e+003;4.931126e-002
2.804109e+003;4.992321e-002
2.806037e+003;5.054176e-002
2.807966e+003;5.108198e-002
2.809895e+003;5.196681e-002
2.811823e+003;5.249408e-002
2.813751e+003;5.294057e-002
2.815680e+003;5.382878e-002
2.817609e+003;5.470607e-002
2.819537e+003;5.537555e-002
2.821466e+003;5.591587e-002
2.823394e+003;5.618726e-002
2.825323e+003;5.688203e-002
2.827251e+003;5.778566e-002
2.829180e+003;5.833573e-002
2.831108e+003;5.913872e-002
2.833037e+003;6.030616e-002
2.834966e+003;6.170069e-002
2.836894e+003;6.342578e-002
2.838823e+003;6.569666e-002
2.840751e+003;6.830516e-002
2.842680e+003;7.154568e-002
2.844608e+003;7.530878e-002
2.846537e+003;7.908768e-002
2.848465e+003;8.309494e-002
2.850394e+003;8.713219e-002
2.852323e+003;9.098777e-002
2.854251e+003;9.458255e-002
2.856180e+003;9.757934e-002
2.858108e+003;1.002169e-001
2.860037e+003;1.023100e-001
2.861965e+003;1.032918e-001
2.863894e+003;1.031821e-001
2.865822e+003;1.022525e-001
2.867751e+003;1.007014e-001
2.869679e+003;9.890357e-002
2.871608e+003;9.685990e-002
2.873536e+003;9.438802e-002
2.875465e+003;9.173474e-002
2.877394e+003;8.883625e-002
2.879322e+003;8.638698e-002
2.881251e+003;8.455011e-002
2.883179e+003;8.323097e-002
2.885108e+003;8.228698e-002
2.887036e+003;8.214632e-002
2.888965e+003;8.301555e-002
2.890893e+003;8.431593e-002
2.892822e+003;8.583692e-002
2.894750e+003;8.786310e-002
2.896679e+003;8.968221e-002
2.898608e+003;9.096596e-002
2.900536e+003;9.228339e-002
2.902465e+003;9.327494e-002
2.904393e+003;9.404366e-002
2.906322e+003;9.506774e-002
2.908250e+003;9.634834e-002
2.910179e+003;9.765095e-002
2.912107e+003;9.924769e-002
2.914036e+003;1.011937e-001
2.915965e+003;1.031231e-001
2.917893e+003;1.051826e-001
2.919822e+003;1.087213e-001
2.921750e+003;1.125826e-001
2.923679e+003;1.162487e-001
2.925607e+003;1.193693e-001
2.927536e+003;1.223795e-001
2.929464e+003;1.255528e-001
2.931393e+003;1.281965e-001
2.933322e+003;1.296584e-001
2.935250e+003;1.302718e-001
2.937178e+003;1.296690e-001
2.939107e+003;1.279054e-001
2.941036e+003;1.252592e-001
2.942964e+003;1.217343e-001
2.944893e+003;1.177833e-001
2.946821e+003;1.133518e-001
2.948750e+003;1.077921e-001
2.950678e+003;1.015628e-001
2.952607e+003;9.528510e-002
2.954535e+003;8.944552e-002
2.956464e+003;8.408336e-002
2.958393e+003;7.954675e-002
2.960321e+003;7.553469e-002
2.962250e+003;7.180056e-002
2.964178e+003;6.871787e-002
2.966107e+003;6.620614e-002
2.968035e+003;6.417056e-002
2.969964e+003;6.194859e-002
2.971892e+003;5.965094e-002
2.973821e+003;5.779550e-002
2.975750e+003;5.607750e-002
2.977678e+003;5.431739e-002
2.979607e+003;5.253768e-002
2.981535e+003;5.125979e-002
2.983464e+003;5.022216e-002
2.985392e+003;4.900529e-002
2.987321e+003;4.807787e-002
2.989249e+003;4.755383e-002
2.991178e+003;4.712905e-002
2.993106e+003;4.658169e-002
2.995035e+003;4.610285e-002
2.996964e+003;4.573080e-002
2.998892e+003;4.540303e-002
3.000821e+003;4.517436e-002
3.002749e+003;4.501140e-002
3.004678e+003;4.534955e-002
3.006606e+003;4.589881e-002
3.008535e+003;4.586773e-002
3.010463e+003;4.530765e-002
3.012392e+003;4.520193e-002
3.014321e+003;4.554136e-002
3.016249e+003;4.566149e-002
3.018177e+003;4.626595e-002
3.020106e+003;4.718969e-002
3.022035e+003;4.755675e-002
3.023963e+003;4.781605e-002
3.025892e+003;4.817019e-002
3.027820e+003;4.846160e-002
3.029749e+003;4.891391e-002
3.031677e+003;4.937448e-002
3.033606e+003;4.968401e-002
3.035534e+003;5.004522e-002
3.037463e+003;5.063051e-002
3.039392e+003;5.135887e-002
3.041320e+003;5.236771e-002
3.043249e+003;5.324247e-002
3.045177e+003;5.391168e-002
3.047106e+003;5.469202e-002
3.049034e+003;5.557253e-002
3.050963e+003;5.640751e-002
3.052891e+003;5.725219e-002
3.054820e+003;5.821091e-002
3.056749e+003;5.903854e-002
3.058677e+003;5.932807e-002
3.060606e+003;5.938741e-002
3.062534e+003;5.968793e-002
3.064463e+003;6.018230e-002
3.066391e+003;6.071183e-002
3.068320e+003;6.105736e-002
3.070248e+003;6.121443e-002
3.072177e+003;6.110030e-002
3.074105e+003;6.077768e-002
3.076034e+003;6.066748e-002
3.077963e+003;6.062542e-002
3.079891e+003;6.058477e-002
3.081820e+003;6.040721e-002
3.083748e+003;6.014287e-002
3.085677e+003;6.014946e-002
3.087605e+003;5.991346e-002
3.089534e+003;5.930513e-002
3.091462e+003;5.866575e-002
3.093391e+003;5.822228e-002
3.095320e+003;5.769029e-002
3.097248e+003;5.708098e-002
3.099177e+003;5.659684e-002
3.101105e+003;5.607928e-002
3.103034e+003;5.529561e-002
3.104962e+003;5.469815e-002
3.106891e+003;5.428089e-002
3.108819e+003;5.363548e-002
3.110748e+003;5.291710e-002
3.112677e+003;5.226190e-002
3.114605e+003;5.184907e-002
3.116533e+003;5.173469e-002
3.118462e+003;5.150304e-002
3.120391e+003;5.091415e-002
3.122319e+003;5.030095e-002
3.124248e+003;5.002210e-002
3.126176e+003;4.982528e-002
3.128105e+003;4.998659e-002
3.130033e+003;5.008954e-002
3.131962e+003;4.977310e-002
3.133890e+003;4.968873e-002
3.135819e+003;4.981550e-002
3.137748e+003;4.976753e-002
3.139676e+003;4.958368e-002
3.141605e+003;4.962398e-002
3.143533e+003;4.938398e-002
3.145462e+003;4.927615e-002
3.147390e+003;4.988184e-002
3.149319e+003;5.049817e-002
3.151247e+003;5.086047e-002
3.153176e+003;5.127870e-002
3.155104e+003;5.139908e-002
3.157033e+003;5.166785e-002
3.158962e+003;5.202253e-002
3.160890e+003;5.231426e-002
3.162819e+003;5.299039e-002
3.164747e+003;5.374362e-002
3.166676e+003;5.357730e-002
3.168604e+003;5.365817e-002
3.170533e+003;5.505155e-002
3.172461e+003;5.604742e-002
3.174390e+003;5.649894e-002
3.176319e+003;5.700171e-002
3.178247e+003;5.699407e-002
3.180176e+003;5.735075e-002
3.182104e+003;5.832557e-002
3.184033e+003;5.926605e-002
3.185961e+003;5.978507e-002
3.187890e+003;6.023346e-002
3.189818e+003;6.077547e-002
3.191747e+003;6.128692e-002
3.193676e+003;6.170027e-002
3.195604e+003;6.187347e-002
3.197532e+003;6.216535e-002
3.199461e+003;6.241585e-002
3.201390e+003;6.283690e-002
3.203318e+003;6.340653e-002
3.205247e+003;6.366070e-002
3.207175e+003;6.382912e-002
3.209104e+003;6.418796e-002
3.211032e+003;6.458744e-002
3.212961e+003;6.505447e-002
3.214889e+003;6.563364e-002
3.216818e+003;6.610180e-002
3.218747e+003;6.676065e-002
3.220675e+003;6.745777e-002
3.222604e+003;6.795464e-002
3.224532e+003;6.864029e-002
3.226461e+003;6.969317e-002
3.228389e+003;7.075676e-002
3.230318e+003;7.154530e-002
3.232246e+003;7.253241e-002
3.234175e+003;7.377369e-002
3.236104e+003;7.508063e-002
3.238032e+003;7.649820e-002
3.239961e+003;7.787550e-002
3.241889e+003;7.936676e-002
3.243818e+003;8.089261e-002
3.245746e+003;8.247440e-002
3.247675e+003;8.428547e-002
3.249603e+003;8.596748e-002
3.251532e+003;8.790143e-002
3.253460e+003;9.004297e-002
3.255389e+003;9.175648e-002
3.257318e+003;9.362037e-002
3.259246e+003;9.602802e-002
3.261175e+003;9.836255e-002
3.263103e+003;1.007021e-001
3.265032e+003;1.033063e-001
3.266960e+003;1.057757e-001
3.268889e+003;1.081081e-001
3.270817e+003;1.102919e-001
3.272746e+003;1.124722e-001
3.274675e+003;1.147439e-001
3.276603e+003;1.171296e-001
3.278531e+003;1.200072e-001
3.280460e+003;1.225005e-001
3.282389e+003;1.249959e-001
3.284317e+003;1.275993e-001
3.286246e+003;1.297662e-001
3.288174e+003;1.311828e-001
3.290103e+003;1.321527e-001
3.292031e+003;1.329818e-001
3.293960e+003;1.329194e-001
3.295888e+003;1.319147e-001
3.297817e+003;1.306324e-001
3.299746e+003;1.286050e-001
3.301674e+003;1.261826e-001
3.303603e+003;1.237475e-001
3.305531e+003;1.207415e-001
3.307460e+003;1.172406e-001
3.309388e+003;1.139061e-001
3.311317e+003;1.106679e-001
3.313245e+003;1.074220e-001
3.315174e+003;1.046401e-001
3.317103e+003;1.018686e-001
3.319031e+003;9.889492e-002
3.320960e+003;9.625069e-002
3.322888e+003;9.346633e-002
3.324817e+003;9.029536e-002
3.326745e+003;8.717503e-002
3.328674e+003;8.415285e-002
3.330602e+003;8.186354e-002
3.332531e+003;7.986518e-002
3.334459e+003;7.756316e-002
3.336388e+003;7.551395e-002
3.338317e+003;7.348190e-002
3.340245e+003;7.143380e-002
3.342174e+003;6.971986e-002
3.344102e+003;6.798363e-002
3.346031e+003;6.647559e-002
3.347959e+003;6.522216e-002
3.349888e+003;6.358685e-002
3.351816e+003;6.172910e-002
3.353745e+003;5.993206e-002
3.355674e+003;5.878266e-002
3.357602e+003;5.821360e-002
3.359531e+003;5.718271e-002
3.361459e+003;5.611407e-002
3.363388e+003;5.536829e-002
3.365316e+003;5.449773e-002
3.367245e+003;5.359811e-002
3.369173e+003;5.257253e-002
3.371102e+003;5.174899e-002
3.373031e+003;5.097268e-002
3.374959e+003;4.992964e-002
3.376887e+003;4.944364e-002
3.378816e+003;4.927500e-002
3.380745e+003;4.881116e-002
3.382673e+003;4.811981e-002
3.384602e+003;4.769950e-002
3.386530e+003;4.734238e-002
3.388459e+003;4.674675e-002
3.390387e+003;4.615436e-002
3.392316e+003;4.582925e-002
3.394244e+003;4.563572e-002
3.396173e+003;4.546936e-002
3.398102e+003;4.462949e-002
3.400030e+003;4.402972e-002
3.401959e+003;4.407379e-002
3.403887e+003;4.389648e-002
3.405816e+003;4.319702e-002
3.407744e+003;4.267660e-002
3.409673e+003;4.247497e-002
3.411601e+003;4.232427e-002
3.413530e+003;4.205034e-002
3.415458e+003;4.188352e-002
3.417387e+003;4.175623e-002
3.419316e+003;4.175039e-002
3.421244e+003;4.158624e-002
3.423173e+003;4.120347e-002
3.425101e+003;4.085416e-002
3.427030e+003;4.070785e-002
3.428958e+003;4.021137e-002
3.430887e+003;4.004434e-002
3.432815e+003;4.050109e-002
3.434744e+003;4.072029e-002
3.436673e+003;4.068023e-002
3.438601e+003;4.093064e-002
3.440530e+003;4.075737e-002
3.442458e+003;4.043682e-002
3.444387e+003;3.979106e-002
3.446315e+003;3.941287e-002
3.448244e+003;3.940184e-002
3.450172e+003;3.894937e-002
3.452101e+003;3.837598e-002
3.454030e+003;3.844940e-002
3.455958e+003;3.825558e-002
3.457886e+003;3.783000e-002
3.459815e+003;3.771560e-002
3.461744e+003;3.759278e-002
3.463672e+003;3.750228e-002
3.465601e+003;3.697987e-002
3.467529e+003;3.673813e-002
3.469458e+003;3.667489e-002
3.471386e+003;3.623735e-002
3.473315e+003;3.591792e-002
3.475243e+003;3.558434e-002
3.477172e+003;3.558880e-002
3.479101e+003;3.564315e-002
3.481029e+003;3.567242e-002
3.482958e+003;3.563480e-002
3.484886e+003;3.556097e-002
3.486815e+003;3.544472e-002
3.488743e+003;3.540679e-002
3.490672e+003;3.544763e-002
3.492600e+003;3.511948e-002
3.494529e+003;3.475295e-002
3.496458e+003;3.469792e-002
3.498386e+003;3.441122e-002
3.500315e+003;3.447112e-002
3.502243e+003;3.456451e-002
3.504172e+003;3.414829e-002
3.506100e+003;3.393113e-002
3.508029e+003;3.395177e-002
3.509957e+003;3.342642e-002
3.511886e+003;3.320600e-002
3.513814e+003;3.341664e-002
3.515743e+003;3.309807e-002
3.517672e+003;3.247554e-002
3.519600e+003;3.206760e-002
3.521529e+003;3.189334e-002
3.523457e+003;3.165328e-002
3.525386e+003;3.142457e-002
3.527314e+003;3.107253e-002
3.529243e+003;3.065276e-002
3.531171e+003;3.064092e-002
3.533100e+003;3.062620e-002
3.535029e+003;3.015723e-002
3.536957e+003;2.976083e-002
3.538885e+003;2.966603e-002
3.540814e+003;2.923113e-002
3.542743e+003;2.876430e-002
3.544671e+003;2.856974e-002
3.546600e+003;2.820045e-002
3.548528e+003;2.810525e-002
3.550457e+003;2.797101e-002
3.552385e+003;2.753346e-002
3.554314e+003;2.717959e-002
3.556242e+003;2.671275e-002
3.558171e+003;2.643905e-002
3.560100e+003;2.605067e-002
3.562028e+003;2.543823e-002
3.563957e+003;2.492920e-002
3.565885e+003;2.477893e-002
3.567814e+003;2.474305e-002
3.569742e+003;2.439719e-002
3.571671e+003;2.410768e-002
3.573599e+003;2.409770e-002
3.575528e+003;2.390339e-002
3.577457e+003;2.362215e-002
3.579385e+003;2.315771e-002
3.581314e+003;2.280847e-002
3.583242e+003;2.214604e-002
3.585171e+003;2.137699e-002
3.587099e+003;2.102757e-002
3.589028e+003;2.081837e-002
3.590956e+003;2.052671e-002
3.592885e+003;2.013630e-002
3.594813e+003;2.022068e-002
3.596742e+003;2.021301e-002
3.598671e+003;1.997040e-002
3.600599e+003;1.973101e-002
3.602528e+003;1.966621e-002
3.604456e+003;1.948344e-002
3.606385e+003;1.880755e-002
3.608313e+003;1.830157e-002
3.610242e+003;1.804901e-002
3.612170e+003;1.752576e-002
3.614099e+003;1.746895e-002
3.616028e+003;1.759715e-002
3.617956e+003;1.708710e-002
3.619885e+003;1.630788e-002
3.621813e+003;1.602928e-002
3.623742e+003;1.602815e-002
3.625670e+003;1.588845e-002
3.627599e+003;1.557097e-002
3.629527e+003;1.545260e-002
3.631456e+003;1.585532e-002
3.633385e+003;1.557286e-002
3.635313e+003;1.465256e-002
3.637241e+003;1.419984e-002
3.639170e+003;1.434344e-002
3.641099e+003;1.432492e-002
3.643027e+003;1.433447e-002
3.644956e+003;1.411415e-002
3.646884e+003;1.353495e-002
3.648813e+003;1.290122e-002
3.650741e+003;1.316559e-002
3.652670e+003;1.356623e-002
3.654598e+003;1.342705e-002
3.656527e+003;1.277675e-002
3.658456e+003;1.235536e-002
3.660384e+003;1.274061e-002
3.662313e+003;1.273703e-002
3.664241e+003;1.247817e-002
3.666170e+003;1.221568e-002
3.668098e+003;1.208811e-002
3.670027e+003;1.198969e-002
3.671955e+003;1.199753e-002
3.673884e+003;1.212078e-002
3.675813e+003;1.228995e-002
3.677741e+003;1.192362e-002
3.679669e+003;1.150299e-002
3.681598e+003;1.146733e-002
3.683527e+003;1.133454e-002
3.685455e+003;1.135505e-002
3.687384e+003;1.081072e-002
3.689312e+003;1.039259e-002
3.691241e+003;1.042371e-002
3.693169e+003;1.040074e-002
3.695098e+003;1.056879e-002
3.697026e+003;1.047262e-002
3.698955e+003;9.882217e-003
3.700884e+003;9.484046e-003
3.702812e+003;9.261438e-003
3.704741e+003;9.439177e-003
3.706669e+003;9.815819e-003
3.708598e+003;9.751430e-003
3.710526e+003;9.671262e-003
3.712455e+003;9.522079e-003
3.714383e+003;9.025613e-003
3.716312e+003;8.969121e-003
3.718240e+003;9.415440e-003
3.720169e+003;9.550191e-003
3.722098e+003;9.544365e-003
3.724026e+003;9.373828e-003
3.725955e+003;9.461188e-003
3.727883e+003;9.494104e-003
3.729812e+003;9.229283e-003
3.731740e+003;9.235917e-003
3.733669e+003;9.047535e-003
3.735597e+003;8.779029e-003
3.737526e+003;9.146301e-003
3.739455e+003;9.570920e-003
3.741383e+003;9.442563e-003
3.743312e+003;8.951701e-003
3.745240e+003;8.958939e-003
3.747169e+003;9.323723e-003
3.749097e+003;9.297183e-003
3.751026e+003;8.860724e-003
3.752954e+003;8.715437e-003
3.754883e+003;9.426242e-003
3.756812e+003;9.774270e-003
3.758740e+003;9.673159e-003
3.760668e+003;9.571360e-003
3.762597e+003;9.647242e-003
3.764526e+003;9.895606e-003
3.766454e+003;9.712868e-003
3.768383e+003;9.246104e-003
3.770311e+003;9.162104e-003
3.772240e+003;9.400237e-003
3.774168e+003;9.702195e-003
3.776097e+003;1.004685e-002
3.778025e+003;9.905200e-003
3.779954e+003;9.762205e-003
3.781883e+003;9.787181e-003
3.783811e+003;9.245021e-003
3.785740e+003;9.234664e-003
3.787668e+003;9.535525e-003
3.789597e+003;9.502097e-003
3.791525e+003;9.492513e-003
3.793454e+003;9.606048e-003
3.795382e+003;9.428070e-003
3.797311e+003;9.380328e-003
3.799240e+003;9.574240e-003
3.801168e+003;9.664350e-003
3.803097e+003;9.554323e-003
3.805025e+003;9.169820e-003
3.806954e+003;8.869111e-003
3.808882e+003;9.153441e-003
3.810811e+003;9.512968e-003
3.812739e+003;9.918251e-003
3.814668e+003;1.005787e-002
3.816596e+003;1.026101e-002
3.818525e+003;1.040515e-002
3.820454e+003;9.996565e-003
3.822382e+003;9.758749e-003
3.824311e+003;9.765594e-003
3.826239e+003;9.983546e-003
3.828168e+003;1.015927e-002
3.830096e+003;1.019801e-002
3.832025e+003;1.030335e-002
3.833953e+003;1.054584e-002
3.835882e+003;1.000809e-002
3.837811e+003;9.436333e-003
3.839739e+003;1.020235e-002
3.841667e+003;1.067480e-002
3.843596e+003;1.010959e-002
3.845525e+003;1.014554e-002
3.847453e+003;1.055504e-002
3.849382e+003;1.073990e-002
3.851310e+003;1.032910e-002
3.853239e+003;1.001420e-002
3.855167e+003;1.049109e-002
3.857096e+003;1.096422e-002
3.859024e+003;1.094648e-002
3.860953e+003;1.064777e-002
3.862882e+003;1.063762e-002
3.864810e+003;1.067884e-002
3.866739e+003;1.026209e-002
3.868667e+003;1.012315e-002
3.870596e+003;1.082305e-002
3.872524e+003;1.114031e-002
3.874453e+003;1.092515e-002
3.876381e+003;1.102546e-002
3.878310e+003;1.098305e-002
3.880239e+003;1.074602e-002
3.882167e+003;1.035347e-002
3.884096e+003;1.022335e-002
3.886024e+003;1.089637e-002
3.887953e+003;1.131716e-002
3.889881e+003;1.105377e-002
3.891810e+003;1.099579e-002
3.893738e+003;1.133648e-002
3.895667e+003;1.128516e-002
3.897595e+003;1.090873e-002
3.899524e+003;1.109262e-002
3.901453e+003;1.180141e-002
3.903381e+003;1.196452e-002
3.905310e+003;1.154127e-002
3.907238e+003;1.142757e-002
3.909167e+003;1.133209e-002
3.911095e+003;1.157141e-002
3.913024e+003;1.158693e-002
3.914952e+003;1.150292e-002
3.916881e+003;1.180148e-002
3.918810e+003;1.202280e-002
3.920738e+003;1.190506e-002
3.922667e+003;1.156243e-002
3.924595e+003;1.157084e-002
3.926524e+003;1.208746e-002
3.928452e+003;1.237404e-002
3.930381e+003;1.256503e-002
3.932309e+003;1.243923e-002
3.934238e+003;1.280971e-002
3.936167e+003;1.312420e-002
3.938095e+003;1.278286e-002
3.940023e+003;1.257151e-002
3.941952e+003;1.237186e-002
3.943881e+003;1.283490e-002
3.945809e+003;1.377905e-002
3.947738e+003;1.390055e-002
3.949666e+003;1.364134e-002
3.951595e+003;1.369653e-002
3.953523e+003;1.372262e-002
3.955452e+003;1.358055e-002
3.957380e+003;1.392327e-002
3.959309e+003;1.416899e-002
3.961238e+003;1.385002e-002
3.963166e+003;1.377238e-002
3.965095e+003;1.418522e-002
3.967023e+003;1.414938e-002
3.968952e+003;1.369878e-002
3.970880e+003;1.360199e-002
3.972809e+003;1.405511e-002
3.974737e+003;1.447089e-002
3.976666e+003;1.448909e-002
3.978594e+003;1.462497e-002
3.980523e+003;1.470400e-002
3.982452e+003;1.450978e-002
3.984380e+003;1.416824e-002
3.986309e+003;1.443109e-002
3.988237e+003;1.497308e-002
3.990166e+003;1.514902e-002
3.992094e+003;1.525581e-002
3.994023e+003;1.512284e-002
3.995951e+003;1.527904e-002
3.997880e+003;1.548580e-002
3.999809e+003;1.557818e-002
4.001737e+003;0.000000e+000
