3.992094e+002;0.000000e+000
4.011380e+002;0.000000e+000
4.030665e+002;0.000000e+000
4.049951e+002;0.000000e+000
4.069236e+002;0.000000e+000
4.088522e+002;0.000000e+000
4.107807e+002;0.000000e+000
4.127093e+002;0.000000e+000
4.146378e+002;0.000000e+000
4.165664e+002;0.000000e+000
4.184949e+002;0.000000e+000
4.204235e+002;0.000000e+000
4.223520e+002;0.000000e+000
4.242806e+002;0.000000e+000
4.262091e+002;0.000000e+000
4.281377e+002;0.000000e+000
4.300662e+002;0.000000e+000
4.319948e+002;0.000000e+000
4.339233e+002;0.000000e+000
4.358519e+002;0.000000e+000
4.377804e+002;0.000000e+000
4.397090e+002;0.000000e+000
4.416375e+002;0.000000e+000
4.435660e+002;0.000000e+000
4.454946e+002;0.000000e+000
4.474232e+002;0.000000e+000
4.493517e+002;0.000000e+000
4.512802e+002;0.000000e+000
4.532088e+002;0.000000e+000
4.551373e+002;0.000000e+000
4.570659e+002;0.000000e+000
4.589944e+002;0.000000e+000
4.609230e+002;0.000000e+000
4.628515e+002;0.000000e+000
4.647801e+002;0.000000e+000
4.667086e+002;0.000000e+000
4.686372e+002;0.000000e+000
4.705657e+002;0.000000e+000
4.724943e+002;0.000000e+000
4.744228e+002;0.000000e+000
4.763513e+002;0.000000e+000
4.782799e+002;0.000000e+000
4.802085e+002;0.000000e+000
4.821370e+002;0.000000e+000
4.840656e+002;0.000000e+000
4.859941e+002;0.000000e+000
4.879226e+002;0.000000e+000
4.898512e+002;0.000000e+000
4.917798e+002;0.000000e+000
4.937083e+002;0.000000e+000
4.956368e+002;0.000000e+000
4.975654e+002;0.000000e+000
4.994939e+002;0.000000e+000
5.014225e+002;0.000000e+000
5.033510e+002;0.000000e+000
5.052796e+002;0.000000e+000
5.072081e+002;0.000000e+000
5.091367e+002;0.000000e+000
5.110652e+002;0.000000e+000
5.129938e+002;0.000000e+000
5.149223e+002;0.000000e+000
5.168509e+002;0.000000e+000
5.187794e+002;0.000000e+000
5.207079e+002;0.000000e+000
5.226365e+002;0.000000e+000
5.245651e+002;0.000000e+000
5.264936e+002;0.000000e+000
5.284222e+002;0.000000e+000
5.303507e+002;0.000000e+000
5.322792e+002;0.000000e+000
5.342078e+002;0.000000e+000
5.361364e+002;0.000000e+000
5.380649e+002;0.000000e+000
5.399935e+002;0.000000e+000
5.419220e+002;0.000000e+000
5.438505e+002;0.000000e+000
5.457791e+002;0.000000e+000
5.477076e+002;0.000000e+000
5.496362e+002;0.000000e+000
5.515648e+002;0.000000e+000
5.534933e+002;0.000000e+000
5.554218e+002;0.000000e+000
5.573504e+002;0.000000e+000
5.592789e+002;0.000000e+000
5.612075e+002;0.000000e+000
5.631360e+002;0.000000e+000
5.650646e+002;0.000000e+000
5.669931e+002;0.000000e+000
5.689217e+002;0.000000e+000
5.708502e+002;0.000000e+000
5.727787e+002;0.000000e+000
5.747073e+002;0.000000e+000
5.766359e+002;0.000000e+000
5.785644e+002;0.000000e+000
5.804930e+002;0.000000e+000
5.824215e+002;0.000000e+000
5.843500e+002;0.000000e+000
5.862786e+002;0.000000e+000
5.882072e+002;0.000000e+000
5.901357e+002;0.000000e+000
5.920643e+002;0.000000e+000
5.939928e+002;0.000000e+000
5.959213e+002;0.000000e+000
5.978499e+002;0.000000e+000
5.997784e+002;9.149322e-002
6.017070e+002;9.176188e-002
6.036355e+002;8.777796e-002
6.055641e+002;8.657650e-002
6.074926e+002;8.485124e-002
6.094211e+002;8.006554e-002
6.113497e+002;7.968159e-002
6.132783e+002;8.307749e-002
6.152068e+002;8.342128e-002
6.171354e+002;8.421841e-002
6.190639e+002;8.531793e-002
6.209924e+002;8.301559e-002
6.229210e+002;7.925698e-002
6.248495e+002;7.949064e-002
6.267781e+002;8.079275e-002
6.287067e+002;7.907099e-002
6.306352e+002;7.878460e-002
6.325637e+002;8.312046e-002
6.344923e+002;8.570363e-002
6.364208e+002;8.396535e-002
6.383494e+002;8.025140e-002
6.402780e+002;7.923046e-002
6.422065e+002;8.208071e-002
6.441350e+002;8.289988e-002
6.460636e+002;8.096901e-002
6.479921e+002;8.301447e-002
6.499207e+002;8.348156e-002
6.518492e+002;8.341442e-002
6.537778e+002;8.591356e-002
6.557063e+002;8.760267e-002
6.576349e+002;8.673729e-002
6.595634e+002;8.495647e-002
6.614919e+002;8.534136e-002
6.634205e+002;8.866042e-002
6.653491e+002;9.033778e-002
6.672776e+002;9.165773e-002
6.692062e+002;9.293167e-002
6.711347e+002;9.377605e-002
6.730632e+002;9.492540e-002
6.749918e+002;9.501227e-002
6.769203e+002;9.352131e-002
6.788489e+002;9.411329e-002
6.807775e+002;9.537672e-002
6.827060e+002;9.490523e-002
6.846345e+002;9.395406e-002
6.865631e+002;9.469792e-002
6.884916e+002;9.541200e-002
6.904202e+002;9.508131e-002
6.923488e+002;9.514252e-002
6.942773e+002;9.503805e-002
6.962058e+002;9.319990e-002
6.981344e+002;9.045725e-002
7.000629e+002;8.984811e-002
7.019915e+002;8.953819e-002
7.039200e+002;8.900976e-002
7.058486e+002;8.970856e-002
7.077771e+002;9.047370e-002
7.097057e+002;8.948213e-002
7.116342e+002;8.749878e-002
7.135627e+002;8.716547e-002
7.154913e+002;8.810853e-002
7.174199e+002;8.828102e-002
7.193484e+002;8.727200e-002
7.212770e+002;8.761394e-002
7.232055e+002;8.883601e-002
7.251340e+002;8.918782e-002
7.270626e+002;8.896474e-002
7.289911e+002;8.793891e-002
7.309197e+002;8.569140e-002
7.328483e+002;8.222868e-002
7.347768e+002;7.886585e-002
7.367053e+002;7.638991e-002
7.386339e+002;7.411275e-002
7.405624e+002;7.076885e-002
7.424910e+002;6.863474e-002
7.444196e+002;6.702225e-002
7.463481e+002;6.541675e-002
7.482766e+002;6.432934e-002
7.502052e+002;6.275542e-002
7.521337e+002;6.107112e-002
7.540623e+002;6.047031e-002
7.559908e+002;5.971405e-002
7.579194e+002;5.788510e-002
7.598479e+002;5.632738e-002
7.617765e+002;5.588667e-002
7.637050e+002;5.579303e-002
7.656335e+002;5.558127e-002
7.675621e+002;5.455352e-002
7.694907e+002;5.317341e-002
7.714192e+002;5.162153e-002
7.733478e+002;4.996102e-002
7.752763e+002;4.910745e-002
7.772048e+002;4.915432e-002
7.791334e+002;4.876215e-002
7.810620e+002;4.764958e-002
7.829905e+002;4.695491e-002
7.849191e+002;4.577391e-002
7.868476e+002;4.455356e-002
7.887761e+002;4.357170e-002
7.907047e+002;4.207352e-002
7.926332e+002;4.094120e-002
7.945618e+002;4.017062e-002
7.964903e+002;3.909600e-002
7.984189e+002;3.778904e-002
8.003474e+002;3.751250e-002
8.022759e+002;3.721448e-002
8.042045e+002;3.571440e-002
8.061331e+002;3.488545e-002
8.080616e+002;3.455726e-002
8.099902e+002;3.427069e-002
8.119187e+002;3.378710e-002
8.138472e+002;3.342022e-002
8.157758e+002;3.371286e-002
8.177043e+002;3.327943e-002
8.196329e+002;3.220714e-002
8.215615e+002;3.053803e-002
8.234900e+002;3.010794e-002
8.254185e+002;3.066385e-002
8.273471e+002;3.086907e-002
8.292756e+002;3.107791e-002
8.312042e+002;3.124825e-002
8.331328e+002;3.085722e-002
8.350613e+002;3.055851e-002
8.369898e+002;2.994979e-002
8.389184e+002;2.910023e-002
8.408469e+002;2.841488e-002
8.427755e+002;2.790373e-002
8.447040e+002;2.821909e-002
8.466326e+002;2.853906e-002
8.485611e+002;2.797992e-002
8.504897e+002;2.727872e-002
8.524182e+002;2.671479e-002
8.543467e+002;2.592692e-002
8.562753e+002;2.572880e-002
8.582039e+002;2.619924e-002
8.601324e+002;2.599298e-002
8.620610e+002;2.583544e-002
8.639895e+002;2.623869e-002
8.659180e+002;2.656527e-002
8.678466e+002;2.621761e-002
8.697751e+002;2.612709e-002
8.717037e+002;2.677279e-002
8.736323e+002;2.715635e-002
8.755608e+002;2.736623e-002
8.774893e+002;2.729580e-002
8.794179e+002;2.717204e-002
8.813464e+002;2.740194e-002
8.832750e+002;2.757735e-002
8.852036e+002;2.765322e-002
8.871321e+002;2.806011e-002
8.890606e+002;2.868034e-002
8.909892e+002;2.855753e-002
8.929177e+002;2.818709e-002
8.948463e+002;2.821460e-002
8.967748e+002;2.825226e-002
8.987034e+002;2.842347e-002
9.006319e+002;2.864646e-002
9.025605e+002;2.910218e-002
9.044890e+002;2.991000e-002
9.064175e+002;3.025083e-002
9.083461e+002;3.049228e-002
9.102747e+002;3.081162e-002
9.122032e+002;3.107285e-002
9.141318e+002;3.120285e-002
9.160603e+002;3.141631e-002
9.179888e+002;3.140146e-002
9.199174e+002;3.122286e-002
9.218459e+002;3.146404e-002
9.237745e+002;3.223291e-002
9.257031e+002;3.295513e-002
9.276316e+002;3.320993e-002
9.295601e+002;3.306492e-002
9.314887e+002;3.254885e-002
9.334172e+002;3.195218e-002
9.353458e+002;3.162359e-002
9.372744e+002;3.154677e-002
9.392029e+002;3.147932e-002
9.411314e+002;3.172606e-002
9.430600e+002;3.199555e-002
9.449885e+002;3.213093e-002
9.469171e+002;3.268380e-002
9.488456e+002;3.332537e-002
9.507742e+002;3.381073e-002
9.527027e+002;3.454140e-002
9.546313e+002;3.529339e-002
9.565598e+002;3.593444e-002
9.584883e+002;3.683659e-002
9.604169e+002;3.764221e-002
9.623455e+002;3.781417e-002
9.642740e+002;3.827545e-002
9.662026e+002;3.905532e-002
9.681311e+002;3.934547e-002
9.700596e+002;3.965472e-002
9.719882e+002;3.968013e-002
9.739167e+002;3.957664e-002
9.758453e+002;3.938559e-002
9.777739e+002;3.911119e-002
9.797024e+002;3.904470e-002
9.816309e+002;3.898648e-002
9.835595e+002;3.850920e-002
9.854880e+002;3.762056e-002
9.874166e+002;3.671037e-002
9.893452e+002;3.583623e-002
9.912737e+002;3.455188e-002
9.932022e+002;3.363692e-002
9.951307e+002;3.315486e-002
9.970593e+002;3.239110e-002
9.989879e+002;3.133136e-002
1.000916e+003;3.050522e-002
1.002845e+003;3.024184e-002
1.004773e+003;3.029591e-002
1.006702e+003;3.056263e-002
1.008631e+003;3.040414e-002
1.010559e+003;2.984057e-002
1.012488e+003;2.941280e-002
1.014416e+003;2.932768e-002
1.016345e+003;2.939390e-002
1.018273e+003;2.939004e-002
1.020202e+003;2.951939e-002
1.022130e+003;2.985218e-002
1.024059e+003;3.035755e-002
1.025988e+003;3.068704e-002
1.027916e+003;3.065183e-002
1.029845e+003;3.080557e-002
1.031773e+003;3.073316e-002
1.033702e+003;3.042255e-002
1.035630e+003;3.021125e-002
1.037559e+003;3.030053e-002
1.039487e+003;3.044512e-002
1.041416e+003;3.038982e-002
1.043344e+003;3.088419e-002
1.045273e+003;3.179237e-002
1.047202e+003;3.233184e-002
1.049130e+003;3.270180e-002
1.051059e+003;3.357151e-002
1.052987e+003;3.479940e-002
1.054916e+003;3.579647e-002
1.056844e+003;3.687190e-002
1.058773e+003;3.799357e-002
1.060701e+003;3.904923e-002
1.062630e+003;4.027789e-002
1.064558e+003;4.155773e-002
1.066487e+003;4.274577e-002
1.068416e+003;4.376211e-002
1.070344e+003;4.418750e-002
1.072273e+003;4.466647e-002
1.074201e+003;4.455639e-002
1.076130e+003;4.389369e-002
1.078058e+003;4.318842e-002
1.079987e+003;4.224414e-002
1.081915e+003;4.170039e-002
1.083844e+003;4.088008e-002
1.085773e+003;3.972483e-002
1.087701e+003;3.939705e-002
1.089630e+003;3.929037e-002
1.091558e+003;3.900073e-002
1.093487e+003;3.931921e-002
1.095415e+003;3.999529e-002
1.097344e+003;4.024008e-002
1.099272e+003;4.069925e-002
1.101201e+003;4.179556e-002
1.103129e+003;4.333908e-002
1.105058e+003;4.515458e-002
1.106987e+003;4.667421e-002
1.108915e+003;4.753423e-002
1.110844e+003;4.899027e-002
1.112772e+003;5.067798e-002
1.114701e+003;5.143496e-002
1.116629e+003;5.172883e-002
1.118558e+003;5.105675e-002
1.120486e+003;4.918912e-002
1.122415e+003;4.661098e-002
1.124344e+003;4.339199e-002
1.126272e+003;3.978213e-002
1.128201e+003;3.675638e-002
1.130129e+003;3.408607e-002
1.132058e+003;3.239760e-002
1.133986e+003;3.153953e-002
1.135915e+003;3.116612e-002
1.137843e+003;3.132089e-002
1.139772e+003;3.199936e-002
1.141700e+003;3.305545e-002
1.143629e+003;3.464234e-002
1.145557e+003;3.647314e-002
1.147486e+003;3.874305e-002
1.149415e+003;4.109218e-002
1.151343e+003;4.312650e-002
1.153272e+003;4.583801e-002
1.155200e+003;4.917495e-002
1.157129e+003;5.278736e-002
1.159057e+003;5.701274e-002
1.160986e+003;6.158479e-002
1.162914e+003;6.645269e-002
1.164843e+003;7.113808e-002
1.166771e+003;7.457457e-002
1.168700e+003;7.637051e-002
1.170629e+003;7.654132e-002
1.172557e+003;7.498442e-002
1.174486e+003;7.175706e-002
1.176414e+003;6.738482e-002
1.178343e+003;6.304798e-002
1.180271e+003;5.967489e-002
1.182200e+003;5.792716e-002
1.184128e+003;5.777040e-002
1.186057e+003;5.818875e-002
1.187986e+003;5.951822e-002
1.189914e+003;6.174679e-002
1.191843e+003;6.416257e-002
1.193771e+003;6.645095e-002
1.195700e+003;6.817663e-002
1.197628e+003;6.942558e-002
1.199557e+003;7.065468e-002
1.201485e+003;7.116490e-002
1.203414e+003;7.119293e-002
1.205343e+003;7.127663e-002
1.207271e+003;7.118113e-002
1.209200e+003;7.102865e-002
1.211128e+003;7.052132e-002
1.213057e+003;6.920644e-002
1.214985e+003;6.773923e-002
1.216914e+003;6.623624e-002
1.218842e+003;6.530260e-002
1.220771e+003;6.525246e-002
1.222699e+003;6.580491e-002
1.224628e+003;6.749524e-002
1.226557e+003;7.017045e-002
1.228485e+003;7.341394e-002
1.230414e+003;7.676324e-002
1.232342e+003;7.960644e-002
1.234271e+003;8.154868e-002
1.236199e+003;8.291475e-002
1.238128e+003;8.357625e-002
1.240056e+003;8.348208e-002
1.241985e+003;8.330153e-002
1.243913e+003;8.311292e-002
1.245842e+003;8.297551e-002
1.247771e+003;8.308676e-002
1.249699e+003;8.388704e-002
1.251628e+003;8.474596e-002
1.253556e+003;8.582477e-002
1.255485e+003;8.711182e-002
1.257413e+003;8.814896e-002
1.259342e+003;8.832788e-002
1.261270e+003;8.809303e-002
1.263199e+003;8.691373e-002
1.265127e+003;8.459681e-002
1.267056e+003;8.216485e-002
1.268985e+003;8.030370e-002
1.270913e+003;7.864141e-002
1.272842e+003;7.784308e-002
1.274770e+003;7.786044e-002
1.276699e+003;7.790738e-002
1.278627e+003;7.804643e-002
1.280556e+003;7.777875e-002
1.282484e+003;7.659207e-002
1.284413e+003;7.492949e-002
1.286342e+003;7.319368e-002
1.288270e+003;7.160929e-002
1.290199e+003;7.034004e-002
1.292127e+003;6.953059e-002
1.294056e+003;6.934992e-002
1.295984e+003;6.933177e-002
1.297913e+003;6.928229e-002
1.299841e+003;6.929839e-002
1.301770e+003;6.890713e-002
1.303698e+003;6.817369e-002
1.305627e+003;6.781878e-002
1.307556e+003;6.756577e-002
1.309484e+003;6.717225e-002
1.311413e+003;6.687593e-002
1.313341e+003;6.639759e-002
1.315270e+003;6.552725e-002
1.317198e+003;6.469787e-002
1.319127e+003;6.423824e-002
1.321055e+003;6.397387e-002
1.322984e+003;6.371376e-002
1.324912e+003;6.351160e-002
1.326841e+003;6.351555e-002
1.328770e+003;6.374975e-002
1.330698e+003;6.413857e-002
1.332627e+003;6.437460e-002
1.334555e+003;6.444355e-002
1.336484e+003;6.446477e-002
1.338412e+003;6.450298e-002
1.340341e+003;6.478317e-002
1.342269e+003;6.530163e-002
1.344198e+003;6.594535e-002
1.346126e+003;6.641678e-002
1.348055e+003;6.713551e-002
1.349984e+003;6.829438e-002
1.351912e+003;6.947705e-002
1.353841e+003;7.063526e-002
1.355769e+003;7.151204e-002
1.357698e+003;7.212893e-002
1.359626e+003;7.274688e-002
1.361555e+003;7.349446e-002
1.363483e+003;7.424273e-002
1.365412e+003;7.474086e-002
1.367341e+003;7.523971e-002
1.369269e+003;7.572955e-002
1.371198e+003;7.590327e-002
1.373126e+003;7.570861e-002
1.375055e+003;7.460754e-002
1.376983e+003;7.287591e-002
1.378912e+003;7.096345e-002
1.380840e+003;6.900481e-002
1.382769e+003;6.693650e-002
1.384698e+003;6.495595e-002
1.386626e+003;6.293180e-002
1.388555e+003;6.111689e-002
1.390483e+003;5.956261e-002
1.392412e+003;5.823115e-002
1.394340e+003;5.704520e-002
1.396269e+003;5.649951e-002
1.398197e+003;5.658899e-002
1.400126e+003;5.715324e-002
1.402054e+003;5.811204e-002
1.403983e+003;5.941495e-002
1.405911e+003;6.122164e-002
1.407840e+003;6.351244e-002
1.409769e+003;6.657078e-002
1.411697e+003;7.042849e-002
1.413626e+003;7.411738e-002
1.415554e+003;7.700747e-002
1.417483e+003;7.891555e-002
1.419411e+003;7.973740e-002
1.421340e+003;7.990561e-002
1.423268e+003;7.996842e-002
1.425197e+003;8.028556e-002
1.427125e+003;8.137492e-002
1.429054e+003;8.342948e-002
1.430983e+003;8.548532e-002
1.432911e+003;8.682987e-002
1.434840e+003;8.733746e-002
1.436768e+003;8.726531e-002
1.438697e+003;8.679292e-002
1.440625e+003;8.546362e-002
1.442554e+003;8.401383e-002
1.444482e+003;8.303436e-002
1.446411e+003;8.266851e-002
1.448340e+003;8.318353e-002
1.450268e+003;8.439286e-002
1.452197e+003;8.592253e-002
1.454125e+003;8.736660e-002
1.456054e+003;8.806454e-002
1.457982e+003;8.890679e-002
1.459911e+003;9.055258e-002
1.461839e+003;9.185471e-002
1.463768e+003;9.136987e-002
1.465697e+003;8.860661e-002
1.467625e+003;8.486120e-002
1.469554e+003;8.130887e-002
1.471482e+003;7.874710e-002
1.473411e+003;7.762968e-002
1.475339e+003;7.669710e-002
1.477268e+003;7.484780e-002
1.479196e+003;7.229612e-002
1.481125e+003;6.981363e-002
1.483053e+003;6.768040e-002
1.484982e+003;6.652710e-002
1.486911e+003;6.646412e-002
1.488839e+003;6.691806e-002
1.490768e+003;6.805252e-002
1.492696e+003;6.985495e-002
1.494625e+003;7.174869e-002
1.496553e+003;7.413110e-002
1.498482e+003;7.697321e-002
1.500410e+003;7.971316e-002
1.502339e+003;8.264229e-002
1.504267e+003;8.565548e-002
1.506196e+003;8.882841e-002
1.508125e+003;9.245340e-002
1.510053e+003;9.641763e-002
1.511982e+003;1.003133e-001
1.513910e+003;1.041557e-001
1.515839e+003;1.081891e-001
1.517767e+003;1.121463e-001
1.519696e+003;1.160495e-001
1.521624e+003;1.202194e-001
1.523553e+003;1.243880e-001
1.525481e+003;1.283864e-001
1.527410e+003;1.324499e-001
1.529339e+003;1.363670e-001
1.531267e+003;1.398041e-001
1.533196e+003;1.426736e-001
1.535124e+003;1.451858e-001
1.537053e+003;1.468708e-001
1.538981e+003;1.472613e-001
1.540910e+003;1.468552e-001
1.542838e+003;1.457638e-001
1.544767e+003;1.440252e-001
1.546695e+003;1.419446e-001
1.548624e+003;1.390358e-001
1.550553e+003;1.354062e-001
1.552481e+003;1.314417e-001
1.554410e+003;1.272385e-001
1.556338e+003;1.228996e-001
1.558267e+003;1.178858e-001
1.560195e+003;1.129491e-001
1.562124e+003;1.083354e-001
1.564052e+003;1.033445e-001
1.565981e+003;9.796143e-002
1.567910e+003;9.283420e-002
1.569838e+003;8.819946e-002
1.571767e+003;8.403192e-002
1.573695e+003;8.020601e-002
1.575624e+003;7.660484e-002
1.577552e+003;7.363917e-002
1.579481e+003;7.117067e-002
1.581409e+003;6.895044e-002
1.583338e+003;6.728957e-002
1.585266e+003;6.601813e-002
1.587195e+003;6.518042e-002
1.589124e+003;6.500252e-002
1.591052e+003;6.533753e-002
1.592981e+003;6.583976e-002
1.594909e+003;6.668029e-002
1.596838e+003;6.825755e-002
1.598766e+003;7.053169e-002
1.600695e+003;7.310239e-002
1.602623e+003;7.613501e-002
1.604552e+003;7.988975e-002
1.606480e+003;8.422078e-002
1.608409e+003;8.917988e-002
1.610338e+003;9.450568e-002
1.612266e+003;1.003766e-001
1.614195e+003;1.069292e-001
1.616123e+003;1.137778e-001
1.618052e+003;1.211183e-001
1.619980e+003;1.287722e-001
1.621909e+003;1.359029e-001
1.623837e+003;1.423281e-001
1.625766e+003;1.481988e-001
1.627694e+003;1.533757e-001
1.629623e+003;1.580354e-001
1.631552e+003;1.624825e-001
1.633480e+003;1.663233e-001
1.635409e+003;1.689740e-001
1.637337e+003;1.697118e-001
1.639266e+003;1.676219e-001
1.641194e+003;1.631011e-001
1.643123e+003;1.568087e-001
1.645051e+003;1.491340e-001
1.646980e+003;1.407551e-001
1.648909e+003;1.325950e-001
1.650837e+003;1.248683e-001
1.652766e+003;1.175408e-001
1.654694e+003;1.107570e-001
1.656623e+003;1.047692e-001
1.658551e+003;9.940495e-002
1.660480e+003;9.413999e-002
1.662408e+003;8.885930e-002
1.664337e+003;8.390187e-002
1.666266e+003;7.909170e-002
1.668194e+003;7.440607e-002
1.670123e+003;7.009187e-002
1.672051e+003;6.634860e-002
1.673980e+003;6.277855e-002
1.675908e+003;5.896426e-002
1.677837e+003;5.503696e-002
1.679765e+003;5.106268e-002
1.681694e+003;4.680797e-002
1.683622e+003;4.227781e-002
1.685551e+003;3.834334e-002
1.687479e+003;3.517998e-002
1.689408e+003;3.242023e-002
1.691337e+003;2.999740e-002
1.693265e+003;2.774967e-002
1.695194e+003;2.570838e-002
1.697122e+003;2.424921e-002
1.699051e+003;2.303230e-002
1.700979e+003;2.197679e-002
1.702908e+003;2.119697e-002
1.704836e+003;2.027977e-002
1.706765e+003;1.956374e-002
1.708693e+003;1.913842e-002
1.710622e+003;1.888091e-002
1.712551e+003;1.868276e-002
1.714479e+003;1.813509e-002
1.716408e+003;1.747243e-002
1.718336e+003;1.731031e-002
1.720265e+003;1.744398e-002
1.722193e+003;1.725821e-002
1.724122e+003;1.695181e-002
1.726050e+003;1.677731e-002
1.727979e+003;1.664192e-002
1.729908e+003;1.637236e-002
1.731836e+003;1.572561e-002
1.733765e+003;1.500024e-002
1.735693e+003;1.469252e-002
1.737622e+003;1.433153e-002
1.739550e+003;1.343156e-002
1.741479e+003;1.268736e-002
1.743407e+003;1.197242e-002
1.745336e+003;1.110622e-002
1.747265e+003;1.033847e-002
1.749193e+003;9.618310e-003
1.751122e+003;9.136217e-003
1.753050e+003;8.774837e-003
1.754979e+003;8.178461e-003
1.756907e+003;7.607146e-003
1.758836e+003;7.091577e-003
1.760764e+003;6.341004e-003
1.762693e+003;5.878218e-003
1.764621e+003;5.784893e-003
1.766550e+003;5.372881e-003
1.768479e+003;4.992362e-003
1.770407e+003;4.582775e-003
1.772336e+003;4.256648e-003
1.774264e+003;4.071919e-003
1.776193e+003;3.812989e-003
1.778121e+003;3.332385e-003
1.780050e+003;2.931999e-003
1.781978e+003;2.682349e-003
1.783907e+003;2.449603e-003
1.785835e+003;2.265641e-003
1.787764e+003;2.105063e-003
1.789693e+003;2.046234e-003
1.791621e+003;1.818321e-003
1.793550e+003;1.444160e-003
1.795478e+003;1.085236e-003
1.797407e+003;1.079589e-003
1.799335e+003;1.204202e-003
1.801264e+003;1.018342e-003
1.803192e+003;9.094870e-004
1.805121e+003;9.299077e-004
1.807049e+003;7.041719e-004
1.808978e+003;4.402431e-004
1.810907e+003;2.470845e-004
1.812835e+003;-2.796423e-005
1.814764e+003;-2.443942e-004
1.816692e+003;-2.069390e-004
1.818621e+003;-2.012427e-004
1.820549e+003;-2.902897e-004
1.822478e+003;-3.129045e-004
1.824406e+003;-2.353536e-004
1.826335e+003;-3.980555e-004
1.828264e+003;-5.679766e-004
1.830192e+003;-4.674684e-004
1.832121e+003;-5.298213e-004
1.834049e+003;-5.679766e-004
1.835978e+003;-5.878306e-004
1.837906e+003;-7.163963e-004
1.839835e+003;-7.705109e-004
1.841763e+003;-8.631780e-004
1.843692e+003;-1.047428e-003
1.845620e+003;-1.009348e-003
1.847549e+003;-9.336407e-004
1.849478e+003;-9.872984e-004
1.851406e+003;-1.139706e-003
1.853335e+003;-1.367573e-003
1.855263e+003;-1.559368e-003
1.857192e+003;-1.543157e-003
1.859120e+003;-1.556793e-003
1.861049e+003;-1.833473e-003
1.862977e+003;-1.909585e-003
1.864906e+003;-1.672793e-003
1.866834e+003;-1.760549e-003
1.868763e+003;-1.885535e-003
1.870692e+003;-1.741673e-003
1.872620e+003;-1.962693e-003
1.874549e+003;-2.178985e-003
1.876477e+003;-2.287965e-003
1.878406e+003;-2.468185e-003
1.880334e+003;-2.408252e-003
1.882263e+003;-2.405319e-003
1.884191e+003;-2.427561e-003
1.886120e+003;-2.378101e-003
1.888048e+003;-2.413623e-003
1.889977e+003;-2.529428e-003
1.891906e+003;-2.725090e-003
1.893834e+003;-2.913292e-003
1.895763e+003;-2.833109e-003
1.897691e+003;-2.713730e-003
1.899620e+003;-2.739742e-003
1.901548e+003;-2.727527e-003
1.903477e+003;-2.650241e-003
1.905405e+003;-2.560623e-003
1.907334e+003;-2.677870e-003
1.909262e+003;-2.970292e-003
1.911191e+003;-2.967298e-003
1.913120e+003;-2.807696e-003
1.915048e+003;-2.755744e-003
1.916977e+003;-2.872149e-003
1.918905e+003;-2.989675e-003
1.920834e+003;-3.043441e-003
1.922762e+003;-3.106050e-003
1.924691e+003;-3.015407e-003
1.926619e+003;-2.957820e-003
1.928548e+003;-3.191840e-003
1.930477e+003;-3.227394e-003
1.932405e+003;-3.115558e-003
1.934334e+003;-3.099175e-003
1.936262e+003;-3.122696e-003
1.938191e+003;-3.187432e-003
1.940119e+003;-3.285504e-003
1.942048e+003;-3.544161e-003
1.943976e+003;-3.644847e-003
1.945905e+003;-3.560988e-003
1.947833e+003;-3.591024e-003
1.949762e+003;-3.581987e-003
1.951691e+003;-3.441841e-003
1.953619e+003;-3.422084e-003
1.955548e+003;-3.427476e-003
1.957476e+003;-3.309312e-003
1.959405e+003;-3.236438e-003
1.961333e+003;-3.352912e-003
1.963262e+003;-3.253145e-003
1.965190e+003;-2.830871e-003
1.967119e+003;-2.833175e-003
1.969047e+003;-3.184637e-003
1.970976e+003;-3.459822e-003
1.972905e+003;-3.412912e-003
1.974833e+003;-3.096839e-003
1.976762e+003;-3.111544e-003
1.978690e+003;-3.445096e-003
1.980619e+003;-3.552377e-003
1.982547e+003;-3.416364e-003
1.984476e+003;-3.209831e-003
1.986404e+003;-3.094437e-003
1.988333e+003;-3.207726e-003
1.990261e+003;-3.445392e-003
1.992190e+003;-3.382108e-003
1.994119e+003;-3.297737e-003
1.996047e+003;-3.345415e-003
1.997976e+003;-3.207364e-003
1.999904e+003;-2.923165e-003
2.001833e+003;-2.823464e-003
2.003761e+003;-2.873235e-003
2.005690e+003;-2.879786e-003
2.007618e+003;-2.935408e-003
2.009547e+003;-2.937844e-003
2.011476e+003;-2.939588e-003
2.013404e+003;-2.857765e-003
2.015333e+003;-2.785013e-003
2.017261e+003;-2.864085e-003
2.019190e+003;-2.801013e-003
2.021118e+003;-2.749291e-003
2.023047e+003;-2.629230e-003
2.024975e+003;-2.631897e-003
2.026904e+003;-2.647771e-003
2.028833e+003;-2.449504e-003
2.030761e+003;-2.508015e-003
2.032690e+003;-2.583449e-003
2.034618e+003;-2.623565e-003
2.036547e+003;-2.755151e-003
2.038475e+003;-2.774016e-003
2.040404e+003;-2.643556e-003
2.042332e+003;-2.576269e-003
2.044261e+003;-2.426836e-003
2.046189e+003;-2.182447e-003
2.048118e+003;-1.973215e-003
2.050047e+003;-1.847627e-003
2.051975e+003;-1.887185e-003
2.053904e+003;-1.908034e-003
2.055832e+003;-2.114693e-003
2.057761e+003;-2.325768e-003
2.059689e+003;-2.343070e-003
2.061618e+003;-2.188876e-003
2.063546e+003;-2.124683e-003
2.065475e+003;-2.202986e-003
2.067404e+003;-2.167974e-003
2.069332e+003;-2.072551e-003
2.071260e+003;-2.120430e-003
2.073189e+003;-2.317067e-003
2.075118e+003;-2.403177e-003
2.077046e+003;-2.425518e-003
2.078975e+003;-2.475071e-003
2.080903e+003;-2.524157e-003
2.082832e+003;-2.604232e-003
2.084760e+003;-2.579562e-003
2.086689e+003;-2.571459e-003
2.088617e+003;-2.719032e-003
2.090546e+003;-2.623466e-003
2.092475e+003;-2.517404e-003
2.094403e+003;-2.553903e-003
2.096332e+003;-2.592243e-003
2.098260e+003;-2.565465e-003
2.100189e+003;-2.609074e-003
2.102117e+003;-2.654292e-003
2.104046e+003;-2.533875e-003
2.105974e+003;-2.506698e-003
2.107903e+003;-2.527452e-003
2.109832e+003;-2.445287e-003
2.111760e+003;-2.219172e-003
2.113688e+003;-2.072188e-003
2.115617e+003;-2.153335e-003
2.117546e+003;-2.541221e-003
2.119474e+003;-2.692821e-003
2.121403e+003;-2.488743e-003
2.123331e+003;-2.257377e-003
2.125260e+003;-2.280417e-003
2.127188e+003;-2.471447e-003
2.129117e+003;-2.515559e-003
2.131045e+003;-2.342708e-003
2.132974e+003;-2.161116e-003
2.134903e+003;-2.221578e-003
2.136831e+003;-2.288591e-003
2.138760e+003;-2.369434e-003
2.140688e+003;-2.518327e-003
2.142617e+003;-2.412140e-003
2.144545e+003;-2.307345e-003
2.146474e+003;-2.143609e-003
2.148402e+003;-2.185315e-003
2.150331e+003;-2.407593e-003
2.152260e+003;-2.354967e-003
2.154188e+003;-2.215809e-003
2.156117e+003;-2.077695e-003
2.158045e+003;-1.836311e-003
2.159974e+003;-1.805922e-003
2.161902e+003;-1.846803e-003
2.163831e+003;-1.921361e-003
2.165759e+003;-1.981758e-003
2.167688e+003;-1.789390e-003
2.169616e+003;-1.459386e-003
2.171545e+003;-1.485242e-003
2.173474e+003;-1.759922e-003
2.175402e+003;-1.914698e-003
2.177331e+003;-1.874384e-003
2.179259e+003;-1.798135e-003
2.181188e+003;-1.717713e-003
2.183116e+003;-1.762067e-003
2.185045e+003;-1.859043e-003
2.186973e+003;-1.689395e-003
2.188902e+003;-1.595617e-003
2.190831e+003;-1.618824e-003
2.192759e+003;-1.588783e-003
2.194688e+003;-1.402154e-003
2.196616e+003;-1.295727e-003
2.198545e+003;-1.462358e-003
2.200473e+003;-1.689098e-003
2.202402e+003;-1.786190e-003
2.204330e+003;-1.850531e-003
2.206259e+003;-1.785827e-003
2.208188e+003;-1.728901e-003
2.210116e+003;-2.015004e-003
2.212044e+003;-2.161743e-003
2.213973e+003;-2.052600e-003
2.215902e+003;-1.956756e-003
2.217830e+003;-2.018401e-003
2.219759e+003;-2.120892e-003
2.221687e+003;-2.046895e-003
2.223616e+003;-1.752035e-003
2.225544e+003;-1.718175e-003
2.227473e+003;-1.890682e-003
2.229401e+003;-2.060119e-003
2.231330e+003;-2.072353e-003
2.233259e+003;-1.928256e-003
2.235187e+003;-1.849970e-003
2.237116e+003;-2.006330e-003
2.239044e+003;-2.077201e-003
2.240973e+003;-2.093524e-003
2.242901e+003;-2.278901e-003
2.244830e+003;-2.229523e-003
2.246758e+003;-2.067143e-003
2.248687e+003;-2.136487e-003
2.250615e+003;-2.030042e-003
2.252544e+003;-1.811795e-003
2.254473e+003;-1.726822e-003
2.256401e+003;-1.880620e-003
2.258330e+003;-1.995577e-003
2.260258e+003;-1.940725e-003
2.262187e+003;-1.896191e-003
2.264115e+003;-1.716327e-003
2.266044e+003;-1.502347e-003
2.267972e+003;-1.338935e-003
2.269901e+003;-1.382039e-003
2.271830e+003;-1.442247e-003
2.273758e+003;-1.558575e-003
2.275687e+003;-1.581223e-003
2.277615e+003;-1.618692e-003
2.279544e+003;-1.788961e-003
2.281472e+003;-1.687283e-003
2.283401e+003;-1.566268e-003
2.285329e+003;-1.427319e-003
2.287258e+003;-1.468368e-003
2.289187e+003;-1.473453e-003
2.291115e+003;-1.337085e-003
2.293043e+003;-1.375103e-003
2.294972e+003;-1.358588e-003
2.296901e+003;-1.348679e-003
2.298829e+003;-1.487190e-003
2.300758e+003;-1.427386e-003
2.302686e+003;-1.302268e-003
2.304615e+003;-1.228726e-003
2.306543e+003;-1.265333e-003
2.308472e+003;-1.313598e-003
2.310400e+003;-1.375665e-003
2.312329e+003;-1.370248e-003
2.314258e+003;-1.271676e-003
2.316186e+003;-1.202590e-003
2.318115e+003;-1.154445e-003
2.320043e+003;-1.244321e-003
2.321972e+003;-1.322088e-003
2.323900e+003;-1.325193e-003
2.325829e+003;-1.276004e-003
2.327757e+003;-1.376755e-003
2.329686e+003;-1.373287e-003
2.331615e+003;-1.512417e-003
2.333543e+003;-1.637937e-003
2.335472e+003;-1.360141e-003
2.337400e+003;-1.357829e-003
2.339329e+003;-1.450305e-003
2.341257e+003;-1.295264e-003
2.343186e+003;-1.186036e-003
2.345114e+003;-1.076052e-003
2.347043e+003;-9.228952e-004
2.348971e+003;-7.206966e-004
2.350900e+003;-8.247179e-004
2.352829e+003;-8.635417e-004
2.354757e+003;-7.455383e-004
2.356686e+003;-1.018802e-003
2.358614e+003;-1.472067e-003
2.360543e+003;-1.608624e-003
2.362471e+003;-1.501785e-003
2.364400e+003;-1.367540e-003
2.366328e+003;-1.223472e-003
2.368257e+003;-1.094627e-003
2.370186e+003;-9.177371e-004
2.372114e+003;-8.801747e-004
2.374042e+003;-8.016667e-004
2.375971e+003;-6.331605e-004
2.377900e+003;-6.073859e-004
2.379828e+003;-6.301166e-004
2.381757e+003;-6.794450e-004
2.383685e+003;-7.491106e-004
2.385614e+003;-5.248573e-004
2.387542e+003;-4.118596e-004
2.389471e+003;-4.762394e-004
2.391399e+003;-4.734923e-004
2.393328e+003;-5.081444e-004
2.395257e+003;-4.546923e-004
2.397185e+003;-3.467749e-004
2.399114e+003;-3.630304e-004
2.401042e+003;-2.676405e-004
2.402971e+003;-2.418774e-004
2.404899e+003;-2.255180e-004
2.406828e+003;-2.821772e-004
2.408756e+003;-3.881243e-004
2.410685e+003;-3.032694e-004
2.412614e+003;-1.532841e-004
2.414542e+003;-1.649762e-004
2.416471e+003;-8.855826e-005
2.418399e+003;2.128721e-004
2.420328e+003;2.143307e-004
2.422256e+003;-5.224924e-005
2.424185e+003;-1.480839e-004
2.426113e+003;-2.023356e-004
2.428042e+003;-6.016725e-005
2.429970e+003;4.194972e-005
2.431899e+003;5.507227e-005
2.433828e+003;3.747622e-005
2.435756e+003;-2.624137e-005
2.437685e+003;9.012552e-006
2.439613e+003;2.269741e-005
2.441542e+003;2.053802e-004
2.443470e+003;3.100133e-004
2.445399e+003;1.134658e-004
2.447327e+003;1.575478e-004
2.449256e+003;3.147549e-004
2.451185e+003;3.305384e-004
2.453113e+003;4.027984e-004
2.455042e+003;5.910826e-004
2.456970e+003;6.170294e-004
2.458899e+003;6.514065e-004
2.460827e+003;6.250262e-004
2.462756e+003;4.971625e-004
2.464684e+003;4.426975e-004
2.466613e+003;6.028945e-004
2.468542e+003;7.423395e-004
2.470470e+003;7.503386e-004
2.472398e+003;8.095228e-004
2.474327e+003;8.514512e-004
2.476256e+003;7.988338e-004
2.478184e+003;9.356854e-004
2.480113e+003;9.997768e-004
2.482041e+003;1.027508e-003
2.483970e+003;1.421820e-003
2.485898e+003;1.642508e-003
2.487827e+003;1.493464e-003
2.489755e+003;1.272520e-003
2.491684e+003;1.230385e-003
2.493613e+003;1.259294e-003
2.495541e+003;1.127224e-003
2.497470e+003;1.182306e-003
2.499398e+003;1.203803e-003
2.501327e+003;1.307447e-003
2.503255e+003;1.624149e-003
2.505184e+003;1.717315e-003
2.507112e+003;1.587234e-003
2.509041e+003;1.621256e-003
2.510969e+003;1.859614e-003
2.512898e+003;2.106561e-003
2.514827e+003;2.110989e-003
2.516755e+003;2.154708e-003
2.518684e+003;2.129369e-003
2.520612e+003;2.332794e-003
2.522541e+003;2.725059e-003
2.524469e+003;2.798952e-003
2.526398e+003;2.862185e-003
2.528326e+003;2.863553e-003
2.530255e+003;2.761404e-003
2.532184e+003;2.893538e-003
2.534112e+003;3.090781e-003
2.536041e+003;3.075331e-003
2.537969e+003;3.174082e-003
2.539898e+003;3.269451e-003
2.541826e+003;3.256765e-003
2.543755e+003;3.386446e-003
2.545683e+003;3.486938e-003
2.547612e+003;3.553044e-003
2.549541e+003;3.544559e-003
2.551469e+003;3.494754e-003
2.553397e+003;3.397967e-003
2.555326e+003;3.420408e-003
2.557255e+003;3.776957e-003
2.559183e+003;3.771309e-003
2.561112e+003;3.415199e-003
2.563040e+003;3.394794e-003
2.564969e+003;3.570048e-003
2.566897e+003;3.659356e-003
2.568826e+003;3.815563e-003
2.570754e+003;3.895827e-003
2.572683e+003;3.803128e-003
2.574612e+003;3.856044e-003
2.576540e+003;3.841402e-003
2.578469e+003;3.794872e-003
2.580397e+003;3.692538e-003
2.582326e+003;3.439812e-003
2.584254e+003;3.475950e-003
2.586183e+003;3.901277e-003
2.588111e+003;4.219408e-003
2.590040e+003;4.150357e-003
2.591969e+003;4.230349e-003
2.593897e+003;4.323038e-003
2.595826e+003;4.368587e-003
2.597754e+003;4.441590e-003
2.599683e+003;4.546679e-003
2.601611e+003;4.558064e-003
2.603540e+003;4.588468e-003
2.605468e+003;4.643756e-003
2.607397e+003;4.619343e-003
2.609325e+003;4.780016e-003
2.611254e+003;5.133827e-003
2.613183e+003;5.272656e-003
2.615111e+003;5.183385e-003
2.617040e+003;5.219332e-003
2.618968e+003;5.436826e-003
2.620897e+003;5.690918e-003
2.622825e+003;5.833517e-003
2.624754e+003;5.705052e-003
2.626682e+003;5.669097e-003
2.628611e+003;5.776062e-003
2.630540e+003;5.717675e-003
2.632468e+003;5.805914e-003
2.634396e+003;5.848730e-003
2.636325e+003;5.775928e-003
2.638254e+003;5.662585e-003
2.640182e+003;5.818272e-003
2.642111e+003;6.019165e-003
2.644039e+003;5.892559e-003
2.645968e+003;5.865757e-003
2.647896e+003;6.038316e-003
2.649825e+003;6.238001e-003
2.651753e+003;6.589369e-003
2.653682e+003;6.848244e-003
2.655611e+003;6.601245e-003
2.657539e+003;6.329203e-003
2.659468e+003;6.537734e-003
2.661396e+003;6.943951e-003
2.663325e+003;7.184071e-003
2.665253e+003;7.082012e-003
2.667182e+003;6.882377e-003
2.669110e+003;6.829798e-003
2.671039e+003;6.939002e-003
2.672968e+003;7.213177e-003
2.674896e+003;7.420515e-003
2.676825e+003;7.527104e-003
2.678753e+003;7.619421e-003
2.680682e+003;7.464536e-003
2.682610e+003;7.331610e-003
2.684539e+003;7.656751e-003
2.686467e+003;7.720762e-003
2.688396e+003;7.735299e-003
2.690324e+003;8.001439e-003
2.692253e+003;8.309552e-003
2.694182e+003;8.392544e-003
2.696110e+003;8.391429e-003
2.698039e+003;8.681497e-003
2.699967e+003;8.849294e-003
2.701896e+003;8.732103e-003
2.703824e+003;8.721556e-003
2.705753e+003;8.858289e-003
2.707681e+003;9.081165e-003
2.709610e+003;9.196826e-003
2.711539e+003;9.481371e-003
2.713467e+003;9.635283e-003
2.715396e+003;9.627219e-003
2.717324e+003;9.680274e-003
2.719253e+003;1.000389e-002
2.721181e+003;1.042799e-002
2.723110e+003;1.059521e-002
2.725038e+003;1.052537e-002
2.726967e+003;1.068176e-002
2.728896e+003;1.104347e-002
2.730824e+003;1.125217e-002
2.732752e+003;1.145842e-002
2.734681e+003;1.171565e-002
2.736610e+003;1.185670e-002
2.738538e+003;1.200100e-002
2.740467e+003;1.207639e-002
2.742395e+003;1.220144e-002
2.744324e+003;1.248015e-002
2.746252e+003;1.257827e-002
2.748181e+003;1.257612e-002
2.750109e+003;1.307567e-002
2.752038e+003;1.351834e-002
2.753967e+003;1.353033e-002
2.755895e+003;1.335659e-002
2.757824e+003;1.331699e-002
2.759752e+003;1.341129e-002
2.761681e+003;1.355320e-002
2.763609e+003;1.373753e-002
2.765538e+003;1.379444e-002
2.767466e+003;1.391913e-002
2.769395e+003;1.434444e-002
2.771323e+003;1.469043e-002
2.773252e+003;1.494996e-002
2.775181e+003;1.537759e-002
2.777109e+003;1.577247e-002
2.779038e+003;1.615517e-002
2.780966e+003;1.635498e-002
2.782895e+003;1.642727e-002
2.784823e+003;1.673702e-002
2.786752e+003;1.712111e-002
2.788680e+003;1.756530e-002
2.790609e+003;1.814708e-002
2.792538e+003;1.858879e-002
2.794466e+003;1.885959e-002
2.796395e+003;1.913544e-002
2.798323e+003;1.964610e-002
2.800252e+003;2.010926e-002
2.802180e+003;2.020232e-002
2.804109e+003;2.039932e-002
2.806037e+003;2.129228e-002
2.807966e+003;2.216222e-002
2.809895e+003;2.271182e-002
2.811823e+003;2.326788e-002
2.813751e+003;2.386215e-002
2.815680e+003;2.436277e-002
2.817609e+003;2.499690e-002
2.819537e+003;2.578122e-002
2.821466e+003;2.666743e-002
2.823394e+003;2.727135e-002
2.825323e+003;2.778118e-002
2.827251e+003;2.857321e-002
2.829180e+003;2.963265e-002
2.831108e+003;3.067175e-002
2.833037e+003;3.176302e-002
2.834966e+003;3.312957e-002
2.836894e+003;3.489511e-002
2.838823e+003;3.720372e-002
2.840751e+003;4.012494e-002
2.842680e+003;4.346966e-002
2.844608e+003;4.689555e-002
2.846537e+003;5.041983e-002
2.848465e+003;5.373930e-002
2.850394e+003;5.701516e-002
2.852323e+003;5.970842e-002
2.854251e+003;6.158208e-002
2.856180e+003;6.298638e-002
2.858108e+003;6.389505e-002
2.860037e+003;6.405289e-002
2.861965e+003;6.340365e-002
2.863894e+003;6.222603e-002
2.865822e+003;6.078592e-002
2.867751e+003;5.914009e-002
2.869679e+003;5.743955e-002
2.871608e+003;5.573351e-002
2.873536e+003;5.396649e-002
2.875465e+003;5.260368e-002
2.877394e+003;5.139960e-002
2.879322e+003;5.020636e-002
2.881251e+003;4.919079e-002
2.883179e+003;4.852959e-002
2.885108e+003;4.855349e-002
2.887036e+003;4.900251e-002
2.888965e+003;4.966068e-002
2.890893e+003;5.067061e-002
2.892822e+003;5.162321e-002
2.894750e+003;5.285857e-002
2.896679e+003;5.418858e-002
2.898608e+003;5.515128e-002
2.900536e+003;5.625338e-002
2.902465e+003;5.752514e-002
2.904393e+003;5.880295e-002
2.906322e+003;6.024705e-002
2.908250e+003;6.203209e-002
2.910179e+003;6.419092e-002
2.912107e+003;6.639948e-002
2.914036e+003;6.801482e-002
2.915965e+003;6.966065e-002
2.917893e+003;7.156705e-002
2.919822e+003;7.324322e-002
2.921750e+003;7.472893e-002
2.923679e+003;7.640239e-002
2.925607e+003;7.763202e-002
2.927536e+003;7.845882e-002
2.929464e+003;7.884538e-002
2.931393e+003;7.863601e-002
2.933322e+003;7.805441e-002
2.935250e+003;7.712676e-002
2.937178e+003;7.560232e-002
2.939107e+003;7.354567e-002
2.941036e+003;7.154056e-002
2.942964e+003;6.926469e-002
2.944893e+003;6.653000e-002
2.946821e+003;6.419660e-002
2.948750e+003;6.177738e-002
2.950678e+003;5.881931e-002
2.952607e+003;5.591806e-002
2.954535e+003;5.370660e-002
2.956464e+003;5.156609e-002
2.958393e+003;4.965566e-002
2.960321e+003;4.794990e-002
2.962250e+003;4.618108e-002
2.964178e+003;4.449548e-002
2.966107e+003;4.277381e-002
2.968035e+003;4.097696e-002
2.969964e+003;3.900580e-002
2.971892e+003;3.748938e-002
2.973821e+003;3.581464e-002
2.975750e+003;3.402185e-002
2.977678e+003;3.256789e-002
2.979607e+003;3.108278e-002
2.981535e+003;2.977598e-002
2.983464e+003;2.874897e-002
2.985392e+003;2.800314e-002
2.987321e+003;2.702364e-002
2.989249e+003;2.617432e-002
2.991178e+003;2.560774e-002
2.993106e+003;2.496465e-002
2.995035e+003;2.425646e-002
2.996964e+003;2.359853e-002
2.998892e+003;2.328456e-002
3.000821e+003;2.311406e-002
3.002749e+003;2.283131e-002
3.004678e+003;2.248823e-002
3.006606e+003;2.245748e-002
3.008535e+003;2.260573e-002
3.010463e+003;2.277124e-002
3.012392e+003;2.291122e-002
3.014321e+003;2.282834e-002
3.016249e+003;2.274789e-002
3.018177e+003;2.290070e-002
3.020106e+003;2.328075e-002
3.022035e+003;2.359353e-002
3.023963e+003;2.391281e-002
3.025892e+003;2.451890e-002
3.027820e+003;2.514121e-002
3.029749e+003;2.556307e-002
3.031677e+003;2.600230e-002
3.033606e+003;2.649057e-002
3.035534e+003;2.697664e-002
3.037463e+003;2.722238e-002
3.039392e+003;2.792295e-002
3.041320e+003;2.880144e-002
3.043249e+003;2.949993e-002
3.045177e+003;3.018117e-002
3.047106e+003;3.063381e-002
3.049034e+003;3.136139e-002
3.050963e+003;3.231914e-002
3.052891e+003;3.301051e-002
3.054820e+003;3.379541e-002
3.056749e+003;3.449484e-002
3.058677e+003;3.497637e-002
3.060606e+003;3.561930e-002
3.062534e+003;3.626944e-002
3.064463e+003;3.667096e-002
3.066391e+003;3.726405e-002
3.068320e+003;3.785581e-002
3.070248e+003;3.788936e-002
3.072177e+003;3.821954e-002
3.074105e+003;3.890131e-002
3.076034e+003;3.915299e-002
3.077963e+003;3.899902e-002
3.079891e+003;3.874932e-002
3.081820e+003;3.881409e-002
3.083748e+003;3.890726e-002
3.085677e+003;3.857637e-002
3.087605e+003;3.833085e-002
3.089534e+003;3.786922e-002
3.091462e+003;3.730011e-002
3.093391e+003;3.724022e-002
3.095320e+003;3.690656e-002
3.097248e+003;3.589255e-002
3.099177e+003;3.512422e-002
3.101105e+003;3.466430e-002
3.103034e+003;3.395442e-002
3.104962e+003;3.333957e-002
3.106891e+003;3.265065e-002
3.108819e+003;3.177201e-002
3.110748e+003;3.139939e-002
3.112677e+003;3.118747e-002
3.114605e+003;3.085719e-002
3.116533e+003;3.024234e-002
3.118462e+003;2.966607e-002
3.120391e+003;2.930652e-002
3.122319e+003;2.889029e-002
3.124248e+003;2.844187e-002
3.126176e+003;2.805756e-002
3.128105e+003;2.763967e-002
3.130033e+003;2.748867e-002
3.131962e+003;2.746191e-002
3.133890e+003;2.725522e-002
3.135819e+003;2.707889e-002
3.137748e+003;2.693556e-002
3.139676e+003;2.687084e-002
3.141605e+003;2.682079e-002
3.143533e+003;2.676158e-002
3.145462e+003;2.699169e-002
3.147390e+003;2.736563e-002
3.149319e+003;2.765252e-002
3.151247e+003;2.793716e-002
3.153176e+003;2.828228e-002
3.155104e+003;2.873326e-002
3.157033e+003;2.895740e-002
3.158962e+003;2.931042e-002
3.160890e+003;2.979217e-002
3.162819e+003;3.014079e-002
3.164747e+003;3.061891e-002
3.166676e+003;3.115903e-002
3.168604e+003;3.148378e-002
3.170533e+003;3.191987e-002
3.172461e+003;3.242984e-002
3.174390e+003;3.302552e-002
3.176319e+003;3.368798e-002
3.178247e+003;3.437851e-002
3.180176e+003;3.488100e-002
3.182104e+003;3.542610e-002
3.184033e+003;3.593566e-002
3.185961e+003;3.615009e-002
3.187890e+003;3.637723e-002
3.189818e+003;3.691662e-002
3.191747e+003;3.766533e-002
3.193676e+003;3.808008e-002
3.195604e+003;3.792165e-002
3.197532e+003;3.784446e-002
3.199461e+003;3.846764e-002
3.201390e+003;3.919183e-002
3.203318e+003;3.966289e-002
3.205247e+003;3.998410e-002
3.207175e+003;4.032933e-002
3.209104e+003;4.058261e-002
3.211032e+003;4.074766e-002
3.212961e+003;4.090767e-002
3.214889e+003;4.125867e-002
3.216818e+003;4.199337e-002
3.218747e+003;4.258507e-002
3.220675e+003;4.292437e-002
3.222604e+003;4.370630e-002
3.224532e+003;4.441789e-002
3.226461e+003;4.490880e-002
3.228389e+003;4.537110e-002
3.230318e+003;4.559509e-002
3.232246e+003;4.642241e-002
3.234175e+003;4.753334e-002
3.236104e+003;4.862571e-002
3.238032e+003;4.976010e-002
3.239961e+003;5.064879e-002
3.241889e+003;5.159765e-002
3.243818e+003;5.293364e-002
3.245746e+003;5.416242e-002
3.247675e+003;5.524308e-002
3.249603e+003;5.609447e-002
3.251532e+003;5.689627e-002
3.253460e+003;5.783062e-002
3.255389e+003;5.859074e-002
3.257318e+003;5.983861e-002
3.259246e+003;6.096500e-002
3.261175e+003;6.155581e-002
3.263103e+003;6.257093e-002
3.265032e+003;6.391978e-002
3.266960e+003;6.498277e-002
3.268889e+003;6.559992e-002
3.270817e+003;6.629220e-002
3.272746e+003;6.707978e-002
3.274675e+003;6.724930e-002
3.276603e+003;6.733375e-002
3.278531e+003;6.787422e-002
3.280460e+003;6.894189e-002
3.282389e+003;6.976538e-002
3.284317e+003;6.987254e-002
3.286246e+003;7.010654e-002
3.288174e+003;7.043157e-002
3.290103e+003;7.026123e-002
3.292031e+003;6.993614e-002
3.293960e+003;6.959562e-002
3.295888e+003;6.947693e-002
3.297817e+003;6.970142e-002
3.299746e+003;6.940279e-002
3.301674e+003;6.849933e-002
3.303603e+003;6.740537e-002
3.305531e+003;6.620274e-002
3.307460e+003;6.526016e-002
3.309388e+003;6.429902e-002
3.311317e+003;6.341136e-002
3.313245e+003;6.260978e-002
3.315174e+003;6.162087e-002
3.317103e+003;6.026646e-002
3.319031e+003;5.875087e-002
3.320960e+003;5.769918e-002
3.322888e+003;5.685140e-002
3.324817e+003;5.573181e-002
3.326745e+003;5.469758e-002
3.328674e+003;5.365078e-002
3.330602e+003;5.258188e-002
3.332531e+003;5.132091e-002
3.334459e+003;4.978176e-002
3.336388e+003;4.875217e-002
3.338317e+003;4.814916e-002
3.340245e+003;4.715989e-002
3.342174e+003;4.588033e-002
3.344102e+003;4.483793e-002
3.346031e+003;4.383380e-002
3.347959e+003;4.271151e-002
3.349888e+003;4.177462e-002
3.351816e+003;4.105216e-002
3.353745e+003;4.005681e-002
3.355674e+003;3.890298e-002
3.357602e+003;3.817815e-002
3.359531e+003;3.755145e-002
3.361459e+003;3.718174e-002
3.363388e+003;3.666739e-002
3.365316e+003;3.575689e-002
3.367245e+003;3.486474e-002
3.369173e+003;3.410962e-002
3.371102e+003;3.354846e-002
3.373031e+003;3.269069e-002
3.374959e+003;3.209090e-002
3.376887e+003;3.177789e-002
3.378816e+003;3.112030e-002
3.380745e+003;3.044832e-002
3.382673e+003;3.022294e-002
3.384602e+003;2.989800e-002
3.386530e+003;2.907851e-002
3.388459e+003;2.834038e-002
3.390387e+003;2.814353e-002
3.392316e+003;2.806439e-002
3.394244e+003;2.756668e-002
3.396173e+003;2.687193e-002
3.398102e+003;2.637633e-002
3.400030e+003;2.606865e-002
3.401959e+003;2.568169e-002
3.403887e+003;2.506419e-002
3.405816e+003;2.438272e-002
3.407744e+003;2.388463e-002
3.409673e+003;2.369419e-002
3.411601e+003;2.366260e-002
3.413530e+003;2.328225e-002
3.415458e+003;2.291604e-002
3.417387e+003;2.256151e-002
3.419316e+003;2.198240e-002
3.421244e+003;2.147062e-002
3.423173e+003;2.149642e-002
3.425101e+003;2.135520e-002
3.427030e+003;2.103436e-002
3.428958e+003;2.071069e-002
3.430887e+003;2.029126e-002
3.432815e+003;2.008171e-002
3.434744e+003;2.004222e-002
3.436673e+003;2.001835e-002
3.438601e+003;2.019485e-002
3.440530e+003;2.039807e-002
3.442458e+003;2.004541e-002
3.444387e+003;1.966285e-002
3.446315e+003;1.922517e-002
3.448244e+003;1.885772e-002
3.450172e+003;1.858976e-002
3.452101e+003;1.837975e-002
3.454030e+003;1.811682e-002
3.455958e+003;1.752835e-002
3.457886e+003;1.719440e-002
3.459815e+003;1.672162e-002
3.461744e+003;1.607463e-002
3.463672e+003;1.582237e-002
3.465601e+003;1.583144e-002
3.467529e+003;1.541683e-002
3.469458e+003;1.509485e-002
3.471386e+003;1.504682e-002
3.473315e+003;1.494489e-002
3.475243e+003;1.484507e-002
3.477172e+003;1.465143e-002
3.479101e+003;1.460215e-002
3.481029e+003;1.491629e-002
3.482958e+003;1.489479e-002
3.484886e+003;1.460441e-002
3.486815e+003;1.430783e-002
3.488743e+003;1.412891e-002
3.490672e+003;1.394575e-002
3.492600e+003;1.346358e-002
3.494529e+003;1.310528e-002
3.496458e+003;1.344800e-002
3.498386e+003;1.367071e-002
3.500315e+003;1.341782e-002
3.502243e+003;1.286074e-002
3.504172e+003;1.250593e-002
3.506100e+003;1.248083e-002
3.508029e+003;1.241911e-002
3.509957e+003;1.216528e-002
3.511886e+003;1.205510e-002
3.513814e+003;1.188882e-002
3.515743e+003;1.177700e-002
3.517672e+003;1.163662e-002
3.519600e+003;1.133984e-002
3.521529e+003;1.110996e-002
3.523457e+003;1.088108e-002
3.525386e+003;1.006747e-002
3.527314e+003;9.517473e-003
3.529243e+003;9.205557e-003
3.531171e+003;8.982752e-003
3.533100e+003;8.969493e-003
3.535029e+003;8.759893e-003
3.536957e+003;8.750968e-003
3.538885e+003;8.719121e-003
3.540814e+003;8.382713e-003
3.542743e+003;7.897231e-003
3.544671e+003;7.659179e-003
3.546600e+003;7.647106e-003
3.548528e+003;7.191516e-003
3.550457e+003;6.754374e-003
3.552385e+003;6.779581e-003
3.554314e+003;6.684919e-003
3.556242e+003;6.417769e-003
3.558171e+003;6.184088e-003
3.560100e+003;5.513732e-003
3.562028e+003;5.210479e-003
3.563957e+003;5.575046e-003
3.565885e+003;5.512927e-003
3.567814e+003;5.243444e-003
3.569742e+003;5.264305e-003
3.571671e+003;4.948658e-003
3.573599e+003;4.271103e-003
3.575528e+003;3.727293e-003
3.577457e+003;3.310549e-003
3.579385e+003;2.865421e-003
3.581314e+003;2.721791e-003
3.583242e+003;2.783813e-003
3.585171e+003;2.328896e-003
3.587099e+003;1.992973e-003
3.589028e+003;2.146284e-003
3.590956e+003;2.249154e-003
3.592885e+003;1.881178e-003
3.594813e+003;1.556507e-003
3.596742e+003;1.157455e-003
3.598671e+003;6.763946e-004
3.600599e+003;3.484779e-004
3.602528e+003;3.019229e-004
3.604456e+003;6.081038e-004
3.606385e+003;6.782530e-004
3.608313e+003;6.224712e-004
3.610242e+003;8.274821e-004
3.612170e+003;5.046926e-004
3.614099e+003;4.029286e-005
3.616028e+003;-1.047241e-004
3.617956e+003;-3.390939e-004
3.619885e+003;-6.772616e-004
3.621813e+003;-7.657149e-004
3.623742e+003;-8.018651e-004
3.625670e+003;-8.519015e-004
3.627599e+003;-1.216038e-003
3.629527e+003;-9.680247e-004
3.631456e+003;-5.231033e-004
3.633385e+003;-9.251765e-004
3.635313e+003;-1.381412e-003
3.637241e+003;-1.471340e-003
3.639170e+003;-1.581652e-003
3.641099e+003;-1.794340e-003
3.643027e+003;-1.959329e-003
3.644956e+003;-2.142521e-003
3.646884e+003;-2.265782e-003
3.648813e+003;-2.303620e-003
3.650741e+003;-2.357768e-003
3.652670e+003;-2.341686e-003
3.654598e+003;-2.520962e-003
3.656527e+003;-2.504523e-003
3.658456e+003;-2.201304e-003
3.660384e+003;-2.325570e-003
3.662313e+003;-2.630745e-003
3.664241e+003;-2.641777e-003
3.666170e+003;-2.671218e-003
3.668098e+003;-2.849568e-003
3.670027e+003;-3.177959e-003
3.671955e+003;-3.247752e-003
3.673884e+003;-3.159605e-003
3.675813e+003;-2.906512e-003
3.677741e+003;-2.886204e-003
3.679669e+003;-3.136579e-003
3.681598e+003;-3.389505e-003
3.683527e+003;-3.422873e-003
3.685455e+003;-3.501435e-003
3.687384e+003;-3.717619e-003
3.689312e+003;-3.637848e-003
3.691241e+003;-3.360112e-003
3.693169e+003;-3.038440e-003
3.695098e+003;-3.195885e-003
3.697026e+003;-3.562828e-003
3.698955e+003;-3.827297e-003
3.700884e+003;-3.556058e-003
3.702812e+003;-3.623062e-003
3.704741e+003;-3.735063e-003
3.706669e+003;-3.639327e-003
3.708598e+003;-3.699354e-003
3.710526e+003;-3.921350e-003
3.712455e+003;-3.962164e-003
3.714383e+003;-3.983866e-003
3.716312e+003;-4.140936e-003
3.718240e+003;-4.258513e-003
3.720169e+003;-4.379502e-003
3.722098e+003;-4.482913e-003
3.724026e+003;-4.698216e-003
3.725955e+003;-4.578398e-003
3.727883e+003;-4.148485e-003
3.729812e+003;-3.949687e-003
3.731740e+003;-3.999691e-003
3.733669e+003;-4.063311e-003
3.735597e+003;-4.029040e-003
3.737526e+003;-3.703263e-003
3.739455e+003;-3.463504e-003
3.741383e+003;-3.415904e-003
3.743312e+003;-3.705858e-003
3.745240e+003;-3.849006e-003
3.747169e+003;-3.845591e-003
3.749097e+003;-3.849367e-003
3.751026e+003;-3.832552e-003
3.752954e+003;-3.803715e-003
3.754883e+003;-3.789854e-003
3.756812e+003;-4.082021e-003
3.758740e+003;-4.386161e-003
3.760668e+003;-4.161678e-003
3.762597e+003;-4.010689e-003
3.764526e+003;-4.186323e-003
3.766454e+003;-4.291224e-003
3.768383e+003;-4.554791e-003
3.770311e+003;-4.506590e-003
3.772240e+003;-4.038068e-003
3.774168e+003;-3.886214e-003
3.776097e+003;-3.757861e-003
3.778025e+003;-3.850615e-003
3.779954e+003;-4.253558e-003
3.781883e+003;-4.035901e-003
3.783811e+003;-3.674516e-003
3.785740e+003;-3.779409e-003
3.787668e+003;-4.019125e-003
3.789597e+003;-4.163614e-003
3.791525e+003;-4.366676e-003
3.793454e+003;-4.234101e-003
3.795382e+003;-4.019618e-003
3.797311e+003;-4.048671e-003
3.799240e+003;-4.234692e-003
3.801168e+003;-4.319536e-003
3.803097e+003;-4.177004e-003
3.805025e+003;-4.163089e-003
3.806954e+003;-4.195709e-003
3.808882e+003;-3.766171e-003
3.810811e+003;-3.319308e-003
3.812739e+003;-3.315231e-003
3.814668e+003;-3.870090e-003
3.816596e+003;-4.248112e-003
3.818525e+003;-4.114089e-003
3.820454e+003;-4.026742e-003
3.822382e+003;-4.018009e-003
3.824311e+003;-4.131353e-003
3.826239e+003;-3.764989e-003
3.828168e+003;-3.238740e-003
3.830096e+003;-3.171677e-003
3.832025e+003;-3.280111e-003
3.833953e+003;-3.601802e-003
3.835882e+003;-3.772445e-003
3.837811e+003;-3.856593e-003
3.839739e+003;-3.900794e-003
3.841667e+003;-3.688972e-003
3.843596e+003;-3.512971e-003
3.845525e+003;-3.168980e-003
3.847453e+003;-2.952193e-003
3.849382e+003;-3.012939e-003
3.851310e+003;-3.249199e-003
3.853239e+003;-3.640477e-003
3.855167e+003;-3.996867e-003
3.857096e+003;-3.905457e-003
3.859024e+003;-3.608177e-003
3.860953e+003;-3.495519e-003
3.862882e+003;-3.619053e-003
3.864810e+003;-3.435464e-003
3.866739e+003;-3.060057e-003
3.868667e+003;-2.966640e-003
3.870596e+003;-3.311581e-003
3.872524e+003;-4.018075e-003
3.874453e+003;-3.963740e-003
3.876381e+003;-3.306681e-003
3.878310e+003;-3.214699e-003
3.880239e+003;-3.105129e-003
3.882167e+003;-2.865829e-003
3.884096e+003;-2.740335e-003
3.886024e+003;-2.931755e-003
3.887953e+003;-3.366326e-003
3.889881e+003;-3.803255e-003
3.891810e+003;-3.443090e-003
3.893738e+003;-3.180426e-003
3.895667e+003;-3.231505e-003
3.897595e+003;-3.287839e-003
3.899524e+003;-3.101083e-003
3.901453e+003;-2.901476e-003
3.903381e+003;-2.615957e-003
3.905310e+003;-2.762394e-003
3.907238e+003;-2.806477e-003
3.909167e+003;-2.939786e-003
3.911095e+003;-3.027286e-003
3.913024e+003;-2.942649e-003
3.914952e+003;-3.008004e-003
3.916881e+003;-3.501994e-003
3.918810e+003;-3.562368e-003
3.920738e+003;-3.343180e-003
3.922667e+003;-2.873137e-003
3.924595e+003;-2.698287e-003
3.926524e+003;-2.797720e-003
3.928452e+003;-2.877876e-003
3.930381e+003;-2.869022e-003
3.932309e+003;-2.810790e-003
3.934238e+003;-2.486206e-003
3.936167e+003;-2.036177e-003
3.938095e+003;-2.107010e-003
3.940023e+003;-2.135399e-003
3.941952e+003;-2.155973e-003
3.943881e+003;-2.101503e-003
3.945809e+003;-1.853137e-003
3.947738e+003;-1.565607e-003
3.949666e+003;-1.496832e-003
3.951595e+003;-1.820737e-003
3.953523e+003;-1.870425e-003
3.955452e+003;-1.590632e-003
3.957380e+003;-1.758899e-003
3.959309e+003;-1.977635e-003
3.961238e+003;-1.856140e-003
3.963166e+003;-1.563429e-003
3.965095e+003;-1.555241e-003
3.967023e+003;-2.076376e-003
3.968952e+003;-2.453524e-003
3.970880e+003;-2.389568e-003
3.972809e+003;-1.626218e-003
3.974737e+003;-1.398917e-003
3.976666e+003;-1.781141e-003
3.978594e+003;-1.534341e-003
3.980523e+003;-1.692432e-003
3.982452e+003;-2.314925e-003
3.984380e+003;-2.136487e-003
3.986309e+003;-1.514960e-003
3.988237e+003;-1.582775e-003
3.990166e+003;-1.711871e-003
3.992094e+003;-1.210091e-003
3.994023e+003;-1.037677e-003
3.995951e+003;-1.394920e-003
3.997880e+003;-1.532030e-003
3.999809e+003;-1.360141e-003
4.001737e+003;0.000000e+000
