3.992094e+002;0.000000e+000
4.011380e+002;0.000000e+000
4.030665e+002;0.000000e+000
4.049951e+002;0.000000e+000
4.069236e+002;0.000000e+000
4.088522e+002;0.000000e+000
4.107807e+002;0.000000e+000
4.127093e+002;0.000000e+000
4.146378e+002;0.000000e+000
4.165664e+002;0.000000e+000
4.184949e+002;0.000000e+000
4.204235e+002;0.000000e+000
4.223520e+002;0.000000e+000
4.242806e+002;0.000000e+000
4.262091e+002;0.000000e+000
4.281377e+002;0.000000e+000
4.300662e+002;0.000000e+000
4.319948e+002;0.000000e+000
4.339233e+002;0.000000e+000
4.358519e+002;0.000000e+000
4.377804e+002;0.000000e+000
4.397090e+002;0.000000e+000
4.416375e+002;0.000000e+000
4.435660e+002;0.000000e+000
4.454946e+002;0.000000e+000
4.474232e+002;0.000000e+000
4.493517e+002;0.000000e+000
4.512802e+002;0.000000e+000
4.532088e+002;0.000000e+000
4.551373e+002;0.000000e+000
4.570659e+002;0.000000e+000
4.589944e+002;0.000000e+000
4.609230e+002;0.000000e+000
4.628515e+002;0.000000e+000
4.647801e+002;0.000000e+000
4.667086e+002;0.000000e+000
4.686372e+002;0.000000e+000
4.705657e+002;0.000000e+000
4.724943e+002;0.000000e+000
4.744228e+002;0.000000e+000
4.763513e+002;0.000000e+000
4.782799e+002;0.000000e+000
4.802085e+002;0.000000e+000
4.821370e+002;0.000000e+000
4.840656e+002;0.000000e+000
4.859941e+002;0.000000e+000
4.879226e+002;0.000000e+000
4.898512e+002;0.000000e+000
4.917798e+002;0.000000e+000
4.937083e+002;0.000000e+000
4.956368e+002;0.000000e+000
4.975654e+002;0.000000e+000
4.994939e+002;0.000000e+000
5.014225e+002;0.000000e+000
5.033510e+002;0.000000e+000
5.052796e+002;0.000000e+000
5.072081e+002;0.000000e+000
5.091367e+002;0.000000e+000
5.110652e+002;0.000000e+000
5.129938e+002;0.000000e+000
5.149223e+002;0.000000e+000
5.168509e+002;0.000000e+000
5.187794e+002;0.000000e+000
5.207079e+002;0.000000e+000
5.226365e+002;0.000000e+000
5.245651e+002;0.000000e+000
5.264936e+002;0.000000e+000
5.284222e+002;0.000000e+000
5.303507e+002;0.000000e+000
5.322792e+002;0.000000e+000
5.342078e+002;0.000000e+000
5.361364e+002;0.000000e+000
5.380649e+002;0.000000e+000
5.399935e+002;0.000000e+000
5.419220e+002;0.000000e+000
5.438505e+002;0.000000e+000
5.457791e+002;0.000000e+000
5.477076e+002;0.000000e+000
5.496362e+002;0.000000e+000
5.515648e+002;0.000000e+000
5.534933e+002;0.000000e+000
5.554218e+002;0.000000e+000
5.573504e+002;0.000000e+000
5.592789e+002;0.000000e+000
5.612075e+002;0.000000e+000
5.631360e+002;0.000000e+000
5.650646e+002;0.000000e+000
5.669931e+002;0.000000e+000
5.689217e+002;0.000000e+000
5.708502e+002;0.000000e+000
5.727787e+002;0.000000e+000
5.747073e+002;0.000000e+000
5.766359e+002;0.000000e+000
5.785644e+002;0.000000e+000
5.804930e+002;0.000000e+000
5.824215e+002;0.000000e+000
5.843500e+002;0.000000e+000
5.862786e+002;0.000000e+000
5.882072e+002;0.000000e+000
5.901357e+002;0.000000e+000
5.920643e+002;0.000000e+000
5.939928e+002;0.000000e+000
5.959213e+002;0.000000e+000
5.978499e+002;0.000000e+000
5.997784e+002;1.383474e-001
6.017070e+002;1.303546e-001
6.036355e+002;1.346043e-001
6.055641e+002;1.417806e-001
6.074926e+002;1.361651e-001
6.094211e+002;1.300447e-001
6.113497e+002;1.343675e-001
6.132783e+002;1.362806e-001
6.152068e+002;1.340166e-001
6.171354e+002;1.325975e-001
6.190639e+002;1.302494e-001
6.209924e+002;1.312829e-001
6.229210e+002;1.336370e-001
6.248495e+002;1.348694e-001
6.267781e+002;1.349303e-001
6.287067e+002;1.352373e-001
6.306352e+002;1.324185e-001
6.325637e+002;1.313983e-001
6.344923e+002;1.355402e-001
6.364208e+002;1.388682e-001
6.383494e+002;1.382336e-001
6.402780e+002;1.372347e-001
6.422065e+002;1.386324e-001
6.441350e+002;1.417159e-001
6.460636e+002;1.454254e-001
6.479921e+002;1.491558e-001
6.499207e+002;1.519962e-001
6.518492e+002;1.517589e-001
6.537778e+002;1.517324e-001
6.557063e+002;1.563319e-001
6.576349e+002;1.581921e-001
6.595634e+002;1.584753e-001
6.614919e+002;1.623808e-001
6.634205e+002;1.663339e-001
6.653491e+002;1.693299e-001
6.672776e+002;1.708190e-001
6.692062e+002;1.700146e-001
6.711347e+002;1.699531e-001
6.730632e+002;1.724494e-001
6.749918e+002;1.731039e-001
6.769203e+002;1.742012e-001
6.788489e+002;1.762203e-001
6.807775e+002;1.767791e-001
6.827060e+002;1.773053e-001
6.846345e+002;1.769816e-001
6.865631e+002;1.752280e-001
6.884916e+002;1.732836e-001
6.904202e+002;1.718373e-001
6.923488e+002;1.697891e-001
6.942773e+002;1.673623e-001
6.962058e+002;1.651559e-001
6.981344e+002;1.628377e-001
7.000629e+002;1.603409e-001
7.019915e+002;1.584436e-001
7.039200e+002;1.564183e-001
7.058486e+002;1.541439e-001
7.077771e+002;1.539310e-001
7.097057e+002;1.531653e-001
7.116342e+002;1.512745e-001
7.135627e+002;1.494771e-001
7.154913e+002;1.478308e-001
7.174199e+002;1.464271e-001
7.193484e+002;1.454552e-001
7.212770e+002;1.451158e-001
7.232055e+002;1.457478e-001
7.251340e+002;1.473467e-001
7.270626e+002;1.481175e-001
7.289911e+002;1.463448e-001
7.309197e+002;1.408092e-001
7.328483e+002;1.343121e-001
7.347768e+002;1.282988e-001
7.367053e+002;1.221896e-001
7.386339e+002;1.162939e-001
7.405624e+002;1.123604e-001
7.424910e+002;1.108132e-001
7.444196e+002;1.093528e-001
7.463481e+002;1.063969e-001
7.482766e+002;1.039541e-001
7.502052e+002;1.032890e-001
7.521337e+002;1.020311e-001
7.540623e+002;1.001046e-001
7.559908e+002;9.736124e-002
7.579194e+002;9.472577e-002
7.598479e+002;9.378666e-002
7.617765e+002;9.349912e-002
7.637050e+002;9.251019e-002
7.656335e+002;9.141842e-002
7.675621e+002;9.067905e-002
7.694907e+002;8.998305e-002
7.714192e+002;8.949345e-002
7.733478e+002;8.889679e-002
7.752763e+002;8.737328e-002
7.772048e+002;8.564850e-002
7.791334e+002;8.483174e-002
7.810620e+002;8.445306e-002
7.829905e+002;8.347104e-002
7.849191e+002;8.111185e-002
7.868476e+002;7.997777e-002
7.887761e+002;7.891683e-002
7.907047e+002;7.706306e-002
7.926332e+002;7.665005e-002
7.945618e+002;7.572202e-002
7.964903e+002;7.412262e-002
7.984189e+002;7.293732e-002
8.003474e+002;7.253585e-002
8.022759e+002;7.144443e-002
8.042045e+002;7.006021e-002
8.061331e+002;6.899156e-002
8.080616e+002;6.831110e-002
8.099902e+002;6.815807e-002
8.119187e+002;6.781153e-002
8.138472e+002;6.686387e-002
8.157758e+002;6.665561e-002
8.177043e+002;6.668628e-002
8.196329e+002;6.629707e-002
8.215615e+002;6.515978e-002
8.234900e+002;6.518119e-002
8.254185e+002;6.644662e-002
8.273471e+002;6.765012e-002
8.292756e+002;6.878344e-002
8.312042e+002;6.947472e-002
8.331328e+002;6.995381e-002
8.350613e+002;6.874738e-002
8.369898e+002;6.577048e-002
8.389184e+002;6.372700e-002
8.408469e+002;6.261035e-002
8.427755e+002;6.150618e-002
8.447040e+002;6.047492e-002
8.466326e+002;5.939694e-002
8.485611e+002;5.820258e-002
8.504897e+002;5.717417e-002
8.524182e+002;5.737015e-002
8.543467e+002;5.808659e-002
8.562753e+002;5.770194e-002
8.582039e+002;5.721518e-002
8.601324e+002;5.733594e-002
8.620610e+002;5.757731e-002
8.639895e+002;5.749537e-002
8.659180e+002;5.728474e-002
8.678466e+002;5.716318e-002
8.697751e+002;5.709073e-002
8.717037e+002;5.706167e-002
8.736323e+002;5.713634e-002
8.755608e+002;5.734607e-002
8.774893e+002;5.776102e-002
8.794179e+002;5.837329e-002
8.813464e+002;5.848663e-002
8.832750e+002;5.849046e-002
8.852036e+002;5.867311e-002
8.871321e+002;5.878861e-002
8.890606e+002;5.908117e-002
8.909892e+002;5.941768e-002
8.929177e+002;5.948551e-002
8.948463e+002;5.942308e-002
8.967748e+002;5.951385e-002
8.987034e+002;5.952271e-002
9.006319e+002;5.968983e-002
9.025605e+002;5.988037e-002
9.044890e+002;6.063407e-002
9.064175e+002;6.153623e-002
9.083461e+002;6.177437e-002
9.102747e+002;6.201654e-002
9.122032e+002;6.265011e-002
9.141318e+002;6.327534e-002
9.160603e+002;6.381407e-002
9.179888e+002;6.434824e-002
9.199174e+002;6.524161e-002
9.218459e+002;6.628568e-002
9.237745e+002;6.758474e-002
9.257031e+002;6.913852e-002
9.276316e+002;7.033634e-002
9.295601e+002;7.032551e-002
9.314887e+002;6.928649e-002
9.334172e+002;6.770712e-002
9.353458e+002;6.625828e-002
9.372744e+002;6.566852e-002
9.392029e+002;6.517534e-002
9.411314e+002;6.515328e-002
9.430600e+002;6.597489e-002
9.449885e+002;6.701197e-002
9.469171e+002;6.830295e-002
9.488456e+002;7.000325e-002
9.507742e+002;7.095959e-002
9.527027e+002;7.120366e-002
9.546313e+002;7.193615e-002
9.565598e+002;7.287395e-002
9.584883e+002;7.362320e-002
9.604169e+002;7.366814e-002
9.623455e+002;7.285573e-002
9.642740e+002;7.200736e-002
9.662026e+002;7.156647e-002
9.681311e+002;7.142068e-002
9.700596e+002;7.155994e-002
9.719882e+002;7.167783e-002
9.739167e+002;7.118371e-002
9.758453e+002;7.036209e-002
9.777739e+002;6.974588e-002
9.797024e+002;6.921288e-002
9.816309e+002;6.841647e-002
9.835595e+002;6.751018e-002
9.854880e+002;6.678175e-002
9.874166e+002;6.610253e-002
9.893452e+002;6.542912e-002
9.912737e+002;6.467237e-002
9.932022e+002;6.389034e-002
9.951307e+002;6.343164e-002
9.970593e+002;6.341362e-002
9.989879e+002;6.328949e-002
1.000916e+003;6.292142e-002
1.002845e+003;6.297650e-002
1.004773e+003;6.294743e-002
1.006702e+003;6.235086e-002
1.008631e+003;6.215618e-002
1.010559e+003;6.243077e-002
1.012488e+003;6.218275e-002
1.014416e+003;6.207513e-002
1.016345e+003;6.236849e-002
1.018273e+003;6.279884e-002
1.020202e+003;6.358125e-002
1.022130e+003;6.452027e-002
1.024059e+003;6.555592e-002
1.025988e+003;6.676371e-002
1.027916e+003;6.741292e-002
1.029845e+003;6.715690e-002
1.031773e+003;6.638590e-002
1.033702e+003;6.583282e-002
1.035630e+003;6.547023e-002
1.037559e+003;6.484126e-002
1.039487e+003;6.433898e-002
1.041416e+003;6.372166e-002
1.043344e+003;6.296366e-002
1.045273e+003;6.272686e-002
1.047202e+003;6.312472e-002
1.049130e+003;6.391682e-002
1.051059e+003;6.456272e-002
1.052987e+003;6.530090e-002
1.054916e+003;6.658021e-002
1.056844e+003;6.812567e-002
1.058773e+003;6.947681e-002
1.060701e+003;7.076717e-002
1.062630e+003;7.197595e-002
1.064558e+003;7.325514e-002
1.066487e+003;7.426643e-002
1.068416e+003;7.493288e-002
1.070344e+003;7.517435e-002
1.072273e+003;7.515375e-002
1.074201e+003;7.526461e-002
1.076130e+003;7.525165e-002
1.078058e+003;7.454432e-002
1.079987e+003;7.393739e-002
1.081915e+003;7.357888e-002
1.083844e+003;7.330146e-002
1.085773e+003;7.275178e-002
1.087701e+003;7.205848e-002
1.089630e+003;7.168393e-002
1.091558e+003;7.206274e-002
1.093487e+003;7.243700e-002
1.095415e+003;7.267461e-002
1.097344e+003;7.336196e-002
1.099272e+003;7.447127e-002
1.101201e+003;7.562660e-002
1.103129e+003;7.740082e-002
1.105058e+003;7.950266e-002
1.106987e+003;8.122505e-002
1.108915e+003;8.190635e-002
1.110844e+003;8.254331e-002
1.112772e+003;8.323731e-002
1.114701e+003;8.355714e-002
1.116629e+003;8.398098e-002
1.118558e+003;8.447407e-002
1.120486e+003;8.440558e-002
1.122415e+003;8.313265e-002
1.124344e+003;8.070806e-002
1.126272e+003;7.773908e-002
1.128201e+003;7.443025e-002
1.130129e+003;7.214571e-002
1.132058e+003;7.108770e-002
1.133986e+003;7.063850e-002
1.135915e+003;7.020752e-002
1.137843e+003;7.048472e-002
1.139772e+003;7.106940e-002
1.141700e+003;7.219736e-002
1.143629e+003;7.390789e-002
1.145557e+003;7.578778e-002
1.147486e+003;7.780518e-002
1.149415e+003;8.007849e-002
1.151343e+003;8.270446e-002
1.153272e+003;8.559402e-002
1.155200e+003;8.837637e-002
1.157129e+003;9.172066e-002
1.159057e+003;9.592704e-002
1.160986e+003;1.012917e-001
1.162914e+003;1.076728e-001
1.164843e+003;1.131192e-001
1.166771e+003;1.171396e-001
1.168700e+003;1.194019e-001
1.170629e+003;1.186135e-001
1.172557e+003;1.150843e-001
1.174486e+003;1.105286e-001
1.176414e+003;1.057901e-001
1.178343e+003;1.017888e-001
1.180271e+003;9.922087e-002
1.182200e+003;9.820396e-002
1.184128e+003;9.861375e-002
1.186057e+003;1.003118e-001
1.187986e+003;1.030741e-001
1.189914e+003;1.065638e-001
1.191843e+003;1.103972e-001
1.193771e+003;1.148204e-001
1.195700e+003;1.196395e-001
1.197628e+003;1.231306e-001
1.199557e+003;1.241446e-001
1.201485e+003;1.221187e-001
1.203414e+003;1.184179e-001
1.205343e+003;1.155340e-001
1.207271e+003;1.140178e-001
1.209200e+003;1.129976e-001
1.211128e+003;1.123708e-001
1.213057e+003;1.116531e-001
1.214985e+003;1.099313e-001
1.216914e+003;1.073114e-001
1.218842e+003;1.046057e-001
1.220771e+003;1.031645e-001
1.222699e+003;1.034174e-001
1.224628e+003;1.051549e-001
1.226557e+003;1.083650e-001
1.228485e+003;1.124374e-001
1.230414e+003;1.167615e-001
1.232342e+003;1.211211e-001
1.234271e+003;1.244226e-001
1.236199e+003;1.262127e-001
1.238128e+003;1.272157e-001
1.240056e+003;1.275177e-001
1.241985e+003;1.271903e-001
1.243913e+003;1.269144e-001
1.245842e+003;1.269571e-001
1.247771e+003;1.276236e-001
1.249699e+003;1.296742e-001
1.251628e+003;1.325921e-001
1.253556e+003;1.356955e-001
1.255485e+003;1.387931e-001
1.257413e+003;1.411730e-001
1.259342e+003;1.426497e-001
1.261270e+003;1.430724e-001
1.263199e+003;1.413329e-001
1.265127e+003;1.368994e-001
1.267056e+003;1.310081e-001
1.268985e+003;1.252517e-001
1.270913e+003;1.210854e-001
1.272842e+003;1.186209e-001
1.274770e+003;1.174143e-001
1.276699e+003;1.173711e-001
1.278627e+003;1.174077e-001
1.280556e+003;1.164205e-001
1.282484e+003;1.147319e-001
1.284413e+003;1.130099e-001
1.286342e+003;1.114484e-001
1.288270e+003;1.103179e-001
1.290199e+003;1.098718e-001
1.292127e+003;1.095299e-001
1.294056e+003;1.088697e-001
1.295984e+003;1.082813e-001
1.297913e+003;1.079032e-001
1.299841e+003;1.077468e-001
1.301770e+003;1.074337e-001
1.303698e+003;1.066231e-001
1.305627e+003;1.060052e-001
1.307556e+003;1.053423e-001
1.309484e+003;1.043348e-001
1.311413e+003;1.032413e-001
1.313341e+003;1.021823e-001
1.315270e+003;1.013172e-001
1.317198e+003;1.003566e-001
1.319127e+003;9.946723e-002
1.321055e+003;9.873614e-002
1.322984e+003;9.818647e-002
1.324912e+003;9.765990e-002
1.326841e+003;9.752421e-002
1.328770e+003;9.803069e-002
1.330698e+003;9.872703e-002
1.332627e+003;9.880556e-002
1.334555e+003;9.905148e-002
1.336484e+003;9.958474e-002
1.338412e+003;9.993260e-002
1.340341e+003;1.003942e-001
1.342269e+003;1.014204e-001
1.344198e+003;1.023008e-001
1.346126e+003;1.031335e-001
1.348055e+003;1.041475e-001
1.349984e+003;1.053383e-001
1.351912e+003;1.066864e-001
1.353841e+003;1.083091e-001
1.355769e+003;1.099260e-001
1.357698e+003;1.117458e-001
1.359626e+003;1.136130e-001
1.361555e+003;1.153313e-001
1.363483e+003;1.171479e-001
1.365412e+003;1.189795e-001
1.367341e+003;1.204822e-001
1.369269e+003;1.216865e-001
1.371198e+003;1.221235e-001
1.373126e+003;1.216388e-001
1.375055e+003;1.201598e-001
1.376983e+003;1.176761e-001
1.378912e+003;1.146168e-001
1.380840e+003;1.115268e-001
1.382769e+003;1.086930e-001
1.384698e+003;1.056226e-001
1.386626e+003;1.022556e-001
1.388555e+003;1.000036e-001
1.390483e+003;9.851824e-002
1.392412e+003;9.713969e-002
1.394340e+003;9.584341e-002
1.396269e+003;9.554001e-002
1.398197e+003;9.620611e-002
1.400126e+003;9.775783e-002
1.402054e+003;9.981329e-002
1.403983e+003;1.024837e-001
1.405911e+003;1.065084e-001
1.407840e+003;1.115823e-001
1.409769e+003;1.176789e-001
1.411697e+003;1.242705e-001
1.413626e+003;1.299618e-001
1.415554e+003;1.336795e-001
1.417483e+003;1.346093e-001
1.419411e+003;1.331295e-001
1.421340e+003;1.308075e-001
1.423268e+003;1.280616e-001
1.425197e+003;1.261721e-001
1.427125e+003;1.259876e-001
1.429054e+003;1.272229e-001
1.430983e+003;1.296089e-001
1.432911e+003;1.319536e-001
1.434840e+003;1.327564e-001
1.436768e+003;1.320788e-001
1.438697e+003;1.320224e-001
1.440625e+003;1.315730e-001
1.442554e+003;1.306030e-001
1.444482e+003;1.301591e-001
1.446411e+003;1.302232e-001
1.448340e+003;1.310328e-001
1.450268e+003;1.328533e-001
1.452197e+003;1.349024e-001
1.454125e+003;1.365155e-001
1.456054e+003;1.382125e-001
1.457982e+003;1.428515e-001
1.459911e+003;1.493215e-001
1.461839e+003;1.534436e-001
1.463768e+003;1.526315e-001
1.465697e+003;1.476298e-001
1.467625e+003;1.412535e-001
1.469554e+003;1.358789e-001
1.471482e+003;1.329896e-001
1.473411e+003;1.330544e-001
1.475339e+003;1.339838e-001
1.477268e+003;1.330295e-001
1.479196e+003;1.301038e-001
1.481125e+003;1.252392e-001
1.483053e+003;1.193545e-001
1.484982e+003;1.144009e-001
1.486911e+003;1.118331e-001
1.488839e+003;1.114754e-001
1.490768e+003;1.130136e-001
1.492696e+003;1.157663e-001
1.494625e+003;1.184025e-001
1.496553e+003;1.216440e-001
1.498482e+003;1.264628e-001
1.500410e+003;1.318655e-001
1.502339e+003;1.370613e-001
1.504267e+003;1.415168e-001
1.506196e+003;1.461551e-001
1.508125e+003;1.534594e-001
1.510053e+003;1.614564e-001
1.511982e+003;1.686807e-001
1.513910e+003;1.759886e-001
1.515839e+003;1.832669e-001
1.517767e+003;1.910550e-001
1.519696e+003;1.993703e-001
1.521624e+003;2.084823e-001
1.523553e+003;2.180551e-001
1.525481e+003;2.269536e-001
1.527410e+003;2.358957e-001
1.529339e+003;2.442764e-001
1.531267e+003;2.516792e-001
1.533196e+003;2.575770e-001
1.535124e+003;2.616141e-001
1.537053e+003;2.627706e-001
1.538981e+003;2.605556e-001
1.540910e+003;2.570644e-001
1.542838e+003;2.520449e-001
1.544767e+003;2.445457e-001
1.546695e+003;2.352406e-001
1.548624e+003;2.250139e-001
1.550553e+003;2.148058e-001
1.552481e+003;2.048926e-001
1.554410e+003;1.948872e-001
1.556338e+003;1.851526e-001
1.558267e+003;1.752936e-001
1.560195e+003;1.678246e-001
1.562124e+003;1.619626e-001
1.564052e+003;1.547824e-001
1.565981e+003;1.471120e-001
1.567910e+003;1.394334e-001
1.569838e+003;1.318539e-001
1.571767e+003;1.254991e-001
1.573695e+003;1.192862e-001
1.575624e+003;1.127899e-001
1.577552e+003;1.086442e-001
1.579481e+003;1.058334e-001
1.581409e+003;1.030393e-001
1.583338e+003;1.008612e-001
1.585266e+003;9.934460e-002
1.587195e+003;9.844093e-002
1.589124e+003;9.841683e-002
1.591052e+003;9.946553e-002
1.592981e+003;1.010213e-001
1.594909e+003;1.030865e-001
1.596838e+003;1.058908e-001
1.598766e+003;1.095216e-001
1.600695e+003;1.138379e-001
1.602623e+003;1.192475e-001
1.604552e+003;1.255807e-001
1.606480e+003;1.323535e-001
1.608409e+003;1.400150e-001
1.610338e+003;1.486307e-001
1.612266e+003;1.578873e-001
1.614195e+003;1.679327e-001
1.616123e+003;1.792365e-001
1.618052e+003;1.939049e-001
1.619980e+003;2.098711e-001
1.621909e+003;2.254950e-001
1.623837e+003;2.414814e-001
1.625766e+003;2.580559e-001
1.627694e+003;2.749636e-001
1.629623e+003;2.923998e-001
1.631552e+003;3.093570e-001
1.633480e+003;3.232631e-001
1.635409e+003;3.323400e-001
1.637337e+003;3.349876e-001
1.639266e+003;3.286660e-001
1.641194e+003;3.145950e-001
1.643123e+003;2.958910e-001
1.645051e+003;2.749749e-001
1.646980e+003;2.548559e-001
1.648909e+003;2.370058e-001
1.650837e+003;2.193267e-001
1.652766e+003;2.027243e-001
1.654694e+003;1.915165e-001
1.656623e+003;1.824774e-001
1.658551e+003;1.727236e-001
1.660480e+003;1.628918e-001
1.662408e+003;1.530590e-001
1.664337e+003;1.440933e-001
1.666266e+003;1.353521e-001
1.668194e+003;1.263540e-001
1.670123e+003;1.182549e-001
1.672051e+003;1.111833e-001
1.673980e+003;1.038241e-001
1.675908e+003;9.689709e-002
1.677837e+003;9.081005e-002
1.679765e+003;8.388881e-002
1.681694e+003;7.646237e-002
1.683622e+003;6.895102e-002
1.685551e+003;6.362414e-002
1.687479e+003;6.019897e-002
1.689408e+003;5.678682e-002
1.691337e+003;5.389146e-002
1.693265e+003;5.117498e-002
1.695194e+003;4.846045e-002
1.697122e+003;4.730111e-002
1.699051e+003;4.595910e-002
1.700979e+003;4.522480e-002
1.702908e+003;4.606788e-002
1.704836e+003;4.595837e-002
1.706765e+003;4.589266e-002
1.708693e+003;4.599907e-002
1.710622e+003;4.629986e-002
1.712551e+003;4.612002e-002
1.714479e+003;4.534932e-002
1.716408e+003;4.449273e-002
1.718336e+003;4.477603e-002
1.720265e+003;4.589830e-002
1.722193e+003;4.640700e-002
1.724122e+003;4.652644e-002
1.726050e+003;4.673608e-002
1.727979e+003;4.673911e-002
1.729908e+003;4.635461e-002
1.731836e+003;4.531681e-002
1.733765e+003;4.422025e-002
1.735693e+003;4.462949e-002
1.737622e+003;4.495341e-002
1.739550e+003;4.435366e-002
1.741479e+003;4.397009e-002
1.743407e+003;4.330617e-002
1.745336e+003;4.243025e-002
1.747265e+003;4.148846e-002
1.749193e+003;4.054729e-002
1.751122e+003;3.969411e-002
1.753050e+003;3.935381e-002
1.754979e+003;3.874370e-002
1.756907e+003;3.800504e-002
1.758836e+003;3.752992e-002
1.760764e+003;3.665604e-002
1.762693e+003;3.586779e-002
1.764621e+003;3.548617e-002
1.766550e+003;3.479258e-002
1.768479e+003;3.413188e-002
1.770407e+003;3.344230e-002
1.772336e+003;3.262314e-002
1.774264e+003;3.274689e-002
1.776193e+003;3.301901e-002
1.778121e+003;3.282847e-002
1.780050e+003;3.252525e-002
1.781978e+003;3.222534e-002
1.783907e+003;3.171490e-002
1.785835e+003;3.139754e-002
1.787764e+003;3.141795e-002
1.789693e+003;3.112393e-002
1.791621e+003;3.020387e-002
1.793550e+003;2.996587e-002
1.795478e+003;3.025694e-002
1.797407e+003;3.001923e-002
1.799335e+003;2.981864e-002
1.801264e+003;2.972312e-002
1.803192e+003;2.977364e-002
1.805121e+003;2.984966e-002
1.807049e+003;2.978440e-002
1.808978e+003;2.928681e-002
1.810907e+003;2.897752e-002
1.812835e+003;2.900943e-002
1.814764e+003;2.904060e-002
1.816692e+003;2.892283e-002
1.818621e+003;2.878810e-002
1.820549e+003;2.866402e-002
1.822478e+003;2.866621e-002
1.824406e+003;2.844190e-002
1.826335e+003;2.817122e-002
1.828264e+003;2.795228e-002
1.830192e+003;2.799642e-002
1.832121e+003;2.820576e-002
1.834049e+003;2.824985e-002
1.835978e+003;2.807616e-002
1.837906e+003;2.780541e-002
1.839835e+003;2.768155e-002
1.841763e+003;2.744320e-002
1.843692e+003;2.702671e-002
1.845620e+003;2.717638e-002
1.847549e+003;2.722774e-002
1.849478e+003;2.711120e-002
1.851406e+003;2.726249e-002
1.853335e+003;2.735882e-002
1.855263e+003;2.701193e-002
1.857192e+003;2.676201e-002
1.859120e+003;2.685699e-002
1.861049e+003;2.690993e-002
1.862977e+003;2.688202e-002
1.864906e+003;2.676606e-002
1.866834e+003;2.649458e-002
1.868763e+003;2.622989e-002
1.870692e+003;2.634905e-002
1.872620e+003;2.662442e-002
1.874549e+003;2.673892e-002
1.876477e+003;2.685495e-002
1.878406e+003;2.682953e-002
1.880334e+003;2.655928e-002
1.882263e+003;2.640528e-002
1.884191e+003;2.654224e-002
1.886120e+003;2.675982e-002
1.888048e+003;2.679066e-002
1.889977e+003;2.686605e-002
1.891906e+003;2.695203e-002
1.893834e+003;2.685325e-002
1.895763e+003;2.687070e-002
1.897691e+003;2.692799e-002
1.899620e+003;2.686538e-002
1.901548e+003;2.685918e-002
1.903477e+003;2.688776e-002
1.905405e+003;2.683771e-002
1.907334e+003;2.679394e-002
1.909262e+003;2.679605e-002
1.911191e+003;2.674756e-002
1.913120e+003;2.666824e-002
1.915048e+003;2.635560e-002
1.916977e+003;2.601781e-002
1.918905e+003;2.610507e-002
1.920834e+003;2.622261e-002
1.922762e+003;2.628396e-002
1.924691e+003;2.621127e-002
1.926619e+003;2.612994e-002
1.928548e+003;2.632743e-002
1.930477e+003;2.643697e-002
1.932405e+003;2.639243e-002
1.934334e+003;2.630029e-002
1.936262e+003;2.615123e-002
1.938191e+003;2.603421e-002
1.940119e+003;2.598664e-002
1.942048e+003;2.582732e-002
1.943976e+003;2.585788e-002
1.945905e+003;2.608244e-002
1.947833e+003;2.608146e-002
1.949762e+003;2.600483e-002
1.951691e+003;2.602706e-002
1.953619e+003;2.618748e-002
1.955548e+003;2.624485e-002
1.957476e+003;2.633176e-002
1.959405e+003;2.632191e-002
1.961333e+003;2.648666e-002
1.963262e+003;2.671507e-002
1.965190e+003;2.673960e-002
1.967119e+003;2.669816e-002
1.969047e+003;2.674308e-002
1.970976e+003;2.678259e-002
1.972905e+003;2.689499e-002
1.974833e+003;2.682287e-002
1.976762e+003;2.684719e-002
1.978690e+003;2.684035e-002
1.980619e+003;2.688455e-002
1.982547e+003;2.697886e-002
1.984476e+003;2.683306e-002
1.986404e+003;2.669065e-002
1.988333e+003;2.662241e-002
1.990261e+003;2.675764e-002
1.992190e+003;2.680786e-002
1.994119e+003;2.680317e-002
1.996047e+003;2.677776e-002
1.997976e+003;2.675263e-002
1.999904e+003;2.671711e-002
2.001833e+003;2.670950e-002
2.003761e+003;2.691339e-002
2.005690e+003;2.713374e-002
2.007618e+003;2.716432e-002
2.009547e+003;2.706550e-002
2.011476e+003;2.703252e-002
2.013404e+003;2.724136e-002
2.015333e+003;2.749908e-002
2.017261e+003;2.735063e-002
2.019190e+003;2.734199e-002
2.021118e+003;2.757523e-002
2.023047e+003;2.754183e-002
2.024975e+003;2.740413e-002
2.026904e+003;2.736440e-002
2.028833e+003;2.756195e-002
2.030761e+003;2.775218e-002
2.032690e+003;2.789829e-002
2.034618e+003;2.804583e-002
2.036547e+003;2.801756e-002
2.038475e+003;2.812575e-002
2.040404e+003;2.837367e-002
2.042332e+003;2.836267e-002
2.044261e+003;2.835216e-002
2.046189e+003;2.836518e-002
2.048118e+003;2.837618e-002
2.050047e+003;2.848174e-002
2.051975e+003;2.855753e-002
2.053904e+003;2.844427e-002
2.055832e+003;2.856967e-002
2.057761e+003;2.882095e-002
2.059689e+003;2.869088e-002
2.061618e+003;2.849886e-002
2.063546e+003;2.857356e-002
2.065475e+003;2.883122e-002
2.067404e+003;2.881893e-002
2.069332e+003;2.871906e-002
2.071260e+003;2.881617e-002
2.073189e+003;2.880767e-002
2.075118e+003;2.856446e-002
2.077046e+003;2.845499e-002
2.078975e+003;2.835966e-002
2.080903e+003;2.812989e-002
2.082832e+003;2.827630e-002
2.084760e+003;2.841396e-002
2.086689e+003;2.819069e-002
2.088617e+003;2.807570e-002
2.090546e+003;2.810507e-002
2.092475e+003;2.806679e-002
2.094403e+003;2.787572e-002
2.096332e+003;2.791949e-002
2.098260e+003;2.811723e-002
2.100189e+003;2.808641e-002
2.102117e+003;2.810998e-002
2.104046e+003;2.821018e-002
2.105974e+003;2.835779e-002
2.107903e+003;2.844477e-002
2.109832e+003;2.840119e-002
2.111760e+003;2.852356e-002
2.113688e+003;2.866643e-002
2.115617e+003;2.876406e-002
2.117546e+003;2.868724e-002
2.119474e+003;2.872108e-002
2.121403e+003;2.892967e-002
2.123331e+003;2.903168e-002
2.125260e+003;2.901407e-002
2.127188e+003;2.908786e-002
2.129117e+003;2.918701e-002
2.131045e+003;2.918392e-002
2.132974e+003;2.911050e-002
2.134903e+003;2.906002e-002
2.136831e+003;2.891784e-002
2.138760e+003;2.898070e-002
2.140688e+003;2.925541e-002
2.142617e+003;2.943099e-002
2.144545e+003;2.933835e-002
2.146474e+003;2.919891e-002
2.148402e+003;2.928692e-002
2.150331e+003;2.943748e-002
2.152260e+003;2.947159e-002
2.154188e+003;2.924924e-002
2.156117e+003;2.915373e-002
2.158045e+003;2.938795e-002
2.159974e+003;2.950968e-002
2.161902e+003;2.954965e-002
2.163831e+003;2.955639e-002
2.165759e+003;2.957057e-002
2.167688e+003;2.962878e-002
2.169616e+003;2.976239e-002
2.171545e+003;2.997816e-002
2.173474e+003;2.993428e-002
2.175402e+003;2.990524e-002
2.177331e+003;3.002204e-002
2.179259e+003;3.016281e-002
2.181188e+003;3.008240e-002
2.183116e+003;2.985303e-002
2.185045e+003;2.987671e-002
2.186973e+003;3.002737e-002
2.188902e+003;3.003955e-002
2.190831e+003;3.020255e-002
2.192759e+003;3.034938e-002
2.194688e+003;3.043719e-002
2.196616e+003;3.044323e-002
2.198545e+003;3.034938e-002
2.200473e+003;3.025793e-002
2.202402e+003;3.013795e-002
2.204330e+003;2.998867e-002
2.206259e+003;2.984132e-002
2.208188e+003;2.976463e-002
2.210116e+003;2.982932e-002
2.212044e+003;2.985122e-002
2.213973e+003;2.970101e-002
2.215902e+003;2.959803e-002
2.217830e+003;2.963495e-002
2.219759e+003;2.960686e-002
2.221687e+003;2.946528e-002
2.223616e+003;2.925969e-002
2.225544e+003;2.915001e-002
2.227473e+003;2.901868e-002
2.229401e+003;2.892474e-002
2.231330e+003;2.906112e-002
2.233259e+003;2.898573e-002
2.235187e+003;2.876214e-002
2.237116e+003;2.868653e-002
2.239044e+003;2.874593e-002
2.240973e+003;2.883260e-002
2.242901e+003;2.882881e-002
2.244830e+003;2.862774e-002
2.246758e+003;2.843416e-002
2.248687e+003;2.850442e-002
2.250615e+003;2.880782e-002
2.252544e+003;2.906973e-002
2.254473e+003;2.924226e-002
2.256401e+003;2.937898e-002
2.258330e+003;2.930099e-002
2.260258e+003;2.902760e-002
2.262187e+003;2.919321e-002
2.264115e+003;2.958288e-002
2.266044e+003;2.955578e-002
2.267972e+003;2.938479e-002
2.269901e+003;2.945475e-002
2.271830e+003;2.947648e-002
2.273758e+003;2.946432e-002
2.275687e+003;2.960980e-002
2.277615e+003;2.974391e-002
2.279544e+003;2.981190e-002
2.281472e+003;2.987756e-002
2.283401e+003;2.980924e-002
2.285329e+003;2.988686e-002
2.287258e+003;3.005293e-002
2.289187e+003;3.007140e-002
2.291115e+003;2.983390e-002
2.293043e+003;2.972996e-002
2.294972e+003;2.979142e-002
2.296901e+003;2.973922e-002
2.298829e+003;2.980359e-002
2.300758e+003;3.018422e-002
2.302686e+003;3.034601e-002
2.304615e+003;3.027360e-002
2.306543e+003;3.032419e-002
2.308472e+003;3.041207e-002
2.310400e+003;3.038087e-002
2.312329e+003;3.046633e-002
2.314258e+003;3.053614e-002
2.316186e+003;3.047618e-002
2.318115e+003;3.035564e-002
2.320043e+003;3.040880e-002
2.321972e+003;3.039149e-002
2.323900e+003;3.022177e-002
2.325829e+003;3.007299e-002
2.327757e+003;2.999374e-002
2.329686e+003;2.990815e-002
2.331615e+003;3.003830e-002
2.333543e+003;3.019083e-002
2.335472e+003;3.002151e-002
2.337400e+003;2.996783e-002
2.339329e+003;3.012083e-002
2.341257e+003;3.018593e-002
2.343186e+003;3.016195e-002
2.345114e+003;2.999172e-002
2.347043e+003;3.015673e-002
2.348971e+003;3.023715e-002
2.350900e+003;3.028454e-002
2.352829e+003;3.029723e-002
2.354757e+003;3.015766e-002
2.356686e+003;3.008141e-002
2.358614e+003;3.016572e-002
2.360543e+003;3.022156e-002
2.362471e+003;3.012441e-002
2.364400e+003;3.000081e-002
2.366328e+003;3.019438e-002
2.368257e+003;3.023115e-002
2.370186e+003;3.027310e-002
2.372114e+003;3.074184e-002
2.374042e+003;3.100065e-002
2.375971e+003;3.101033e-002
2.377900e+003;3.103132e-002
2.379828e+003;3.106627e-002
2.381757e+003;3.110827e-002
2.383685e+003;3.107261e-002
2.385614e+003;3.099356e-002
2.387542e+003;3.099296e-002
2.389471e+003;3.103719e-002
2.391399e+003;3.087864e-002
2.393328e+003;3.086484e-002
2.395257e+003;3.108432e-002
2.397185e+003;3.121115e-002
2.399114e+003;3.102983e-002
2.401042e+003;3.089742e-002
2.402971e+003;3.098581e-002
2.404899e+003;3.106780e-002
2.406828e+003;3.114241e-002
2.408756e+003;3.108649e-002
2.410685e+003;3.102901e-002
2.412614e+003;3.107403e-002
2.414542e+003;3.128478e-002
2.416471e+003;3.146636e-002
2.418399e+003;3.168368e-002
2.420328e+003;3.166476e-002
2.422256e+003;3.146928e-002
2.424185e+003;3.159498e-002
2.426113e+003;3.149557e-002
2.428042e+003;3.125053e-002
2.429970e+003;3.135102e-002
2.431899e+003;3.186432e-002
2.433828e+003;3.204481e-002
2.435756e+003;3.203122e-002
2.437685e+003;3.206418e-002
2.439613e+003;3.210692e-002
2.441542e+003;3.243698e-002
2.443470e+003;3.261818e-002
2.445399e+003;3.273653e-002
2.447327e+003;3.291377e-002
2.449256e+003;3.309589e-002
2.451185e+003;3.318794e-002
2.453113e+003;3.325014e-002
2.455042e+003;3.314867e-002
2.456970e+003;3.301605e-002
2.458899e+003;3.320532e-002
2.460827e+003;3.348031e-002
2.462756e+003;3.345511e-002
2.464684e+003;3.348593e-002
2.466613e+003;3.373993e-002
2.468542e+003;3.396796e-002
2.470470e+003;3.416138e-002
2.472398e+003;3.425176e-002
2.474327e+003;3.433308e-002
2.476256e+003;3.452612e-002
2.478184e+003;3.451539e-002
2.480113e+003;3.442076e-002
2.482041e+003;3.447220e-002
2.483970e+003;3.445322e-002
2.485898e+003;3.446424e-002
2.487827e+003;3.440939e-002
2.489755e+003;3.441696e-002
2.491684e+003;3.465924e-002
2.493613e+003;3.481168e-002
2.495541e+003;3.470776e-002
2.497470e+003;3.456444e-002
2.499398e+003;3.449799e-002
2.501327e+003;3.442679e-002
2.503255e+003;3.429170e-002
2.505184e+003;3.424892e-002
2.507112e+003;3.449164e-002
2.509041e+003;3.497505e-002
2.510969e+003;3.527053e-002
2.512898e+003;3.531186e-002
2.514827e+003;3.527297e-002
2.516755e+003;3.522187e-002
2.518684e+003;3.543997e-002
2.520612e+003;3.549879e-002
2.522541e+003;3.550663e-002
2.524469e+003;3.560793e-002
2.526398e+003;3.598073e-002
2.528326e+003;3.654058e-002
2.530255e+003;3.699535e-002
2.532184e+003;3.708303e-002
2.534112e+003;3.698871e-002
2.536041e+003;3.712406e-002
2.537969e+003;3.748288e-002
2.539898e+003;3.763946e-002
2.541826e+003;3.760679e-002
2.543755e+003;3.752887e-002
2.545683e+003;3.762129e-002
2.547612e+003;3.771231e-002
2.549541e+003;3.764318e-002
2.551469e+003;3.746359e-002
2.553397e+003;3.737822e-002
2.555326e+003;3.749470e-002
2.557255e+003;3.772283e-002
2.559183e+003;3.796649e-002
2.561112e+003;3.807484e-002
2.563040e+003;3.810826e-002
2.564969e+003;3.791286e-002
2.566897e+003;3.787147e-002
2.568826e+003;3.815066e-002
2.570754e+003;3.838522e-002
2.572683e+003;3.861570e-002
2.574612e+003;3.874359e-002
2.576540e+003;3.882054e-002
2.578469e+003;3.901925e-002
2.580397e+003;3.909817e-002
2.582326e+003;3.903650e-002
2.584254e+003;3.909824e-002
2.586183e+003;3.930673e-002
2.588111e+003;3.933012e-002
2.590040e+003;3.950533e-002
2.591969e+003;3.974672e-002
2.593897e+003;3.987063e-002
2.595826e+003;4.015612e-002
2.597754e+003;4.026346e-002
2.599683e+003;4.000071e-002
2.601611e+003;4.016513e-002
2.603540e+003;4.046635e-002
2.605468e+003;4.032050e-002
2.607397e+003;3.993775e-002
2.609325e+003;4.012737e-002
2.611254e+003;4.052728e-002
2.613183e+003;4.061946e-002
2.615111e+003;4.045101e-002
2.617040e+003;4.029672e-002
2.618968e+003;4.050138e-002
2.620897e+003;4.092227e-002
2.622825e+003;4.107820e-002
2.624754e+003;4.104433e-002
2.626682e+003;4.107539e-002
2.628611e+003;4.138220e-002
2.630540e+003;4.162890e-002
2.632468e+003;4.170983e-002
2.634396e+003;4.190257e-002
2.636325e+003;4.169692e-002
2.638254e+003;4.167599e-002
2.640182e+003;4.194647e-002
2.642111e+003;4.181679e-002
2.644039e+003;4.160907e-002
2.645968e+003;4.176561e-002
2.647896e+003;4.213917e-002
2.649825e+003;4.235773e-002
2.651753e+003;4.262323e-002
2.653682e+003;4.266300e-002
2.655611e+003;4.239780e-002
2.657539e+003;4.235503e-002
2.659468e+003;4.252367e-002
2.661396e+003;4.285887e-002
2.663325e+003;4.316020e-002
2.665253e+003;4.318714e-002
2.667182e+003;4.326129e-002
2.669110e+003;4.352818e-002
2.671039e+003;4.372909e-002
2.672968e+003;4.365522e-002
2.674896e+003;4.367824e-002
2.676825e+003;4.386089e-002
2.678753e+003;4.394362e-002
2.680682e+003;4.381023e-002
2.682610e+003;4.385377e-002
2.684539e+003;4.395330e-002
2.686467e+003;4.412345e-002
2.688396e+003;4.428743e-002
2.690324e+003;4.465931e-002
2.692253e+003;4.528780e-002
2.694182e+003;4.549496e-002
2.696110e+003;4.527625e-002
2.698039e+003;4.535775e-002
2.699967e+003;4.585937e-002
2.701896e+003;4.626216e-002
2.703824e+003;4.643517e-002
2.705753e+003;4.665856e-002
2.707681e+003;4.689341e-002
2.709610e+003;4.680804e-002
2.711539e+003;4.679431e-002
2.713467e+003;4.713861e-002
2.715396e+003;4.751191e-002
2.717324e+003;4.793247e-002
2.719253e+003;4.845475e-002
2.721181e+003;4.876385e-002
2.723110e+003;4.892473e-002
2.725038e+003;4.894821e-002
2.726967e+003;4.919231e-002
2.728896e+003;4.985668e-002
2.730824e+003;5.056179e-002
2.732752e+003;5.109268e-002
2.734681e+003;5.114121e-002
2.736610e+003;5.099493e-002
2.738538e+003;5.107803e-002
2.740467e+003;5.115694e-002
2.742395e+003;5.124783e-002
2.744324e+003;5.148785e-002
2.746252e+003;5.164374e-002
2.748181e+003;5.179819e-002
2.750109e+003;5.193510e-002
2.752038e+003;5.202817e-002
2.753967e+003;5.230436e-002
2.755895e+003;5.241149e-002
2.757824e+003;5.250290e-002
2.759752e+003;5.262728e-002
2.761681e+003;5.250552e-002
2.763609e+003;5.243310e-002
2.765538e+003;5.284543e-002
2.767466e+003;5.311637e-002
2.769395e+003;5.314008e-002
2.771323e+003;5.333275e-002
2.773252e+003;5.366244e-002
2.775181e+003;5.392147e-002
2.777109e+003;5.419733e-002
2.779038e+003;5.455168e-002
2.780966e+003;5.483538e-002
2.782895e+003;5.484042e-002
2.784823e+003;5.515594e-002
2.786752e+003;5.560495e-002
2.788680e+003;5.587385e-002
2.790609e+003;5.644996e-002
2.792538e+003;5.688932e-002
2.794466e+003;5.718188e-002
2.796395e+003;5.753592e-002
2.798323e+003;5.779228e-002
2.800252e+003;5.771674e-002
2.802180e+003;5.792023e-002
2.804109e+003;5.854361e-002
2.806037e+003;5.907293e-002
2.807966e+003;5.961027e-002
2.809895e+003;6.015258e-002
2.811823e+003;6.072997e-002
2.813751e+003;6.152202e-002
2.815680e+003;6.203511e-002
2.817609e+003;6.252325e-002
2.819537e+003;6.330972e-002
2.821466e+003;6.391394e-002
2.823394e+003;6.441765e-002
2.825323e+003;6.486130e-002
2.827251e+003;6.520887e-002
2.829180e+003;6.580302e-002
2.831108e+003;6.686360e-002
2.833037e+003;6.810888e-002
2.834966e+003;6.926481e-002
2.836894e+003;7.096564e-002
2.838823e+003;7.342296e-002
2.840751e+003;7.635388e-002
2.842680e+003;7.987251e-002
2.844608e+003;8.404326e-002
2.846537e+003;8.865087e-002
2.848465e+003;9.326508e-002
2.850394e+003;9.753471e-002
2.852323e+003;1.010537e-001
2.854251e+003;1.042150e-001
2.856180e+003;1.071576e-001
2.858108e+003;1.090976e-001
2.860037e+003;1.096952e-001
2.861965e+003;1.093380e-001
2.863894e+003;1.085445e-001
2.865822e+003;1.076943e-001
2.867751e+003;1.063402e-001
2.869679e+003;1.041571e-001
2.871608e+003;1.016303e-001
2.873536e+003;9.909497e-002
2.875465e+003;9.607026e-002
2.877394e+003;9.305484e-002
2.879322e+003;9.113881e-002
2.881251e+003;8.984607e-002
2.883179e+003;8.885715e-002
2.885108e+003;8.839911e-002
2.887036e+003;8.861921e-002
2.888965e+003;8.924034e-002
2.890893e+003;9.060638e-002
2.892822e+003;9.272930e-002
2.894750e+003;9.463751e-002
2.896679e+003;9.623961e-002
2.898608e+003;9.782328e-002
2.900536e+003;9.907841e-002
2.902465e+003;1.002988e-001
2.904393e+003;1.019459e-001
2.906322e+003;1.035233e-001
2.908250e+003;1.048052e-001
2.910179e+003;1.065237e-001
2.912107e+003;1.090694e-001
2.914036e+003;1.119991e-001
2.915965e+003;1.152524e-001
2.917893e+003;1.187811e-001
2.919822e+003;1.218889e-001
2.921750e+003;1.249326e-001
2.923679e+003;1.279795e-001
2.925607e+003;1.307917e-001
2.927536e+003;1.332453e-001
2.929464e+003;1.352986e-001
2.931393e+003;1.365646e-001
2.933322e+003;1.369551e-001
2.935250e+003;1.365494e-001
2.937178e+003;1.351548e-001
2.939107e+003;1.331155e-001
2.941036e+003;1.301477e-001
2.942964e+003;1.261981e-001
2.944893e+003;1.220702e-001
2.946821e+003;1.175455e-001
2.948750e+003;1.121839e-001
2.950678e+003;1.064881e-001
2.952607e+003;1.004084e-001
2.954535e+003;9.476855e-002
2.956464e+003;9.030613e-002
2.958393e+003;8.608846e-002
2.960321e+003;8.208239e-002
2.962250e+003;7.882258e-002
2.964178e+003;7.596124e-002
2.966107e+003;7.325251e-002
2.968035e+003;7.078636e-002
2.969964e+003;6.873740e-002
2.971892e+003;6.688479e-002
2.973821e+003;6.501105e-002
2.975750e+003;6.282978e-002
2.977678e+003;6.122641e-002
2.979607e+003;5.983743e-002
2.981535e+003;5.851836e-002
2.983464e+003;5.762838e-002
2.985392e+003;5.672218e-002
2.987321e+003;5.607701e-002
2.989249e+003;5.569930e-002
2.991178e+003;5.517517e-002
2.993106e+003;5.471231e-002
2.995035e+003;5.435708e-002
2.996964e+003;5.425668e-002
2.998892e+003;5.395767e-002
3.000821e+003;5.339621e-002
3.002749e+003;5.316045e-002
3.004678e+003;5.335489e-002
3.006606e+003;5.363957e-002
3.008535e+003;5.392293e-002
3.010463e+003;5.392136e-002
3.012392e+003;5.382724e-002
3.014321e+003;5.411190e-002
3.016249e+003;5.417477e-002
3.018177e+003;5.414271e-002
3.020106e+003;5.468668e-002
3.022035e+003;5.522359e-002
3.023963e+003;5.572978e-002
3.025892e+003;5.611668e-002
3.027820e+003;5.612486e-002
3.029749e+003;5.637673e-002
3.031677e+003;5.720868e-002
3.033606e+003;5.793973e-002
3.035534e+003;5.814579e-002
3.037463e+003;5.851571e-002
3.039392e+003;5.905987e-002
3.041320e+003;5.943288e-002
3.043249e+003;6.022912e-002
3.045177e+003;6.120566e-002
3.047106e+003;6.225969e-002
3.049034e+003;6.311936e-002
3.050963e+003;6.340101e-002
3.052891e+003;6.371599e-002
3.054820e+003;6.435663e-002
3.056749e+003;6.501036e-002
3.058677e+003;6.534927e-002
3.060606e+003;6.557603e-002
3.062534e+003;6.615300e-002
3.064463e+003;6.675158e-002
3.066391e+003;6.705995e-002
3.068320e+003;6.727611e-002
3.070248e+003;6.734892e-002
3.072177e+003;6.723081e-002
3.074105e+003;6.716668e-002
3.076034e+003;6.717151e-002
3.077963e+003;6.736033e-002
3.079891e+003;6.737960e-002
3.081820e+003;6.730957e-002
3.083748e+003;6.728148e-002
3.085677e+003;6.704278e-002
3.087605e+003;6.672823e-002
3.089534e+003;6.616613e-002
3.091462e+003;6.553885e-002
3.093391e+003;6.477363e-002
3.095320e+003;6.427836e-002
3.097248e+003;6.405124e-002
3.099177e+003;6.342455e-002
3.101105e+003;6.270956e-002
3.103034e+003;6.232367e-002
3.104962e+003;6.195558e-002
3.106891e+003;6.111525e-002
3.108819e+003;6.025778e-002
3.110748e+003;5.986744e-002
3.112677e+003;5.960689e-002
3.114605e+003;5.935021e-002
3.116533e+003;5.893701e-002
3.118462e+003;5.847760e-002
3.120391e+003;5.860071e-002
3.122319e+003;5.850016e-002
3.124248e+003;5.797491e-002
3.126176e+003;5.783445e-002
3.128105e+003;5.807242e-002
3.130033e+003;5.786151e-002
3.131962e+003;5.712723e-002
3.133890e+003;5.719799e-002
3.135819e+003;5.765725e-002
3.137748e+003;5.784274e-002
3.139676e+003;5.789430e-002
3.141605e+003;5.783854e-002
3.143533e+003;5.761616e-002
3.145462e+003;5.778403e-002
3.147390e+003;5.825028e-002
3.149319e+003;5.847059e-002
3.151247e+003;5.824516e-002
3.153176e+003;5.831682e-002
3.155104e+003;5.896809e-002
3.157033e+003;5.952111e-002
3.158962e+003;5.991913e-002
3.160890e+003;6.044007e-002
3.162819e+003;6.071709e-002
3.164747e+003;6.085509e-002
3.166676e+003;6.101057e-002
3.168604e+003;6.136289e-002
3.170533e+003;6.217350e-002
3.172461e+003;6.288052e-002
3.174390e+003;6.350692e-002
3.176319e+003;6.385668e-002
3.178247e+003;6.430767e-002
3.180176e+003;6.513876e-002
3.182104e+003;6.570233e-002
3.184033e+003;6.620838e-002
3.185961e+003;6.684586e-002
3.187890e+003;6.729329e-002
3.189818e+003;6.742770e-002
3.191747e+003;6.770712e-002
3.193676e+003;6.808218e-002
3.195604e+003;6.822002e-002
3.197532e+003;6.845751e-002
3.199461e+003;6.913902e-002
3.201390e+003;6.960659e-002
3.203318e+003;6.970492e-002
3.205247e+003;7.022661e-002
3.207175e+003;7.044474e-002
3.209104e+003;7.053582e-002
3.211032e+003;7.109519e-002
3.212961e+003;7.143842e-002
3.214889e+003;7.171667e-002
3.216818e+003;7.236716e-002
3.218747e+003;7.267253e-002
3.220675e+003;7.325588e-002
3.222604e+003;7.385317e-002
3.224532e+003;7.448775e-002
3.226461e+003;7.524479e-002
3.228389e+003;7.609047e-002
3.230318e+003;7.711300e-002
3.232246e+003;7.804263e-002
3.234175e+003;7.902377e-002
3.236104e+003;8.045142e-002
3.238032e+003;8.162308e-002
3.239961e+003;8.279101e-002
3.241889e+003;8.467617e-002
3.243818e+003;8.613924e-002
3.245746e+003;8.730137e-002
3.247675e+003;8.898146e-002
3.249603e+003;9.055956e-002
3.251532e+003;9.210050e-002
3.253460e+003;9.375468e-002
3.255389e+003;9.534332e-002
3.257318e+003;9.726589e-002
3.259246e+003;9.934214e-002
3.261175e+003;1.012447e-001
3.263103e+003;1.031419e-001
3.265032e+003;1.048478e-001
3.266960e+003;1.065489e-001
3.268889e+003;1.088434e-001
3.270817e+003;1.109970e-001
3.272746e+003;1.124296e-001
3.274675e+003;1.143926e-001
3.276603e+003;1.169520e-001
3.278531e+003;1.189378e-001
3.280460e+003;1.206760e-001
3.282389e+003;1.226730e-001
3.284317e+003;1.248387e-001
3.286246e+003;1.266188e-001
3.288174e+003;1.280832e-001
3.290103e+003;1.294199e-001
3.292031e+003;1.302723e-001
3.293960e+003;1.307680e-001
3.295888e+003;1.307711e-001
3.297817e+003;1.301089e-001
3.299746e+003;1.286478e-001
3.301674e+003;1.267493e-001
3.303603e+003;1.244046e-001
3.305531e+003;1.217236e-001
3.307460e+003;1.194680e-001
3.309388e+003;1.170970e-001
3.311317e+003;1.140410e-001
3.313245e+003;1.111380e-001
3.315174e+003;1.085037e-001
3.317103e+003;1.055856e-001
3.319031e+003;1.028193e-001
3.320960e+003;1.001651e-001
3.322888e+003;9.778231e-002
3.324817e+003;9.550513e-002
3.326745e+003;9.290162e-002
3.328674e+003;9.036817e-002
3.330602e+003;8.802895e-002
3.332531e+003;8.604151e-002
3.334459e+003;8.416041e-002
3.336388e+003;8.203892e-002
3.338317e+003;8.013052e-002
3.340245e+003;7.855632e-002
3.342174e+003;7.689556e-002
3.344102e+003;7.502821e-002
3.346031e+003;7.324024e-002
3.347959e+003;7.207076e-002
3.349888e+003;7.069663e-002
3.351816e+003;6.893304e-002
3.353745e+003;6.753089e-002
3.355674e+003;6.671610e-002
3.357602e+003;6.596236e-002
3.359531e+003;6.484495e-002
3.361459e+003;6.370562e-002
3.363388e+003;6.310775e-002
3.365316e+003;6.221766e-002
3.367245e+003;6.097484e-002
3.369173e+003;5.994632e-002
3.371102e+003;5.941989e-002
3.373031e+003;5.852462e-002
3.374959e+003;5.760190e-002
3.376887e+003;5.732652e-002
3.378816e+003;5.705105e-002
3.380745e+003;5.647970e-002
3.382673e+003;5.605104e-002
3.384602e+003;5.566778e-002
3.386530e+003;5.506412e-002
3.388459e+003;5.455074e-002
3.390387e+003;5.437199e-002
3.392316e+003;5.388032e-002
3.394244e+003;5.308264e-002
3.396173e+003;5.265526e-002
3.398102e+003;5.259059e-002
3.400030e+003;5.265051e-002
3.401959e+003;5.255271e-002
3.403887e+003;5.233826e-002
3.405816e+003;5.206086e-002
3.407744e+003;5.201966e-002
3.409673e+003;5.186524e-002
3.411601e+003;5.139595e-002
3.413530e+003;5.108459e-002
3.415458e+003;5.091206e-002
3.417387e+003;5.066126e-002
3.419316e+003;5.033670e-002
3.421244e+003;5.030140e-002
3.423173e+003;5.021945e-002
3.425101e+003;5.022101e-002
3.427030e+003;5.054656e-002
3.428958e+003;5.063650e-002
3.430887e+003;4.992243e-002
3.432815e+003;4.953673e-002
3.434744e+003;4.949901e-002
3.436673e+003;4.939330e-002
3.438601e+003;4.920842e-002
3.440530e+003;4.914289e-002
3.442458e+003;4.926809e-002
3.444387e+003;4.918196e-002
3.446315e+003;4.891335e-002
3.448244e+003;4.854915e-002
3.450172e+003;4.867129e-002
3.452101e+003;4.882402e-002
3.454030e+003;4.836826e-002
3.455958e+003;4.840963e-002
3.457886e+003;4.834622e-002
3.459815e+003;4.807617e-002
3.461744e+003;4.761050e-002
3.463672e+003;4.706852e-002
3.465601e+003;4.698699e-002
3.467529e+003;4.737435e-002
3.469458e+003;4.749028e-002
3.471386e+003;4.739770e-002
3.473315e+003;4.703451e-002
3.475243e+003;4.664126e-002
3.477172e+003;4.660231e-002
3.479101e+003;4.679461e-002
3.481029e+003;4.690865e-002
3.482958e+003;4.693417e-002
3.484886e+003;4.678302e-002
3.486815e+003;4.656277e-002
3.488743e+003;4.635708e-002
3.490672e+003;4.626964e-002
3.492600e+003;4.639763e-002
3.494529e+003;4.648458e-002
3.496458e+003;4.615160e-002
3.498386e+003;4.570257e-002
3.500315e+003;4.573275e-002
3.502243e+003;4.604659e-002
3.504172e+003;4.601749e-002
3.506100e+003;4.570131e-002
3.508029e+003;4.537272e-002
3.509957e+003;4.472439e-002
3.511886e+003;4.460397e-002
3.513814e+003;4.488007e-002
3.515743e+003;4.474448e-002
3.517672e+003;4.459002e-002
3.519600e+003;4.434442e-002
3.521529e+003;4.403815e-002
3.523457e+003;4.403107e-002
3.525386e+003;4.389769e-002
3.527314e+003;4.370242e-002
3.529243e+003;4.374243e-002
3.531171e+003;4.370370e-002
3.533100e+003;4.322491e-002
3.535029e+003;4.279315e-002
3.536957e+003;4.269319e-002
3.538885e+003;4.236518e-002
3.540814e+003;4.174178e-002
3.542743e+003;4.120861e-002
3.544671e+003;4.099040e-002
3.546600e+003;4.089089e-002
3.548528e+003;4.060785e-002
3.550457e+003;4.026008e-002
3.552385e+003;3.973866e-002
3.554314e+003;3.964202e-002
3.556242e+003;3.976705e-002
3.558171e+003;3.943236e-002
3.560100e+003;3.902128e-002
3.562028e+003;3.881312e-002
3.563957e+003;3.856290e-002
3.565885e+003;3.782971e-002
3.567814e+003;3.734908e-002
3.569742e+003;3.734337e-002
3.571671e+003;3.737323e-002
3.573599e+003;3.722015e-002
3.575528e+003;3.703078e-002
3.577457e+003;3.658635e-002
3.579385e+003;3.634959e-002
3.581314e+003;3.622510e-002
3.583242e+003;3.605662e-002
3.585171e+003;3.535470e-002
3.587099e+003;3.443145e-002
3.589028e+003;3.452361e-002
3.590956e+003;3.467133e-002
3.592885e+003;3.412471e-002
3.594813e+003;3.368704e-002
3.596742e+003;3.350014e-002
3.598671e+003;3.339582e-002
3.600599e+003;3.308080e-002
3.602528e+003;3.297000e-002
3.604456e+003;3.279484e-002
3.606385e+003;3.211773e-002
3.608313e+003;3.133952e-002
3.610242e+003;3.146240e-002
3.612170e+003;3.162922e-002
3.614099e+003;3.148745e-002
3.616028e+003;3.027953e-002
3.617956e+003;2.937015e-002
3.619885e+003;2.963414e-002
3.621813e+003;3.035318e-002
3.623742e+003;3.036687e-002
3.625670e+003;2.990350e-002
3.627599e+003;2.854964e-002
3.629527e+003;2.792048e-002
3.631456e+003;2.873750e-002
3.633385e+003;2.913690e-002
3.635313e+003;2.911114e-002
3.637241e+003;2.867934e-002
3.639170e+003;2.808528e-002
3.641099e+003;2.796016e-002
3.643027e+003;2.781513e-002
3.644956e+003;2.692432e-002
3.646884e+003;2.593191e-002
3.648813e+003;2.542284e-002
3.650741e+003;2.588851e-002
3.652670e+003;2.633930e-002
3.654598e+003;2.612382e-002
3.656527e+003;2.617383e-002
3.658456e+003;2.638957e-002
3.660384e+003;2.606742e-002
3.662313e+003;2.607410e-002
3.664241e+003;2.638736e-002
3.666170e+003;2.594858e-002
3.668098e+003;2.508932e-002
3.670027e+003;2.466343e-002
3.671955e+003;2.492405e-002
3.673884e+003;2.418646e-002
3.675813e+003;2.359637e-002
3.677741e+003;2.463618e-002
3.679669e+003;2.492970e-002
3.681598e+003;2.445208e-002
3.683527e+003;2.406250e-002
3.685455e+003;2.373471e-002
3.687384e+003;2.280316e-002
3.689312e+003;2.246460e-002
3.691241e+003;2.289292e-002
3.693169e+003;2.317536e-002
3.695098e+003;2.288883e-002
3.697026e+003;2.252857e-002
3.698955e+003;2.236587e-002
3.700884e+003;2.232188e-002
3.702812e+003;2.248878e-002
3.704741e+003;2.253757e-002
3.706669e+003;2.215647e-002
3.708598e+003;2.177598e-002
3.710526e+003;2.148462e-002
3.712455e+003;2.157229e-002
3.714383e+003;2.199516e-002
3.716312e+003;2.194522e-002
3.718240e+003;2.175364e-002
3.720169e+003;2.162289e-002
3.722098e+003;2.138844e-002
3.724026e+003;2.139091e-002
3.725955e+003;2.136703e-002
3.727883e+003;2.145378e-002
3.729812e+003;2.136132e-002
3.731740e+003;2.117767e-002
3.733669e+003;2.122526e-002
3.735597e+003;2.101032e-002
3.737526e+003;2.133867e-002
3.739455e+003;2.208667e-002
3.741383e+003;2.197780e-002
3.743312e+003;2.020259e-002
3.745240e+003;2.009590e-002
3.747169e+003;2.078190e-002
3.749097e+003;2.012204e-002
3.751026e+003;2.026508e-002
3.752954e+003;2.107021e-002
3.754883e+003;2.189078e-002
3.756812e+003;2.188601e-002
3.758740e+003;2.155251e-002
3.760668e+003;2.147254e-002
3.762597e+003;2.204598e-002
3.764526e+003;2.215486e-002
3.766454e+003;2.184768e-002
3.768383e+003;2.175096e-002
3.770311e+003;2.198035e-002
3.772240e+003;2.231016e-002
3.774168e+003;2.276831e-002
3.776097e+003;2.264612e-002
3.778025e+003;2.205194e-002
3.779954e+003;2.218565e-002
3.781883e+003;2.246349e-002
3.783811e+003;2.239116e-002
3.785740e+003;2.230161e-002
3.787668e+003;2.208388e-002
3.789597e+003;2.215915e-002
3.791525e+003;2.204170e-002
3.793454e+003;2.170216e-002
3.795382e+003;2.148654e-002
3.797311e+003;2.156832e-002
3.799240e+003;2.127794e-002
3.801168e+003;2.111397e-002
3.803097e+003;2.177678e-002
3.805025e+003;2.171132e-002
3.806954e+003;2.166897e-002
3.808882e+003;2.237469e-002
3.810811e+003;2.230015e-002
3.812739e+003;2.201161e-002
3.814668e+003;2.170394e-002
3.816596e+003;2.194664e-002
3.818525e+003;2.215661e-002
3.820454e+003;2.159660e-002
3.822382e+003;2.228225e-002
3.824311e+003;2.303733e-002
3.826239e+003;2.264797e-002
3.828168e+003;2.253624e-002
3.830096e+003;2.266385e-002
3.832025e+003;2.259023e-002
3.833953e+003;2.210898e-002
3.835882e+003;2.156289e-002
3.837811e+003;2.188751e-002
3.839739e+003;2.290427e-002
3.841667e+003;2.320409e-002
3.843596e+003;2.314688e-002
3.845525e+003;2.319273e-002
3.847453e+003;2.308621e-002
3.849382e+003;2.269035e-002
3.851310e+003;2.173027e-002
3.853239e+003;2.089311e-002
3.855167e+003;2.212659e-002
3.857096e+003;2.333606e-002
3.859024e+003;2.357538e-002
3.860953e+003;2.385725e-002
3.862882e+003;2.363478e-002
3.864810e+003;2.303387e-002
3.866739e+003;2.274956e-002
3.868667e+003;2.235097e-002
3.870596e+003;2.268609e-002
3.872524e+003;2.348086e-002
3.874453e+003;2.350671e-002
3.876381e+003;2.316942e-002
3.878310e+003;2.274995e-002
3.880239e+003;2.277261e-002
3.882167e+003;2.324341e-002
3.884096e+003;2.318966e-002
3.886024e+003;2.293626e-002
3.887953e+003;2.322779e-002
3.889881e+003;2.338641e-002
3.891810e+003;2.370665e-002
3.893738e+003;2.417441e-002
3.895667e+003;2.424532e-002
3.897595e+003;2.391596e-002
3.899524e+003;2.372583e-002
3.901453e+003;2.374693e-002
3.903381e+003;2.360028e-002
3.905310e+003;2.417879e-002
3.907238e+003;2.511874e-002
3.909167e+003;2.559333e-002
3.911095e+003;2.556040e-002
3.913024e+003;2.504485e-002
3.914952e+003;2.443778e-002
3.916881e+003;2.445986e-002
3.918810e+003;2.444717e-002
3.920738e+003;2.391921e-002
3.922667e+003;2.418839e-002
3.924595e+003;2.484962e-002
3.926524e+003;2.490640e-002
3.928452e+003;2.493352e-002
3.930381e+003;2.501115e-002
3.932309e+003;2.538026e-002
3.934238e+003;2.590701e-002
3.936167e+003;2.580344e-002
3.938095e+003;2.562341e-002
3.940023e+003;2.588520e-002
3.941952e+003;2.570419e-002
3.943881e+003;2.552554e-002
3.945809e+003;2.597704e-002
3.947738e+003;2.593754e-002
3.949666e+003;2.569210e-002
3.951595e+003;2.583710e-002
3.953523e+003;2.626023e-002
3.955452e+003;2.638186e-002
3.957380e+003;2.662170e-002
3.959309e+003;2.715391e-002
3.961238e+003;2.679334e-002
3.963166e+003;2.622785e-002
3.965095e+003;2.644567e-002
3.967023e+003;2.642338e-002
3.968952e+003;2.645567e-002
3.970880e+003;2.673526e-002
3.972809e+003;2.688071e-002
3.974737e+003;2.715028e-002
3.976666e+003;2.743854e-002
3.978594e+003;2.744380e-002
3.980523e+003;2.727844e-002
3.982452e+003;2.726659e-002
3.984380e+003;2.752905e-002
3.986309e+003;2.775681e-002
3.988237e+003;2.744860e-002
3.990166e+003;2.754437e-002
3.992094e+003;2.809270e-002
3.994023e+003;2.841820e-002
3.995951e+003;2.845078e-002
3.997880e+003;2.826619e-002
3.999809e+003;2.811956e-002
4.001737e+003;0.000000e+000
