3.992094e+002;0.000000e+000
4.011380e+002;0.000000e+000
4.030665e+002;0.000000e+000
4.049951e+002;0.000000e+000
4.069236e+002;0.000000e+000
4.088522e+002;0.000000e+000
4.107807e+002;0.000000e+000
4.127093e+002;0.000000e+000
4.146378e+002;0.000000e+000
4.165664e+002;0.000000e+000
4.184949e+002;0.000000e+000
4.204235e+002;0.000000e+000
4.223520e+002;0.000000e+000
4.242806e+002;0.000000e+000
4.262091e+002;0.000000e+000
4.281377e+002;0.000000e+000
4.300662e+002;0.000000e+000
4.319948e+002;0.000000e+000
4.339233e+002;0.000000e+000
4.358519e+002;0.000000e+000
4.377804e+002;0.000000e+000
4.397090e+002;0.000000e+000
4.416375e+002;0.000000e+000
4.435660e+002;0.000000e+000
4.454946e+002;0.000000e+000
4.474232e+002;0.000000e+000
4.493517e+002;0.000000e+000
4.512802e+002;0.000000e+000
4.532088e+002;0.000000e+000
4.551373e+002;0.000000e+000
4.570659e+002;0.000000e+000
4.589944e+002;0.000000e+000
4.609230e+002;0.000000e+000
4.628515e+002;0.000000e+000
4.647801e+002;0.000000e+000
4.667086e+002;0.000000e+000
4.686372e+002;0.000000e+000
4.705657e+002;0.000000e+000
4.724943e+002;0.000000e+000
4.744228e+002;0.000000e+000
4.763513e+002;0.000000e+000
4.782799e+002;0.000000e+000
4.802085e+002;0.000000e+000
4.821370e+002;0.000000e+000
4.840656e+002;0.000000e+000
4.859941e+002;0.000000e+000
4.879226e+002;0.000000e+000
4.898512e+002;0.000000e+000
4.917798e+002;0.000000e+000
4.937083e+002;0.000000e+000
4.956368e+002;0.000000e+000
4.975654e+002;0.000000e+000
4.994939e+002;0.000000e+000
5.014225e+002;0.000000e+000
5.033510e+002;0.000000e+000
5.052796e+002;0.000000e+000
5.072081e+002;0.000000e+000
5.091367e+002;0.000000e+000
5.110652e+002;0.000000e+000
5.129938e+002;0.000000e+000
5.149223e+002;0.000000e+000
5.168509e+002;0.000000e+000
5.187794e+002;0.000000e+000
5.207079e+002;0.000000e+000
5.226365e+002;0.000000e+000
5.245651e+002;0.000000e+000
5.264936e+002;0.000000e+000
5.284222e+002;0.000000e+000
5.303507e+002;0.000000e+000
5.322792e+002;0.000000e+000
5.342078e+002;0.000000e+000
5.361364e+002;0.000000e+000
5.380649e+002;0.000000e+000
5.399935e+002;0.000000e+000
5.419220e+002;0.000000e+000
5.438505e+002;0.000000e+000
5.457791e+002;0.000000e+000
5.477076e+002;0.000000e+000
5.496362e+002;0.000000e+000
5.515648e+002;0.000000e+000
5.534933e+002;0.000000e+000
5.554218e+002;0.000000e+000
5.573504e+002;0.000000e+000
5.592789e+002;0.000000e+000
5.612075e+002;0.000000e+000
5.631360e+002;0.000000e+000
5.650646e+002;0.000000e+000
5.669931e+002;0.000000e+000
5.689217e+002;0.000000e+000
5.708502e+002;0.000000e+000
5.727787e+002;0.000000e+000
5.747073e+002;0.000000e+000
5.766359e+002;0.000000e+000
5.785644e+002;0.000000e+000
5.804930e+002;0.000000e+000
5.824215e+002;0.000000e+000
5.843500e+002;0.000000e+000
5.862786e+002;0.000000e+000
5.882072e+002;0.000000e+000
5.901357e+002;0.000000e+000
5.920643e+002;0.000000e+000
5.939928e+002;0.000000e+000
5.959213e+002;0.000000e+000
5.978499e+002;0.000000e+000
5.997784e+002;1.706485e-001
6.017070e+002;1.617407e-001
6.036355e+002;1.624232e-001
6.055641e+002;1.590223e-001
6.074926e+002;1.559164e-001
6.094211e+002;1.555350e-001
6.113497e+002;1.540725e-001
6.132783e+002;1.568577e-001
6.152068e+002;1.619683e-001
6.171354e+002;1.626248e-001
6.190639e+002;1.619650e-001
6.209924e+002;1.628234e-001
6.229210e+002;1.622364e-001
6.248495e+002;1.620290e-001
6.267781e+002;1.640128e-001
6.287067e+002;1.623940e-001
6.306352e+002;1.578214e-001
6.325637e+002;1.594187e-001
6.344923e+002;1.640012e-001
6.364208e+002;1.658888e-001
6.383494e+002;1.682742e-001
6.402780e+002;1.702936e-001
6.422065e+002;1.694808e-001
6.441350e+002;1.696744e-001
6.460636e+002;1.721056e-001
6.479921e+002;1.720191e-001
6.499207e+002;1.737207e-001
6.518492e+002;1.779908e-001
6.537778e+002;1.828338e-001
6.557063e+002;1.877007e-001
6.576349e+002;1.896211e-001
6.595634e+002;1.907160e-001
6.614919e+002;1.907962e-001
6.634205e+002;1.938404e-001
6.653491e+002;1.972052e-001
6.672776e+002;2.005535e-001
6.692062e+002;2.030007e-001
6.711347e+002;2.031663e-001
6.730632e+002;2.033431e-001
6.749918e+002;2.041643e-001
6.769203e+002;2.061677e-001
6.788489e+002;2.082988e-001
6.807775e+002;2.087463e-001
6.827060e+002;2.087903e-001
6.846345e+002;2.086839e-001
6.865631e+002;2.081537e-001
6.884916e+002;2.061479e-001
6.904202e+002;2.035382e-001
6.923488e+002;2.006781e-001
6.942773e+002;1.985068e-001
6.962058e+002;1.954975e-001
6.981344e+002;1.926788e-001
7.000629e+002;1.905849e-001
7.019915e+002;1.875167e-001
7.039200e+002;1.853424e-001
7.058486e+002;1.848105e-001
7.077771e+002;1.839915e-001
7.097057e+002;1.814744e-001
7.116342e+002;1.789692e-001
7.135627e+002;1.777513e-001
7.154913e+002;1.767863e-001
7.174199e+002;1.745145e-001
7.193484e+002;1.726131e-001
7.212770e+002;1.729608e-001
7.232055e+002;1.735309e-001
7.251340e+002;1.739960e-001
7.270626e+002;1.744215e-001
7.289911e+002;1.717694e-001
7.309197e+002;1.665116e-001
7.328483e+002;1.598892e-001
7.347768e+002;1.536917e-001
7.367053e+002;1.480149e-001
7.386339e+002;1.419901e-001
7.405624e+002;1.368469e-001
7.424910e+002;1.338320e-001
7.444196e+002;1.309882e-001
7.463481e+002;1.283738e-001
7.482766e+002;1.268120e-001
7.502052e+002;1.251159e-001
7.521337e+002;1.222371e-001
7.540623e+002;1.191142e-001
7.559908e+002;1.172656e-001
7.579194e+002;1.165051e-001
7.598479e+002;1.152633e-001
7.617765e+002;1.135612e-001
7.637050e+002;1.120401e-001
7.656335e+002;1.104238e-001
7.675621e+002;1.091053e-001
7.694907e+002;1.074492e-001
7.714192e+002;1.056999e-001
7.733478e+002;1.047424e-001
7.752763e+002;1.036178e-001
7.772048e+002;1.022134e-001
7.791334e+002;1.007680e-001
7.810620e+002;9.937026e-002
7.829905e+002;9.775712e-002
7.849191e+002;9.576930e-002
7.868476e+002;9.450651e-002
7.887761e+002;9.320865e-002
7.907047e+002;9.114837e-002
7.926332e+002;8.939541e-002
7.945618e+002;8.875629e-002
7.964903e+002;8.768903e-002
7.984189e+002;8.629280e-002
8.003474e+002;8.519483e-002
8.022759e+002;8.372200e-002
8.042045e+002;8.180653e-002
8.061331e+002;7.961643e-002
8.080616e+002;7.857610e-002
8.099902e+002;7.833888e-002
8.119187e+002;7.815213e-002
8.138472e+002;7.736162e-002
8.157758e+002;7.628949e-002
8.177043e+002;7.589111e-002
8.196329e+002;7.558224e-002
8.215615e+002;7.515015e-002
8.234900e+002;7.505153e-002
8.254185e+002;7.564144e-002
8.273471e+002;7.658033e-002
8.292756e+002;7.762853e-002
8.312042e+002;7.898223e-002
8.331328e+002;7.909528e-002
8.350613e+002;7.683323e-002
8.369898e+002;7.435647e-002
8.389184e+002;7.255833e-002
8.408469e+002;7.061172e-002
8.427755e+002;6.888411e-002
8.447040e+002;6.750499e-002
8.466326e+002;6.656059e-002
8.485611e+002;6.594820e-002
8.504897e+002;6.518442e-002
8.524182e+002;6.437203e-002
8.543467e+002;6.362015e-002
8.562753e+002;6.365318e-002
8.582039e+002;6.422953e-002
8.601324e+002;6.384309e-002
8.620610e+002;6.337310e-002
8.639895e+002;6.338970e-002
8.659180e+002;6.382877e-002
8.678466e+002;6.481402e-002
8.697751e+002;6.524580e-002
8.717037e+002;6.447008e-002
8.736323e+002;6.358014e-002
8.755608e+002;6.332176e-002
8.774893e+002;6.354259e-002
8.794179e+002;6.345070e-002
8.813464e+002;6.312856e-002
8.832750e+002;6.322689e-002
8.852036e+002;6.370892e-002
8.871321e+002;6.445216e-002
8.890606e+002;6.531396e-002
8.909892e+002;6.546884e-002
8.929177e+002;6.453111e-002
8.948463e+002;6.399733e-002
8.967748e+002;6.438929e-002
8.987034e+002;6.437326e-002
9.006319e+002;6.409993e-002
9.025605e+002;6.465549e-002
9.044890e+002;6.588218e-002
9.064175e+002;6.635756e-002
9.083461e+002;6.629850e-002
9.102747e+002;6.676456e-002
9.122032e+002;6.778524e-002
9.141318e+002;6.860529e-002
9.160603e+002;6.905262e-002
9.179888e+002;6.964583e-002
9.199174e+002;7.069277e-002
9.218459e+002;7.198284e-002
9.237745e+002;7.324772e-002
9.257031e+002;7.486036e-002
9.276316e+002;7.592229e-002
9.295601e+002;7.629091e-002
9.314887e+002;7.611413e-002
9.334172e+002;7.498155e-002
9.353458e+002;7.367242e-002
9.372744e+002;7.312831e-002
9.392029e+002;7.320348e-002
9.411314e+002;7.314862e-002
9.430600e+002;7.364479e-002
9.449885e+002;7.463393e-002
9.469171e+002;7.596514e-002
9.488456e+002;7.791856e-002
9.507742e+002;7.959526e-002
9.527027e+002;8.038535e-002
9.546313e+002;8.109935e-002
9.565598e+002;8.216017e-002
9.584883e+002;8.273176e-002
9.604169e+002;8.270145e-002
9.623455e+002;8.211754e-002
9.642740e+002;8.131127e-002
9.662026e+002;8.060354e-002
9.681311e+002;7.998395e-002
9.700596e+002;7.972148e-002
9.719882e+002;7.943228e-002
9.739167e+002;7.901113e-002
9.758453e+002;7.882715e-002
9.777739e+002;7.882898e-002
9.797024e+002;7.831591e-002
9.816309e+002;7.756340e-002
9.835595e+002;7.729277e-002
9.854880e+002;7.717711e-002
9.874166e+002;7.672019e-002
9.893452e+002;7.602948e-002
9.912737e+002;7.541882e-002
9.932022e+002;7.484819e-002
9.951307e+002;7.439399e-002
9.970593e+002;7.406300e-002
9.989879e+002;7.358700e-002
1.000916e+003;7.323298e-002
1.002845e+003;7.286298e-002
1.004773e+003;7.277462e-002
1.006702e+003;7.261512e-002
1.008631e+003;7.244600e-002
1.010559e+003;7.261743e-002
1.012488e+003;7.252795e-002
1.014416e+003;7.215682e-002
1.016345e+003;7.203642e-002
1.018273e+003;7.255524e-002
1.020202e+003;7.295401e-002
1.022130e+003;7.327138e-002
1.024059e+003;7.343101e-002
1.025988e+003;7.408905e-002
1.027916e+003;7.520149e-002
1.029845e+003;7.516706e-002
1.031773e+003;7.454263e-002
1.033702e+003;7.418460e-002
1.035630e+003;7.378323e-002
1.037559e+003;7.341868e-002
1.039487e+003;7.341531e-002
1.041416e+003;7.334163e-002
1.043344e+003;7.336407e-002
1.045273e+003;7.349885e-002
1.047202e+003;7.391724e-002
1.049130e+003;7.441031e-002
1.051059e+003;7.538772e-002
1.052987e+003;7.660717e-002
1.054916e+003;7.798013e-002
1.056844e+003;7.916624e-002
1.058773e+003;8.061415e-002
1.060701e+003;8.221854e-002
1.062630e+003;8.387390e-002
1.064558e+003;8.526390e-002
1.066487e+003;8.628871e-002
1.068416e+003;8.731494e-002
1.070344e+003;8.794516e-002
1.072273e+003;8.839992e-002
1.074201e+003;8.844708e-002
1.076130e+003;8.804015e-002
1.078058e+003;8.783993e-002
1.079987e+003;8.714247e-002
1.081915e+003;8.634675e-002
1.083844e+003;8.606289e-002
1.085773e+003;8.555217e-002
1.087701e+003;8.482494e-002
1.089630e+003;8.540469e-002
1.091558e+003;8.661088e-002
1.093487e+003;8.682886e-002
1.095415e+003;8.670626e-002
1.097344e+003;8.704371e-002
1.099272e+003;8.794029e-002
1.101201e+003;8.948456e-002
1.103129e+003;9.173647e-002
1.105058e+003;9.413798e-002
1.106987e+003;9.580268e-002
1.108915e+003;9.670512e-002
1.110844e+003;9.746080e-002
1.112772e+003;9.829473e-002
1.114701e+003;9.838794e-002
1.116629e+003;9.785420e-002
1.118558e+003;9.719398e-002
1.120486e+003;9.600119e-002
1.122415e+003;9.377930e-002
1.124344e+003;9.106182e-002
1.126272e+003;8.774990e-002
1.128201e+003;8.409699e-002
1.130129e+003;8.125070e-002
1.132058e+003;7.936011e-002
1.133986e+003;7.805420e-002
1.135915e+003;7.737781e-002
1.137843e+003;7.719333e-002
1.139772e+003;7.792062e-002
1.141700e+003;7.934138e-002
1.143629e+003;8.103773e-002
1.145557e+003;8.286206e-002
1.147486e+003;8.463055e-002
1.149415e+003;8.703691e-002
1.151343e+003;8.986253e-002
1.153272e+003;9.277418e-002
1.155200e+003;9.624238e-002
1.157129e+003;1.003711e-001
1.159057e+003;1.051213e-001
1.160986e+003;1.111012e-001
1.162914e+003;1.179640e-001
1.164843e+003;1.241871e-001
1.166771e+003;1.290232e-001
1.168700e+003;1.318100e-001
1.170629e+003;1.318225e-001
1.172557e+003;1.290827e-001
1.174486e+003;1.244818e-001
1.176414e+003;1.194533e-001
1.178343e+003;1.147867e-001
1.180271e+003;1.112519e-001
1.182200e+003;1.093352e-001
1.184128e+003;1.096190e-001
1.186057e+003;1.118948e-001
1.187986e+003;1.151571e-001
1.189914e+003;1.189750e-001
1.191843e+003;1.239588e-001
1.193771e+003;1.289613e-001
1.195700e+003;1.334034e-001
1.197628e+003;1.377289e-001
1.199557e+003;1.396330e-001
1.201485e+003;1.379464e-001
1.203414e+003;1.342599e-001
1.205343e+003;1.305309e-001
1.207271e+003;1.284930e-001
1.209200e+003;1.271868e-001
1.211128e+003;1.261122e-001
1.213057e+003;1.252728e-001
1.214985e+003;1.234934e-001
1.216914e+003;1.210352e-001
1.218842e+003;1.185173e-001
1.220771e+003;1.167716e-001
1.222699e+003;1.173220e-001
1.224628e+003;1.195287e-001
1.226557e+003;1.230713e-001
1.228485e+003;1.276009e-001
1.230414e+003;1.322355e-001
1.232342e+003;1.370037e-001
1.234271e+003;1.415271e-001
1.236199e+003;1.442676e-001
1.238128e+003;1.453637e-001
1.240056e+003;1.457171e-001
1.241985e+003;1.456984e-001
1.243913e+003;1.453887e-001
1.245842e+003;1.454694e-001
1.247771e+003;1.466986e-001
1.249699e+003;1.490485e-001
1.251628e+003;1.521999e-001
1.253556e+003;1.555958e-001
1.255485e+003;1.585506e-001
1.257413e+003;1.611717e-001
1.259342e+003;1.631922e-001
1.261270e+003;1.635452e-001
1.263199e+003;1.611644e-001
1.265127e+003;1.562314e-001
1.267056e+003;1.496024e-001
1.268985e+003;1.430985e-001
1.270913e+003;1.383974e-001
1.272842e+003;1.357395e-001
1.274770e+003;1.347468e-001
1.276699e+003;1.346082e-001
1.278627e+003;1.344555e-001
1.280556e+003;1.337761e-001
1.282484e+003;1.325362e-001
1.284413e+003;1.307988e-001
1.286342e+003;1.287882e-001
1.288270e+003;1.271871e-001
1.290199e+003;1.260974e-001
1.292127e+003;1.252223e-001
1.294056e+003;1.242706e-001
1.295984e+003;1.234100e-001
1.297913e+003;1.231371e-001
1.299841e+003;1.229999e-001
1.301770e+003;1.225205e-001
1.303698e+003;1.215700e-001
1.305627e+003;1.202595e-001
1.307556e+003;1.186996e-001
1.309484e+003;1.175325e-001
1.311413e+003;1.165892e-001
1.313341e+003;1.158324e-001
1.315270e+003;1.148622e-001
1.317198e+003;1.135503e-001
1.319127e+003;1.122043e-001
1.321055e+003;1.111322e-001
1.322984e+003;1.106915e-001
1.324912e+003;1.106424e-001
1.326841e+003;1.106853e-001
1.328770e+003;1.109615e-001
1.330698e+003;1.115157e-001
1.332627e+003;1.120016e-001
1.334555e+003;1.123338e-001
1.336484e+003;1.125008e-001
1.338412e+003;1.125519e-001
1.340341e+003;1.130552e-001
1.342269e+003;1.140363e-001
1.344198e+003;1.151265e-001
1.346126e+003;1.163876e-001
1.348055e+003;1.177977e-001
1.349984e+003;1.194391e-001
1.351912e+003;1.213171e-001
1.353841e+003;1.232985e-001
1.355769e+003;1.253122e-001
1.357698e+003;1.272375e-001
1.359626e+003;1.289353e-001
1.361555e+003;1.305680e-001
1.363483e+003;1.323615e-001
1.365412e+003;1.346652e-001
1.367341e+003;1.368199e-001
1.369269e+003;1.384622e-001
1.371198e+003;1.391635e-001
1.373126e+003;1.387745e-001
1.375055e+003;1.375373e-001
1.376983e+003;1.353578e-001
1.378912e+003;1.319866e-001
1.380840e+003;1.280136e-001
1.382769e+003;1.239782e-001
1.384698e+003;1.202192e-001
1.386626e+003;1.162070e-001
1.388555e+003;1.130268e-001
1.390483e+003;1.108988e-001
1.392412e+003;1.088745e-001
1.394340e+003;1.071348e-001
1.396269e+003;1.066380e-001
1.398197e+003;1.070906e-001
1.400126e+003;1.087023e-001
1.402054e+003;1.111742e-001
1.403983e+003;1.143163e-001
1.405911e+003;1.191539e-001
1.407840e+003;1.254795e-001
1.409769e+003;1.327561e-001
1.411697e+003;1.405886e-001
1.413626e+003;1.476548e-001
1.415554e+003;1.520549e-001
1.417483e+003;1.529403e-001
1.419411e+003;1.516867e-001
1.421340e+003;1.500570e-001
1.423268e+003;1.474848e-001
1.425197e+003;1.455782e-001
1.427125e+003;1.457648e-001
1.429054e+003;1.474684e-001
1.430983e+003;1.501969e-001
1.432911e+003;1.530462e-001
1.434840e+003;1.537607e-001
1.436768e+003;1.529231e-001
1.438697e+003;1.532074e-001
1.440625e+003;1.529087e-001
1.442554e+003;1.519078e-001
1.444482e+003;1.512342e-001
1.446411e+003;1.512737e-001
1.448340e+003;1.524528e-001
1.450268e+003;1.546329e-001
1.452197e+003;1.568679e-001
1.454125e+003;1.584525e-001
1.456054e+003;1.594823e-001
1.457982e+003;1.637891e-001
1.459911e+003;1.703767e-001
1.461839e+003;1.745903e-001
1.463768e+003;1.738558e-001
1.465697e+003;1.688090e-001
1.467625e+003;1.619134e-001
1.469554e+003;1.553590e-001
1.471482e+003;1.509214e-001
1.473411e+003;1.501085e-001
1.475339e+003;1.509027e-001
1.477268e+003;1.501523e-001
1.479196e+003;1.471930e-001
1.481125e+003;1.419947e-001
1.483053e+003;1.360367e-001
1.484982e+003;1.301677e-001
1.486911e+003;1.259934e-001
1.488839e+003;1.245415e-001
1.490768e+003;1.258640e-001
1.492696e+003;1.290437e-001
1.494625e+003;1.319857e-001
1.496553e+003;1.358105e-001
1.498482e+003;1.419535e-001
1.500410e+003;1.486095e-001
1.502339e+003;1.548892e-001
1.504267e+003;1.597504e-001
1.506196e+003;1.650984e-001
1.508125e+003;1.742457e-001
1.510053e+003;1.841695e-001
1.511982e+003;1.930653e-001
1.513910e+003;2.021513e-001
1.515839e+003;2.109555e-001
1.517767e+003;2.205038e-001
1.519696e+003;2.298617e-001
1.521624e+003;2.395417e-001
1.523553e+003;2.510706e-001
1.525481e+003;2.622702e-001
1.527410e+003;2.730986e-001
1.529339e+003;2.828967e-001
1.531267e+003;2.912725e-001
1.533196e+003;2.984731e-001
1.535124e+003;3.042175e-001
1.537053e+003;3.061899e-001
1.538981e+003;3.036146e-001
1.540910e+003;3.008129e-001
1.542838e+003;2.966832e-001
1.544767e+003;2.889400e-001
1.546695e+003;2.792547e-001
1.548624e+003;2.680006e-001
1.550553e+003;2.561117e-001
1.552481e+003;2.438055e-001
1.554410e+003;2.310672e-001
1.556338e+003;2.183314e-001
1.558267e+003;2.049711e-001
1.560195e+003;1.954187e-001
1.562124e+003;1.885176e-001
1.564052e+003;1.800442e-001
1.565981e+003;1.708394e-001
1.567910e+003;1.612856e-001
1.569838e+003;1.523973e-001
1.571767e+003;1.454348e-001
1.573695e+003;1.378766e-001
1.575624e+003;1.298044e-001
1.577552e+003;1.253134e-001
1.579481e+003;1.225215e-001
1.581409e+003;1.191808e-001
1.583338e+003;1.163313e-001
1.585266e+003;1.142475e-001
1.587195e+003;1.133781e-001
1.589124e+003;1.131992e-001
1.591052e+003;1.137014e-001
1.592981e+003;1.152018e-001
1.594909e+003;1.177572e-001
1.596838e+003;1.210606e-001
1.598766e+003;1.251519e-001
1.600695e+003;1.303767e-001
1.602623e+003;1.368300e-001
1.604552e+003;1.443672e-001
1.606480e+003;1.529549e-001
1.608409e+003;1.625155e-001
1.610338e+003;1.731719e-001
1.612266e+003;1.853119e-001
1.614195e+003;1.982198e-001
1.616123e+003;2.120481e-001
1.618052e+003;2.298044e-001
1.619980e+003;2.492870e-001
1.621909e+003;2.675985e-001
1.623837e+003;2.858202e-001
1.625766e+003;3.044018e-001
1.627694e+003;3.223569e-001
1.629623e+003;3.406129e-001
1.631552e+003;3.588254e-001
1.633480e+003;3.726582e-001
1.635409e+003;3.805645e-001
1.637337e+003;3.830790e-001
1.639266e+003;3.761043e-001
1.641194e+003;3.603165e-001
1.643123e+003;3.398246e-001
1.645051e+003;3.163511e-001
1.646980e+003;2.938039e-001
1.648909e+003;2.745587e-001
1.650837e+003;2.546221e-001
1.652766e+003;2.351394e-001
1.654694e+003;2.229171e-001
1.656623e+003;2.134810e-001
1.658551e+003;2.025187e-001
1.660480e+003;1.909463e-001
1.662408e+003;1.795120e-001
1.664337e+003;1.690229e-001
1.666266e+003;1.584491e-001
1.668194e+003;1.475457e-001
1.670123e+003;1.380757e-001
1.672051e+003;1.303340e-001
1.673980e+003;1.220519e-001
1.675908e+003;1.137913e-001
1.677837e+003;1.060716e-001
1.679765e+003;9.762260e-002
1.681694e+003;8.860186e-002
1.683622e+003;7.881209e-002
1.685551e+003;7.275605e-002
1.687479e+003;6.946997e-002
1.689408e+003;6.518923e-002
1.691337e+003;6.155863e-002
1.693265e+003;5.803663e-002
1.695194e+003;5.409212e-002
1.697122e+003;5.268081e-002
1.699051e+003;5.112037e-002
1.700979e+003;5.053908e-002
1.702908e+003;5.203672e-002
1.704836e+003;5.181558e-002
1.706765e+003;5.169513e-002
1.708693e+003;5.186871e-002
1.710622e+003;5.177799e-002
1.712551e+003;5.093863e-002
1.714479e+003;4.950914e-002
1.716408e+003;4.806536e-002
1.718336e+003;4.867293e-002
1.720265e+003;5.072378e-002
1.722193e+003;5.140385e-002
1.724122e+003;5.123802e-002
1.726050e+003;5.147692e-002
1.727979e+003;5.147789e-002
1.729908e+003;5.105176e-002
1.731836e+003;4.939890e-002
1.733765e+003;4.738329e-002
1.735693e+003;4.817674e-002
1.737622e+003;4.868805e-002
1.739550e+003;4.740358e-002
1.741479e+003;4.646563e-002
1.743407e+003;4.556554e-002
1.745336e+003;4.449615e-002
1.747265e+003;4.304150e-002
1.749193e+003;4.128282e-002
1.751122e+003;3.988998e-002
1.753050e+003;3.980220e-002
1.754979e+003;3.926157e-002
1.756907e+003;3.801588e-002
1.758836e+003;3.727383e-002
1.760764e+003;3.649715e-002
1.762693e+003;3.586851e-002
1.764621e+003;3.562883e-002
1.766550e+003;3.471120e-002
1.768479e+003;3.377507e-002
1.770407e+003;3.260564e-002
1.772336e+003;3.132303e-002
1.774264e+003;3.157933e-002
1.776193e+003;3.178388e-002
1.778121e+003;3.147519e-002
1.780050e+003;3.113860e-002
1.781978e+003;3.078220e-002
1.783907e+003;3.028685e-002
1.785835e+003;2.998931e-002
1.787764e+003;2.993027e-002
1.789693e+003;2.931978e-002
1.791621e+003;2.844098e-002
1.793550e+003;2.841774e-002
1.795478e+003;2.879351e-002
1.797407e+003;2.862172e-002
1.799335e+003;2.820247e-002
1.801264e+003;2.771422e-002
1.803192e+003;2.771856e-002
1.805121e+003;2.779535e-002
1.807049e+003;2.760347e-002
1.808978e+003;2.716467e-002
1.810907e+003;2.688857e-002
1.812835e+003;2.689904e-002
1.814764e+003;2.692583e-002
1.816692e+003;2.661617e-002
1.818621e+003;2.645144e-002
1.820549e+003;2.647194e-002
1.822478e+003;2.624939e-002
1.824406e+003;2.580158e-002
1.826335e+003;2.572314e-002
1.828264e+003;2.538455e-002
1.830192e+003;2.498230e-002
1.832121e+003;2.518629e-002
1.834049e+003;2.527180e-002
1.835978e+003;2.523050e-002
1.837906e+003;2.540155e-002
1.839835e+003;2.551349e-002
1.841763e+003;2.479882e-002
1.843692e+003;2.361106e-002
1.845620e+003;2.371872e-002
1.847549e+003;2.435499e-002
1.849478e+003;2.444055e-002
1.851406e+003;2.439905e-002
1.853335e+003;2.426497e-002
1.855263e+003;2.402457e-002
1.857192e+003;2.394610e-002
1.859120e+003;2.400731e-002
1.861049e+003;2.394939e-002
1.862977e+003;2.384388e-002
1.864906e+003;2.364381e-002
1.866834e+003;2.312203e-002
1.868763e+003;2.287881e-002
1.870692e+003;2.351783e-002
1.872620e+003;2.412082e-002
1.874549e+003;2.411370e-002
1.876477e+003;2.388221e-002
1.878406e+003;2.375533e-002
1.880334e+003;2.361131e-002
1.882263e+003;2.370934e-002
1.884191e+003;2.406103e-002
1.886120e+003;2.413546e-002
1.888048e+003;2.405994e-002
1.889977e+003;2.409539e-002
1.891906e+003;2.442488e-002
1.893834e+003;2.460634e-002
1.895763e+003;2.457110e-002
1.897691e+003;2.445446e-002
1.899620e+003;2.465330e-002
1.901548e+003;2.484924e-002
1.903477e+003;2.476599e-002
1.905405e+003;2.447918e-002
1.907334e+003;2.441647e-002
1.909262e+003;2.426455e-002
1.911191e+003;2.402314e-002
1.913120e+003;2.390409e-002
1.915048e+003;2.382246e-002
1.916977e+003;2.342875e-002
1.918905e+003;2.317700e-002
1.920834e+003;2.330854e-002
1.922762e+003;2.333169e-002
1.924691e+003;2.332686e-002
1.926619e+003;2.337424e-002
1.928548e+003;2.350031e-002
1.930477e+003;2.352389e-002
1.932405e+003;2.357041e-002
1.934334e+003;2.356716e-002
1.936262e+003;2.327414e-002
1.938191e+003;2.322499e-002
1.940119e+003;2.335179e-002
1.942048e+003;2.319196e-002
1.943976e+003;2.310313e-002
1.945905e+003;2.322045e-002
1.947833e+003;2.333123e-002
1.949762e+003;2.338011e-002
1.951691e+003;2.325128e-002
1.953619e+003;2.312235e-002
1.955548e+003;2.305033e-002
1.957476e+003;2.311721e-002
1.959405e+003;2.345778e-002
1.961333e+003;2.372849e-002
1.963262e+003;2.370385e-002
1.965190e+003;2.351126e-002
1.967119e+003;2.342183e-002
1.969047e+003;2.353816e-002
1.970976e+003;2.367862e-002
1.972905e+003;2.368579e-002
1.974833e+003;2.365850e-002
1.976762e+003;2.380027e-002
1.978690e+003;2.388683e-002
1.980619e+003;2.387731e-002
1.982547e+003;2.393889e-002
1.984476e+003;2.404979e-002
1.986404e+003;2.402517e-002
1.988333e+003;2.393686e-002
1.990261e+003;2.392590e-002
1.992190e+003;2.394978e-002
1.994119e+003;2.408905e-002
1.996047e+003;2.424153e-002
1.997976e+003;2.437669e-002
1.999904e+003;2.437231e-002
2.001833e+003;2.419014e-002
2.003761e+003;2.414036e-002
2.005690e+003;2.424164e-002
2.007618e+003;2.440841e-002
2.009547e+003;2.449779e-002
2.011476e+003;2.463867e-002
2.013404e+003;2.467441e-002
2.015333e+003;2.461051e-002
2.017261e+003;2.469836e-002
2.019190e+003;2.498013e-002
2.021118e+003;2.523440e-002
2.023047e+003;2.534461e-002
2.024975e+003;2.543232e-002
2.026904e+003;2.532283e-002
2.028833e+003;2.526744e-002
2.030761e+003;2.550713e-002
2.032690e+003;2.576354e-002
2.034618e+003;2.583928e-002
2.036547e+003;2.597430e-002
2.038475e+003;2.595080e-002
2.040404e+003;2.596607e-002
2.042332e+003;2.622806e-002
2.044261e+003;2.608687e-002
2.046189e+003;2.593107e-002
2.048118e+003;2.621162e-002
2.050047e+003;2.645197e-002
2.051975e+003;2.645405e-002
2.053904e+003;2.646225e-002
2.055832e+003;2.646993e-002
2.057761e+003;2.667751e-002
2.059689e+003;2.703725e-002
2.061618e+003;2.729315e-002
2.063546e+003;2.735907e-002
2.065475e+003;2.722690e-002
2.067404e+003;2.720425e-002
2.069332e+003;2.722460e-002
2.071260e+003;2.726397e-002
2.073189e+003;2.727040e-002
2.075118e+003;2.731633e-002
2.077046e+003;2.749491e-002
2.078975e+003;2.757191e-002
2.080903e+003;2.738215e-002
2.082832e+003;2.728610e-002
2.084760e+003;2.718919e-002
2.086689e+003;2.697706e-002
2.088617e+003;2.683422e-002
2.090546e+003;2.689217e-002
2.092475e+003;2.673988e-002
2.094403e+003;2.658940e-002
2.096332e+003;2.664513e-002
2.098260e+003;2.662812e-002
2.100189e+003;2.657334e-002
2.102117e+003;2.649944e-002
2.104046e+003;2.633944e-002
2.105974e+003;2.625326e-002
2.107903e+003;2.627424e-002
2.109832e+003;2.632585e-002
2.111760e+003;2.632796e-002
2.113688e+003;2.629364e-002
2.115617e+003;2.638718e-002
2.117546e+003;2.645394e-002
2.119474e+003;2.622451e-002
2.121403e+003;2.625604e-002
2.123331e+003;2.645785e-002
2.125260e+003;2.627002e-002
2.127188e+003;2.602731e-002
2.129117e+003;2.583143e-002
2.131045e+003;2.573594e-002
2.132974e+003;2.590448e-002
2.134903e+003;2.600849e-002
2.136831e+003;2.599224e-002
2.138760e+003;2.596012e-002
2.140688e+003;2.592431e-002
2.142617e+003;2.592737e-002
2.144545e+003;2.590873e-002
2.146474e+003;2.583601e-002
2.148402e+003;2.581452e-002
2.150331e+003;2.598161e-002
2.152260e+003;2.613512e-002
2.154188e+003;2.590008e-002
2.156117e+003;2.586315e-002
2.158045e+003;2.631529e-002
2.159974e+003;2.643493e-002
2.161902e+003;2.638429e-002
2.163831e+003;2.655509e-002
2.165759e+003;2.682100e-002
2.167688e+003;2.693207e-002
2.169616e+003;2.682823e-002
2.171545e+003;2.688653e-002
2.173474e+003;2.691529e-002
2.175402e+003;2.700005e-002
2.177331e+003;2.728948e-002
2.179259e+003;2.714143e-002
2.181188e+003;2.702251e-002
2.183116e+003;2.712407e-002
2.185045e+003;2.732830e-002
2.186973e+003;2.741881e-002
2.188902e+003;2.721712e-002
2.190831e+003;2.716576e-002
2.192759e+003;2.743050e-002
2.194688e+003;2.756425e-002
2.196616e+003;2.743134e-002
2.198545e+003;2.734883e-002
2.200473e+003;2.730074e-002
2.202402e+003;2.729799e-002
2.204330e+003;2.736387e-002
2.206259e+003;2.743117e-002
2.208188e+003;2.725667e-002
2.210116e+003;2.709466e-002
2.212044e+003;2.704204e-002
2.213973e+003;2.680053e-002
2.215902e+003;2.658552e-002
2.217830e+003;2.671577e-002
2.219759e+003;2.682178e-002
2.221687e+003;2.674784e-002
2.223616e+003;2.656295e-002
2.225544e+003;2.624672e-002
2.227473e+003;2.632768e-002
2.229401e+003;2.639598e-002
2.231330e+003;2.609472e-002
2.233259e+003;2.606875e-002
2.235187e+003;2.611094e-002
2.237116e+003;2.624738e-002
2.239044e+003;2.660127e-002
2.240973e+003;2.663812e-002
2.242901e+003;2.649825e-002
2.244830e+003;2.656185e-002
2.246758e+003;2.674696e-002
2.248687e+003;2.677769e-002
2.250615e+003;2.671958e-002
2.252544e+003;2.644620e-002
2.254473e+003;2.630008e-002
2.256401e+003;2.652410e-002
2.258330e+003;2.668216e-002
2.260258e+003;2.664238e-002
2.262187e+003;2.668706e-002
2.264115e+003;2.664182e-002
2.266044e+003;2.649726e-002
2.267972e+003;2.657253e-002
2.269901e+003;2.699585e-002
2.271830e+003;2.734795e-002
2.273758e+003;2.711734e-002
2.275687e+003;2.691822e-002
2.277615e+003;2.695735e-002
2.279544e+003;2.688374e-002
2.281472e+003;2.678562e-002
2.283401e+003;2.691078e-002
2.285329e+003;2.705382e-002
2.287258e+003;2.715568e-002
2.289187e+003;2.738451e-002
2.291115e+003;2.743547e-002
2.293043e+003;2.733518e-002
2.294972e+003;2.725402e-002
2.296901e+003;2.737833e-002
2.298829e+003;2.725893e-002
2.300758e+003;2.723850e-002
2.302686e+003;2.755200e-002
2.304615e+003;2.760404e-002
2.306543e+003;2.747677e-002
2.308472e+003;2.755863e-002
2.310400e+003;2.772940e-002
2.312329e+003;2.794038e-002
2.314258e+003;2.772294e-002
2.316186e+003;2.754056e-002
2.318115e+003;2.770538e-002
2.320043e+003;2.763945e-002
2.321972e+003;2.743265e-002
2.323900e+003;2.740794e-002
2.325829e+003;2.736542e-002
2.327757e+003;2.696310e-002
2.329686e+003;2.670038e-002
2.331615e+003;2.678794e-002
2.333543e+003;2.692485e-002
2.335472e+003;2.679277e-002
2.337400e+003;2.654389e-002
2.339329e+003;2.664534e-002
2.341257e+003;2.680088e-002
2.343186e+003;2.678893e-002
2.345114e+003;2.697494e-002
2.347043e+003;2.734682e-002
2.348971e+003;2.732201e-002
2.350900e+003;2.704155e-002
2.352829e+003;2.675309e-002
2.354757e+003;2.650180e-002
2.356686e+003;2.643901e-002
2.358614e+003;2.642644e-002
2.360543e+003;2.626446e-002
2.362471e+003;2.625636e-002
2.364400e+003;2.650310e-002
2.366328e+003;2.643630e-002
2.368257e+003;2.634645e-002
2.370186e+003;2.668072e-002
2.372114e+003;2.726052e-002
2.374042e+003;2.764648e-002
2.375971e+003;2.761008e-002
2.377900e+003;2.776522e-002
2.379828e+003;2.804314e-002
2.381757e+003;2.806209e-002
2.383685e+003;2.798310e-002
2.385614e+003;2.806477e-002
2.387542e+003;2.841477e-002
2.389471e+003;2.859922e-002
2.391399e+003;2.861210e-002
2.393328e+003;2.843133e-002
2.395257e+003;2.831124e-002
2.397185e+003;2.832320e-002
2.399114e+003;2.835216e-002
2.401042e+003;2.837582e-002
2.402971e+003;2.847035e-002
2.404899e+003;2.855258e-002
2.406828e+003;2.849639e-002
2.408756e+003;2.836454e-002
2.410685e+003;2.815456e-002
2.412614e+003;2.812455e-002
2.414542e+003;2.823440e-002
2.416471e+003;2.838463e-002
2.418399e+003;2.862024e-002
2.420328e+003;2.866459e-002
2.422256e+003;2.863128e-002
2.424185e+003;2.870055e-002
2.426113e+003;2.878059e-002
2.428042e+003;2.901290e-002
2.429970e+003;2.903051e-002
2.431899e+003;2.885133e-002
2.433828e+003;2.869184e-002
2.435756e+003;2.894943e-002
2.437685e+003;2.925771e-002
2.439613e+003;2.920476e-002
2.441542e+003;2.916465e-002
2.443470e+003;2.923109e-002
2.445399e+003;2.963421e-002
2.447327e+003;2.974150e-002
2.449256e+003;2.958540e-002
2.451185e+003;2.955500e-002
2.453113e+003;2.967536e-002
2.455042e+003;2.987440e-002
2.456970e+003;2.988476e-002
2.458899e+003;2.988931e-002
2.460827e+003;2.994695e-002
2.462756e+003;2.998675e-002
2.464684e+003;3.017673e-002
2.466613e+003;3.020635e-002
2.468542e+003;3.025797e-002
2.470470e+003;3.065130e-002
2.472398e+003;3.091461e-002
2.474327e+003;3.107424e-002
2.476256e+003;3.106225e-002
2.478184e+003;3.112493e-002
2.480113e+003;3.117840e-002
2.482041e+003;3.095933e-002
2.483970e+003;3.095417e-002
2.485898e+003;3.113821e-002
2.487827e+003;3.117786e-002
2.489755e+003;3.120058e-002
2.491684e+003;3.107851e-002
2.493613e+003;3.084342e-002
2.495541e+003;3.086914e-002
2.497470e+003;3.090080e-002
2.499398e+003;3.095062e-002
2.501327e+003;3.111767e-002
2.503255e+003;3.131487e-002
2.505184e+003;3.122507e-002
2.507112e+003;3.123778e-002
2.509041e+003;3.146372e-002
2.510969e+003;3.166953e-002
2.512898e+003;3.196734e-002
2.514827e+003;3.227495e-002
2.516755e+003;3.244119e-002
2.518684e+003;3.266032e-002
2.520612e+003;3.284883e-002
2.522541e+003;3.281128e-002
2.524469e+003;3.279087e-002
2.526398e+003;3.304869e-002
2.528326e+003;3.320482e-002
2.530255e+003;3.338254e-002
2.532184e+003;3.377528e-002
2.534112e+003;3.416378e-002
2.536041e+003;3.444042e-002
2.537969e+003;3.460143e-002
2.539898e+003;3.473030e-002
2.541826e+003;3.475873e-002
2.543755e+003;3.480905e-002
2.545683e+003;3.502325e-002
2.547612e+003;3.535097e-002
2.549541e+003;3.557093e-002
2.551469e+003;3.536488e-002
2.553397e+003;3.517222e-002
2.555326e+003;3.524678e-002
2.557255e+003;3.524099e-002
2.559183e+003;3.531678e-002
2.561112e+003;3.558509e-002
2.563040e+003;3.590244e-002
2.564969e+003;3.610378e-002
2.566897e+003;3.640763e-002
2.568826e+003;3.648947e-002
2.570754e+003;3.630399e-002
2.572683e+003;3.637114e-002
2.574612e+003;3.671152e-002
2.576540e+003;3.672725e-002
2.578469e+003;3.679980e-002
2.580397e+003;3.713533e-002
2.582326e+003;3.752926e-002
2.584254e+003;3.773595e-002
2.586183e+003;3.779002e-002
2.588111e+003;3.794085e-002
2.590040e+003;3.801339e-002
2.591969e+003;3.803049e-002
2.593897e+003;3.811767e-002
2.595826e+003;3.823962e-002
2.597754e+003;3.843303e-002
2.599683e+003;3.866057e-002
2.601611e+003;3.862714e-002
2.603540e+003;3.878797e-002
2.605468e+003;3.895937e-002
2.607397e+003;3.910303e-002
2.609325e+003;3.929588e-002
2.611254e+003;3.924445e-002
2.613183e+003;3.908933e-002
2.615111e+003;3.906754e-002
2.617040e+003;3.908320e-002
2.618968e+003;3.924971e-002
2.620897e+003;3.948330e-002
2.622825e+003;3.958702e-002
2.624754e+003;3.971433e-002
2.626682e+003;3.964935e-002
2.628611e+003;3.977653e-002
2.630540e+003;4.002592e-002
2.632468e+003;3.992758e-002
2.634396e+003;4.006673e-002
2.636325e+003;4.027113e-002
2.638254e+003;4.042580e-002
2.640182e+003;4.057122e-002
2.642111e+003;4.058788e-002
2.644039e+003;4.047214e-002
2.645968e+003;4.056729e-002
2.647896e+003;4.082474e-002
2.649825e+003;4.107689e-002
2.651753e+003;4.142951e-002
2.653682e+003;4.133300e-002
2.655611e+003;4.118409e-002
2.657539e+003;4.141624e-002
2.659468e+003;4.174562e-002
2.661396e+003;4.192771e-002
2.663325e+003;4.231145e-002
2.665253e+003;4.265777e-002
2.667182e+003;4.282021e-002
2.669110e+003;4.302968e-002
2.671039e+003;4.322604e-002
2.672968e+003;4.328578e-002
2.674896e+003;4.360694e-002
2.676825e+003;4.394964e-002
2.678753e+003;4.396430e-002
2.680682e+003;4.413339e-002
2.682610e+003;4.462171e-002
2.684539e+003;4.498490e-002
2.686467e+003;4.550501e-002
2.688396e+003;4.603594e-002
2.690324e+003;4.655041e-002
2.692253e+003;4.705360e-002
2.694182e+003;4.715996e-002
2.696110e+003;4.727602e-002
2.698039e+003;4.769178e-002
2.699967e+003;4.818467e-002
2.701896e+003;4.827960e-002
2.703824e+003;4.823243e-002
2.705753e+003;4.860559e-002
2.707681e+003;4.890185e-002
2.709610e+003;4.903630e-002
2.711539e+003;4.940915e-002
2.713467e+003;4.959624e-002
2.715396e+003;4.999176e-002
2.717324e+003;5.053327e-002
2.719253e+003;5.097418e-002
2.721181e+003;5.145995e-002
2.723110e+003;5.191076e-002
2.725038e+003;5.238570e-002
2.726967e+003;5.253555e-002
2.728896e+003;5.271773e-002
2.730824e+003;5.313588e-002
2.732752e+003;5.358255e-002
2.734681e+003;5.430917e-002
2.736610e+003;5.493080e-002
2.738538e+003;5.527721e-002
2.740467e+003;5.553397e-002
2.742395e+003;5.537115e-002
2.744324e+003;5.537134e-002
2.746252e+003;5.572921e-002
2.748181e+003;5.593408e-002
2.750109e+003;5.581903e-002
2.752038e+003;5.578414e-002
2.753967e+003;5.590366e-002
2.755895e+003;5.587943e-002
2.757824e+003;5.587457e-002
2.759752e+003;5.598613e-002
2.761681e+003;5.615766e-002
2.763609e+003;5.627329e-002
2.765538e+003;5.646124e-002
2.767466e+003;5.667623e-002
2.769395e+003;5.691569e-002
2.771323e+003;5.744609e-002
2.773252e+003;5.793102e-002
2.775181e+003;5.839830e-002
2.777109e+003;5.889113e-002
2.779038e+003;5.938923e-002
2.780966e+003;5.999604e-002
2.782895e+003;6.051620e-002
2.784823e+003;6.086054e-002
2.786752e+003;6.143327e-002
2.788680e+003;6.207078e-002
2.790609e+003;6.249321e-002
2.792538e+003;6.266233e-002
2.794466e+003;6.297654e-002
2.796395e+003;6.351616e-002
2.798323e+003;6.397732e-002
2.800252e+003;6.436500e-002
2.802180e+003;6.474167e-002
2.804109e+003;6.524996e-002
2.806037e+003;6.580625e-002
2.807966e+003;6.660388e-002
2.809895e+003;6.732447e-002
2.811823e+003;6.746869e-002
2.813751e+003;6.780503e-002
2.815680e+003;6.848509e-002
2.817609e+003;6.914963e-002
2.819537e+003;6.973196e-002
2.821466e+003;7.036728e-002
2.823394e+003;7.112344e-002
2.825323e+003;7.169194e-002
2.827251e+003;7.257074e-002
2.829180e+003;7.378303e-002
2.831108e+003;7.490658e-002
2.833037e+003;7.575475e-002
2.834966e+003;7.693555e-002
2.836894e+003;7.884586e-002
2.838823e+003;8.116817e-002
2.840751e+003;8.405690e-002
2.842680e+003;8.768546e-002
2.844608e+003;9.196805e-002
2.846537e+003;9.658186e-002
2.848465e+003;1.016281e-001
2.850394e+003;1.068552e-001
2.852323e+003;1.111993e-001
2.854251e+003;1.146755e-001
2.856180e+003;1.177486e-001
2.858108e+003;1.202771e-001
2.860037e+003;1.223310e-001
2.861965e+003;1.236232e-001
2.863894e+003;1.235835e-001
2.865822e+003;1.223837e-001
2.867751e+003;1.208332e-001
2.869679e+003;1.189007e-001
2.871608e+003;1.166165e-001
2.873536e+003;1.140728e-001
2.875465e+003;1.109161e-001
2.877394e+003;1.075918e-001
2.879322e+003;1.048343e-001
2.881251e+003;1.026998e-001
2.883179e+003;1.011353e-001
2.885108e+003;1.003885e-001
2.887036e+003;1.006031e-001
2.888965e+003;1.013268e-001
2.890893e+003;1.024309e-001
2.892822e+003;1.041439e-001
2.894750e+003;1.062206e-001
2.896679e+003;1.083338e-001
2.898608e+003;1.103455e-001
2.900536e+003;1.120927e-001
2.902465e+003;1.137971e-001
2.904393e+003;1.154163e-001
2.906322e+003;1.167248e-001
2.908250e+003;1.184434e-001
2.910179e+003;1.206956e-001
2.912107e+003;1.229388e-001
2.914036e+003;1.254113e-001
2.915965e+003;1.282133e-001
2.917893e+003;1.314207e-001
2.919822e+003;1.349249e-001
2.921750e+003;1.383206e-001
2.923679e+003;1.416349e-001
2.925607e+003;1.451053e-001
2.927536e+003;1.485075e-001
2.929464e+003;1.511400e-001
2.931393e+003;1.528353e-001
2.933322e+003;1.541122e-001
2.935250e+003;1.547512e-001
2.937178e+003;1.542375e-001
2.939107e+003;1.527562e-001
2.941036e+003;1.506378e-001
2.942964e+003;1.472870e-001
2.944893e+003;1.430025e-001
2.946821e+003;1.379907e-001
2.948750e+003;1.323133e-001
2.950678e+003;1.260487e-001
2.952607e+003;1.198189e-001
2.954535e+003;1.136085e-001
2.956464e+003;1.076400e-001
2.958393e+003;1.026461e-001
2.960321e+003;9.818523e-002
2.962250e+003;9.386957e-002
2.964178e+003;9.002496e-002
2.966107e+003;8.701387e-002
2.968035e+003;8.383335e-002
2.969964e+003;8.050909e-002
2.971892e+003;7.757184e-002
2.973821e+003;7.522990e-002
2.975750e+003;7.335465e-002
2.977678e+003;7.125625e-002
2.979607e+003;6.926437e-002
2.981535e+003;6.755354e-002
2.983464e+003;6.595692e-002
2.985392e+003;6.459835e-002
2.987321e+003;6.349821e-002
2.989249e+003;6.237366e-002
2.991178e+003;6.159426e-002
2.993106e+003;6.125453e-002
2.995035e+003;6.074312e-002
2.996964e+003;5.997672e-002
2.998892e+003;5.957948e-002
3.000821e+003;5.933183e-002
3.002749e+003;5.884309e-002
3.004678e+003;5.870243e-002
3.006606e+003;5.879313e-002
3.008535e+003;5.875827e-002
3.010463e+003;5.867599e-002
3.012392e+003;5.896460e-002
3.014321e+003;5.928196e-002
3.016249e+003;5.948524e-002
3.018177e+003;5.980542e-002
3.020106e+003;6.006331e-002
3.022035e+003;6.034758e-002
3.023963e+003;6.057605e-002
3.025892e+003;6.100218e-002
3.027820e+003;6.170909e-002
3.029749e+003;6.232026e-002
3.031677e+003;6.282986e-002
3.033606e+003;6.363672e-002
3.035534e+003;6.473625e-002
3.037463e+003;6.568683e-002
3.039392e+003;6.637342e-002
3.041320e+003;6.682383e-002
3.043249e+003;6.778183e-002
3.045177e+003;6.875464e-002
3.047106e+003;6.941888e-002
3.049034e+003;7.022217e-002
3.050963e+003;7.145685e-002
3.052891e+003;7.241527e-002
3.054820e+003;7.303653e-002
3.056749e+003;7.369979e-002
3.058677e+003;7.474648e-002
3.060606e+003;7.577989e-002
3.062534e+003;7.634720e-002
3.064463e+003;7.650880e-002
3.066391e+003;7.665167e-002
3.068320e+003;7.700458e-002
3.070248e+003;7.767540e-002
3.072177e+003;7.789961e-002
3.074105e+003;7.770896e-002
3.076034e+003;7.776400e-002
3.077963e+003;7.787313e-002
3.079891e+003;7.798806e-002
3.081820e+003;7.797521e-002
3.083748e+003;7.764263e-002
3.085677e+003;7.703580e-002
3.087605e+003;7.626808e-002
3.089534e+003;7.584637e-002
3.091462e+003;7.523581e-002
3.093391e+003;7.446510e-002
3.095320e+003;7.400402e-002
3.097248e+003;7.315725e-002
3.099177e+003;7.243308e-002
3.101105e+003;7.185587e-002
3.103034e+003;7.103911e-002
3.104962e+003;7.008699e-002
3.106891e+003;6.923643e-002
3.108819e+003;6.827123e-002
3.110748e+003;6.790195e-002
3.112677e+003;6.745657e-002
3.114605e+003;6.649080e-002
3.116533e+003;6.594925e-002
3.118462e+003;6.549835e-002
3.120391e+003;6.490578e-002
3.122319e+003;6.467472e-002
3.124248e+003;6.450951e-002
3.126176e+003;6.411322e-002
3.128105e+003;6.374484e-002
3.130033e+003;6.360876e-002
3.131962e+003;6.354186e-002
3.133890e+003;6.355111e-002
3.135819e+003;6.367712e-002
3.137748e+003;6.389321e-002
3.139676e+003;6.408465e-002
3.141605e+003;6.390112e-002
3.143533e+003;6.389863e-002
3.145462e+003;6.396458e-002
3.147390e+003;6.398980e-002
3.149319e+003;6.449202e-002
3.151247e+003;6.501629e-002
3.153176e+003;6.526802e-002
3.155104e+003;6.546965e-002
3.157033e+003;6.568101e-002
3.158962e+003;6.613734e-002
3.160890e+003;6.669629e-002
3.162819e+003;6.753453e-002
3.164747e+003;6.857596e-002
3.166676e+003;6.890181e-002
3.168604e+003;6.929357e-002
3.170533e+003;7.005129e-002
3.172461e+003;7.074650e-002
3.174390e+003;7.126370e-002
3.176319e+003;7.191174e-002
3.178247e+003;7.268742e-002
3.180176e+003;7.356185e-002
3.182104e+003;7.428861e-002
3.184033e+003;7.479993e-002
3.185961e+003;7.526323e-002
3.187890e+003;7.593922e-002
3.189818e+003;7.668523e-002
3.191747e+003;7.746652e-002
3.193676e+003;7.798152e-002
3.195604e+003;7.858102e-002
3.197532e+003;7.958603e-002
3.199461e+003;8.006103e-002
3.201390e+003;7.989529e-002
3.203318e+003;7.981508e-002
3.205247e+003;8.005725e-002
3.207175e+003;8.045593e-002
3.209104e+003;8.121315e-002
3.211032e+003;8.208371e-002
3.212961e+003;8.242712e-002
3.214889e+003;8.289595e-002
3.216818e+003;8.392656e-002
3.218747e+003;8.457740e-002
3.220675e+003;8.478067e-002
3.222604e+003;8.557114e-002
3.224532e+003;8.699484e-002
3.226461e+003;8.833957e-002
3.228389e+003;8.917801e-002
3.230318e+003;8.980809e-002
3.232246e+003;9.077162e-002
3.234175e+003;9.230634e-002
3.236104e+003;9.413127e-002
3.238032e+003;9.611098e-002
3.239961e+003;9.796259e-002
3.241889e+003;9.913307e-002
3.243818e+003;1.007474e-001
3.245746e+003;1.030826e-001
3.247675e+003;1.056004e-001
3.249603e+003;1.073929e-001
3.251532e+003;1.092136e-001
3.253460e+003;1.114403e-001
3.255389e+003;1.131481e-001
3.257318e+003;1.150445e-001
3.259246e+003;1.169961e-001
3.261175e+003;1.192883e-001
3.263103e+003;1.223152e-001
3.265032e+003;1.251566e-001
3.266960e+003;1.273926e-001
3.268889e+003;1.292120e-001
3.270817e+003;1.309264e-001
3.272746e+003;1.331011e-001
3.274675e+003;1.353389e-001
3.276603e+003;1.370904e-001
3.278531e+003;1.393435e-001
3.280460e+003;1.416564e-001
3.282389e+003;1.435480e-001
3.284317e+003;1.451385e-001
3.286246e+003;1.463488e-001
3.288174e+003;1.473515e-001
3.290103e+003;1.481222e-001
3.292031e+003;1.483383e-001
3.293960e+003;1.477551e-001
3.295888e+003;1.464002e-001
3.297817e+003;1.447867e-001
3.299746e+003;1.432504e-001
3.301674e+003;1.412192e-001
3.303603e+003;1.386970e-001
3.305531e+003;1.357517e-001
3.307460e+003;1.325232e-001
3.309388e+003;1.295880e-001
3.311317e+003;1.267106e-001
3.313245e+003;1.237351e-001
3.315174e+003;1.207042e-001
3.317103e+003;1.181283e-001
3.319031e+003;1.151967e-001
3.320960e+003;1.122393e-001
3.322888e+003;1.093534e-001
3.324817e+003;1.070056e-001
3.326745e+003;1.046711e-001
3.328674e+003;1.019402e-001
3.330602e+003;9.961628e-002
3.332531e+003;9.750745e-002
3.334459e+003;9.537085e-002
3.336388e+003;9.301461e-002
3.338317e+003;9.073637e-002
3.340245e+003;8.886695e-002
3.342174e+003;8.690203e-002
3.344102e+003;8.506761e-002
3.346031e+003;8.331168e-002
3.347959e+003;8.163455e-002
3.349888e+003;8.026531e-002
3.351816e+003;7.904114e-002
3.353745e+003;7.763891e-002
3.355674e+003;7.617781e-002
3.357602e+003;7.492308e-002
3.359531e+003;7.384630e-002
3.361459e+003;7.264578e-002
3.363388e+003;7.123013e-002
3.365316e+003;6.989095e-002
3.367245e+003;6.879031e-002
3.369173e+003;6.761156e-002
3.371102e+003;6.667983e-002
3.373031e+003;6.606434e-002
3.374959e+003;6.565345e-002
3.376887e+003;6.526432e-002
3.378816e+003;6.463122e-002
3.380745e+003;6.411007e-002
3.382673e+003;6.324460e-002
3.384602e+003;6.236211e-002
3.386530e+003;6.205854e-002
3.388459e+003;6.188726e-002
3.390387e+003;6.157188e-002
3.392316e+003;6.085106e-002
3.394244e+003;5.996074e-002
3.396173e+003;5.937407e-002
3.398102e+003;5.908276e-002
3.400030e+003;5.863132e-002
3.401959e+003;5.834547e-002
3.403887e+003;5.821849e-002
3.405816e+003;5.798464e-002
3.407744e+003;5.761083e-002
3.409673e+003;5.710849e-002
3.411601e+003;5.685907e-002
3.413530e+003;5.694417e-002
3.415458e+003;5.673698e-002
3.417387e+003;5.618783e-002
3.419316e+003;5.577156e-002
3.421244e+003;5.584759e-002
3.423173e+003;5.590389e-002
3.425101e+003;5.556150e-002
3.427030e+003;5.528052e-002
3.428958e+003;5.478016e-002
3.430887e+003;5.415427e-002
3.432815e+003;5.390887e-002
3.434744e+003;5.416054e-002
3.436673e+003;5.393907e-002
3.438601e+003;5.363443e-002
3.440530e+003;5.383632e-002
3.442458e+003;5.397943e-002
3.444387e+003;5.392372e-002
3.446315e+003;5.352681e-002
3.448244e+003;5.312304e-002
3.450172e+003;5.247538e-002
3.452101e+003;5.205802e-002
3.454030e+003;5.204304e-002
3.455958e+003;5.210280e-002
3.457886e+003;5.164736e-002
3.459815e+003;5.125331e-002
3.461744e+003;5.107225e-002
3.463672e+003;5.023823e-002
3.465601e+003;4.934129e-002
3.467529e+003;4.921914e-002
3.469458e+003;4.950762e-002
3.471386e+003;4.986579e-002
3.473315e+003;4.962944e-002
3.475243e+003;4.892511e-002
3.477172e+003;4.838300e-002
3.479101e+003;4.817348e-002
3.481029e+003;4.799663e-002
3.482958e+003;4.806510e-002
3.484886e+003;4.799593e-002
3.486815e+003;4.777980e-002
3.488743e+003;4.749509e-002
3.490672e+003;4.754255e-002
3.492600e+003;4.748237e-002
3.494529e+003;4.706582e-002
3.496458e+003;4.669210e-002
3.498386e+003;4.693014e-002
3.500315e+003;4.716705e-002
3.502243e+003;4.696263e-002
3.504172e+003;4.655557e-002
3.506100e+003;4.600669e-002
3.508029e+003;4.553569e-002
3.509957e+003;4.562840e-002
3.511886e+003;4.599067e-002
3.513814e+003;4.564091e-002
3.515743e+003;4.530243e-002
3.517672e+003;4.504672e-002
3.519600e+003;4.440570e-002
3.521529e+003;4.372437e-002
3.523457e+003;4.340217e-002
3.525386e+003;4.333220e-002
3.527314e+003;4.276123e-002
3.529243e+003;4.223454e-002
3.531171e+003;4.196537e-002
3.533100e+003;4.165775e-002
3.535029e+003;4.125487e-002
3.536957e+003;4.083730e-002
3.538885e+003;4.042220e-002
3.540814e+003;4.019385e-002
3.542743e+003;4.009329e-002
3.544671e+003;3.955984e-002
3.546600e+003;3.903799e-002
3.548528e+003;3.888700e-002
3.550457e+003;3.841044e-002
3.552385e+003;3.778742e-002
3.554314e+003;3.778156e-002
3.556242e+003;3.757880e-002
3.558171e+003;3.697691e-002
3.560100e+003;3.668398e-002
3.562028e+003;3.654313e-002
3.563957e+003;3.581385e-002
3.565885e+003;3.463591e-002
3.567814e+003;3.413152e-002
3.569742e+003;3.438508e-002
3.571671e+003;3.450703e-002
3.573599e+003;3.422002e-002
3.575528e+003;3.356457e-002
3.577457e+003;3.306903e-002
3.579385e+003;3.284105e-002
3.581314e+003;3.251789e-002
3.583242e+003;3.186414e-002
3.585171e+003;3.090909e-002
3.587099e+003;3.028383e-002
3.589028e+003;3.056114e-002
3.590956e+003;3.083592e-002
3.592885e+003;3.047181e-002
3.594813e+003;2.989974e-002
3.596742e+003;2.945790e-002
3.598671e+003;2.932389e-002
3.600599e+003;2.906399e-002
3.602528e+003;2.865545e-002
3.604456e+003;2.808358e-002
3.606385e+003;2.729403e-002
3.608313e+003;2.673198e-002
3.610242e+003;2.670425e-002
3.612170e+003;2.644841e-002
3.614099e+003;2.603262e-002
3.616028e+003;2.538374e-002
3.617956e+003;2.482840e-002
3.619885e+003;2.535093e-002
3.621813e+003;2.616693e-002
3.623742e+003;2.575601e-002
3.625670e+003;2.442803e-002
3.627599e+003;2.274911e-002
3.629527e+003;2.252473e-002
3.631456e+003;2.351679e-002
3.633385e+003;2.374297e-002
3.635313e+003;2.400482e-002
3.637241e+003;2.408232e-002
3.639170e+003;2.374423e-002
3.641099e+003;2.343802e-002
3.643027e+003;2.305120e-002
3.644956e+003;2.231992e-002
3.646884e+003;2.182144e-002
3.648813e+003;2.173563e-002
3.650741e+003;2.188611e-002
3.652670e+003;2.197351e-002
3.654598e+003;2.113975e-002
3.656527e+003;2.051150e-002
3.658456e+003;2.107056e-002
3.660384e+003;2.142638e-002
3.662313e+003;2.148521e-002
3.664241e+003;2.152870e-002
3.666170e+003;2.133164e-002
3.668098e+003;2.030664e-002
3.670027e+003;1.934678e-002
3.671955e+003;1.966722e-002
3.673884e+003;1.872092e-002
3.675813e+003;1.822579e-002
3.677741e+003;1.962201e-002
3.679669e+003;1.990317e-002
3.681598e+003;1.989852e-002
3.683527e+003;2.010385e-002
3.685455e+003;1.910130e-002
3.687384e+003;1.723297e-002
3.689312e+003;1.684957e-002
3.691241e+003;1.784637e-002
3.693169e+003;1.875406e-002
3.695098e+003;1.890911e-002
3.697026e+003;1.863403e-002
3.698955e+003;1.820896e-002
3.700884e+003;1.766699e-002
3.702812e+003;1.762527e-002
3.704741e+003;1.782342e-002
3.706669e+003;1.780367e-002
3.708598e+003;1.741290e-002
3.710526e+003;1.659114e-002
3.712455e+003;1.641113e-002
3.714383e+003;1.703696e-002
3.716312e+003;1.747412e-002
3.718240e+003;1.746940e-002
3.720169e+003;1.724518e-002
3.722098e+003;1.696994e-002
3.724026e+003;1.682198e-002
3.725955e+003;1.687768e-002
3.727883e+003;1.709537e-002
3.729812e+003;1.647955e-002
3.731740e+003;1.571833e-002
3.733669e+003;1.570747e-002
3.735597e+003;1.540045e-002
3.737526e+003;1.595922e-002
3.739455e+003;1.690086e-002
3.741383e+003;1.668437e-002
3.743312e+003;1.450347e-002
3.745240e+003;1.440263e-002
3.747169e+003;1.541556e-002
3.749097e+003;1.460750e-002
3.751026e+003;1.421743e-002
3.752954e+003;1.532164e-002
3.754883e+003;1.686004e-002
3.756812e+003;1.694833e-002
3.758740e+003;1.687854e-002
3.760668e+003;1.733803e-002
3.762597e+003;1.781327e-002
3.764526e+003;1.763369e-002
3.766454e+003;1.770323e-002
3.768383e+003;1.718512e-002
3.770311e+003;1.675331e-002
3.772240e+003;1.716320e-002
3.774168e+003;1.778803e-002
3.776097e+003;1.802701e-002
3.778025e+003;1.777961e-002
3.779954e+003;1.770016e-002
3.781883e+003;1.783039e-002
3.783811e+003;1.750524e-002
3.785740e+003;1.756251e-002
3.787668e+003;1.779380e-002
3.789597e+003;1.808490e-002
3.791525e+003;1.832870e-002
3.793454e+003;1.805046e-002
3.795382e+003;1.717237e-002
3.797311e+003;1.693393e-002
3.799240e+003;1.635133e-002
3.801168e+003;1.591725e-002
3.803097e+003;1.659654e-002
3.805025e+003;1.642937e-002
3.806954e+003;1.651297e-002
3.808882e+003;1.751366e-002
3.810811e+003;1.795131e-002
3.812739e+003;1.788794e-002
3.814668e+003;1.688191e-002
3.816596e+003;1.694006e-002
3.818525e+003;1.732344e-002
3.820454e+003;1.657875e-002
3.822382e+003;1.716506e-002
3.824311e+003;1.807464e-002
3.826239e+003;1.828899e-002
3.828168e+003;1.871729e-002
3.830096e+003;1.863503e-002
3.832025e+003;1.866436e-002
3.833953e+003;1.830738e-002
3.835882e+003;1.698858e-002
3.837811e+003;1.660473e-002
3.839739e+003;1.819811e-002
3.841667e+003;1.894525e-002
3.843596e+003;1.885367e-002
3.845525e+003;1.888046e-002
3.847453e+003;1.865979e-002
3.849382e+003;1.824344e-002
3.851310e+003;1.664188e-002
3.853239e+003;1.509258e-002
3.855167e+003;1.679877e-002
3.857096e+003;1.891790e-002
3.859024e+003;1.939962e-002
3.860953e+003;1.933670e-002
3.862882e+003;1.911598e-002
3.864810e+003;1.887028e-002
3.866739e+003;1.877866e-002
3.868667e+003;1.777695e-002
3.870596e+003;1.777305e-002
3.872524e+003;1.860124e-002
3.874453e+003;1.901475e-002
3.876381e+003;1.953501e-002
3.878310e+003;1.912931e-002
3.880239e+003;1.852271e-002
3.882167e+003;1.886205e-002
3.884096e+003;1.894895e-002
3.886024e+003;1.877596e-002
3.887953e+003;1.924924e-002
3.889881e+003;1.904175e-002
3.891810e+003;1.899813e-002
3.893738e+003;1.955570e-002
3.895667e+003;2.003761e-002
3.897595e+003;1.970241e-002
3.899524e+003;1.912218e-002
3.901453e+003;1.875638e-002
3.903381e+003;1.863745e-002
3.905310e+003;1.941885e-002
3.907238e+003;1.966372e-002
3.909167e+003;1.931672e-002
3.911095e+003;1.987532e-002
3.913024e+003;2.090458e-002
3.914952e+003;2.087677e-002
3.916881e+003;2.039157e-002
3.918810e+003;2.021276e-002
3.920738e+003;2.010881e-002
3.922667e+003;2.048837e-002
3.924595e+003;2.098636e-002
3.926524e+003;2.137835e-002
3.928452e+003;2.133313e-002
3.930381e+003;2.131622e-002
3.932309e+003;2.116354e-002
3.934238e+003;2.134699e-002
3.936167e+003;2.187524e-002
3.938095e+003;2.211762e-002
3.940023e+003;2.157428e-002
3.941952e+003;2.130345e-002
3.943881e+003;2.183263e-002
3.945809e+003;2.185768e-002
3.947738e+003;2.162891e-002
3.949666e+003;2.191842e-002
3.951595e+003;2.250250e-002
3.953523e+003;2.286082e-002
3.955452e+003;2.296798e-002
3.957380e+003;2.263313e-002
3.959309e+003;2.245229e-002
3.961238e+003;2.272002e-002
3.963166e+003;2.299181e-002
3.965095e+003;2.325547e-002
3.967023e+003;2.341505e-002
3.968952e+003;2.378746e-002
3.970880e+003;2.415521e-002
3.972809e+003;2.395654e-002
3.974737e+003;2.369444e-002
3.976666e+003;2.370133e-002
3.978594e+003;2.418229e-002
3.980523e+003;2.487383e-002
3.982452e+003;2.446452e-002
3.984380e+003;2.420506e-002
3.986309e+003;2.460406e-002
3.988237e+003;2.468728e-002
3.990166e+003;2.458330e-002
3.992094e+003;2.442758e-002
3.994023e+003;2.452626e-002
3.995951e+003;2.492755e-002
3.997880e+003;2.518443e-002
3.999809e+003;2.524167e-002
4.001737e+003;0.000000e+000
