3.992094e+002;0.000000e+000
4.011380e+002;0.000000e+000
4.030665e+002;0.000000e+000
4.049951e+002;0.000000e+000
4.069236e+002;0.000000e+000
4.088522e+002;0.000000e+000
4.107807e+002;0.000000e+000
4.127093e+002;0.000000e+000
4.146378e+002;0.000000e+000
4.165664e+002;0.000000e+000
4.184949e+002;0.000000e+000
4.204235e+002;0.000000e+000
4.223520e+002;0.000000e+000
4.242806e+002;0.000000e+000
4.262091e+002;0.000000e+000
4.281377e+002;0.000000e+000
4.300662e+002;0.000000e+000
4.319948e+002;0.000000e+000
4.339233e+002;0.000000e+000
4.358519e+002;0.000000e+000
4.377804e+002;0.000000e+000
4.397090e+002;0.000000e+000
4.416375e+002;0.000000e+000
4.435660e+002;0.000000e+000
4.454946e+002;0.000000e+000
4.474232e+002;0.000000e+000
4.493517e+002;0.000000e+000
4.512802e+002;0.000000e+000
4.532088e+002;0.000000e+000
4.551373e+002;0.000000e+000
4.570659e+002;0.000000e+000
4.589944e+002;0.000000e+000
4.609230e+002;0.000000e+000
4.628515e+002;0.000000e+000
4.647801e+002;0.000000e+000
4.667086e+002;0.000000e+000
4.686372e+002;0.000000e+000
4.705657e+002;0.000000e+000
4.724943e+002;0.000000e+000
4.744228e+002;0.000000e+000
4.763513e+002;0.000000e+000
4.782799e+002;0.000000e+000
4.802085e+002;0.000000e+000
4.821370e+002;0.000000e+000
4.840656e+002;0.000000e+000
4.859941e+002;0.000000e+000
4.879226e+002;0.000000e+000
4.898512e+002;0.000000e+000
4.917798e+002;0.000000e+000
4.937083e+002;0.000000e+000
4.956368e+002;0.000000e+000
4.975654e+002;0.000000e+000
4.994939e+002;0.000000e+000
5.014225e+002;0.000000e+000
5.033510e+002;0.000000e+000
5.052796e+002;0.000000e+000
5.072081e+002;0.000000e+000
5.091367e+002;0.000000e+000
5.110652e+002;0.000000e+000
5.129938e+002;0.000000e+000
5.149223e+002;0.000000e+000
5.168509e+002;0.000000e+000
5.187794e+002;0.000000e+000
5.207079e+002;0.000000e+000
5.226365e+002;0.000000e+000
5.245651e+002;0.000000e+000
5.264936e+002;0.000000e+000
5.284222e+002;0.000000e+000
5.303507e+002;0.000000e+000
5.322792e+002;0.000000e+000
5.342078e+002;0.000000e+000
5.361364e+002;0.000000e+000
5.380649e+002;0.000000e+000
5.399935e+002;0.000000e+000
5.419220e+002;0.000000e+000
5.438505e+002;0.000000e+000
5.457791e+002;0.000000e+000
5.477076e+002;0.000000e+000
5.496362e+002;0.000000e+000
5.515648e+002;0.000000e+000
5.534933e+002;0.000000e+000
5.554218e+002;0.000000e+000
5.573504e+002;0.000000e+000
5.592789e+002;0.000000e+000
5.612075e+002;0.000000e+000
5.631360e+002;0.000000e+000
5.650646e+002;0.000000e+000
5.669931e+002;0.000000e+000
5.689217e+002;0.000000e+000
5.708502e+002;0.000000e+000
5.727787e+002;0.000000e+000
5.747073e+002;0.000000e+000
5.766359e+002;0.000000e+000
5.785644e+002;0.000000e+000
5.804930e+002;0.000000e+000
5.824215e+002;0.000000e+000
5.843500e+002;0.000000e+000
5.862786e+002;0.000000e+000
5.882072e+002;0.000000e+000
5.901357e+002;0.000000e+000
5.920643e+002;0.000000e+000
5.939928e+002;0.000000e+000
5.959213e+002;0.000000e+000
5.978499e+002;0.000000e+000
5.997784e+002;1.456579e-001
6.017070e+002;1.433422e-001
6.036355e+002;1.424769e-001
6.055641e+002;1.388248e-001
6.074926e+002;1.393522e-001
6.094211e+002;1.421630e-001
6.113497e+002;1.437357e-001
6.132783e+002;1.409648e-001
6.152068e+002;1.429551e-001
6.171354e+002;1.458063e-001
6.190639e+002;1.469038e-001
6.209924e+002;1.484279e-001
6.229210e+002;1.458049e-001
6.248495e+002;1.453474e-001
6.267781e+002;1.495060e-001
6.287067e+002;1.487564e-001
6.306352e+002;1.442306e-001
6.325637e+002;1.422069e-001
6.344923e+002;1.439093e-001
6.364208e+002;1.471784e-001
6.383494e+002;1.466527e-001
6.402780e+002;1.464156e-001
6.422065e+002;1.497882e-001
6.441350e+002;1.531406e-001
6.460636e+002;1.552812e-001
6.479921e+002;1.557053e-001
6.499207e+002;1.567776e-001
6.518492e+002;1.574915e-001
6.537778e+002;1.598265e-001
6.557063e+002;1.648936e-001
6.576349e+002;1.686951e-001
6.595634e+002;1.722930e-001
6.614919e+002;1.746727e-001
6.634205e+002;1.757982e-001
6.653491e+002;1.764418e-001
6.672776e+002;1.797279e-001
6.692062e+002;1.831798e-001
6.711347e+002;1.847648e-001
6.730632e+002;1.859063e-001
6.749918e+002;1.850063e-001
6.769203e+002;1.856841e-001
6.788489e+002;1.894824e-001
6.807775e+002;1.902366e-001
6.827060e+002;1.896477e-001
6.846345e+002;1.908975e-001
6.865631e+002;1.895489e-001
6.884916e+002;1.877200e-001
6.904202e+002;1.868737e-001
6.923488e+002;1.845030e-001
6.942773e+002;1.811758e-001
6.962058e+002;1.781441e-001
6.981344e+002;1.748401e-001
7.000629e+002;1.724614e-001
7.019915e+002;1.710555e-001
7.039200e+002;1.691556e-001
7.058486e+002;1.659425e-001
7.077771e+002;1.632443e-001
7.097057e+002;1.611652e-001
7.116342e+002;1.592481e-001
7.135627e+002;1.584537e-001
7.154913e+002;1.569097e-001
7.174199e+002;1.547199e-001
7.193484e+002;1.534170e-001
7.212770e+002;1.530843e-001
7.232055e+002;1.532598e-001
7.251340e+002;1.544611e-001
7.270626e+002;1.553190e-001
7.289911e+002;1.535900e-001
7.309197e+002;1.492705e-001
7.328483e+002;1.429922e-001
7.347768e+002;1.365494e-001
7.367053e+002;1.308727e-001
7.386339e+002;1.262264e-001
7.405624e+002;1.224157e-001
7.424910e+002;1.199037e-001
7.444196e+002;1.178588e-001
7.463481e+002;1.150232e-001
7.482766e+002;1.138929e-001
7.502052e+002;1.136145e-001
7.521337e+002;1.107196e-001
7.540623e+002;1.075008e-001
7.559908e+002;1.060480e-001
7.579194e+002;1.048096e-001
7.598479e+002;1.043038e-001
7.617765e+002;1.038896e-001
7.637050e+002;1.029769e-001
7.656335e+002;1.013110e-001
7.675621e+002;9.978765e-002
7.694907e+002;9.922557e-002
7.714192e+002;9.811033e-002
7.733478e+002;9.628121e-002
7.752763e+002;9.478899e-002
7.772048e+002;9.418646e-002
7.791334e+002;9.302475e-002
7.810620e+002;9.142336e-002
7.829905e+002;9.048361e-002
7.849191e+002;8.900040e-002
7.868476e+002;8.784813e-002
7.887761e+002;8.720686e-002
7.907047e+002;8.586632e-002
7.926332e+002;8.441567e-002
7.945618e+002;8.348742e-002
7.964903e+002;8.265047e-002
7.984189e+002;8.196941e-002
8.003474e+002;8.119765e-002
8.022759e+002;7.963052e-002
8.042045e+002;7.789239e-002
8.061331e+002;7.620060e-002
8.080616e+002;7.550894e-002
8.099902e+002;7.579145e-002
8.119187e+002;7.551537e-002
8.138472e+002;7.417744e-002
8.157758e+002;7.375861e-002
8.177043e+002;7.395047e-002
8.196329e+002;7.378060e-002
8.215615e+002;7.292713e-002
8.234900e+002;7.225941e-002
8.254185e+002;7.244913e-002
8.273471e+002;7.323192e-002
8.292756e+002;7.437684e-002
8.312042e+002;7.577160e-002
8.331328e+002;7.595954e-002
8.350613e+002;7.393511e-002
8.369898e+002;7.129322e-002
8.389184e+002;6.939661e-002
8.408469e+002;6.783292e-002
8.427755e+002;6.600760e-002
8.447040e+002;6.450079e-002
8.466326e+002;6.371411e-002
8.485611e+002;6.335895e-002
8.504897e+002;6.314641e-002
8.524182e+002;6.245285e-002
8.543467e+002;6.169897e-002
8.562753e+002;6.167453e-002
8.582039e+002;6.154672e-002
8.601324e+002;6.107185e-002
8.620610e+002;6.093572e-002
8.639895e+002;6.098525e-002
8.659180e+002;6.113650e-002
8.678466e+002;6.118757e-002
8.697751e+002;6.129951e-002
8.717037e+002;6.101895e-002
8.736323e+002;6.072052e-002
8.755608e+002;6.055898e-002
8.774893e+002;6.069796e-002
8.794179e+002;6.062371e-002
8.813464e+002;6.039076e-002
8.832750e+002;6.071945e-002
8.852036e+002;6.112334e-002
8.871321e+002;6.127406e-002
8.890606e+002;6.153432e-002
8.909892e+002;6.138129e-002
8.929177e+002;6.124277e-002
8.948463e+002;6.119864e-002
8.967748e+002;6.107372e-002
8.987034e+002;6.108096e-002
9.006319e+002;6.103615e-002
9.025605e+002;6.136503e-002
9.044890e+002;6.225888e-002
9.064175e+002;6.265547e-002
9.083461e+002;6.308231e-002
9.102747e+002;6.375889e-002
9.122032e+002;6.482395e-002
9.141318e+002;6.556459e-002
9.160603e+002;6.610061e-002
9.179888e+002;6.723425e-002
9.199174e+002;6.827818e-002
9.218459e+002;6.962066e-002
9.237745e+002;7.144541e-002
9.257031e+002;7.331198e-002
9.276316e+002;7.471134e-002
9.295601e+002;7.524204e-002
9.314887e+002;7.432372e-002
9.334172e+002;7.240462e-002
9.353458e+002;7.038060e-002
9.372744e+002;6.925571e-002
9.392029e+002;6.941811e-002
9.411314e+002;6.976546e-002
9.430600e+002;7.048609e-002
9.449885e+002;7.151330e-002
9.469171e+002;7.284025e-002
9.488456e+002;7.469690e-002
9.507742e+002;7.638983e-002
9.527027e+002;7.686598e-002
9.546313e+002;7.719594e-002
9.565598e+002;7.827099e-002
9.584883e+002;7.891543e-002
9.604169e+002;7.858499e-002
9.623455e+002;7.774471e-002
9.642740e+002;7.676850e-002
9.662026e+002;7.586325e-002
9.681311e+002;7.526154e-002
9.700596e+002;7.497584e-002
9.719882e+002;7.472118e-002
9.739167e+002;7.440536e-002
9.758453e+002;7.396457e-002
9.777739e+002;7.356898e-002
9.797024e+002;7.322259e-002
9.816309e+002;7.296413e-002
9.835595e+002;7.271978e-002
9.854880e+002;7.219211e-002
9.874166e+002;7.162707e-002
9.893452e+002;7.114156e-002
9.912737e+002;7.070201e-002
9.932022e+002;7.019591e-002
9.951307e+002;6.961114e-002
9.970593e+002;6.909108e-002
9.989879e+002;6.876504e-002
1.000916e+003;6.836384e-002
1.002845e+003;6.770054e-002
1.004773e+003;6.755075e-002
1.006702e+003;6.787991e-002
1.008631e+003;6.790788e-002
1.010559e+003;6.785481e-002
1.012488e+003;6.793415e-002
1.014416e+003;6.788699e-002
1.016345e+003;6.816578e-002
1.018273e+003;6.858787e-002
1.020202e+003;6.881465e-002
1.022130e+003;6.935898e-002
1.024059e+003;7.022525e-002
1.025988e+003;7.126234e-002
1.027916e+003;7.234931e-002
1.029845e+003;7.273822e-002
1.031773e+003;7.198108e-002
1.033702e+003;7.059737e-002
1.035630e+003;6.947643e-002
1.037559e+003;6.885196e-002
1.039487e+003;6.906226e-002
1.041416e+003;6.933387e-002
1.043344e+003;6.944960e-002
1.045273e+003;6.948035e-002
1.047202e+003;6.935136e-002
1.049130e+003;6.960239e-002
1.051059e+003;7.070513e-002
1.052987e+003;7.185747e-002
1.054916e+003;7.289131e-002
1.056844e+003;7.413279e-002
1.058773e+003;7.545860e-002
1.060701e+003;7.703018e-002
1.062630e+003;7.845731e-002
1.064558e+003;7.924780e-002
1.066487e+003;8.006901e-002
1.068416e+003;8.116753e-002
1.070344e+003;8.177029e-002
1.072273e+003;8.210357e-002
1.074201e+003;8.236384e-002
1.076130e+003;8.215384e-002
1.078058e+003;8.193316e-002
1.079987e+003;8.152612e-002
1.081915e+003;8.067303e-002
1.083844e+003;8.027241e-002
1.085773e+003;8.020847e-002
1.087701e+003;8.012176e-002
1.089630e+003;8.029983e-002
1.091558e+003;8.104444e-002
1.093487e+003;8.146421e-002
1.095415e+003;8.150518e-002
1.097344e+003;8.197325e-002
1.099272e+003;8.305234e-002
1.101201e+003;8.449919e-002
1.103129e+003;8.619706e-002
1.105058e+003;8.807168e-002
1.106987e+003;9.011804e-002
1.108915e+003;9.152615e-002
1.110844e+003;9.212520e-002
1.112772e+003;9.215461e-002
1.114701e+003;9.204496e-002
1.116629e+003;9.226036e-002
1.118558e+003;9.210779e-002
1.120486e+003;9.126446e-002
1.122415e+003;8.974127e-002
1.124344e+003;8.750118e-002
1.126272e+003;8.466308e-002
1.128201e+003;8.128358e-002
1.130129e+003;7.843560e-002
1.132058e+003;7.665448e-002
1.133986e+003;7.523494e-002
1.135915e+003;7.440516e-002
1.137843e+003;7.446415e-002
1.139772e+003;7.496525e-002
1.141700e+003;7.606975e-002
1.143629e+003;7.728944e-002
1.145557e+003;7.882655e-002
1.147486e+003;8.068500e-002
1.149415e+003;8.227272e-002
1.151343e+003;8.391639e-002
1.153272e+003;8.614679e-002
1.155200e+003;8.919827e-002
1.157129e+003;9.284036e-002
1.159057e+003;9.647200e-002
1.160986e+003;1.010724e-001
1.162914e+003;1.065899e-001
1.164843e+003;1.116689e-001
1.166771e+003;1.159348e-001
1.168700e+003;1.184718e-001
1.170629e+003;1.184326e-001
1.172557e+003;1.160533e-001
1.174486e+003;1.122106e-001
1.176414e+003;1.082173e-001
1.178343e+003;1.045468e-001
1.180271e+003;1.018384e-001
1.182200e+003;1.006475e-001
1.184128e+003;1.011383e-001
1.186057e+003;1.029325e-001
1.187986e+003;1.060763e-001
1.189914e+003;1.101131e-001
1.191843e+003;1.143259e-001
1.193771e+003;1.187143e-001
1.195700e+003;1.235760e-001
1.197628e+003;1.282004e-001
1.199557e+003;1.297363e-001
1.201485e+003;1.274130e-001
1.203414e+003;1.232273e-001
1.205343e+003;1.192512e-001
1.207271e+003;1.169731e-001
1.209200e+003;1.160582e-001
1.211128e+003;1.155028e-001
1.213057e+003;1.149809e-001
1.214985e+003;1.136071e-001
1.216914e+003;1.108871e-001
1.218842e+003;1.080890e-001
1.220771e+003;1.065201e-001
1.222699e+003;1.067931e-001
1.224628e+003;1.087700e-001
1.226557e+003;1.119130e-001
1.228485e+003;1.155081e-001
1.230414e+003;1.191746e-001
1.232342e+003;1.232477e-001
1.234271e+003;1.266980e-001
1.236199e+003;1.283468e-001
1.238128e+003;1.290915e-001
1.240056e+003;1.293795e-001
1.241985e+003;1.292503e-001
1.243913e+003;1.289835e-001
1.245842e+003;1.291384e-001
1.247771e+003;1.301946e-001
1.249699e+003;1.325187e-001
1.251628e+003;1.355265e-001
1.253556e+003;1.387607e-001
1.255485e+003;1.420227e-001
1.257413e+003;1.447887e-001
1.259342e+003;1.467627e-001
1.261270e+003;1.478880e-001
1.263199e+003;1.465571e-001
1.265127e+003;1.419335e-001
1.267056e+003;1.351927e-001
1.268985e+003;1.287571e-001
1.270913e+003;1.239995e-001
1.272842e+003;1.214359e-001
1.274770e+003;1.204078e-001
1.276699e+003;1.201114e-001
1.278627e+003;1.198333e-001
1.280556e+003;1.189415e-001
1.282484e+003;1.174780e-001
1.284413e+003;1.158992e-001
1.286342e+003;1.145902e-001
1.288270e+003;1.137630e-001
1.290199e+003;1.131868e-001
1.292127e+003;1.123900e-001
1.294056e+003;1.110519e-001
1.295984e+003;1.099049e-001
1.297913e+003;1.094353e-001
1.299841e+003;1.090605e-001
1.301770e+003;1.083683e-001
1.303698e+003;1.076012e-001
1.305627e+003;1.067076e-001
1.307556e+003;1.055439e-001
1.309484e+003;1.043571e-001
1.311413e+003;1.032594e-001
1.313341e+003;1.025136e-001
1.315270e+003;1.017983e-001
1.317198e+003;1.009805e-001
1.319127e+003;1.001129e-001
1.321055e+003;9.927201e-002
1.322984e+003;9.878239e-002
1.324912e+003;9.852369e-002
1.326841e+003;9.850133e-002
1.328770e+003;9.875169e-002
1.330698e+003;9.920609e-002
1.332627e+003;9.959986e-002
1.334555e+003;9.993906e-002
1.336484e+003;1.000601e-001
1.338412e+003;1.000360e-001
1.340341e+003;1.004981e-001
1.342269e+003;1.015049e-001
1.344198e+003;1.024607e-001
1.346126e+003;1.032334e-001
1.348055e+003;1.042614e-001
1.349984e+003;1.056326e-001
1.351912e+003;1.070663e-001
1.353841e+003;1.085186e-001
1.355769e+003;1.100482e-001
1.357698e+003;1.115504e-001
1.359626e+003;1.130491e-001
1.361555e+003;1.142785e-001
1.363483e+003;1.157206e-001
1.365412e+003;1.177008e-001
1.367341e+003;1.192808e-001
1.369269e+003;1.205295e-001
1.371198e+003;1.212598e-001
1.373126e+003;1.206721e-001
1.375055e+003;1.192382e-001
1.376983e+003;1.173141e-001
1.378912e+003;1.143775e-001
1.380840e+003;1.108429e-001
1.382769e+003;1.074400e-001
1.384698e+003;1.043310e-001
1.386626e+003;1.011761e-001
1.388555e+003;9.900166e-002
1.390483e+003;9.743816e-002
1.392412e+003;9.566550e-002
1.394340e+003;9.444827e-002
1.396269e+003;9.420078e-002
1.398197e+003;9.437694e-002
1.400126e+003;9.566100e-002
1.402054e+003;9.780921e-002
1.403983e+003;1.003074e-001
1.405911e+003;1.041834e-001
1.407840e+003;1.093812e-001
1.409769e+003;1.151947e-001
1.411697e+003;1.214630e-001
1.413626e+003;1.271291e-001
1.415554e+003;1.303387e-001
1.417483e+003;1.304141e-001
1.419411e+003;1.284834e-001
1.421340e+003;1.262814e-001
1.423268e+003;1.238262e-001
1.425197e+003;1.220595e-001
1.427125e+003;1.219045e-001
1.429054e+003;1.230406e-001
1.430983e+003;1.252066e-001
1.432911e+003;1.274875e-001
1.434840e+003;1.278453e-001
1.436768e+003;1.271001e-001
1.438697e+003;1.274384e-001
1.440625e+003;1.271679e-001
1.442554e+003;1.263410e-001
1.444482e+003;1.259009e-001
1.446411e+003;1.261597e-001
1.448340e+003;1.272521e-001
1.450268e+003;1.290211e-001
1.452197e+003;1.305986e-001
1.454125e+003;1.313726e-001
1.456054e+003;1.317989e-001
1.457982e+003;1.358431e-001
1.459911e+003;1.423961e-001
1.461839e+003;1.465439e-001
1.463768e+003;1.455108e-001
1.465697e+003;1.404629e-001
1.467625e+003;1.342361e-001
1.469554e+003;1.289859e-001
1.471482e+003;1.261903e-001
1.473411e+003;1.271087e-001
1.475339e+003;1.290670e-001
1.477268e+003;1.289206e-001
1.479196e+003;1.264755e-001
1.481125e+003;1.218867e-001
1.483053e+003;1.164652e-001
1.484982e+003;1.112997e-001
1.486911e+003;1.077012e-001
1.488839e+003;1.063550e-001
1.490768e+003;1.076974e-001
1.492696e+003;1.106227e-001
1.494625e+003;1.130079e-001
1.496553e+003;1.160038e-001
1.498482e+003;1.207325e-001
1.500410e+003;1.257611e-001
1.502339e+003;1.303819e-001
1.504267e+003;1.337406e-001
1.506196e+003;1.375190e-001
1.508125e+003;1.448078e-001
1.510053e+003;1.529049e-001
1.511982e+003;1.600019e-001
1.513910e+003;1.670954e-001
1.515839e+003;1.739812e-001
1.517767e+003;1.815616e-001
1.519696e+003;1.889788e-001
1.521624e+003;1.969233e-001
1.523553e+003;2.069223e-001
1.525481e+003;2.165900e-001
1.527410e+003;2.256997e-001
1.529339e+003;2.342271e-001
1.531267e+003;2.414411e-001
1.533196e+003;2.471479e-001
1.535124e+003;2.518448e-001
1.537053e+003;2.529222e-001
1.538981e+003;2.495548e-001
1.540910e+003;2.454827e-001
1.542838e+003;2.405739e-001
1.544767e+003;2.330463e-001
1.546695e+003;2.237013e-001
1.548624e+003;2.131177e-001
1.550553e+003;2.025878e-001
1.552481e+003;1.922462e-001
1.554410e+003;1.821153e-001
1.556338e+003;1.726026e-001
1.558267e+003;1.625652e-001
1.560195e+003;1.557892e-001
1.562124e+003;1.513776e-001
1.564052e+003;1.451718e-001
1.565981e+003;1.381735e-001
1.567910e+003;1.310031e-001
1.569838e+003;1.244693e-001
1.571767e+003;1.197490e-001
1.573695e+003;1.143586e-001
1.575624e+003;1.080466e-001
1.577552e+003;1.046417e-001
1.579481e+003;1.027333e-001
1.581409e+003;1.003474e-001
1.583338e+003;9.843470e-002
1.585266e+003;9.718623e-002
1.587195e+003;9.681956e-002
1.589124e+003;9.691697e-002
1.591052e+003;9.743430e-002
1.592981e+003;9.843420e-002
1.594909e+003;1.001149e-001
1.596838e+003;1.026392e-001
1.598766e+003;1.059150e-001
1.600695e+003;1.098669e-001
1.602623e+003;1.148935e-001
1.604552e+003;1.208312e-001
1.606480e+003;1.271393e-001
1.608409e+003;1.337491e-001
1.610338e+003;1.410312e-001
1.612266e+003;1.492484e-001
1.614195e+003;1.579773e-001
1.616123e+003;1.672447e-001
1.618052e+003;1.801017e-001
1.619980e+003;1.945259e-001
1.621909e+003;2.081417e-001
1.623837e+003;2.221465e-001
1.625766e+003;2.367526e-001
1.627694e+003;2.518212e-001
1.629623e+003;2.678093e-001
1.631552e+003;2.839317e-001
1.633480e+003;2.968370e-001
1.635409e+003;3.048717e-001
1.637337e+003;3.084980e-001
1.639266e+003;3.036159e-001
1.641194e+003;2.909357e-001
1.643123e+003;2.743386e-001
1.645051e+003;2.549608e-001
1.646980e+003;2.361997e-001
1.648909e+003;2.202206e-001
1.650837e+003;2.035006e-001
1.652766e+003;1.870643e-001
1.654694e+003;1.775606e-001
1.656623e+003;1.705637e-001
1.658551e+003;1.621269e-001
1.660480e+003;1.536106e-001
1.662408e+003;1.447673e-001
1.664337e+003;1.363359e-001
1.666266e+003;1.277683e-001
1.668194e+003;1.187820e-001
1.670123e+003;1.110557e-001
1.672051e+003;1.050198e-001
1.673980e+003;9.883601e-002
1.675908e+003;9.292550e-002
1.677837e+003;8.768315e-002
1.679765e+003;8.184325e-002
1.681694e+003;7.521950e-002
1.683622e+003;6.773586e-002
1.685551e+003;6.380586e-002
1.687479e+003;6.217086e-002
1.689408e+003;5.952165e-002
1.691337e+003;5.727877e-002
1.693265e+003;5.450675e-002
1.695194e+003;5.087690e-002
1.697122e+003;4.981558e-002
1.699051e+003;4.866422e-002
1.700979e+003;4.819370e-002
1.702908e+003;4.961748e-002
1.704836e+003;4.929560e-002
1.706765e+003;4.899524e-002
1.708693e+003;4.909191e-002
1.710622e+003;4.914029e-002
1.712551e+003;4.847587e-002
1.714479e+003;4.734028e-002
1.716408e+003;4.602397e-002
1.718336e+003;4.640265e-002
1.720265e+003;4.820643e-002
1.722193e+003;4.887857e-002
1.724122e+003;4.877850e-002
1.726050e+003;4.890412e-002
1.727979e+003;4.882258e-002
1.729908e+003;4.858965e-002
1.731836e+003;4.725851e-002
1.733765e+003;4.529228e-002
1.735693e+003;4.599550e-002
1.737622e+003;4.638325e-002
1.739550e+003;4.489241e-002
1.741479e+003;4.405773e-002
1.743407e+003;4.319782e-002
1.745336e+003;4.212029e-002
1.747265e+003;4.077543e-002
1.749193e+003;3.918109e-002
1.751122e+003;3.794425e-002
1.753050e+003;3.771697e-002
1.754979e+003;3.717434e-002
1.756907e+003;3.628464e-002
1.758836e+003;3.558459e-002
1.760764e+003;3.454872e-002
1.762693e+003;3.392311e-002
1.764621e+003;3.384613e-002
1.766550e+003;3.307804e-002
1.768479e+003;3.212668e-002
1.770407e+003;3.086292e-002
1.772336e+003;2.977872e-002
1.774264e+003;3.018504e-002
1.776193e+003;3.033460e-002
1.778121e+003;2.997511e-002
1.780050e+003;2.962382e-002
1.781978e+003;2.932431e-002
1.783907e+003;2.874770e-002
1.785835e+003;2.845772e-002
1.787764e+003;2.830311e-002
1.789693e+003;2.754398e-002
1.791621e+003;2.659310e-002
1.793550e+003;2.654963e-002
1.795478e+003;2.703249e-002
1.797407e+003;2.683295e-002
1.799335e+003;2.637003e-002
1.801264e+003;2.599090e-002
1.803192e+003;2.603639e-002
1.805121e+003;2.606650e-002
1.807049e+003;2.578639e-002
1.808978e+003;2.549978e-002
1.810907e+003;2.543443e-002
1.812835e+003;2.528813e-002
1.814764e+003;2.520905e-002
1.816692e+003;2.503326e-002
1.818621e+003;2.484675e-002
1.820549e+003;2.479914e-002
1.822478e+003;2.473007e-002
1.824406e+003;2.430278e-002
1.826335e+003;2.416148e-002
1.828264e+003;2.392821e-002
1.830192e+003;2.374861e-002
1.832121e+003;2.399666e-002
1.834049e+003;2.406369e-002
1.835978e+003;2.401445e-002
1.837906e+003;2.398301e-002
1.839835e+003;2.389670e-002
1.841763e+003;2.339854e-002
1.843692e+003;2.248289e-002
1.845620e+003;2.243208e-002
1.847549e+003;2.275358e-002
1.849478e+003;2.284985e-002
1.851406e+003;2.292051e-002
1.853335e+003;2.281472e-002
1.855263e+003;2.265890e-002
1.857192e+003;2.265561e-002
1.859120e+003;2.263013e-002
1.861049e+003;2.266829e-002
1.862977e+003;2.264336e-002
1.864906e+003;2.244562e-002
1.866834e+003;2.195776e-002
1.868763e+003;2.161387e-002
1.870692e+003;2.202318e-002
1.872620e+003;2.251736e-002
1.874549e+003;2.259247e-002
1.876477e+003;2.246781e-002
1.878406e+003;2.246561e-002
1.880334e+003;2.251286e-002
1.882263e+003;2.249527e-002
1.884191e+003;2.266176e-002
1.886120e+003;2.273479e-002
1.888048e+003;2.265247e-002
1.889977e+003;2.262144e-002
1.891906e+003;2.285946e-002
1.893834e+003;2.304638e-002
1.895763e+003;2.301595e-002
1.897691e+003;2.297619e-002
1.899620e+003;2.310414e-002
1.901548e+003;2.322094e-002
1.903477e+003;2.300260e-002
1.905405e+003;2.281678e-002
1.907334e+003;2.278713e-002
1.909262e+003;2.258489e-002
1.911191e+003;2.237232e-002
1.913120e+003;2.232941e-002
1.915048e+003;2.235446e-002
1.916977e+003;2.192821e-002
1.918905e+003;2.163222e-002
1.920834e+003;2.183304e-002
1.922762e+003;2.195759e-002
1.924691e+003;2.199321e-002
1.926619e+003;2.204424e-002
1.928548e+003;2.211212e-002
1.930477e+003;2.218753e-002
1.932405e+003;2.231685e-002
1.934334e+003;2.227423e-002
1.936262e+003;2.206209e-002
1.938191e+003;2.189580e-002
1.940119e+003;2.201782e-002
1.942048e+003;2.207153e-002
1.943976e+003;2.200652e-002
1.945905e+003;2.195532e-002
1.947833e+003;2.201105e-002
1.949762e+003;2.201492e-002
1.951691e+003;2.202918e-002
1.953619e+003;2.210187e-002
1.955548e+003;2.209259e-002
1.957476e+003;2.208450e-002
1.959405e+003;2.225808e-002
1.961333e+003;2.250693e-002
1.963262e+003;2.258887e-002
1.965190e+003;2.251684e-002
1.967119e+003;2.258109e-002
1.969047e+003;2.278221e-002
1.970976e+003;2.289725e-002
1.972905e+003;2.293867e-002
1.974833e+003;2.290511e-002
1.976762e+003;2.298398e-002
1.978690e+003;2.291632e-002
1.980619e+003;2.286861e-002
1.982547e+003;2.304121e-002
1.984476e+003;2.298748e-002
1.986404e+003;2.294168e-002
1.988333e+003;2.292973e-002
1.990261e+003;2.291908e-002
1.992190e+003;2.285715e-002
1.994119e+003;2.290535e-002
1.996047e+003;2.291384e-002
1.997976e+003;2.298402e-002
1.999904e+003;2.300194e-002
2.001833e+003;2.282589e-002
2.003761e+003;2.298143e-002
2.005690e+003;2.312221e-002
2.007618e+003;2.299111e-002
2.009547e+003;2.309872e-002
2.011476e+003;2.351182e-002
2.013404e+003;2.365094e-002
2.015333e+003;2.357894e-002
2.017261e+003;2.340323e-002
2.019190e+003;2.334280e-002
2.021118e+003;2.357275e-002
2.023047e+003;2.385834e-002
2.024975e+003;2.396000e-002
2.026904e+003;2.383033e-002
2.028833e+003;2.393084e-002
2.030761e+003;2.421967e-002
2.032690e+003;2.423957e-002
2.034618e+003;2.429220e-002
2.036547e+003;2.446701e-002
2.038475e+003;2.458537e-002
2.040404e+003;2.461904e-002
2.042332e+003;2.466249e-002
2.044261e+003;2.465116e-002
2.046189e+003;2.476392e-002
2.048118e+003;2.486275e-002
2.050047e+003;2.485141e-002
2.051975e+003;2.482819e-002
2.053904e+003;2.484699e-002
2.055832e+003;2.500947e-002
2.057761e+003;2.515252e-002
2.059689e+003;2.536835e-002
2.061618e+003;2.557101e-002
2.063546e+003;2.561150e-002
2.065475e+003;2.571984e-002
2.067404e+003;2.589431e-002
2.069332e+003;2.586751e-002
2.071260e+003;2.571808e-002
2.073189e+003;2.553155e-002
2.075118e+003;2.547083e-002
2.077046e+003;2.568292e-002
2.078975e+003;2.585180e-002
2.080903e+003;2.569512e-002
2.082832e+003;2.537752e-002
2.084760e+003;2.516726e-002
2.086689e+003;2.515108e-002
2.088617e+003;2.518861e-002
2.090546e+003;2.522067e-002
2.092475e+003;2.524911e-002
2.094403e+003;2.503031e-002
2.096332e+003;2.485545e-002
2.098260e+003;2.486576e-002
2.100189e+003;2.481984e-002
2.102117e+003;2.471674e-002
2.104046e+003;2.465701e-002
2.105974e+003;2.466743e-002
2.107903e+003;2.470601e-002
2.109832e+003;2.470895e-002
2.111760e+003;2.478890e-002
2.113688e+003;2.499701e-002
2.115617e+003;2.528774e-002
2.117546e+003;2.529621e-002
2.119474e+003;2.498230e-002
2.121403e+003;2.493243e-002
2.123331e+003;2.508827e-002
2.125260e+003;2.516470e-002
2.127188e+003;2.513514e-002
2.129117e+003;2.489496e-002
2.131045e+003;2.485808e-002
2.132974e+003;2.515417e-002
2.134903e+003;2.538648e-002
2.136831e+003;2.532030e-002
2.138760e+003;2.512232e-002
2.140688e+003;2.494573e-002
2.142617e+003;2.477858e-002
2.144545e+003;2.472877e-002
2.146474e+003;2.481949e-002
2.148402e+003;2.476153e-002
2.150331e+003;2.476013e-002
2.152260e+003;2.500613e-002
2.154188e+003;2.506061e-002
2.156117e+003;2.485113e-002
2.158045e+003;2.508711e-002
2.159974e+003;2.547406e-002
2.161902e+003;2.547782e-002
2.163831e+003;2.551588e-002
2.165759e+003;2.569547e-002
2.167688e+003;2.571808e-002
2.169616e+003;2.575949e-002
2.171545e+003;2.582992e-002
2.173474e+003;2.583165e-002
2.175402e+003;2.605633e-002
2.177331e+003;2.648817e-002
2.179259e+003;2.647127e-002
2.181188e+003;2.613181e-002
2.183116e+003;2.615229e-002
2.185045e+003;2.646602e-002
2.186973e+003;2.643725e-002
2.188902e+003;2.622789e-002
2.190831e+003;2.631022e-002
2.192759e+003;2.669551e-002
2.194688e+003;2.678199e-002
2.196616e+003;2.662681e-002
2.198545e+003;2.650367e-002
2.200473e+003;2.620744e-002
2.202402e+003;2.619811e-002
2.204330e+003;2.630540e-002
2.206259e+003;2.624858e-002
2.208188e+003;2.629843e-002
2.210116e+003;2.633120e-002
2.212044e+003;2.619223e-002
2.213973e+003;2.592101e-002
2.215902e+003;2.580401e-002
2.217830e+003;2.584297e-002
2.219759e+003;2.581899e-002
2.221687e+003;2.563101e-002
2.223616e+003;2.541486e-002
2.225544e+003;2.519735e-002
2.227473e+003;2.519114e-002
2.229401e+003;2.500375e-002
2.231330e+003;2.468851e-002
2.233259e+003;2.474312e-002
2.235187e+003;2.485475e-002
2.237116e+003;2.510368e-002
2.239044e+003;2.524205e-002
2.240973e+003;2.528233e-002
2.242901e+003;2.548914e-002
2.244830e+003;2.545815e-002
2.246758e+003;2.540559e-002
2.248687e+003;2.551096e-002
2.250615e+003;2.557523e-002
2.252544e+003;2.553545e-002
2.254473e+003;2.547645e-002
2.256401e+003;2.572131e-002
2.258330e+003;2.584740e-002
2.260258e+003;2.573228e-002
2.262187e+003;2.583681e-002
2.264115e+003;2.591738e-002
2.266044e+003;2.567582e-002
2.267972e+003;2.555689e-002
2.269901e+003;2.592780e-002
2.271830e+003;2.611728e-002
2.273758e+003;2.579704e-002
2.275687e+003;2.557808e-002
2.277615e+003;2.597243e-002
2.279544e+003;2.623112e-002
2.281472e+003;2.606703e-002
2.283401e+003;2.613058e-002
2.285329e+003;2.628318e-002
2.287258e+003;2.642225e-002
2.289187e+003;2.650149e-002
2.291115e+003;2.637053e-002
2.293043e+003;2.640651e-002
2.294972e+003;2.636908e-002
2.296901e+003;2.630262e-002
2.298829e+003;2.634701e-002
2.300758e+003;2.643236e-002
2.302686e+003;2.646539e-002
2.304615e+003;2.657221e-002
2.306543e+003;2.678851e-002
2.308472e+003;2.692157e-002
2.310400e+003;2.708796e-002
2.312329e+003;2.721003e-002
2.314258e+003;2.704628e-002
2.316186e+003;2.687320e-002
2.318115e+003;2.695545e-002
2.320043e+003;2.692065e-002
2.321972e+003;2.673012e-002
2.323900e+003;2.664302e-002
2.325829e+003;2.652853e-002
2.327757e+003;2.615018e-002
2.329686e+003;2.592695e-002
2.331615e+003;2.599512e-002
2.333543e+003;2.603632e-002
2.335472e+003;2.596526e-002
2.337400e+003;2.584983e-002
2.339329e+003;2.579715e-002
2.341257e+003;2.573207e-002
2.343186e+003;2.592277e-002
2.345114e+003;2.637324e-002
2.347043e+003;2.663146e-002
2.348971e+003;2.650314e-002
2.350900e+003;2.617108e-002
2.352829e+003;2.585422e-002
2.354757e+003;2.585025e-002
2.356686e+003;2.588527e-002
2.358614e+003;2.561238e-002
2.360543e+003;2.555980e-002
2.362471e+003;2.580552e-002
2.364400e+003;2.594380e-002
2.366328e+003;2.590005e-002
2.368257e+003;2.587515e-002
2.370186e+003;2.627255e-002
2.372114e+003;2.679045e-002
2.374042e+003;2.690867e-002
2.375971e+003;2.697054e-002
2.377900e+003;2.710729e-002
2.379828e+003;2.730296e-002
2.381757e+003;2.752160e-002
2.383685e+003;2.762533e-002
2.385614e+003;2.767406e-002
2.387542e+003;2.784781e-002
2.389471e+003;2.795861e-002
2.391399e+003;2.794384e-002
2.393328e+003;2.778083e-002
2.395257e+003;2.754582e-002
2.397185e+003;2.749516e-002
2.399114e+003;2.765538e-002
2.401042e+003;2.754017e-002
2.402971e+003;2.746865e-002
2.404899e+003;2.764631e-002
2.406828e+003;2.774261e-002
2.408756e+003;2.779040e-002
2.410685e+003;2.773576e-002
2.412614e+003;2.766548e-002
2.414542e+003;2.768900e-002
2.416471e+003;2.787593e-002
2.418399e+003;2.803148e-002
2.420328e+003;2.813880e-002
2.422256e+003;2.826400e-002
2.424185e+003;2.828472e-002
2.426113e+003;2.817143e-002
2.428042e+003;2.823337e-002
2.429970e+003;2.834265e-002
2.431899e+003;2.836776e-002
2.433828e+003;2.842492e-002
2.435756e+003;2.865252e-002
2.437685e+003;2.871191e-002
2.439613e+003;2.875397e-002
2.441542e+003;2.888912e-002
2.443470e+003;2.895768e-002
2.445399e+003;2.911415e-002
2.447327e+003;2.913088e-002
2.449256e+003;2.905421e-002
2.451185e+003;2.915901e-002
2.453113e+003;2.932970e-002
2.455042e+003;2.957462e-002
2.456970e+003;2.957025e-002
2.458899e+003;2.965638e-002
2.460827e+003;3.000234e-002
2.462756e+003;3.016267e-002
2.464684e+003;3.005116e-002
2.466613e+003;2.999197e-002
2.468542e+003;3.013347e-002
2.470470e+003;3.030923e-002
2.472398e+003;3.055797e-002
2.474327e+003;3.094891e-002
2.476256e+003;3.098349e-002
2.478184e+003;3.086487e-002
2.480113e+003;3.078633e-002
2.482041e+003;3.053348e-002
2.483970e+003;3.048930e-002
2.485898e+003;3.066001e-002
2.487827e+003;3.059470e-002
2.489755e+003;3.068167e-002
2.491684e+003;3.073920e-002
2.493613e+003;3.057194e-002
2.495541e+003;3.042586e-002
2.497470e+003;3.034412e-002
2.499398e+003;3.053337e-002
2.501327e+003;3.096616e-002
2.503255e+003;3.112941e-002
2.505184e+003;3.091457e-002
2.507112e+003;3.113824e-002
2.509041e+003;3.143821e-002
2.510969e+003;3.139779e-002
2.512898e+003;3.142543e-002
2.514827e+003;3.153900e-002
2.516755e+003;3.178556e-002
2.518684e+003;3.198485e-002
2.520612e+003;3.220721e-002
2.522541e+003;3.244619e-002
2.524469e+003;3.246197e-002
2.526398e+003;3.260985e-002
2.528326e+003;3.276057e-002
2.530255e+003;3.286152e-002
2.532184e+003;3.330483e-002
2.534112e+003;3.378613e-002
2.536041e+003;3.385881e-002
2.537969e+003;3.402121e-002
2.539898e+003;3.445387e-002
2.541826e+003;3.464657e-002
2.543755e+003;3.446040e-002
2.545683e+003;3.457674e-002
2.547612e+003;3.489350e-002
2.549541e+003;3.486269e-002
2.551469e+003;3.437816e-002
2.553397e+003;3.419411e-002
2.555326e+003;3.456914e-002
2.557255e+003;3.473367e-002
2.559183e+003;3.498018e-002
2.561112e+003;3.523348e-002
2.563040e+003;3.515131e-002
2.564969e+003;3.525421e-002
2.566897e+003;3.554687e-002
2.568826e+003;3.560926e-002
2.570754e+003;3.550228e-002
2.572683e+003;3.552324e-002
2.574612e+003;3.591058e-002
2.576540e+003;3.601453e-002
2.578469e+003;3.605287e-002
2.580397e+003;3.627524e-002
2.582326e+003;3.643502e-002
2.584254e+003;3.670175e-002
2.586183e+003;3.686508e-002
2.588111e+003;3.687446e-002
2.590040e+003;3.699065e-002
2.591969e+003;3.723105e-002
2.593897e+003;3.740552e-002
2.595826e+003;3.746439e-002
2.597754e+003;3.760593e-002
2.599683e+003;3.783333e-002
2.601611e+003;3.775254e-002
2.603540e+003;3.779920e-002
2.605468e+003;3.802485e-002
2.607397e+003;3.812324e-002
2.609325e+003;3.813767e-002
2.611254e+003;3.816835e-002
2.613183e+003;3.813170e-002
2.615111e+003;3.816216e-002
2.617040e+003;3.804098e-002
2.618968e+003;3.785494e-002
2.620897e+003;3.804510e-002
2.622825e+003;3.837160e-002
2.624754e+003;3.853122e-002
2.626682e+003;3.853270e-002
2.628611e+003;3.865818e-002
2.630540e+003;3.881891e-002
2.632468e+003;3.897764e-002
2.634396e+003;3.905282e-002
2.636325e+003;3.896086e-002
2.638254e+003;3.909632e-002
2.640182e+003;3.926534e-002
2.642111e+003;3.946168e-002
2.644039e+003;3.951037e-002
2.645968e+003;3.959468e-002
2.647896e+003;3.989961e-002
2.649825e+003;4.015812e-002
2.651753e+003;4.027833e-002
2.653682e+003;4.030930e-002
2.655611e+003;4.026346e-002
2.657539e+003;4.036366e-002
2.659468e+003;4.043202e-002
2.661396e+003;4.047359e-002
2.663325e+003;4.061335e-002
2.665253e+003;4.085201e-002
2.667182e+003;4.120103e-002
2.669110e+003;4.157866e-002
2.671039e+003;4.176455e-002
2.672968e+003;4.162916e-002
2.674896e+003;4.175350e-002
2.676825e+003;4.209411e-002
2.678753e+003;4.229125e-002
2.680682e+003;4.251889e-002
2.682610e+003;4.256979e-002
2.684539e+003;4.273374e-002
2.686467e+003;4.313674e-002
2.688396e+003;4.340275e-002
2.690324e+003;4.385344e-002
2.692253e+003;4.442405e-002
2.694182e+003;4.480273e-002
2.696110e+003;4.500332e-002
2.698039e+003;4.536165e-002
2.699967e+003;4.570772e-002
2.701896e+003;4.571442e-002
2.703824e+003;4.567540e-002
2.705753e+003;4.594934e-002
2.707681e+003;4.634801e-002
2.709610e+003;4.674320e-002
2.711539e+003;4.715893e-002
2.713467e+003;4.735092e-002
2.715396e+003;4.757216e-002
2.717324e+003;4.812458e-002
2.719253e+003;4.861652e-002
2.721181e+003;4.888398e-002
2.723110e+003;4.933101e-002
2.725038e+003;4.980369e-002
2.726967e+003;5.027792e-002
2.728896e+003;5.088506e-002
2.730824e+003;5.114005e-002
2.732752e+003;5.115828e-002
2.734681e+003;5.162597e-002
2.736610e+003;5.232873e-002
2.738538e+003;5.272215e-002
2.740467e+003;5.298571e-002
2.742395e+003;5.327086e-002
2.744324e+003;5.337032e-002
2.746252e+003;5.358142e-002
2.748181e+003;5.362547e-002
2.750109e+003;5.337429e-002
2.752038e+003;5.333451e-002
2.753967e+003;5.350849e-002
2.755895e+003;5.361100e-002
2.757824e+003;5.360178e-002
2.759752e+003;5.368231e-002
2.761681e+003;5.389371e-002
2.763609e+003;5.398679e-002
2.765538e+003;5.410961e-002
2.767466e+003;5.456490e-002
2.769395e+003;5.488079e-002
2.771323e+003;5.502771e-002
2.773252e+003;5.540638e-002
2.775181e+003;5.585117e-002
2.777109e+003;5.638374e-002
2.779038e+003;5.694776e-002
2.780966e+003;5.729204e-002
2.782895e+003;5.768525e-002
2.784823e+003;5.836294e-002
2.786752e+003;5.904438e-002
2.788680e+003;5.933829e-002
2.790609e+003;5.943197e-002
2.792538e+003;5.961267e-002
2.794466e+003;6.033734e-002
2.796395e+003;6.133542e-002
2.798323e+003;6.173010e-002
2.800252e+003;6.204849e-002
2.802180e+003;6.235717e-002
2.804109e+003;6.274976e-002
2.806037e+003;6.342006e-002
2.807966e+003;6.392112e-002
2.809895e+003;6.441069e-002
2.811823e+003;6.469245e-002
2.813751e+003;6.494925e-002
2.815680e+003;6.562081e-002
2.817609e+003;6.641238e-002
2.819537e+003;6.706532e-002
2.821466e+003;6.751645e-002
2.823394e+003;6.815229e-002
2.825323e+003;6.884998e-002
2.827251e+003;6.945901e-002
2.829180e+003;7.018879e-002
2.831108e+003;7.141518e-002
2.833037e+003;7.272240e-002
2.834966e+003;7.391268e-002
2.836894e+003;7.543100e-002
2.838823e+003;7.760978e-002
2.840751e+003;8.017540e-002
2.842680e+003;8.310385e-002
2.844608e+003;8.666924e-002
2.846537e+003;9.074001e-002
2.848465e+003;9.480581e-002
2.850394e+003;9.829025e-002
2.852323e+003;1.015118e-001
2.854251e+003;1.041939e-001
2.856180e+003;1.060598e-001
2.858108e+003;1.078292e-001
2.860037e+003;1.094539e-001
2.861965e+003;1.098232e-001
2.863894e+003;1.092089e-001
2.865822e+003;1.086148e-001
2.867751e+003;1.077270e-001
2.869679e+003;1.061273e-001
2.871608e+003;1.038551e-001
2.873536e+003;1.013591e-001
2.875465e+003;9.889734e-002
2.877394e+003;9.641068e-002
2.879322e+003;9.389368e-002
2.881251e+003;9.206007e-002
2.883179e+003;9.127027e-002
2.885108e+003;9.078023e-002
2.887036e+003;9.108984e-002
2.888965e+003;9.202198e-002
2.890893e+003;9.323169e-002
2.892822e+003;9.467599e-002
2.894750e+003;9.627476e-002
2.896679e+003;9.812932e-002
2.898608e+003;9.972707e-002
2.900536e+003;1.004857e-001
2.902465e+003;1.013111e-001
2.904393e+003;1.024499e-001
2.906322e+003;1.037085e-001
2.908250e+003;1.051911e-001
2.910179e+003;1.068988e-001
2.912107e+003;1.085947e-001
2.914036e+003;1.106726e-001
2.915965e+003;1.134551e-001
2.917893e+003;1.162158e-001
2.919822e+003;1.185263e-001
2.921750e+003;1.210082e-001
2.923679e+003;1.239168e-001
2.925607e+003;1.265205e-001
2.927536e+003;1.287429e-001
2.929464e+003;1.307867e-001
2.931393e+003;1.322170e-001
2.933322e+003;1.328829e-001
2.935250e+003;1.330178e-001
2.937178e+003;1.322890e-001
2.939107e+003;1.307099e-001
2.941036e+003;1.287165e-001
2.942964e+003;1.258639e-001
2.944893e+003;1.222238e-001
2.946821e+003;1.179035e-001
2.948750e+003;1.127434e-001
2.950678e+003;1.071023e-001
2.952607e+003;1.017174e-001
2.954535e+003;9.669884e-002
2.956464e+003;9.224979e-002
2.958393e+003;8.865810e-002
2.960321e+003;8.554443e-002
2.962250e+003;8.261396e-002
2.964178e+003;8.013204e-002
2.966107e+003;7.813519e-002
2.968035e+003;7.588598e-002
2.969964e+003;7.347079e-002
2.971892e+003;7.117583e-002
2.973821e+003;6.918845e-002
2.975750e+003;6.765923e-002
2.977678e+003;6.629707e-002
2.979607e+003;6.489885e-002
2.981535e+003;6.369005e-002
2.983464e+003;6.267741e-002
2.985392e+003;6.146083e-002
2.987321e+003;6.043863e-002
2.989249e+003;5.953392e-002
2.991178e+003;5.878038e-002
2.993106e+003;5.856947e-002
2.995035e+003;5.829962e-002
2.996964e+003;5.787453e-002
2.998892e+003;5.758866e-002
3.000821e+003;5.732266e-002
3.002749e+003;5.711941e-002
3.004678e+003;5.697753e-002
3.006606e+003;5.685522e-002
3.008535e+003;5.676718e-002
3.010463e+003;5.674827e-002
3.012392e+003;5.684989e-002
3.014321e+003;5.723155e-002
3.016249e+003;5.789661e-002
3.018177e+003;5.825081e-002
3.020106e+003;5.820921e-002
3.022035e+003;5.839675e-002
3.023963e+003;5.868354e-002
3.025892e+003;5.912642e-002
3.027820e+003;5.965444e-002
3.029749e+003;6.006110e-002
3.031677e+003;6.051860e-002
3.033606e+003;6.146343e-002
3.035534e+003;6.269819e-002
3.037463e+003;6.333150e-002
3.039392e+003;6.392872e-002
3.041320e+003;6.480410e-002
3.043249e+003;6.566694e-002
3.045177e+003;6.641258e-002
3.047106e+003;6.702720e-002
3.049034e+003;6.760665e-002
3.050963e+003;6.846531e-002
3.052891e+003;6.941873e-002
3.054820e+003;7.010981e-002
3.056749e+003;7.058992e-002
3.058677e+003;7.135046e-002
3.060606e+003;7.199430e-002
3.062534e+003;7.231279e-002
3.064463e+003;7.226485e-002
3.066391e+003;7.224036e-002
3.068320e+003;7.241049e-002
3.070248e+003;7.244854e-002
3.072177e+003;7.251107e-002
3.074105e+003;7.268997e-002
3.076034e+003;7.270007e-002
3.077963e+003;7.257032e-002
3.079891e+003;7.272032e-002
3.081820e+003;7.301387e-002
3.083748e+003;7.293721e-002
3.085677e+003;7.219325e-002
3.087605e+003;7.148396e-002
3.089534e+003;7.106861e-002
3.091462e+003;7.075524e-002
3.093391e+003;7.017239e-002
3.095320e+003;6.960417e-002
3.097248e+003;6.898454e-002
3.099177e+003;6.861228e-002
3.101105e+003;6.811129e-002
3.103034e+003;6.700829e-002
3.104962e+003;6.607588e-002
3.106891e+003;6.580734e-002
3.108819e+003;6.525774e-002
3.110748e+003;6.478845e-002
3.112677e+003;6.434187e-002
3.114605e+003;6.366941e-002
3.116533e+003;6.333307e-002
3.118462e+003;6.297983e-002
3.120391e+003;6.255934e-002
3.122319e+003;6.259757e-002
3.124248e+003;6.243146e-002
3.126176e+003;6.181432e-002
3.128105e+003;6.131290e-002
3.130033e+003;6.106071e-002
3.131962e+003;6.105347e-002
3.133890e+003;6.137870e-002
3.135819e+003;6.153848e-002
3.137748e+003;6.142564e-002
3.139676e+003;6.129131e-002
3.141605e+003;6.118059e-002
3.143533e+003;6.158796e-002
3.145462e+003;6.152130e-002
3.147390e+003;6.138717e-002
3.149319e+003;6.197087e-002
3.151247e+003;6.252512e-002
3.153176e+003;6.287497e-002
3.155104e+003;6.301282e-002
3.157033e+003;6.308196e-002
3.158962e+003;6.346957e-002
3.160890e+003;6.392212e-002
3.162819e+003;6.460758e-002
3.164747e+003;6.521122e-002
3.166676e+003;6.568117e-002
3.168604e+003;6.637733e-002
3.170533e+003;6.716613e-002
3.172461e+003;6.775758e-002
3.174390e+003;6.799300e-002
3.176319e+003;6.839809e-002
3.178247e+003;6.887937e-002
3.180176e+003;6.969406e-002
3.182104e+003;7.037717e-002
3.184033e+003;7.074225e-002
3.185961e+003;7.128236e-002
3.187890e+003;7.169378e-002
3.189818e+003;7.189967e-002
3.191747e+003;7.244498e-002
3.193676e+003;7.301273e-002
3.195604e+003;7.358265e-002
3.197532e+003;7.409805e-002
3.199461e+003;7.427587e-002
3.201390e+003;7.421553e-002
3.203318e+003;7.431594e-002
3.205247e+003;7.452453e-002
3.207175e+003;7.497076e-002
3.209104e+003;7.572564e-002
3.211032e+003;7.642052e-002
3.212961e+003;7.671797e-002
3.214889e+003;7.695011e-002
3.216818e+003;7.766557e-002
3.218747e+003;7.803267e-002
3.220675e+003;7.831142e-002
3.222604e+003;7.906809e-002
3.224532e+003;7.997957e-002
3.226461e+003;8.069334e-002
3.228389e+003;8.124922e-002
3.230318e+003;8.176645e-002
3.232246e+003;8.255449e-002
3.234175e+003;8.387012e-002
3.236104e+003;8.507975e-002
3.238032e+003;8.621948e-002
3.239961e+003;8.754613e-002
3.241889e+003;8.865736e-002
3.243818e+003;8.970001e-002
3.245746e+003;9.136178e-002
3.247675e+003;9.329202e-002
3.249603e+003;9.455050e-002
3.251532e+003;9.578194e-002
3.253460e+003;9.763024e-002
3.255389e+003;9.932519e-002
3.257318e+003;1.010790e-001
3.259246e+003;1.027205e-001
3.261175e+003;1.042328e-001
3.263103e+003;1.062483e-001
3.265032e+003;1.083148e-001
3.266960e+003;1.105013e-001
3.268889e+003;1.125389e-001
3.270817e+003;1.140178e-001
3.272746e+003;1.156060e-001
3.274675e+003;1.174479e-001
3.276603e+003;1.195310e-001
3.278531e+003;1.221298e-001
3.280460e+003;1.241768e-001
3.282389e+003;1.258505e-001
3.284317e+003;1.279563e-001
3.286246e+003;1.297391e-001
3.288174e+003;1.312675e-001
3.290103e+003;1.328929e-001
3.292031e+003;1.340774e-001
3.293960e+003;1.344656e-001
3.295888e+003;1.337958e-001
3.297817e+003;1.326004e-001
3.299746e+003;1.307853e-001
3.301674e+003;1.284170e-001
3.303603e+003;1.259622e-001
3.305531e+003;1.230411e-001
3.307460e+003;1.199313e-001
3.309388e+003;1.171728e-001
3.311317e+003;1.143464e-001
3.313245e+003;1.112706e-001
3.315174e+003;1.088135e-001
3.317103e+003;1.063147e-001
3.319031e+003;1.030840e-001
3.320960e+003;1.001325e-001
3.322888e+003;9.765505e-002
3.324817e+003;9.561070e-002
3.326745e+003;9.318947e-002
3.328674e+003;9.059018e-002
3.330602e+003;8.859548e-002
3.332531e+003;8.701728e-002
3.334459e+003;8.530701e-002
3.336388e+003;8.327439e-002
3.338317e+003;8.117776e-002
3.340245e+003;7.966706e-002
3.342174e+003;7.867295e-002
3.344102e+003;7.737536e-002
3.346031e+003;7.570028e-002
3.347959e+003;7.441211e-002
3.349888e+003;7.324227e-002
3.351816e+003;7.205433e-002
3.353745e+003;7.098124e-002
3.355674e+003;7.007551e-002
3.357602e+003;6.899490e-002
3.359531e+003;6.781363e-002
3.361459e+003;6.691053e-002
3.363388e+003;6.624539e-002
3.365316e+003;6.527483e-002
3.367245e+003;6.439371e-002
3.369173e+003;6.382505e-002
3.371102e+003;6.334883e-002
3.373031e+003;6.267875e-002
3.374959e+003;6.192421e-002
3.376887e+003;6.166597e-002
3.378816e+003;6.115259e-002
3.380745e+003;6.064119e-002
3.382673e+003;5.990448e-002
3.384602e+003;5.936146e-002
3.386530e+003;5.944436e-002
3.388459e+003;5.935618e-002
3.390387e+003;5.864478e-002
3.392316e+003;5.797566e-002
3.394244e+003;5.760806e-002
3.396173e+003;5.720536e-002
3.398102e+003;5.684887e-002
3.400030e+003;5.655736e-002
3.401959e+003;5.665445e-002
3.403887e+003;5.649743e-002
3.405816e+003;5.577710e-002
3.407744e+003;5.513280e-002
3.409673e+003;5.478602e-002
3.411601e+003;5.479245e-002
3.413530e+003;5.477211e-002
3.415458e+003;5.433714e-002
3.417387e+003;5.389788e-002
3.419316e+003;5.400641e-002
3.421244e+003;5.429058e-002
3.423173e+003;5.408807e-002
3.425101e+003;5.371051e-002
3.427030e+003;5.341641e-002
3.428958e+003;5.294974e-002
3.430887e+003;5.254396e-002
3.432815e+003;5.241788e-002
3.434744e+003;5.265463e-002
3.436673e+003;5.250526e-002
3.438601e+003;5.230892e-002
3.440530e+003;5.241108e-002
3.442458e+003;5.237893e-002
3.444387e+003;5.256206e-002
3.446315e+003;5.240289e-002
3.448244e+003;5.190157e-002
3.450172e+003;5.131971e-002
3.452101e+003;5.102813e-002
3.454030e+003;5.048090e-002
3.455958e+003;5.014253e-002
3.457886e+003;4.987207e-002
3.459815e+003;4.948757e-002
3.461744e+003;4.918363e-002
3.463672e+003;4.891250e-002
3.465601e+003;4.858869e-002
3.467529e+003;4.826064e-002
3.469458e+003;4.824083e-002
3.471386e+003;4.850006e-002
3.473315e+003;4.808412e-002
3.475243e+003;4.780843e-002
3.477172e+003;4.790054e-002
3.479101e+003;4.789877e-002
3.481029e+003;4.770860e-002
3.482958e+003;4.751272e-002
3.484886e+003;4.713544e-002
3.486815e+003;4.683686e-002
3.488743e+003;4.679450e-002
3.490672e+003;4.686525e-002
3.492600e+003;4.688415e-002
3.494529e+003;4.680561e-002
3.496458e+003;4.678479e-002
3.498386e+003;4.680199e-002
3.500315e+003;4.655395e-002
3.502243e+003;4.619125e-002
3.504172e+003;4.613675e-002
3.506100e+003;4.600471e-002
3.508029e+003;4.545457e-002
3.509957e+003;4.510068e-002
3.511886e+003;4.494095e-002
3.513814e+003;4.483260e-002
3.515743e+003;4.454809e-002
3.517672e+003;4.415657e-002
3.519600e+003;4.387093e-002
3.521529e+003;4.345907e-002
3.523457e+003;4.334739e-002
3.525386e+003;4.323051e-002
3.527314e+003;4.271041e-002
3.529243e+003;4.263847e-002
3.531171e+003;4.240961e-002
3.533100e+003;4.160601e-002
3.535029e+003;4.094572e-002
3.536957e+003;4.067935e-002
3.538885e+003;4.073845e-002
3.540814e+003;4.070836e-002
3.542743e+003;4.004580e-002
3.544671e+003;3.931775e-002
3.546600e+003;3.918490e-002
3.548528e+003;3.907098e-002
3.550457e+003;3.847249e-002
3.552385e+003;3.790903e-002
3.554314e+003;3.750084e-002
3.556242e+003;3.720697e-002
3.558171e+003;3.690382e-002
3.560100e+003;3.663278e-002
3.562028e+003;3.642136e-002
3.563957e+003;3.573926e-002
3.565885e+003;3.462909e-002
3.567814e+003;3.436862e-002
3.569742e+003;3.479936e-002
3.571671e+003;3.500920e-002
3.573599e+003;3.480870e-002
3.575528e+003;3.412844e-002
3.577457e+003;3.330931e-002
3.579385e+003;3.261539e-002
3.581314e+003;3.241127e-002
3.583242e+003;3.216486e-002
3.585171e+003;3.146354e-002
3.587099e+003;3.086921e-002
3.589028e+003;3.074518e-002
3.590956e+003;3.097663e-002
3.592885e+003;3.079967e-002
3.594813e+003;3.015901e-002
3.596742e+003;2.981513e-002
3.598671e+003;2.972425e-002
3.600599e+003;2.931832e-002
3.602528e+003;2.923524e-002
3.604456e+003;2.879893e-002
3.606385e+003;2.752418e-002
3.608313e+003;2.661913e-002
3.610242e+003;2.654428e-002
3.612170e+003;2.647071e-002
3.614099e+003;2.639119e-002
3.616028e+003;2.593297e-002
3.617956e+003;2.528149e-002
3.619885e+003;2.556441e-002
3.621813e+003;2.629712e-002
3.623742e+003;2.597183e-002
3.625670e+003;2.483380e-002
3.627599e+003;2.299663e-002
3.629527e+003;2.292348e-002
3.631456e+003;2.416243e-002
3.633385e+003;2.417756e-002
3.635313e+003;2.428904e-002
3.637241e+003;2.433554e-002
3.639170e+003;2.392405e-002
3.641099e+003;2.363604e-002
3.643027e+003;2.318641e-002
3.644956e+003;2.246341e-002
3.646884e+003;2.159242e-002
3.648813e+003;2.112844e-002
3.650741e+003;2.138510e-002
3.652670e+003;2.172696e-002
3.654598e+003;2.103742e-002
3.656527e+003;2.062924e-002
3.658456e+003;2.103477e-002
3.660384e+003;2.098073e-002
3.662313e+003;2.112691e-002
3.664241e+003;2.140431e-002
3.666170e+003;2.115884e-002
3.668098e+003;2.021131e-002
3.670027e+003;1.946251e-002
3.671955e+003;1.979530e-002
3.673884e+003;1.891372e-002
3.675813e+003;1.859495e-002
3.677741e+003;1.986876e-002
3.679669e+003;2.001540e-002
3.681598e+003;2.008567e-002
3.683527e+003;1.999052e-002
3.685455e+003;1.883994e-002
3.687384e+003;1.720270e-002
3.689312e+003;1.661245e-002
3.691241e+003;1.743018e-002
3.693169e+003;1.846873e-002
3.695098e+003;1.874794e-002
3.697026e+003;1.864973e-002
3.698955e+003;1.853433e-002
3.700884e+003;1.820008e-002
3.702812e+003;1.775258e-002
3.704741e+003;1.749955e-002
3.706669e+003;1.727896e-002
3.708598e+003;1.699113e-002
3.710526e+003;1.649607e-002
3.712455e+003;1.616926e-002
3.714383e+003;1.647215e-002
3.716312e+003;1.688274e-002
3.718240e+003;1.718671e-002
3.720169e+003;1.710864e-002
3.722098e+003;1.675437e-002
3.724026e+003;1.667862e-002
3.725955e+003;1.688760e-002
3.727883e+003;1.706776e-002
3.729812e+003;1.634074e-002
3.731740e+003;1.527297e-002
3.733669e+003;1.525262e-002
3.735597e+003;1.543924e-002
3.737526e+003;1.616314e-002
3.739455e+003;1.690014e-002
3.741383e+003;1.629904e-002
3.743312e+003;1.404957e-002
3.745240e+003;1.424619e-002
3.747169e+003;1.522681e-002
3.749097e+003;1.449008e-002
3.751026e+003;1.412744e-002
3.752954e+003;1.490552e-002
3.754883e+003;1.652009e-002
3.756812e+003;1.692535e-002
3.758740e+003;1.698079e-002
3.760668e+003;1.731238e-002
3.762597e+003;1.753477e-002
3.764526e+003;1.725235e-002
3.766454e+003;1.721425e-002
3.768383e+003;1.657589e-002
3.770311e+003;1.607247e-002
3.772240e+003;1.671694e-002
3.774168e+003;1.755336e-002
3.776097e+003;1.745798e-002
3.778025e+003;1.695484e-002
3.779954e+003;1.688756e-002
3.781883e+003;1.715300e-002
3.783811e+003;1.702927e-002
3.785740e+003;1.711987e-002
3.787668e+003;1.739676e-002
3.789597e+003;1.772880e-002
3.791525e+003;1.771044e-002
3.793454e+003;1.745867e-002
3.795382e+003;1.688381e-002
3.797311e+003;1.664081e-002
3.799240e+003;1.588223e-002
3.801168e+003;1.521271e-002
3.803097e+003;1.622258e-002
3.805025e+003;1.631900e-002
3.806954e+003;1.614935e-002
3.808882e+003;1.710898e-002
3.810811e+003;1.799831e-002
3.812739e+003;1.773111e-002
3.814668e+003;1.600539e-002
3.816596e+003;1.595544e-002
3.818525e+003;1.666061e-002
3.820454e+003;1.644527e-002
3.822382e+003;1.672986e-002
3.824311e+003;1.745494e-002
3.826239e+003;1.798042e-002
3.828168e+003;1.810932e-002
3.830096e+003;1.778230e-002
3.832025e+003;1.783536e-002
3.833953e+003;1.777378e-002
3.835882e+003;1.641723e-002
3.837811e+003;1.563643e-002
3.839739e+003;1.693982e-002
3.841667e+003;1.780381e-002
3.843596e+003;1.802618e-002
3.845525e+003;1.824085e-002
3.847453e+003;1.823895e-002
3.849382e+003;1.766299e-002
3.851310e+003;1.607209e-002
3.853239e+003;1.476214e-002
3.855167e+003;1.635244e-002
3.857096e+003;1.826311e-002
3.859024e+003;1.875842e-002
3.860953e+003;1.853913e-002
3.862882e+003;1.801212e-002
3.864810e+003;1.795604e-002
3.866739e+003;1.819669e-002
3.868667e+003;1.709575e-002
3.870596e+003;1.713552e-002
3.872524e+003;1.793380e-002
3.874453e+003;1.829594e-002
3.876381e+003;1.866702e-002
3.878310e+003;1.811288e-002
3.880239e+003;1.761250e-002
3.882167e+003;1.777450e-002
3.884096e+003;1.754843e-002
3.886024e+003;1.753974e-002
3.887953e+003;1.816387e-002
3.889881e+003;1.808576e-002
3.891810e+003;1.819766e-002
3.893738e+003;1.870615e-002
3.895667e+003;1.883353e-002
3.897595e+003;1.846272e-002
3.899524e+003;1.807920e-002
3.901453e+003;1.771151e-002
3.903381e+003;1.758814e-002
3.905310e+003;1.825232e-002
3.907238e+003;1.894379e-002
3.909167e+003;1.918278e-002
3.911095e+003;1.937003e-002
3.913024e+003;1.969260e-002
3.914952e+003;1.970057e-002
3.916881e+003;1.940482e-002
3.918810e+003;1.910857e-002
3.920738e+003;1.908181e-002
3.922667e+003;1.944837e-002
3.924595e+003;2.009066e-002
3.926524e+003;2.078169e-002
3.928452e+003;2.069679e-002
3.930381e+003;2.023113e-002
3.932309e+003;2.028685e-002
3.934238e+003;2.066576e-002
3.936167e+003;2.054252e-002
3.938095e+003;2.052414e-002
3.940023e+003;2.055840e-002
3.941952e+003;2.063115e-002
3.943881e+003;2.063469e-002
3.945809e+003;2.048496e-002
3.947738e+003;2.033726e-002
3.949666e+003;2.028171e-002
3.951595e+003;2.080099e-002
3.953523e+003;2.180026e-002
3.955452e+003;2.214248e-002
3.957380e+003;2.157466e-002
3.959309e+003;2.145301e-002
3.961238e+003;2.158942e-002
3.963166e+003;2.190876e-002
3.965095e+003;2.221742e-002
3.967023e+003;2.208827e-002
3.968952e+003;2.217191e-002
3.970880e+003;2.237640e-002
3.972809e+003;2.240417e-002
3.974737e+003;2.240728e-002
3.976666e+003;2.245864e-002
3.978594e+003;2.261606e-002
3.980523e+003;2.287182e-002
3.982452e+003;2.252337e-002
3.984380e+003;2.249102e-002
3.986309e+003;2.310599e-002
3.988237e+003;2.317361e-002
3.990166e+003;2.303268e-002
3.992094e+003;2.300246e-002
3.994023e+003;2.297514e-002
3.995951e+003;2.334843e-002
3.997880e+003;2.345638e-002
3.999809e+003;2.358727e-002
4.001737e+003;0.000000e+000
