3.992094e+002;0.000000e+000
4.011380e+002;0.000000e+000
4.030665e+002;0.000000e+000
4.049951e+002;0.000000e+000
4.069236e+002;0.000000e+000
4.088522e+002;0.000000e+000
4.107807e+002;0.000000e+000
4.127093e+002;0.000000e+000
4.146378e+002;0.000000e+000
4.165664e+002;0.000000e+000
4.184949e+002;0.000000e+000
4.204235e+002;0.000000e+000
4.223520e+002;0.000000e+000
4.242806e+002;0.000000e+000
4.262091e+002;0.000000e+000
4.281377e+002;0.000000e+000
4.300662e+002;0.000000e+000
4.319948e+002;0.000000e+000
4.339233e+002;0.000000e+000
4.358519e+002;0.000000e+000
4.377804e+002;0.000000e+000
4.397090e+002;0.000000e+000
4.416375e+002;0.000000e+000
4.435660e+002;0.000000e+000
4.454946e+002;0.000000e+000
4.474232e+002;0.000000e+000
4.493517e+002;0.000000e+000
4.512802e+002;0.000000e+000
4.532088e+002;0.000000e+000
4.551373e+002;0.000000e+000
4.570659e+002;0.000000e+000
4.589944e+002;0.000000e+000
4.609230e+002;0.000000e+000
4.628515e+002;0.000000e+000
4.647801e+002;0.000000e+000
4.667086e+002;0.000000e+000
4.686372e+002;0.000000e+000
4.705657e+002;0.000000e+000
4.724943e+002;0.000000e+000
4.744228e+002;0.000000e+000
4.763513e+002;0.000000e+000
4.782799e+002;0.000000e+000
4.802085e+002;0.000000e+000
4.821370e+002;0.000000e+000
4.840656e+002;0.000000e+000
4.859941e+002;0.000000e+000
4.879226e+002;0.000000e+000
4.898512e+002;0.000000e+000
4.917798e+002;0.000000e+000
4.937083e+002;0.000000e+000
4.956368e+002;0.000000e+000
4.975654e+002;0.000000e+000
4.994939e+002;0.000000e+000
5.014225e+002;0.000000e+000
5.033510e+002;0.000000e+000
5.052796e+002;0.000000e+000
5.072081e+002;0.000000e+000
5.091367e+002;0.000000e+000
5.110652e+002;0.000000e+000
5.129938e+002;0.000000e+000
5.149223e+002;0.000000e+000
5.168509e+002;0.000000e+000
5.187794e+002;0.000000e+000
5.207079e+002;0.000000e+000
5.226365e+002;0.000000e+000
5.245651e+002;0.000000e+000
5.264936e+002;0.000000e+000
5.284222e+002;0.000000e+000
5.303507e+002;0.000000e+000
5.322792e+002;0.000000e+000
5.342078e+002;0.000000e+000
5.361364e+002;0.000000e+000
5.380649e+002;0.000000e+000
5.399935e+002;0.000000e+000
5.419220e+002;0.000000e+000
5.438505e+002;0.000000e+000
5.457791e+002;0.000000e+000
5.477076e+002;0.000000e+000
5.496362e+002;0.000000e+000
5.515648e+002;0.000000e+000
5.534933e+002;0.000000e+000
5.554218e+002;0.000000e+000
5.573504e+002;0.000000e+000
5.592789e+002;0.000000e+000
5.612075e+002;0.000000e+000
5.631360e+002;0.000000e+000
5.650646e+002;0.000000e+000
5.669931e+002;0.000000e+000
5.689217e+002;0.000000e+000
5.708502e+002;0.000000e+000
5.727787e+002;0.000000e+000
5.747073e+002;0.000000e+000
5.766359e+002;0.000000e+000
5.785644e+002;0.000000e+000
5.804930e+002;0.000000e+000
5.824215e+002;0.000000e+000
5.843500e+002;0.000000e+000
5.862786e+002;0.000000e+000
5.882072e+002;0.000000e+000
5.901357e+002;0.000000e+000
5.920643e+002;0.000000e+000
5.939928e+002;0.000000e+000
5.959213e+002;0.000000e+000
5.978499e+002;0.000000e+000
5.997784e+002;1.608100e-001
6.017070e+002;1.537844e-001
6.036355e+002;1.515236e-001
6.055641e+002;1.494541e-001
6.074926e+002;1.484321e-001
6.094211e+002;1.481580e-001
6.113497e+002;1.464686e-001
6.132783e+002;1.461720e-001
6.152068e+002;1.474982e-001
6.171354e+002;1.511586e-001
6.190639e+002;1.549834e-001
6.209924e+002;1.552611e-001
6.229210e+002;1.561952e-001
6.248495e+002;1.590444e-001
6.267781e+002;1.590912e-001
6.287067e+002;1.544476e-001
6.306352e+002;1.508721e-001
6.325637e+002;1.532374e-001
6.344923e+002;1.557566e-001
6.364208e+002;1.568285e-001
6.383494e+002;1.576074e-001
6.402780e+002;1.579413e-001
6.422065e+002;1.587394e-001
6.441350e+002;1.622929e-001
6.460636e+002;1.662475e-001
6.479921e+002;1.660684e-001
6.499207e+002;1.666121e-001
6.518492e+002;1.683699e-001
6.537778e+002;1.726997e-001
6.557063e+002;1.796860e-001
6.576349e+002;1.833538e-001
6.595634e+002;1.862098e-001
6.614919e+002;1.876420e-001
6.634205e+002;1.896433e-001
6.653491e+002;1.928349e-001
6.672776e+002;1.972413e-001
6.692062e+002;1.997946e-001
6.711347e+002;1.996219e-001
6.730632e+002;1.979813e-001
6.749918e+002;1.996355e-001
6.769203e+002;2.018363e-001
6.788489e+002;2.027694e-001
6.807775e+002;2.027070e-001
6.827060e+002;2.023229e-001
6.846345e+002;2.033399e-001
6.865631e+002;2.035391e-001
6.884916e+002;2.013416e-001
6.904202e+002;1.983664e-001
6.923488e+002;1.953189e-001
6.942773e+002;1.928218e-001
6.962058e+002;1.903821e-001
6.981344e+002;1.871238e-001
7.000629e+002;1.844631e-001
7.019915e+002;1.819895e-001
7.039200e+002;1.789725e-001
7.058486e+002;1.771398e-001
7.077771e+002;1.755722e-001
7.097057e+002;1.739542e-001
7.116342e+002;1.735002e-001
7.135627e+002;1.725256e-001
7.154913e+002;1.696756e-001
7.174199e+002;1.658635e-001
7.193484e+002;1.642859e-001
7.212770e+002;1.650212e-001
7.232055e+002;1.656568e-001
7.251340e+002;1.666187e-001
7.270626e+002;1.672785e-001
7.289911e+002;1.645215e-001
7.309197e+002;1.586837e-001
7.328483e+002;1.523977e-001
7.347768e+002;1.462260e-001
7.367053e+002;1.394950e-001
7.386339e+002;1.338656e-001
7.405624e+002;1.298829e-001
7.424910e+002;1.270294e-001
7.444196e+002;1.239013e-001
7.463481e+002;1.211081e-001
7.482766e+002;1.194653e-001
7.502052e+002;1.179614e-001
7.521337e+002;1.149796e-001
7.540623e+002;1.127267e-001
7.559908e+002;1.113176e-001
7.579194e+002;1.099882e-001
7.598479e+002;1.085910e-001
7.617765e+002;1.072752e-001
7.637050e+002;1.057839e-001
7.656335e+002;1.036210e-001
7.675621e+002;1.019763e-001
7.694907e+002;1.009585e-001
7.714192e+002;9.964133e-002
7.733478e+002;9.817725e-002
7.752763e+002;9.693379e-002
7.772048e+002;9.579111e-002
7.791334e+002;9.441742e-002
7.810620e+002;9.325591e-002
7.829905e+002;9.241835e-002
7.849191e+002;9.086322e-002
7.868476e+002;8.921723e-002
7.887761e+002;8.768039e-002
7.907047e+002;8.631418e-002
7.926332e+002;8.501011e-002
7.945618e+002;8.376708e-002
7.964903e+002;8.223756e-002
7.984189e+002;8.078432e-002
8.003474e+002;8.025770e-002
8.022759e+002;7.972964e-002
8.042045e+002;7.757251e-002
8.061331e+002;7.503404e-002
8.080616e+002;7.358940e-002
8.099902e+002;7.311890e-002
8.119187e+002;7.294928e-002
8.138472e+002;7.227338e-002
8.157758e+002;7.143600e-002
8.177043e+002;7.133126e-002
8.196329e+002;7.156502e-002
8.215615e+002;7.152259e-002
8.234900e+002;7.169952e-002
8.254185e+002;7.253456e-002
8.273471e+002;7.343572e-002
8.292756e+002;7.419363e-002
8.312042e+002;7.526749e-002
8.331328e+002;7.522064e-002
8.350613e+002;7.373811e-002
8.369898e+002;7.139248e-002
8.389184e+002;6.937492e-002
8.408469e+002;6.764510e-002
8.427755e+002;6.609926e-002
8.447040e+002;6.455152e-002
8.466326e+002;6.326556e-002
8.485611e+002;6.305714e-002
8.504897e+002;6.270504e-002
8.524182e+002;6.189578e-002
8.543467e+002;6.130016e-002
8.562753e+002;6.122118e-002
8.582039e+002;6.125067e-002
8.601324e+002;6.084903e-002
8.620610e+002;6.049057e-002
8.639895e+002;5.994476e-002
8.659180e+002;5.965855e-002
8.678466e+002;5.992826e-002
8.697751e+002;6.033997e-002
8.717037e+002;6.063681e-002
8.736323e+002;6.092939e-002
8.755608e+002;6.128814e-002
8.774893e+002;6.139380e-002
8.794179e+002;6.114401e-002
8.813464e+002;6.131882e-002
8.832750e+002;6.176925e-002
8.852036e+002;6.206447e-002
8.871321e+002;6.229636e-002
8.890606e+002;6.215434e-002
8.909892e+002;6.184027e-002
8.929177e+002;6.190399e-002
8.948463e+002;6.187369e-002
8.967748e+002;6.201795e-002
8.987034e+002;6.246410e-002
9.006319e+002;6.256519e-002
9.025605e+002;6.268675e-002
9.044890e+002;6.347617e-002
9.064175e+002;6.391237e-002
9.083461e+002;6.431255e-002
9.102747e+002;6.460439e-002
9.122032e+002;6.511702e-002
9.141318e+002;6.566178e-002
9.160603e+002;6.602484e-002
9.179888e+002;6.653880e-002
9.199174e+002;6.766588e-002
9.218459e+002;6.927786e-002
9.237745e+002;7.072381e-002
9.257031e+002;7.226822e-002
9.276316e+002;7.351514e-002
9.295601e+002;7.385054e-002
9.314887e+002;7.340535e-002
9.334172e+002;7.249329e-002
9.353458e+002;7.123961e-002
9.372744e+002;7.030588e-002
9.392029e+002;6.997086e-002
9.411314e+002;6.985822e-002
9.430600e+002;7.047860e-002
9.449885e+002;7.163958e-002
9.469171e+002;7.326856e-002
9.488456e+002;7.540038e-002
9.507742e+002;7.712000e-002
9.527027e+002;7.770480e-002
9.546313e+002;7.809914e-002
9.565598e+002;7.909162e-002
9.584883e+002;7.985777e-002
9.604169e+002;7.979032e-002
9.623455e+002;7.895998e-002
9.642740e+002;7.781830e-002
9.662026e+002;7.689050e-002
9.681311e+002;7.619108e-002
9.700596e+002;7.555472e-002
9.719882e+002;7.495122e-002
9.739167e+002;7.454518e-002
9.758453e+002;7.386233e-002
9.777739e+002;7.310161e-002
9.797024e+002;7.260967e-002
9.816309e+002;7.229155e-002
9.835595e+002;7.201483e-002
9.854880e+002;7.151213e-002
9.874166e+002;7.066005e-002
9.893452e+002;6.955727e-002
9.912737e+002;6.874318e-002
9.932022e+002;6.770209e-002
9.951307e+002;6.688525e-002
9.970593e+002;6.644662e-002
9.989879e+002;6.599722e-002
1.000916e+003;6.576343e-002
1.002845e+003;6.564000e-002
1.004773e+003;6.583718e-002
1.006702e+003;6.606515e-002
1.008631e+003;6.605717e-002
1.010559e+003;6.600216e-002
1.012488e+003;6.609791e-002
1.014416e+003;6.618943e-002
1.016345e+003;6.676769e-002
1.018273e+003;6.732203e-002
1.020202e+003;6.734548e-002
1.022130e+003;6.811062e-002
1.024059e+003;6.922606e-002
1.025988e+003;7.026532e-002
1.027916e+003;7.132375e-002
1.029845e+003;7.148060e-002
1.031773e+003;7.095202e-002
1.033702e+003;6.999286e-002
1.035630e+003;6.885864e-002
1.037559e+003;6.825429e-002
1.039487e+003;6.827620e-002
1.041416e+003;6.843676e-002
1.043344e+003;6.862155e-002
1.045273e+003;6.867348e-002
1.047202e+003;6.918355e-002
1.049130e+003;6.977382e-002
1.051059e+003;7.044119e-002
1.052987e+003;7.141783e-002
1.054916e+003;7.254533e-002
1.056844e+003;7.366257e-002
1.058773e+003;7.474031e-002
1.060701e+003;7.618910e-002
1.062630e+003;7.793953e-002
1.064558e+003;7.929938e-002
1.066487e+003;7.997308e-002
1.068416e+003;8.080081e-002
1.070344e+003;8.199646e-002
1.072273e+003;8.280063e-002
1.074201e+003;8.257036e-002
1.076130e+003;8.185793e-002
1.078058e+003;8.139551e-002
1.079987e+003;8.086059e-002
1.081915e+003;7.990481e-002
1.083844e+003;7.896479e-002
1.085773e+003;7.847137e-002
1.087701e+003;7.801201e-002
1.089630e+003;7.818196e-002
1.091558e+003;7.871541e-002
1.093487e+003;7.898577e-002
1.095415e+003;7.926641e-002
1.097344e+003;7.992636e-002
1.099272e+003;8.114652e-002
1.101201e+003;8.282774e-002
1.103129e+003;8.518371e-002
1.105058e+003;8.762781e-002
1.106987e+003;8.965386e-002
1.108915e+003;9.085856e-002
1.110844e+003;9.155360e-002
1.112772e+003;9.189926e-002
1.114701e+003;9.204692e-002
1.116629e+003;9.188858e-002
1.118558e+003;9.152689e-002
1.120486e+003;9.048136e-002
1.122415e+003;8.847498e-002
1.124344e+003;8.642632e-002
1.126272e+003;8.375792e-002
1.128201e+003;8.004849e-002
1.130129e+003;7.701854e-002
1.132058e+003;7.489228e-002
1.133986e+003;7.351220e-002
1.135915e+003;7.321533e-002
1.137843e+003;7.322749e-002
1.139772e+003;7.364593e-002
1.141700e+003;7.496611e-002
1.143629e+003;7.707576e-002
1.145557e+003;7.931310e-002
1.147486e+003;8.111840e-002
1.149415e+003;8.287044e-002
1.151343e+003;8.530620e-002
1.153272e+003;8.857378e-002
1.155200e+003;9.221422e-002
1.157129e+003;9.622038e-002
1.159057e+003;1.008960e-001
1.160986e+003;1.064466e-001
1.162914e+003;1.127399e-001
1.164843e+003;1.186777e-001
1.166771e+003;1.235847e-001
1.168700e+003;1.261486e-001
1.170629e+003;1.254105e-001
1.172557e+003;1.222148e-001
1.174486e+003;1.178373e-001
1.176414e+003;1.131548e-001
1.178343e+003;1.087656e-001
1.180271e+003;1.052136e-001
1.182200e+003;1.035019e-001
1.184128e+003;1.037938e-001
1.186057e+003;1.056785e-001
1.187986e+003;1.088948e-001
1.189914e+003;1.128909e-001
1.191843e+003;1.176997e-001
1.193771e+003;1.231231e-001
1.195700e+003;1.287919e-001
1.197628e+003;1.341176e-001
1.199557e+003;1.368563e-001
1.201485e+003;1.355634e-001
1.203414e+003;1.318445e-001
1.205343e+003;1.280112e-001
1.207271e+003;1.257710e-001
1.209200e+003;1.245743e-001
1.211128e+003;1.233737e-001
1.213057e+003;1.219476e-001
1.214985e+003;1.197769e-001
1.216914e+003;1.167811e-001
1.218842e+003;1.138029e-001
1.220771e+003;1.117623e-001
1.222699e+003;1.121084e-001
1.224628e+003;1.145336e-001
1.226557e+003;1.178309e-001
1.228485e+003;1.217938e-001
1.230414e+003;1.262134e-001
1.232342e+003;1.308595e-001
1.234271e+003;1.349964e-001
1.236199e+003;1.372550e-001
1.238128e+003;1.382870e-001
1.240056e+003;1.389167e-001
1.241985e+003;1.389038e-001
1.243913e+003;1.387568e-001
1.245842e+003;1.389547e-001
1.247771e+003;1.399679e-001
1.249699e+003;1.422587e-001
1.251628e+003;1.451682e-001
1.253556e+003;1.486948e-001
1.255485e+003;1.522814e-001
1.257413e+003;1.549779e-001
1.259342e+003;1.571758e-001
1.261270e+003;1.586307e-001
1.263199e+003;1.577587e-001
1.265127e+003;1.540042e-001
1.267056e+003;1.478803e-001
1.268985e+003;1.410010e-001
1.270913e+003;1.355361e-001
1.272842e+003;1.325079e-001
1.274770e+003;1.313694e-001
1.276699e+003;1.310024e-001
1.278627e+003;1.304984e-001
1.280556e+003;1.294640e-001
1.282484e+003;1.280785e-001
1.284413e+003;1.263250e-001
1.286342e+003;1.245735e-001
1.288270e+003;1.232350e-001
1.290199e+003;1.225434e-001
1.292127e+003;1.220698e-001
1.294056e+003;1.211471e-001
1.295984e+003;1.200151e-001
1.297913e+003;1.190937e-001
1.299841e+003;1.185142e-001
1.301770e+003;1.183790e-001
1.303698e+003;1.179969e-001
1.305627e+003;1.167667e-001
1.307556e+003;1.151564e-001
1.309484e+003;1.139579e-001
1.311413e+003;1.128117e-001
1.313341e+003;1.119396e-001
1.315270e+003;1.111959e-001
1.317198e+003;1.101436e-001
1.319127e+003;1.088429e-001
1.321055e+003;1.078125e-001
1.322984e+003;1.075541e-001
1.324912e+003;1.074623e-001
1.326841e+003;1.073076e-001
1.328770e+003;1.076438e-001
1.330698e+003;1.082447e-001
1.332627e+003;1.087090e-001
1.334555e+003;1.090581e-001
1.336484e+003;1.091965e-001
1.338412e+003;1.093415e-001
1.340341e+003;1.099111e-001
1.342269e+003;1.107197e-001
1.344198e+003;1.116378e-001
1.346126e+003;1.127271e-001
1.348055e+003;1.139939e-001
1.349984e+003;1.153781e-001
1.351912e+003;1.169832e-001
1.353841e+003;1.188992e-001
1.355769e+003;1.206664e-001
1.357698e+003;1.223636e-001
1.359626e+003;1.241565e-001
1.361555e+003;1.258902e-001
1.363483e+003;1.277130e-001
1.365412e+003;1.298730e-001
1.367341e+003;1.320215e-001
1.369269e+003;1.337868e-001
1.371198e+003;1.346278e-001
1.373126e+003;1.344816e-001
1.375055e+003;1.335663e-001
1.376983e+003;1.316389e-001
1.378912e+003;1.285120e-001
1.380840e+003;1.246591e-001
1.382769e+003;1.205374e-001
1.384698e+003;1.166525e-001
1.386626e+003;1.129170e-001
1.388555e+003;1.099888e-001
1.390483e+003;1.077770e-001
1.392412e+003;1.060934e-001
1.394340e+003;1.047130e-001
1.396269e+003;1.044032e-001
1.398197e+003;1.051791e-001
1.400126e+003;1.067693e-001
1.402054e+003;1.091219e-001
1.403983e+003;1.124584e-001
1.405911e+003;1.175375e-001
1.407840e+003;1.241361e-001
1.409769e+003;1.316709e-001
1.411697e+003;1.394899e-001
1.413626e+003;1.460193e-001
1.415554e+003;1.500225e-001
1.417483e+003;1.505766e-001
1.419411e+003;1.482177e-001
1.421340e+003;1.447409e-001
1.423268e+003;1.409671e-001
1.425197e+003;1.384851e-001
1.427125e+003;1.382516e-001
1.429054e+003;1.395527e-001
1.430983e+003;1.418747e-001
1.432911e+003;1.443240e-001
1.434840e+003;1.451305e-001
1.436768e+003;1.444739e-001
1.438697e+003;1.443705e-001
1.440625e+003;1.439516e-001
1.442554e+003;1.431896e-001
1.444482e+003;1.426738e-001
1.446411e+003;1.430028e-001
1.448340e+003;1.444558e-001
1.450268e+003;1.469151e-001
1.452197e+003;1.492907e-001
1.454125e+003;1.512350e-001
1.456054e+003;1.531660e-001
1.457982e+003;1.580606e-001
1.459911e+003;1.647584e-001
1.461839e+003;1.692012e-001
1.463768e+003;1.684527e-001
1.465697e+003;1.622650e-001
1.467625e+003;1.541910e-001
1.469554e+003;1.474559e-001
1.471482e+003;1.435217e-001
1.473411e+003;1.431913e-001
1.475339e+003;1.445807e-001
1.477268e+003;1.442158e-001
1.479196e+003;1.414224e-001
1.481125e+003;1.360620e-001
1.483053e+003;1.294291e-001
1.484982e+003;1.229891e-001
1.486911e+003;1.184083e-001
1.488839e+003;1.166600e-001
1.490768e+003;1.176314e-001
1.492696e+003;1.205691e-001
1.494625e+003;1.237307e-001
1.496553e+003;1.278267e-001
1.498482e+003;1.333951e-001
1.500410e+003;1.392852e-001
1.502339e+003;1.451238e-001
1.504267e+003;1.505478e-001
1.506196e+003;1.564832e-001
1.508125e+003;1.647298e-001
1.510053e+003;1.735432e-001
1.511982e+003;1.818897e-001
1.513910e+003;1.905074e-001
1.515839e+003;1.990316e-001
1.517767e+003;2.081056e-001
1.519696e+003;2.172207e-001
1.521624e+003;2.271273e-001
1.523553e+003;2.385525e-001
1.525481e+003;2.497497e-001
1.527410e+003;2.607094e-001
1.529339e+003;2.713897e-001
1.531267e+003;2.811331e-001
1.533196e+003;2.898080e-001
1.535124e+003;2.973596e-001
1.537053e+003;3.014687e-001
1.538981e+003;3.014759e-001
1.540910e+003;2.996077e-001
1.542838e+003;2.955245e-001
1.544767e+003;2.878189e-001
1.546695e+003;2.769581e-001
1.548624e+003;2.640718e-001
1.550553e+003;2.507221e-001
1.552481e+003;2.374405e-001
1.554410e+003;2.240219e-001
1.556338e+003;2.115910e-001
1.558267e+003;1.989791e-001
1.560195e+003;1.886062e-001
1.562124e+003;1.806600e-001
1.564052e+003;1.718190e-001
1.565981e+003;1.626714e-001
1.567910e+003;1.537602e-001
1.569838e+003;1.455437e-001
1.571767e+003;1.390428e-001
1.573695e+003;1.322455e-001
1.575624e+003;1.251737e-001
1.577552e+003;1.207013e-001
1.579481e+003;1.176687e-001
1.581409e+003;1.146501e-001
1.583338e+003;1.121280e-001
1.585266e+003;1.105885e-001
1.587195e+003;1.104636e-001
1.589124e+003;1.107462e-001
1.591052e+003;1.115046e-001
1.592981e+003;1.131229e-001
1.594909e+003;1.157701e-001
1.596838e+003;1.193307e-001
1.598766e+003;1.239082e-001
1.600695e+003;1.296186e-001
1.602623e+003;1.364649e-001
1.604552e+003;1.443604e-001
1.606480e+003;1.530237e-001
1.608409e+003;1.624729e-001
1.610338e+003;1.728421e-001
1.612266e+003;1.844568e-001
1.614195e+003;1.970548e-001
1.616123e+003;2.110489e-001
1.618052e+003;2.283574e-001
1.619980e+003;2.473215e-001
1.621909e+003;2.661580e-001
1.623837e+003;2.854676e-001
1.625766e+003;3.049459e-001
1.627694e+003;3.244414e-001
1.629623e+003;3.446298e-001
1.631552e+003;3.636417e-001
1.633480e+003;3.773420e-001
1.635409e+003;3.832091e-001
1.637337e+003;3.801856e-001
1.639266e+003;3.671272e-001
1.641194e+003;3.470110e-001
1.643123e+003;3.237455e-001
1.645051e+003;2.992756e-001
1.646980e+003;2.764850e-001
1.648909e+003;2.571508e-001
1.650837e+003;2.387614e-001
1.652766e+003;2.212670e-001
1.654694e+003;2.092575e-001
1.656623e+003;1.998838e-001
1.658551e+003;1.902348e-001
1.660480e+003;1.805785e-001
1.662408e+003;1.701639e-001
1.664337e+003;1.603260e-001
1.666266e+003;1.506167e-001
1.668194e+003;1.405852e-001
1.670123e+003;1.314551e-001
1.672051e+003;1.234890e-001
1.673980e+003;1.155895e-001
1.675908e+003;1.081608e-001
1.677837e+003;1.007824e-001
1.679765e+003;9.269489e-002
1.681694e+003;8.435173e-002
1.683622e+003;7.554293e-002
1.685551e+003;6.956987e-002
1.687479e+003;6.592795e-002
1.689408e+003;6.179564e-002
1.691337e+003;5.824554e-002
1.693265e+003;5.478839e-002
1.695194e+003;5.133903e-002
1.697122e+003;5.001890e-002
1.699051e+003;4.855023e-002
1.700979e+003;4.739859e-002
1.702908e+003;4.795475e-002
1.704836e+003;4.754965e-002
1.706765e+003;4.730972e-002
1.708693e+003;4.743872e-002
1.710622e+003;4.745021e-002
1.712551e+003;4.699334e-002
1.714479e+003;4.609485e-002
1.716408e+003;4.501107e-002
1.718336e+003;4.535951e-002
1.720265e+003;4.662614e-002
1.722193e+003;4.682494e-002
1.724122e+003;4.646854e-002
1.726050e+003;4.648134e-002
1.727979e+003;4.640453e-002
1.729908e+003;4.599384e-002
1.731836e+003;4.497072e-002
1.733765e+003;4.359188e-002
1.735693e+003;4.395950e-002
1.737622e+003;4.422077e-002
1.739550e+003;4.331774e-002
1.741479e+003;4.266571e-002
1.743407e+003;4.211602e-002
1.745336e+003;4.143509e-002
1.747265e+003;4.056351e-002
1.749193e+003;3.959370e-002
1.751122e+003;3.866521e-002
1.753050e+003;3.855501e-002
1.754979e+003;3.815018e-002
1.756907e+003;3.731120e-002
1.758836e+003;3.668571e-002
1.760764e+003;3.576128e-002
1.762693e+003;3.506505e-002
1.764621e+003;3.502001e-002
1.766550e+003;3.441582e-002
1.768479e+003;3.371393e-002
1.770407e+003;3.279752e-002
1.772336e+003;3.182834e-002
1.774264e+003;3.189747e-002
1.776193e+003;3.183929e-002
1.778121e+003;3.160670e-002
1.780050e+003;3.142147e-002
1.781978e+003;3.101349e-002
1.783907e+003;3.050362e-002
1.785835e+003;3.004409e-002
1.787764e+003;2.971325e-002
1.789693e+003;2.915040e-002
1.791621e+003;2.851478e-002
1.793550e+003;2.847243e-002
1.795478e+003;2.863892e-002
1.797407e+003;2.854327e-002
1.799335e+003;2.823256e-002
1.801264e+003;2.777193e-002
1.803192e+003;2.763910e-002
1.805121e+003;2.752990e-002
1.807049e+003;2.746046e-002
1.808978e+003;2.724866e-002
1.810907e+003;2.703235e-002
1.812835e+003;2.690814e-002
1.814764e+003;2.682569e-002
1.816692e+003;2.675570e-002
1.818621e+003;2.668558e-002
1.820549e+003;2.678128e-002
1.822478e+003;2.674404e-002
1.824406e+003;2.633549e-002
1.826335e+003;2.614613e-002
1.828264e+003;2.591939e-002
1.830192e+003;2.570866e-002
1.832121e+003;2.589090e-002
1.834049e+003;2.611351e-002
1.835978e+003;2.612755e-002
1.837906e+003;2.594890e-002
1.839835e+003;2.591876e-002
1.841763e+003;2.565660e-002
1.843692e+003;2.509076e-002
1.845620e+003;2.516112e-002
1.847549e+003;2.540499e-002
1.849478e+003;2.535188e-002
1.851406e+003;2.516530e-002
1.853335e+003;2.500301e-002
1.855263e+003;2.495542e-002
1.857192e+003;2.493377e-002
1.859120e+003;2.489910e-002
1.861049e+003;2.487040e-002
1.862977e+003;2.473172e-002
1.864906e+003;2.451017e-002
1.866834e+003;2.419672e-002
1.868763e+003;2.406793e-002
1.870692e+003;2.436782e-002
1.872620e+003;2.476329e-002
1.874549e+003;2.483366e-002
1.876477e+003;2.456675e-002
1.878406e+003;2.435170e-002
1.880334e+003;2.431571e-002
1.882263e+003;2.453737e-002
1.884191e+003;2.478083e-002
1.886120e+003;2.474098e-002
1.888048e+003;2.456907e-002
1.889977e+003;2.462037e-002
1.891906e+003;2.482654e-002
1.893834e+003;2.486948e-002
1.895763e+003;2.493493e-002
1.897691e+003;2.497567e-002
1.899620e+003;2.501726e-002
1.901548e+003;2.513907e-002
1.903477e+003;2.497518e-002
1.905405e+003;2.484548e-002
1.907334e+003;2.483766e-002
1.909262e+003;2.450372e-002
1.911191e+003;2.422370e-002
1.913120e+003;2.417013e-002
1.915048e+003;2.428323e-002
1.916977e+003;2.402706e-002
1.918905e+003;2.384871e-002
1.920834e+003;2.411104e-002
1.922762e+003;2.421999e-002
1.924691e+003;2.431596e-002
1.926619e+003;2.448850e-002
1.928548e+003;2.454403e-002
1.930477e+003;2.446147e-002
1.932405e+003;2.438033e-002
1.934334e+003;2.428333e-002
1.936262e+003;2.418425e-002
1.938191e+003;2.409367e-002
1.940119e+003;2.428158e-002
1.942048e+003;2.441903e-002
1.943976e+003;2.445948e-002
1.945905e+003;2.434676e-002
1.947833e+003;2.417364e-002
1.949762e+003;2.419434e-002
1.951691e+003;2.444956e-002
1.953619e+003;2.453222e-002
1.955548e+003;2.429584e-002
1.957476e+003;2.415987e-002
1.959405e+003;2.440813e-002
1.961333e+003;2.479984e-002
1.963262e+003;2.487155e-002
1.965190e+003;2.483450e-002
1.967119e+003;2.483120e-002
1.969047e+003;2.488411e-002
1.970976e+003;2.489976e-002
1.972905e+003;2.491833e-002
1.974833e+003;2.486857e-002
1.976762e+003;2.513134e-002
1.978690e+003;2.523285e-002
1.980619e+003;2.494724e-002
1.982547e+003;2.496346e-002
1.984476e+003;2.497209e-002
1.986404e+003;2.487839e-002
1.988333e+003;2.482601e-002
1.990261e+003;2.491640e-002
1.992190e+003;2.498455e-002
1.994119e+003;2.497307e-002
1.996047e+003;2.501621e-002
1.997976e+003;2.517190e-002
1.999904e+003;2.526390e-002
2.001833e+003;2.502824e-002
2.003761e+003;2.497942e-002
2.005690e+003;2.505113e-002
2.007618e+003;2.507521e-002
2.009547e+003;2.518081e-002
2.011476e+003;2.535683e-002
2.013404e+003;2.552933e-002
2.015333e+003;2.555780e-002
2.017261e+003;2.563210e-002
2.019190e+003;2.572314e-002
2.021118e+003;2.574561e-002
2.023047e+003;2.571544e-002
2.024975e+003;2.575549e-002
2.026904e+003;2.591348e-002
2.028833e+003;2.601531e-002
2.030761e+003;2.604993e-002
2.032690e+003;2.606914e-002
2.034618e+003;2.614507e-002
2.036547e+003;2.623732e-002
2.038475e+003;2.643595e-002
2.040404e+003;2.666123e-002
2.042332e+003;2.680708e-002
2.044261e+003;2.649596e-002
2.046189e+003;2.623774e-002
2.048118e+003;2.644137e-002
2.050047e+003;2.657813e-002
2.051975e+003;2.651895e-002
2.053904e+003;2.660814e-002
2.055832e+003;2.684603e-002
2.057761e+003;2.682904e-002
2.059689e+003;2.677142e-002
2.061618e+003;2.697107e-002
2.063546e+003;2.716626e-002
2.065475e+003;2.727523e-002
2.067404e+003;2.736891e-002
2.069332e+003;2.730384e-002
2.071260e+003;2.717698e-002
2.073189e+003;2.697417e-002
2.075118e+003;2.700576e-002
2.077046e+003;2.716273e-002
2.078975e+003;2.694801e-002
2.080903e+003;2.668938e-002
2.082832e+003;2.663861e-002
2.084760e+003;2.676285e-002
2.086689e+003;2.683810e-002
2.088617e+003;2.650698e-002
2.090546e+003;2.636820e-002
2.092475e+003;2.651113e-002
2.094403e+003;2.656164e-002
2.096332e+003;2.650402e-002
2.098260e+003;2.638035e-002
2.100189e+003;2.633828e-002
2.102117e+003;2.632215e-002
2.104046e+003;2.635852e-002
2.105974e+003;2.631979e-002
2.107903e+003;2.641866e-002
2.109832e+003;2.658574e-002
2.111760e+003;2.667977e-002
2.113688e+003;2.687144e-002
2.115617e+003;2.715014e-002
2.117546e+003;2.717053e-002
2.119474e+003;2.697227e-002
2.121403e+003;2.685435e-002
2.123331e+003;2.697068e-002
2.125260e+003;2.709840e-002
2.127188e+003;2.701916e-002
2.129117e+003;2.694039e-002
2.131045e+003;2.697156e-002
2.132974e+003;2.709981e-002
2.134903e+003;2.713102e-002
2.136831e+003;2.710048e-002
2.138760e+003;2.710743e-002
2.140688e+003;2.708168e-002
2.142617e+003;2.714397e-002
2.144545e+003;2.724849e-002
2.146474e+003;2.723727e-002
2.148402e+003;2.720129e-002
2.150331e+003;2.733966e-002
2.152260e+003;2.749985e-002
2.154188e+003;2.743445e-002
2.156117e+003;2.740971e-002
2.158045e+003;2.774088e-002
2.159974e+003;2.786883e-002
2.161902e+003;2.781276e-002
2.163831e+003;2.781177e-002
2.165759e+003;2.789416e-002
2.167688e+003;2.797006e-002
2.169616e+003;2.803950e-002
2.171545e+003;2.803873e-002
2.173474e+003;2.801543e-002
2.175402e+003;2.810988e-002
2.177331e+003;2.846479e-002
2.179259e+003;2.855420e-002
2.181188e+003;2.833890e-002
2.183116e+003;2.827358e-002
2.185045e+003;2.851457e-002
2.186973e+003;2.858984e-002
2.188902e+003;2.836567e-002
2.190831e+003;2.830668e-002
2.192759e+003;2.850084e-002
2.194688e+003;2.860711e-002
2.196616e+003;2.847512e-002
2.198545e+003;2.817853e-002
2.200473e+003;2.795451e-002
2.202402e+003;2.822984e-002
2.204330e+003;2.870239e-002
2.206259e+003;2.853916e-002
2.208188e+003;2.812769e-002
2.210116e+003;2.807287e-002
2.212044e+003;2.798536e-002
2.213973e+003;2.779089e-002
2.215902e+003;2.787137e-002
2.217830e+003;2.802696e-002
2.219759e+003;2.797345e-002
2.221687e+003;2.781926e-002
2.223616e+003;2.754384e-002
2.225544e+003;2.722266e-002
2.227473e+003;2.718527e-002
2.229401e+003;2.710235e-002
2.231330e+003;2.682326e-002
2.233259e+003;2.687849e-002
2.235187e+003;2.721674e-002
2.237116e+003;2.729121e-002
2.239044e+003;2.722383e-002
2.240973e+003;2.728116e-002
2.242901e+003;2.734597e-002
2.244830e+003;2.748814e-002
2.246758e+003;2.769182e-002
2.248687e+003;2.773039e-002
2.250615e+003;2.763324e-002
2.252544e+003;2.752898e-002
2.254473e+003;2.761230e-002
2.256401e+003;2.762046e-002
2.258330e+003;2.757262e-002
2.260258e+003;2.754857e-002
2.262187e+003;2.770097e-002
2.264115e+003;2.783230e-002
2.266044e+003;2.769278e-002
2.267972e+003;2.789645e-002
2.269901e+003;2.841219e-002
2.271830e+003;2.850389e-002
2.273758e+003;2.816969e-002
2.275687e+003;2.802734e-002
2.277615e+003;2.832418e-002
2.279544e+003;2.855877e-002
2.281472e+003;2.847364e-002
2.283401e+003;2.839687e-002
2.285329e+003;2.841484e-002
2.287258e+003;2.860916e-002
2.289187e+003;2.885165e-002
2.291115e+003;2.893806e-002
2.293043e+003;2.899083e-002
2.294972e+003;2.890661e-002
2.296901e+003;2.882301e-002
2.298829e+003;2.873265e-002
2.300758e+003;2.878388e-002
2.302686e+003;2.880941e-002
2.304615e+003;2.893555e-002
2.306543e+003;2.922163e-002
2.308472e+003;2.937653e-002
2.310400e+003;2.938383e-002
2.312329e+003;2.940411e-002
2.314258e+003;2.944127e-002
2.316186e+003;2.955234e-002
2.318115e+003;2.947510e-002
2.320043e+003;2.902874e-002
2.321972e+003;2.874848e-002
2.323900e+003;2.889531e-002
2.325829e+003;2.881759e-002
2.327757e+003;2.846790e-002
2.329686e+003;2.850438e-002
2.331615e+003;2.860527e-002
2.333543e+003;2.856592e-002
2.335472e+003;2.845227e-002
2.337400e+003;2.831789e-002
2.339329e+003;2.829890e-002
2.341257e+003;2.820067e-002
2.343186e+003;2.822365e-002
2.345114e+003;2.845627e-002
2.347043e+003;2.862544e-002
2.348971e+003;2.852958e-002
2.350900e+003;2.835810e-002
2.352829e+003;2.833794e-002
2.354757e+003;2.830134e-002
2.356686e+003;2.822124e-002
2.358614e+003;2.808952e-002
2.360543e+003;2.813756e-002
2.362471e+003;2.825717e-002
2.364400e+003;2.829052e-002
2.366328e+003;2.810263e-002
2.368257e+003;2.811585e-002
2.370186e+003;2.859493e-002
2.372114e+003;2.901478e-002
2.374042e+003;2.926778e-002
2.375971e+003;2.942379e-002
2.377900e+003;2.952170e-002
2.379828e+003;2.969963e-002
2.381757e+003;2.967749e-002
2.383685e+003;2.957043e-002
2.385614e+003;2.979408e-002
2.387542e+003;3.011074e-002
2.389471e+003;3.038790e-002
2.391399e+003;3.031392e-002
2.393328e+003;2.994216e-002
2.395257e+003;2.958426e-002
2.397185e+003;2.953379e-002
2.399114e+003;2.966904e-002
2.401042e+003;2.972904e-002
2.402971e+003;3.002662e-002
2.404899e+003;3.031570e-002
2.406828e+003;3.040236e-002
2.408756e+003;3.033172e-002
2.410685e+003;3.005755e-002
2.412614e+003;2.996115e-002
2.414542e+003;3.013741e-002
2.416471e+003;3.046420e-002
2.418399e+003;3.055243e-002
2.420328e+003;3.032995e-002
2.422256e+003;3.041583e-002
2.424185e+003;3.052481e-002
2.426113e+003;3.046929e-002
2.428042e+003;3.061649e-002
2.429970e+003;3.083759e-002
2.431899e+003;3.087071e-002
2.433828e+003;3.075005e-002
2.435756e+003;3.089991e-002
2.437685e+003;3.103182e-002
2.439613e+003;3.110528e-002
2.441542e+003;3.123312e-002
2.443470e+003;3.128450e-002
2.445399e+003;3.155763e-002
2.447327e+003;3.167352e-002
2.449256e+003;3.167502e-002
2.451185e+003;3.171822e-002
2.453113e+003;3.178748e-002
2.455042e+003;3.205622e-002
2.456970e+003;3.210049e-002
2.458899e+003;3.197511e-002
2.460827e+003;3.204681e-002
2.462756e+003;3.211587e-002
2.464684e+003;3.223445e-002
2.466613e+003;3.230076e-002
2.468542e+003;3.232414e-002
2.470470e+003;3.246497e-002
2.472398e+003;3.283022e-002
2.474327e+003;3.314237e-002
2.476256e+003;3.297129e-002
2.478184e+003;3.298451e-002
2.480113e+003;3.317878e-002
2.482041e+003;3.318100e-002
2.483970e+003;3.314860e-002
2.485898e+003;3.316072e-002
2.487827e+003;3.309939e-002
2.489755e+003;3.297533e-002
2.491684e+003;3.274817e-002
2.493613e+003;3.247254e-002
2.495541e+003;3.255214e-002
2.497470e+003;3.283425e-002
2.499398e+003;3.284154e-002
2.501327e+003;3.297887e-002
2.503255e+003;3.319806e-002
2.505184e+003;3.316937e-002
2.507112e+003;3.317009e-002
2.509041e+003;3.334673e-002
2.510969e+003;3.352945e-002
2.512898e+003;3.365321e-002
2.514827e+003;3.392046e-002
2.516755e+003;3.436890e-002
2.518684e+003;3.468307e-002
2.520612e+003;3.484564e-002
2.522541e+003;3.492208e-002
2.524469e+003;3.499710e-002
2.526398e+003;3.501006e-002
2.528326e+003;3.496266e-002
2.530255e+003;3.523923e-002
2.532184e+003;3.564843e-002
2.534112e+003;3.592055e-002
2.536041e+003;3.591914e-002
2.537969e+003;3.614469e-002
2.539898e+003;3.653978e-002
2.541826e+003;3.659623e-002
2.543755e+003;3.643772e-002
2.545683e+003;3.657961e-002
2.547612e+003;3.686519e-002
2.549541e+003;3.680557e-002
2.551469e+003;3.646915e-002
2.553397e+003;3.631378e-002
2.555326e+003;3.648717e-002
2.557255e+003;3.649981e-002
2.559183e+003;3.648331e-002
2.561112e+003;3.658520e-002
2.563040e+003;3.675570e-002
2.564969e+003;3.694682e-002
2.566897e+003;3.703825e-002
2.568826e+003;3.697662e-002
2.570754e+003;3.702717e-002
2.572683e+003;3.730239e-002
2.574612e+003;3.760409e-002
2.576540e+003;3.761706e-002
2.578469e+003;3.778170e-002
2.580397e+003;3.824997e-002
2.582326e+003;3.842471e-002
2.584254e+003;3.834099e-002
2.586183e+003;3.858267e-002
2.588111e+003;3.881112e-002
2.590040e+003;3.882435e-002
2.591969e+003;3.876565e-002
2.593897e+003;3.860878e-002
2.595826e+003;3.876464e-002
2.597754e+003;3.911122e-002
2.599683e+003;3.925417e-002
2.601611e+003;3.905148e-002
2.603540e+003;3.913142e-002
2.605468e+003;3.926842e-002
2.607397e+003;3.930470e-002
2.609325e+003;3.938933e-002
2.611254e+003;3.946215e-002
2.613183e+003;3.965265e-002
2.615111e+003;3.978961e-002
2.617040e+003;3.961762e-002
2.618968e+003;3.935055e-002
2.620897e+003;3.959399e-002
2.622825e+003;3.984520e-002
2.624754e+003;3.985588e-002
2.626682e+003;3.988457e-002
2.628611e+003;4.011193e-002
2.630540e+003;4.043791e-002
2.632468e+003;4.048079e-002
2.634396e+003;4.060746e-002
2.636325e+003;4.058854e-002
2.638254e+003;4.060422e-002
2.640182e+003;4.078642e-002
2.642111e+003;4.091047e-002
2.644039e+003;4.101840e-002
2.645968e+003;4.130505e-002
2.647896e+003;4.145488e-002
2.649825e+003;4.146578e-002
2.651753e+003;4.167081e-002
2.653682e+003;4.175401e-002
2.655611e+003;4.178035e-002
2.657539e+003;4.185615e-002
2.659468e+003;4.161315e-002
2.661396e+003;4.164003e-002
2.663325e+003;4.202987e-002
2.665253e+003;4.236617e-002
2.667182e+003;4.245315e-002
2.669110e+003;4.258639e-002
2.671039e+003;4.289050e-002
2.672968e+003;4.291976e-002
2.674896e+003;4.310165e-002
2.676825e+003;4.338291e-002
2.678753e+003;4.339818e-002
2.680682e+003;4.333106e-002
2.682610e+003;4.342297e-002
2.684539e+003;4.372558e-002
2.686467e+003;4.409298e-002
2.688396e+003;4.437803e-002
2.690324e+003;4.463720e-002
2.692253e+003;4.503217e-002
2.694182e+003;4.524451e-002
2.696110e+003;4.525198e-002
2.698039e+003;4.556782e-002
2.699967e+003;4.608199e-002
2.701896e+003;4.626404e-002
2.703824e+003;4.630941e-002
2.705753e+003;4.662153e-002
2.707681e+003;4.686318e-002
2.709610e+003;4.706461e-002
2.711539e+003;4.745727e-002
2.713467e+003;4.779703e-002
2.715396e+003;4.808797e-002
2.717324e+003;4.843516e-002
2.719253e+003;4.880626e-002
2.721181e+003;4.926152e-002
2.723110e+003;4.968111e-002
2.725038e+003;4.988348e-002
2.726967e+003;5.009594e-002
2.728896e+003;5.035289e-002
2.730824e+003;5.076825e-002
2.732752e+003;5.132553e-002
2.734681e+003;5.178199e-002
2.736610e+003;5.201589e-002
2.738538e+003;5.212783e-002
2.740467e+003;5.237792e-002
2.742395e+003;5.268279e-002
2.744324e+003;5.266761e-002
2.746252e+003;5.276630e-002
2.748181e+003;5.305321e-002
2.750109e+003;5.332177e-002
2.752038e+003;5.355346e-002
2.753967e+003;5.366870e-002
2.755895e+003;5.361220e-002
2.757824e+003;5.358795e-002
2.759752e+003;5.374778e-002
2.761681e+003;5.400146e-002
2.763609e+003;5.398525e-002
2.765538e+003;5.397880e-002
2.767466e+003;5.441987e-002
2.769395e+003;5.498014e-002
2.771323e+003;5.511606e-002
2.773252e+003;5.523043e-002
2.775181e+003;5.566092e-002
2.777109e+003;5.615091e-002
2.779038e+003;5.658982e-002
2.780966e+003;5.720063e-002
2.782895e+003;5.756323e-002
2.784823e+003;5.760542e-002
2.786752e+003;5.772014e-002
2.788680e+003;5.823081e-002
2.790609e+003;5.868525e-002
2.792538e+003;5.873493e-002
2.794466e+003;5.896752e-002
2.796395e+003;5.953152e-002
2.798323e+003;6.005273e-002
2.800252e+003;6.050204e-002
2.802180e+003;6.080391e-002
2.804109e+003;6.135629e-002
2.806037e+003;6.219801e-002
2.807966e+003;6.302833e-002
2.809895e+003;6.387310e-002
2.811823e+003;6.432284e-002
2.813751e+003;6.482226e-002
2.815680e+003;6.578817e-002
2.817609e+003;6.647045e-002
2.819537e+003;6.693480e-002
2.821466e+003;6.766213e-002
2.823394e+003;6.836884e-002
2.825323e+003;6.902714e-002
2.827251e+003;6.998141e-002
2.829180e+003;7.074179e-002
2.831108e+003;7.163508e-002
2.833037e+003;7.303280e-002
2.834966e+003;7.455706e-002
2.836894e+003;7.646023e-002
2.838823e+003;7.894043e-002
2.840751e+003;8.202932e-002
2.842680e+003;8.590019e-002
2.844608e+003;9.055161e-002
2.846537e+003;9.554488e-002
2.848465e+003;1.005758e-001
2.850394e+003;1.050854e-001
2.852323e+003;1.089229e-001
2.854251e+003;1.122720e-001
2.856180e+003;1.156149e-001
2.858108e+003;1.182287e-001
2.860037e+003;1.200329e-001
2.861965e+003;1.211106e-001
2.863894e+003;1.209093e-001
2.865822e+003;1.197375e-001
2.867751e+003;1.183775e-001
2.869679e+003;1.165157e-001
2.871608e+003;1.141781e-001
2.873536e+003;1.115535e-001
2.875465e+003;1.084311e-001
2.877394e+003;1.052549e-001
2.879322e+003;1.022752e-001
2.881251e+003;9.999537e-002
2.883179e+003;9.865446e-002
2.885108e+003;9.819615e-002
2.887036e+003;9.828190e-002
2.888965e+003;9.883913e-002
2.890893e+003;1.001255e-001
2.892822e+003;1.022691e-001
2.894750e+003;1.047311e-001
2.896679e+003;1.067867e-001
2.898608e+003;1.087319e-001
2.900536e+003;1.104060e-001
2.902465e+003;1.117185e-001
2.904393e+003;1.128865e-001
2.906322e+003;1.141308e-001
2.908250e+003;1.158152e-001
2.910179e+003;1.179898e-001
2.912107e+003;1.204013e-001
2.914036e+003;1.230734e-001
2.915965e+003;1.261596e-001
2.917893e+003;1.294132e-001
2.919822e+003;1.327365e-001
2.921750e+003;1.363388e-001
2.923679e+003;1.398964e-001
2.925607e+003;1.428623e-001
2.927536e+003;1.457547e-001
2.929464e+003;1.484127e-001
2.931393e+003;1.503787e-001
2.933322e+003;1.517904e-001
2.935250e+003;1.523069e-001
2.937178e+003;1.517314e-001
2.939107e+003;1.500879e-001
2.941036e+003;1.475991e-001
2.942964e+003;1.441909e-001
2.944893e+003;1.400356e-001
2.946821e+003;1.350175e-001
2.948750e+003;1.288830e-001
2.950678e+003;1.221076e-001
2.952607e+003;1.155059e-001
2.954535e+003;1.091560e-001
2.956464e+003;1.029362e-001
2.958393e+003;9.766584e-002
2.960321e+003;9.337434e-002
2.962250e+003;8.947858e-002
2.964178e+003;8.580039e-002
2.966107e+003;8.259048e-002
2.968035e+003;7.946602e-002
2.969964e+003;7.663910e-002
2.971892e+003;7.412780e-002
2.973821e+003;7.173430e-002
2.975750e+003;6.977503e-002
2.977678e+003;6.788331e-002
2.979607e+003;6.591615e-002
2.981535e+003;6.429737e-002
2.983464e+003;6.276641e-002
2.985392e+003;6.122744e-002
2.987321e+003;6.021781e-002
2.989249e+003;5.965452e-002
2.991178e+003;5.906716e-002
2.993106e+003;5.855897e-002
2.995035e+003;5.824323e-002
2.996964e+003;5.800202e-002
2.998892e+003;5.765354e-002
3.000821e+003;5.719681e-002
3.002749e+003;5.706953e-002
3.004678e+003;5.703719e-002
3.006606e+003;5.681514e-002
3.008535e+003;5.682213e-002
3.010463e+003;5.691074e-002
3.012392e+003;5.708185e-002
3.014321e+003;5.743425e-002
3.016249e+003;5.785080e-002
3.018177e+003;5.816549e-002
3.020106e+003;5.848993e-002
3.022035e+003;5.894866e-002
3.023963e+003;5.922648e-002
3.025892e+003;5.938099e-002
3.027820e+003;5.952807e-002
3.029749e+003;5.987364e-002
3.031677e+003;6.058367e-002
3.033606e+003;6.171937e-002
3.035534e+003;6.304465e-002
3.037463e+003;6.375866e-002
3.039392e+003;6.439278e-002
3.041320e+003;6.531820e-002
3.043249e+003;6.635841e-002
3.045177e+003;6.710171e-002
3.047106e+003;6.774477e-002
3.049034e+003;6.845258e-002
3.050963e+003;6.917508e-002
3.052891e+003;7.007173e-002
3.054820e+003;7.121397e-002
3.056749e+003;7.208160e-002
3.058677e+003;7.271049e-002
3.060606e+003;7.336634e-002
3.062534e+003;7.362276e-002
3.064463e+003;7.351694e-002
3.066391e+003;7.346562e-002
3.068320e+003;7.373976e-002
3.070248e+003;7.392286e-002
3.072177e+003;7.379344e-002
3.074105e+003;7.408037e-002
3.076034e+003;7.436674e-002
3.077963e+003;7.423645e-002
3.079891e+003;7.419980e-002
3.081820e+003;7.413723e-002
3.083748e+003;7.384179e-002
3.085677e+003;7.337859e-002
3.087605e+003;7.271178e-002
3.089534e+003;7.177836e-002
3.091462e+003;7.087283e-002
3.093391e+003;7.035157e-002
3.095320e+003;6.989181e-002
3.097248e+003;6.921829e-002
3.099177e+003;6.884443e-002
3.101105e+003;6.834465e-002
3.103034e+003;6.759766e-002
3.104962e+003;6.674879e-002
3.106891e+003;6.594184e-002
3.108819e+003;6.525519e-002
3.110748e+003;6.481483e-002
3.112677e+003;6.411014e-002
3.114605e+003;6.340043e-002
3.116533e+003;6.324138e-002
3.118462e+003;6.280547e-002
3.120391e+003;6.233147e-002
3.122319e+003;6.212961e-002
3.124248e+003;6.217331e-002
3.126176e+003;6.184466e-002
3.128105e+003;6.139976e-002
3.130033e+003;6.137385e-002
3.131962e+003;6.130455e-002
3.133890e+003;6.137167e-002
3.135819e+003;6.170554e-002
3.137748e+003;6.175053e-002
3.139676e+003;6.167502e-002
3.141605e+003;6.172185e-002
3.143533e+003;6.193735e-002
3.145462e+003;6.196930e-002
3.147390e+003;6.217564e-002
3.149319e+003;6.255061e-002
3.151247e+003;6.268629e-002
3.153176e+003;6.307254e-002
3.155104e+003;6.374162e-002
3.157033e+003;6.413645e-002
3.158962e+003;6.444459e-002
3.160890e+003;6.497419e-002
3.162819e+003;6.563064e-002
3.164747e+003;6.580965e-002
3.166676e+003;6.567149e-002
3.168604e+003;6.639779e-002
3.170533e+003;6.767696e-002
3.172461e+003;6.864705e-002
3.174390e+003;6.919497e-002
3.176319e+003;6.991999e-002
3.178247e+003;7.047357e-002
3.180176e+003;7.085957e-002
3.182104e+003;7.136811e-002
3.184033e+003;7.197455e-002
3.185961e+003;7.244803e-002
3.187890e+003;7.271464e-002
3.189818e+003;7.338369e-002
3.191747e+003;7.408041e-002
3.193676e+003;7.455281e-002
3.195604e+003;7.519519e-002
3.197532e+003;7.593042e-002
3.199461e+003;7.628768e-002
3.201390e+003;7.638430e-002
3.203318e+003;7.659554e-002
3.205247e+003;7.697562e-002
3.207175e+003;7.741500e-002
3.209104e+003;7.805587e-002
3.211032e+003;7.888587e-002
3.212961e+003;7.909603e-002
3.214889e+003;7.959475e-002
3.216818e+003;8.084439e-002
3.218747e+003;8.159125e-002
3.220675e+003;8.170970e-002
3.222604e+003;8.230764e-002
3.224532e+003;8.321235e-002
3.226461e+003;8.393504e-002
3.228389e+003;8.471028e-002
3.230318e+003;8.564284e-002
3.232246e+003;8.687191e-002
3.234175e+003;8.840215e-002
3.236104e+003;8.970983e-002
3.238032e+003;9.122559e-002
3.239961e+003;9.320910e-002
3.241889e+003;9.492003e-002
3.243818e+003;9.678864e-002
3.245746e+003;9.896487e-002
3.247675e+003;1.008441e-001
3.249603e+003;1.022746e-001
3.251532e+003;1.042002e-001
3.253460e+003;1.067270e-001
3.255389e+003;1.089708e-001
3.257318e+003;1.112168e-001
3.259246e+003;1.134856e-001
3.261175e+003;1.160107e-001
3.263103e+003;1.190952e-001
3.265032e+003;1.220137e-001
3.266960e+003;1.243715e-001
3.268889e+003;1.263529e-001
3.270817e+003;1.284700e-001
3.272746e+003;1.308611e-001
3.274675e+003;1.333004e-001
3.276603e+003;1.356873e-001
3.278531e+003;1.382577e-001
3.280460e+003;1.408168e-001
3.282389e+003;1.431743e-001
3.284317e+003;1.455050e-001
3.286246e+003;1.473480e-001
3.288174e+003;1.482776e-001
3.290103e+003;1.489595e-001
3.292031e+003;1.494044e-001
3.293960e+003;1.486533e-001
3.295888e+003;1.471359e-001
3.297817e+003;1.452078e-001
3.299746e+003;1.426318e-001
3.301674e+003;1.398347e-001
3.303603e+003;1.369658e-001
3.305531e+003;1.338004e-001
3.307460e+003;1.299979e-001
3.309388e+003;1.262302e-001
3.311317e+003;1.227202e-001
3.313245e+003;1.195223e-001
3.315174e+003;1.166776e-001
3.317103e+003;1.138229e-001
3.319031e+003;1.106686e-001
3.320960e+003;1.076679e-001
3.322888e+003;1.044602e-001
3.324817e+003;1.014849e-001
3.326745e+003;9.878363e-002
3.328674e+003;9.593663e-002
3.330602e+003;9.346670e-002
3.332531e+003;9.139829e-002
3.334459e+003;8.951999e-002
3.336388e+003;8.721582e-002
3.338317e+003;8.489979e-002
3.340245e+003;8.315741e-002
3.342174e+003;8.179601e-002
3.344102e+003;8.026316e-002
3.346031e+003;7.858388e-002
3.347959e+003;7.695573e-002
3.349888e+003;7.519932e-002
3.351816e+003;7.364985e-002
3.353745e+003;7.229937e-002
3.355674e+003;7.079342e-002
3.357602e+003;6.949696e-002
3.359531e+003;6.844979e-002
3.361459e+003;6.737740e-002
3.363388e+003;6.615918e-002
3.365316e+003;6.519686e-002
3.367245e+003;6.437676e-002
3.369173e+003;6.363277e-002
3.371102e+003;6.282511e-002
3.373031e+003;6.197694e-002
3.374959e+003;6.111609e-002
3.376887e+003;6.047739e-002
3.378816e+003;6.010832e-002
3.380745e+003;5.985264e-002
3.382673e+003;5.912600e-002
3.384602e+003;5.860879e-002
3.386530e+003;5.842965e-002
3.388459e+003;5.769263e-002
3.390387e+003;5.718370e-002
3.392316e+003;5.644071e-002
3.394244e+003;5.571847e-002
3.396173e+003;5.574270e-002
3.398102e+003;5.567787e-002
3.400030e+003;5.516365e-002
3.401959e+003;5.482192e-002
3.403887e+003;5.475896e-002
3.405816e+003;5.482369e-002
3.407744e+003;5.440402e-002
3.409673e+003;5.360452e-002
3.411601e+003;5.329543e-002
3.413530e+003;5.320940e-002
3.415458e+003;5.272204e-002
3.417387e+003;5.214689e-002
3.419316e+003;5.217637e-002
3.421244e+003;5.235721e-002
3.423173e+003;5.226452e-002
3.425101e+003;5.211536e-002
3.427030e+003;5.180972e-002
3.428958e+003;5.133377e-002
3.430887e+003;5.111429e-002
3.432815e+003;5.103368e-002
3.434744e+003;5.109212e-002
3.436673e+003;5.096612e-002
3.438601e+003;5.087570e-002
3.440530e+003;5.081730e-002
3.442458e+003;5.067578e-002
3.444387e+003;5.053368e-002
3.446315e+003;5.033790e-002
3.448244e+003;5.017269e-002
3.450172e+003;4.964890e-002
3.452101e+003;4.901616e-002
3.454030e+003;4.898541e-002
3.455958e+003;4.918727e-002
3.457886e+003;4.883173e-002
3.459815e+003;4.857868e-002
3.461744e+003;4.840089e-002
3.463672e+003;4.785500e-002
3.465601e+003;4.711848e-002
3.467529e+003;4.683450e-002
3.469458e+003;4.686805e-002
3.471386e+003;4.667779e-002
3.473315e+003;4.626912e-002
3.475243e+003;4.617069e-002
3.477172e+003;4.603042e-002
3.479101e+003;4.604445e-002
3.481029e+003;4.603664e-002
3.482958e+003;4.556962e-002
3.484886e+003;4.529754e-002
3.486815e+003;4.540906e-002
3.488743e+003;4.543297e-002
3.490672e+003;4.542403e-002
3.492600e+003;4.547532e-002
3.494529e+003;4.556793e-002
3.496458e+003;4.557147e-002
3.498386e+003;4.550615e-002
3.500315e+003;4.536426e-002
3.502243e+003;4.493151e-002
3.504172e+003;4.444384e-002
3.506100e+003;4.413959e-002
3.508029e+003;4.380891e-002
3.509957e+003;4.372700e-002
3.511886e+003;4.409668e-002
3.513814e+003;4.382639e-002
3.515743e+003;4.337116e-002
3.517672e+003;4.274075e-002
3.519600e+003;4.213069e-002
3.521529e+003;4.202129e-002
3.523457e+003;4.192877e-002
3.525386e+003;4.149848e-002
3.527314e+003;4.110595e-002
3.529243e+003;4.111641e-002
3.531171e+003;4.086257e-002
3.533100e+003;4.039806e-002
3.535029e+003;4.000002e-002
3.536957e+003;3.972591e-002
3.538885e+003;3.968740e-002
3.540814e+003;3.990052e-002
3.542743e+003;3.960307e-002
3.544671e+003;3.889827e-002
3.546600e+003;3.871103e-002
3.548528e+003;3.886341e-002
3.550457e+003;3.843361e-002
3.552385e+003;3.763913e-002
3.554314e+003;3.712641e-002
3.556242e+003;3.697536e-002
3.558171e+003;3.670680e-002
3.560100e+003;3.646994e-002
3.562028e+003;3.647790e-002
3.563957e+003;3.573653e-002
3.565885e+003;3.490157e-002
3.567814e+003;3.472075e-002
3.569742e+003;3.493321e-002
3.571671e+003;3.489964e-002
3.573599e+003;3.457689e-002
3.575528e+003;3.420759e-002
3.577457e+003;3.370613e-002
3.579385e+003;3.322206e-002
3.581314e+003;3.301762e-002
3.583242e+003;3.261839e-002
3.585171e+003;3.193160e-002
3.587099e+003;3.161978e-002
3.589028e+003;3.169452e-002
3.590956e+003;3.183893e-002
3.592885e+003;3.164155e-002
3.594813e+003;3.137591e-002
3.596742e+003;3.089636e-002
3.598671e+003;3.047426e-002
3.600599e+003;3.027228e-002
3.602528e+003;3.003926e-002
3.604456e+003;2.944500e-002
3.606385e+003;2.859118e-002
3.608313e+003;2.798246e-002
3.610242e+003;2.794182e-002
3.612170e+003;2.775610e-002
3.614099e+003;2.743064e-002
3.616028e+003;2.677128e-002
3.617956e+003;2.608438e-002
3.619885e+003;2.648356e-002
3.621813e+003;2.736782e-002
3.623742e+003;2.726687e-002
3.625670e+003;2.629431e-002
3.627599e+003;2.502895e-002
3.629527e+003;2.493482e-002
3.631456e+003;2.548123e-002
3.633385e+003;2.499701e-002
3.635313e+003;2.478069e-002
3.637241e+003;2.499381e-002
3.639170e+003;2.499711e-002
3.641099e+003;2.453267e-002
3.643027e+003;2.400188e-002
3.644956e+003;2.390588e-002
3.646884e+003;2.358328e-002
3.648813e+003;2.291255e-002
3.650741e+003;2.306934e-002
3.652670e+003;2.334571e-002
3.654598e+003;2.285684e-002
3.656527e+003;2.280396e-002
3.658456e+003;2.291321e-002
3.660384e+003;2.264067e-002
3.662313e+003;2.272222e-002
3.664241e+003;2.297308e-002
3.666170e+003;2.289379e-002
3.668098e+003;2.209887e-002
3.670027e+003;2.132684e-002
3.671955e+003;2.142628e-002
3.673884e+003;2.075650e-002
3.675813e+003;2.072546e-002
3.677741e+003;2.197934e-002
3.679669e+003;2.198206e-002
3.681598e+003;2.170237e-002
3.683527e+003;2.130011e-002
3.685455e+003;2.023033e-002
3.687384e+003;1.926032e-002
3.689312e+003;1.910847e-002
3.691241e+003;1.934727e-002
3.693169e+003;1.951276e-002
3.695098e+003;1.942609e-002
3.697026e+003;1.950250e-002
3.698955e+003;1.982541e-002
3.700884e+003;1.989245e-002
3.702812e+003;1.974769e-002
3.704741e+003;1.968743e-002
3.706669e+003;1.963134e-002
3.708598e+003;1.894947e-002
3.710526e+003;1.830751e-002
3.712455e+003;1.803032e-002
3.714383e+003;1.847022e-002
3.716312e+003;1.922468e-002
3.718240e+003;1.940295e-002
3.720169e+003;1.912177e-002
3.722098e+003;1.914351e-002
3.724026e+003;1.916159e-002
3.725955e+003;1.917921e-002
3.727883e+003;1.951217e-002
3.729812e+003;1.920415e-002
3.731740e+003;1.860511e-002
3.733669e+003;1.836057e-002
3.735597e+003;1.804003e-002
3.737526e+003;1.842417e-002
3.739455e+003;1.899582e-002
3.741383e+003;1.889216e-002
3.743312e+003;1.747944e-002
3.745240e+003;1.736279e-002
3.747169e+003;1.807181e-002
3.749097e+003;1.756347e-002
3.751026e+003;1.734434e-002
3.752954e+003;1.808448e-002
3.754883e+003;1.925094e-002
3.756812e+003;1.928246e-002
3.758740e+003;1.899606e-002
3.760668e+003;1.923064e-002
3.762597e+003;1.967093e-002
3.764526e+003;1.964780e-002
3.766454e+003;1.962104e-002
3.768383e+003;1.903251e-002
3.770311e+003;1.854121e-002
3.772240e+003;1.902316e-002
3.774168e+003;1.960780e-002
3.776097e+003;1.965300e-002
3.778025e+003;1.970106e-002
3.779954e+003;1.962170e-002
3.781883e+003;1.969475e-002
3.783811e+003;1.963345e-002
3.785740e+003;1.941071e-002
3.787668e+003;1.919708e-002
3.789597e+003;1.936002e-002
3.791525e+003;1.973368e-002
3.793454e+003;1.967093e-002
3.795382e+003;1.905262e-002
3.797311e+003;1.879547e-002
3.799240e+003;1.823857e-002
3.801168e+003;1.770264e-002
3.803097e+003;1.840492e-002
3.805025e+003;1.875496e-002
3.806954e+003;1.869311e-002
3.808882e+003;1.947460e-002
3.810811e+003;1.981434e-002
3.812739e+003;1.959321e-002
3.814668e+003;1.870013e-002
3.816596e+003;1.881225e-002
3.818525e+003;1.924671e-002
3.820454e+003;1.860086e-002
3.822382e+003;1.874261e-002
3.824311e+003;1.931176e-002
3.826239e+003;1.975119e-002
3.828168e+003;2.004753e-002
3.830096e+003;1.994469e-002
3.832025e+003;1.985239e-002
3.833953e+003;1.947932e-002
3.835882e+003;1.866063e-002
3.837811e+003;1.836427e-002
3.839739e+003;1.900499e-002
3.841667e+003;1.922347e-002
3.843596e+003;1.945904e-002
3.845525e+003;1.987563e-002
3.847453e+003;1.994487e-002
3.849382e+003;1.982416e-002
3.851310e+003;1.915629e-002
3.853239e+003;1.820861e-002
3.855167e+003;1.925475e-002
3.857096e+003;2.055808e-002
3.859024e+003;2.062277e-002
3.860953e+003;2.047235e-002
3.862882e+003;2.011478e-002
3.864810e+003;1.997730e-002
3.866739e+003;2.023311e-002
3.868667e+003;1.960475e-002
3.870596e+003;1.973139e-002
3.872524e+003;2.034605e-002
3.874453e+003;2.060606e-002
3.876381e+003;2.109087e-002
3.878310e+003;2.075413e-002
3.880239e+003;2.014397e-002
3.882167e+003;2.057452e-002
3.884096e+003;2.065377e-002
3.886024e+003;2.040421e-002
3.887953e+003;2.083888e-002
3.889881e+003;2.091919e-002
3.891810e+003;2.085692e-002
3.893738e+003;2.096773e-002
3.895667e+003;2.101721e-002
3.897595e+003;2.053613e-002
3.899524e+003;2.026046e-002
3.901453e+003;2.025085e-002
3.903381e+003;2.004965e-002
3.905310e+003;2.054572e-002
3.907238e+003;2.129726e-002
3.909167e+003;2.154318e-002
3.911095e+003;2.174400e-002
3.913024e+003;2.224016e-002
3.914952e+003;2.249573e-002
3.916881e+003;2.229589e-002
3.918810e+003;2.195361e-002
3.920738e+003;2.197515e-002
3.922667e+003;2.235927e-002
3.924595e+003;2.253174e-002
3.926524e+003;2.262779e-002
3.928452e+003;2.293106e-002
3.930381e+003;2.271556e-002
3.932309e+003;2.217237e-002
3.934238e+003;2.240180e-002
3.936167e+003;2.256326e-002
3.938095e+003;2.243993e-002
3.940023e+003;2.226729e-002
3.941952e+003;2.237989e-002
3.943881e+003;2.270854e-002
3.945809e+003;2.234368e-002
3.947738e+003;2.235153e-002
3.949666e+003;2.306074e-002
3.951595e+003;2.339861e-002
3.953523e+003;2.378515e-002
3.955452e+003;2.389261e-002
3.957380e+003;2.337190e-002
3.959309e+003;2.332186e-002
3.961238e+003;2.338623e-002
3.963166e+003;2.377405e-002
3.965095e+003;2.434080e-002
3.967023e+003;2.431949e-002
3.968952e+003;2.418401e-002
3.970880e+003;2.454526e-002
3.972809e+003;2.460445e-002
3.974737e+003;2.426658e-002
3.976666e+003;2.423291e-002
3.978594e+003;2.448524e-002
3.980523e+003;2.462493e-002
3.982452e+003;2.461486e-002
3.984380e+003;2.470860e-002
3.986309e+003;2.485787e-002
3.988237e+003;2.500873e-002
3.990166e+003;2.514605e-002
3.992094e+003;2.492945e-002
3.994023e+003;2.490962e-002
3.995951e+003;2.518682e-002
3.997880e+003;2.516512e-002
3.999809e+003;2.548046e-002
4.001737e+003;0.000000e+000
