3.992094e+002;0.000000e+000
4.011380e+002;0.000000e+000
4.030665e+002;0.000000e+000
4.049951e+002;0.000000e+000
4.069236e+002;0.000000e+000
4.088522e+002;0.000000e+000
4.107807e+002;0.000000e+000
4.127093e+002;0.000000e+000
4.146378e+002;0.000000e+000
4.165664e+002;0.000000e+000
4.184949e+002;0.000000e+000
4.204235e+002;0.000000e+000
4.223520e+002;0.000000e+000
4.242806e+002;0.000000e+000
4.262091e+002;0.000000e+000
4.281377e+002;0.000000e+000
4.300662e+002;0.000000e+000
4.319948e+002;0.000000e+000
4.339233e+002;0.000000e+000
4.358519e+002;0.000000e+000
4.377804e+002;0.000000e+000
4.397090e+002;0.000000e+000
4.416375e+002;0.000000e+000
4.435660e+002;0.000000e+000
4.454946e+002;0.000000e+000
4.474232e+002;0.000000e+000
4.493517e+002;0.000000e+000
4.512802e+002;0.000000e+000
4.532088e+002;0.000000e+000
4.551373e+002;0.000000e+000
4.570659e+002;0.000000e+000
4.589944e+002;0.000000e+000
4.609230e+002;0.000000e+000
4.628515e+002;0.000000e+000
4.647801e+002;0.000000e+000
4.667086e+002;0.000000e+000
4.686372e+002;0.000000e+000
4.705657e+002;0.000000e+000
4.724943e+002;0.000000e+000
4.744228e+002;0.000000e+000
4.763513e+002;0.000000e+000
4.782799e+002;0.000000e+000
4.802085e+002;0.000000e+000
4.821370e+002;0.000000e+000
4.840656e+002;0.000000e+000
4.859941e+002;0.000000e+000
4.879226e+002;0.000000e+000
4.898512e+002;0.000000e+000
4.917798e+002;0.000000e+000
4.937083e+002;0.000000e+000
4.956368e+002;0.000000e+000
4.975654e+002;0.000000e+000
4.994939e+002;0.000000e+000
5.014225e+002;0.000000e+000
5.033510e+002;0.000000e+000
5.052796e+002;0.000000e+000
5.072081e+002;0.000000e+000
5.091367e+002;0.000000e+000
5.110652e+002;0.000000e+000
5.129938e+002;0.000000e+000
5.149223e+002;0.000000e+000
5.168509e+002;0.000000e+000
5.187794e+002;0.000000e+000
5.207079e+002;0.000000e+000
5.226365e+002;0.000000e+000
5.245651e+002;0.000000e+000
5.264936e+002;0.000000e+000
5.284222e+002;0.000000e+000
5.303507e+002;0.000000e+000
5.322792e+002;0.000000e+000
5.342078e+002;0.000000e+000
5.361364e+002;0.000000e+000
5.380649e+002;0.000000e+000
5.399935e+002;0.000000e+000
5.419220e+002;0.000000e+000
5.438505e+002;0.000000e+000
5.457791e+002;0.000000e+000
5.477076e+002;0.000000e+000
5.496362e+002;0.000000e+000
5.515648e+002;0.000000e+000
5.534933e+002;0.000000e+000
5.554218e+002;0.000000e+000
5.573504e+002;0.000000e+000
5.592789e+002;0.000000e+000
5.612075e+002;0.000000e+000
5.631360e+002;0.000000e+000
5.650646e+002;0.000000e+000
5.669931e+002;0.000000e+000
5.689217e+002;0.000000e+000
5.708502e+002;0.000000e+000
5.727787e+002;0.000000e+000
5.747073e+002;0.000000e+000
5.766359e+002;0.000000e+000
5.785644e+002;0.000000e+000
5.804930e+002;0.000000e+000
5.824215e+002;0.000000e+000
5.843500e+002;0.000000e+000
5.862786e+002;0.000000e+000
5.882072e+002;0.000000e+000
5.901357e+002;0.000000e+000
5.920643e+002;0.000000e+000
5.939928e+002;0.000000e+000
5.959213e+002;0.000000e+000
5.978499e+002;0.000000e+000
5.997784e+002;1.193931e-001
6.017070e+002;1.152745e-001
6.036355e+002;1.196086e-001
6.055641e+002;1.238708e-001
6.074926e+002;1.226352e-001
6.094211e+002;1.212470e-001
6.113497e+002;1.210751e-001
6.132783e+002;1.227492e-001
6.152068e+002;1.261966e-001
6.171354e+002;1.252248e-001
6.190639e+002;1.232567e-001
6.209924e+002;1.240774e-001
6.229210e+002;1.260418e-001
6.248495e+002;1.282129e-001
6.267781e+002;1.333649e-001
6.287067e+002;1.369350e-001
6.306352e+002;1.376403e-001
6.325637e+002;1.422951e-001
6.344923e+002;1.390247e-001
6.364208e+002;1.344035e-001
6.383494e+002;1.389177e-001
6.402780e+002;1.391154e-001
6.422065e+002;1.422501e-001
6.441350e+002;1.494854e-001
6.460636e+002;1.525079e-001
6.479921e+002;1.498053e-001
6.499207e+002;1.483503e-001
6.518492e+002;1.495665e-001
6.537778e+002;1.491400e-001
6.557063e+002;1.498308e-001
6.576349e+002;1.523085e-001
6.595634e+002;1.560389e-001
6.614919e+002;1.596148e-001
6.634205e+002;1.640287e-001
6.653491e+002;1.656390e-001
6.672776e+002;1.632575e-001
6.692062e+002;1.602022e-001
6.711347e+002;1.607809e-001
6.730632e+002;1.621549e-001
6.749918e+002;1.634982e-001
6.769203e+002;1.642427e-001
6.788489e+002;1.641961e-001
6.807775e+002;1.646135e-001
6.827060e+002;1.647226e-001
6.846345e+002;1.637184e-001
6.865631e+002;1.633655e-001
6.884916e+002;1.644148e-001
6.904202e+002;1.646571e-001
6.923488e+002;1.617043e-001
6.942773e+002;1.588393e-001
6.962058e+002;1.583151e-001
6.981344e+002;1.570688e-001
7.000629e+002;1.547162e-001
7.019915e+002;1.531239e-001
7.039200e+002;1.521043e-001
7.058486e+002;1.510526e-001
7.077771e+002;1.499414e-001
7.097057e+002;1.493010e-001
7.116342e+002;1.485911e-001
7.135627e+002;1.476354e-001
7.154913e+002;1.474876e-001
7.174199e+002;1.482721e-001
7.193484e+002;1.481360e-001
7.212770e+002;1.470316e-001
7.232055e+002;1.463954e-001
7.251340e+002;1.451986e-001
7.270626e+002;1.439299e-001
7.289911e+002;1.416163e-001
7.309197e+002;1.368831e-001
7.328483e+002;1.315544e-001
7.347768e+002;1.261755e-001
7.367053e+002;1.213016e-001
7.386339e+002;1.162212e-001
7.405624e+002;1.127923e-001
7.424910e+002;1.108190e-001
7.444196e+002;1.086209e-001
7.463481e+002;1.058711e-001
7.482766e+002;1.025333e-001
7.502052e+002;9.921825e-002
7.521337e+002;9.680267e-002
7.540623e+002;9.467846e-002
7.559908e+002;9.263406e-002
7.579194e+002;9.085096e-002
7.598479e+002;8.902847e-002
7.617765e+002;8.749352e-002
7.637050e+002;8.660793e-002
7.656335e+002;8.526866e-002
7.675621e+002;8.389528e-002
7.694907e+002;8.271544e-002
7.714192e+002;8.049884e-002
7.733478e+002;7.854612e-002
7.752763e+002;7.790361e-002
7.772048e+002;7.683541e-002
7.791334e+002;7.560579e-002
7.810620e+002;7.435714e-002
7.829905e+002;7.346754e-002
7.849191e+002;7.241331e-002
7.868476e+002;7.134269e-002
7.887761e+002;7.082220e-002
7.907047e+002;7.016487e-002
7.926332e+002;6.899444e-002
7.945618e+002;6.706776e-002
7.964903e+002;6.506594e-002
7.984189e+002;6.403008e-002
8.003474e+002;6.317481e-002
8.022759e+002;6.164711e-002
8.042045e+002;5.968785e-002
8.061331e+002;5.865949e-002
8.080616e+002;5.828408e-002
8.099902e+002;5.782847e-002
8.119187e+002;5.748675e-002
8.138472e+002;5.731147e-002
8.157758e+002;5.770436e-002
8.177043e+002;5.904507e-002
8.196329e+002;6.070048e-002
8.215615e+002;6.176757e-002
8.234900e+002;6.300090e-002
8.254185e+002;6.512114e-002
8.273471e+002;6.694891e-002
8.292756e+002;6.844463e-002
8.312042e+002;6.919719e-002
8.331328e+002;6.787693e-002
8.350613e+002;6.557456e-002
8.369898e+002;6.304415e-002
8.389184e+002;6.032649e-002
8.408469e+002;5.748875e-002
8.427755e+002;5.497273e-002
8.447040e+002;5.304037e-002
8.466326e+002;5.159090e-002
8.485611e+002;5.041808e-002
8.504897e+002;4.902098e-002
8.524182e+002;4.806336e-002
8.543467e+002;4.743247e-002
8.562753e+002;4.700257e-002
8.582039e+002;4.663178e-002
8.601324e+002;4.638886e-002
8.620610e+002;4.643333e-002
8.639895e+002;4.677527e-002
8.659180e+002;4.727680e-002
8.678466e+002;4.781135e-002
8.697751e+002;4.816926e-002
8.717037e+002;4.819088e-002
8.736323e+002;4.872263e-002
8.755608e+002;4.950651e-002
8.774893e+002;5.006872e-002
8.794179e+002;5.078512e-002
8.813464e+002;5.168349e-002
8.832750e+002;5.243616e-002
8.852036e+002;5.273053e-002
8.871321e+002;5.277142e-002
8.890606e+002;5.266589e-002
8.909892e+002;5.265567e-002
8.929177e+002;5.269379e-002
8.948463e+002;5.290741e-002
8.967748e+002;5.309717e-002
8.987034e+002;5.313645e-002
9.006319e+002;5.333039e-002
9.025605e+002;5.414414e-002
9.044890e+002;5.524176e-002
9.064175e+002;5.601311e-002
9.083461e+002;5.652913e-002
9.102747e+002;5.723140e-002
9.122032e+002;5.781991e-002
9.141318e+002;5.834122e-002
9.160603e+002;5.877238e-002
9.179888e+002;5.887698e-002
9.199174e+002;5.901834e-002
9.218459e+002;6.003295e-002
9.237745e+002;6.159876e-002
9.257031e+002;6.256817e-002
9.276316e+002;6.293046e-002
9.295601e+002;6.322314e-002
9.314887e+002;6.262348e-002
9.334172e+002;6.174935e-002
9.353458e+002;6.090957e-002
9.372744e+002;6.015265e-002
9.392029e+002;5.990285e-002
9.411314e+002;5.990327e-002
9.430600e+002;6.071648e-002
9.449885e+002;6.211252e-002
9.469171e+002;6.353630e-002
9.488456e+002;6.519067e-002
9.507742e+002;6.683010e-002
9.527027e+002;6.799641e-002
9.546313e+002;6.867363e-002
9.565598e+002;6.912628e-002
9.584883e+002;6.943817e-002
9.604169e+002;6.936850e-002
9.623455e+002;6.895611e-002
9.642740e+002;6.855877e-002
9.662026e+002;6.824898e-002
9.681311e+002;6.819113e-002
9.700596e+002;6.776664e-002
9.719882e+002;6.713949e-002
9.739167e+002;6.640975e-002
9.758453e+002;6.568108e-002
9.777739e+002;6.509092e-002
9.797024e+002;6.473398e-002
9.816309e+002;6.477348e-002
9.835595e+002;6.510220e-002
9.854880e+002;6.561048e-002
9.874166e+002;6.647435e-002
9.893452e+002;6.670965e-002
9.912737e+002;6.617516e-002
9.932022e+002;6.482457e-002
9.951307e+002;6.245870e-002
9.970593e+002;6.041026e-002
9.989879e+002;5.925222e-002
1.000916e+003;5.807723e-002
1.002845e+003;5.704436e-002
1.004773e+003;5.655227e-002
1.006702e+003;5.641102e-002
1.008631e+003;5.635115e-002
1.010559e+003;5.648505e-002
1.012488e+003;5.684717e-002
1.014416e+003;5.694156e-002
1.016345e+003;5.719700e-002
1.018273e+003;5.798782e-002
1.020202e+003;5.855859e-002
1.022130e+003;5.867413e-002
1.024059e+003;5.907513e-002
1.025988e+003;6.085487e-002
1.027916e+003;6.312262e-002
1.029845e+003;6.522982e-002
1.031773e+003;6.816074e-002
1.033702e+003;7.154674e-002
1.035630e+003;7.437704e-002
1.037559e+003;7.691119e-002
1.039487e+003;8.045688e-002
1.041416e+003;8.557602e-002
1.043344e+003;9.011449e-002
1.045273e+003;9.236191e-002
1.047202e+003;9.087907e-002
1.049130e+003;8.633277e-002
1.051059e+003;8.073456e-002
1.052987e+003;7.543566e-002
1.054916e+003;7.175349e-002
1.056844e+003;6.990181e-002
1.058773e+003;6.893657e-002
1.060701e+003;6.899592e-002
1.062630e+003;6.957201e-002
1.064558e+003;7.056743e-002
1.066487e+003;7.174896e-002
1.068416e+003;7.271178e-002
1.070344e+003;7.380612e-002
1.072273e+003;7.433438e-002
1.074201e+003;7.368483e-002
1.076130e+003;7.326549e-002
1.078058e+003;7.303982e-002
1.079987e+003;7.238841e-002
1.081915e+003;7.184696e-002
1.083844e+003;7.151115e-002
1.085773e+003;7.127077e-002
1.087701e+003;7.167728e-002
1.089630e+003;7.250559e-002
1.091558e+003;7.302904e-002
1.093487e+003;7.382651e-002
1.095415e+003;7.479119e-002
1.097344e+003;7.593191e-002
1.099272e+003;7.708628e-002
1.101201e+003;7.905612e-002
1.103129e+003;8.133060e-002
1.105058e+003;8.289274e-002
1.106987e+003;8.404367e-002
1.108915e+003;8.464596e-002
1.110844e+003;8.514529e-002
1.112772e+003;8.583450e-002
1.114701e+003;8.601812e-002
1.116629e+003;8.543567e-002
1.118558e+003;8.470653e-002
1.120486e+003;8.388291e-002
1.122415e+003;8.182845e-002
1.124344e+003;7.849054e-002
1.126272e+003;7.497237e-002
1.128201e+003;7.167392e-002
1.130129e+003;6.909442e-002
1.132058e+003;6.757711e-002
1.133986e+003;6.735778e-002
1.135915e+003;6.841984e-002
1.137843e+003;7.075181e-002
1.139772e+003;7.347661e-002
1.141700e+003;7.608404e-002
1.143629e+003;7.851154e-002
1.145557e+003;8.092386e-002
1.147486e+003;8.383399e-002
1.149415e+003;8.727702e-002
1.151343e+003;9.048875e-002
1.153272e+003;9.316570e-002
1.155200e+003;9.670682e-002
1.157129e+003;1.006081e-001
1.159057e+003;1.048882e-001
1.160986e+003;1.102817e-001
1.162914e+003;1.162742e-001
1.164843e+003;1.222033e-001
1.166771e+003;1.265851e-001
1.168700e+003;1.285445e-001
1.170629e+003;1.280212e-001
1.172557e+003;1.254785e-001
1.174486e+003;1.222976e-001
1.176414e+003;1.187377e-001
1.178343e+003;1.158547e-001
1.180271e+003;1.149733e-001
1.182200e+003;1.158673e-001
1.184128e+003;1.181374e-001
1.186057e+003;1.211194e-001
1.187986e+003;1.246678e-001
1.189914e+003;1.283888e-001
1.191843e+003;1.317201e-001
1.193771e+003;1.348204e-001
1.195700e+003;1.380827e-001
1.197628e+003;1.401698e-001
1.199557e+003;1.395102e-001
1.201485e+003;1.369984e-001
1.203414e+003;1.336866e-001
1.205343e+003;1.304832e-001
1.207271e+003;1.278641e-001
1.209200e+003;1.258982e-001
1.211128e+003;1.242310e-001
1.213057e+003;1.225115e-001
1.214985e+003;1.205515e-001
1.216914e+003;1.181489e-001
1.218842e+003;1.161995e-001
1.220771e+003;1.156261e-001
1.222699e+003;1.167947e-001
1.224628e+003;1.194947e-001
1.226557e+003;1.229618e-001
1.228485e+003;1.267926e-001
1.230414e+003;1.305292e-001
1.232342e+003;1.338128e-001
1.234271e+003;1.362941e-001
1.236199e+003;1.379288e-001
1.238128e+003;1.382765e-001
1.240056e+003;1.373315e-001
1.241985e+003;1.361550e-001
1.243913e+003;1.356508e-001
1.245842e+003;1.357540e-001
1.247771e+003;1.365197e-001
1.249699e+003;1.378088e-001
1.251628e+003;1.398007e-001
1.253556e+003;1.422566e-001
1.255485e+003;1.444305e-001
1.257413e+003;1.458818e-001
1.259342e+003;1.460573e-001
1.261270e+003;1.447013e-001
1.263199e+003;1.413945e-001
1.265127e+003;1.364325e-001
1.267056e+003;1.306885e-001
1.268985e+003;1.257708e-001
1.270913e+003;1.226650e-001
1.272842e+003;1.210362e-001
1.274770e+003;1.207144e-001
1.276699e+003;1.212498e-001
1.278627e+003;1.219746e-001
1.280556e+003;1.226794e-001
1.282484e+003;1.224634e-001
1.284413e+003;1.214396e-001
1.286342e+003;1.205232e-001
1.288270e+003;1.202902e-001
1.290199e+003;1.202959e-001
1.292127e+003;1.204237e-001
1.294056e+003;1.208423e-001
1.295984e+003;1.209501e-001
1.297913e+003;1.204986e-001
1.299841e+003;1.195797e-001
1.301770e+003;1.180523e-001
1.303698e+003;1.161968e-001
1.305627e+003;1.144046e-001
1.307556e+003;1.130250e-001
1.309484e+003;1.121485e-001
1.311413e+003;1.117139e-001
1.313341e+003;1.119855e-001
1.315270e+003;1.132390e-001
1.317198e+003;1.145392e-001
1.319127e+003;1.156157e-001
1.321055e+003;1.169279e-001
1.322984e+003;1.183288e-001
1.324912e+003;1.194031e-001
1.326841e+003;1.200245e-001
1.328770e+003;1.201000e-001
1.330698e+003;1.197853e-001
1.332627e+003;1.187464e-001
1.334555e+003;1.169795e-001
1.336484e+003;1.151295e-001
1.338412e+003;1.131529e-001
1.340341e+003;1.114600e-001
1.342269e+003;1.103165e-001
1.344198e+003;1.096167e-001
1.346126e+003;1.091263e-001
1.348055e+003;1.091854e-001
1.349984e+003;1.096129e-001
1.351912e+003;1.100249e-001
1.353841e+003;1.107597e-001
1.355769e+003;1.117776e-001
1.357698e+003;1.129361e-001
1.359626e+003;1.143247e-001
1.361555e+003;1.158299e-001
1.363483e+003;1.173962e-001
1.365412e+003;1.191486e-001
1.367341e+003;1.207511e-001
1.369269e+003;1.220522e-001
1.371198e+003;1.229164e-001
1.373126e+003;1.229106e-001
1.375055e+003;1.216478e-001
1.376983e+003;1.193354e-001
1.378912e+003;1.168459e-001
1.380840e+003;1.143131e-001
1.382769e+003;1.112736e-001
1.384698e+003;1.079274e-001
1.386626e+003;1.046336e-001
1.388555e+003;1.018067e-001
1.390483e+003;9.940924e-002
1.392412e+003;9.756760e-002
1.394340e+003;9.636270e-002
1.396269e+003;9.634122e-002
1.398197e+003;9.740030e-002
1.400126e+003;9.931581e-002
1.402054e+003;1.019998e-001
1.403983e+003;1.055158e-001
1.405911e+003;1.102325e-001
1.407840e+003;1.160744e-001
1.409769e+003;1.228382e-001
1.411697e+003;1.302227e-001
1.413626e+003;1.373055e-001
1.415554e+003;1.426485e-001
1.417483e+003;1.449641e-001
1.419411e+003;1.443765e-001
1.421340e+003;1.420298e-001
1.423268e+003;1.393736e-001
1.425197e+003;1.376114e-001
1.427125e+003;1.373217e-001
1.429054e+003;1.385483e-001
1.430983e+003;1.411747e-001
1.432911e+003;1.439745e-001
1.434840e+003;1.458189e-001
1.436768e+003;1.459579e-001
1.438697e+003;1.450154e-001
1.440625e+003;1.437623e-001
1.442554e+003;1.422754e-001
1.444482e+003;1.410636e-001
1.446411e+003;1.406143e-001
1.448340e+003;1.413914e-001
1.450268e+003;1.437964e-001
1.452197e+003;1.472932e-001
1.454125e+003;1.514468e-001
1.456054e+003;1.561884e-001
1.457982e+003;1.614080e-001
1.459911e+003;1.655946e-001
1.461839e+003;1.676157e-001
1.463768e+003;1.660919e-001
1.465697e+003;1.610745e-001
1.467625e+003;1.548259e-001
1.469554e+003;1.494990e-001
1.471482e+003;1.459970e-001
1.473411e+003;1.442421e-001
1.475339e+003;1.429297e-001
1.477268e+003;1.404443e-001
1.479196e+003;1.365876e-001
1.481125e+003;1.318541e-001
1.483053e+003;1.270219e-001
1.484982e+003;1.230335e-001
1.486911e+003;1.208790e-001
1.488839e+003;1.204548e-001
1.490768e+003;1.216030e-001
1.492696e+003;1.244808e-001
1.494625e+003;1.290517e-001
1.496553e+003;1.350926e-001
1.498482e+003;1.412890e-001
1.500410e+003;1.471556e-001
1.502339e+003;1.533451e-001
1.504267e+003;1.595661e-001
1.506196e+003;1.658257e-001
1.508125e+003;1.724557e-001
1.510053e+003;1.794317e-001
1.511982e+003;1.867836e-001
1.513910e+003;1.941423e-001
1.515839e+003;2.008893e-001
1.517767e+003;2.072485e-001
1.519696e+003;2.138135e-001
1.521624e+003;2.207995e-001
1.523553e+003;2.278570e-001
1.525481e+003;2.346418e-001
1.527410e+003;2.410860e-001
1.529339e+003;2.470891e-001
1.531267e+003;2.524008e-001
1.533196e+003;2.566043e-001
1.535124e+003;2.595590e-001
1.537053e+003;2.608664e-001
1.538981e+003;2.599198e-001
1.540910e+003;2.570358e-001
1.542838e+003;2.525612e-001
1.544767e+003;2.465271e-001
1.546695e+003;2.388773e-001
1.548624e+003;2.302894e-001
1.550553e+003;2.209340e-001
1.552481e+003;2.113584e-001
1.554410e+003;2.018372e-001
1.556338e+003;1.925643e-001
1.558267e+003;1.829208e-001
1.560195e+003;1.733653e-001
1.562124e+003;1.647435e-001
1.564052e+003;1.565781e-001
1.565981e+003;1.485998e-001
1.567910e+003;1.410095e-001
1.569838e+003;1.341983e-001
1.571767e+003;1.284027e-001
1.573695e+003;1.232842e-001
1.575624e+003;1.187577e-001
1.577552e+003;1.151220e-001
1.579481e+003;1.124383e-001
1.581409e+003;1.104914e-001
1.583338e+003;1.092002e-001
1.585266e+003;1.087133e-001
1.587195e+003;1.086761e-001
1.589124e+003;1.092082e-001
1.591052e+003;1.105405e-001
1.592981e+003;1.120876e-001
1.594909e+003;1.134987e-001
1.596838e+003;1.157479e-001
1.598766e+003;1.194841e-001
1.600695e+003;1.242093e-001
1.602623e+003;1.300153e-001
1.604552e+003;1.370432e-001
1.606480e+003;1.451670e-001
1.608409e+003;1.545323e-001
1.610338e+003;1.645372e-001
1.612266e+003;1.750619e-001
1.614195e+003;1.865022e-001
1.616123e+003;1.990143e-001
1.618052e+003;2.122629e-001
1.619980e+003;2.260958e-001
1.621909e+003;2.403109e-001
1.623837e+003;2.546906e-001
1.625766e+003;2.685108e-001
1.627694e+003;2.819306e-001
1.629623e+003;2.952629e-001
1.631552e+003;3.080134e-001
1.633480e+003;3.190895e-001
1.635409e+003;3.258455e-001
1.637337e+003;3.261761e-001
1.639266e+003;3.207288e-001
1.641194e+003;3.100805e-001
1.643123e+003;2.953482e-001
1.645051e+003;2.785302e-001
1.646980e+003;2.615160e-001
1.648909e+003;2.458763e-001
1.650837e+003;2.315820e-001
1.652766e+003;2.184254e-001
1.654694e+003;2.067112e-001
1.656623e+003;1.962529e-001
1.658551e+003;1.862175e-001
1.660480e+003;1.765095e-001
1.662408e+003;1.673666e-001
1.664337e+003;1.584755e-001
1.666266e+003;1.497160e-001
1.668194e+003;1.410479e-001
1.670123e+003;1.324370e-001
1.672051e+003;1.244501e-001
1.673980e+003;1.165001e-001
1.675908e+003;1.080224e-001
1.677837e+003;9.971523e-002
1.679765e+003;9.152962e-002
1.681694e+003;8.315481e-002
1.683622e+003;7.513408e-002
1.685551e+003;6.781045e-002
1.687479e+003;6.180160e-002
1.689408e+003;5.662527e-002
1.691337e+003;5.234570e-002
1.693265e+003;4.914571e-002
1.695194e+003;4.654724e-002
1.697122e+003;4.461517e-002
1.699051e+003;4.300074e-002
1.700979e+003;4.152101e-002
1.702908e+003;4.076538e-002
1.704836e+003;4.015579e-002
1.706765e+003;3.948065e-002
1.708693e+003;3.894183e-002
1.710622e+003;3.858781e-002
1.712551e+003;3.824299e-002
1.714479e+003;3.804482e-002
1.716408e+003;3.783636e-002
1.718336e+003;3.760477e-002
1.720265e+003;3.749264e-002
1.722193e+003;3.723935e-002
1.724122e+003;3.668852e-002
1.726050e+003;3.630489e-002
1.727979e+003;3.626472e-002
1.729908e+003;3.614613e-002
1.731836e+003;3.556862e-002
1.733765e+003;3.471928e-002
1.735693e+003;3.405834e-002
1.737622e+003;3.355726e-002
1.739550e+003;3.279527e-002
1.741479e+003;3.192875e-002
1.743407e+003;3.110759e-002
1.745336e+003;3.038445e-002
1.747265e+003;2.956976e-002
1.749193e+003;2.874119e-002
1.751122e+003;2.792239e-002
1.753050e+003;2.727915e-002
1.754979e+003;2.659370e-002
1.756907e+003;2.585457e-002
1.758836e+003;2.513127e-002
1.760764e+003;2.443957e-002
1.762693e+003;2.384871e-002
1.764621e+003;2.329075e-002
1.766550e+003;2.262151e-002
1.768479e+003;2.196031e-002
1.770407e+003;2.163114e-002
1.772336e+003;2.125198e-002
1.774264e+003;2.061280e-002
1.776193e+003;2.021127e-002
1.778121e+003;1.989849e-002
1.780050e+003;1.945731e-002
1.781978e+003;1.888700e-002
1.783907e+003;1.837975e-002
1.785835e+003;1.820723e-002
1.787764e+003;1.810687e-002
1.789693e+003;1.777516e-002
1.791621e+003;1.733548e-002
1.793550e+003;1.716006e-002
1.795478e+003;1.703627e-002
1.797407e+003;1.676488e-002
1.799335e+003;1.655813e-002
1.801264e+003;1.629147e-002
1.803192e+003;1.621315e-002
1.805121e+003;1.608797e-002
1.807049e+003;1.578859e-002
1.808978e+003;1.548120e-002
1.810907e+003;1.540059e-002
1.812835e+003;1.520183e-002
1.814764e+003;1.500707e-002
1.816692e+003;1.484216e-002
1.818621e+003;1.463392e-002
1.820549e+003;1.453516e-002
1.822478e+003;1.452441e-002
1.824406e+003;1.458245e-002
1.826335e+003;1.445685e-002
1.828264e+003;1.433139e-002
1.830192e+003;1.419039e-002
1.832121e+003;1.393795e-002
1.834049e+003;1.389511e-002
1.835978e+003;1.390425e-002
1.837906e+003;1.378483e-002
1.839835e+003;1.357836e-002
1.841763e+003;1.355502e-002
1.843692e+003;1.336943e-002
1.845620e+003;1.293125e-002
1.847549e+003;1.277593e-002
1.849478e+003;1.278822e-002
1.851406e+003;1.278958e-002
1.853335e+003;1.281303e-002
1.855263e+003;1.259726e-002
1.857192e+003;1.238550e-002
1.859120e+003;1.221998e-002
1.861049e+003;1.218576e-002
1.862977e+003;1.212511e-002
1.864906e+003;1.206406e-002
1.866834e+003;1.194889e-002
1.868763e+003;1.180267e-002
1.870692e+003;1.174489e-002
1.872620e+003;1.168631e-002
1.874549e+003;1.176144e-002
1.876477e+003;1.176171e-002
1.878406e+003;1.162563e-002
1.880334e+003;1.160371e-002
1.882263e+003;1.186811e-002
1.884191e+003;1.194855e-002
1.886120e+003;1.184244e-002
1.888048e+003;1.182933e-002
1.889977e+003;1.168189e-002
1.891906e+003;1.148747e-002
1.893834e+003;1.138073e-002
1.895763e+003;1.152500e-002
1.897691e+003;1.171436e-002
1.899620e+003;1.191092e-002
1.901548e+003;1.202522e-002
1.903477e+003;1.195318e-002
1.905405e+003;1.180764e-002
1.907334e+003;1.158322e-002
1.909262e+003;1.128172e-002
1.911191e+003;1.125792e-002
1.913120e+003;1.146533e-002
1.915048e+003;1.137848e-002
1.916977e+003;1.118091e-002
1.918905e+003;1.115602e-002
1.920834e+003;1.121895e-002
1.922762e+003;1.119678e-002
1.924691e+003;1.122035e-002
1.926619e+003;1.117876e-002
1.928548e+003;1.108056e-002
1.930477e+003;1.104541e-002
1.932405e+003;1.109599e-002
1.934334e+003;1.127472e-002
1.936262e+003;1.120712e-002
1.938191e+003;1.094618e-002
1.940119e+003;1.074299e-002
1.942048e+003;1.062291e-002
1.943976e+003;1.047150e-002
1.945905e+003;1.045548e-002
1.947833e+003;1.065796e-002
1.949762e+003;1.087544e-002
1.951691e+003;1.094462e-002
1.953619e+003;1.109891e-002
1.955548e+003;1.111149e-002
1.957476e+003;1.105136e-002
1.959405e+003;1.100368e-002
1.961333e+003;1.102373e-002
1.963262e+003;1.093724e-002
1.965190e+003;1.068173e-002
1.967119e+003;1.065599e-002
1.969047e+003;1.091322e-002
1.970976e+003;1.097503e-002
1.972905e+003;1.097788e-002
1.974833e+003;1.101951e-002
1.976762e+003;1.107345e-002
1.978690e+003;1.124381e-002
1.980619e+003;1.121433e-002
1.982547e+003;1.106203e-002
1.984476e+003;1.092634e-002
1.986404e+003;1.087941e-002
1.988333e+003;1.100422e-002
1.990261e+003;1.121752e-002
1.992190e+003;1.124670e-002
1.994119e+003;1.121409e-002
1.996047e+003;1.109524e-002
1.997976e+003;1.084350e-002
1.999904e+003;1.098750e-002
2.001833e+003;1.126081e-002
2.003761e+003;1.134192e-002
2.005690e+003;1.135515e-002
2.007618e+003;1.145121e-002
2.009547e+003;1.145015e-002
2.011476e+003;1.150387e-002
2.013404e+003;1.171807e-002
2.015333e+003;1.174782e-002
2.017261e+003;1.172168e-002
2.019190e+003;1.184349e-002
2.021118e+003;1.182779e-002
2.023047e+003;1.185286e-002
2.024975e+003;1.199007e-002
2.026904e+003;1.196755e-002
2.028833e+003;1.196098e-002
2.030761e+003;1.215891e-002
2.032690e+003;1.245059e-002
2.034618e+003;1.256599e-002
2.036547e+003;1.264632e-002
2.038475e+003;1.255483e-002
2.040404e+003;1.233314e-002
2.042332e+003;1.228289e-002
2.044261e+003;1.240173e-002
2.046189e+003;1.247841e-002
2.048118e+003;1.248779e-002
2.050047e+003;1.247197e-002
2.051975e+003;1.259020e-002
2.053904e+003;1.278828e-002
2.055832e+003;1.294702e-002
2.057761e+003;1.292572e-002
2.059689e+003;1.289613e-002
2.061618e+003;1.285770e-002
2.063546e+003;1.276088e-002
2.065475e+003;1.288241e-002
2.067404e+003;1.306061e-002
2.069332e+003;1.313086e-002
2.071260e+003;1.309667e-002
2.073189e+003;1.315394e-002
2.075118e+003;1.326943e-002
2.077046e+003;1.307547e-002
2.078975e+003;1.276003e-002
2.080903e+003;1.262639e-002
2.082832e+003;1.243500e-002
2.084760e+003;1.250692e-002
2.086689e+003;1.280794e-002
2.088617e+003;1.273642e-002
2.090546e+003;1.256230e-002
2.092475e+003;1.263332e-002
2.094403e+003;1.272929e-002
2.096332e+003;1.260675e-002
2.098260e+003;1.244227e-002
2.100189e+003;1.255848e-002
2.102117e+003;1.254907e-002
2.104046e+003;1.249205e-002
2.105974e+003;1.254662e-002
2.107903e+003;1.266378e-002
2.109832e+003;1.278603e-002
2.111760e+003;1.295863e-002
2.113688e+003;1.313666e-002
2.115617e+003;1.310763e-002
2.117546e+003;1.279934e-002
2.119474e+003;1.266515e-002
2.121403e+003;1.284988e-002
2.123331e+003;1.300243e-002
2.125260e+003;1.313092e-002
2.127188e+003;1.321423e-002
2.129117e+003;1.321723e-002
2.131045e+003;1.316750e-002
2.132974e+003;1.323301e-002
2.134903e+003;1.337767e-002
2.136831e+003;1.325365e-002
2.138760e+003;1.316764e-002
2.140688e+003;1.340849e-002
2.142617e+003;1.362435e-002
2.144545e+003;1.351871e-002
2.146474e+003;1.323561e-002
2.148402e+003;1.313622e-002
2.150331e+003;1.341150e-002
2.152260e+003;1.354896e-002
2.154188e+003;1.348306e-002
2.156117e+003;1.349909e-002
2.158045e+003;1.351294e-002
2.159974e+003;1.354397e-002
2.161902e+003;1.372477e-002
2.163831e+003;1.398585e-002
2.165759e+003;1.406583e-002
2.167688e+003;1.398369e-002
2.169616e+003;1.381250e-002
2.171545e+003;1.372529e-002
2.173474e+003;1.380361e-002
2.175402e+003;1.388242e-002
2.177331e+003;1.404567e-002
2.179259e+003;1.419402e-002
2.181188e+003;1.429122e-002
2.183116e+003;1.421559e-002
2.185045e+003;1.418792e-002
2.186973e+003;1.434831e-002
2.188902e+003;1.441081e-002
2.190831e+003;1.423469e-002
2.192759e+003;1.414465e-002
2.194688e+003;1.409752e-002
2.196616e+003;1.424506e-002
2.198545e+003;1.454339e-002
2.200473e+003;1.450005e-002
2.202402e+003;1.412220e-002
2.204330e+003;1.411145e-002
2.206259e+003;1.422154e-002
2.208188e+003;1.407329e-002
2.210116e+003;1.396686e-002
2.212044e+003;1.400009e-002
2.213973e+003;1.387688e-002
2.215902e+003;1.389043e-002
2.217830e+003;1.393853e-002
2.219759e+003;1.389953e-002
2.221687e+003;1.386196e-002
2.223616e+003;1.366555e-002
2.225544e+003;1.349373e-002
2.227473e+003;1.337206e-002
2.229401e+003;1.336308e-002
2.231330e+003;1.342725e-002
2.233259e+003;1.359929e-002
2.235187e+003;1.382988e-002
2.237116e+003;1.372337e-002
2.239044e+003;1.362640e-002
2.240973e+003;1.369516e-002
2.242901e+003;1.374810e-002
2.244830e+003;1.371110e-002
2.246758e+003;1.366722e-002
2.248687e+003;1.366657e-002
2.250615e+003;1.367598e-002
2.252544e+003;1.392478e-002
2.254473e+003;1.421867e-002
2.256401e+003;1.412463e-002
2.258330e+003;1.400334e-002
2.260258e+003;1.406021e-002
2.262187e+003;1.411439e-002
2.264115e+003;1.420217e-002
2.266044e+003;1.436170e-002
2.267972e+003;1.440585e-002
2.269901e+003;1.450865e-002
2.271830e+003;1.461157e-002
2.273758e+003;1.471617e-002
2.275687e+003;1.463214e-002
2.277615e+003;1.453791e-002
2.279544e+003;1.485779e-002
2.281472e+003;1.502185e-002
2.283401e+003;1.482237e-002
2.285329e+003;1.469328e-002
2.287258e+003;1.485347e-002
2.289187e+003;1.525224e-002
2.291115e+003;1.546002e-002
2.293043e+003;1.539170e-002
2.294972e+003;1.511543e-002
2.296901e+003;1.492462e-002
2.298829e+003;1.513818e-002
2.300758e+003;1.534041e-002
2.302686e+003;1.535270e-002
2.304615e+003;1.544604e-002
2.306543e+003;1.559078e-002
2.308472e+003;1.559789e-002
2.310400e+003;1.559044e-002
2.312329e+003;1.565584e-002
2.314258e+003;1.570792e-002
2.316186e+003;1.567878e-002
2.318115e+003;1.580244e-002
2.320043e+003;1.604022e-002
2.321972e+003;1.601271e-002
2.323900e+003;1.569548e-002
2.325829e+003;1.551787e-002
2.327757e+003;1.582756e-002
2.329686e+003;1.603358e-002
2.331615e+003;1.582529e-002
2.333543e+003;1.563162e-002
2.335472e+003;1.544477e-002
2.337400e+003;1.522266e-002
2.339329e+003;1.554514e-002
2.341257e+003;1.600336e-002
2.343186e+003;1.605307e-002
2.345114e+003;1.581962e-002
2.347043e+003;1.570431e-002
2.348971e+003;1.583072e-002
2.350900e+003;1.587474e-002
2.352829e+003;1.587642e-002
2.354757e+003;1.596063e-002
2.356686e+003;1.585680e-002
2.358614e+003;1.590907e-002
2.360543e+003;1.606796e-002
2.362471e+003;1.590165e-002
2.364400e+003;1.579017e-002
2.366328e+003;1.596142e-002
2.368257e+003;1.628480e-002
2.370186e+003;1.645329e-002
2.372114e+003;1.636554e-002
2.374042e+003;1.626839e-002
2.375971e+003;1.646964e-002
2.377900e+003;1.653802e-002
2.379828e+003;1.640787e-002
2.381757e+003;1.651675e-002
2.383685e+003;1.670944e-002
2.385614e+003;1.664026e-002
2.387542e+003;1.657000e-002
2.389471e+003;1.674422e-002
2.391399e+003;1.688398e-002
2.393328e+003;1.704206e-002
2.395257e+003;1.723883e-002
2.397185e+003;1.728879e-002
2.399114e+003;1.727779e-002
2.401042e+003;1.695113e-002
2.402971e+003;1.692470e-002
2.404899e+003;1.714810e-002
2.406828e+003;1.716851e-002
2.408756e+003;1.709068e-002
2.410685e+003;1.733158e-002
2.412614e+003;1.752556e-002
2.414542e+003;1.746895e-002
2.416471e+003;1.753501e-002
2.418399e+003;1.775973e-002
2.420328e+003;1.783001e-002
2.422256e+003;1.779753e-002
2.424185e+003;1.766157e-002
2.426113e+003;1.761368e-002
2.428042e+003;1.788259e-002
2.429970e+003;1.819009e-002
2.431899e+003;1.850673e-002
2.433828e+003;1.863745e-002
2.435756e+003;1.876434e-002
2.437685e+003;1.885021e-002
2.439613e+003;1.889956e-002
2.441542e+003;1.894521e-002
2.443470e+003;1.905892e-002
2.445399e+003;1.926483e-002
2.447327e+003;1.928495e-002
2.449256e+003;1.933899e-002
2.451185e+003;1.940946e-002
2.453113e+003;1.929964e-002
2.455042e+003;1.940776e-002
2.456970e+003;1.960385e-002
2.458899e+003;1.948112e-002
2.460827e+003;1.942689e-002
2.462756e+003;1.955144e-002
2.464684e+003;1.975168e-002
2.466613e+003;2.019923e-002
2.468542e+003;2.052303e-002
2.470470e+003;2.064116e-002
2.472398e+003;2.055485e-002
2.474327e+003;2.052279e-002
2.476256e+003;2.079942e-002
2.478184e+003;2.081374e-002
2.480113e+003;2.054971e-002
2.482041e+003;2.059640e-002
2.483970e+003;2.086324e-002
2.485898e+003;2.084538e-002
2.487827e+003;2.078927e-002
2.489755e+003;2.081002e-002
2.491684e+003;2.080439e-002
2.493613e+003;2.076883e-002
2.495541e+003;2.070565e-002
2.497470e+003;2.093257e-002
2.499398e+003;2.125052e-002
2.501327e+003;2.117975e-002
2.503255e+003;2.102803e-002
2.505184e+003;2.112827e-002
2.507112e+003;2.134177e-002
2.509041e+003;2.131187e-002
2.510969e+003;2.127397e-002
2.512898e+003;2.150624e-002
2.514827e+003;2.190023e-002
2.516755e+003;2.224776e-002
2.518684e+003;2.229872e-002
2.520612e+003;2.238010e-002
2.522541e+003;2.257701e-002
2.524469e+003;2.271803e-002
2.526398e+003;2.283588e-002
2.528326e+003;2.294580e-002
2.530255e+003;2.309911e-002
2.532184e+003;2.339295e-002
2.534112e+003;2.401603e-002
2.536041e+003;2.445450e-002
2.537969e+003;2.442053e-002
2.539898e+003;2.440665e-002
2.541826e+003;2.447599e-002
2.543755e+003;2.473708e-002
2.545683e+003;2.496184e-002
2.547612e+003;2.488211e-002
2.549541e+003;2.484913e-002
2.551469e+003;2.500901e-002
2.553397e+003;2.506201e-002
2.555326e+003;2.522608e-002
2.557255e+003;2.550122e-002
2.559183e+003;2.540176e-002
2.561112e+003;2.509459e-002
2.563040e+003;2.516719e-002
2.564969e+003;2.544631e-002
2.566897e+003;2.547719e-002
2.568826e+003;2.553025e-002
2.570754e+003;2.572676e-002
2.572683e+003;2.595252e-002
2.574612e+003;2.620279e-002
2.576540e+003;2.613550e-002
2.578469e+003;2.599927e-002
2.580397e+003;2.621641e-002
2.582326e+003;2.658880e-002
2.584254e+003;2.663160e-002
2.586183e+003;2.672071e-002
2.588111e+003;2.701750e-002
2.590040e+003;2.710291e-002
2.591969e+003;2.709216e-002
2.593897e+003;2.717963e-002
2.595826e+003;2.713007e-002
2.597754e+003;2.697819e-002
2.599683e+003;2.704197e-002
2.601611e+003;2.749721e-002
2.603540e+003;2.781961e-002
2.605468e+003;2.785780e-002
2.607397e+003;2.799179e-002
2.609325e+003;2.818115e-002
2.611254e+003;2.816778e-002
2.613183e+003;2.813621e-002
2.615111e+003;2.833434e-002
2.617040e+003;2.847810e-002
2.618968e+003;2.849112e-002
2.620897e+003;2.864615e-002
2.622825e+003;2.864944e-002
2.624754e+003;2.860789e-002
2.626682e+003;2.894943e-002
2.628611e+003;2.913960e-002
2.630540e+003;2.908992e-002
2.632468e+003;2.922851e-002
2.634396e+003;2.925059e-002
2.636325e+003;2.949819e-002
2.638254e+003;2.988210e-002
2.640182e+003;2.988551e-002
2.642111e+003;2.980672e-002
2.644039e+003;2.994102e-002
2.645968e+003;2.998284e-002
2.647896e+003;3.002701e-002
2.649825e+003;3.023839e-002
2.651753e+003;3.033943e-002
2.653682e+003;3.045901e-002
2.655611e+003;3.067747e-002
2.657539e+003;3.079789e-002
2.659468e+003;3.085303e-002
2.661396e+003;3.090162e-002
2.663325e+003;3.112753e-002
2.665253e+003;3.126459e-002
2.667182e+003;3.142653e-002
2.669110e+003;3.161582e-002
2.671039e+003;3.171109e-002
2.672968e+003;3.167053e-002
2.674896e+003;3.197654e-002
2.676825e+003;3.234462e-002
2.678753e+003;3.233620e-002
2.680682e+003;3.264186e-002
2.682610e+003;3.297626e-002
2.684539e+003;3.286896e-002
2.686467e+003;3.297655e-002
2.688396e+003;3.342480e-002
2.690324e+003;3.364229e-002
2.692253e+003;3.373166e-002
2.694182e+003;3.417299e-002
2.696110e+003;3.453301e-002
2.698039e+003;3.482410e-002
2.699967e+003;3.519183e-002
2.701896e+003;3.521487e-002
2.703824e+003;3.543785e-002
2.705753e+003;3.570548e-002
2.707681e+003;3.588269e-002
2.709610e+003;3.626076e-002
2.711539e+003;3.653967e-002
2.713467e+003;3.672407e-002
2.715396e+003;3.696904e-002
2.717324e+003;3.726430e-002
2.719253e+003;3.772377e-002
2.721181e+003;3.785621e-002
2.723110e+003;3.830237e-002
2.725038e+003;3.904361e-002
2.726967e+003;3.932915e-002
2.728896e+003;3.949843e-002
2.730824e+003;4.000768e-002
2.732752e+003;4.035112e-002
2.734681e+003;4.064661e-002
2.736610e+003;4.093094e-002
2.738538e+003;4.108082e-002
2.740467e+003;4.116645e-002
2.742395e+003;4.142372e-002
2.744324e+003;4.187221e-002
2.746252e+003;4.204468e-002
2.748181e+003;4.197731e-002
2.750109e+003;4.222515e-002
2.752038e+003;4.262315e-002
2.753967e+003;4.271432e-002
2.755895e+003;4.281121e-002
2.757824e+003;4.313356e-002
2.759752e+003;4.320496e-002
2.761681e+003;4.310172e-002
2.763609e+003;4.339008e-002
2.765538e+003;4.377541e-002
2.767466e+003;4.408223e-002
2.769395e+003;4.421648e-002
2.771323e+003;4.420349e-002
2.773252e+003;4.447173e-002
2.775181e+003;4.506760e-002
2.777109e+003;4.558420e-002
2.779038e+003;4.596157e-002
2.780966e+003;4.615941e-002
2.782895e+003;4.637806e-002
2.784823e+003;4.675597e-002
2.786752e+003;4.748559e-002
2.788680e+003;4.791401e-002
2.790609e+003;4.817904e-002
2.792538e+003;4.861600e-002
2.794466e+003;4.881724e-002
2.796395e+003;4.926431e-002
2.798323e+003;4.983390e-002
2.800252e+003;5.043821e-002
2.802180e+003;5.082154e-002
2.804109e+003;5.118251e-002
2.806037e+003;5.196897e-002
2.807966e+003;5.277322e-002
2.809895e+003;5.349709e-002
2.811823e+003;5.421418e-002
2.813751e+003;5.495893e-002
2.815680e+003;5.577660e-002
2.817609e+003;5.657782e-002
2.819537e+003;5.732365e-002
2.821466e+003;5.791425e-002
2.823394e+003;5.859552e-002
2.825323e+003;5.911340e-002
2.827251e+003;5.953859e-002
2.829180e+003;6.025062e-002
2.831108e+003;6.168098e-002
2.833037e+003;6.324648e-002
2.834966e+003;6.445231e-002
2.836894e+003;6.623609e-002
2.838823e+003;6.870724e-002
2.840751e+003;7.183985e-002
2.842680e+003;7.531686e-002
2.844608e+003;7.874102e-002
2.846537e+003;8.210173e-002
2.848465e+003;8.583495e-002
2.850394e+003;9.026758e-002
2.852323e+003;9.435882e-002
2.854251e+003;9.781028e-002
2.856180e+003;1.009400e-001
2.858108e+003;1.035960e-001
2.860037e+003;1.054943e-001
2.861965e+003;1.066793e-001
2.863894e+003;1.069467e-001
2.865822e+003;1.063480e-001
2.867751e+003;1.052897e-001
2.869679e+003;1.036258e-001
2.871608e+003;1.014177e-001
2.873536e+003;9.921288e-002
2.875465e+003;9.708434e-002
2.877394e+003;9.461101e-002
2.879322e+003;9.219218e-002
2.881251e+003;9.068444e-002
2.883179e+003;8.960348e-002
2.885108e+003;8.914754e-002
2.887036e+003;8.918350e-002
2.888965e+003;8.929548e-002
2.890893e+003;8.998378e-002
2.892822e+003;9.110497e-002
2.894750e+003;9.272429e-002
2.896679e+003;9.462259e-002
2.898608e+003;9.648039e-002
2.900536e+003;9.841853e-002
2.902465e+003;1.000140e-001
2.904393e+003;1.015236e-001
2.906322e+003;1.027027e-001
2.908250e+003;1.036210e-001
2.910179e+003;1.048770e-001
2.912107e+003;1.066583e-001
2.914036e+003;1.085218e-001
2.915965e+003;1.105397e-001
2.917893e+003;1.131554e-001
2.919822e+003;1.159073e-001
2.921750e+003;1.186597e-001
2.923679e+003;1.217706e-001
2.925607e+003;1.246055e-001
2.927536e+003;1.271255e-001
2.929464e+003;1.295194e-001
2.931393e+003;1.314704e-001
2.933322e+003;1.329693e-001
2.935250e+003;1.335823e-001
2.937178e+003;1.332951e-001
2.939107e+003;1.323709e-001
2.941036e+003;1.305939e-001
2.942964e+003;1.281224e-001
2.944893e+003;1.248143e-001
2.946821e+003;1.211699e-001
2.948750e+003;1.168682e-001
2.950678e+003;1.117693e-001
2.952607e+003;1.064585e-001
2.954535e+003;1.013427e-001
2.956464e+003;9.632315e-002
2.958393e+003;9.181137e-002
2.960321e+003;8.798164e-002
2.962250e+003;8.405866e-002
2.964178e+003;8.022976e-002
2.966107e+003;7.697222e-002
2.968035e+003;7.399864e-002
2.969964e+003;7.117454e-002
2.971892e+003;6.836648e-002
2.973821e+003;6.596066e-002
2.975750e+003;6.407908e-002
2.977678e+003;6.180741e-002
2.979607e+003;5.946103e-002
2.981535e+003;5.759365e-002
2.983464e+003;5.618813e-002
2.985392e+003;5.494539e-002
2.987321e+003;5.355076e-002
2.989249e+003;5.228892e-002
2.991178e+003;5.137517e-002
2.993106e+003;5.076974e-002
2.995035e+003;5.025921e-002
2.996964e+003;4.957458e-002
2.998892e+003;4.897755e-002
3.000821e+003;4.855815e-002
3.002749e+003;4.837656e-002
3.004678e+003;4.818655e-002
3.006606e+003;4.796381e-002
3.008535e+003;4.819529e-002
3.010463e+003;4.830034e-002
3.012392e+003;4.799056e-002
3.014321e+003;4.837907e-002
3.016249e+003;4.916786e-002
3.018177e+003;4.930859e-002
3.020106e+003;4.934945e-002
3.022035e+003;4.936764e-002
3.023963e+003;4.969720e-002
3.025892e+003;5.044942e-002
3.027820e+003;5.121230e-002
3.029749e+003;5.184915e-002
3.031677e+003;5.243321e-002
3.033606e+003;5.282283e-002
3.035534e+003;5.352775e-002
3.037463e+003;5.423460e-002
3.039392e+003;5.482996e-002
3.041320e+003;5.553250e-002
3.043249e+003;5.598164e-002
3.045177e+003;5.677187e-002
3.047106e+003;5.774497e-002
3.049034e+003;5.829439e-002
3.050963e+003;5.908018e-002
3.052891e+003;6.011505e-002
3.054820e+003;6.072300e-002
3.056749e+003;6.093664e-002
3.058677e+003;6.137499e-002
3.060606e+003;6.208224e-002
3.062534e+003;6.278556e-002
3.064463e+003;6.342121e-002
3.066391e+003;6.385065e-002
3.068320e+003;6.399069e-002
3.070248e+003;6.404728e-002
3.072177e+003;6.406698e-002
3.074105e+003;6.407651e-002
3.076034e+003;6.426352e-002
3.077963e+003;6.420559e-002
3.079891e+003;6.399545e-002
3.081820e+003;6.379545e-002
3.083748e+003;6.358739e-002
3.085677e+003;6.324518e-002
3.087605e+003;6.292671e-002
3.089534e+003;6.263442e-002
3.091462e+003;6.225089e-002
3.093391e+003;6.150584e-002
3.095320e+003;6.089939e-002
3.097248e+003;6.071515e-002
3.099177e+003;6.059067e-002
3.101105e+003;6.003781e-002
3.103034e+003;5.910232e-002
3.104962e+003;5.817572e-002
3.106891e+003;5.703855e-002
3.108819e+003;5.628411e-002
3.110748e+003;5.609941e-002
3.112677e+003;5.581488e-002
3.114605e+003;5.513367e-002
3.116533e+003;5.450866e-002
3.118462e+003;5.435509e-002
3.120391e+003;5.403350e-002
3.122319e+003;5.316285e-002
3.124248e+003;5.268923e-002
3.126176e+003;5.293470e-002
3.128105e+003;5.296696e-002
3.130033e+003;5.265833e-002
3.131962e+003;5.267490e-002
3.133890e+003;5.254037e-002
3.135819e+003;5.234925e-002
3.137748e+003;5.249004e-002
3.139676e+003;5.268769e-002
3.141605e+003;5.286160e-002
3.143533e+003;5.267965e-002
3.145462e+003;5.244297e-002
3.147390e+003;5.266626e-002
3.149319e+003;5.306396e-002
3.151247e+003;5.334755e-002
3.153176e+003;5.365828e-002
3.155104e+003;5.410844e-002
3.157033e+003;5.449999e-002
3.158962e+003;5.494761e-002
3.160890e+003;5.548001e-002
3.162819e+003;5.601707e-002
3.164747e+003;5.624542e-002
3.166676e+003;5.647098e-002
3.168604e+003;5.724769e-002
3.170533e+003;5.782839e-002
3.172461e+003;5.807614e-002
3.174390e+003;5.852689e-002
3.176319e+003;5.918148e-002
3.178247e+003;5.975652e-002
3.180176e+003;6.017960e-002
3.182104e+003;6.087191e-002
3.184033e+003;6.192314e-002
3.185961e+003;6.257648e-002
3.187890e+003;6.303404e-002
3.189818e+003;6.362644e-002
3.191747e+003;6.397498e-002
3.193676e+003;6.403484e-002
3.195604e+003;6.454891e-002
3.197532e+003;6.495911e-002
3.199461e+003;6.526967e-002
3.201390e+003;6.604367e-002
3.203318e+003;6.655329e-002
3.205247e+003;6.668431e-002
3.207175e+003;6.728415e-002
3.209104e+003;6.787712e-002
3.211032e+003;6.817102e-002
3.212961e+003;6.870499e-002
3.214889e+003;6.935338e-002
3.216818e+003;7.019942e-002
3.218747e+003;7.118922e-002
3.220675e+003;7.161101e-002
3.222604e+003;7.185779e-002
3.224532e+003;7.262208e-002
3.226461e+003;7.351232e-002
3.228389e+003;7.465754e-002
3.230318e+003;7.584534e-002
3.232246e+003;7.685566e-002
3.234175e+003;7.814083e-002
3.236104e+003;7.921984e-002
3.238032e+003;8.019205e-002
3.239961e+003;8.128785e-002
3.241889e+003;8.269456e-002
3.243818e+003;8.441383e-002
3.245746e+003;8.577548e-002
3.247675e+003;8.745456e-002
3.249603e+003;8.947536e-002
3.251532e+003;9.123442e-002
3.253460e+003;9.280934e-002
3.255389e+003;9.440523e-002
3.257318e+003;9.570052e-002
3.259246e+003;9.712502e-002
3.261175e+003;9.896649e-002
3.263103e+003;1.007934e-001
3.265032e+003;1.028659e-001
3.266960e+003;1.044421e-001
3.268889e+003;1.054029e-001
3.270817e+003;1.069019e-001
3.272746e+003;1.085302e-001
3.274675e+003;1.101442e-001
3.276603e+003;1.118400e-001
3.278531e+003;1.134795e-001
3.280460e+003;1.148611e-001
3.282389e+003;1.159066e-001
3.284317e+003;1.167139e-001
3.286246e+003;1.173623e-001
3.288174e+003;1.182656e-001
3.290103e+003;1.187585e-001
3.292031e+003;1.186769e-001
3.293960e+003;1.183856e-001
3.295888e+003;1.178333e-001
3.297817e+003;1.170081e-001
3.299746e+003;1.160268e-001
3.301674e+003;1.142913e-001
3.303603e+003;1.125700e-001
3.305531e+003;1.109054e-001
3.307460e+003;1.088920e-001
3.309388e+003;1.066089e-001
3.311317e+003;1.043854e-001
3.313245e+003;1.024690e-001
3.315174e+003;1.004947e-001
3.317103e+003;9.816366e-002
3.319031e+003;9.601764e-002
3.320960e+003;9.391733e-002
3.322888e+003;9.180285e-002
3.324817e+003;9.007681e-002
3.326745e+003;8.822864e-002
3.328674e+003;8.624572e-002
3.330602e+003;8.446127e-002
3.332531e+003;8.279338e-002
3.334459e+003;8.079094e-002
3.336388e+003;7.869039e-002
3.338317e+003;7.683608e-002
3.340245e+003;7.527883e-002
3.342174e+003;7.384340e-002
3.344102e+003;7.239906e-002
3.346031e+003;7.112442e-002
3.347959e+003;6.959897e-002
3.349888e+003;6.821211e-002
3.351816e+003;6.721313e-002
3.353745e+003;6.584940e-002
3.355674e+003;6.447972e-002
3.357602e+003;6.336934e-002
3.359531e+003;6.269207e-002
3.361459e+003;6.171092e-002
3.363388e+003;6.051712e-002
3.365316e+003;5.973477e-002
3.367245e+003;5.879742e-002
3.369173e+003;5.790039e-002
3.371102e+003;5.732554e-002
3.373031e+003;5.643604e-002
3.374959e+003;5.537337e-002
3.376887e+003;5.436812e-002
3.378816e+003;5.388474e-002
3.380745e+003;5.374886e-002
3.382673e+003;5.324445e-002
3.384602e+003;5.227076e-002
3.386530e+003;5.135067e-002
3.388459e+003;5.086542e-002
3.390387e+003;5.077052e-002
3.392316e+003;5.058825e-002
3.394244e+003;5.006069e-002
3.396173e+003;4.973621e-002
3.398102e+003;4.924850e-002
3.400030e+003;4.852877e-002
3.401959e+003;4.816445e-002
3.403887e+003;4.799582e-002
3.405816e+003;4.791530e-002
3.407744e+003;4.781342e-002
3.409673e+003;4.744981e-002
3.411601e+003;4.740328e-002
3.413530e+003;4.739160e-002
3.415458e+003;4.685085e-002
3.417387e+003;4.642444e-002
3.419316e+003;4.605867e-002
3.421244e+003;4.560653e-002
3.423173e+003;4.525116e-002
3.425101e+003;4.526345e-002
3.427030e+003;4.512869e-002
3.428958e+003;4.463639e-002
3.430887e+003;4.443323e-002
3.432815e+003;4.452951e-002
3.434744e+003;4.432192e-002
3.436673e+003;4.361954e-002
3.438601e+003;4.326147e-002
3.440530e+003;4.328146e-002
3.442458e+003;4.341118e-002
3.444387e+003;4.316935e-002
3.446315e+003;4.269776e-002
3.448244e+003;4.252678e-002
3.450172e+003;4.215369e-002
3.452101e+003;4.163613e-002
3.454030e+003;4.130454e-002
3.455958e+003;4.063325e-002
3.457886e+003;4.004369e-002
3.459815e+003;3.981891e-002
3.461744e+003;3.946545e-002
3.463672e+003;3.884018e-002
3.465601e+003;3.800948e-002
3.467529e+003;3.750600e-002
3.469458e+003;3.710418e-002
3.471386e+003;3.671877e-002
3.473315e+003;3.656245e-002
3.475243e+003;3.646060e-002
3.477172e+003;3.612823e-002
3.479101e+003;3.583331e-002
3.481029e+003;3.568318e-002
3.482958e+003;3.560009e-002
3.484886e+003;3.595186e-002
3.486815e+003;3.595438e-002
3.488743e+003;3.539428e-002
3.490672e+003;3.499146e-002
3.492600e+003;3.449419e-002
3.494529e+003;3.444727e-002
3.496458e+003;3.433064e-002
3.498386e+003;3.429851e-002
3.500315e+003;3.446707e-002
3.502243e+003;3.405970e-002
3.504172e+003;3.324767e-002
3.506100e+003;3.279101e-002
3.508029e+003;3.278873e-002
3.509957e+003;3.268780e-002
3.511886e+003;3.252418e-002
3.513814e+003;3.273092e-002
3.515743e+003;3.236190e-002
3.517672e+003;3.141499e-002
3.519600e+003;3.126278e-002
3.521529e+003;3.113532e-002
3.523457e+003;3.076929e-002
3.525386e+003;3.067374e-002
3.527314e+003;3.026671e-002
3.529243e+003;2.986925e-002
3.531171e+003;2.938426e-002
3.533100e+003;2.882520e-002
3.535029e+003;2.868412e-002
3.536957e+003;2.851585e-002
3.538885e+003;2.798995e-002
3.540814e+003;2.726016e-002
3.542743e+003;2.677575e-002
3.544671e+003;2.665584e-002
3.546600e+003;2.618970e-002
3.548528e+003;2.579691e-002
3.550457e+003;2.547452e-002
3.552385e+003;2.499511e-002
3.554314e+003;2.464544e-002
3.556242e+003;2.412323e-002
3.558171e+003;2.392520e-002
3.560100e+003;2.398101e-002
3.562028e+003;2.326404e-002
3.563957e+003;2.249130e-002
3.565885e+003;2.213788e-002
3.567814e+003;2.208834e-002
3.569742e+003;2.190629e-002
3.571671e+003;2.120132e-002
3.573599e+003;2.063845e-002
3.575528e+003;2.037820e-002
3.577457e+003;2.007248e-002
3.579385e+003;1.989589e-002
3.581314e+003;1.978122e-002
3.583242e+003;1.921540e-002
3.585171e+003;1.862324e-002
3.587099e+003;1.845103e-002
3.589028e+003;1.819472e-002
3.590956e+003;1.790165e-002
3.592885e+003;1.755088e-002
3.594813e+003;1.725431e-002
3.596742e+003;1.694709e-002
3.598671e+003;1.661844e-002
3.600599e+003;1.622918e-002
3.602528e+003;1.567020e-002
3.604456e+003;1.510349e-002
3.606385e+003;1.470921e-002
3.608313e+003;1.439125e-002
3.610242e+003;1.408270e-002
3.612170e+003;1.383600e-002
3.614099e+003;1.354767e-002
3.616028e+003;1.343122e-002
3.617956e+003;1.318502e-002
3.619885e+003;1.292398e-002
3.621813e+003;1.273642e-002
3.623742e+003;1.248642e-002
3.625670e+003;1.238321e-002
3.627599e+003;1.207145e-002
3.629527e+003;1.167818e-002
3.631456e+003;1.141736e-002
3.633385e+003;1.108086e-002
3.635313e+003;1.108246e-002
3.637241e+003;1.090748e-002
3.639170e+003;1.060977e-002
3.641099e+003;1.025599e-002
3.643027e+003;9.909742e-003
3.644956e+003;9.693014e-003
3.646884e+003;9.532274e-003
3.648813e+003;9.121700e-003
3.650741e+003;8.779402e-003
3.652670e+003;8.907022e-003
3.654598e+003;8.829039e-003
3.656527e+003;8.660100e-003
3.658456e+003;8.575977e-003
3.660384e+003;8.232250e-003
3.662313e+003;7.995263e-003
3.664241e+003;8.032558e-003
3.666170e+003;8.007008e-003
3.668098e+003;7.763869e-003
3.670027e+003;7.572282e-003
3.671955e+003;7.656076e-003
3.673884e+003;7.303170e-003
3.675813e+003;6.789947e-003
3.677741e+003;6.627755e-003
3.679669e+003;6.391608e-003
3.681598e+003;6.082432e-003
3.683527e+003;5.934376e-003
3.685455e+003;5.693167e-003
3.687384e+003;5.263231e-003
3.689312e+003;5.400390e-003
3.691241e+003;5.847219e-003
3.693169e+003;5.705790e-003
3.695098e+003;5.161321e-003
3.697026e+003;4.868601e-003
3.698955e+003;4.825747e-003
3.700884e+003;4.624433e-003
3.702812e+003;4.411966e-003
3.704741e+003;4.678956e-003
3.706669e+003;4.913839e-003
3.708598e+003;4.555050e-003
3.710526e+003;4.132628e-003
3.712455e+003;4.305570e-003
3.714383e+003;4.663918e-003
3.716312e+003;4.691583e-003
3.718240e+003;4.031652e-003
3.720169e+003;3.763220e-003
3.722098e+003;4.207665e-003
3.724026e+003;4.312564e-003
3.725955e+003;4.329096e-003
3.727883e+003;4.187022e-003
3.729812e+003;4.121222e-003
3.731740e+003;4.287734e-003
3.733669e+003;4.217133e-003
3.735597e+003;3.869416e-003
3.737526e+003;4.003494e-003
3.739455e+003;4.464453e-003
3.741383e+003;4.650589e-003
3.743312e+003;4.357074e-003
3.745240e+003;4.290544e-003
3.747169e+003;4.280707e-003
3.749097e+003;4.262035e-003
3.751026e+003;4.399246e-003
3.752954e+003;4.552907e-003
3.754883e+003;4.650990e-003
3.756812e+003;4.636121e-003
3.758740e+003;4.911694e-003
3.760668e+003;5.138421e-003
3.762597e+003;4.904422e-003
3.764526e+003;4.492976e-003
3.766454e+003;4.289072e-003
3.768383e+003;4.034427e-003
3.770311e+003;4.002624e-003
3.772240e+003;4.243732e-003
3.774168e+003;4.643355e-003
3.776097e+003;4.875906e-003
3.778025e+003;4.650187e-003
3.779954e+003;4.421639e-003
3.781883e+003;4.325883e-003
3.783811e+003;4.434292e-003
3.785740e+003;4.375650e-003
3.787668e+003;4.494148e-003
3.789597e+003;4.521267e-003
3.791525e+003;4.484004e-003
3.793454e+003;4.408886e-003
3.795382e+003;4.361659e-003
3.797311e+003;4.178056e-003
3.799240e+003;3.933675e-003
3.801168e+003;4.099914e-003
3.803097e+003;4.705785e-003
3.805025e+003;4.389941e-003
3.806954e+003;4.053123e-003
3.808882e+003;4.428434e-003
3.810811e+003;4.265549e-003
3.812739e+003;4.240119e-003
3.814668e+003;4.719451e-003
3.816596e+003;4.786314e-003
3.818525e+003;4.473157e-003
3.820454e+003;4.501747e-003
3.822382e+003;4.544603e-003
3.824311e+003;4.031618e-003
3.826239e+003;3.896028e-003
3.828168e+003;4.578255e-003
3.830096e+003;5.186403e-003
3.832025e+003;5.342724e-003
3.833953e+003;5.263668e-003
3.835882e+003;5.101776e-003
3.837811e+003;5.175170e-003
3.839739e+003;5.546351e-003
3.841667e+003;5.826398e-003
3.843596e+003;5.907170e-003
3.845525e+003;5.423271e-003
3.847453e+003;5.277720e-003
3.849382e+003;5.435718e-003
3.851310e+003;5.271314e-003
3.853239e+003;5.132955e-003
3.855167e+003;5.277720e-003
3.857096e+003;5.716466e-003
3.859024e+003;6.008146e-003
3.860953e+003;5.991080e-003
3.862882e+003;6.135526e-003
3.864810e+003;6.261060e-003
3.866739e+003;6.101249e-003
3.868667e+003;6.042583e-003
3.870596e+003;6.061297e-003
3.872524e+003;6.090127e-003
3.874453e+003;6.044666e-003
3.876381e+003;6.130082e-003
3.878310e+003;6.359631e-003
3.880239e+003;6.087473e-003
3.882167e+003;5.689105e-003
3.884096e+003;5.887252e-003
3.886024e+003;6.291752e-003
3.887953e+003;6.566528e-003
3.889881e+003;6.560204e-003
3.891810e+003;6.479715e-003
3.893738e+003;6.191886e-003
3.895667e+003;6.067144e-003
3.897595e+003;6.377149e-003
3.899524e+003;6.577730e-003
3.901453e+003;6.492899e-003
3.903381e+003;6.733947e-003
3.905310e+003;7.113167e-003
3.907238e+003;7.397394e-003
3.909167e+003;7.544298e-003
3.911095e+003;7.501482e-003
3.913024e+003;7.251955e-003
3.914952e+003;7.063085e-003
3.916881e+003;7.137822e-003
3.918810e+003;7.348662e-003
3.920738e+003;7.899627e-003
3.922667e+003;8.162728e-003
3.924595e+003;7.771290e-003
3.926524e+003;7.627041e-003
3.928452e+003;8.254065e-003
3.930381e+003;8.249405e-003
3.932309e+003;8.020610e-003
3.934238e+003;7.999482e-003
3.936167e+003;7.547770e-003
3.938095e+003;7.662652e-003
3.940023e+003;8.199901e-003
3.941952e+003;8.508223e-003
3.943881e+003;8.424163e-003
3.945809e+003;8.192642e-003
3.947738e+003;8.425008e-003
3.949666e+003;8.495046e-003
3.951595e+003;8.737478e-003
3.953523e+003;8.853758e-003
3.955452e+003;8.611936e-003
3.957380e+003;8.968783e-003
3.959309e+003;9.424143e-003
3.961238e+003;9.435553e-003
3.963166e+003;9.032988e-003
3.965095e+003;9.344001e-003
3.967023e+003;9.278598e-003
3.968952e+003;8.731325e-003
3.970880e+003;9.005146e-003
3.972809e+003;9.064181e-003
3.974737e+003;9.063302e-003
3.976666e+003;9.425429e-003
3.978594e+003;9.715443e-003
3.980523e+003;9.528141e-003
3.982452e+003;9.374505e-003
3.984380e+003;9.893064e-003
3.986309e+003;1.028218e-002
3.988237e+003;1.028581e-002
3.990166e+003;1.028510e-002
3.992094e+003;1.017355e-002
3.994023e+003;9.993277e-003
3.995951e+003;1.012895e-002
3.997880e+003;1.030956e-002
3.999809e+003;1.055447e-002
4.001737e+003;0.000000e+000
