3.992094e+002;0.000000e+000
4.011380e+002;0.000000e+000
4.030665e+002;0.000000e+000
4.049951e+002;0.000000e+000
4.069236e+002;0.000000e+000
4.088522e+002;0.000000e+000
4.107807e+002;0.000000e+000
4.127093e+002;0.000000e+000
4.146378e+002;0.000000e+000
4.165664e+002;0.000000e+000
4.184949e+002;0.000000e+000
4.204235e+002;0.000000e+000
4.223520e+002;0.000000e+000
4.242806e+002;0.000000e+000
4.262091e+002;0.000000e+000
4.281377e+002;0.000000e+000
4.300662e+002;0.000000e+000
4.319948e+002;0.000000e+000
4.339233e+002;0.000000e+000
4.358519e+002;0.000000e+000
4.377804e+002;0.000000e+000
4.397090e+002;0.000000e+000
4.416375e+002;0.000000e+000
4.435660e+002;0.000000e+000
4.454946e+002;0.000000e+000
4.474232e+002;0.000000e+000
4.493517e+002;0.000000e+000
4.512802e+002;0.000000e+000
4.532088e+002;0.000000e+000
4.551373e+002;0.000000e+000
4.570659e+002;0.000000e+000
4.589944e+002;0.000000e+000
4.609230e+002;0.000000e+000
4.628515e+002;0.000000e+000
4.647801e+002;0.000000e+000
4.667086e+002;0.000000e+000
4.686372e+002;0.000000e+000
4.705657e+002;0.000000e+000
4.724943e+002;0.000000e+000
4.744228e+002;0.000000e+000
4.763513e+002;0.000000e+000
4.782799e+002;0.000000e+000
4.802085e+002;0.000000e+000
4.821370e+002;0.000000e+000
4.840656e+002;0.000000e+000
4.859941e+002;0.000000e+000
4.879226e+002;0.000000e+000
4.898512e+002;0.000000e+000
4.917798e+002;0.000000e+000
4.937083e+002;0.000000e+000
4.956368e+002;0.000000e+000
4.975654e+002;0.000000e+000
4.994939e+002;0.000000e+000
5.014225e+002;0.000000e+000
5.033510e+002;0.000000e+000
5.052796e+002;0.000000e+000
5.072081e+002;0.000000e+000
5.091367e+002;0.000000e+000
5.110652e+002;0.000000e+000
5.129938e+002;0.000000e+000
5.149223e+002;0.000000e+000
5.168509e+002;0.000000e+000
5.187794e+002;0.000000e+000
5.207079e+002;0.000000e+000
5.226365e+002;0.000000e+000
5.245651e+002;0.000000e+000
5.264936e+002;0.000000e+000
5.284222e+002;0.000000e+000
5.303507e+002;0.000000e+000
5.322792e+002;0.000000e+000
5.342078e+002;0.000000e+000
5.361364e+002;0.000000e+000
5.380649e+002;0.000000e+000
5.399935e+002;0.000000e+000
5.419220e+002;0.000000e+000
5.438505e+002;0.000000e+000
5.457791e+002;0.000000e+000
5.477076e+002;0.000000e+000
5.496362e+002;0.000000e+000
5.515648e+002;0.000000e+000
5.534933e+002;0.000000e+000
5.554218e+002;0.000000e+000
5.573504e+002;0.000000e+000
5.592789e+002;0.000000e+000
5.612075e+002;0.000000e+000
5.631360e+002;0.000000e+000
5.650646e+002;0.000000e+000
5.669931e+002;0.000000e+000
5.689217e+002;0.000000e+000
5.708502e+002;0.000000e+000
5.727787e+002;0.000000e+000
5.747073e+002;0.000000e+000
5.766359e+002;0.000000e+000
5.785644e+002;0.000000e+000
5.804930e+002;0.000000e+000
5.824215e+002;0.000000e+000
5.843500e+002;0.000000e+000
5.862786e+002;0.000000e+000
5.882072e+002;0.000000e+000
5.901357e+002;0.000000e+000
5.920643e+002;0.000000e+000
5.939928e+002;0.000000e+000
5.959213e+002;0.000000e+000
5.978499e+002;0.000000e+000
5.997784e+002;1.656045e-001
6.017070e+002;1.662038e-001
6.036355e+002;1.700718e-001
6.055641e+002;1.706168e-001
6.074926e+002;1.691740e-001
6.094211e+002;1.700600e-001
6.113497e+002;1.675818e-001
6.132783e+002;1.628761e-001
6.152068e+002;1.628513e-001
6.171354e+002;1.632670e-001
6.190639e+002;1.681500e-001
6.209924e+002;1.719335e-001
6.229210e+002;1.679753e-001
6.248495e+002;1.653578e-001
6.267781e+002;1.681267e-001
6.287067e+002;1.715792e-001
6.306352e+002;1.750856e-001
6.325637e+002;1.760678e-001
6.344923e+002;1.748350e-001
6.364208e+002;1.743753e-001
6.383494e+002;1.783638e-001
6.402780e+002;1.830305e-001
6.422065e+002;1.809329e-001
6.441350e+002;1.772224e-001
6.460636e+002;1.783608e-001
6.479921e+002;1.809717e-001
6.499207e+002;1.862174e-001
6.518492e+002;1.880015e-001
6.537778e+002;1.863714e-001
6.557063e+002;1.899094e-001
6.576349e+002;1.966656e-001
6.595634e+002;2.018688e-001
6.614919e+002;2.039142e-001
6.634205e+002;2.069200e-001
6.653491e+002;2.095504e-001
6.672776e+002;2.108653e-001
6.692062e+002;2.156436e-001
6.711347e+002;2.197848e-001
6.730632e+002;2.197003e-001
6.749918e+002;2.185411e-001
6.769203e+002;2.190117e-001
6.788489e+002;2.209984e-001
6.807775e+002;2.205846e-001
6.827060e+002;2.194234e-001
6.846345e+002;2.186847e-001
6.865631e+002;2.170123e-001
6.884916e+002;2.161174e-001
6.904202e+002;2.143956e-001
6.923488e+002;2.120965e-001
6.942773e+002;2.088308e-001
6.962058e+002;2.057672e-001
6.981344e+002;2.027660e-001
7.000629e+002;1.987488e-001
7.019915e+002;1.947086e-001
7.039200e+002;1.922069e-001
7.058486e+002;1.909512e-001
7.077771e+002;1.894064e-001
7.097057e+002;1.880929e-001
7.116342e+002;1.866893e-001
7.135627e+002;1.841749e-001
7.154913e+002;1.823294e-001
7.174199e+002;1.804421e-001
7.193484e+002;1.791568e-001
7.212770e+002;1.800471e-001
7.232055e+002;1.822777e-001
7.251340e+002;1.825750e-001
7.270626e+002;1.809150e-001
7.289911e+002;1.781657e-001
7.309197e+002;1.724072e-001
7.328483e+002;1.652133e-001
7.347768e+002;1.586017e-001
7.367053e+002;1.516292e-001
7.386339e+002;1.469767e-001
7.405624e+002;1.443508e-001
7.424910e+002;1.414948e-001
7.444196e+002;1.383722e-001
7.463481e+002;1.359113e-001
7.482766e+002;1.337849e-001
7.502052e+002;1.317257e-001
7.521337e+002;1.298324e-001
7.540623e+002;1.286533e-001
7.559908e+002;1.273874e-001
7.579194e+002;1.252802e-001
7.598479e+002;1.230761e-001
7.617765e+002;1.213735e-001
7.637050e+002;1.198056e-001
7.656335e+002;1.184283e-001
7.675621e+002;1.171787e-001
7.694907e+002;1.166044e-001
7.714192e+002;1.160526e-001
7.733478e+002;1.145472e-001
7.752763e+002;1.125213e-001
7.772048e+002;1.110138e-001
7.791334e+002;1.099353e-001
7.810620e+002;1.091293e-001
7.829905e+002;1.080501e-001
7.849191e+002;1.066332e-001
7.868476e+002;1.051866e-001
7.887761e+002;1.042480e-001
7.907047e+002;1.034275e-001
7.926332e+002;1.024372e-001
7.945618e+002;1.011020e-001
7.964903e+002;9.926838e-002
7.984189e+002;9.686872e-002
8.003474e+002;9.528109e-002
8.022759e+002;9.422013e-002
8.042045e+002;9.385654e-002
8.061331e+002;9.318656e-002
8.080616e+002;9.196395e-002
8.099902e+002;9.088585e-002
8.119187e+002;8.892562e-002
8.138472e+002;8.778514e-002
8.157758e+002;8.716090e-002
8.177043e+002;8.608373e-002
8.196329e+002;8.628273e-002
8.215615e+002;8.675412e-002
8.234900e+002;8.673110e-002
8.254185e+002;8.785770e-002
8.273471e+002;9.041342e-002
8.292756e+002;9.250920e-002
8.312042e+002;9.339258e-002
8.331328e+002;9.285353e-002
8.350613e+002;9.115438e-002
8.369898e+002;8.836081e-002
8.389184e+002;8.561290e-002
8.408469e+002;8.329250e-002
8.427755e+002;8.157178e-002
8.447040e+002;8.013850e-002
8.466326e+002;7.910172e-002
8.485611e+002;7.877888e-002
8.504897e+002;7.809977e-002
8.524182e+002;7.722836e-002
8.543467e+002;7.671405e-002
8.562753e+002;7.638236e-002
8.582039e+002;7.595402e-002
8.601324e+002;7.599881e-002
8.620610e+002;7.612735e-002
8.639895e+002;7.619372e-002
8.659180e+002;7.649267e-002
8.678466e+002;7.654259e-002
8.697751e+002;7.647406e-002
8.717037e+002;7.594281e-002
8.736323e+002;7.596755e-002
8.755608e+002;7.627223e-002
8.774893e+002;7.633037e-002
8.794179e+002;7.623807e-002
8.813464e+002;7.635340e-002
8.832750e+002;7.725175e-002
8.852036e+002;7.809184e-002
8.871321e+002;7.775334e-002
8.890606e+002;7.741618e-002
8.909892e+002;7.743852e-002
8.929177e+002;7.746925e-002
8.948463e+002;7.756205e-002
8.967748e+002;7.745840e-002
8.987034e+002;7.747670e-002
9.006319e+002;7.791733e-002
9.025605e+002;7.881761e-002
9.044890e+002;7.970376e-002
9.064175e+002;7.974397e-002
9.083461e+002;7.994945e-002
9.102747e+002;8.104783e-002
9.122032e+002;8.212030e-002
9.141318e+002;8.279013e-002
9.160603e+002;8.338483e-002
9.179888e+002;8.454665e-002
9.199174e+002;8.605868e-002
9.218459e+002;8.734383e-002
9.237745e+002;8.917426e-002
9.257031e+002;9.126741e-002
9.276316e+002;9.254565e-002
9.295601e+002;9.285509e-002
9.314887e+002;9.231388e-002
9.334172e+002;9.063251e-002
9.353458e+002;8.859324e-002
9.372744e+002;8.713486e-002
9.392029e+002;8.635633e-002
9.411314e+002;8.641734e-002
9.430600e+002;8.764557e-002
9.449885e+002;8.951714e-002
9.469171e+002;9.139711e-002
9.488456e+002;9.331646e-002
9.507742e+002;9.474909e-002
9.527027e+002;9.565654e-002
9.546313e+002;9.654751e-002
9.565598e+002;9.708690e-002
9.584883e+002;9.742054e-002
9.604169e+002;9.691345e-002
9.623455e+002;9.518653e-002
9.642740e+002;9.318782e-002
9.662026e+002;9.184686e-002
9.681311e+002;9.098520e-002
9.700596e+002;9.058981e-002
9.719882e+002;9.052014e-002
9.739167e+002;9.011921e-002
9.758453e+002;8.907805e-002
9.777739e+002;8.831500e-002
9.797024e+002;8.783442e-002
9.816309e+002;8.708278e-002
9.835595e+002;8.621884e-002
9.854880e+002;8.547600e-002
9.874166e+002;8.486284e-002
9.893452e+002;8.440714e-002
9.912737e+002;8.369841e-002
9.932022e+002;8.283399e-002
9.951307e+002;8.244687e-002
9.970593e+002;8.226087e-002
9.989879e+002;8.197961e-002
1.000916e+003;8.178401e-002
1.002845e+003;8.132321e-002
1.004773e+003;8.085688e-002
1.006702e+003;8.063525e-002
1.008631e+003;8.103582e-002
1.010559e+003;8.165307e-002
1.012488e+003;8.150214e-002
1.014416e+003;8.162436e-002
1.016345e+003;8.210016e-002
1.018273e+003;8.245080e-002
1.020202e+003;8.295666e-002
1.022130e+003;8.359349e-002
1.024059e+003;8.484069e-002
1.025988e+003;8.696234e-002
1.027916e+003;8.817356e-002
1.029845e+003;8.822922e-002
1.031773e+003;8.736287e-002
1.033702e+003;8.599333e-002
1.035630e+003;8.514480e-002
1.037559e+003;8.439893e-002
1.039487e+003;8.333890e-002
1.041416e+003;8.237765e-002
1.043344e+003;8.206182e-002
1.045273e+003;8.242881e-002
1.047202e+003;8.311191e-002
1.049130e+003;8.318843e-002
1.051059e+003;8.339386e-002
1.052987e+003;8.413523e-002
1.054916e+003;8.533680e-002
1.056844e+003;8.697436e-002
1.058773e+003;8.856232e-002
1.060701e+003;9.024511e-002
1.062630e+003;9.193075e-002
1.064558e+003;9.326117e-002
1.066487e+003;9.409181e-002
1.068416e+003;9.476949e-002
1.070344e+003;9.517741e-002
1.072273e+003;9.569763e-002
1.074201e+003;9.616601e-002
1.076130e+003;9.584887e-002
1.078058e+003;9.528411e-002
1.079987e+003;9.440589e-002
1.081915e+003;9.344920e-002
1.083844e+003;9.231683e-002
1.085773e+003;9.166722e-002
1.087701e+003;9.231027e-002
1.089630e+003;9.246594e-002
1.091558e+003;9.231273e-002
1.093487e+003;9.239667e-002
1.095415e+003;9.305989e-002
1.097344e+003;9.417267e-002
1.099272e+003;9.532785e-002
1.101201e+003;9.694771e-002
1.103129e+003;9.862702e-002
1.105058e+003;1.004782e-001
1.106987e+003;1.021093e-001
1.108915e+003;1.031929e-001
1.110844e+003;1.037324e-001
1.112772e+003;1.039529e-001
1.114701e+003;1.045424e-001
1.116629e+003;1.051279e-001
1.118558e+003;1.049833e-001
1.120486e+003;1.041711e-001
1.122415e+003;1.031192e-001
1.124344e+003;1.008930e-001
1.126272e+003;9.752770e-002
1.128201e+003;9.385226e-002
1.130129e+003;9.051728e-002
1.132058e+003;8.796378e-002
1.133986e+003;8.658325e-002
1.135915e+003;8.579304e-002
1.137843e+003;8.588409e-002
1.139772e+003;8.654556e-002
1.141700e+003;8.787680e-002
1.143629e+003;8.997852e-002
1.145557e+003;9.162151e-002
1.147486e+003;9.342960e-002
1.149415e+003;9.606476e-002
1.151343e+003;9.889168e-002
1.153272e+003;1.019343e-001
1.155200e+003;1.053187e-001
1.157129e+003;1.097903e-001
1.159057e+003;1.146278e-001
1.160986e+003;1.200115e-001
1.162914e+003;1.261340e-001
1.164843e+003;1.318388e-001
1.166771e+003;1.360501e-001
1.168700e+003;1.382847e-001
1.170629e+003;1.376649e-001
1.172557e+003;1.345649e-001
1.174486e+003;1.298697e-001
1.176414e+003;1.249615e-001
1.178343e+003;1.208299e-001
1.180271e+003;1.181926e-001
1.182200e+003;1.170092e-001
1.184128e+003;1.175810e-001
1.186057e+003;1.198220e-001
1.187986e+003;1.233214e-001
1.189914e+003;1.279380e-001
1.191843e+003;1.330594e-001
1.193771e+003;1.382531e-001
1.195700e+003;1.437778e-001
1.197628e+003;1.487178e-001
1.199557e+003;1.501124e-001
1.201485e+003;1.473243e-001
1.203414e+003;1.429293e-001
1.205343e+003;1.390516e-001
1.207271e+003;1.363826e-001
1.209200e+003;1.346693e-001
1.211128e+003;1.338145e-001
1.213057e+003;1.329967e-001
1.214985e+003;1.310585e-001
1.216914e+003;1.280578e-001
1.218842e+003;1.246959e-001
1.220771e+003;1.224734e-001
1.222699e+003;1.225515e-001
1.224628e+003;1.244905e-001
1.226557e+003;1.278318e-001
1.228485e+003;1.319327e-001
1.230414e+003;1.364674e-001
1.232342e+003;1.411900e-001
1.234271e+003;1.451768e-001
1.236199e+003;1.478015e-001
1.238128e+003;1.490880e-001
1.240056e+003;1.495217e-001
1.241985e+003;1.492970e-001
1.243913e+003;1.488165e-001
1.245842e+003;1.488572e-001
1.247771e+003;1.502075e-001
1.249699e+003;1.527045e-001
1.251628e+003;1.558063e-001
1.253556e+003;1.592928e-001
1.255485e+003;1.628549e-001
1.257413e+003;1.659219e-001
1.259342e+003;1.683459e-001
1.261270e+003;1.690999e-001
1.263199e+003;1.672462e-001
1.265127e+003;1.624445e-001
1.267056e+003;1.554921e-001
1.268985e+003;1.485046e-001
1.270913e+003;1.433342e-001
1.272842e+003;1.405773e-001
1.274770e+003;1.394088e-001
1.276699e+003;1.392596e-001
1.278627e+003;1.393184e-001
1.280556e+003;1.385715e-001
1.282484e+003;1.369767e-001
1.284413e+003;1.354368e-001
1.286342e+003;1.344468e-001
1.288270e+003;1.338640e-001
1.290199e+003;1.332564e-001
1.292127e+003;1.321727e-001
1.294056e+003;1.310570e-001
1.295984e+003;1.307556e-001
1.297913e+003;1.307583e-001
1.299841e+003;1.303664e-001
1.301770e+003;1.298260e-001
1.303698e+003;1.289901e-001
1.305627e+003;1.278205e-001
1.307556e+003;1.267134e-001
1.309484e+003;1.257538e-001
1.311413e+003;1.250659e-001
1.313341e+003;1.242710e-001
1.315270e+003;1.232113e-001
1.317198e+003;1.220498e-001
1.319127e+003;1.212453e-001
1.321055e+003;1.208301e-001
1.322984e+003;1.206212e-001
1.324912e+003;1.206117e-001
1.326841e+003;1.207511e-001
1.328770e+003;1.212234e-001
1.330698e+003;1.220128e-001
1.332627e+003;1.226295e-001
1.334555e+003;1.229655e-001
1.336484e+003;1.229539e-001
1.338412e+003;1.232598e-001
1.340341e+003;1.243353e-001
1.342269e+003;1.257068e-001
1.344198e+003;1.267932e-001
1.346126e+003;1.276232e-001
1.348055e+003;1.286098e-001
1.349984e+003;1.301702e-001
1.351912e+003;1.318105e-001
1.353841e+003;1.336447e-001
1.355769e+003;1.355983e-001
1.357698e+003;1.376718e-001
1.359626e+003;1.395806e-001
1.361555e+003;1.409663e-001
1.363483e+003;1.426991e-001
1.365412e+003;1.448886e-001
1.367341e+003;1.470589e-001
1.369269e+003;1.489172e-001
1.371198e+003;1.496887e-001
1.373126e+003;1.492394e-001
1.375055e+003;1.477899e-001
1.376983e+003;1.455990e-001
1.378912e+003;1.424337e-001
1.380840e+003;1.385559e-001
1.382769e+003;1.344241e-001
1.384698e+003;1.310090e-001
1.386626e+003;1.274116e-001
1.388555e+003;1.244975e-001
1.390483e+003;1.227685e-001
1.392412e+003;1.211699e-001
1.394340e+003;1.197685e-001
1.396269e+003;1.200152e-001
1.398197e+003;1.211147e-001
1.400126e+003;1.232960e-001
1.402054e+003;1.263656e-001
1.403983e+003;1.299236e-001
1.405911e+003;1.353517e-001
1.407840e+003;1.423862e-001
1.409769e+003;1.500785e-001
1.411697e+003;1.580766e-001
1.413626e+003;1.646721e-001
1.415554e+003;1.681854e-001
1.417483e+003;1.670327e-001
1.419411e+003;1.634281e-001
1.421340e+003;1.604646e-001
1.423268e+003;1.564585e-001
1.425197e+003;1.531623e-001
1.427125e+003;1.522029e-001
1.429054e+003;1.531973e-001
1.430983e+003;1.558406e-001
1.432911e+003;1.580924e-001
1.434840e+003;1.575949e-001
1.436768e+003;1.564023e-001
1.438697e+003;1.575240e-001
1.440625e+003;1.575031e-001
1.442554e+003;1.566807e-001
1.444482e+003;1.562488e-001
1.446411e+003;1.561761e-001
1.448340e+003;1.573068e-001
1.450268e+003;1.600367e-001
1.452197e+003;1.625356e-001
1.454125e+003;1.637375e-001
1.456054e+003;1.636988e-001
1.457982e+003;1.693888e-001
1.459911e+003;1.786907e-001
1.461839e+003;1.839285e-001
1.463768e+003;1.820935e-001
1.465697e+003;1.753571e-001
1.467625e+003;1.678050e-001
1.469554e+003;1.609702e-001
1.471482e+003;1.564252e-001
1.473411e+003;1.570550e-001
1.475339e+003;1.598085e-001
1.477268e+003;1.597825e-001
1.479196e+003;1.570895e-001
1.481125e+003;1.515849e-001
1.483053e+003;1.443705e-001
1.484982e+003;1.372319e-001
1.486911e+003;1.322864e-001
1.488839e+003;1.305840e-001
1.490768e+003;1.321546e-001
1.492696e+003;1.356086e-001
1.494625e+003;1.384076e-001
1.496553e+003;1.417209e-001
1.498482e+003;1.477516e-001
1.500410e+003;1.547413e-001
1.502339e+003;1.610249e-001
1.504267e+003;1.643794e-001
1.506196e+003;1.677555e-001
1.508125e+003;1.771529e-001
1.510053e+003;1.881495e-001
1.511982e+003;1.967329e-001
1.513910e+003;2.046328e-001
1.515839e+003;2.122252e-001
1.517767e+003;2.206371e-001
1.519696e+003;2.284738e-001
1.521624e+003;2.377001e-001
1.523553e+003;2.497489e-001
1.525481e+003;2.607352e-001
1.527410e+003;2.717659e-001
1.529339e+003;2.825341e-001
1.531267e+003;2.909517e-001
1.533196e+003;2.973144e-001
1.535124e+003;3.037775e-001
1.537053e+003;3.053853e-001
1.538981e+003;3.005008e-001
1.540910e+003;2.967302e-001
1.542838e+003;2.933335e-001
1.544767e+003;2.859723e-001
1.546695e+003;2.758048e-001
1.548624e+003;2.625386e-001
1.550553e+003;2.485981e-001
1.552481e+003;2.352777e-001
1.554410e+003;2.220213e-001
1.556338e+003;2.088250e-001
1.558267e+003;1.944060e-001
1.560195e+003;1.861451e-001
1.562124e+003;1.819996e-001
1.564052e+003;1.748770e-001
1.565981e+003;1.666159e-001
1.567910e+003;1.577891e-001
1.569838e+003;1.497746e-001
1.571767e+003;1.446844e-001
1.573695e+003;1.382666e-001
1.575624e+003;1.303010e-001
1.577552e+003;1.269565e-001
1.579481e+003;1.258269e-001
1.581409e+003;1.235969e-001
1.583338e+003;1.215341e-001
1.585266e+003;1.205906e-001
1.587195e+003;1.209186e-001
1.589124e+003;1.215334e-001
1.591052e+003;1.227003e-001
1.592981e+003;1.246364e-001
1.594909e+003;1.273502e-001
1.596838e+003;1.312259e-001
1.598766e+003;1.362867e-001
1.600695e+003;1.418702e-001
1.602623e+003;1.485919e-001
1.604552e+003;1.567385e-001
1.606480e+003;1.653059e-001
1.608409e+003;1.739470e-001
1.610338e+003;1.836033e-001
1.612266e+003;1.945134e-001
1.614195e+003;2.054279e-001
1.616123e+003;2.170725e-001
1.618052e+003;2.344235e-001
1.619980e+003;2.537188e-001
1.621909e+003;2.710596e-001
1.623837e+003;2.894883e-001
1.625766e+003;3.095395e-001
1.627694e+003;3.295174e-001
1.629623e+003;3.498110e-001
1.631552e+003;3.692724e-001
1.633480e+003;3.822488e-001
1.635409e+003;3.871690e-001
1.637337e+003;3.860747e-001
1.639266e+003;3.745123e-001
1.641194e+003;3.544004e-001
1.643123e+003;3.303005e-001
1.645051e+003;3.039620e-001
1.646980e+003;2.808644e-001
1.648909e+003;2.625274e-001
1.650837e+003;2.417838e-001
1.652766e+003;2.212045e-001
1.654694e+003;2.120813e-001
1.656623e+003;2.059625e-001
1.658551e+003;1.962689e-001
1.660480e+003;1.853952e-001
1.662408e+003;1.745820e-001
1.664337e+003;1.654704e-001
1.666266e+003;1.559707e-001
1.668194e+003;1.446664e-001
1.670123e+003;1.351530e-001
1.672051e+003;1.281572e-001
1.673980e+003;1.197683e-001
1.675908e+003;1.123035e-001
1.677837e+003;1.064836e-001
1.679765e+003;9.887458e-002
1.681694e+003;8.977330e-002
1.683622e+003;7.928430e-002
1.685551e+003;7.430461e-002
1.687479e+003;7.271096e-002
1.689408e+003;6.924798e-002
1.691337e+003;6.617489e-002
1.693265e+003;6.200641e-002
1.695194e+003;5.616072e-002
1.697122e+003;5.450386e-002
1.699051e+003;5.241041e-002
1.700979e+003;5.167095e-002
1.702908e+003;5.434814e-002
1.704836e+003;5.405726e-002
1.706765e+003;5.429490e-002
1.708693e+003;5.498450e-002
1.710622e+003;5.495863e-002
1.712551e+003;5.395978e-002
1.714479e+003;5.195531e-002
1.716408e+003;4.905815e-002
1.718336e+003;4.945073e-002
1.720265e+003;5.253110e-002
1.722193e+003;5.360898e-002
1.724122e+003;5.335939e-002
1.726050e+003;5.292122e-002
1.727979e+003;5.211659e-002
1.729908e+003;5.144749e-002
1.731836e+003;4.925158e-002
1.733765e+003;4.652825e-002
1.735693e+003;4.836670e-002
1.737622e+003;4.970058e-002
1.739550e+003;4.859862e-002
1.741479e+003;4.871599e-002
1.743407e+003;4.858910e-002
1.745336e+003;4.798583e-002
1.747265e+003;4.653975e-002
1.749193e+003;4.454008e-002
1.751122e+003;4.312500e-002
1.753050e+003;4.331243e-002
1.754979e+003;4.253899e-002
1.756907e+003;4.114547e-002
1.758836e+003;4.059701e-002
1.760764e+003;3.950881e-002
1.762693e+003;3.886779e-002
1.764621e+003;3.880533e-002
1.766550e+003;3.753443e-002
1.768479e+003;3.639571e-002
1.770407e+003;3.498726e-002
1.772336e+003;3.344220e-002
1.774264e+003;3.422569e-002
1.776193e+003;3.501179e-002
1.778121e+003;3.477642e-002
1.780050e+003;3.419106e-002
1.781978e+003;3.386353e-002
1.783907e+003;3.322624e-002
1.785835e+003;3.274935e-002
1.787764e+003;3.271513e-002
1.789693e+003;3.176067e-002
1.791621e+003;3.028536e-002
1.793550e+003;3.043136e-002
1.795478e+003;3.124640e-002
1.797407e+003;3.111001e-002
1.799335e+003;3.050977e-002
1.801264e+003;3.009267e-002
1.803192e+003;3.038143e-002
1.805121e+003;3.049036e-002
1.807049e+003;3.003741e-002
1.808978e+003;2.949542e-002
1.810907e+003;2.931676e-002
1.812835e+003;2.937270e-002
1.814764e+003;2.951057e-002
1.816692e+003;2.936682e-002
1.818621e+003;2.932648e-002
1.820549e+003;2.903614e-002
1.822478e+003;2.845004e-002
1.824406e+003;2.773608e-002
1.826335e+003;2.778959e-002
1.828264e+003;2.750204e-002
1.830192e+003;2.725911e-002
1.832121e+003;2.805657e-002
1.834049e+003;2.831075e-002
1.835978e+003;2.805502e-002
1.837906e+003;2.786872e-002
1.839835e+003;2.754515e-002
1.841763e+003;2.678692e-002
1.843692e+003;2.597908e-002
1.845620e+003;2.666317e-002
1.847549e+003;2.722644e-002
1.849478e+003;2.694466e-002
1.851406e+003;2.668618e-002
1.853335e+003;2.679651e-002
1.855263e+003;2.688466e-002
1.857192e+003;2.664999e-002
1.859120e+003;2.646380e-002
1.861049e+003;2.639711e-002
1.862977e+003;2.627678e-002
1.864906e+003;2.617059e-002
1.866834e+003;2.581638e-002
1.868763e+003;2.543362e-002
1.870692e+003;2.600089e-002
1.872620e+003;2.669372e-002
1.874549e+003;2.668255e-002
1.876477e+003;2.642084e-002
1.878406e+003;2.633528e-002
1.880334e+003;2.629452e-002
1.882263e+003;2.622042e-002
1.884191e+003;2.652614e-002
1.886120e+003;2.659571e-002
1.888048e+003;2.605630e-002
1.889977e+003;2.585405e-002
1.891906e+003;2.632909e-002
1.893834e+003;2.658112e-002
1.895763e+003;2.679957e-002
1.897691e+003;2.695090e-002
1.899620e+003;2.700572e-002
1.901548e+003;2.679697e-002
1.903477e+003;2.672039e-002
1.905405e+003;2.683348e-002
1.907334e+003;2.671468e-002
1.909262e+003;2.635225e-002
1.911191e+003;2.623229e-002
1.913120e+003;2.625418e-002
1.915048e+003;2.605633e-002
1.916977e+003;2.541381e-002
1.918905e+003;2.525557e-002
1.920834e+003;2.545780e-002
1.922762e+003;2.541448e-002
1.924691e+003;2.546788e-002
1.926619e+003;2.549781e-002
1.928548e+003;2.556328e-002
1.930477e+003;2.557685e-002
1.932405e+003;2.546317e-002
1.934334e+003;2.548738e-002
1.936262e+003;2.550808e-002
1.938191e+003;2.550347e-002
1.940119e+003;2.517341e-002
1.942048e+003;2.476055e-002
1.943976e+003;2.503274e-002
1.945905e+003;2.545583e-002
1.947833e+003;2.542003e-002
1.949762e+003;2.546373e-002
1.951691e+003;2.565976e-002
1.953619e+003;2.560883e-002
1.955548e+003;2.582359e-002
1.957476e+003;2.596265e-002
1.959405e+003;2.570486e-002
1.961333e+003;2.557646e-002
1.963262e+003;2.570064e-002
1.965190e+003;2.570328e-002
1.967119e+003;2.580882e-002
1.969047e+003;2.602555e-002
1.970976e+003;2.607959e-002
1.972905e+003;2.616672e-002
1.974833e+003;2.641848e-002
1.976762e+003;2.653100e-002
1.978690e+003;2.640542e-002
1.980619e+003;2.627519e-002
1.982547e+003;2.635775e-002
1.984476e+003;2.678132e-002
1.986404e+003;2.669354e-002
1.988333e+003;2.616566e-002
1.990261e+003;2.579789e-002
1.992190e+003;2.585946e-002
1.994119e+003;2.605686e-002
1.996047e+003;2.612491e-002
1.997976e+003;2.639535e-002
1.999904e+003;2.658267e-002
2.001833e+003;2.636419e-002
2.003761e+003;2.646930e-002
2.005690e+003;2.663858e-002
2.007618e+003;2.639088e-002
2.009547e+003;2.611066e-002
2.011476e+003;2.618287e-002
2.013404e+003;2.652364e-002
2.015333e+003;2.686922e-002
2.017261e+003;2.679097e-002
2.019190e+003;2.668646e-002
2.021118e+003;2.677075e-002
2.023047e+003;2.695425e-002
2.024975e+003;2.713155e-002
2.026904e+003;2.731598e-002
2.028833e+003;2.736863e-002
2.030761e+003;2.727488e-002
2.032690e+003;2.740621e-002
2.034618e+003;2.780633e-002
2.036547e+003;2.793253e-002
2.038475e+003;2.789956e-002
2.040404e+003;2.790133e-002
2.042332e+003;2.799222e-002
2.044261e+003;2.803360e-002
2.046189e+003;2.791129e-002
2.048118e+003;2.777722e-002
2.050047e+003;2.799766e-002
2.051975e+003;2.818292e-002
2.053904e+003;2.832387e-002
2.055832e+003;2.832875e-002
2.057761e+003;2.844562e-002
2.059689e+003;2.873542e-002
2.061618e+003;2.868611e-002
2.063546e+003;2.856093e-002
2.065475e+003;2.877145e-002
2.067404e+003;2.897716e-002
2.069332e+003;2.900964e-002
2.071260e+003;2.882145e-002
2.073189e+003;2.844622e-002
2.075118e+003;2.850735e-002
2.077046e+003;2.867060e-002
2.078975e+003;2.850509e-002
2.080903e+003;2.838495e-002
2.082832e+003;2.823192e-002
2.084760e+003;2.803972e-002
2.086689e+003;2.804215e-002
2.088617e+003;2.813583e-002
2.090546e+003;2.810157e-002
2.092475e+003;2.802088e-002
2.094403e+003;2.789737e-002
2.096332e+003;2.780453e-002
2.098260e+003;2.782272e-002
2.100189e+003;2.762928e-002
2.102117e+003;2.766958e-002
2.104046e+003;2.770553e-002
2.105974e+003;2.761061e-002
2.107903e+003;2.775649e-002
2.109832e+003;2.787476e-002
2.111760e+003;2.788126e-002
2.113688e+003;2.792137e-002
2.115617e+003;2.788232e-002
2.117546e+003;2.778072e-002
2.119474e+003;2.786455e-002
2.121403e+003;2.816326e-002
2.123331e+003;2.829374e-002
2.125260e+003;2.824423e-002
2.127188e+003;2.820830e-002
2.129117e+003;2.837020e-002
2.131045e+003;2.850410e-002
2.132974e+003;2.839574e-002
2.134903e+003;2.826092e-002
2.136831e+003;2.788451e-002
2.138760e+003;2.769133e-002
2.140688e+003;2.763183e-002
2.142617e+003;2.778139e-002
2.144545e+003;2.805566e-002
2.146474e+003;2.815315e-002
2.148402e+003;2.822054e-002
2.150331e+003;2.832475e-002
2.152260e+003;2.837742e-002
2.154188e+003;2.838944e-002
2.156117e+003;2.835913e-002
2.158045e+003;2.835382e-002
2.159974e+003;2.849366e-002
2.161902e+003;2.853644e-002
2.163831e+003;2.852533e-002
2.165759e+003;2.856085e-002
2.167688e+003;2.859444e-002
2.169616e+003;2.876721e-002
2.171545e+003;2.898910e-002
2.173474e+003;2.897206e-002
2.175402e+003;2.898258e-002
2.177331e+003;2.926111e-002
2.179259e+003;2.918616e-002
2.181188e+003;2.888232e-002
2.183116e+003;2.884195e-002
2.185045e+003;2.900121e-002
2.186973e+003;2.928277e-002
2.188902e+003;2.946868e-002
2.190831e+003;2.934030e-002
2.192759e+003;2.910933e-002
2.194688e+003;2.904904e-002
2.196616e+003;2.934732e-002
2.198545e+003;2.961966e-002
2.200473e+003;2.939419e-002
2.202402e+003;2.905421e-002
2.204330e+003;2.899693e-002
2.206259e+003;2.899158e-002
2.208188e+003;2.864055e-002
2.210116e+003;2.839659e-002
2.212044e+003;2.875227e-002
2.213973e+003;2.896554e-002
2.215902e+003;2.857561e-002
2.217830e+003;2.833932e-002
2.219759e+003;2.845259e-002
2.221687e+003;2.821219e-002
2.223616e+003;2.783685e-002
2.225544e+003;2.757728e-002
2.227473e+003;2.754942e-002
2.229401e+003;2.772322e-002
2.231330e+003;2.780308e-002
2.233259e+003;2.762395e-002
2.235187e+003;2.729869e-002
2.237116e+003;2.745958e-002
2.239044e+003;2.772700e-002
2.240973e+003;2.750402e-002
2.242901e+003;2.757353e-002
2.244830e+003;2.770690e-002
2.246758e+003;2.760870e-002
2.248687e+003;2.759274e-002
2.250615e+003;2.770351e-002
2.252544e+003;2.779231e-002
2.254473e+003;2.788395e-002
2.256401e+003;2.819303e-002
2.258330e+003;2.832079e-002
2.260258e+003;2.799635e-002
2.262187e+003;2.782972e-002
2.264115e+003;2.785261e-002
2.266044e+003;2.820144e-002
2.267972e+003;2.827496e-002
2.269901e+003;2.812550e-002
2.271830e+003;2.807061e-002
2.273758e+003;2.817199e-002
2.275687e+003;2.831524e-002
2.277615e+003;2.836069e-002
2.279544e+003;2.856698e-002
2.281472e+003;2.862310e-002
2.283401e+003;2.837377e-002
2.285329e+003;2.826124e-002
2.287258e+003;2.855544e-002
2.289187e+003;2.896778e-002
2.291115e+003;2.894362e-002
2.293043e+003;2.887368e-002
2.294972e+003;2.927823e-002
2.296901e+003;2.953954e-002
2.298829e+003;2.963151e-002
2.300758e+003;2.951535e-002
2.302686e+003;2.941745e-002
2.304615e+003;2.935629e-002
2.306543e+003;2.961346e-002
2.308472e+003;3.002495e-002
2.310400e+003;2.996946e-002
2.312329e+003;2.989853e-002
2.314258e+003;3.004764e-002
2.316186e+003;3.006891e-002
2.318115e+003;2.999839e-002
2.320043e+003;3.011053e-002
2.321972e+003;3.015080e-002
2.323900e+003;2.994702e-002
2.325829e+003;2.989708e-002
2.327757e+003;2.993797e-002
2.329686e+003;2.967522e-002
2.331615e+003;2.935966e-002
2.333543e+003;2.917567e-002
2.335472e+003;2.915327e-002
2.337400e+003;2.921263e-002
2.339329e+003;2.924995e-002
2.341257e+003;2.911451e-002
2.343186e+003;2.899813e-002
2.345114e+003;2.913488e-002
2.347043e+003;2.945748e-002
2.348971e+003;2.942709e-002
2.350900e+003;2.906154e-002
2.352829e+003;2.873457e-002
2.354757e+003;2.864062e-002
2.356686e+003;2.901173e-002
2.358614e+003;2.928486e-002
2.360543e+003;2.905038e-002
2.362471e+003;2.899197e-002
2.364400e+003;2.920742e-002
2.366328e+003;2.903848e-002
2.368257e+003;2.898517e-002
2.370186e+003;2.930428e-002
2.372114e+003;2.938199e-002
2.374042e+003;2.968724e-002
2.375971e+003;2.982971e-002
2.377900e+003;2.989573e-002
2.379828e+003;3.007985e-002
2.381757e+003;3.009927e-002
2.383685e+003;3.020120e-002
2.385614e+003;3.026145e-002
2.387542e+003;3.013567e-002
2.389471e+003;3.001302e-002
2.391399e+003;3.001696e-002
2.393328e+003;3.030454e-002
2.395257e+003;3.059086e-002
2.397185e+003;3.059260e-002
2.399114e+003;3.063427e-002
2.401042e+003;3.079672e-002
2.402971e+003;3.061557e-002
2.404899e+003;3.049989e-002
2.406828e+003;3.039327e-002
2.408756e+003;3.036434e-002
2.410685e+003;3.059985e-002
2.412614e+003;3.077018e-002
2.414542e+003;3.090596e-002
2.416471e+003;3.088284e-002
2.418399e+003;3.097271e-002
2.420328e+003;3.095994e-002
2.422256e+003;3.081909e-002
2.424185e+003;3.090362e-002
2.426113e+003;3.104531e-002
2.428042e+003;3.104264e-002
2.429970e+003;3.126854e-002
2.431899e+003;3.157174e-002
2.433828e+003;3.151737e-002
2.435756e+003;3.137905e-002
2.437685e+003;3.162790e-002
2.439613e+003;3.197055e-002
2.441542e+003;3.199594e-002
2.443470e+003;3.203653e-002
2.445399e+003;3.214602e-002
2.447327e+003;3.239499e-002
2.449256e+003;3.277022e-002
2.451185e+003;3.292375e-002
2.453113e+003;3.274414e-002
2.455042e+003;3.282739e-002
2.456970e+003;3.332444e-002
2.458899e+003;3.361243e-002
2.460827e+003;3.347108e-002
2.462756e+003;3.336226e-002
2.464684e+003;3.360899e-002
2.466613e+003;3.408149e-002
2.468542e+003;3.431321e-002
2.470470e+003;3.419579e-002
2.472398e+003;3.390795e-002
2.474327e+003;3.395740e-002
2.476256e+003;3.427890e-002
2.478184e+003;3.440943e-002
2.480113e+003;3.431400e-002
2.482041e+003;3.429984e-002
2.483970e+003;3.455191e-002
2.485898e+003;3.457617e-002
2.487827e+003;3.437937e-002
2.489755e+003;3.415120e-002
2.491684e+003;3.401583e-002
2.493613e+003;3.425366e-002
2.495541e+003;3.433541e-002
2.497470e+003;3.407902e-002
2.499398e+003;3.427503e-002
2.501327e+003;3.433986e-002
2.503255e+003;3.408263e-002
2.505184e+003;3.439838e-002
2.507112e+003;3.484348e-002
2.509041e+003;3.484438e-002
2.510969e+003;3.494592e-002
2.512898e+003;3.523485e-002
2.514827e+003;3.550095e-002
2.516755e+003;3.551346e-002
2.518684e+003;3.563070e-002
2.520612e+003;3.613684e-002
2.522541e+003;3.665798e-002
2.524469e+003;3.674271e-002
2.526398e+003;3.656325e-002
2.528326e+003;3.694473e-002
2.530255e+003;3.747115e-002
2.532184e+003;3.762562e-002
2.534112e+003;3.783340e-002
2.536041e+003;3.807462e-002
2.537969e+003;3.828286e-002
2.539898e+003;3.845511e-002
2.541826e+003;3.854842e-002
2.543755e+003;3.877931e-002
2.545683e+003;3.899475e-002
2.547612e+003;3.904332e-002
2.549541e+003;3.915506e-002
2.551469e+003;3.918828e-002
2.553397e+003;3.898260e-002
2.555326e+003;3.889059e-002
2.557255e+003;3.908983e-002
2.559183e+003;3.935817e-002
2.561112e+003;3.950936e-002
2.563040e+003;3.946683e-002
2.564969e+003;3.930553e-002
2.566897e+003;3.933085e-002
2.568826e+003;3.962702e-002
2.570754e+003;3.995689e-002
2.572683e+003;3.989431e-002
2.574612e+003;3.991120e-002
2.576540e+003;4.024797e-002
2.578469e+003;4.055696e-002
2.580397e+003;4.078365e-002
2.582326e+003;4.112395e-002
2.584254e+003;4.129587e-002
2.586183e+003;4.119833e-002
2.588111e+003;4.137272e-002
2.590040e+003;4.154085e-002
2.591969e+003;4.157942e-002
2.593897e+003;4.160097e-002
2.595826e+003;4.147019e-002
2.597754e+003;4.149823e-002
2.599683e+003;4.173121e-002
2.601611e+003;4.170706e-002
2.603540e+003;4.161530e-002
2.605468e+003;4.161151e-002
2.607397e+003;4.172340e-002
2.609325e+003;4.182598e-002
2.611254e+003;4.210842e-002
2.613183e+003;4.269400e-002
2.615111e+003;4.288172e-002
2.617040e+003;4.266391e-002
2.618968e+003;4.272503e-002
2.620897e+003;4.271813e-002
2.622825e+003;4.266603e-002
2.624754e+003;4.303158e-002
2.626682e+003;4.297657e-002
2.628611e+003;4.286391e-002
2.630540e+003;4.318915e-002
2.632468e+003;4.326488e-002
2.634396e+003;4.350742e-002
2.636325e+003;4.368278e-002
2.638254e+003;4.381672e-002
2.640182e+003;4.389644e-002
2.642111e+003;4.397376e-002
2.644039e+003;4.433972e-002
2.645968e+003;4.430042e-002
2.647896e+003;4.416472e-002
2.649825e+003;4.417513e-002
2.651753e+003;4.425302e-002
2.653682e+003;4.419656e-002
2.655611e+003;4.435352e-002
2.657539e+003;4.457390e-002
2.659468e+003;4.475638e-002
2.661396e+003;4.491916e-002
2.663325e+003;4.503386e-002
2.665253e+003;4.529320e-002
2.667182e+003;4.530423e-002
2.669110e+003;4.554754e-002
2.671039e+003;4.566748e-002
2.672968e+003;4.568070e-002
2.674896e+003;4.587782e-002
2.676825e+003;4.606239e-002
2.678753e+003;4.618764e-002
2.680682e+003;4.645589e-002
2.682610e+003;4.668244e-002
2.684539e+003;4.703015e-002
2.686467e+003;4.715845e-002
2.688396e+003;4.703385e-002
2.690324e+003;4.730983e-002
2.692253e+003;4.787771e-002
2.694182e+003;4.835122e-002
2.696110e+003;4.870195e-002
2.698039e+003;4.909365e-002
2.699967e+003;4.925614e-002
2.701896e+003;4.947453e-002
2.703824e+003;4.979518e-002
2.705753e+003;4.994477e-002
2.707681e+003;5.023905e-002
2.709610e+003;5.057961e-002
2.711539e+003;5.099646e-002
2.713467e+003;5.167165e-002
2.715396e+003;5.230294e-002
2.717324e+003;5.265934e-002
2.719253e+003;5.297205e-002
2.721181e+003;5.337624e-002
2.723110e+003;5.359117e-002
2.725038e+003;5.378610e-002
2.726967e+003;5.435430e-002
2.728896e+003;5.498566e-002
2.730824e+003;5.539547e-002
2.732752e+003;5.575886e-002
2.734681e+003;5.617897e-002
2.736610e+003;5.672040e-002
2.738538e+003;5.692434e-002
2.740467e+003;5.699196e-002
2.742395e+003;5.721708e-002
2.744324e+003;5.762187e-002
2.746252e+003;5.781624e-002
2.748181e+003;5.760735e-002
2.750109e+003;5.757383e-002
2.752038e+003;5.761404e-002
2.753967e+003;5.789252e-002
2.755895e+003;5.844823e-002
2.757824e+003;5.861084e-002
2.759752e+003;5.841551e-002
2.761681e+003;5.825570e-002
2.763609e+003;5.823012e-002
2.765538e+003;5.849671e-002
2.767466e+003;5.907043e-002
2.769395e+003;5.923168e-002
2.771323e+003;5.941161e-002
2.773252e+003;5.987094e-002
2.775181e+003;6.031054e-002
2.777109e+003;6.078241e-002
2.779038e+003;6.142587e-002
2.780966e+003;6.191710e-002
2.782895e+003;6.216635e-002
2.784823e+003;6.249321e-002
2.786752e+003;6.294344e-002
2.788680e+003;6.347076e-002
2.790609e+003;6.391974e-002
2.792538e+003;6.436292e-002
2.794466e+003;6.487323e-002
2.796395e+003;6.549901e-002
2.798323e+003;6.591187e-002
2.800252e+003;6.642597e-002
2.802180e+003;6.676301e-002
2.804109e+003;6.713036e-002
2.806037e+003;6.766596e-002
2.807966e+003;6.835015e-002
2.809895e+003;6.934079e-002
2.811823e+003;7.032407e-002
2.813751e+003;7.092167e-002
2.815680e+003;7.147747e-002
2.817609e+003;7.232329e-002
2.819537e+003;7.307409e-002
2.821466e+003;7.373442e-002
2.823394e+003;7.459943e-002
2.825323e+003;7.534803e-002
2.827251e+003;7.581452e-002
2.829180e+003;7.673869e-002
2.831108e+003;7.806832e-002
2.833037e+003;7.942969e-002
2.834966e+003;8.110043e-002
2.836894e+003;8.302658e-002
2.838823e+003;8.557550e-002
2.840751e+003;8.851028e-002
2.842680e+003;9.208215e-002
2.844608e+003;9.687071e-002
2.846537e+003;1.021801e-001
2.848465e+003;1.073759e-001
2.850394e+003;1.120846e-001
2.852323e+003;1.160965e-001
2.854251e+003;1.194061e-001
2.856180e+003;1.229399e-001
2.858108e+003;1.256353e-001
2.860037e+003;1.266666e-001
2.861965e+003;1.269118e-001
2.863894e+003;1.267351e-001
2.865822e+003;1.261149e-001
2.867751e+003;1.247684e-001
2.869679e+003;1.227622e-001
2.871608e+003;1.199645e-001
2.873536e+003;1.167291e-001
2.875465e+003;1.136476e-001
2.877394e+003;1.105591e-001
2.879322e+003;1.079851e-001
2.881251e+003;1.059385e-001
2.883179e+003;1.044578e-001
2.885108e+003;1.037161e-001
2.887036e+003;1.034232e-001
2.888965e+003;1.042643e-001
2.890893e+003;1.060630e-001
2.892822e+003;1.084362e-001
2.894750e+003;1.110546e-001
2.896679e+003;1.132183e-001
2.898608e+003;1.148985e-001
2.900536e+003;1.160784e-001
2.902465e+003;1.172312e-001
2.904393e+003;1.187037e-001
2.906322e+003;1.199717e-001
2.908250e+003;1.213381e-001
2.910179e+003;1.234261e-001
2.912107e+003;1.258724e-001
2.914036e+003;1.284733e-001
2.915965e+003;1.311156e-001
2.917893e+003;1.339730e-001
2.919822e+003;1.371283e-001
2.921750e+003;1.407765e-001
2.923679e+003;1.446137e-001
2.925607e+003;1.479848e-001
2.927536e+003;1.507609e-001
2.929464e+003;1.538674e-001
2.931393e+003;1.567144e-001
2.933322e+003;1.582199e-001
2.935250e+003;1.578691e-001
2.937178e+003;1.563694e-001
2.939107e+003;1.547327e-001
2.941036e+003;1.518912e-001
2.942964e+003;1.479407e-001
2.944893e+003;1.438436e-001
2.946821e+003;1.389079e-001
2.948750e+003;1.321987e-001
2.950678e+003;1.246707e-001
2.952607e+003;1.175027e-001
2.954535e+003;1.112128e-001
2.956464e+003;1.051717e-001
2.958393e+003;9.959624e-002
2.960321e+003;9.493026e-002
2.962250e+003;9.144381e-002
2.964178e+003;8.866481e-002
2.966107e+003;8.559813e-002
2.968035e+003;8.180905e-002
2.969964e+003;7.886878e-002
2.971892e+003;7.683264e-002
2.973821e+003;7.482847e-002
2.975750e+003;7.255214e-002
2.977678e+003;7.022649e-002
2.979607e+003;6.839424e-002
2.981535e+003;6.721599e-002
2.983464e+003;6.627885e-002
2.985392e+003;6.516834e-002
2.987321e+003;6.387682e-002
2.989249e+003;6.295049e-002
2.991178e+003;6.250174e-002
2.993106e+003;6.206562e-002
2.995035e+003;6.171509e-002
2.996964e+003;6.129768e-002
2.998892e+003;6.079849e-002
3.000821e+003;6.076743e-002
3.002749e+003;6.076900e-002
3.004678e+003;6.060675e-002
3.006606e+003;6.068886e-002
3.008535e+003;6.092566e-002
3.010463e+003;6.094152e-002
3.012392e+003;6.133645e-002
3.014321e+003;6.158544e-002
3.016249e+003;6.149507e-002
3.018177e+003;6.145266e-002
3.020106e+003;6.193154e-002
3.022035e+003;6.286478e-002
3.023963e+003;6.361616e-002
3.025892e+003;6.415009e-002
3.027820e+003;6.427658e-002
3.029749e+003;6.441791e-002
3.031677e+003;6.543925e-002
3.033606e+003;6.655564e-002
3.035534e+003;6.703717e-002
3.037463e+003;6.764753e-002
3.039392e+003;6.861957e-002
3.041320e+003;6.952266e-002
3.043249e+003;7.020974e-002
3.045177e+003;7.070696e-002
3.047106e+003;7.152056e-002
3.049034e+003;7.250860e-002
3.050963e+003;7.360376e-002
3.052891e+003;7.457716e-002
3.054820e+003;7.527056e-002
3.056749e+003;7.582735e-002
3.058677e+003;7.647715e-002
3.060606e+003;7.722266e-002
3.062534e+003;7.766276e-002
3.064463e+003;7.791887e-002
3.066391e+003;7.816336e-002
3.068320e+003;7.852869e-002
3.070248e+003;7.859087e-002
3.072177e+003;7.858241e-002
3.074105e+003;7.837015e-002
3.076034e+003;7.779797e-002
3.077963e+003;7.739286e-002
3.079891e+003;7.739183e-002
3.081820e+003;7.755025e-002
3.083748e+003;7.738265e-002
3.085677e+003;7.671868e-002
3.087605e+003;7.622630e-002
3.089534e+003;7.585686e-002
3.091462e+003;7.534382e-002
3.093391e+003;7.464425e-002
3.095320e+003;7.394572e-002
3.097248e+003;7.339699e-002
3.099177e+003;7.239871e-002
3.101105e+003;7.136124e-002
3.103034e+003;7.079845e-002
3.104962e+003;7.027160e-002
3.106891e+003;6.971429e-002
3.108819e+003;6.930791e-002
3.110748e+003;6.870084e-002
3.112677e+003;6.815726e-002
3.114605e+003;6.774043e-002
3.116533e+003;6.717944e-002
3.118462e+003;6.685375e-002
3.120391e+003;6.605516e-002
3.122319e+003;6.515667e-002
3.124248e+003;6.508002e-002
3.126176e+003;6.531592e-002
3.128105e+003;6.560621e-002
3.130033e+003;6.534620e-002
3.131962e+003;6.504843e-002
3.133890e+003;6.518777e-002
3.135819e+003;6.505070e-002
3.137748e+003;6.491566e-002
3.139676e+003;6.500036e-002
3.141605e+003;6.512664e-002
3.143533e+003;6.566887e-002
3.145462e+003;6.612580e-002
3.147390e+003;6.625172e-002
3.149319e+003;6.643574e-002
3.151247e+003;6.685834e-002
3.153176e+003;6.700083e-002
3.155104e+003;6.700388e-002
3.157033e+003;6.775468e-002
3.158962e+003;6.844626e-002
3.160890e+003;6.854007e-002
3.162819e+003;6.924401e-002
3.164747e+003;7.012344e-002
3.166676e+003;7.025488e-002
3.168604e+003;7.084709e-002
3.170533e+003;7.216781e-002
3.172461e+003;7.315282e-002
3.174390e+003;7.344482e-002
3.176319e+003;7.366846e-002
3.178247e+003;7.444142e-002
3.180176e+003;7.524464e-002
3.182104e+003;7.601204e-002
3.184033e+003;7.655966e-002
3.185961e+003;7.707204e-002
3.187890e+003;7.772818e-002
3.189818e+003;7.822949e-002
3.191747e+003;7.864753e-002
3.193676e+003;7.948400e-002
3.195604e+003;7.984686e-002
3.197532e+003;8.010741e-002
3.199461e+003;8.060051e-002
3.201390e+003;8.083030e-002
3.203318e+003;8.114348e-002
3.205247e+003;8.168174e-002
3.207175e+003;8.212434e-002
3.209104e+003;8.224697e-002
3.211032e+003;8.285168e-002
3.212961e+003;8.363012e-002
3.214889e+003;8.388797e-002
3.216818e+003;8.423708e-002
3.218747e+003;8.504521e-002
3.220675e+003;8.596420e-002
3.222604e+003;8.674057e-002
3.224532e+003;8.756416e-002
3.226461e+003;8.839297e-002
3.228389e+003;8.914632e-002
3.230318e+003;9.015922e-002
3.232246e+003;9.157978e-002
3.234175e+003;9.315510e-002
3.236104e+003;9.469878e-002
3.238032e+003;9.616257e-002
3.239961e+003;9.736381e-002
3.241889e+003;9.904744e-002
3.243818e+003;1.009774e-001
3.245746e+003;1.028139e-001
3.247675e+003;1.045994e-001
3.249603e+003;1.064319e-001
3.251532e+003;1.087472e-001
3.253460e+003;1.108830e-001
3.255389e+003;1.132651e-001
3.257318e+003;1.158598e-001
3.259246e+003;1.183714e-001
3.261175e+003;1.209523e-001
3.263103e+003;1.233578e-001
3.265032e+003;1.254686e-001
3.266960e+003;1.282470e-001
3.268889e+003;1.309761e-001
3.270817e+003;1.334176e-001
3.272746e+003;1.362020e-001
3.274675e+003;1.390544e-001
3.276603e+003;1.420584e-001
3.278531e+003;1.449634e-001
3.280460e+003;1.476406e-001
3.282389e+003;1.497365e-001
3.284317e+003;1.516239e-001
3.286246e+003;1.536827e-001
3.288174e+003;1.554838e-001
3.290103e+003;1.567286e-001
3.292031e+003;1.569778e-001
3.293960e+003;1.565984e-001
3.295888e+003;1.555851e-001
3.297817e+003;1.539065e-001
3.299746e+003;1.517204e-001
3.301674e+003;1.489548e-001
3.303603e+003;1.456988e-001
3.305531e+003;1.417488e-001
3.307460e+003;1.377950e-001
3.309388e+003;1.340539e-001
3.311317e+003;1.306063e-001
3.313245e+003;1.275611e-001
3.315174e+003;1.239198e-001
3.317103e+003;1.204605e-001
3.319031e+003;1.171490e-001
3.320960e+003;1.138560e-001
3.322888e+003;1.107089e-001
3.324817e+003;1.075445e-001
3.326745e+003;1.048148e-001
3.328674e+003;1.025497e-001
3.330602e+003;9.990315e-002
3.332531e+003;9.741772e-002
3.334459e+003;9.517502e-002
3.336388e+003;9.286904e-002
3.338317e+003;9.059585e-002
3.340245e+003;8.818772e-002
3.342174e+003;8.621771e-002
3.344102e+003;8.461162e-002
3.346031e+003;8.323603e-002
3.347959e+003;8.191283e-002
3.349888e+003;8.039129e-002
3.351816e+003;7.873209e-002
3.353745e+003;7.737817e-002
3.355674e+003;7.593906e-002
3.357602e+003;7.443819e-002
3.359531e+003;7.332335e-002
3.361459e+003;7.228971e-002
3.363388e+003;7.082707e-002
3.365316e+003;6.952286e-002
3.367245e+003;6.894236e-002
3.369173e+003;6.832843e-002
3.371102e+003;6.776223e-002
3.373031e+003;6.710627e-002
3.374959e+003;6.623072e-002
3.376887e+003;6.522643e-002
3.378816e+003;6.422814e-002
3.380745e+003;6.384270e-002
3.382673e+003;6.348441e-002
3.384602e+003;6.302319e-002
3.386530e+003;6.250859e-002
3.388459e+003;6.200557e-002
3.390387e+003;6.192566e-002
3.392316e+003;6.117655e-002
3.394244e+003;6.051933e-002
3.396173e+003;6.033529e-002
3.398102e+003;5.983941e-002
3.400030e+003;5.929594e-002
3.401959e+003;5.895424e-002
3.403887e+003;5.863136e-002
3.405816e+003;5.838436e-002
3.407744e+003;5.812931e-002
3.409673e+003;5.815674e-002
3.411601e+003;5.792572e-002
3.413530e+003;5.728209e-002
3.415458e+003;5.712508e-002
3.417387e+003;5.692286e-002
3.419316e+003;5.675072e-002
3.421244e+003;5.686179e-002
3.423173e+003;5.696865e-002
3.425101e+003;5.642989e-002
3.427030e+003;5.563550e-002
3.428958e+003;5.533449e-002
3.430887e+003;5.551500e-002
3.432815e+003;5.569629e-002
3.434744e+003;5.569440e-002
3.436673e+003;5.563226e-002
3.438601e+003;5.590189e-002
3.440530e+003;5.602028e-002
3.442458e+003;5.577434e-002
3.444387e+003;5.525900e-002
3.446315e+003;5.472464e-002
3.448244e+003;5.442873e-002
3.450172e+003;5.435967e-002
3.452101e+003;5.383542e-002
3.454030e+003;5.347862e-002
3.455958e+003;5.382327e-002
3.457886e+003;5.372205e-002
3.459815e+003;5.289289e-002
3.461744e+003;5.214595e-002
3.463672e+003;5.218209e-002
3.465601e+003;5.220787e-002
3.467529e+003;5.200389e-002
3.469458e+003;5.177919e-002
3.471386e+003;5.126595e-002
3.473315e+003;5.079607e-002
3.475243e+003;5.075648e-002
3.477172e+003;5.049073e-002
3.479101e+003;5.045459e-002
3.481029e+003;5.043747e-002
3.482958e+003;5.045820e-002
3.484886e+003;5.040893e-002
3.486815e+003;5.003793e-002
3.488743e+003;4.965830e-002
3.490672e+003;4.947019e-002
3.492600e+003;4.921925e-002
3.494529e+003;4.895793e-002
3.496458e+003;4.902336e-002
3.498386e+003;4.922460e-002
3.500315e+003;4.909169e-002
3.502243e+003;4.869943e-002
3.504172e+003;4.856875e-002
3.506100e+003;4.846964e-002
3.508029e+003;4.811670e-002
3.509957e+003;4.796274e-002
3.511886e+003;4.766973e-002
3.513814e+003;4.717170e-002
3.515743e+003;4.672081e-002
3.517672e+003;4.642949e-002
3.519600e+003;4.633798e-002
3.521529e+003;4.615709e-002
3.523457e+003;4.583702e-002
3.525386e+003;4.565773e-002
3.527314e+003;4.537202e-002
3.529243e+003;4.500262e-002
3.531171e+003;4.459307e-002
3.533100e+003;4.442548e-002
3.535029e+003;4.438038e-002
3.536957e+003;4.406936e-002
3.538885e+003;4.382017e-002
3.540814e+003;4.342432e-002
3.542743e+003;4.268453e-002
3.544671e+003;4.199380e-002
3.546600e+003;4.168558e-002
3.548528e+003;4.177305e-002
3.550457e+003;4.164364e-002
3.552385e+003;4.115279e-002
3.554314e+003;4.094022e-002
3.556242e+003;4.081444e-002
3.558171e+003;4.026993e-002
3.560100e+003;3.980311e-002
3.562028e+003;3.929700e-002
3.563957e+003;3.841063e-002
3.565885e+003;3.701830e-002
3.567814e+003;3.638288e-002
3.569742e+003;3.680542e-002
3.571671e+003;3.694664e-002
3.573599e+003;3.678444e-002
3.575528e+003;3.631717e-002
3.577457e+003;3.610673e-002
3.579385e+003;3.571761e-002
3.581314e+003;3.523574e-002
3.583242e+003;3.497490e-002
3.585171e+003;3.376092e-002
3.587099e+003;3.243416e-002
3.589028e+003;3.278755e-002
3.590956e+003;3.367197e-002
3.592885e+003;3.317538e-002
3.594813e+003;3.218402e-002
3.596742e+003;3.220475e-002
3.598671e+003;3.244415e-002
3.600599e+003;3.192896e-002
3.602528e+003;3.139989e-002
3.604456e+003;3.090358e-002
3.606385e+003;3.014373e-002
3.608313e+003;2.909559e-002
3.610242e+003;2.903494e-002
3.612170e+003;2.924034e-002
3.614099e+003;2.939164e-002
3.616028e+003;2.891763e-002
3.617956e+003;2.743113e-002
3.619885e+003;2.692217e-002
3.621813e+003;2.798819e-002
3.623742e+003;2.841427e-002
3.625670e+003;2.686665e-002
3.627599e+003;2.368334e-002
3.629527e+003;2.330505e-002
3.631456e+003;2.577510e-002
3.633385e+003;2.637539e-002
3.635313e+003;2.629709e-002
3.637241e+003;2.640809e-002
3.639170e+003;2.618917e-002
3.641099e+003;2.591577e-002
3.643027e+003;2.570880e-002
3.644956e+003;2.443532e-002
3.646884e+003;2.194501e-002
3.648813e+003;2.056274e-002
3.650741e+003;2.183959e-002
3.652670e+003;2.367733e-002
3.654598e+003;2.309006e-002
3.656527e+003;2.247793e-002
3.658456e+003;2.372026e-002
3.660384e+003;2.411325e-002
3.662313e+003;2.406029e-002
3.664241e+003;2.425933e-002
3.666170e+003;2.362936e-002
3.668098e+003;2.136501e-002
3.670027e+003;2.000759e-002
3.671955e+003;2.118115e-002
3.673884e+003;1.967467e-002
3.675813e+003;1.888959e-002
3.677741e+003;2.120633e-002
3.679669e+003;2.209716e-002
3.681598e+003;2.203723e-002
3.683527e+003;2.154639e-002
3.685455e+003;2.080867e-002
3.687384e+003;1.797672e-002
3.689312e+003;1.720798e-002
3.691241e+003;1.914877e-002
3.693169e+003;2.047315e-002
3.695098e+003;2.088087e-002
3.697026e+003;2.089405e-002
3.698955e+003;2.020197e-002
3.700884e+003;1.931821e-002
3.702812e+003;1.936747e-002
3.704741e+003;1.969568e-002
3.706669e+003;1.925572e-002
3.708598e+003;1.794209e-002
3.710526e+003;1.638808e-002
3.712455e+003;1.630331e-002
3.714383e+003;1.828166e-002
3.716312e+003;1.927220e-002
3.718240e+003;1.929188e-002
3.720169e+003;1.867750e-002
3.722098e+003;1.834370e-002
3.724026e+003;1.840526e-002
3.725955e+003;1.837322e-002
3.727883e+003;1.908773e-002
3.729812e+003;1.850856e-002
3.731740e+003;1.638760e-002
3.733669e+003;1.602327e-002
3.735597e+003;1.582137e-002
3.737526e+003;1.686748e-002
3.739455e+003;1.821507e-002
3.741383e+003;1.759256e-002
3.743312e+003;1.368928e-002
3.745240e+003;1.432502e-002
3.747169e+003;1.674573e-002
3.749097e+003;1.507595e-002
3.751026e+003;1.445723e-002
3.752954e+003;1.682308e-002
3.754883e+003;1.926510e-002
3.756812e+003;1.915061e-002
3.758740e+003;1.859422e-002
3.760668e+003;1.862331e-002
3.762597e+003;1.944466e-002
3.764526e+003;1.914230e-002
3.766454e+003;1.908074e-002
3.768383e+003;1.855787e-002
3.770311e+003;1.906121e-002
3.772240e+003;1.999024e-002
3.774168e+003;1.967904e-002
3.776097e+003;1.895487e-002
3.778025e+003;1.860007e-002
3.779954e+003;1.903431e-002
3.781883e+003;2.008268e-002
3.783811e+003;2.027789e-002
3.785740e+003;2.000412e-002
3.787668e+003;1.934970e-002
3.789597e+003;1.944276e-002
3.791525e+003;1.951983e-002
3.793454e+003;1.972418e-002
3.795382e+003;1.920373e-002
3.797311e+003;1.890309e-002
3.799240e+003;1.735000e-002
3.801168e+003;1.578955e-002
3.803097e+003;1.782404e-002
3.805025e+003;1.827793e-002
3.806954e+003;1.788791e-002
3.808882e+003;1.956069e-002
3.810811e+003;2.036636e-002
3.812739e+003;1.987285e-002
3.814668e+003;1.831270e-002
3.816596e+003;1.844827e-002
3.818525e+003;1.881398e-002
3.820454e+003;1.741535e-002
3.822382e+003;1.858347e-002
3.824311e+003;2.007508e-002
3.826239e+003;1.985520e-002
3.828168e+003;1.996176e-002
3.830096e+003;2.000520e-002
3.832025e+003;2.012672e-002
3.833953e+003;1.970047e-002
3.835882e+003;1.809833e-002
3.837811e+003;1.765457e-002
3.839739e+003;1.910999e-002
3.841667e+003;1.990980e-002
3.843596e+003;2.055617e-002
3.845525e+003;2.150993e-002
3.847453e+003;2.172358e-002
3.849382e+003;2.058223e-002
3.851310e+003;1.706263e-002
3.853239e+003;1.372966e-002
3.855167e+003;1.699915e-002
3.857096e+003;2.092937e-002
3.859024e+003;2.125376e-002
3.860953e+003;2.075792e-002
3.862882e+003;2.018562e-002
3.864810e+003;2.001245e-002
3.866739e+003;2.000291e-002
3.868667e+003;1.851800e-002
3.870596e+003;1.915726e-002
3.872524e+003;2.007262e-002
3.874453e+003;1.987892e-002
3.876381e+003;2.088609e-002
3.878310e+003;2.123789e-002
3.880239e+003;2.105011e-002
3.882167e+003;2.148100e-002
3.884096e+003;2.095427e-002
3.886024e+003;2.094439e-002
3.887953e+003;2.224019e-002
3.889881e+003;2.182329e-002
3.891810e+003;2.154778e-002
3.893738e+003;2.271437e-002
3.895667e+003;2.323586e-002
3.897595e+003;2.186831e-002
3.899524e+003;2.034518e-002
3.901453e+003;1.992201e-002
3.903381e+003;2.032796e-002
3.905310e+003;2.226178e-002
3.907238e+003;2.369948e-002
3.909167e+003;2.376586e-002
3.911095e+003;2.397947e-002
3.913024e+003;2.388410e-002
3.914952e+003;2.328547e-002
3.916881e+003;2.273839e-002
3.918810e+003;2.264472e-002
3.920738e+003;2.320804e-002
3.922667e+003;2.363128e-002
3.924595e+003;2.319574e-002
3.926524e+003;2.273483e-002
3.928452e+003;2.294838e-002
3.930381e+003;2.317666e-002
3.932309e+003;2.316477e-002
3.934238e+003;2.379547e-002
3.936167e+003;2.443722e-002
3.938095e+003;2.489127e-002
3.940023e+003;2.474087e-002
3.941952e+003;2.441377e-002
3.943881e+003;2.486113e-002
3.945809e+003;2.465922e-002
3.947738e+003;2.447164e-002
3.949666e+003;2.486527e-002
3.951595e+003;2.517270e-002
3.953523e+003;2.587708e-002
3.955452e+003;2.604335e-002
3.957380e+003;2.575675e-002
3.959309e+003;2.591876e-002
3.961238e+003;2.597504e-002
3.963166e+003;2.628128e-002
3.965095e+003;2.670792e-002
3.967023e+003;2.689069e-002
3.968952e+003;2.681617e-002
3.970880e+003;2.634176e-002
3.972809e+003;2.607945e-002
3.974737e+003;2.607456e-002
3.976666e+003;2.671348e-002
3.978594e+003;2.696715e-002
3.980523e+003;2.668790e-002
3.982452e+003;2.632395e-002
3.984380e+003;2.649064e-002
3.986309e+003;2.718707e-002
3.988237e+003;2.740738e-002
3.990166e+003;2.740590e-002
3.992094e+003;2.802247e-002
3.994023e+003;2.842708e-002
3.995951e+003;2.847565e-002
3.997880e+003;2.845036e-002
3.999809e+003;2.841986e-002
4.001737e+003;0.000000e+000
