3.992094e+002;0.000000e+000
4.011380e+002;0.000000e+000
4.030665e+002;0.000000e+000
4.049951e+002;0.000000e+000
4.069236e+002;0.000000e+000
4.088522e+002;0.000000e+000
4.107807e+002;0.000000e+000
4.127093e+002;0.000000e+000
4.146378e+002;0.000000e+000
4.165664e+002;0.000000e+000
4.184949e+002;0.000000e+000
4.204235e+002;0.000000e+000
4.223520e+002;0.000000e+000
4.242806e+002;0.000000e+000
4.262091e+002;0.000000e+000
4.281377e+002;0.000000e+000
4.300662e+002;0.000000e+000
4.319948e+002;0.000000e+000
4.339233e+002;0.000000e+000
4.358519e+002;0.000000e+000
4.377804e+002;0.000000e+000
4.397090e+002;0.000000e+000
4.416375e+002;0.000000e+000
4.435660e+002;0.000000e+000
4.454946e+002;0.000000e+000
4.474232e+002;0.000000e+000
4.493517e+002;0.000000e+000
4.512802e+002;0.000000e+000
4.532088e+002;0.000000e+000
4.551373e+002;0.000000e+000
4.570659e+002;0.000000e+000
4.589944e+002;0.000000e+000
4.609230e+002;0.000000e+000
4.628515e+002;0.000000e+000
4.647801e+002;0.000000e+000
4.667086e+002;0.000000e+000
4.686372e+002;0.000000e+000
4.705657e+002;0.000000e+000
4.724943e+002;0.000000e+000
4.744228e+002;0.000000e+000
4.763513e+002;0.000000e+000
4.782799e+002;0.000000e+000
4.802085e+002;0.000000e+000
4.821370e+002;0.000000e+000
4.840656e+002;0.000000e+000
4.859941e+002;0.000000e+000
4.879226e+002;0.000000e+000
4.898512e+002;0.000000e+000
4.917798e+002;0.000000e+000
4.937083e+002;0.000000e+000
4.956368e+002;0.000000e+000
4.975654e+002;0.000000e+000
4.994939e+002;0.000000e+000
5.014225e+002;0.000000e+000
5.033510e+002;0.000000e+000
5.052796e+002;0.000000e+000
5.072081e+002;0.000000e+000
5.091367e+002;0.000000e+000
5.110652e+002;0.000000e+000
5.129938e+002;0.000000e+000
5.149223e+002;0.000000e+000
5.168509e+002;0.000000e+000
5.187794e+002;0.000000e+000
5.207079e+002;0.000000e+000
5.226365e+002;0.000000e+000
5.245651e+002;0.000000e+000
5.264936e+002;0.000000e+000
5.284222e+002;0.000000e+000
5.303507e+002;0.000000e+000
5.322792e+002;0.000000e+000
5.342078e+002;0.000000e+000
5.361364e+002;0.000000e+000
5.380649e+002;0.000000e+000
5.399935e+002;0.000000e+000
5.419220e+002;0.000000e+000
5.438505e+002;0.000000e+000
5.457791e+002;0.000000e+000
5.477076e+002;0.000000e+000
5.496362e+002;0.000000e+000
5.515648e+002;0.000000e+000
5.534933e+002;0.000000e+000
5.554218e+002;0.000000e+000
5.573504e+002;0.000000e+000
5.592789e+002;0.000000e+000
5.612075e+002;0.000000e+000
5.631360e+002;0.000000e+000
5.650646e+002;0.000000e+000
5.669931e+002;0.000000e+000
5.689217e+002;0.000000e+000
5.708502e+002;0.000000e+000
5.727787e+002;0.000000e+000
5.747073e+002;0.000000e+000
5.766359e+002;0.000000e+000
5.785644e+002;0.000000e+000
5.804930e+002;0.000000e+000
5.824215e+002;0.000000e+000
5.843500e+002;0.000000e+000
5.862786e+002;0.000000e+000
5.882072e+002;0.000000e+000
5.901357e+002;0.000000e+000
5.920643e+002;0.000000e+000
5.939928e+002;0.000000e+000
5.959213e+002;0.000000e+000
5.978499e+002;0.000000e+000
5.997784e+002;1.735726e-001
6.017070e+002;1.660562e-001
6.036355e+002;1.634651e-001
6.055641e+002;1.640265e-001
6.074926e+002;1.639478e-001
6.094211e+002;1.671828e-001
6.113497e+002;1.661417e-001
6.132783e+002;1.626559e-001
6.152068e+002;1.636278e-001
6.171354e+002;1.598505e-001
6.190639e+002;1.604199e-001
6.209924e+002;1.661759e-001
6.229210e+002;1.639986e-001
6.248495e+002;1.614511e-001
6.267781e+002;1.651635e-001
6.287067e+002;1.664639e-001
6.306352e+002;1.656618e-001
6.325637e+002;1.681404e-001
6.344923e+002;1.745770e-001
6.364208e+002;1.776142e-001
6.383494e+002;1.743104e-001
6.402780e+002;1.721860e-001
6.422065e+002;1.722537e-001
6.441350e+002;1.749755e-001
6.460636e+002;1.794671e-001
6.479921e+002;1.800478e-001
6.499207e+002;1.810651e-001
6.518492e+002;1.832060e-001
6.537778e+002;1.857727e-001
6.557063e+002;1.887868e-001
6.576349e+002;1.907812e-001
6.595634e+002;1.918511e-001
6.614919e+002;1.939179e-001
6.634205e+002;1.983940e-001
6.653491e+002;2.027379e-001
6.672776e+002;2.055942e-001
6.692062e+002;2.061604e-001
6.711347e+002;2.072644e-001
6.730632e+002;2.108318e-001
6.749918e+002;2.137049e-001
6.769203e+002;2.143810e-001
6.788489e+002;2.141586e-001
6.807775e+002;2.138725e-001
6.827060e+002;2.142656e-001
6.846345e+002;2.149223e-001
6.865631e+002;2.145461e-001
6.884916e+002;2.138665e-001
6.904202e+002;2.112133e-001
6.923488e+002;2.076618e-001
6.942773e+002;2.048424e-001
6.962058e+002;2.037905e-001
6.981344e+002;2.021441e-001
7.000629e+002;1.993637e-001
7.019915e+002;1.967751e-001
7.039200e+002;1.938421e-001
7.058486e+002;1.915717e-001
7.077771e+002;1.909827e-001
7.097057e+002;1.902970e-001
7.116342e+002;1.883220e-001
7.135627e+002;1.866808e-001
7.154913e+002;1.851700e-001
7.174199e+002;1.832989e-001
7.193484e+002;1.823543e-001
7.212770e+002;1.831239e-001
7.232055e+002;1.839775e-001
7.251340e+002;1.839358e-001
7.270626e+002;1.829744e-001
7.289911e+002;1.809516e-001
7.309197e+002;1.760001e-001
7.328483e+002;1.691124e-001
7.347768e+002;1.630058e-001
7.367053e+002;1.564533e-001
7.386339e+002;1.514101e-001
7.405624e+002;1.474934e-001
7.424910e+002;1.438370e-001
7.444196e+002;1.418511e-001
7.463481e+002;1.395971e-001
7.482766e+002;1.365181e-001
7.502052e+002;1.347584e-001
7.521337e+002;1.338751e-001
7.540623e+002;1.318834e-001
7.559908e+002;1.290679e-001
7.579194e+002;1.265302e-001
7.598479e+002;1.244781e-001
7.617765e+002;1.232578e-001
7.637050e+002;1.218891e-001
7.656335e+002;1.207060e-001
7.675621e+002;1.194571e-001
7.694907e+002;1.186262e-001
7.714192e+002;1.183425e-001
7.733478e+002;1.169703e-001
7.752763e+002;1.145437e-001
7.772048e+002;1.130107e-001
7.791334e+002;1.126125e-001
7.810620e+002;1.117903e-001
7.829905e+002;1.098196e-001
7.849191e+002;1.082457e-001
7.868476e+002;1.067545e-001
7.887761e+002;1.054662e-001
7.907047e+002;1.043371e-001
7.926332e+002;1.029545e-001
7.945618e+002;1.009697e-001
7.964903e+002;9.888007e-002
7.984189e+002;9.726196e-002
8.003474e+002;9.635020e-002
8.022759e+002;9.564349e-002
8.042045e+002;9.451417e-002
8.061331e+002;9.343095e-002
8.080616e+002;9.200700e-002
8.099902e+002;9.051679e-002
8.119187e+002;8.940526e-002
8.138472e+002;8.802015e-002
8.157758e+002;8.679026e-002
8.177043e+002;8.669817e-002
8.196329e+002;8.729355e-002
8.215615e+002;8.741201e-002
8.234900e+002;8.715422e-002
8.254185e+002;8.757579e-002
8.273471e+002;8.958580e-002
8.292756e+002;9.141310e-002
8.312042e+002;9.202415e-002
8.331328e+002;9.168952e-002
8.350613e+002;8.991869e-002
8.369898e+002;8.709788e-002
8.389184e+002;8.469803e-002
8.408469e+002;8.276186e-002
8.427755e+002;8.138643e-002
8.447040e+002;7.990373e-002
8.466326e+002;7.790821e-002
8.485611e+002;7.688049e-002
8.504897e+002;7.638718e-002
8.524182e+002;7.621090e-002
8.543467e+002;7.580344e-002
8.562753e+002;7.543751e-002
8.582039e+002;7.542407e-002
8.601324e+002;7.558054e-002
8.620610e+002;7.552030e-002
8.639895e+002;7.546917e-002
8.659180e+002;7.577433e-002
8.678466e+002;7.586144e-002
8.697751e+002;7.602822e-002
8.717037e+002;7.578608e-002
8.736323e+002;7.578561e-002
8.755608e+002;7.633049e-002
8.774893e+002;7.659851e-002
8.794179e+002;7.627879e-002
8.813464e+002;7.656049e-002
8.832750e+002;7.725488e-002
8.852036e+002;7.770718e-002
8.871321e+002;7.757936e-002
8.890606e+002;7.724978e-002
8.909892e+002;7.705151e-002
8.929177e+002;7.718985e-002
8.948463e+002;7.790198e-002
8.967748e+002;7.841155e-002
8.987034e+002;7.843310e-002
9.006319e+002;7.871239e-002
9.025605e+002;7.944731e-002
9.044890e+002;8.011822e-002
9.064175e+002;8.002773e-002
9.083461e+002;7.994862e-002
9.102747e+002;8.072143e-002
9.122032e+002;8.174029e-002
9.141318e+002;8.263520e-002
9.160603e+002;8.347220e-002
9.179888e+002;8.429323e-002
9.199174e+002;8.527821e-002
9.218459e+002;8.639361e-002
9.237745e+002;8.799218e-002
9.257031e+002;8.954003e-002
9.276316e+002;9.046713e-002
9.295601e+002;9.076292e-002
9.314887e+002;9.038450e-002
9.334172e+002;8.950990e-002
9.353458e+002;8.838924e-002
9.372744e+002;8.750944e-002
9.392029e+002;8.697890e-002
9.411314e+002;8.703832e-002
9.430600e+002;8.788520e-002
9.449885e+002;8.900586e-002
9.469171e+002;9.056459e-002
9.488456e+002;9.252396e-002
9.507742e+002;9.404305e-002
9.527027e+002;9.497602e-002
9.546313e+002;9.583110e-002
9.565598e+002;9.656075e-002
9.584883e+002;9.700876e-002
9.604169e+002;9.668513e-002
9.623455e+002;9.562499e-002
9.642740e+002;9.431300e-002
9.662026e+002;9.336127e-002
9.681311e+002;9.285402e-002
9.700596e+002;9.252191e-002
9.719882e+002;9.203976e-002
9.739167e+002;9.129034e-002
9.758453e+002;9.041987e-002
9.777739e+002;8.973838e-002
9.797024e+002;8.912821e-002
9.816309e+002;8.836105e-002
9.835595e+002;8.787470e-002
9.854880e+002;8.726154e-002
9.874166e+002;8.616457e-002
9.893452e+002;8.575913e-002
9.912737e+002;8.521697e-002
9.932022e+002;8.419637e-002
9.951307e+002;8.354396e-002
9.970593e+002;8.322102e-002
9.989879e+002;8.266963e-002
1.000916e+003;8.255713e-002
1.002845e+003;8.220121e-002
1.004773e+003;8.168066e-002
1.006702e+003;8.160333e-002
1.008631e+003;8.197893e-002
1.010559e+003;8.234356e-002
1.012488e+003;8.267748e-002
1.014416e+003;8.297504e-002
1.016345e+003;8.302739e-002
1.018273e+003;8.316468e-002
1.020202e+003;8.379011e-002
1.022130e+003;8.483255e-002
1.024059e+003;8.581621e-002
1.025988e+003;8.689661e-002
1.027916e+003;8.751621e-002
1.029845e+003;8.795746e-002
1.031773e+003;8.757478e-002
1.033702e+003;8.607500e-002
1.035630e+003;8.525104e-002
1.037559e+003;8.491457e-002
1.039487e+003;8.430386e-002
1.041416e+003;8.375045e-002
1.043344e+003;8.383299e-002
1.045273e+003;8.496989e-002
1.047202e+003;8.613669e-002
1.049130e+003;8.637020e-002
1.051059e+003;8.679119e-002
1.052987e+003;8.752634e-002
1.054916e+003;8.837689e-002
1.056844e+003;8.995061e-002
1.058773e+003;9.188166e-002
1.060701e+003;9.364914e-002
1.062630e+003;9.513979e-002
1.064558e+003;9.657127e-002
1.066487e+003;9.730586e-002
1.068416e+003;9.771355e-002
1.070344e+003;9.834717e-002
1.072273e+003;9.899417e-002
1.074201e+003;9.957336e-002
1.076130e+003;9.939450e-002
1.078058e+003;9.836999e-002
1.079987e+003;9.768052e-002
1.081915e+003;9.663989e-002
1.083844e+003;9.578136e-002
1.085773e+003;9.479360e-002
1.087701e+003;9.407897e-002
1.089630e+003;9.323847e-002
1.091558e+003;9.293260e-002
1.093487e+003;9.405045e-002
1.095415e+003;9.511699e-002
1.097344e+003;9.612446e-002
1.099272e+003;9.682089e-002
1.101201e+003;9.820213e-002
1.103129e+003;1.011858e-001
1.105058e+003;1.036246e-001
1.106987e+003;1.049463e-001
1.108915e+003;1.059630e-001
1.110844e+003;1.068856e-001
1.112772e+003;1.073592e-001
1.114701e+003;1.078884e-001
1.116629e+003;1.080600e-001
1.118558e+003;1.068845e-001
1.120486e+003;1.055812e-001
1.122415e+003;1.038411e-001
1.124344e+003;1.008290e-001
1.126272e+003;9.733931e-002
1.128201e+003;9.380287e-002
1.130129e+003;9.074923e-002
1.132058e+003;8.841950e-002
1.133986e+003;8.709910e-002
1.135915e+003;8.659688e-002
1.137843e+003;8.698419e-002
1.139772e+003;8.788224e-002
1.141700e+003;8.897255e-002
1.143629e+003;9.033611e-002
1.145557e+003;9.209710e-002
1.147486e+003;9.419367e-002
1.149415e+003;9.655777e-002
1.151343e+003;9.914485e-002
1.153272e+003;1.022393e-001
1.155200e+003;1.061013e-001
1.157129e+003;1.106583e-001
1.159057e+003;1.156079e-001
1.160986e+003;1.211345e-001
1.162914e+003;1.276158e-001
1.164843e+003;1.339769e-001
1.166771e+003;1.387646e-001
1.168700e+003;1.410449e-001
1.170629e+003;1.400234e-001
1.172557e+003;1.365981e-001
1.174486e+003;1.320303e-001
1.176414e+003;1.269536e-001
1.178343e+003;1.224292e-001
1.180271e+003;1.196328e-001
1.182200e+003;1.183053e-001
1.184128e+003;1.185214e-001
1.186057e+003;1.200642e-001
1.187986e+003;1.227582e-001
1.189914e+003;1.266420e-001
1.191843e+003;1.309766e-001
1.193771e+003;1.356661e-001
1.195700e+003;1.409958e-001
1.197628e+003;1.458910e-001
1.199557e+003;1.486396e-001
1.201485e+003;1.481377e-001
1.203414e+003;1.450103e-001
1.205343e+003;1.416189e-001
1.207271e+003;1.391138e-001
1.209200e+003;1.378634e-001
1.211128e+003;1.368246e-001
1.213057e+003;1.355068e-001
1.214985e+003;1.333777e-001
1.216914e+003;1.304116e-001
1.218842e+003;1.274691e-001
1.220771e+003;1.256619e-001
1.222699e+003;1.256455e-001
1.224628e+003;1.275290e-001
1.226557e+003;1.309923e-001
1.228485e+003;1.351832e-001
1.230414e+003;1.395018e-001
1.232342e+003;1.436334e-001
1.234271e+003;1.473526e-001
1.236199e+003;1.500885e-001
1.238128e+003;1.514141e-001
1.240056e+003;1.518813e-001
1.241985e+003;1.517892e-001
1.243913e+003;1.513962e-001
1.245842e+003;1.517376e-001
1.247771e+003;1.532357e-001
1.249699e+003;1.553560e-001
1.251628e+003;1.582573e-001
1.253556e+003;1.618728e-001
1.255485e+003;1.648953e-001
1.257413e+003;1.671956e-001
1.259342e+003;1.694693e-001
1.261270e+003;1.707159e-001
1.263199e+003;1.697040e-001
1.265127e+003;1.656335e-001
1.267056e+003;1.593606e-001
1.268985e+003;1.531402e-001
1.270913e+003;1.486780e-001
1.272842e+003;1.461888e-001
1.274770e+003;1.452682e-001
1.276699e+003;1.452754e-001
1.278627e+003;1.449479e-001
1.280556e+003;1.439360e-001
1.282484e+003;1.425269e-001
1.284413e+003;1.409151e-001
1.286342e+003;1.396761e-001
1.288270e+003;1.389451e-001
1.290199e+003;1.382277e-001
1.292127e+003;1.372048e-001
1.294056e+003;1.363042e-001
1.295984e+003;1.359938e-001
1.297913e+003;1.359045e-001
1.299841e+003;1.353289e-001
1.301770e+003;1.346429e-001
1.303698e+003;1.339430e-001
1.305627e+003;1.331122e-001
1.307556e+003;1.323287e-001
1.309484e+003;1.315763e-001
1.311413e+003;1.309186e-001
1.313341e+003;1.300245e-001
1.315270e+003;1.288961e-001
1.317198e+003;1.276956e-001
1.319127e+003;1.267847e-001
1.321055e+003;1.262442e-001
1.322984e+003;1.259135e-001
1.324912e+003;1.257262e-001
1.326841e+003;1.257520e-001
1.328770e+003;1.259243e-001
1.330698e+003;1.262234e-001
1.332627e+003;1.266358e-001
1.334555e+003;1.272789e-001
1.336484e+003;1.277711e-001
1.338412e+003;1.280719e-001
1.340341e+003;1.287132e-001
1.342269e+003;1.298829e-001
1.344198e+003;1.309214e-001
1.346126e+003;1.319240e-001
1.348055e+003;1.329563e-001
1.349984e+003;1.343254e-001
1.351912e+003;1.360210e-001
1.353841e+003;1.379781e-001
1.355769e+003;1.399550e-001
1.357698e+003;1.418094e-001
1.359626e+003;1.433393e-001
1.361555e+003;1.447201e-001
1.363483e+003;1.466580e-001
1.365412e+003;1.489217e-001
1.367341e+003;1.511433e-001
1.369269e+003;1.532977e-001
1.371198e+003;1.544744e-001
1.373126e+003;1.542937e-001
1.375055e+003;1.531377e-001
1.376983e+003;1.510969e-001
1.378912e+003;1.480560e-001
1.380840e+003;1.443632e-001
1.382769e+003;1.403655e-001
1.384698e+003;1.366956e-001
1.386626e+003;1.334847e-001
1.388555e+003;1.304283e-001
1.390483e+003;1.278557e-001
1.392412e+003;1.262064e-001
1.394340e+003;1.253006e-001
1.396269e+003;1.252968e-001
1.398197e+003;1.257999e-001
1.400126e+003;1.275391e-001
1.402054e+003;1.304201e-001
1.403983e+003;1.343603e-001
1.405911e+003;1.395500e-001
1.407840e+003;1.456947e-001
1.409769e+003;1.529597e-001
1.411697e+003;1.605790e-001
1.413626e+003;1.671239e-001
1.415554e+003;1.711700e-001
1.417483e+003;1.716509e-001
1.419411e+003;1.690338e-001
1.421340e+003;1.655471e-001
1.423268e+003;1.619541e-001
1.425197e+003;1.594955e-001
1.427125e+003;1.590315e-001
1.429054e+003;1.603181e-001
1.430983e+003;1.627178e-001
1.432911e+003;1.649279e-001
1.434840e+003;1.656021e-001
1.436768e+003;1.652579e-001
1.438697e+003;1.651179e-001
1.440625e+003;1.642927e-001
1.442554e+003;1.632567e-001
1.444482e+003;1.624838e-001
1.446411e+003;1.624574e-001
1.448340e+003;1.639968e-001
1.450268e+003;1.668371e-001
1.452197e+003;1.696075e-001
1.454125e+003;1.719411e-001
1.456054e+003;1.744084e-001
1.457982e+003;1.792904e-001
1.459911e+003;1.856896e-001
1.461839e+003;1.897553e-001
1.463768e+003;1.882351e-001
1.465697e+003;1.814702e-001
1.467625e+003;1.732230e-001
1.469554e+003;1.667487e-001
1.471482e+003;1.633374e-001
1.473411e+003;1.628819e-001
1.475339e+003;1.633302e-001
1.477268e+003;1.620248e-001
1.479196e+003;1.585781e-001
1.481125e+003;1.529378e-001
1.483053e+003;1.461503e-001
1.484982e+003;1.399823e-001
1.486911e+003;1.360115e-001
1.488839e+003;1.347102e-001
1.490768e+003;1.357955e-001
1.492696e+003;1.384973e-001
1.494625e+003;1.419431e-001
1.496553e+003;1.458788e-001
1.498482e+003;1.507287e-001
1.500410e+003;1.565360e-001
1.502339e+003;1.623924e-001
1.504267e+003;1.678137e-001
1.506196e+003;1.736366e-001
1.508125e+003;1.811166e-001
1.510053e+003;1.895438e-001
1.511982e+003;1.978964e-001
1.513910e+003;2.060996e-001
1.515839e+003;2.139565e-001
1.517767e+003;2.220348e-001
1.519696e+003;2.307011e-001
1.521624e+003;2.403684e-001
1.523553e+003;2.509202e-001
1.525481e+003;2.612814e-001
1.527410e+003;2.717264e-001
1.529339e+003;2.822375e-001
1.531267e+003;2.917002e-001
1.533196e+003;2.996543e-001
1.535124e+003;3.068318e-001
1.537053e+003;3.113154e-001
1.538981e+003;3.119917e-001
1.540910e+003;3.103812e-001
1.542838e+003;3.067209e-001
1.544767e+003;2.997730e-001
1.546695e+003;2.898857e-001
1.548624e+003;2.780556e-001
1.550553e+003;2.654871e-001
1.552481e+003;2.532744e-001
1.554410e+003;2.412988e-001
1.556338e+003;2.295898e-001
1.558267e+003;2.176718e-001
1.560195e+003;2.075451e-001
1.562124e+003;1.990371e-001
1.564052e+003;1.899888e-001
1.565981e+003;1.811336e-001
1.567910e+003;1.727122e-001
1.569838e+003;1.643817e-001
1.571767e+003;1.573125e-001
1.573695e+003;1.508262e-001
1.575624e+003;1.444101e-001
1.577552e+003;1.397371e-001
1.579481e+003;1.362690e-001
1.581409e+003;1.330306e-001
1.583338e+003;1.306294e-001
1.585266e+003;1.295469e-001
1.587195e+003;1.295380e-001
1.589124e+003;1.300642e-001
1.591052e+003;1.310944e-001
1.592981e+003;1.330945e-001
1.594909e+003;1.361624e-001
1.596838e+003;1.399239e-001
1.598766e+003;1.450570e-001
1.600695e+003;1.514564e-001
1.602623e+003;1.587799e-001
1.604552e+003;1.674775e-001
1.606480e+003;1.770437e-001
1.608409e+003;1.872496e-001
1.610338e+003;1.982471e-001
1.612266e+003;2.100211e-001
1.614195e+003;2.230839e-001
1.616123e+003;2.375408e-001
1.618052e+003;2.544277e-001
1.619980e+003;2.725310e-001
1.621909e+003;2.905002e-001
1.623837e+003;3.083142e-001
1.625766e+003;3.256601e-001
1.627694e+003;3.426733e-001
1.629623e+003;3.595334e-001
1.631552e+003;3.753604e-001
1.633480e+003;3.868229e-001
1.635409e+003;3.904275e-001
1.637337e+003;3.864771e-001
1.639266e+003;3.741733e-001
1.641194e+003;3.548948e-001
1.643123e+003;3.326754e-001
1.645051e+003;3.096783e-001
1.646980e+003;2.880565e-001
1.648909e+003;2.692829e-001
1.650837e+003;2.516698e-001
1.652766e+003;2.349062e-001
1.654694e+003;2.222467e-001
1.656623e+003;2.123038e-001
1.658551e+003;2.022927e-001
1.660480e+003;1.923945e-001
1.662408e+003;1.822183e-001
1.664337e+003;1.724932e-001
1.666266e+003;1.630359e-001
1.668194e+003;1.533584e-001
1.670123e+003;1.442233e-001
1.672051e+003;1.364303e-001
1.673980e+003;1.286363e-001
1.675908e+003;1.208619e-001
1.677837e+003;1.134966e-001
1.679765e+003;1.056053e-001
1.681694e+003;9.736925e-002
1.683622e+003;8.930212e-002
1.685551e+003;8.330812e-002
1.687479e+003;7.878957e-002
1.689408e+003;7.419721e-002
1.691337e+003;7.053757e-002
1.693265e+003;6.752222e-002
1.695194e+003;6.446081e-002
1.697122e+003;6.263932e-002
1.699051e+003;6.114302e-002
1.700979e+003;6.000552e-002
1.702908e+003;6.020791e-002
1.704836e+003;5.987398e-002
1.706765e+003;5.956991e-002
1.708693e+003;5.944747e-002
1.710622e+003;5.921470e-002
1.712551e+003;5.863814e-002
1.714479e+003;5.780481e-002
1.716408e+003;5.698429e-002
1.718336e+003;5.705256e-002
1.720265e+003;5.774122e-002
1.722193e+003;5.789979e-002
1.724122e+003;5.775511e-002
1.726050e+003;5.739802e-002
1.727979e+003;5.689136e-002
1.729908e+003;5.648483e-002
1.731836e+003;5.559513e-002
1.733765e+003;5.454943e-002
1.735693e+003;5.469612e-002
1.737622e+003;5.473415e-002
1.739550e+003;5.412883e-002
1.741479e+003;5.361977e-002
1.743407e+003;5.280244e-002
1.745336e+003;5.186106e-002
1.747265e+003;5.092768e-002
1.749193e+003;4.989805e-002
1.751122e+003;4.883233e-002
1.753050e+003;4.801000e-002
1.754979e+003;4.691670e-002
1.756907e+003;4.595859e-002
1.758836e+003;4.531806e-002
1.760764e+003;4.430556e-002
1.762693e+003;4.336592e-002
1.764621e+003;4.286413e-002
1.766550e+003;4.198015e-002
1.768479e+003;4.107412e-002
1.770407e+003;4.022104e-002
1.772336e+003;3.931010e-002
1.774264e+003;3.900736e-002
1.776193e+003;3.899562e-002
1.778121e+003;3.852803e-002
1.780050e+003;3.803704e-002
1.781978e+003;3.772904e-002
1.783907e+003;3.725105e-002
1.785835e+003;3.680362e-002
1.787764e+003;3.636988e-002
1.789693e+003;3.584015e-002
1.791621e+003;3.527057e-002
1.793550e+003;3.505920e-002
1.795478e+003;3.504523e-002
1.797407e+003;3.496452e-002
1.799335e+003;3.466588e-002
1.801264e+003;3.422792e-002
1.803192e+003;3.393371e-002
1.805121e+003;3.378803e-002
1.807049e+003;3.373592e-002
1.808978e+003;3.337038e-002
1.810907e+003;3.282611e-002
1.812835e+003;3.265357e-002
1.814764e+003;3.276729e-002
1.816692e+003;3.285559e-002
1.818621e+003;3.293383e-002
1.820549e+003;3.261325e-002
1.822478e+003;3.234113e-002
1.824406e+003;3.206261e-002
1.826335e+003;3.175918e-002
1.828264e+003;3.136420e-002
1.830192e+003;3.122792e-002
1.832121e+003;3.142019e-002
1.834049e+003;3.149774e-002
1.835978e+003;3.153693e-002
1.837906e+003;3.154363e-002
1.839835e+003;3.127325e-002
1.841763e+003;3.096958e-002
1.843692e+003;3.064949e-002
1.845620e+003;3.042070e-002
1.847549e+003;3.036242e-002
1.849478e+003;3.037976e-002
1.851406e+003;3.027673e-002
1.853335e+003;3.024010e-002
1.855263e+003;3.025026e-002
1.857192e+003;3.010016e-002
1.859120e+003;3.007022e-002
1.861049e+003;2.991522e-002
1.862977e+003;2.963559e-002
1.864906e+003;2.966220e-002
1.866834e+003;2.981601e-002
1.868763e+003;2.977978e-002
1.870692e+003;2.985772e-002
1.872620e+003;3.009015e-002
1.874549e+003;3.004491e-002
1.876477e+003;2.978039e-002
1.878406e+003;2.970360e-002
1.880334e+003;2.970449e-002
1.882263e+003;2.956536e-002
1.884191e+003;2.962530e-002
1.886120e+003;2.966560e-002
1.888048e+003;2.951688e-002
1.889977e+003;2.954028e-002
1.891906e+003;2.962332e-002
1.893834e+003;2.963648e-002
1.895763e+003;3.008056e-002
1.897691e+003;3.010570e-002
1.899620e+003;2.972879e-002
1.901548e+003;2.953000e-002
1.903477e+003;2.960555e-002
1.905405e+003;2.978053e-002
1.907334e+003;2.981374e-002
1.909262e+003;2.965070e-002
1.911191e+003;2.933534e-002
1.913120e+003;2.913626e-002
1.915048e+003;2.906799e-002
1.916977e+003;2.884761e-002
1.918905e+003;2.868830e-002
1.920834e+003;2.888997e-002
1.922762e+003;2.904606e-002
1.924691e+003;2.908358e-002
1.926619e+003;2.900532e-002
1.928548e+003;2.893615e-002
1.930477e+003;2.894458e-002
1.932405e+003;2.900536e-002
1.934334e+003;2.888926e-002
1.936262e+003;2.875875e-002
1.938191e+003;2.874257e-002
1.940119e+003;2.883150e-002
1.942048e+003;2.872784e-002
1.943976e+003;2.855258e-002
1.945905e+003;2.864806e-002
1.947833e+003;2.874947e-002
1.949762e+003;2.898928e-002
1.951691e+003;2.904312e-002
1.953619e+003;2.876593e-002
1.955548e+003;2.886298e-002
1.957476e+003;2.905148e-002
1.959405e+003;2.893516e-002
1.961333e+003;2.887290e-002
1.963262e+003;2.899477e-002
1.965190e+003;2.904581e-002
1.967119e+003;2.913428e-002
1.969047e+003;2.911373e-002
1.970976e+003;2.908854e-002
1.972905e+003;2.926831e-002
1.974833e+003;2.942503e-002
1.976762e+003;2.955518e-002
1.978690e+003;2.957674e-002
1.980619e+003;2.948872e-002
1.982547e+003;2.974987e-002
1.984476e+003;2.990286e-002
1.986404e+003;2.938568e-002
1.988333e+003;2.893696e-002
1.990261e+003;2.905403e-002
1.992190e+003;2.938440e-002
1.994119e+003;2.940589e-002
1.996047e+003;2.930606e-002
1.997976e+003;2.930946e-002
1.999904e+003;2.941692e-002
2.001833e+003;2.946390e-002
2.003761e+003;2.946230e-002
2.005690e+003;2.950510e-002
2.007618e+003;2.944103e-002
2.009547e+003;2.933162e-002
2.011476e+003;2.934083e-002
2.013404e+003;2.937692e-002
2.015333e+003;2.954106e-002
2.017261e+003;2.986144e-002
2.019190e+003;3.007377e-002
2.021118e+003;3.014356e-002
2.023047e+003;3.016199e-002
2.024975e+003;3.023285e-002
2.026904e+003;3.052242e-002
2.028833e+003;3.064941e-002
2.030761e+003;3.060142e-002
2.032690e+003;3.082258e-002
2.034618e+003;3.116679e-002
2.036547e+003;3.126840e-002
2.038475e+003;3.125384e-002
2.040404e+003;3.128507e-002
2.042332e+003;3.123618e-002
2.044261e+003;3.116668e-002
2.046189e+003;3.114009e-002
2.048118e+003;3.111290e-002
2.050047e+003;3.138197e-002
2.051975e+003;3.152347e-002
2.053904e+003;3.154260e-002
2.055832e+003;3.153230e-002
2.057761e+003;3.158607e-002
2.059689e+003;3.164904e-002
2.061618e+003;3.163856e-002
2.063546e+003;3.181900e-002
2.065475e+003;3.196712e-002
2.067404e+003;3.192943e-002
2.069332e+003;3.210478e-002
2.071260e+003;3.191477e-002
2.073189e+003;3.165225e-002
2.075118e+003;3.185016e-002
2.077046e+003;3.189794e-002
2.078975e+003;3.172542e-002
2.080903e+003;3.154456e-002
2.082832e+003;3.128742e-002
2.084760e+003;3.112792e-002
2.086689e+003;3.122585e-002
2.088617e+003;3.144484e-002
2.090546e+003;3.141488e-002
2.092475e+003;3.137809e-002
2.094403e+003;3.121941e-002
2.096332e+003;3.112920e-002
2.098260e+003;3.124013e-002
2.100189e+003;3.124604e-002
2.102117e+003;3.137805e-002
2.104046e+003;3.125003e-002
2.105974e+003;3.097043e-002
2.107903e+003;3.108040e-002
2.109832e+003;3.128129e-002
2.111760e+003;3.132125e-002
2.113688e+003;3.140705e-002
2.115617e+003;3.158835e-002
2.117546e+003;3.187280e-002
2.119474e+003;3.184766e-002
2.121403e+003;3.180192e-002
2.123331e+003;3.176973e-002
2.125260e+003;3.173885e-002
2.127188e+003;3.187063e-002
2.129117e+003;3.218973e-002
2.131045e+003;3.222049e-002
2.132974e+003;3.191602e-002
2.134903e+003;3.172239e-002
2.136831e+003;3.166625e-002
2.138760e+003;3.168938e-002
2.140688e+003;3.171398e-002
2.142617e+003;3.172852e-002
2.144545e+003;3.176777e-002
2.146474e+003;3.198000e-002
2.148402e+003;3.223473e-002
2.150331e+003;3.215887e-002
2.152260e+003;3.201713e-002
2.154188e+003;3.208287e-002
2.156117e+003;3.228351e-002
2.158045e+003;3.245893e-002
2.159974e+003;3.266279e-002
2.161902e+003;3.269701e-002
2.163831e+003;3.247765e-002
2.165759e+003;3.226531e-002
2.167688e+003;3.230232e-002
2.169616e+003;3.263189e-002
2.171545e+003;3.294602e-002
2.173474e+003;3.310697e-002
2.175402e+003;3.315446e-002
2.177331e+003;3.318297e-002
2.179259e+003;3.303457e-002
2.181188e+003;3.269144e-002
2.183116e+003;3.263278e-002
2.185045e+003;3.282453e-002
2.186973e+003;3.285123e-002
2.188902e+003;3.311205e-002
2.190831e+003;3.327553e-002
2.192759e+003;3.305756e-002
2.194688e+003;3.274046e-002
2.196616e+003;3.273685e-002
2.198545e+003;3.290634e-002
2.200473e+003;3.296053e-002
2.202402e+003;3.270234e-002
2.204330e+003;3.275621e-002
2.206259e+003;3.284387e-002
2.208188e+003;3.261561e-002
2.210116e+003;3.242620e-002
2.212044e+003;3.254885e-002
2.213973e+003;3.259157e-002
2.215902e+003;3.238942e-002
2.217830e+003;3.231828e-002
2.219759e+003;3.218530e-002
2.221687e+003;3.192333e-002
2.223616e+003;3.172342e-002
2.225544e+003;3.142510e-002
2.227473e+003;3.144242e-002
2.229401e+003;3.173062e-002
2.231330e+003;3.186681e-002
2.233259e+003;3.155970e-002
2.235187e+003;3.105043e-002
2.237116e+003;3.129572e-002
2.239044e+003;3.159248e-002
2.240973e+003;3.130127e-002
2.242901e+003;3.132121e-002
2.244830e+003;3.128343e-002
2.246758e+003;3.113774e-002
2.248687e+003;3.132281e-002
2.250615e+003;3.155001e-002
2.252544e+003;3.175854e-002
2.254473e+003;3.185925e-002
2.256401e+003;3.189644e-002
2.258330e+003;3.161992e-002
2.260258e+003;3.132616e-002
2.262187e+003;3.150241e-002
2.264115e+003;3.158197e-002
2.266044e+003;3.165862e-002
2.267972e+003;3.179123e-002
2.269901e+003;3.188521e-002
2.271830e+003;3.190821e-002
2.273758e+003;3.202605e-002
2.275687e+003;3.229194e-002
2.277615e+003;3.220144e-002
2.279544e+003;3.213581e-002
2.281472e+003;3.224551e-002
2.283401e+003;3.213842e-002
2.285329e+003;3.193364e-002
2.287258e+003;3.213846e-002
2.289187e+003;3.263436e-002
2.291115e+003;3.264121e-002
2.293043e+003;3.247301e-002
2.294972e+003;3.294022e-002
2.296901e+003;3.316598e-002
2.298829e+003;3.288497e-002
2.300758e+003;3.283440e-002
2.302686e+003;3.311230e-002
2.304615e+003;3.306331e-002
2.306543e+003;3.313479e-002
2.308472e+003;3.338312e-002
2.310400e+003;3.347834e-002
2.312329e+003;3.361017e-002
2.314258e+003;3.364307e-002
2.316186e+003;3.351091e-002
2.318115e+003;3.341400e-002
2.320043e+003;3.325872e-002
2.321972e+003;3.318107e-002
2.323900e+003;3.311674e-002
2.325829e+003;3.320557e-002
2.327757e+003;3.357233e-002
2.329686e+003;3.341482e-002
2.331615e+003;3.317277e-002
2.333543e+003;3.318329e-002
2.335472e+003;3.303668e-002
2.337400e+003;3.300099e-002
2.339329e+003;3.299485e-002
2.341257e+003;3.267933e-002
2.343186e+003;3.252321e-002
2.345114e+003;3.268526e-002
2.347043e+003;3.293293e-002
2.348971e+003;3.293426e-002
2.350900e+003;3.260417e-002
2.352829e+003;3.253435e-002
2.354757e+003;3.244298e-002
2.356686e+003;3.238660e-002
2.358614e+003;3.268869e-002
2.360543e+003;3.273928e-002
2.362471e+003;3.268483e-002
2.364400e+003;3.279588e-002
2.366328e+003;3.271195e-002
2.368257e+003;3.287289e-002
2.370186e+003;3.321745e-002
2.372114e+003;3.327024e-002
2.374042e+003;3.348618e-002
2.375971e+003;3.339020e-002
2.377900e+003;3.326105e-002
2.379828e+003;3.349906e-002
2.381757e+003;3.360455e-002
2.383685e+003;3.350869e-002
2.385614e+003;3.346710e-002
2.387542e+003;3.354184e-002
2.389471e+003;3.366319e-002
2.391399e+003;3.383577e-002
2.393328e+003;3.398061e-002
2.395257e+003;3.398240e-002
2.397185e+003;3.392268e-002
2.399114e+003;3.394872e-002
2.401042e+003;3.434283e-002
2.402971e+003;3.430902e-002
2.404899e+003;3.393142e-002
2.406828e+003;3.388642e-002
2.408756e+003;3.419457e-002
2.410685e+003;3.434333e-002
2.412614e+003;3.441883e-002
2.414542e+003;3.457635e-002
2.416471e+003;3.450861e-002
2.418399e+003;3.452777e-002
2.420328e+003;3.474509e-002
2.422256e+003;3.464230e-002
2.424185e+003;3.457211e-002
2.426113e+003;3.471515e-002
2.428042e+003;3.475284e-002
2.429970e+003;3.470514e-002
2.431899e+003;3.484065e-002
2.433828e+003;3.517416e-002
2.435756e+003;3.522496e-002
2.437685e+003;3.523532e-002
2.439613e+003;3.546938e-002
2.441542e+003;3.568354e-002
2.443470e+003;3.583367e-002
2.445399e+003;3.618322e-002
2.447327e+003;3.661872e-002
2.449256e+003;3.650583e-002
2.451185e+003;3.634469e-002
2.453113e+003;3.645873e-002
2.455042e+003;3.664111e-002
2.456970e+003;3.680153e-002
2.458899e+003;3.684214e-002
2.460827e+003;3.652396e-002
2.462756e+003;3.650331e-002
2.464684e+003;3.692655e-002
2.466613e+003;3.723069e-002
2.468542e+003;3.747443e-002
2.470470e+003;3.746197e-002
2.472398e+003;3.728286e-002
2.474327e+003;3.758136e-002
2.476256e+003;3.807954e-002
2.478184e+003;3.799151e-002
2.480113e+003;3.761951e-002
2.482041e+003;3.752605e-002
2.483970e+003;3.775051e-002
2.485898e+003;3.798019e-002
2.487827e+003;3.803208e-002
2.489755e+003;3.770924e-002
2.491684e+003;3.749018e-002
2.493613e+003;3.783972e-002
2.495541e+003;3.793069e-002
2.497470e+003;3.765532e-002
2.499398e+003;3.766475e-002
2.501327e+003;3.772764e-002
2.503255e+003;3.772778e-002
2.505184e+003;3.789840e-002
2.507112e+003;3.821589e-002
2.509041e+003;3.847115e-002
2.510969e+003;3.839937e-002
2.512898e+003;3.865590e-002
2.514827e+003;3.920133e-002
2.516755e+003;3.934605e-002
2.518684e+003;3.948824e-002
2.520612e+003;3.975013e-002
2.522541e+003;4.018840e-002
2.524469e+003;4.056853e-002
2.526398e+003;4.044359e-002
2.528326e+003;4.048850e-002
2.530255e+003;4.080392e-002
2.532184e+003;4.094667e-002
2.534112e+003;4.105263e-002
2.536041e+003;4.128687e-002
2.537969e+003;4.155565e-002
2.539898e+003;4.185568e-002
2.541826e+003;4.205542e-002
2.543755e+003;4.215494e-002
2.545683e+003;4.220916e-002
2.547612e+003;4.216176e-002
2.549541e+003;4.232186e-002
2.551469e+003;4.249291e-002
2.553397e+003;4.241896e-002
2.555326e+003;4.237530e-002
2.557255e+003;4.246645e-002
2.559183e+003;4.278211e-002
2.561112e+003;4.319127e-002
2.563040e+003;4.323406e-002
2.564969e+003;4.314190e-002
2.566897e+003;4.304048e-002
2.568826e+003;4.288706e-002
2.570754e+003;4.305581e-002
2.572683e+003;4.324789e-002
2.574612e+003;4.334264e-002
2.576540e+003;4.379106e-002
2.578469e+003;4.419835e-002
2.580397e+003;4.444384e-002
2.582326e+003;4.455250e-002
2.584254e+003;4.459094e-002
2.586183e+003;4.469023e-002
2.588111e+003;4.483043e-002
2.590040e+003;4.484869e-002
2.591969e+003;4.488903e-002
2.593897e+003;4.503342e-002
2.595826e+003;4.512189e-002
2.597754e+003;4.526165e-002
2.599683e+003;4.531835e-002
2.601611e+003;4.498663e-002
2.603540e+003;4.494349e-002
2.605468e+003;4.509447e-002
2.607397e+003;4.511278e-002
2.609325e+003;4.530401e-002
2.611254e+003;4.553702e-002
2.613183e+003;4.581434e-002
2.615111e+003;4.621340e-002
2.617040e+003;4.643137e-002
2.618968e+003;4.636187e-002
2.620897e+003;4.638277e-002
2.622825e+003;4.643731e-002
2.624754e+003;4.681055e-002
2.626682e+003;4.698806e-002
2.628611e+003;4.690149e-002
2.630540e+003;4.683487e-002
2.632468e+003;4.672830e-002
2.634396e+003;4.693379e-002
2.636325e+003;4.717122e-002
2.638254e+003;4.735269e-002
2.640182e+003;4.752913e-002
2.642111e+003;4.768882e-002
2.644039e+003;4.780203e-002
2.645968e+003;4.761024e-002
2.647896e+003;4.736814e-002
2.649825e+003;4.740642e-002
2.651753e+003;4.749250e-002
2.653682e+003;4.752713e-002
2.655611e+003;4.772598e-002
2.657539e+003;4.789051e-002
2.659468e+003;4.826197e-002
2.661396e+003;4.843704e-002
2.663325e+003;4.839860e-002
2.665253e+003;4.858120e-002
2.667182e+003;4.881946e-002
2.669110e+003;4.900359e-002
2.671039e+003;4.912942e-002
2.672968e+003;4.946896e-002
2.674896e+003;4.970091e-002
2.676825e+003;4.960645e-002
2.678753e+003;4.955527e-002
2.680682e+003;4.998388e-002
2.682610e+003;5.028194e-002
2.684539e+003;5.068602e-002
2.686467e+003;5.091177e-002
2.688396e+003;5.078575e-002
2.690324e+003;5.096683e-002
2.692253e+003;5.161836e-002
2.694182e+003;5.227356e-002
2.696110e+003;5.262530e-002
2.698039e+003;5.301240e-002
2.699967e+003;5.317958e-002
2.701896e+003;5.333275e-002
2.703824e+003;5.355879e-002
2.705753e+003;5.360665e-002
2.707681e+003;5.401902e-002
2.709610e+003;5.461375e-002
2.711539e+003;5.520000e-002
2.713467e+003;5.577521e-002
2.715396e+003;5.621359e-002
2.717324e+003;5.648490e-002
2.719253e+003;5.699668e-002
2.721181e+003;5.751621e-002
2.723110e+003;5.768200e-002
2.725038e+003;5.790331e-002
2.726967e+003;5.839016e-002
2.728896e+003;5.907343e-002
2.730824e+003;5.952005e-002
2.732752e+003;5.955379e-002
2.734681e+003;5.966923e-002
2.736610e+003;6.029543e-002
2.738538e+003;6.096592e-002
2.740467e+003;6.123869e-002
2.742395e+003;6.110613e-002
2.744324e+003;6.138656e-002
2.746252e+003;6.167812e-002
2.748181e+003;6.146793e-002
2.750109e+003;6.139232e-002
2.752038e+003;6.175779e-002
2.753967e+003;6.218760e-002
2.755895e+003;6.224718e-002
2.757824e+003;6.244431e-002
2.759752e+003;6.281925e-002
2.761681e+003;6.291131e-002
2.763609e+003;6.294639e-002
2.765538e+003;6.304124e-002
2.767466e+003;6.305698e-002
2.769395e+003;6.345899e-002
2.771323e+003;6.429234e-002
2.773252e+003;6.481283e-002
2.775181e+003;6.490016e-002
2.777109e+003;6.517861e-002
2.779038e+003;6.564740e-002
2.780966e+003;6.603368e-002
2.782895e+003;6.633189e-002
2.784823e+003;6.696893e-002
2.786752e+003;6.760769e-002
2.788680e+003;6.788293e-002
2.790609e+003;6.835042e-002
2.792538e+003;6.900334e-002
2.794466e+003;6.965847e-002
2.796395e+003;7.016347e-002
2.798323e+003;7.046399e-002
2.800252e+003;7.122591e-002
2.802180e+003;7.185072e-002
2.804109e+003;7.244126e-002
2.806037e+003;7.310122e-002
2.807966e+003;7.374439e-002
2.809895e+003;7.460620e-002
2.811823e+003;7.546731e-002
2.813751e+003;7.593630e-002
2.815680e+003;7.674118e-002
2.817609e+003;7.771099e-002
2.819537e+003;7.849796e-002
2.821466e+003;7.932428e-002
2.823394e+003;8.018146e-002
2.825323e+003;8.105023e-002
2.827251e+003;8.189462e-002
2.829180e+003;8.277986e-002
2.831108e+003;8.347373e-002
2.833037e+003;8.487916e-002
2.834966e+003;8.713279e-002
2.836894e+003;8.949650e-002
2.838823e+003;9.254459e-002
2.840751e+003;9.609018e-002
2.842680e+003;1.002622e-001
2.844608e+003;1.054855e-001
2.846537e+003;1.112257e-001
2.848465e+003;1.163795e-001
2.850394e+003;1.209938e-001
2.852323e+003;1.251996e-001
2.854251e+003;1.290958e-001
2.856180e+003;1.325054e-001
2.858108e+003;1.347587e-001
2.860037e+003;1.360776e-001
2.861965e+003;1.364773e-001
2.863894e+003;1.359291e-001
2.865822e+003;1.346954e-001
2.867751e+003;1.328349e-001
2.869679e+003;1.304889e-001
2.871608e+003;1.274398e-001
2.873536e+003;1.241334e-001
2.875465e+003;1.210195e-001
2.877394e+003;1.179087e-001
2.879322e+003;1.152972e-001
2.881251e+003;1.130936e-001
2.883179e+003;1.114861e-001
2.885108e+003;1.108999e-001
2.887036e+003;1.110881e-001
2.888965e+003;1.122205e-001
2.890893e+003;1.141756e-001
2.892822e+003;1.163249e-001
2.894750e+003;1.182372e-001
2.896679e+003;1.203907e-001
2.898608e+003;1.228165e-001
2.900536e+003;1.244216e-001
2.902465e+003;1.254149e-001
2.904393e+003;1.269090e-001
2.906322e+003;1.286569e-001
2.908250e+003;1.302872e-001
2.910179e+003;1.322861e-001
2.912107e+003;1.346465e-001
2.914036e+003;1.377129e-001
2.915965e+003;1.413314e-001
2.917893e+003;1.450160e-001
2.919822e+003;1.483723e-001
2.921750e+003;1.519647e-001
2.923679e+003;1.555526e-001
2.925607e+003;1.586809e-001
2.927536e+003;1.612165e-001
2.929464e+003;1.635660e-001
2.931393e+003;1.654858e-001
2.933322e+003;1.666127e-001
2.935250e+003;1.667497e-001
2.937178e+003;1.654879e-001
2.939107e+003;1.629893e-001
2.941036e+003;1.593840e-001
2.942964e+003;1.552918e-001
2.944893e+003;1.510394e-001
2.946821e+003;1.461819e-001
2.948750e+003;1.404123e-001
2.950678e+003;1.332142e-001
2.952607e+003;1.256968e-001
2.954535e+003;1.195656e-001
2.956464e+003;1.140747e-001
2.958393e+003;1.087131e-001
2.960321e+003;1.040263e-001
2.962250e+003;1.001597e-001
2.964178e+003;9.677133e-002
2.966107e+003;9.340141e-002
2.968035e+003;8.972168e-002
2.969964e+003;8.660845e-002
2.971892e+003;8.373217e-002
2.973821e+003;8.132913e-002
2.975750e+003;7.914628e-002
2.977678e+003;7.678293e-002
2.979607e+003;7.519373e-002
2.981535e+003;7.392552e-002
2.983464e+003;7.222893e-002
2.985392e+003;7.073095e-002
2.987321e+003;6.985355e-002
2.989249e+003;6.888574e-002
2.991178e+003;6.802303e-002
2.993106e+003;6.719372e-002
2.995035e+003;6.652780e-002
2.996964e+003;6.597034e-002
2.998892e+003;6.581324e-002
3.000821e+003;6.596309e-002
3.002749e+003;6.577638e-002
3.004678e+003;6.555333e-002
3.006606e+003;6.549943e-002
3.008535e+003;6.557287e-002
3.010463e+003;6.586652e-002
3.012392e+003;6.641883e-002
3.014321e+003;6.631942e-002
3.016249e+003;6.610308e-002
3.018177e+003;6.660106e-002
3.020106e+003;6.714854e-002
3.022035e+003;6.785674e-002
3.023963e+003;6.871334e-002
3.025892e+003;6.890780e-002
3.027820e+003;6.896582e-002
3.029749e+003;6.939669e-002
3.031677e+003;7.028686e-002
3.033606e+003;7.135804e-002
3.035534e+003;7.212999e-002
3.037463e+003;7.260282e-002
3.039392e+003;7.332970e-002
3.041320e+003;7.413688e-002
3.043249e+003;7.486174e-002
3.045177e+003;7.573243e-002
3.047106e+003;7.652686e-002
3.049034e+003;7.745511e-002
3.050963e+003;7.856188e-002
3.052891e+003;7.950099e-002
3.054820e+003;8.045441e-002
3.056749e+003;8.152720e-002
3.058677e+003;8.236740e-002
3.060606e+003;8.302461e-002
3.062534e+003;8.347645e-002
3.064463e+003;8.376721e-002
3.066391e+003;8.405489e-002
3.068320e+003;8.422118e-002
3.070248e+003;8.394445e-002
3.072177e+003;8.388837e-002
3.074105e+003;8.407447e-002
3.076034e+003;8.391679e-002
3.077963e+003;8.411738e-002
3.079891e+003;8.453280e-002
3.081820e+003;8.452749e-002
3.083748e+003;8.379899e-002
3.085677e+003;8.319899e-002
3.087605e+003;8.286916e-002
3.089534e+003;8.210060e-002
3.091462e+003;8.156335e-002
3.093391e+003;8.098044e-002
3.095320e+003;8.017316e-002
3.097248e+003;7.969067e-002
3.099177e+003;7.882937e-002
3.101105e+003;7.778759e-002
3.103034e+003;7.712542e-002
3.104962e+003;7.654646e-002
3.106891e+003;7.584795e-002
3.108819e+003;7.524676e-002
3.110748e+003;7.476907e-002
3.112677e+003;7.423259e-002
3.114605e+003;7.356796e-002
3.116533e+003;7.275163e-002
3.118462e+003;7.206282e-002
3.120391e+003;7.157381e-002
3.122319e+003;7.105585e-002
3.124248e+003;7.095835e-002
3.126176e+003;7.134711e-002
3.128105e+003;7.147072e-002
3.130033e+003;7.092651e-002
3.131962e+003;7.066255e-002
3.133890e+003;7.117438e-002
3.135819e+003;7.099669e-002
3.137748e+003;7.035071e-002
3.139676e+003;7.062146e-002
3.141605e+003;7.137776e-002
3.143533e+003;7.172934e-002
3.145462e+003;7.193767e-002
3.147390e+003;7.210745e-002
3.149319e+003;7.233264e-002
3.151247e+003;7.277165e-002
3.153176e+003;7.312157e-002
3.155104e+003;7.357021e-002
3.157033e+003;7.409173e-002
3.158962e+003;7.433453e-002
3.160890e+003;7.463980e-002
3.162819e+003;7.542612e-002
3.164747e+003;7.610453e-002
3.166676e+003;7.612392e-002
3.168604e+003;7.676712e-002
3.170533e+003;7.801360e-002
3.172461e+003;7.883613e-002
3.174390e+003;7.925897e-002
3.176319e+003;7.979947e-002
3.178247e+003;8.062086e-002
3.180176e+003;8.115639e-002
3.182104e+003;8.198737e-002
3.184033e+003;8.299473e-002
3.185961e+003;8.374237e-002
3.187890e+003;8.433419e-002
3.189818e+003;8.473226e-002
3.191747e+003;8.494946e-002
3.193676e+003;8.542921e-002
3.195604e+003;8.598901e-002
3.197532e+003;8.666576e-002
3.199461e+003;8.759180e-002
3.201390e+003;8.801016e-002
3.203318e+003;8.810662e-002
3.205247e+003;8.820827e-002
3.207175e+003;8.851252e-002
3.209104e+003;8.877117e-002
3.211032e+003;8.958279e-002
3.212961e+003;9.061079e-002
3.214889e+003;9.092270e-002
3.216818e+003;9.122089e-002
3.218747e+003;9.206949e-002
3.220675e+003;9.323620e-002
3.222604e+003;9.430440e-002
3.224532e+003;9.517927e-002
3.226461e+003;9.601441e-002
3.228389e+003;9.686089e-002
3.230318e+003;9.809081e-002
3.232246e+003;9.959228e-002
3.234175e+003;1.010969e-001
3.236104e+003;1.025212e-001
3.238032e+003;1.041544e-001
3.239961e+003;1.056116e-001
3.241889e+003;1.072019e-001
3.243818e+003;1.092324e-001
3.245746e+003;1.114932e-001
3.247675e+003;1.133750e-001
3.249603e+003;1.149563e-001
3.251532e+003;1.171341e-001
3.253460e+003;1.194348e-001
3.255389e+003;1.216802e-001
3.257318e+003;1.243348e-001
3.259246e+003;1.272706e-001
3.261175e+003;1.294093e-001
3.263103e+003;1.312789e-001
3.265032e+003;1.337899e-001
3.266960e+003;1.366469e-001
3.268889e+003;1.387495e-001
3.270817e+003;1.406435e-001
3.272746e+003;1.425386e-001
3.274675e+003;1.450650e-001
3.276603e+003;1.479154e-001
3.278531e+003;1.504923e-001
3.280460e+003;1.527574e-001
3.282389e+003;1.544701e-001
3.284317e+003;1.557382e-001
3.286246e+003;1.570285e-001
3.288174e+003;1.579517e-001
3.290103e+003;1.584292e-001
3.292031e+003;1.585315e-001
3.293960e+003;1.583089e-001
3.295888e+003;1.572031e-001
3.297817e+003;1.549487e-001
3.299746e+003;1.527053e-001
3.301674e+003;1.500906e-001
3.303603e+003;1.472763e-001
3.305531e+003;1.438598e-001
3.307460e+003;1.399531e-001
3.309388e+003;1.363073e-001
3.311317e+003;1.336199e-001
3.313245e+003;1.311945e-001
3.315174e+003;1.282303e-001
3.317103e+003;1.246055e-001
3.319031e+003;1.213922e-001
3.320960e+003;1.188419e-001
3.322888e+003;1.158243e-001
3.324817e+003;1.128814e-001
3.326745e+003;1.103764e-001
3.328674e+003;1.081086e-001
3.330602e+003;1.057197e-001
3.332531e+003;1.035080e-001
3.334459e+003;1.009173e-001
3.336388e+003;9.852731e-002
3.338317e+003;9.665877e-002
3.340245e+003;9.426961e-002
3.342174e+003;9.231203e-002
3.344102e+003;9.101233e-002
3.346031e+003;8.964510e-002
3.347959e+003;8.840346e-002
3.349888e+003;8.694015e-002
3.351816e+003;8.503401e-002
3.353745e+003;8.332690e-002
3.355674e+003;8.196280e-002
3.357602e+003;8.086758e-002
3.359531e+003;7.980943e-002
3.361459e+003;7.853620e-002
3.363388e+003;7.709630e-002
3.365316e+003;7.612237e-002
3.367245e+003;7.545296e-002
3.369173e+003;7.429545e-002
3.371102e+003;7.380149e-002
3.373031e+003;7.315619e-002
3.374959e+003;7.189755e-002
3.376887e+003;7.085368e-002
3.378816e+003;7.033954e-002
3.380745e+003;6.968726e-002
3.382673e+003;6.920002e-002
3.384602e+003;6.920604e-002
3.386530e+003;6.859656e-002
3.388459e+003;6.765373e-002
3.390387e+003;6.738228e-002
3.392316e+003;6.718373e-002
3.394244e+003;6.676830e-002
3.396173e+003;6.629974e-002
3.398102e+003;6.589472e-002
3.400030e+003;6.536880e-002
3.401959e+003;6.488734e-002
3.403887e+003;6.477429e-002
3.405816e+003;6.446119e-002
3.407744e+003;6.403688e-002
3.409673e+003;6.394827e-002
3.411601e+003;6.369120e-002
3.413530e+003;6.307821e-002
3.415458e+003;6.265834e-002
3.417387e+003;6.250285e-002
3.419316e+003;6.253580e-002
3.421244e+003;6.322800e-002
3.423173e+003;6.346397e-002
3.425101e+003;6.233939e-002
3.427030e+003;6.147400e-002
3.428958e+003;6.140209e-002
3.430887e+003;6.132309e-002
3.432815e+003;6.130565e-002
3.434744e+003;6.123671e-002
3.436673e+003;6.137450e-002
3.438601e+003;6.145846e-002
3.440530e+003;6.118338e-002
3.442458e+003;6.088182e-002
3.444387e+003;6.103543e-002
3.446315e+003;6.060584e-002
3.448244e+003;6.001788e-002
3.450172e+003;6.009877e-002
3.452101e+003;5.958138e-002
3.454030e+003;5.854804e-002
3.455958e+003;5.847658e-002
3.457886e+003;5.877002e-002
3.459815e+003;5.858926e-002
3.461744e+003;5.794541e-002
3.463672e+003;5.760594e-002
3.465601e+003;5.742408e-002
3.467529e+003;5.738895e-002
3.469458e+003;5.727366e-002
3.471386e+003;5.698542e-002
3.473315e+003;5.640781e-002
3.475243e+003;5.596453e-002
3.477172e+003;5.570326e-002
3.479101e+003;5.599894e-002
3.481029e+003;5.627951e-002
3.482958e+003;5.613707e-002
3.484886e+003;5.594606e-002
3.486815e+003;5.589217e-002
3.488743e+003;5.584239e-002
3.490672e+003;5.542453e-002
3.492600e+003;5.477377e-002
3.494529e+003;5.436192e-002
3.496458e+003;5.426381e-002
3.498386e+003;5.428912e-002
3.500315e+003;5.441289e-002
3.502243e+003;5.436354e-002
3.504172e+003;5.422109e-002
3.506100e+003;5.413761e-002
3.508029e+003;5.384761e-002
3.509957e+003;5.358738e-002
3.511886e+003;5.286912e-002
3.513814e+003;5.244656e-002
3.515743e+003;5.248985e-002
3.517672e+003;5.228493e-002
3.519600e+003;5.198279e-002
3.521529e+003;5.126341e-002
3.523457e+003;5.072911e-002
3.525386e+003;5.092146e-002
3.527314e+003;5.074959e-002
3.529243e+003;5.020580e-002
3.531171e+003;4.964125e-002
3.533100e+003;4.977957e-002
3.535029e+003;4.995589e-002
3.536957e+003;4.904357e-002
3.538885e+003;4.850180e-002
3.540814e+003;4.825253e-002
3.542743e+003;4.750895e-002
3.544671e+003;4.674711e-002
3.546600e+003;4.657619e-002
3.548528e+003;4.690216e-002
3.550457e+003;4.642875e-002
3.552385e+003;4.575904e-002
3.554314e+003;4.567024e-002
3.556242e+003;4.550125e-002
3.558171e+003;4.487015e-002
3.560100e+003;4.390282e-002
3.562028e+003;4.344952e-002
3.563957e+003;4.300583e-002
3.565885e+003;4.201373e-002
3.567814e+003;4.172143e-002
3.569742e+003;4.210788e-002
3.571671e+003;4.170385e-002
3.573599e+003;4.113251e-002
3.575528e+003;4.090709e-002
3.577457e+003;4.048821e-002
3.579385e+003;3.988933e-002
3.581314e+003;3.959410e-002
3.583242e+003;3.931224e-002
3.585171e+003;3.872711e-002
3.587099e+003;3.800308e-002
3.589028e+003;3.777614e-002
3.590956e+003;3.792877e-002
3.592885e+003;3.750268e-002
3.594813e+003;3.673550e-002
3.596742e+003;3.666660e-002
3.598671e+003;3.691038e-002
3.600599e+003;3.613320e-002
3.602528e+003;3.539672e-002
3.604456e+003;3.504303e-002
3.606385e+003;3.478565e-002
3.608313e+003;3.442629e-002
3.610242e+003;3.435413e-002
3.612170e+003;3.436790e-002
3.614099e+003;3.365876e-002
3.616028e+003;3.260678e-002
3.617956e+003;3.184642e-002
3.619885e+003;3.170564e-002
3.621813e+003;3.221557e-002
3.623742e+003;3.210025e-002
3.625670e+003;3.091660e-002
3.627599e+003;2.968384e-002
3.629527e+003;2.962215e-002
3.631456e+003;3.047156e-002
3.633385e+003;3.034121e-002
3.635313e+003;2.983670e-002
3.637241e+003;2.961619e-002
3.639170e+003;2.935834e-002
3.641099e+003;2.928926e-002
3.643027e+003;2.921185e-002
3.644956e+003;2.835814e-002
3.646884e+003;2.711370e-002
3.648813e+003;2.642419e-002
3.650741e+003;2.687712e-002
3.652670e+003;2.758398e-002
3.654598e+003;2.711808e-002
3.656527e+003;2.671126e-002
3.658456e+003;2.709914e-002
3.660384e+003;2.706983e-002
3.662313e+003;2.685547e-002
3.664241e+003;2.704850e-002
3.666170e+003;2.683775e-002
3.668098e+003;2.609919e-002
3.670027e+003;2.557136e-002
3.671955e+003;2.551795e-002
3.673884e+003;2.503330e-002
3.675813e+003;2.530400e-002
3.677741e+003;2.608051e-002
3.679669e+003;2.566911e-002
3.681598e+003;2.503477e-002
3.683527e+003;2.489875e-002
3.685455e+003;2.473544e-002
3.687384e+003;2.365413e-002
3.689312e+003;2.309670e-002
3.691241e+003;2.373370e-002
3.693169e+003;2.422976e-002
3.695098e+003;2.372250e-002
3.697026e+003;2.341123e-002
3.698955e+003;2.333795e-002
3.700884e+003;2.299977e-002
3.702812e+003;2.292687e-002
3.704741e+003;2.280487e-002
3.706669e+003;2.213091e-002
3.708598e+003;2.174978e-002
3.710526e+003;2.169032e-002
3.712455e+003;2.165051e-002
3.714383e+003;2.218893e-002
3.716312e+003;2.244468e-002
3.718240e+003;2.249367e-002
3.720169e+003;2.237476e-002
3.722098e+003;2.217149e-002
3.724026e+003;2.199391e-002
3.725955e+003;2.157654e-002
3.727883e+003;2.187402e-002
3.729812e+003;2.217024e-002
3.731740e+003;2.162345e-002
3.733669e+003;2.164044e-002
3.735597e+003;2.155833e-002
3.737526e+003;2.153298e-002
3.739455e+003;2.183266e-002
3.741383e+003;2.204658e-002
3.743312e+003;2.093869e-002
3.745240e+003;2.043463e-002
3.747169e+003;2.096894e-002
3.749097e+003;2.108715e-002
3.751026e+003;2.131626e-002
3.752954e+003;2.202022e-002
3.754883e+003;2.257837e-002
3.756812e+003;2.248704e-002
3.758740e+003;2.243372e-002
3.760668e+003;2.245689e-002
3.762597e+003;2.256469e-002
3.764526e+003;2.191392e-002
3.766454e+003;2.192922e-002
3.768383e+003;2.234724e-002
3.770311e+003;2.292494e-002
3.772240e+003;2.285170e-002
3.774168e+003;2.233046e-002
3.776097e+003;2.217582e-002
3.778025e+003;2.199230e-002
3.779954e+003;2.178064e-002
3.781883e+003;2.191650e-002
3.783811e+003;2.244304e-002
3.785740e+003;2.283333e-002
3.787668e+003;2.251593e-002
3.789597e+003;2.241554e-002
3.791525e+003;2.248871e-002
3.793454e+003;2.274017e-002
3.795382e+003;2.264406e-002
3.797311e+003;2.260591e-002
3.799240e+003;2.203835e-002
3.801168e+003;2.122850e-002
3.803097e+003;2.175302e-002
3.805025e+003;2.224727e-002
3.806954e+003;2.239608e-002
3.808882e+003;2.288191e-002
3.810811e+003;2.325114e-002
3.812739e+003;2.332784e-002
3.814668e+003;2.312353e-002
3.816596e+003;2.310564e-002
3.818525e+003;2.327428e-002
3.820454e+003;2.283463e-002
3.822382e+003;2.284133e-002
3.824311e+003;2.327246e-002
3.826239e+003;2.303639e-002
3.828168e+003;2.282841e-002
3.830096e+003;2.281294e-002
3.832025e+003;2.280295e-002
3.833953e+003;2.286920e-002
3.835882e+003;2.313318e-002
3.837811e+003;2.321608e-002
3.839739e+003;2.324251e-002
3.841667e+003;2.326946e-002
3.843596e+003;2.356313e-002
3.845525e+003;2.414800e-002
3.847453e+003;2.440763e-002
3.849382e+003;2.435195e-002
3.851310e+003;2.399047e-002
3.853239e+003;2.308010e-002
3.855167e+003;2.354722e-002
3.857096e+003;2.437129e-002
3.859024e+003;2.461500e-002
3.860953e+003;2.429213e-002
3.862882e+003;2.338379e-002
3.864810e+003;2.318312e-002
3.866739e+003;2.357471e-002
3.868667e+003;2.340550e-002
3.870596e+003;2.394568e-002
3.872524e+003;2.474087e-002
3.874453e+003;2.453807e-002
3.876381e+003;2.401914e-002
3.878310e+003;2.437974e-002
3.880239e+003;2.491766e-002
3.882167e+003;2.507321e-002
3.884096e+003;2.489050e-002
3.886024e+003;2.464309e-002
3.887953e+003;2.513552e-002
3.889881e+003;2.534679e-002
3.891810e+003;2.494493e-002
3.893738e+003;2.512411e-002
3.895667e+003;2.559013e-002
3.897595e+003;2.549065e-002
3.899524e+003;2.469201e-002
3.901453e+003;2.430979e-002
3.903381e+003;2.501877e-002
3.905310e+003;2.608754e-002
3.907238e+003;2.637915e-002
3.909167e+003;2.645070e-002
3.911095e+003;2.658848e-002
3.913024e+003;2.621064e-002
3.914952e+003;2.593170e-002
3.916881e+003;2.620870e-002
3.918810e+003;2.660050e-002
3.920738e+003;2.682714e-002
3.922667e+003;2.649317e-002
3.924595e+003;2.607361e-002
3.926524e+003;2.642021e-002
3.928452e+003;2.658288e-002
3.930381e+003;2.629241e-002
3.932309e+003;2.603171e-002
3.934238e+003;2.630332e-002
3.936167e+003;2.704420e-002
3.938095e+003;2.768504e-002
3.940023e+003;2.772340e-002
3.941952e+003;2.723483e-002
3.943881e+003;2.689918e-002
3.945809e+003;2.664323e-002
3.947738e+003;2.655766e-002
3.949666e+003;2.701034e-002
3.951595e+003;2.756118e-002
3.953523e+003;2.764980e-002
3.955452e+003;2.758557e-002
3.957380e+003;2.777228e-002
3.959309e+003;2.820441e-002
3.961238e+003;2.839298e-002
3.963166e+003;2.880619e-002
3.965095e+003;2.913517e-002
3.967023e+003;2.901308e-002
3.968952e+003;2.887570e-002
3.970880e+003;2.860042e-002
3.972809e+003;2.853775e-002
3.974737e+003;2.861401e-002
3.976666e+003;2.911405e-002
3.978594e+003;2.929386e-002
3.980523e+003;2.931134e-002
3.982452e+003;2.905736e-002
3.984380e+003;2.911968e-002
3.986309e+003;2.934289e-002
3.988237e+003;2.960853e-002
3.990166e+003;3.008389e-002
3.992094e+003;3.064085e-002
3.994023e+003;3.083453e-002
3.995951e+003;3.094183e-002
3.997880e+003;3.091489e-002
3.999809e+003;3.052587e-002
4.001737e+003;0.000000e+000
