3.992094e+002;0.000000e+000
4.011380e+002;0.000000e+000
4.030665e+002;0.000000e+000
4.049951e+002;0.000000e+000
4.069236e+002;0.000000e+000
4.088522e+002;0.000000e+000
4.107807e+002;0.000000e+000
4.127093e+002;0.000000e+000
4.146378e+002;0.000000e+000
4.165664e+002;0.000000e+000
4.184949e+002;0.000000e+000
4.204235e+002;0.000000e+000
4.223520e+002;0.000000e+000
4.242806e+002;0.000000e+000
4.262091e+002;0.000000e+000
4.281377e+002;0.000000e+000
4.300662e+002;0.000000e+000
4.319948e+002;0.000000e+000
4.339233e+002;0.000000e+000
4.358519e+002;0.000000e+000
4.377804e+002;0.000000e+000
4.397090e+002;0.000000e+000
4.416375e+002;0.000000e+000
4.435660e+002;0.000000e+000
4.454946e+002;0.000000e+000
4.474232e+002;0.000000e+000
4.493517e+002;0.000000e+000
4.512802e+002;0.000000e+000
4.532088e+002;0.000000e+000
4.551373e+002;0.000000e+000
4.570659e+002;0.000000e+000
4.589944e+002;0.000000e+000
4.609230e+002;0.000000e+000
4.628515e+002;0.000000e+000
4.647801e+002;0.000000e+000
4.667086e+002;0.000000e+000
4.686372e+002;0.000000e+000
4.705657e+002;0.000000e+000
4.724943e+002;0.000000e+000
4.744228e+002;0.000000e+000
4.763513e+002;0.000000e+000
4.782799e+002;0.000000e+000
4.802085e+002;0.000000e+000
4.821370e+002;0.000000e+000
4.840656e+002;0.000000e+000
4.859941e+002;0.000000e+000
4.879226e+002;0.000000e+000
4.898512e+002;0.000000e+000
4.917798e+002;0.000000e+000
4.937083e+002;0.000000e+000
4.956368e+002;0.000000e+000
4.975654e+002;0.000000e+000
4.994939e+002;0.000000e+000
5.014225e+002;0.000000e+000
5.033510e+002;0.000000e+000
5.052796e+002;0.000000e+000
5.072081e+002;0.000000e+000
5.091367e+002;0.000000e+000
5.110652e+002;0.000000e+000
5.129938e+002;0.000000e+000
5.149223e+002;0.000000e+000
5.168509e+002;0.000000e+000
5.187794e+002;0.000000e+000
5.207079e+002;0.000000e+000
5.226365e+002;0.000000e+000
5.245651e+002;0.000000e+000
5.264936e+002;0.000000e+000
5.284222e+002;0.000000e+000
5.303507e+002;0.000000e+000
5.322792e+002;0.000000e+000
5.342078e+002;0.000000e+000
5.361364e+002;0.000000e+000
5.380649e+002;0.000000e+000
5.399935e+002;0.000000e+000
5.419220e+002;0.000000e+000
5.438505e+002;0.000000e+000
5.457791e+002;0.000000e+000
5.477076e+002;0.000000e+000
5.496362e+002;0.000000e+000
5.515648e+002;0.000000e+000
5.534933e+002;0.000000e+000
5.554218e+002;0.000000e+000
5.573504e+002;0.000000e+000
5.592789e+002;0.000000e+000
5.612075e+002;0.000000e+000
5.631360e+002;0.000000e+000
5.650646e+002;0.000000e+000
5.669931e+002;0.000000e+000
5.689217e+002;0.000000e+000
5.708502e+002;0.000000e+000
5.727787e+002;0.000000e+000
5.747073e+002;0.000000e+000
5.766359e+002;0.000000e+000
5.785644e+002;0.000000e+000
5.804930e+002;0.000000e+000
5.824215e+002;0.000000e+000
5.843500e+002;0.000000e+000
5.862786e+002;0.000000e+000
5.882072e+002;0.000000e+000
5.901357e+002;0.000000e+000
5.920643e+002;0.000000e+000
5.939928e+002;0.000000e+000
5.959213e+002;0.000000e+000
5.978499e+002;0.000000e+000
5.997784e+002;1.066746e-001
6.017070e+002;1.077434e-001
6.036355e+002;1.125069e-001
6.055641e+002;1.173504e-001
6.074926e+002;1.164572e-001
6.094211e+002;1.155167e-001
6.113497e+002;1.162750e-001
6.132783e+002;1.146020e-001
6.152068e+002;1.140287e-001
6.171354e+002;1.147683e-001
6.190639e+002;1.135124e-001
6.209924e+002;1.135231e-001
6.229210e+002;1.154958e-001
6.248495e+002;1.149220e-001
6.267781e+002;1.135537e-001
6.287067e+002;1.128618e-001
6.306352e+002;1.155273e-001
6.325637e+002;1.187736e-001
6.344923e+002;1.154303e-001
6.364208e+002;1.094118e-001
6.383494e+002;1.100460e-001
6.402780e+002;1.177279e-001
6.422065e+002;1.236850e-001
6.441350e+002;1.231333e-001
6.460636e+002;1.222723e-001
6.479921e+002;1.226606e-001
6.499207e+002;1.239167e-001
6.518492e+002;1.258625e-001
6.537778e+002;1.264627e-001
6.557063e+002;1.255478e-001
6.576349e+002;1.269371e-001
6.595634e+002;1.318295e-001
6.614919e+002;1.363749e-001
6.634205e+002;1.383805e-001
6.653491e+002;1.372823e-001
6.672776e+002;1.376067e-001
6.692062e+002;1.392931e-001
6.711347e+002;1.412113e-001
6.730632e+002;1.432164e-001
6.749918e+002;1.437912e-001
6.769203e+002;1.432758e-001
6.788489e+002;1.428713e-001
6.807775e+002;1.423536e-001
6.827060e+002;1.428431e-001
6.846345e+002;1.428704e-001
6.865631e+002;1.433860e-001
6.884916e+002;1.434097e-001
6.904202e+002;1.418273e-001
6.923488e+002;1.401250e-001
6.942773e+002;1.390526e-001
6.962058e+002;1.373824e-001
6.981344e+002;1.352053e-001
7.000629e+002;1.336277e-001
7.019915e+002;1.323176e-001
7.039200e+002;1.302674e-001
7.058486e+002;1.289544e-001
7.077771e+002;1.287092e-001
7.097057e+002;1.282974e-001
7.116342e+002;1.282272e-001
7.135627e+002;1.277088e-001
7.154913e+002;1.257526e-001
7.174199e+002;1.240865e-001
7.193484e+002;1.237121e-001
7.212770e+002;1.249040e-001
7.232055e+002;1.257897e-001
7.251340e+002;1.269522e-001
7.270626e+002;1.278320e-001
7.289911e+002;1.252682e-001
7.309197e+002;1.213184e-001
7.328483e+002;1.182530e-001
7.347768e+002;1.142583e-001
7.367053e+002;1.100135e-001
7.386339e+002;1.063980e-001
7.405624e+002;1.042915e-001
7.424910e+002;1.025130e-001
7.444196e+002;1.003621e-001
7.463481e+002;9.867092e-002
7.482766e+002;9.693693e-002
7.502052e+002;9.488883e-002
7.521337e+002;9.327666e-002
7.540623e+002;9.231080e-002
7.559908e+002;9.147048e-002
7.579194e+002;9.018213e-002
7.598479e+002;8.979852e-002
7.617765e+002;8.978149e-002
7.637050e+002;8.819572e-002
7.656335e+002;8.685362e-002
7.675621e+002;8.653981e-002
7.694907e+002;8.587064e-002
7.714192e+002;8.482131e-002
7.733478e+002;8.385328e-002
7.752763e+002;8.346617e-002
7.772048e+002;8.300459e-002
7.791334e+002;8.241322e-002
7.810620e+002;8.194892e-002
7.829905e+002;8.132509e-002
7.849191e+002;8.101186e-002
7.868476e+002;8.104624e-002
7.887761e+002;8.084048e-002
7.907047e+002;8.046219e-002
7.926332e+002;7.871243e-002
7.945618e+002;7.712051e-002
7.964903e+002;7.643332e-002
7.984189e+002;7.552030e-002
8.003474e+002;7.488366e-002
8.022759e+002;7.549558e-002
8.042045e+002;7.650010e-002
8.061331e+002;7.779520e-002
8.080616e+002;7.998709e-002
8.099902e+002;8.261435e-002
8.119187e+002;8.434369e-002
8.138472e+002;8.425505e-002
8.157758e+002;8.225659e-002
8.177043e+002;7.875763e-002
8.196329e+002;7.430497e-002
8.215615e+002;7.054307e-002
8.234900e+002;6.863777e-002
8.254185e+002;6.831276e-002
8.273471e+002;6.824254e-002
8.292756e+002;6.817164e-002
8.312042e+002;6.817912e-002
8.331328e+002;6.781072e-002
8.350613e+002;6.718343e-002
8.369898e+002;6.590331e-002
8.389184e+002;6.408192e-002
8.408469e+002;6.358639e-002
8.427755e+002;6.334530e-002
8.447040e+002;6.245602e-002
8.466326e+002;6.141636e-002
8.485611e+002;6.152317e-002
8.504897e+002;6.184309e-002
8.524182e+002;6.181142e-002
8.543467e+002;6.183282e-002
8.562753e+002;6.178384e-002
8.582039e+002;6.161041e-002
8.601324e+002;6.231705e-002
8.620610e+002;6.305741e-002
8.639895e+002;6.344391e-002
8.659180e+002;6.377205e-002
8.678466e+002;6.383058e-002
8.697751e+002;6.420394e-002
8.717037e+002;6.456967e-002
8.736323e+002;6.425969e-002
8.755608e+002;6.436431e-002
8.774893e+002;6.498031e-002
8.794179e+002;6.531138e-002
8.813464e+002;6.539804e-002
8.832750e+002;6.533044e-002
8.852036e+002;6.540775e-002
8.871321e+002;6.596579e-002
8.890606e+002;6.640373e-002
8.909892e+002;6.662930e-002
8.929177e+002;6.675243e-002
8.948463e+002;6.679983e-002
8.967748e+002;6.691721e-002
8.987034e+002;6.717453e-002
9.006319e+002;6.735716e-002
9.025605e+002;6.777915e-002
9.044890e+002;6.843893e-002
9.064175e+002;6.845681e-002
9.083461e+002;6.851931e-002
9.102747e+002;6.889635e-002
9.122032e+002;6.929562e-002
9.141318e+002;6.950901e-002
9.160603e+002;6.930444e-002
9.179888e+002;6.973211e-002
9.199174e+002;7.078812e-002
9.218459e+002;7.168193e-002
9.237745e+002;7.234179e-002
9.257031e+002;7.320254e-002
9.276316e+002;7.406520e-002
9.295601e+002;7.446265e-002
9.314887e+002;7.420802e-002
9.334172e+002;7.389300e-002
9.353458e+002;7.377184e-002
9.372744e+002;7.358100e-002
9.392029e+002;7.371935e-002
9.411314e+002;7.440688e-002
9.430600e+002;7.539001e-002
9.449885e+002;7.652923e-002
9.469171e+002;7.776143e-002
9.488456e+002;7.880323e-002
9.507742e+002;7.993818e-002
9.527027e+002;8.081817e-002
9.546313e+002;8.152345e-002
9.565598e+002;8.221058e-002
9.584883e+002;8.267171e-002
9.604169e+002;8.263869e-002
9.623455e+002;8.236824e-002
9.642740e+002;8.258875e-002
9.662026e+002;8.272198e-002
9.681311e+002;8.276439e-002
9.700596e+002;8.280075e-002
9.719882e+002;8.243906e-002
9.739167e+002;8.191875e-002
9.758453e+002;8.137380e-002
9.777739e+002;8.092403e-002
9.797024e+002;8.080775e-002
9.816309e+002;8.034512e-002
9.835595e+002;7.971033e-002
9.854880e+002;7.924911e-002
9.874166e+002;7.879683e-002
9.893452e+002;7.867426e-002
9.912737e+002;7.825428e-002
9.932022e+002;7.745725e-002
9.951307e+002;7.728350e-002
9.970593e+002;7.727848e-002
9.989879e+002;7.714948e-002
1.000916e+003;7.729618e-002
1.002845e+003;7.773131e-002
1.004773e+003;7.791547e-002
1.006702e+003;7.772592e-002
1.008631e+003;7.782560e-002
1.010559e+003;7.791372e-002
1.012488e+003;7.759877e-002
1.014416e+003;7.756090e-002
1.016345e+003;7.769081e-002
1.018273e+003;7.849999e-002
1.020202e+003;7.936130e-002
1.022130e+003;7.973191e-002
1.024059e+003;8.041075e-002
1.025988e+003;8.124866e-002
1.027916e+003;8.219096e-002
1.029845e+003;8.229807e-002
1.031773e+003;8.147480e-002
1.033702e+003;8.091560e-002
1.035630e+003;8.083900e-002
1.037559e+003;8.082152e-002
1.039487e+003;8.086734e-002
1.041416e+003;8.104879e-002
1.043344e+003;8.128993e-002
1.045273e+003;8.157450e-002
1.047202e+003;8.202259e-002
1.049130e+003;8.305791e-002
1.051059e+003;8.385244e-002
1.052987e+003;8.462382e-002
1.054916e+003;8.580010e-002
1.056844e+003;8.679026e-002
1.058773e+003;8.761293e-002
1.060701e+003;8.860572e-002
1.062630e+003;8.994143e-002
1.064558e+003;9.092425e-002
1.066487e+003;9.154104e-002
1.068416e+003;9.196363e-002
1.070344e+003;9.205536e-002
1.072273e+003;9.147674e-002
1.074201e+003;9.094390e-002
1.076130e+003;9.105139e-002
1.078058e+003;9.103575e-002
1.079987e+003;9.036903e-002
1.081915e+003;8.987100e-002
1.083844e+003;8.946816e-002
1.085773e+003;8.947825e-002
1.087701e+003;8.950619e-002
1.089630e+003;8.931791e-002
1.091558e+003;8.945212e-002
1.093487e+003;9.031004e-002
1.095415e+003;9.139657e-002
1.097344e+003;9.180784e-002
1.099272e+003;9.192415e-002
1.101201e+003;9.271798e-002
1.103129e+003;9.424051e-002
1.105058e+003;9.569912e-002
1.106987e+003;9.663186e-002
1.108915e+003;9.741622e-002
1.110844e+003;9.768936e-002
1.112772e+003;9.763505e-002
1.114701e+003;9.801673e-002
1.116629e+003;9.795541e-002
1.118558e+003;9.708301e-002
1.120486e+003;9.612429e-002
1.122415e+003;9.480791e-002
1.124344e+003;9.298904e-002
1.126272e+003;9.114216e-002
1.128201e+003;8.924649e-002
1.130129e+003;8.766304e-002
1.132058e+003;8.632727e-002
1.133986e+003;8.584532e-002
1.135915e+003;8.583531e-002
1.137843e+003;8.626442e-002
1.139772e+003;8.767658e-002
1.141700e+003;8.919974e-002
1.143629e+003;8.997478e-002
1.145557e+003;9.093785e-002
1.147486e+003;9.231273e-002
1.149415e+003;9.365683e-002
1.151343e+003;9.501355e-002
1.153272e+003;9.687266e-002
1.155200e+003;9.923320e-002
1.157129e+003;1.018686e-001
1.159057e+003;1.049597e-001
1.160986e+003;1.079780e-001
1.162914e+003;1.110358e-001
1.164843e+003;1.141923e-001
1.166771e+003;1.165590e-001
1.168700e+003;1.174340e-001
1.170629e+003;1.168157e-001
1.172557e+003;1.146770e-001
1.174486e+003;1.113288e-001
1.176414e+003;1.077729e-001
1.178343e+003;1.048145e-001
1.180271e+003;1.024429e-001
1.182200e+003;1.012282e-001
1.184128e+003;1.013321e-001
1.186057e+003;1.019181e-001
1.187986e+003;1.034827e-001
1.189914e+003;1.057902e-001
1.191843e+003;1.080515e-001
1.193771e+003;1.103994e-001
1.195700e+003;1.130152e-001
1.197628e+003;1.148349e-001
1.199557e+003;1.151885e-001
1.201485e+003;1.142291e-001
1.203414e+003;1.126800e-001
1.205343e+003;1.112101e-001
1.207271e+003;1.098836e-001
1.209200e+003;1.091244e-001
1.211128e+003;1.083466e-001
1.213057e+003;1.065827e-001
1.214985e+003;1.046469e-001
1.216914e+003;1.028457e-001
1.218842e+003;1.009812e-001
1.220771e+003;1.002565e-001
1.222699e+003;1.006664e-001
1.224628e+003;1.017886e-001
1.226557e+003;1.035040e-001
1.228485e+003;1.063917e-001
1.230414e+003;1.096490e-001
1.232342e+003;1.123436e-001
1.234271e+003;1.146167e-001
1.236199e+003;1.160886e-001
1.238128e+003;1.169471e-001
1.240056e+003;1.174097e-001
1.241985e+003;1.178169e-001
1.243913e+003;1.182802e-001
1.245842e+003;1.189613e-001
1.247771e+003;1.200060e-001
1.249699e+003;1.217418e-001
1.251628e+003;1.236253e-001
1.253556e+003;1.258021e-001
1.255485e+003;1.282153e-001
1.257413e+003;1.300808e-001
1.259342e+003;1.311673e-001
1.261270e+003;1.309833e-001
1.263199e+003;1.295552e-001
1.265127e+003;1.269125e-001
1.267056e+003;1.231103e-001
1.268985e+003;1.195842e-001
1.270913e+003;1.174120e-001
1.272842e+003;1.166418e-001
1.274770e+003;1.166358e-001
1.276699e+003;1.169851e-001
1.278627e+003;1.171825e-001
1.280556e+003;1.170818e-001
1.282484e+003;1.166660e-001
1.284413e+003;1.158897e-001
1.286342e+003;1.152123e-001
1.288270e+003;1.147782e-001
1.290199e+003;1.144183e-001
1.292127e+003;1.140201e-001
1.294056e+003;1.140245e-001
1.295984e+003;1.142591e-001
1.297913e+003;1.144552e-001
1.299841e+003;1.147510e-001
1.301770e+003;1.145341e-001
1.303698e+003;1.143989e-001
1.305627e+003;1.143863e-001
1.307556e+003;1.142948e-001
1.309484e+003;1.142410e-001
1.311413e+003;1.142438e-001
1.313341e+003;1.141398e-001
1.315270e+003;1.142416e-001
1.317198e+003;1.145321e-001
1.319127e+003;1.147774e-001
1.321055e+003;1.150914e-001
1.322984e+003;1.159136e-001
1.324912e+003;1.166732e-001
1.326841e+003;1.171159e-001
1.328770e+003;1.178075e-001
1.330698e+003;1.184365e-001
1.332627e+003;1.188142e-001
1.334555e+003;1.192397e-001
1.336484e+003;1.193739e-001
1.338412e+003;1.191586e-001
1.340341e+003;1.190309e-001
1.342269e+003;1.190420e-001
1.344198e+003;1.190296e-001
1.346126e+003;1.188934e-001
1.348055e+003;1.187397e-001
1.349984e+003;1.186457e-001
1.351912e+003;1.185141e-001
1.353841e+003;1.186231e-001
1.355769e+003;1.189519e-001
1.357698e+003;1.190008e-001
1.359626e+003;1.189290e-001
1.361555e+003;1.189796e-001
1.363483e+003;1.190793e-001
1.365412e+003;1.190844e-001
1.367341e+003;1.190978e-001
1.369269e+003;1.191433e-001
1.371198e+003;1.189325e-001
1.373126e+003;1.184169e-001
1.375055e+003;1.171569e-001
1.376983e+003;1.150673e-001
1.378912e+003;1.127083e-001
1.380840e+003;1.104933e-001
1.382769e+003;1.082619e-001
1.384698e+003;1.057717e-001
1.386626e+003;1.036934e-001
1.388555e+003;1.020271e-001
1.390483e+003;1.002873e-001
1.392412e+003;9.874799e-002
1.394340e+003;9.771165e-002
1.396269e+003;9.760389e-002
1.398197e+003;9.776422e-002
1.400126e+003;9.828717e-002
1.402054e+003;9.939241e-002
1.403983e+003;1.009310e-001
1.405911e+003;1.032792e-001
1.407840e+003;1.065056e-001
1.409769e+003;1.103676e-001
1.411697e+003;1.146108e-001
1.413626e+003;1.186759e-001
1.415554e+003;1.216386e-001
1.417483e+003;1.229055e-001
1.419411e+003;1.229796e-001
1.421340e+003;1.222209e-001
1.423268e+003;1.211182e-001
1.425197e+003;1.208627e-001
1.427125e+003;1.220083e-001
1.429054e+003;1.242854e-001
1.430983e+003;1.265868e-001
1.432911e+003;1.287651e-001
1.434840e+003;1.306314e-001
1.436768e+003;1.316897e-001
1.438697e+003;1.322348e-001
1.440625e+003;1.325752e-001
1.442554e+003;1.330126e-001
1.444482e+003;1.337396e-001
1.446411e+003;1.345436e-001
1.448340e+003;1.357993e-001
1.450268e+003;1.380179e-001
1.452197e+003;1.404727e-001
1.454125e+003;1.427765e-001
1.456054e+003;1.455853e-001
1.457982e+003;1.488462e-001
1.459911e+003;1.522583e-001
1.461839e+003;1.548340e-001
1.463768e+003;1.546067e-001
1.465697e+003;1.517565e-001
1.467625e+003;1.480408e-001
1.469554e+003;1.451825e-001
1.471482e+003;1.442399e-001
1.473411e+003;1.445411e-001
1.475339e+003;1.447041e-001
1.477268e+003;1.437981e-001
1.479196e+003;1.416849e-001
1.481125e+003;1.383772e-001
1.483053e+003;1.348483e-001
1.484982e+003;1.324135e-001
1.486911e+003;1.313228e-001
1.488839e+003;1.312912e-001
1.490768e+003;1.320350e-001
1.492696e+003;1.335977e-001
1.494625e+003;1.357647e-001
1.496553e+003;1.379787e-001
1.498482e+003;1.403455e-001
1.500410e+003;1.430158e-001
1.502339e+003;1.457162e-001
1.504267e+003;1.487536e-001
1.506196e+003;1.520100e-001
1.508125e+003;1.554442e-001
1.510053e+003;1.592365e-001
1.511982e+003;1.632247e-001
1.513910e+003;1.672643e-001
1.515839e+003;1.715363e-001
1.517767e+003;1.757817e-001
1.519696e+003;1.803317e-001
1.521624e+003;1.853196e-001
1.523553e+003;1.901029e-001
1.525481e+003;1.947996e-001
1.527410e+003;1.996268e-001
1.529339e+003;2.043693e-001
1.531267e+003;2.087338e-001
1.533196e+003;2.124422e-001
1.535124e+003;2.153780e-001
1.537053e+003;2.170770e-001
1.538981e+003;2.172608e-001
1.540910e+003;2.161024e-001
1.542838e+003;2.138349e-001
1.544767e+003;2.103804e-001
1.546695e+003;2.056168e-001
1.548624e+003;2.002354e-001
1.550553e+003;1.945602e-001
1.552481e+003;1.889277e-001
1.554410e+003;1.830455e-001
1.556338e+003;1.771253e-001
1.558267e+003;1.713626e-001
1.560195e+003;1.654904e-001
1.562124e+003;1.597878e-001
1.564052e+003;1.544585e-001
1.565981e+003;1.489932e-001
1.567910e+003;1.438555e-001
1.569838e+003;1.391306e-001
1.571767e+003;1.346102e-001
1.573695e+003;1.307196e-001
1.575624e+003;1.270212e-001
1.577552e+003;1.234747e-001
1.579481e+003;1.207745e-001
1.581409e+003;1.185439e-001
1.583338e+003;1.165446e-001
1.585266e+003;1.148497e-001
1.587195e+003;1.134820e-001
1.589124e+003;1.124026e-001
1.591052e+003;1.118357e-001
1.592981e+003;1.118391e-001
1.594909e+003;1.123134e-001
1.596838e+003;1.130655e-001
1.598766e+003;1.142577e-001
1.600695e+003;1.161087e-001
1.602623e+003;1.186242e-001
1.604552e+003;1.217232e-001
1.606480e+003;1.252106e-001
1.608409e+003;1.290792e-001
1.610338e+003;1.334107e-001
1.612266e+003;1.384490e-001
1.614195e+003;1.441703e-001
1.616123e+003;1.511333e-001
1.618052e+003;1.590226e-001
1.619980e+003;1.669771e-001
1.621909e+003;1.750286e-001
1.623837e+003;1.828517e-001
1.625766e+003;1.906924e-001
1.627694e+003;1.982216e-001
1.629623e+003;2.049980e-001
1.631552e+003;2.114672e-001
1.633480e+003;2.168658e-001
1.635409e+003;2.192065e-001
1.637337e+003;2.179771e-001
1.639266e+003;2.134550e-001
1.641194e+003;2.060411e-001
1.643123e+003;1.964902e-001
1.645051e+003;1.859883e-001
1.646980e+003;1.757571e-001
1.648909e+003;1.661926e-001
1.650837e+003;1.575553e-001
1.652766e+003;1.494296e-001
1.654694e+003;1.420881e-001
1.656623e+003;1.359310e-001
1.658551e+003;1.300390e-001
1.660480e+003;1.241639e-001
1.662408e+003;1.183030e-001
1.664337e+003;1.128474e-001
1.666266e+003;1.075710e-001
1.668194e+003;1.023248e-001
1.670123e+003;9.730379e-002
1.672051e+003;9.285735e-002
1.673980e+003;8.852860e-002
1.675908e+003;8.380505e-002
1.677837e+003;7.897937e-002
1.679765e+003;7.413912e-002
1.681694e+003;6.933235e-002
1.683622e+003;6.474259e-002
1.685551e+003;6.053548e-002
1.687479e+003;5.706201e-002
1.689408e+003;5.401260e-002
1.691337e+003;5.146379e-002
1.693265e+003;4.947398e-002
1.695194e+003;4.776400e-002
1.697122e+003;4.639111e-002
1.699051e+003;4.527808e-002
1.700979e+003;4.425786e-002
1.702908e+003;4.358379e-002
1.704836e+003;4.294971e-002
1.706765e+003;4.225740e-002
1.708693e+003;4.190447e-002
1.710622e+003;4.176407e-002
1.712551e+003;4.138756e-002
1.714479e+003;4.100788e-002
1.716408e+003;4.076735e-002
1.718336e+003;4.062241e-002
1.720265e+003;4.051688e-002
1.722193e+003;4.043213e-002
1.724122e+003;4.039417e-002
1.726050e+003;4.029788e-002
1.727979e+003;3.990593e-002
1.729908e+003;3.940623e-002
1.731836e+003;3.913951e-002
1.733765e+003;3.892835e-002
1.735693e+003;3.876968e-002
1.737622e+003;3.837400e-002
1.739550e+003;3.772041e-002
1.741479e+003;3.713839e-002
1.743407e+003;3.648035e-002
1.745336e+003;3.584962e-002
1.747265e+003;3.512709e-002
1.749193e+003;3.432372e-002
1.751122e+003;3.376110e-002
1.753050e+003;3.325057e-002
1.754979e+003;3.270962e-002
1.756907e+003;3.214142e-002
1.758836e+003;3.144416e-002
1.760764e+003;3.078758e-002
1.762693e+003;3.034178e-002
1.764621e+003;2.994340e-002
1.766550e+003;2.946539e-002
1.768479e+003;2.916900e-002
1.770407e+003;2.874023e-002
1.772336e+003;2.813611e-002
1.774264e+003;2.789236e-002
1.776193e+003;2.780891e-002
1.778121e+003;2.744144e-002
1.780050e+003;2.703919e-002
1.781978e+003;2.687726e-002
1.783907e+003;2.660134e-002
1.785835e+003;2.608966e-002
1.787764e+003;2.594415e-002
1.789693e+003;2.599604e-002
1.791621e+003;2.584089e-002
1.793550e+003;2.562957e-002
1.795478e+003;2.546886e-002
1.797407e+003;2.522759e-002
1.799335e+003;2.480412e-002
1.801264e+003;2.449264e-002
1.803192e+003;2.428417e-002
1.805121e+003;2.407745e-002
1.807049e+003;2.407942e-002
1.808978e+003;2.411507e-002
1.810907e+003;2.394113e-002
1.812835e+003;2.384027e-002
1.814764e+003;2.384591e-002
1.816692e+003;2.369388e-002
1.818621e+003;2.370738e-002
1.820549e+003;2.381231e-002
1.822478e+003;2.371778e-002
1.824406e+003;2.361981e-002
1.826335e+003;2.356065e-002
1.828264e+003;2.352840e-002
1.830192e+003;2.346957e-002
1.832121e+003;2.325572e-002
1.834049e+003;2.300777e-002
1.835978e+003;2.276206e-002
1.837906e+003;2.272352e-002
1.839835e+003;2.281940e-002
1.841763e+003;2.294426e-002
1.843692e+003;2.276534e-002
1.845620e+003;2.244803e-002
1.847549e+003;2.230412e-002
1.849478e+003;2.221226e-002
1.851406e+003;2.212927e-002
1.853335e+003;2.219221e-002
1.855263e+003;2.230932e-002
1.857192e+003;2.217850e-002
1.859120e+003;2.196909e-002
1.861049e+003;2.186768e-002
1.862977e+003;2.207262e-002
1.864906e+003;2.219876e-002
1.866834e+003;2.201545e-002
1.868763e+003;2.187528e-002
1.870692e+003;2.182503e-002
1.872620e+003;2.182757e-002
1.874549e+003;2.180782e-002
1.876477e+003;2.186385e-002
1.878406e+003;2.171456e-002
1.880334e+003;2.173104e-002
1.882263e+003;2.195741e-002
1.884191e+003;2.189583e-002
1.886120e+003;2.170575e-002
1.888048e+003;2.169833e-002
1.889977e+003;2.174469e-002
1.891906e+003;2.183189e-002
1.893834e+003;2.187085e-002
1.895763e+003;2.184064e-002
1.897691e+003;2.172672e-002
1.899620e+003;2.161854e-002
1.901548e+003;2.158633e-002
1.903477e+003;2.155352e-002
1.905405e+003;2.161422e-002
1.907334e+003;2.169624e-002
1.909262e+003;2.154343e-002
1.911191e+003;2.141886e-002
1.913120e+003;2.134305e-002
1.915048e+003;2.116090e-002
1.916977e+003;2.126594e-002
1.918905e+003;2.124022e-002
1.920834e+003;2.110795e-002
1.922762e+003;2.114778e-002
1.924691e+003;2.122965e-002
1.926619e+003;2.133641e-002
1.928548e+003;2.152748e-002
1.930477e+003;2.172344e-002
1.932405e+003;2.159392e-002
1.934334e+003;2.134065e-002
1.936262e+003;2.117961e-002
1.938191e+003;2.120894e-002
1.940119e+003;2.106900e-002
1.942048e+003;2.093080e-002
1.943976e+003;2.099179e-002
1.945905e+003;2.101112e-002
1.947833e+003;2.096804e-002
1.949762e+003;2.096334e-002
1.951691e+003;2.113738e-002
1.953619e+003;2.126722e-002
1.955548e+003;2.129057e-002
1.957476e+003;2.132642e-002
1.959405e+003;2.142189e-002
1.961333e+003;2.140229e-002
1.963262e+003;2.130870e-002
1.965190e+003;2.123528e-002
1.967119e+003;2.109126e-002
1.969047e+003;2.110440e-002
1.970976e+003;2.128744e-002
1.972905e+003;2.144316e-002
1.974833e+003;2.146196e-002
1.976762e+003;2.158034e-002
1.978690e+003;2.165106e-002
1.980619e+003;2.167426e-002
1.982547e+003;2.159764e-002
1.984476e+003;2.154189e-002
1.986404e+003;2.172034e-002
1.988333e+003;2.182789e-002
1.990261e+003;2.174229e-002
1.992190e+003;2.172414e-002
1.994119e+003;2.195337e-002
1.996047e+003;2.206808e-002
1.997976e+003;2.203281e-002
1.999904e+003;2.182597e-002
2.001833e+003;2.176702e-002
2.003761e+003;2.189869e-002
2.005690e+003;2.196857e-002
2.007618e+003;2.212094e-002
2.009547e+003;2.222265e-002
2.011476e+003;2.214719e-002
2.013404e+003;2.206704e-002
2.015333e+003;2.226171e-002
2.017261e+003;2.241861e-002
2.019190e+003;2.242123e-002
2.021118e+003;2.226084e-002
2.023047e+003;2.218555e-002
2.024975e+003;2.221533e-002
2.026904e+003;2.208740e-002
2.028833e+003;2.222359e-002
2.030761e+003;2.251646e-002
2.032690e+003;2.263851e-002
2.034618e+003;2.284259e-002
2.036547e+003;2.298133e-002
2.038475e+003;2.307765e-002
2.040404e+003;2.311574e-002
2.042332e+003;2.291136e-002
2.044261e+003;2.270945e-002
2.046189e+003;2.279586e-002
2.048118e+003;2.292247e-002
2.050047e+003;2.305515e-002
2.051975e+003;2.315181e-002
2.053904e+003;2.311700e-002
2.055832e+003;2.318948e-002
2.057761e+003;2.322297e-002
2.059689e+003;2.313370e-002
2.061618e+003;2.315205e-002
2.063546e+003;2.320007e-002
2.065475e+003;2.335417e-002
2.067404e+003;2.337826e-002
2.069332e+003;2.330963e-002
2.071260e+003;2.315583e-002
2.073189e+003;2.299037e-002
2.075118e+003;2.307094e-002
2.077046e+003;2.304355e-002
2.078975e+003;2.294702e-002
2.080903e+003;2.296875e-002
2.082832e+003;2.291349e-002
2.084760e+003;2.280372e-002
2.086689e+003;2.277554e-002
2.088617e+003;2.286826e-002
2.090546e+003;2.281095e-002
2.092475e+003;2.267974e-002
2.094403e+003;2.272037e-002
2.096332e+003;2.281071e-002
2.098260e+003;2.284790e-002
2.100189e+003;2.312706e-002
2.102117e+003;2.329578e-002
2.104046e+003;2.309275e-002
2.105974e+003;2.309324e-002
2.107903e+003;2.319287e-002
2.109832e+003;2.315216e-002
2.111760e+003;2.317840e-002
2.113688e+003;2.328425e-002
2.115617e+003;2.323901e-002
2.117546e+003;2.311378e-002
2.119474e+003;2.330575e-002
2.121403e+003;2.350661e-002
2.123331e+003;2.347020e-002
2.125260e+003;2.341774e-002
2.127188e+003;2.329711e-002
2.129117e+003;2.343484e-002
2.131045e+003;2.377157e-002
2.132974e+003;2.376142e-002
2.134903e+003;2.353294e-002
2.136831e+003;2.345988e-002
2.138760e+003;2.354855e-002
2.140688e+003;2.361813e-002
2.142617e+003;2.383422e-002
2.144545e+003;2.377500e-002
2.146474e+003;2.353336e-002
2.148402e+003;2.347027e-002
2.150331e+003;2.345044e-002
2.152260e+003;2.345516e-002
2.154188e+003;2.346170e-002
2.156117e+003;2.359140e-002
2.158045e+003;2.373653e-002
2.159974e+003;2.378053e-002
2.161902e+003;2.379803e-002
2.163831e+003;2.394246e-002
2.165759e+003;2.423106e-002
2.167688e+003;2.441054e-002
2.169616e+003;2.414943e-002
2.171545e+003;2.392349e-002
2.173474e+003;2.392573e-002
2.175402e+003;2.400412e-002
2.177331e+003;2.400875e-002
2.179259e+003;2.421988e-002
2.181188e+003;2.439474e-002
2.183116e+003;2.440546e-002
2.185045e+003;2.432566e-002
2.186973e+003;2.435608e-002
2.188902e+003;2.444398e-002
2.190831e+003;2.454477e-002
2.192759e+003;2.454372e-002
2.194688e+003;2.427272e-002
2.196616e+003;2.404292e-002
2.198545e+003;2.411167e-002
2.200473e+003;2.414288e-002
2.202402e+003;2.404324e-002
2.204330e+003;2.419052e-002
2.206259e+003;2.437697e-002
2.208188e+003;2.432093e-002
2.210116e+003;2.417665e-002
2.212044e+003;2.412708e-002
2.213973e+003;2.403315e-002
2.215902e+003;2.397387e-002
2.217830e+003;2.391858e-002
2.219759e+003;2.384913e-002
2.221687e+003;2.386331e-002
2.223616e+003;2.386296e-002
2.225544e+003;2.372341e-002
2.227473e+003;2.349317e-002
2.229401e+003;2.342298e-002
2.231330e+003;2.348072e-002
2.233259e+003;2.348030e-002
2.235187e+003;2.364031e-002
2.237116e+003;2.357240e-002
2.239044e+003;2.348642e-002
2.240973e+003;2.346537e-002
2.242901e+003;2.354610e-002
2.244830e+003;2.368264e-002
2.246758e+003;2.363363e-002
2.248687e+003;2.347125e-002
2.250615e+003;2.327830e-002
2.252544e+003;2.343690e-002
2.254473e+003;2.368215e-002
2.256401e+003;2.348083e-002
2.258330e+003;2.359497e-002
2.260258e+003;2.393392e-002
2.262187e+003;2.398574e-002
2.264115e+003;2.410432e-002
2.266044e+003;2.414719e-002
2.267972e+003;2.425530e-002
2.269901e+003;2.431907e-002
2.271830e+003;2.416499e-002
2.273758e+003;2.425173e-002
2.275687e+003;2.434532e-002
2.277615e+003;2.436344e-002
2.279544e+003;2.453895e-002
2.281472e+003;2.450228e-002
2.283401e+003;2.455077e-002
2.285329e+003;2.450249e-002
2.287258e+003;2.453604e-002
2.289187e+003;2.463615e-002
2.291115e+003;2.472253e-002
2.293043e+003;2.476501e-002
2.294972e+003;2.472313e-002
2.296901e+003;2.465067e-002
2.298829e+003;2.466136e-002
2.300758e+003;2.456973e-002
2.302686e+003;2.454873e-002
2.304615e+003;2.478872e-002
2.306543e+003;2.497567e-002
2.308472e+003;2.489625e-002
2.310400e+003;2.497623e-002
2.312329e+003;2.517225e-002
2.314258e+003;2.523018e-002
2.316186e+003;2.539220e-002
2.318115e+003;2.545414e-002
2.320043e+003;2.531767e-002
2.321972e+003;2.531229e-002
2.323900e+003;2.542256e-002
2.325829e+003;2.527440e-002
2.327757e+003;2.510164e-002
2.329686e+003;2.499852e-002
2.331615e+003;2.497679e-002
2.333543e+003;2.508837e-002
2.335472e+003;2.517959e-002
2.337400e+003;2.530625e-002
2.339329e+003;2.513475e-002
2.341257e+003;2.480865e-002
2.343186e+003;2.461370e-002
2.345114e+003;2.466308e-002
2.347043e+003;2.490439e-002
2.348971e+003;2.507307e-002
2.350900e+003;2.496816e-002
2.352829e+003;2.499666e-002
2.354757e+003;2.505053e-002
2.356686e+003;2.503583e-002
2.358614e+003;2.497216e-002
2.360543e+003;2.495710e-002
2.362471e+003;2.511691e-002
2.364400e+003;2.510737e-002
2.366328e+003;2.494861e-002
2.368257e+003;2.492110e-002
2.370186e+003;2.509452e-002
2.372114e+003;2.528824e-002
2.374042e+003;2.547276e-002
2.375971e+003;2.569737e-002
2.377900e+003;2.569618e-002
2.379828e+003;2.544121e-002
2.381757e+003;2.528125e-002
2.383685e+003;2.552853e-002
2.385614e+003;2.597760e-002
2.387542e+003;2.611052e-002
2.389471e+003;2.606907e-002
2.391399e+003;2.623345e-002
2.393328e+003;2.626248e-002
2.395257e+003;2.607632e-002
2.397185e+003;2.595509e-002
2.399114e+003;2.613797e-002
2.401042e+003;2.641965e-002
2.402971e+003;2.652931e-002
2.404899e+003;2.672257e-002
2.406828e+003;2.685967e-002
2.408756e+003;2.684793e-002
2.410685e+003;2.674770e-002
2.412614e+003;2.679422e-002
2.414542e+003;2.675905e-002
2.416471e+003;2.656467e-002
2.418399e+003;2.657510e-002
2.420328e+003;2.692791e-002
2.422256e+003;2.723935e-002
2.424185e+003;2.715448e-002
2.426113e+003;2.688663e-002
2.428042e+003;2.682315e-002
2.429970e+003;2.696289e-002
2.431899e+003;2.717261e-002
2.433828e+003;2.711113e-002
2.435756e+003;2.699106e-002
2.437685e+003;2.700809e-002
2.439613e+003;2.724997e-002
2.441542e+003;2.760549e-002
2.443470e+003;2.772177e-002
2.445399e+003;2.761791e-002
2.447327e+003;2.769271e-002
2.449256e+003;2.767233e-002
2.451185e+003;2.765037e-002
2.453113e+003;2.773654e-002
2.455042e+003;2.774812e-002
2.456970e+003;2.800084e-002
2.458899e+003;2.847296e-002
2.460827e+003;2.861447e-002
2.462756e+003;2.835329e-002
2.464684e+003;2.813805e-002
2.466613e+003;2.815386e-002
2.468542e+003;2.853032e-002
2.470470e+003;2.884128e-002
2.472398e+003;2.856482e-002
2.474327e+003;2.833837e-002
2.476256e+003;2.842835e-002
2.478184e+003;2.869456e-002
2.480113e+003;2.901956e-002
2.482041e+003;2.890551e-002
2.483970e+003;2.880771e-002
2.485898e+003;2.896041e-002
2.487827e+003;2.897776e-002
2.489755e+003;2.884255e-002
2.491684e+003;2.856269e-002
2.493613e+003;2.862962e-002
2.495541e+003;2.886766e-002
2.497470e+003;2.895109e-002
2.499398e+003;2.898612e-002
2.501327e+003;2.902764e-002
2.503255e+003;2.913148e-002
2.505184e+003;2.939543e-002
2.507112e+003;2.951560e-002
2.509041e+003;2.955305e-002
2.510969e+003;2.967188e-002
2.512898e+003;3.001228e-002
2.514827e+003;3.030156e-002
2.516755e+003;3.049591e-002
2.518684e+003;3.047810e-002
2.520612e+003;3.041217e-002
2.522541e+003;3.062413e-002
2.524469e+003;3.081482e-002
2.526398e+003;3.093781e-002
2.528326e+003;3.136388e-002
2.530255e+003;3.171622e-002
2.532184e+003;3.170318e-002
2.534112e+003;3.156597e-002
2.536041e+003;3.157602e-002
2.537969e+003;3.182834e-002
2.539898e+003;3.202911e-002
2.541826e+003;3.206878e-002
2.543755e+003;3.203935e-002
2.545683e+003;3.202897e-002
2.547612e+003;3.207053e-002
2.549541e+003;3.212329e-002
2.551469e+003;3.224040e-002
2.553397e+003;3.237468e-002
2.555326e+003;3.242416e-002
2.557255e+003;3.233184e-002
2.559183e+003;3.236983e-002
2.561112e+003;3.245611e-002
2.563040e+003;3.256239e-002
2.564969e+003;3.274135e-002
2.566897e+003;3.288768e-002
2.568826e+003;3.302262e-002
2.570754e+003;3.300711e-002
2.572683e+003;3.292106e-002
2.574612e+003;3.287346e-002
2.576540e+003;3.318422e-002
2.578469e+003;3.371594e-002
2.580397e+003;3.395016e-002
2.582326e+003;3.385407e-002
2.584254e+003;3.370495e-002
2.586183e+003;3.381210e-002
2.588111e+003;3.382703e-002
2.590040e+003;3.356639e-002
2.591969e+003;3.355912e-002
2.593897e+003;3.374061e-002
2.595826e+003;3.399742e-002
2.597754e+003;3.412611e-002
2.599683e+003;3.410514e-002
2.601611e+003;3.417289e-002
2.603540e+003;3.437686e-002
2.605468e+003;3.455801e-002
2.607397e+003;3.466954e-002
2.609325e+003;3.463835e-002
2.611254e+003;3.471705e-002
2.613183e+003;3.474903e-002
2.615111e+003;3.494014e-002
2.617040e+003;3.506994e-002
2.618968e+003;3.490003e-002
2.620897e+003;3.496801e-002
2.622825e+003;3.517966e-002
2.624754e+003;3.533227e-002
2.626682e+003;3.556057e-002
2.628611e+003;3.545446e-002
2.630540e+003;3.538803e-002
2.632468e+003;3.583260e-002
2.634396e+003;3.594603e-002
2.636325e+003;3.568404e-002
2.638254e+003;3.544756e-002
2.640182e+003;3.564559e-002
2.642111e+003;3.585048e-002
2.644039e+003;3.584346e-002
2.645968e+003;3.594045e-002
2.647896e+003;3.611253e-002
2.649825e+003;3.611606e-002
2.651753e+003;3.610997e-002
2.653682e+003;3.622824e-002
2.655611e+003;3.628752e-002
2.657539e+003;3.631702e-002
2.659468e+003;3.653560e-002
2.661396e+003;3.660160e-002
2.663325e+003;3.660744e-002
2.665253e+003;3.676262e-002
2.667182e+003;3.707173e-002
2.669110e+003;3.716965e-002
2.671039e+003;3.709923e-002
2.672968e+003;3.724340e-002
2.674896e+003;3.721820e-002
2.676825e+003;3.689109e-002
2.678753e+003;3.689845e-002
2.680682e+003;3.734647e-002
2.682610e+003;3.767755e-002
2.684539e+003;3.779490e-002
2.686467e+003;3.805317e-002
2.688396e+003;3.820257e-002
2.690324e+003;3.821874e-002
2.692253e+003;3.854360e-002
2.694182e+003;3.884301e-002
2.696110e+003;3.877355e-002
2.698039e+003;3.881909e-002
2.699967e+003;3.905213e-002
2.701896e+003;3.960532e-002
2.703824e+003;3.996492e-002
2.705753e+003;4.005117e-002
2.707681e+003;3.999286e-002
2.709610e+003;4.000423e-002
2.711539e+003;4.011833e-002
2.713467e+003;4.037999e-002
2.715396e+003;4.060258e-002
2.717324e+003;4.058763e-002
2.719253e+003;4.081371e-002
2.721181e+003;4.122686e-002
2.723110e+003;4.150486e-002
2.725038e+003;4.173420e-002
2.726967e+003;4.213778e-002
2.728896e+003;4.258880e-002
2.730824e+003;4.280372e-002
2.732752e+003;4.313846e-002
2.734681e+003;4.333868e-002
2.736610e+003;4.349383e-002
2.738538e+003;4.380580e-002
2.740467e+003;4.381811e-002
2.742395e+003;4.386455e-002
2.744324e+003;4.401124e-002
2.746252e+003;4.400075e-002
2.748181e+003;4.402722e-002
2.750109e+003;4.437737e-002
2.752038e+003;4.450661e-002
2.753967e+003;4.439799e-002
2.755895e+003;4.450360e-002
2.757824e+003;4.470371e-002
2.759752e+003;4.494411e-002
2.761681e+003;4.507168e-002
2.763609e+003;4.506837e-002
2.765538e+003;4.499336e-002
2.767466e+003;4.496028e-002
2.769395e+003;4.508429e-002
2.771323e+003;4.541929e-002
2.773252e+003;4.608542e-002
2.775181e+003;4.640582e-002
2.777109e+003;4.636043e-002
2.779038e+003;4.633035e-002
2.780966e+003;4.662968e-002
2.782895e+003;4.710538e-002
2.784823e+003;4.747546e-002
2.786752e+003;4.778845e-002
2.788680e+003;4.794342e-002
2.790609e+003;4.794735e-002
2.792538e+003;4.817767e-002
2.794466e+003;4.870495e-002
2.796395e+003;4.908523e-002
2.798323e+003;4.931156e-002
2.800252e+003;4.972094e-002
2.802180e+003;5.012517e-002
2.804109e+003;5.078277e-002
2.806037e+003;5.149192e-002
2.807966e+003;5.182522e-002
2.809895e+003;5.196445e-002
2.811823e+003;5.245399e-002
2.813751e+003;5.337628e-002
2.815680e+003;5.388643e-002
2.817609e+003;5.405144e-002
2.819537e+003;5.432092e-002
2.821466e+003;5.485147e-002
2.823394e+003;5.560345e-002
2.825323e+003;5.623309e-002
2.827251e+003;5.658563e-002
2.829180e+003;5.683116e-002
2.831108e+003;5.714447e-002
2.833037e+003;5.811401e-002
2.834966e+003;5.953358e-002
2.836894e+003;6.076492e-002
2.838823e+003;6.203469e-002
2.840751e+003;6.401833e-002
2.842680e+003;6.659631e-002
2.844608e+003;6.911245e-002
2.846537e+003;7.165872e-002
2.848465e+003;7.436784e-002
2.850394e+003;7.657187e-002
2.852323e+003;7.874285e-002
2.854251e+003;8.081094e-002
2.856180e+003;8.222663e-002
2.858108e+003;8.311950e-002
2.860037e+003;8.354484e-002
2.861965e+003;8.345148e-002
2.863894e+003;8.305956e-002
2.865822e+003;8.250348e-002
2.867751e+003;8.164391e-002
2.869679e+003;8.056082e-002
2.871608e+003;7.899996e-002
2.873536e+003;7.731815e-002
2.875465e+003;7.584123e-002
2.877394e+003;7.447040e-002
2.879322e+003;7.322200e-002
2.881251e+003;7.206063e-002
2.883179e+003;7.133957e-002
2.885108e+003;7.134476e-002
2.887036e+003;7.170003e-002
2.888965e+003;7.215659e-002
2.890893e+003;7.292674e-002
2.892822e+003;7.411346e-002
2.894750e+003;7.518506e-002
2.896679e+003;7.617572e-002
2.898608e+003;7.723846e-002
2.900536e+003;7.811417e-002
2.902465e+003;7.878933e-002
2.904393e+003;7.936691e-002
2.906322e+003;8.023059e-002
2.908250e+003;8.151010e-002
2.910179e+003;8.278544e-002
2.912107e+003;8.384786e-002
2.914036e+003;8.527164e-002
2.915965e+003;8.714433e-002
2.917893e+003;8.936329e-002
2.919822e+003;9.116966e-002
2.921750e+003;9.276253e-002
2.923679e+003;9.462675e-002
2.925607e+003;9.649099e-002
2.927536e+003;9.785590e-002
2.929464e+003;9.888273e-002
2.931393e+003;9.952173e-002
2.933322e+003;9.973920e-002
2.935250e+003;9.933022e-002
2.937178e+003;9.827700e-002
2.939107e+003;9.713746e-002
2.941036e+003;9.561591e-002
2.942964e+003;9.338079e-002
2.944893e+003;9.105920e-002
2.946821e+003;8.869728e-002
2.948750e+003;8.578017e-002
2.950678e+003;8.223652e-002
2.952607e+003;7.877030e-002
2.954535e+003;7.582317e-002
2.956464e+003;7.341508e-002
2.958393e+003;7.136917e-002
2.960321e+003;6.893696e-002
2.962250e+003;6.684173e-002
2.964178e+003;6.524730e-002
2.966107e+003;6.338882e-002
2.968035e+003;6.191855e-002
2.969964e+003;6.054336e-002
2.971892e+003;5.893105e-002
2.973821e+003;5.740358e-002
2.975750e+003;5.615514e-002
2.977678e+003;5.533697e-002
2.979607e+003;5.450427e-002
2.981535e+003;5.345722e-002
2.983464e+003;5.274074e-002
2.985392e+003;5.249669e-002
2.987321e+003;5.211820e-002
2.989249e+003;5.165897e-002
2.991178e+003;5.112388e-002
2.993106e+003;5.081741e-002
2.995035e+003;5.061037e-002
2.996964e+003;4.991366e-002
2.998892e+003;4.958034e-002
3.000821e+003;4.984821e-002
3.002749e+003;4.952448e-002
3.004678e+003;4.940974e-002
3.006606e+003;5.000001e-002
3.008535e+003;5.013074e-002
3.010463e+003;4.985541e-002
3.012392e+003;5.010416e-002
3.014321e+003;5.027175e-002
3.016249e+003;5.023503e-002
3.018177e+003;5.059503e-002
3.020106e+003;5.093464e-002
3.022035e+003;5.106756e-002
3.023963e+003;5.133676e-002
3.025892e+003;5.164829e-002
3.027820e+003;5.214435e-002
3.029749e+003;5.254273e-002
3.031677e+003;5.264411e-002
3.033606e+003;5.291329e-002
3.035534e+003;5.333020e-002
3.037463e+003;5.374414e-002
3.039392e+003;5.415581e-002
3.041320e+003;5.476321e-002
3.043249e+003;5.544805e-002
3.045177e+003;5.601719e-002
3.047106e+003;5.639114e-002
3.049034e+003;5.671531e-002
3.050963e+003;5.709243e-002
3.052891e+003;5.739745e-002
3.054820e+003;5.758223e-002
3.056749e+003;5.783732e-002
3.058677e+003;5.854372e-002
3.060606e+003;5.895815e-002
3.062534e+003;5.922674e-002
3.064463e+003;5.975636e-002
3.066391e+003;5.984082e-002
3.068320e+003;6.000616e-002
3.070248e+003;6.039103e-002
3.072177e+003;6.027708e-002
3.074105e+003;6.004660e-002
3.076034e+003;6.018268e-002
3.077963e+003;6.020708e-002
3.079891e+003;6.002686e-002
3.081820e+003;6.001933e-002
3.083748e+003;6.015680e-002
3.085677e+003;6.004664e-002
3.087605e+003;5.962293e-002
3.089534e+003;5.921318e-002
3.091462e+003;5.894923e-002
3.093391e+003;5.867455e-002
3.095320e+003;5.845247e-002
3.097248e+003;5.819322e-002
3.099177e+003;5.785977e-002
3.101105e+003;5.738070e-002
3.103034e+003;5.703658e-002
3.104962e+003;5.680933e-002
3.106891e+003;5.644762e-002
3.108819e+003;5.631667e-002
3.110748e+003;5.622090e-002
3.112677e+003;5.588361e-002
3.114605e+003;5.551936e-002
3.116533e+003;5.519766e-002
3.118462e+003;5.485151e-002
3.120391e+003;5.440556e-002
3.122319e+003;5.422818e-002
3.124248e+003;5.447678e-002
3.126176e+003;5.456254e-002
3.128105e+003;5.454961e-002
3.130033e+003;5.476321e-002
3.131962e+003;5.462874e-002
3.133890e+003;5.464697e-002
3.135819e+003;5.481910e-002
3.137748e+003;5.458557e-002
3.139676e+003;5.440515e-002
3.141605e+003;5.452737e-002
3.143533e+003;5.511449e-002
3.145462e+003;5.575641e-002
3.147390e+003;5.560043e-002
3.149319e+003;5.541395e-002
3.151247e+003;5.580637e-002
3.153176e+003;5.641611e-002
3.155104e+003;5.663659e-002
3.157033e+003;5.665637e-002
3.158962e+003;5.688887e-002
3.160890e+003;5.733616e-002
3.162819e+003;5.760704e-002
3.164747e+003;5.784126e-002
3.166676e+003;5.806833e-002
3.168604e+003;5.862415e-002
3.170533e+003;5.923206e-002
3.172461e+003;5.977423e-002
3.174390e+003;6.032885e-002
3.176319e+003;6.065323e-002
3.178247e+003;6.063422e-002
3.180176e+003;6.065971e-002
3.182104e+003;6.111170e-002
3.184033e+003;6.172192e-002
3.185961e+003;6.215518e-002
3.187890e+003;6.219537e-002
3.189818e+003;6.234990e-002
3.191747e+003;6.254709e-002
3.193676e+003;6.260667e-002
3.195604e+003;6.300037e-002
3.197532e+003;6.338594e-002
3.199461e+003;6.330255e-002
3.201390e+003;6.353392e-002
3.203318e+003;6.384282e-002
3.205247e+003;6.428096e-002
3.207175e+003;6.477313e-002
3.209104e+003;6.527887e-002
3.211032e+003;6.562181e-002
3.212961e+003;6.614367e-002
3.214889e+003;6.630305e-002
3.216818e+003;6.613942e-002
3.218747e+003;6.625342e-002
3.220675e+003;6.687585e-002
3.222604e+003;6.749644e-002
3.224532e+003;6.801157e-002
3.226461e+003;6.868240e-002
3.228389e+003;6.953444e-002
3.230318e+003;7.040826e-002
3.232246e+003;7.090961e-002
3.234175e+003;7.126316e-002
3.236104e+003;7.173169e-002
3.238032e+003;7.237694e-002
3.239961e+003;7.336144e-002
3.241889e+003;7.458983e-002
3.243818e+003;7.562077e-002
3.245746e+003;7.628448e-002
3.247675e+003;7.735544e-002
3.249603e+003;7.856403e-002
3.251532e+003;7.938295e-002
3.253460e+003;8.040325e-002
3.255389e+003;8.167227e-002
3.257318e+003;8.233936e-002
3.259246e+003;8.336090e-002
3.261175e+003;8.459250e-002
3.263103e+003;8.544292e-002
3.265032e+003;8.649893e-002
3.266960e+003;8.762906e-002
3.268889e+003;8.847266e-002
3.270817e+003;8.943062e-002
3.272746e+003;9.076463e-002
3.274675e+003;9.204599e-002
3.276603e+003;9.296975e-002
3.278531e+003;9.350385e-002
3.280460e+003;9.439576e-002
3.282389e+003;9.552246e-002
3.284317e+003;9.623618e-002
3.286246e+003;9.660888e-002
3.288174e+003;9.723502e-002
3.290103e+003;9.784769e-002
3.292031e+003;9.833076e-002
3.293960e+003;9.842510e-002
3.295888e+003;9.824575e-002
3.297817e+003;9.798995e-002
3.299746e+003;9.743783e-002
3.301674e+003;9.668525e-002
3.303603e+003;9.529673e-002
3.305531e+003;9.379806e-002
3.307460e+003;9.271125e-002
3.309388e+003;9.116198e-002
3.311317e+003;8.954634e-002
3.313245e+003;8.826113e-002
3.315174e+003;8.676100e-002
3.317103e+003;8.524172e-002
3.319031e+003;8.357774e-002
3.320960e+003;8.157594e-002
3.322888e+003;8.030382e-002
3.324817e+003;7.954452e-002
3.326745e+003;7.812920e-002
3.328674e+003;7.698025e-002
3.330602e+003;7.609864e-002
3.332531e+003;7.495465e-002
3.334459e+003;7.357287e-002
3.336388e+003;7.186174e-002
3.338317e+003;7.051340e-002
3.340245e+003;6.986149e-002
3.342174e+003;6.921996e-002
3.344102e+003;6.817955e-002
3.346031e+003;6.697713e-002
3.347959e+003;6.614791e-002
3.349888e+003;6.548545e-002
3.351816e+003;6.467499e-002
3.353745e+003;6.364163e-002
3.355674e+003;6.295582e-002
3.357602e+003;6.231617e-002
3.359531e+003;6.166368e-002
3.361459e+003;6.122393e-002
3.363388e+003;6.052234e-002
3.365316e+003;5.977948e-002
3.367245e+003;5.927030e-002
3.369173e+003;5.854198e-002
3.371102e+003;5.793526e-002
3.373031e+003;5.816386e-002
3.374959e+003;5.793409e-002
3.376887e+003;5.686602e-002
3.378816e+003;5.610386e-002
3.380745e+003;5.595330e-002
3.382673e+003;5.580407e-002
3.384602e+003;5.541591e-002
3.386530e+003;5.495599e-002
3.388459e+003;5.423937e-002
3.390387e+003;5.381536e-002
3.392316e+003;5.393205e-002
3.394244e+003;5.357509e-002
3.396173e+003;5.315183e-002
3.398102e+003;5.301693e-002
3.400030e+003;5.274523e-002
3.401959e+003;5.247246e-002
3.403887e+003;5.239650e-002
3.405816e+003;5.211084e-002
3.407744e+003;5.167957e-002
3.409673e+003;5.128034e-002
3.411601e+003;5.101036e-002
3.413530e+003;5.048090e-002
3.415458e+003;5.006095e-002
3.417387e+003;4.987225e-002
3.419316e+003;4.986697e-002
3.421244e+003;5.002514e-002
3.423173e+003;4.945727e-002
3.425101e+003;4.879618e-002
3.427030e+003;4.837107e-002
3.428958e+003;4.821736e-002
3.430887e+003;4.813602e-002
3.432815e+003;4.802198e-002
3.434744e+003;4.768053e-002
3.436673e+003;4.720465e-002
3.438601e+003;4.703119e-002
3.440530e+003;4.675147e-002
3.442458e+003;4.639044e-002
3.444387e+003;4.591137e-002
3.446315e+003;4.574645e-002
3.448244e+003;4.554434e-002
3.450172e+003;4.522451e-002
3.452101e+003;4.495400e-002
3.454030e+003;4.485718e-002
3.455958e+003;4.441249e-002
3.457886e+003;4.389399e-002
3.459815e+003;4.373477e-002
3.461744e+003;4.331972e-002
3.463672e+003;4.287649e-002
3.465601e+003;4.249313e-002
3.467529e+003;4.232851e-002
3.469458e+003;4.213329e-002
3.471386e+003;4.204301e-002
3.473315e+003;4.178946e-002
3.475243e+003;4.181369e-002
3.477172e+003;4.192713e-002
3.479101e+003;4.145335e-002
3.481029e+003;4.106829e-002
3.482958e+003;4.115228e-002
3.484886e+003;4.123801e-002
3.486815e+003;4.120442e-002
3.488743e+003;4.093148e-002
3.490672e+003;4.032730e-002
3.492600e+003;3.952652e-002
3.494529e+003;3.928990e-002
3.496458e+003;3.971626e-002
3.498386e+003;3.978024e-002
3.500315e+003;3.934344e-002
3.502243e+003;3.922552e-002
3.504172e+003;3.929261e-002
3.506100e+003;3.886363e-002
3.508029e+003;3.833947e-002
3.509957e+003;3.788228e-002
3.511886e+003;3.776652e-002
3.513814e+003;3.794855e-002
3.515743e+003;3.776251e-002
3.517672e+003;3.770888e-002
3.519600e+003;3.739519e-002
3.521529e+003;3.650745e-002
3.523457e+003;3.608030e-002
3.525386e+003;3.635089e-002
3.527314e+003;3.671650e-002
3.529243e+003;3.636040e-002
3.531171e+003;3.557650e-002
3.533100e+003;3.500981e-002
3.535029e+003;3.477642e-002
3.536957e+003;3.476515e-002
3.538885e+003;3.464453e-002
3.540814e+003;3.409837e-002
3.542743e+003;3.359095e-002
3.544671e+003;3.317356e-002
3.546600e+003;3.278773e-002
3.548528e+003;3.262914e-002
3.550457e+003;3.248004e-002
3.552385e+003;3.194480e-002
3.554314e+003;3.146023e-002
3.556242e+003;3.158083e-002
3.558171e+003;3.141275e-002
3.560100e+003;3.079145e-002
3.562028e+003;3.054379e-002
3.563957e+003;3.049872e-002
3.565885e+003;3.021019e-002
3.567814e+003;2.986173e-002
3.569742e+003;2.965439e-002
3.571671e+003;2.952858e-002
3.573599e+003;2.938717e-002
3.575528e+003;2.922060e-002
3.577457e+003;2.889638e-002
3.579385e+003;2.857643e-002
3.581314e+003;2.840080e-002
3.583242e+003;2.777882e-002
3.585171e+003;2.743085e-002
3.587099e+003;2.739736e-002
3.589028e+003;2.698401e-002
3.590956e+003;2.666578e-002
3.592885e+003;2.630490e-002
3.594813e+003;2.620789e-002
3.596742e+003;2.560774e-002
3.598671e+003;2.497644e-002
3.600599e+003;2.510379e-002
3.602528e+003;2.500480e-002
3.604456e+003;2.451504e-002
3.606385e+003;2.444325e-002
3.608313e+003;2.452721e-002
3.610242e+003;2.425369e-002
3.612170e+003;2.376747e-002
3.614099e+003;2.355068e-002
3.616028e+003;2.315561e-002
3.617956e+003;2.283885e-002
3.619885e+003;2.241718e-002
3.621813e+003;2.197285e-002
3.623742e+003;2.151432e-002
3.625670e+003;2.120459e-002
3.627599e+003;2.110093e-002
3.629527e+003;2.111202e-002
3.631456e+003;2.088330e-002
3.633385e+003;2.052112e-002
3.635313e+003;2.017073e-002
3.637241e+003;1.992201e-002
3.639170e+003;1.967467e-002
3.641099e+003;1.965286e-002
3.643027e+003;1.982655e-002
3.644956e+003;1.986141e-002
3.646884e+003;1.975147e-002
3.648813e+003;1.927293e-002
3.650741e+003;1.893898e-002
3.652670e+003;1.863655e-002
3.654598e+003;1.818702e-002
3.656527e+003;1.814480e-002
3.658456e+003;1.793148e-002
3.660384e+003;1.760112e-002
3.662313e+003;1.769153e-002
3.664241e+003;1.784389e-002
3.666170e+003;1.761930e-002
3.668098e+003;1.749289e-002
3.670027e+003;1.719298e-002
3.671955e+003;1.677521e-002
3.673884e+003;1.648258e-002
3.675813e+003;1.634559e-002
3.677741e+003;1.604458e-002
3.679669e+003;1.547931e-002
3.681598e+003;1.540464e-002
3.683527e+003;1.540653e-002
3.685455e+003;1.528240e-002
3.687384e+003;1.500556e-002
3.689312e+003;1.453325e-002
3.691241e+003;1.441033e-002
3.693169e+003;1.429423e-002
3.695098e+003;1.443123e-002
3.697026e+003;1.441886e-002
3.698955e+003;1.432971e-002
3.700884e+003;1.405299e-002
3.702812e+003;1.382536e-002
3.704741e+003;1.395947e-002
3.706669e+003;1.416321e-002
3.708598e+003;1.410139e-002
3.710526e+003;1.401182e-002
3.712455e+003;1.398575e-002
3.714383e+003;1.389217e-002
3.716312e+003;1.361614e-002
3.718240e+003;1.393709e-002
3.720169e+003;1.404971e-002
3.722098e+003;1.360657e-002
3.724026e+003;1.378722e-002
3.725955e+003;1.405388e-002
3.727883e+003;1.399444e-002
3.729812e+003;1.424359e-002
3.731740e+003;1.419008e-002
3.733669e+003;1.399923e-002
3.735597e+003;1.393548e-002
3.737526e+003;1.413579e-002
3.739455e+003;1.427112e-002
3.741383e+003;1.395968e-002
3.743312e+003;1.347213e-002
3.745240e+003;1.330978e-002
3.747169e+003;1.372139e-002
3.749097e+003;1.422589e-002
3.751026e+003;1.421083e-002
3.752954e+003;1.421535e-002
3.754883e+003;1.443184e-002
3.756812e+003;1.453489e-002
3.758740e+003;1.405806e-002
3.760668e+003;1.353163e-002
3.762597e+003;1.398335e-002
3.764526e+003;1.447418e-002
3.766454e+003;1.432790e-002
3.768383e+003;1.418553e-002
3.770311e+003;1.399413e-002
3.772240e+003;1.386018e-002
3.774168e+003;1.398510e-002
3.776097e+003;1.396748e-002
3.778025e+003;1.403434e-002
3.779954e+003;1.414079e-002
3.781883e+003;1.409006e-002
3.783811e+003;1.397278e-002
3.785740e+003;1.361830e-002
3.787668e+003;1.341632e-002
3.789597e+003;1.372826e-002
3.791525e+003;1.391578e-002
3.793454e+003;1.367057e-002
3.795382e+003;1.364247e-002
3.797311e+003;1.375966e-002
3.799240e+003;1.408893e-002
3.801168e+003;1.403735e-002
3.803097e+003;1.384671e-002
3.805025e+003;1.397569e-002
3.806954e+003;1.450759e-002
3.808882e+003;1.500727e-002
3.810811e+003;1.495017e-002
3.812739e+003;1.487161e-002
3.814668e+003;1.482375e-002
3.816596e+003;1.437019e-002
3.818525e+003;1.403889e-002
3.820454e+003;1.421874e-002
3.822382e+003;1.433827e-002
3.824311e+003;1.444459e-002
3.826239e+003;1.477356e-002
3.828168e+003;1.499074e-002
3.830096e+003;1.489880e-002
3.832025e+003;1.476694e-002
3.833953e+003;1.468982e-002
3.835882e+003;1.458951e-002
3.837811e+003;1.436862e-002
3.839739e+003;1.444441e-002
3.841667e+003;1.522098e-002
3.843596e+003;1.562276e-002
3.845525e+003;1.526713e-002
3.847453e+003;1.503523e-002
3.849382e+003;1.533217e-002
3.851310e+003;1.552200e-002
3.853239e+003;1.499613e-002
3.855167e+003;1.466017e-002
3.857096e+003;1.484634e-002
3.859024e+003;1.490353e-002
3.860953e+003;1.530152e-002
3.862882e+003;1.545064e-002
3.864810e+003;1.522660e-002
3.866739e+003;1.569356e-002
3.868667e+003;1.584786e-002
3.870596e+003;1.549082e-002
3.872524e+003;1.485299e-002
3.874453e+003;1.468245e-002
3.876381e+003;1.480585e-002
3.878310e+003;1.491636e-002
3.880239e+003;1.531426e-002
3.882167e+003;1.557715e-002
3.884096e+003;1.544728e-002
3.886024e+003;1.574667e-002
3.887953e+003;1.628260e-002
3.889881e+003;1.641141e-002
3.891810e+003;1.629443e-002
3.893738e+003;1.640931e-002
3.895667e+003;1.635763e-002
3.897595e+003;1.627138e-002
3.899524e+003;1.611720e-002
3.901453e+003;1.597122e-002
3.903381e+003;1.600615e-002
3.905310e+003;1.641561e-002
3.907238e+003;1.652704e-002
3.909167e+003;1.627517e-002
3.911095e+003;1.623561e-002
3.913024e+003;1.670813e-002
3.914952e+003;1.679146e-002
3.916881e+003;1.688078e-002
3.918810e+003;1.694875e-002
3.920738e+003;1.646977e-002
3.922667e+003;1.622808e-002
3.924595e+003;1.644768e-002
3.926524e+003;1.658167e-002
3.928452e+003;1.710705e-002
3.930381e+003;1.716537e-002
3.932309e+003;1.659413e-002
3.934238e+003;1.662749e-002
3.936167e+003;1.709495e-002
3.938095e+003;1.733186e-002
3.940023e+003;1.737741e-002
3.941952e+003;1.718526e-002
3.943881e+003;1.739145e-002
3.945809e+003;1.787838e-002
3.947738e+003;1.783995e-002
3.949666e+003;1.762862e-002
3.951595e+003;1.731389e-002
3.953523e+003;1.732969e-002
3.955452e+003;1.783919e-002
3.957380e+003;1.801443e-002
3.959309e+003;1.816477e-002
3.961238e+003;1.798418e-002
3.963166e+003;1.765519e-002
3.965095e+003;1.775900e-002
3.967023e+003;1.805415e-002
3.968952e+003;1.827468e-002
3.970880e+003;1.843275e-002
3.972809e+003;1.823273e-002
3.974737e+003;1.788421e-002
3.976666e+003;1.821905e-002
3.978594e+003;1.856185e-002
3.980523e+003;1.848879e-002
3.982452e+003;1.856469e-002
3.984380e+003;1.840201e-002
3.986309e+003;1.832663e-002
3.988237e+003;1.862064e-002
3.990166e+003;1.852243e-002
3.992094e+003;1.842092e-002
3.994023e+003;1.905148e-002
3.995951e+003;1.992540e-002
3.997880e+003;1.982537e-002
3.999809e+003;1.958873e-002
4.001737e+003;0.000000e+000
