3.992094e+002;0.000000e+000
4.011380e+002;0.000000e+000
4.030665e+002;0.000000e+000
4.049951e+002;0.000000e+000
4.069236e+002;0.000000e+000
4.088522e+002;0.000000e+000
4.107807e+002;0.000000e+000
4.127093e+002;0.000000e+000
4.146378e+002;0.000000e+000
4.165664e+002;0.000000e+000
4.184949e+002;0.000000e+000
4.204235e+002;0.000000e+000
4.223520e+002;0.000000e+000
4.242806e+002;0.000000e+000
4.262091e+002;0.000000e+000
4.281377e+002;0.000000e+000
4.300662e+002;0.000000e+000
4.319948e+002;0.000000e+000
4.339233e+002;0.000000e+000
4.358519e+002;0.000000e+000
4.377804e+002;0.000000e+000
4.397090e+002;0.000000e+000
4.416375e+002;0.000000e+000
4.435660e+002;0.000000e+000
4.454946e+002;0.000000e+000
4.474232e+002;0.000000e+000
4.493517e+002;0.000000e+000
4.512802e+002;0.000000e+000
4.532088e+002;0.000000e+000
4.551373e+002;0.000000e+000
4.570659e+002;0.000000e+000
4.589944e+002;0.000000e+000
4.609230e+002;0.000000e+000
4.628515e+002;0.000000e+000
4.647801e+002;0.000000e+000
4.667086e+002;0.000000e+000
4.686372e+002;0.000000e+000
4.705657e+002;0.000000e+000
4.724943e+002;0.000000e+000
4.744228e+002;0.000000e+000
4.763513e+002;0.000000e+000
4.782799e+002;0.000000e+000
4.802085e+002;0.000000e+000
4.821370e+002;0.000000e+000
4.840656e+002;0.000000e+000
4.859941e+002;0.000000e+000
4.879226e+002;0.000000e+000
4.898512e+002;0.000000e+000
4.917798e+002;0.000000e+000
4.937083e+002;0.000000e+000
4.956368e+002;0.000000e+000
4.975654e+002;0.000000e+000
4.994939e+002;0.000000e+000
5.014225e+002;0.000000e+000
5.033510e+002;0.000000e+000
5.052796e+002;0.000000e+000
5.072081e+002;0.000000e+000
5.091367e+002;0.000000e+000
5.110652e+002;0.000000e+000
5.129938e+002;0.000000e+000
5.149223e+002;0.000000e+000
5.168509e+002;0.000000e+000
5.187794e+002;0.000000e+000
5.207079e+002;0.000000e+000
5.226365e+002;0.000000e+000
5.245651e+002;0.000000e+000
5.264936e+002;0.000000e+000
5.284222e+002;0.000000e+000
5.303507e+002;0.000000e+000
5.322792e+002;0.000000e+000
5.342078e+002;0.000000e+000
5.361364e+002;0.000000e+000
5.380649e+002;0.000000e+000
5.399935e+002;0.000000e+000
5.419220e+002;0.000000e+000
5.438505e+002;0.000000e+000
5.457791e+002;0.000000e+000
5.477076e+002;0.000000e+000
5.496362e+002;0.000000e+000
5.515648e+002;0.000000e+000
5.534933e+002;0.000000e+000
5.554218e+002;0.000000e+000
5.573504e+002;0.000000e+000
5.592789e+002;0.000000e+000
5.612075e+002;0.000000e+000
5.631360e+002;0.000000e+000
5.650646e+002;0.000000e+000
5.669931e+002;0.000000e+000
5.689217e+002;0.000000e+000
5.708502e+002;0.000000e+000
5.727787e+002;0.000000e+000
5.747073e+002;0.000000e+000
5.766359e+002;0.000000e+000
5.785644e+002;0.000000e+000
5.804930e+002;0.000000e+000
5.824215e+002;0.000000e+000
5.843500e+002;0.000000e+000
5.862786e+002;0.000000e+000
5.882072e+002;0.000000e+000
5.901357e+002;0.000000e+000
5.920643e+002;0.000000e+000
5.939928e+002;0.000000e+000
5.959213e+002;0.000000e+000
5.978499e+002;0.000000e+000
5.997784e+002;1.349768e-001
6.017070e+002;1.378908e-001
6.036355e+002;1.378566e-001
6.055641e+002;1.383235e-001
6.074926e+002;1.347010e-001
6.094211e+002;1.323894e-001
6.113497e+002;1.377779e-001
6.132783e+002;1.384209e-001
6.152068e+002;1.359926e-001
6.171354e+002;1.335271e-001
6.190639e+002;1.334035e-001
6.209924e+002;1.370290e-001
6.229210e+002;1.400114e-001
6.248495e+002;1.404545e-001
6.267781e+002;1.423392e-001
6.287067e+002;1.427270e-001
6.306352e+002;1.415167e-001
6.325637e+002;1.413576e-001
6.344923e+002;1.403924e-001
6.364208e+002;1.388038e-001
6.383494e+002;1.390938e-001
6.402780e+002;1.395606e-001
6.422065e+002;1.414774e-001
6.441350e+002;1.448180e-001
6.460636e+002;1.464805e-001
6.479921e+002;1.484777e-001
6.499207e+002;1.536956e-001
6.518492e+002;1.572289e-001
6.537778e+002;1.571084e-001
6.557063e+002;1.592705e-001
6.576349e+002;1.607396e-001
6.595634e+002;1.638644e-001
6.614919e+002;1.686694e-001
6.634205e+002;1.697240e-001
6.653491e+002;1.706058e-001
6.672776e+002;1.717430e-001
6.692062e+002;1.725741e-001
6.711347e+002;1.746065e-001
6.730632e+002;1.771999e-001
6.749918e+002;1.777716e-001
6.769203e+002;1.789660e-001
6.788489e+002;1.816437e-001
6.807775e+002;1.820725e-001
6.827060e+002;1.826470e-001
6.846345e+002;1.830114e-001
6.865631e+002;1.822865e-001
6.884916e+002;1.808380e-001
6.904202e+002;1.791002e-001
6.923488e+002;1.777391e-001
6.942773e+002;1.755730e-001
6.962058e+002;1.727440e-001
6.981344e+002;1.691616e-001
7.000629e+002;1.657139e-001
7.019915e+002;1.633361e-001
7.039200e+002;1.617135e-001
7.058486e+002;1.596887e-001
7.077771e+002;1.585201e-001
7.097057e+002;1.580205e-001
7.116342e+002;1.563346e-001
7.135627e+002;1.538834e-001
7.154913e+002;1.516843e-001
7.174199e+002;1.504443e-001
7.193484e+002;1.510224e-001
7.212770e+002;1.514372e-001
7.232055e+002;1.514079e-001
7.251340e+002;1.520684e-001
7.270626e+002;1.515021e-001
7.289911e+002;1.491660e-001
7.309197e+002;1.446927e-001
7.328483e+002;1.381100e-001
7.347768e+002;1.314238e-001
7.367053e+002;1.253320e-001
7.386339e+002;1.197014e-001
7.405624e+002;1.154057e-001
7.424910e+002;1.127257e-001
7.444196e+002;1.111819e-001
7.463481e+002;1.091762e-001
7.482766e+002;1.071811e-001
7.502052e+002;1.051358e-001
7.521337e+002;1.028217e-001
7.540623e+002;1.017650e-001
7.559908e+002;9.976043e-002
7.579194e+002;9.777600e-002
7.598479e+002;9.737364e-002
7.617765e+002;9.670985e-002
7.637050e+002;9.517973e-002
7.656335e+002;9.452883e-002
7.675621e+002;9.414477e-002
7.694907e+002;9.253535e-002
7.714192e+002;9.088834e-002
7.733478e+002;9.048520e-002
7.752763e+002;8.961337e-002
7.772048e+002;8.785206e-002
7.791334e+002;8.679102e-002
7.810620e+002;8.593807e-002
7.829905e+002;8.468454e-002
7.849191e+002;8.297355e-002
7.868476e+002;8.167534e-002
7.887761e+002;8.047794e-002
7.907047e+002;7.943908e-002
7.926332e+002;7.913666e-002
7.945618e+002;7.794222e-002
7.964903e+002;7.636395e-002
7.984189e+002;7.502947e-002
8.003474e+002;7.424080e-002
8.022759e+002;7.301089e-002
8.042045e+002;7.166111e-002
8.061331e+002;7.142764e-002
8.080616e+002;7.049759e-002
8.099902e+002;6.949416e-002
8.119187e+002;6.886998e-002
8.138472e+002;6.815214e-002
8.157758e+002;6.789870e-002
8.177043e+002;6.759860e-002
8.196329e+002;6.678426e-002
8.215615e+002;6.630105e-002
8.234900e+002;6.653436e-002
8.254185e+002;6.738432e-002
8.273471e+002;6.847008e-002
8.292756e+002;6.958951e-002
8.312042e+002;7.074038e-002
8.331328e+002;7.071660e-002
8.350613e+002;6.901281e-002
8.369898e+002;6.676243e-002
8.389184e+002;6.472275e-002
8.408469e+002;6.335166e-002
8.427755e+002;6.228542e-002
8.447040e+002;6.141942e-002
8.466326e+002;6.025862e-002
8.485611e+002;5.901254e-002
8.504897e+002;5.864489e-002
8.524182e+002;5.835259e-002
8.543467e+002;5.809602e-002
8.562753e+002;5.805720e-002
8.582039e+002;5.844894e-002
8.601324e+002;5.859969e-002
8.620610e+002;5.820061e-002
8.639895e+002;5.830492e-002
8.659180e+002;5.850380e-002
8.678466e+002;5.853148e-002
8.697751e+002;5.840926e-002
8.717037e+002;5.828233e-002
8.736323e+002;5.833308e-002
8.755608e+002;5.849595e-002
8.774893e+002;5.883316e-002
8.794179e+002;5.889880e-002
8.813464e+002;5.885452e-002
8.832750e+002;5.909404e-002
8.852036e+002;5.968641e-002
8.871321e+002;6.030593e-002
8.890606e+002;6.057003e-002
8.909892e+002;6.054683e-002
8.929177e+002;6.024297e-002
8.948463e+002;6.008610e-002
8.967748e+002;6.084945e-002
8.987034e+002;6.129165e-002
9.006319e+002;6.109427e-002
9.025605e+002;6.082887e-002
9.044890e+002;6.140675e-002
9.064175e+002;6.252547e-002
9.083461e+002;6.296255e-002
9.102747e+002;6.309599e-002
9.122032e+002;6.340837e-002
9.141318e+002;6.398374e-002
9.160603e+002;6.472844e-002
9.179888e+002;6.532729e-002
9.199174e+002;6.584755e-002
9.218459e+002;6.675679e-002
9.237745e+002;6.797394e-002
9.257031e+002;6.963043e-002
9.276316e+002;7.084353e-002
9.295601e+002;7.074498e-002
9.314887e+002;7.021399e-002
9.334172e+002;6.903658e-002
9.353458e+002;6.742116e-002
9.372744e+002;6.653139e-002
9.392029e+002;6.639925e-002
9.411314e+002;6.669945e-002
9.430600e+002;6.734354e-002
9.449885e+002;6.866568e-002
9.469171e+002;7.034227e-002
9.488456e+002;7.188868e-002
9.507742e+002;7.297146e-002
9.527027e+002;7.358535e-002
9.546313e+002;7.433811e-002
9.565598e+002;7.555835e-002
9.584883e+002;7.623322e-002
9.604169e+002;7.602715e-002
9.623455e+002;7.555661e-002
9.642740e+002;7.479502e-002
9.662026e+002;7.415052e-002
9.681311e+002;7.410135e-002
9.700596e+002;7.447056e-002
9.719882e+002;7.450089e-002
9.739167e+002;7.395727e-002
9.758453e+002;7.331009e-002
9.777739e+002;7.243832e-002
9.797024e+002;7.159816e-002
9.816309e+002;7.065417e-002
9.835595e+002;6.972464e-002
9.854880e+002;6.924739e-002
9.874166e+002;6.856932e-002
9.893452e+002;6.759790e-002
9.912737e+002;6.658793e-002
9.932022e+002;6.571135e-002
9.951307e+002;6.536040e-002
9.970593e+002;6.516232e-002
9.989879e+002;6.502861e-002
1.000916e+003;6.473967e-002
1.002845e+003;6.472064e-002
1.004773e+003;6.503534e-002
1.006702e+003;6.475786e-002
1.008631e+003;6.425285e-002
1.010559e+003;6.403100e-002
1.012488e+003;6.415773e-002
1.014416e+003;6.432119e-002
1.016345e+003;6.426871e-002
1.018273e+003;6.484703e-002
1.020202e+003;6.571027e-002
1.022130e+003;6.657422e-002
1.024059e+003;6.782897e-002
1.025988e+003;6.901032e-002
1.027916e+003;6.935867e-002
1.029845e+003;6.889669e-002
1.031773e+003;6.826449e-002
1.033702e+003;6.781115e-002
1.035630e+003;6.722558e-002
1.037559e+003;6.682561e-002
1.039487e+003;6.652004e-002
1.041416e+003;6.573405e-002
1.043344e+003;6.509011e-002
1.045273e+003;6.513303e-002
1.047202e+003;6.547724e-002
1.049130e+003;6.624655e-002
1.051059e+003;6.722079e-002
1.052987e+003;6.800196e-002
1.054916e+003;6.929135e-002
1.056844e+003;7.028601e-002
1.058773e+003;7.117595e-002
1.060701e+003;7.259620e-002
1.062630e+003;7.438050e-002
1.064558e+003;7.578624e-002
1.066487e+003;7.712752e-002
1.068416e+003;7.763720e-002
1.070344e+003;7.738320e-002
1.072273e+003;7.787554e-002
1.074201e+003;7.854803e-002
1.076130e+003;7.831690e-002
1.078058e+003;7.730496e-002
1.079987e+003;7.654744e-002
1.081915e+003;7.624909e-002
1.083844e+003;7.570209e-002
1.085773e+003;7.492099e-002
1.087701e+003;7.479316e-002
1.089630e+003;7.468371e-002
1.091558e+003;7.446702e-002
1.093487e+003;7.481847e-002
1.095415e+003;7.526879e-002
1.097344e+003;7.521166e-002
1.099272e+003;7.579882e-002
1.101201e+003;7.749749e-002
1.103129e+003;7.951981e-002
1.105058e+003;8.154532e-002
1.106987e+003;8.333994e-002
1.108915e+003;8.425944e-002
1.110844e+003;8.509628e-002
1.112772e+003;8.609128e-002
1.114701e+003;8.695424e-002
1.116629e+003;8.748010e-002
1.118558e+003;8.728597e-002
1.120486e+003;8.640553e-002
1.122415e+003;8.501781e-002
1.124344e+003;8.274082e-002
1.126272e+003;7.981827e-002
1.128201e+003;7.647686e-002
1.130129e+003;7.366332e-002
1.132058e+003;7.249192e-002
1.133986e+003;7.237890e-002
1.135915e+003;7.199590e-002
1.137843e+003;7.201725e-002
1.139772e+003;7.260243e-002
1.141700e+003;7.381091e-002
1.143629e+003;7.597935e-002
1.145557e+003;7.834936e-002
1.147486e+003;8.061618e-002
1.149415e+003;8.298410e-002
1.151343e+003;8.535649e-002
1.153272e+003;8.790342e-002
1.155200e+003;9.080012e-002
1.157129e+003;9.458366e-002
1.159057e+003;9.948669e-002
1.160986e+003;1.051319e-001
1.162914e+003;1.117409e-001
1.164843e+003;1.182381e-001
1.166771e+003;1.230202e-001
1.168700e+003;1.250511e-001
1.170629e+003;1.241549e-001
1.172557e+003;1.205956e-001
1.174486e+003;1.153471e-001
1.176414e+003;1.098765e-001
1.178343e+003;1.051543e-001
1.180271e+003;1.018062e-001
1.182200e+003;1.003522e-001
1.184128e+003;1.005609e-001
1.186057e+003;1.019779e-001
1.187986e+003;1.046983e-001
1.189914e+003;1.079404e-001
1.191843e+003;1.117406e-001
1.193771e+003;1.162748e-001
1.195700e+003;1.209882e-001
1.197628e+003;1.254632e-001
1.199557e+003;1.281759e-001
1.201485e+003;1.274135e-001
1.203414e+003;1.240563e-001
1.205343e+003;1.209857e-001
1.207271e+003;1.192553e-001
1.209200e+003;1.182389e-001
1.211128e+003;1.176352e-001
1.213057e+003;1.167157e-001
1.214985e+003;1.145680e-001
1.216914e+003;1.115728e-001
1.218842e+003;1.083546e-001
1.220771e+003;1.064677e-001
1.222699e+003;1.067140e-001
1.224628e+003;1.088093e-001
1.226557e+003;1.123304e-001
1.228485e+003;1.168464e-001
1.230414e+003;1.214157e-001
1.232342e+003;1.257811e-001
1.234271e+003;1.292904e-001
1.236199e+003;1.313736e-001
1.238128e+003;1.320028e-001
1.240056e+003;1.317476e-001
1.241985e+003;1.315860e-001
1.243913e+003;1.313266e-001
1.245842e+003;1.314083e-001
1.247771e+003;1.321375e-001
1.249699e+003;1.337637e-001
1.251628e+003;1.360792e-001
1.253556e+003;1.390384e-001
1.255485e+003;1.425537e-001
1.257413e+003;1.454160e-001
1.259342e+003;1.470834e-001
1.261270e+003;1.481116e-001
1.263199e+003;1.474327e-001
1.265127e+003;1.442821e-001
1.267056e+003;1.388077e-001
1.268985e+003;1.328276e-001
1.270913e+003;1.284175e-001
1.272842e+003;1.258994e-001
1.274770e+003;1.247790e-001
1.276699e+003;1.243096e-001
1.278627e+003;1.238407e-001
1.280556e+003;1.227598e-001
1.282484e+003;1.208731e-001
1.284413e+003;1.188308e-001
1.286342e+003;1.168657e-001
1.288270e+003;1.153349e-001
1.290199e+003;1.145619e-001
1.292127e+003;1.140503e-001
1.294056e+003;1.136367e-001
1.295984e+003;1.133787e-001
1.297913e+003;1.130502e-001
1.299841e+003;1.128919e-001
1.301770e+003;1.125887e-001
1.303698e+003;1.118744e-001
1.305627e+003;1.109919e-001
1.307556e+003;1.098441e-001
1.309484e+003;1.087404e-001
1.311413e+003;1.078999e-001
1.313341e+003;1.067908e-001
1.315270e+003;1.058377e-001
1.317198e+003;1.048667e-001
1.319127e+003;1.039411e-001
1.321055e+003;1.031966e-001
1.322984e+003;1.025736e-001
1.324912e+003;1.021629e-001
1.326841e+003;1.022819e-001
1.328770e+003;1.026214e-001
1.330698e+003;1.031460e-001
1.332627e+003;1.034004e-001
1.334555e+003;1.036116e-001
1.336484e+003;1.038228e-001
1.338412e+003;1.040839e-001
1.340341e+003;1.048741e-001
1.342269e+003;1.060596e-001
1.344198e+003;1.069480e-001
1.346126e+003;1.077212e-001
1.348055e+003;1.086850e-001
1.349984e+003;1.098740e-001
1.351912e+003;1.113373e-001
1.353841e+003;1.129583e-001
1.355769e+003;1.145706e-001
1.357698e+003;1.163153e-001
1.359626e+003;1.181957e-001
1.361555e+003;1.199832e-001
1.363483e+003;1.218098e-001
1.365412e+003;1.237546e-001
1.367341e+003;1.255494e-001
1.369269e+003;1.269013e-001
1.371198e+003;1.276487e-001
1.373126e+003;1.273558e-001
1.375055e+003;1.258074e-001
1.376983e+003;1.234212e-001
1.378912e+003;1.202736e-001
1.380840e+003;1.168984e-001
1.382769e+003;1.135656e-001
1.384698e+003;1.102007e-001
1.386626e+003;1.068010e-001
1.388555e+003;1.041865e-001
1.390483e+003;1.021513e-001
1.392412e+003;1.005021e-001
1.394340e+003;9.938317e-002
1.396269e+003;9.908844e-002
1.398197e+003;9.975542e-002
1.400126e+003;1.014012e-001
1.402054e+003;1.035535e-001
1.403983e+003;1.064906e-001
1.405911e+003;1.107427e-001
1.407840e+003;1.161102e-001
1.409769e+003;1.222768e-001
1.411697e+003;1.289452e-001
1.413626e+003;1.350015e-001
1.415554e+003;1.388721e-001
1.417483e+003;1.396058e-001
1.419411e+003;1.378061e-001
1.421340e+003;1.350562e-001
1.423268e+003;1.321799e-001
1.425197e+003;1.304160e-001
1.427125e+003;1.304597e-001
1.429054e+003;1.321606e-001
1.430983e+003;1.349991e-001
1.432911e+003;1.375104e-001
1.434840e+003;1.384980e-001
1.436768e+003;1.380440e-001
1.438697e+003;1.374805e-001
1.440625e+003;1.365361e-001
1.442554e+003;1.355740e-001
1.444482e+003;1.349355e-001
1.446411e+003;1.347564e-001
1.448340e+003;1.357242e-001
1.450268e+003;1.376984e-001
1.452197e+003;1.399336e-001
1.454125e+003;1.421293e-001
1.456054e+003;1.440663e-001
1.457982e+003;1.486619e-001
1.459911e+003;1.550725e-001
1.461839e+003;1.589134e-001
1.463768e+003;1.577328e-001
1.465697e+003;1.517898e-001
1.467625e+003;1.440744e-001
1.469554e+003;1.378107e-001
1.471482e+003;1.343072e-001
1.473411e+003;1.336460e-001
1.475339e+003;1.340714e-001
1.477268e+003;1.331284e-001
1.479196e+003;1.298471e-001
1.481125e+003;1.244038e-001
1.483053e+003;1.183652e-001
1.484982e+003;1.130853e-001
1.486911e+003;1.098841e-001
1.488839e+003;1.091143e-001
1.490768e+003;1.103436e-001
1.492696e+003;1.127138e-001
1.494625e+003;1.154184e-001
1.496553e+003;1.189971e-001
1.498482e+003;1.237581e-001
1.500410e+003;1.288946e-001
1.502339e+003;1.344507e-001
1.504267e+003;1.398225e-001
1.506196e+003;1.452996e-001
1.508125e+003;1.525386e-001
1.510053e+003;1.605285e-001
1.511982e+003;1.683378e-001
1.513910e+003;1.764489e-001
1.515839e+003;1.848497e-001
1.517767e+003;1.934968e-001
1.519696e+003;2.022810e-001
1.521624e+003;2.121826e-001
1.523553e+003;2.229902e-001
1.525481e+003;2.337870e-001
1.527410e+003;2.445610e-001
1.529339e+003;2.548613e-001
1.531267e+003;2.641224e-001
1.533196e+003;2.723324e-001
1.535124e+003;2.793875e-001
1.537053e+003;2.828740e-001
1.538981e+003;2.824646e-001
1.540910e+003;2.806585e-001
1.542838e+003;2.764363e-001
1.544767e+003;2.689628e-001
1.546695e+003;2.595463e-001
1.548624e+003;2.486742e-001
1.550553e+003;2.370844e-001
1.552481e+003;2.257203e-001
1.554410e+003;2.147156e-001
1.556338e+003;2.043434e-001
1.558267e+003;1.935729e-001
1.560195e+003;1.845889e-001
1.562124e+003;1.774258e-001
1.564052e+003;1.692429e-001
1.565981e+003;1.604892e-001
1.567910e+003;1.519967e-001
1.569838e+003;1.437627e-001
1.571767e+003;1.363969e-001
1.573695e+003;1.292121e-001
1.575624e+003;1.222814e-001
1.577552e+003;1.173325e-001
1.579481e+003;1.137654e-001
1.581409e+003;1.104475e-001
1.583338e+003;1.075674e-001
1.585266e+003;1.057398e-001
1.587195e+003;1.051734e-001
1.589124e+003;1.052234e-001
1.591052e+003;1.060785e-001
1.592981e+003;1.080861e-001
1.594909e+003;1.106621e-001
1.596838e+003;1.137890e-001
1.598766e+003;1.180050e-001
1.600695e+003;1.232349e-001
1.602623e+003;1.296878e-001
1.604552e+003;1.371589e-001
1.606480e+003;1.450122e-001
1.608409e+003;1.536633e-001
1.610338e+003;1.632478e-001
1.612266e+003;1.735060e-001
1.614195e+003;1.851860e-001
1.616123e+003;1.987493e-001
1.618052e+003;2.150579e-001
1.619980e+003;2.325240e-001
1.621909e+003;2.496469e-001
1.623837e+003;2.669471e-001
1.625766e+003;2.843142e-001
1.627694e+003;3.015414e-001
1.629623e+003;3.192275e-001
1.631552e+003;3.358684e-001
1.633480e+003;3.480375e-001
1.635409e+003;3.543490e-001
1.637337e+003;3.532057e-001
1.639266e+003;3.427066e-001
1.641194e+003;3.248715e-001
1.643123e+003;3.032997e-001
1.645051e+003;2.806869e-001
1.646980e+003;2.591735e-001
1.648909e+003;2.400621e-001
1.650837e+003;2.221768e-001
1.652766e+003;2.058349e-001
1.654694e+003;1.941204e-001
1.656623e+003;1.847139e-001
1.658551e+003;1.746739e-001
1.660480e+003;1.645609e-001
1.662408e+003;1.549758e-001
1.664337e+003;1.460917e-001
1.666266e+003;1.368810e-001
1.668194e+003;1.273691e-001
1.670123e+003;1.189583e-001
1.672051e+003;1.117923e-001
1.673980e+003;1.044652e-001
1.675908e+003;9.716530e-002
1.677837e+003;9.035463e-002
1.679765e+003;8.301206e-002
1.681694e+003;7.551994e-002
1.683622e+003;6.779980e-002
1.685551e+003;6.222752e-002
1.687479e+003;5.874309e-002
1.689408e+003;5.512878e-002
1.691337e+003;5.201723e-002
1.693265e+003;4.944743e-002
1.695194e+003;4.688223e-002
1.697122e+003;4.567728e-002
1.699051e+003;4.454574e-002
1.700979e+003;4.384571e-002
1.702908e+003;4.431774e-002
1.704836e+003;4.424553e-002
1.706765e+003;4.422172e-002
1.708693e+003;4.431866e-002
1.710622e+003;4.432948e-002
1.712551e+003;4.381943e-002
1.714479e+003;4.343890e-002
1.716408e+003;4.313371e-002
1.718336e+003;4.334274e-002
1.720265e+003;4.414498e-002
1.722193e+003;4.461954e-002
1.724122e+003;4.464601e-002
1.726050e+003;4.483789e-002
1.727979e+003;4.489796e-002
1.729908e+003;4.449229e-002
1.731836e+003;4.364958e-002
1.733765e+003;4.283575e-002
1.735693e+003;4.324779e-002
1.737622e+003;4.340345e-002
1.739550e+003;4.278167e-002
1.741479e+003;4.248695e-002
1.743407e+003;4.176721e-002
1.745336e+003;4.095293e-002
1.747265e+003;4.014693e-002
1.749193e+003;3.914962e-002
1.751122e+003;3.824396e-002
1.753050e+003;3.773815e-002
1.754979e+003;3.707498e-002
1.756907e+003;3.639755e-002
1.758836e+003;3.578942e-002
1.760764e+003;3.493099e-002
1.762693e+003;3.430077e-002
1.764621e+003;3.400548e-002
1.766550e+003;3.344545e-002
1.768479e+003;3.293583e-002
1.770407e+003;3.228430e-002
1.772336e+003;3.149927e-002
1.774264e+003;3.147925e-002
1.776193e+003;3.156722e-002
1.778121e+003;3.133945e-002
1.780050e+003;3.109599e-002
1.781978e+003;3.073309e-002
1.783907e+003;3.030081e-002
1.785835e+003;3.007061e-002
1.787764e+003;3.007157e-002
1.789693e+003;2.983074e-002
1.791621e+003;2.899629e-002
1.793550e+003;2.883094e-002
1.795478e+003;2.911118e-002
1.797407e+003;2.876285e-002
1.799335e+003;2.847385e-002
1.801264e+003;2.843858e-002
1.803192e+003;2.856255e-002
1.805121e+003;2.858272e-002
1.807049e+003;2.855204e-002
1.808978e+003;2.825996e-002
1.810907e+003;2.794048e-002
1.812835e+003;2.776338e-002
1.814764e+003;2.770577e-002
1.816692e+003;2.765771e-002
1.818621e+003;2.773095e-002
1.820549e+003;2.769317e-002
1.822478e+003;2.747603e-002
1.824406e+003;2.702477e-002
1.826335e+003;2.682759e-002
1.828264e+003;2.691247e-002
1.830192e+003;2.702819e-002
1.832121e+003;2.708069e-002
1.834049e+003;2.700601e-002
1.835978e+003;2.685117e-002
1.837906e+003;2.665045e-002
1.839835e+003;2.656344e-002
1.841763e+003;2.648680e-002
1.843692e+003;2.624260e-002
1.845620e+003;2.625326e-002
1.847549e+003;2.621828e-002
1.849478e+003;2.614930e-002
1.851406e+003;2.626762e-002
1.853335e+003;2.617200e-002
1.855263e+003;2.590420e-002
1.857192e+003;2.579894e-002
1.859120e+003;2.582971e-002
1.861049e+003;2.582292e-002
1.862977e+003;2.586502e-002
1.864906e+003;2.573865e-002
1.866834e+003;2.547919e-002
1.868763e+003;2.533172e-002
1.870692e+003;2.545379e-002
1.872620e+003;2.567572e-002
1.874549e+003;2.574005e-002
1.876477e+003;2.571087e-002
1.878406e+003;2.559952e-002
1.880334e+003;2.567913e-002
1.882263e+003;2.582486e-002
1.884191e+003;2.590029e-002
1.886120e+003;2.585690e-002
1.888048e+003;2.586467e-002
1.889977e+003;2.599487e-002
1.891906e+003;2.604539e-002
1.893834e+003;2.602073e-002
1.895763e+003;2.601320e-002
1.897691e+003;2.598320e-002
1.899620e+003;2.592027e-002
1.901548e+003;2.593103e-002
1.903477e+003;2.609440e-002
1.905405e+003;2.606925e-002
1.907334e+003;2.586199e-002
1.909262e+003;2.580334e-002
1.911191e+003;2.571790e-002
1.913120e+003;2.580186e-002
1.915048e+003;2.556181e-002
1.916977e+003;2.511993e-002
1.918905e+003;2.525192e-002
1.920834e+003;2.545379e-002
1.922762e+003;2.566524e-002
1.924691e+003;2.580974e-002
1.926619e+003;2.576754e-002
1.928548e+003;2.571147e-002
1.930477e+003;2.558349e-002
1.932405e+003;2.548808e-002
1.934334e+003;2.560549e-002
1.936262e+003;2.561712e-002
1.938191e+003;2.551008e-002
1.940119e+003;2.532610e-002
1.942048e+003;2.516119e-002
1.943976e+003;2.510196e-002
1.945905e+003;2.511046e-002
1.947833e+003;2.521789e-002
1.949762e+003;2.535581e-002
1.951691e+003;2.527644e-002
1.953619e+003;2.525803e-002
1.955548e+003;2.540619e-002
1.957476e+003;2.559294e-002
1.959405e+003;2.559674e-002
1.961333e+003;2.575861e-002
1.963262e+003;2.590673e-002
1.965190e+003;2.580562e-002
1.967119e+003;2.571857e-002
1.969047e+003;2.573509e-002
1.970976e+003;2.580295e-002
1.972905e+003;2.591137e-002
1.974833e+003;2.604265e-002
1.976762e+003;2.620360e-002
1.978690e+003;2.613980e-002
1.980619e+003;2.604339e-002
1.982547e+003;2.619758e-002
1.984476e+003;2.618365e-002
1.986404e+003;2.608445e-002
1.988333e+003;2.605342e-002
1.990261e+003;2.595959e-002
1.992190e+003;2.596142e-002
1.994119e+003;2.601637e-002
1.996047e+003;2.599882e-002
1.997976e+003;2.594848e-002
1.999904e+003;2.596177e-002
2.001833e+003;2.596501e-002
2.003761e+003;2.608413e-002
2.005690e+003;2.627121e-002
2.007618e+003;2.634338e-002
2.009547e+003;2.616443e-002
2.011476e+003;2.603991e-002
2.013404e+003;2.624548e-002
2.015333e+003;2.647409e-002
2.017261e+003;2.644151e-002
2.019190e+003;2.638250e-002
2.021118e+003;2.656087e-002
2.023047e+003;2.668625e-002
2.024975e+003;2.664622e-002
2.026904e+003;2.664386e-002
2.028833e+003;2.662554e-002
2.030761e+003;2.673427e-002
2.032690e+003;2.685477e-002
2.034618e+003;2.686830e-002
2.036547e+003;2.684377e-002
2.038475e+003;2.695414e-002
2.040404e+003;2.705199e-002
2.042332e+003;2.714555e-002
2.044261e+003;2.732297e-002
2.046189e+003;2.717476e-002
2.048118e+003;2.701785e-002
2.050047e+003;2.727929e-002
2.051975e+003;2.729326e-002
2.053904e+003;2.721511e-002
2.055832e+003;2.745227e-002
2.057761e+003;2.757855e-002
2.059689e+003;2.759479e-002
2.061618e+003;2.763264e-002
2.063546e+003;2.764270e-002
2.065475e+003;2.768490e-002
2.067404e+003;2.768836e-002
2.069332e+003;2.764108e-002
2.071260e+003;2.772022e-002
2.073189e+003;2.778033e-002
2.075118e+003;2.742309e-002
2.077046e+003;2.731644e-002
2.078975e+003;2.738225e-002
2.080903e+003;2.728758e-002
2.082832e+003;2.733168e-002
2.084760e+003;2.742344e-002
2.086689e+003;2.729305e-002
2.088617e+003;2.720231e-002
2.090546e+003;2.716855e-002
2.092475e+003;2.722161e-002
2.094403e+003;2.718217e-002
2.096332e+003;2.721843e-002
2.098260e+003;2.713529e-002
2.100189e+003;2.695407e-002
2.102117e+003;2.688720e-002
2.104046e+003;2.697710e-002
2.105974e+003;2.716407e-002
2.107903e+003;2.730899e-002
2.109832e+003;2.728874e-002
2.111760e+003;2.732967e-002
2.113688e+003;2.750282e-002
2.115617e+003;2.760736e-002
2.117546e+003;2.750737e-002
2.119474e+003;2.757872e-002
2.121403e+003;2.765241e-002
2.123331e+003;2.752478e-002
2.125260e+003;2.749354e-002
2.127188e+003;2.760414e-002
2.129117e+003;2.770150e-002
2.131045e+003;2.776271e-002
2.132974e+003;2.768639e-002
2.134903e+003;2.780499e-002
2.136831e+003;2.798448e-002
2.138760e+003;2.796953e-002
2.140688e+003;2.794970e-002
2.142617e+003;2.781538e-002
2.144545e+003;2.776991e-002
2.146474e+003;2.795924e-002
2.148402e+003;2.816202e-002
2.150331e+003;2.809114e-002
2.152260e+003;2.800370e-002
2.154188e+003;2.792228e-002
2.156117e+003;2.786423e-002
2.158045e+003;2.807828e-002
2.159974e+003;2.837660e-002
2.161902e+003;2.867552e-002
2.163831e+003;2.853601e-002
2.165759e+003;2.824423e-002
2.167688e+003;2.816648e-002
2.169616e+003;2.828811e-002
2.171545e+003;2.849317e-002
2.173474e+003;2.848054e-002
2.175402e+003;2.832801e-002
2.177331e+003;2.832267e-002
2.179259e+003;2.857632e-002
2.181188e+003;2.863843e-002
2.183116e+003;2.859653e-002
2.185045e+003;2.858269e-002
2.186973e+003;2.837073e-002
2.188902e+003;2.831241e-002
2.190831e+003;2.860644e-002
2.192759e+003;2.871754e-002
2.194688e+003;2.869782e-002
2.196616e+003;2.865775e-002
2.198545e+003;2.872950e-002
2.200473e+003;2.873556e-002
2.202402e+003;2.865881e-002
2.204330e+003;2.866607e-002
2.206259e+003;2.869209e-002
2.208188e+003;2.866756e-002
2.210116e+003;2.850452e-002
2.212044e+003;2.829483e-002
2.213973e+003;2.803721e-002
2.215902e+003;2.767035e-002
2.217830e+003;2.753314e-002
2.219759e+003;2.756478e-002
2.221687e+003;2.762960e-002
2.223616e+003;2.768289e-002
2.225544e+003;2.763603e-002
2.227473e+003;2.750565e-002
2.229401e+003;2.734523e-002
2.231330e+003;2.735025e-002
2.233259e+003;2.723113e-002
2.235187e+003;2.707720e-002
2.237116e+003;2.705139e-002
2.239044e+003;2.715709e-002
2.240973e+003;2.706803e-002
2.242901e+003;2.701161e-002
2.244830e+003;2.701747e-002
2.246758e+003;2.694815e-002
2.248687e+003;2.699328e-002
2.250615e+003;2.726433e-002
2.252544e+003;2.752623e-002
2.254473e+003;2.767169e-002
2.256401e+003;2.777175e-002
2.258330e+003;2.768508e-002
2.260258e+003;2.748312e-002
2.262187e+003;2.762325e-002
2.264115e+003;2.786766e-002
2.266044e+003;2.781661e-002
2.267972e+003;2.777313e-002
2.269901e+003;2.789554e-002
2.271830e+003;2.794719e-002
2.273758e+003;2.800858e-002
2.275687e+003;2.804127e-002
2.277615e+003;2.803579e-002
2.279544e+003;2.807308e-002
2.281472e+003;2.821806e-002
2.283401e+003;2.819918e-002
2.285329e+003;2.821608e-002
2.287258e+003;2.846882e-002
2.289187e+003;2.839411e-002
2.291115e+003;2.797027e-002
2.293043e+003;2.790324e-002
2.294972e+003;2.815919e-002
2.296901e+003;2.829038e-002
2.298829e+003;2.820505e-002
2.300758e+003;2.843815e-002
2.302686e+003;2.875138e-002
2.304615e+003;2.881493e-002
2.306543e+003;2.881833e-002
2.308472e+003;2.888108e-002
2.310400e+003;2.881897e-002
2.312329e+003;2.878494e-002
2.314258e+003;2.894553e-002
2.316186e+003;2.893339e-002
2.318115e+003;2.855420e-002
2.320043e+003;2.865506e-002
2.321972e+003;2.895162e-002
2.323900e+003;2.870271e-002
2.325829e+003;2.852002e-002
2.327757e+003;2.863170e-002
2.329686e+003;2.849409e-002
2.331615e+003;2.840543e-002
2.333543e+003;2.864197e-002
2.335472e+003;2.860658e-002
2.337400e+003;2.842032e-002
2.339329e+003;2.828620e-002
2.341257e+003;2.829678e-002
2.343186e+003;2.842775e-002
2.345114e+003;2.836582e-002
2.347043e+003;2.827892e-002
2.348971e+003;2.820721e-002
2.350900e+003;2.822467e-002
2.352829e+003;2.836949e-002
2.354757e+003;2.820597e-002
2.356686e+003;2.797709e-002
2.358614e+003;2.796349e-002
2.360543e+003;2.808026e-002
2.362471e+003;2.821721e-002
2.364400e+003;2.813763e-002
2.366328e+003;2.824303e-002
2.368257e+003;2.837416e-002
2.370186e+003;2.845711e-002
2.372114e+003;2.872274e-002
2.374042e+003;2.884595e-002
2.375971e+003;2.888232e-002
2.377900e+003;2.890275e-002
2.379828e+003;2.885147e-002
2.381757e+003;2.897242e-002
2.383685e+003;2.911341e-002
2.385614e+003;2.896576e-002
2.387542e+003;2.889330e-002
2.389471e+003;2.894982e-002
2.391399e+003;2.893193e-002
2.393328e+003;2.897050e-002
2.395257e+003;2.918272e-002
2.397185e+003;2.939709e-002
2.399114e+003;2.935834e-002
2.401042e+003;2.916954e-002
2.402971e+003;2.918991e-002
2.404899e+003;2.926997e-002
2.406828e+003;2.921582e-002
2.408756e+003;2.909778e-002
2.410685e+003;2.910742e-002
2.412614e+003;2.907702e-002
2.414542e+003;2.903370e-002
2.416471e+003;2.925987e-002
2.418399e+003;2.952808e-002
2.420328e+003;2.959696e-002
2.422256e+003;2.935278e-002
2.424185e+003;2.943670e-002
2.426113e+003;2.969193e-002
2.428042e+003;2.964684e-002
2.429970e+003;2.963634e-002
2.431899e+003;2.970112e-002
2.433828e+003;2.961530e-002
2.435756e+003;2.984302e-002
2.437685e+003;3.007960e-002
2.439613e+003;3.007452e-002
2.441542e+003;3.021776e-002
2.443470e+003;3.036978e-002
2.445399e+003;3.042354e-002
2.447327e+003;3.046225e-002
2.449256e+003;3.061201e-002
2.451185e+003;3.064070e-002
2.453113e+003;3.067029e-002
2.455042e+003;3.090792e-002
2.456970e+003;3.115148e-002
2.458899e+003;3.129326e-002
2.460827e+003;3.129223e-002
2.462756e+003;3.122970e-002
2.464684e+003;3.135387e-002
2.466613e+003;3.150323e-002
2.468542e+003;3.147918e-002
2.470470e+003;3.154662e-002
2.472398e+003;3.165036e-002
2.474327e+003;3.172610e-002
2.476256e+003;3.200760e-002
2.478184e+003;3.213118e-002
2.480113e+003;3.196573e-002
2.482041e+003;3.191003e-002
2.483970e+003;3.199241e-002
2.485898e+003;3.217771e-002
2.487827e+003;3.200036e-002
2.489755e+003;3.197761e-002
2.491684e+003;3.199801e-002
2.493613e+003;3.188984e-002
2.495541e+003;3.188257e-002
2.497470e+003;3.183140e-002
2.499398e+003;3.179864e-002
2.501327e+003;3.194205e-002
2.503255e+003;3.201709e-002
2.505184e+003;3.175069e-002
2.507112e+003;3.165823e-002
2.509041e+003;3.216375e-002
2.510969e+003;3.243912e-002
2.512898e+003;3.235876e-002
2.514827e+003;3.254410e-002
2.516755e+003;3.277915e-002
2.518684e+003;3.292875e-002
2.520612e+003;3.297265e-002
2.522541e+003;3.318833e-002
2.524469e+003;3.333142e-002
2.526398e+003;3.344968e-002
2.528326e+003;3.400953e-002
2.530255e+003;3.422745e-002
2.532184e+003;3.413263e-002
2.534112e+003;3.415901e-002
2.536041e+003;3.418428e-002
2.537969e+003;3.437658e-002
2.539898e+003;3.465924e-002
2.541826e+003;3.473608e-002
2.543755e+003;3.476447e-002
2.545683e+003;3.492987e-002
2.547612e+003;3.498464e-002
2.549541e+003;3.488682e-002
2.551469e+003;3.480787e-002
2.553397e+003;3.485993e-002
2.555326e+003;3.496977e-002
2.557255e+003;3.495303e-002
2.559183e+003;3.508869e-002
2.561112e+003;3.532476e-002
2.563040e+003;3.531262e-002
2.564969e+003;3.519158e-002
2.566897e+003;3.499861e-002
2.568826e+003;3.504472e-002
2.570754e+003;3.513988e-002
2.572683e+003;3.535521e-002
2.574612e+003;3.560930e-002
2.576540e+003;3.568850e-002
2.578469e+003;3.574308e-002
2.580397e+003;3.595913e-002
2.582326e+003;3.607188e-002
2.584254e+003;3.609820e-002
2.586183e+003;3.622618e-002
2.588111e+003;3.635694e-002
2.590040e+003;3.626721e-002
2.591969e+003;3.627139e-002
2.593897e+003;3.661854e-002
2.595826e+003;3.690779e-002
2.597754e+003;3.701649e-002
2.599683e+003;3.673575e-002
2.601611e+003;3.675764e-002
2.603540e+003;3.712811e-002
2.605468e+003;3.726596e-002
2.607397e+003;3.725379e-002
2.609325e+003;3.730950e-002
2.611254e+003;3.715965e-002
2.613183e+003;3.712283e-002
2.615111e+003;3.716546e-002
2.617040e+003;3.718004e-002
2.618968e+003;3.716160e-002
2.620897e+003;3.747782e-002
2.622825e+003;3.787794e-002
2.624754e+003;3.787483e-002
2.626682e+003;3.775781e-002
2.628611e+003;3.777603e-002
2.630540e+003;3.807892e-002
2.632468e+003;3.836245e-002
2.634396e+003;3.843745e-002
2.636325e+003;3.834413e-002
2.638254e+003;3.840100e-002
2.640182e+003;3.854965e-002
2.642111e+003;3.833588e-002
2.644039e+003;3.821527e-002
2.645968e+003;3.863971e-002
2.647896e+003;3.889320e-002
2.649825e+003;3.878699e-002
2.651753e+003;3.881073e-002
2.653682e+003;3.893628e-002
2.655611e+003;3.885033e-002
2.657539e+003;3.873591e-002
2.659468e+003;3.902846e-002
2.661396e+003;3.945464e-002
2.663325e+003;3.933542e-002
2.665253e+003;3.909502e-002
2.667182e+003;3.930361e-002
2.669110e+003;3.960202e-002
2.671039e+003;3.964093e-002
2.672968e+003;3.950101e-002
2.674896e+003;3.958238e-002
2.676825e+003;3.989380e-002
2.678753e+003;4.017044e-002
2.680682e+003;4.007236e-002
2.682610e+003;4.010760e-002
2.684539e+003;4.019687e-002
2.686467e+003;4.040260e-002
2.688396e+003;4.078802e-002
2.690324e+003;4.109918e-002
2.692253e+003;4.136278e-002
2.694182e+003;4.152622e-002
2.696110e+003;4.140691e-002
2.698039e+003;4.134944e-002
2.699967e+003;4.166126e-002
2.701896e+003;4.190378e-002
2.703824e+003;4.221405e-002
2.705753e+003;4.262495e-002
2.707681e+003;4.273176e-002
2.709610e+003;4.260656e-002
2.711539e+003;4.282398e-002
2.713467e+003;4.316075e-002
2.715396e+003;4.355925e-002
2.717324e+003;4.412540e-002
2.719253e+003;4.437304e-002
2.721181e+003;4.450066e-002
2.723110e+003;4.470070e-002
2.725038e+003;4.480042e-002
2.726967e+003;4.525017e-002
2.728896e+003;4.575086e-002
2.730824e+003;4.621284e-002
2.732752e+003;4.665159e-002
2.734681e+003;4.673284e-002
2.736610e+003;4.688215e-002
2.738538e+003;4.703112e-002
2.740467e+003;4.695247e-002
2.742395e+003;4.733071e-002
2.744324e+003;4.787087e-002
2.746252e+003;4.798764e-002
2.748181e+003;4.791301e-002
2.750109e+003;4.781397e-002
2.752038e+003;4.773822e-002
2.753967e+003;4.776656e-002
2.755895e+003;4.780550e-002
2.757824e+003;4.812658e-002
2.759752e+003;4.821906e-002
2.761681e+003;4.819248e-002
2.763609e+003;4.848109e-002
2.765538e+003;4.906850e-002
2.767466e+003;4.917684e-002
2.769395e+003;4.912552e-002
2.771323e+003;4.937763e-002
2.773252e+003;4.961324e-002
2.775181e+003;4.970920e-002
2.777109e+003;4.993533e-002
2.779038e+003;5.044837e-002
2.780966e+003;5.079223e-002
2.782895e+003;5.080482e-002
2.784823e+003;5.109994e-002
2.786752e+003;5.160359e-002
2.788680e+003;5.195822e-002
2.790609e+003;5.214622e-002
2.792538e+003;5.242547e-002
2.794466e+003;5.282983e-002
2.796395e+003;5.325258e-002
2.798323e+003;5.345932e-002
2.800252e+003;5.367582e-002
2.802180e+003;5.418039e-002
2.804109e+003;5.467379e-002
2.806037e+003;5.527141e-002
2.807966e+003;5.587954e-002
2.809895e+003;5.621072e-002
2.811823e+003;5.668729e-002
2.813751e+003;5.758446e-002
2.815680e+003;5.829761e-002
2.817609e+003;5.882697e-002
2.819537e+003;5.936724e-002
2.821466e+003;5.976363e-002
2.823394e+003;6.022386e-002
2.825323e+003;6.090435e-002
2.827251e+003;6.156799e-002
2.829180e+003;6.217579e-002
2.831108e+003;6.292349e-002
2.833037e+003;6.388001e-002
2.834966e+003;6.518531e-002
2.836894e+003;6.713071e-002
2.838823e+003;6.982316e-002
2.840751e+003;7.342096e-002
2.842680e+003;7.757802e-002
2.844608e+003;8.197349e-002
2.846537e+003;8.710165e-002
2.848465e+003;9.265695e-002
2.850394e+003;9.751770e-002
2.852323e+003;1.014741e-001
2.854251e+003;1.048635e-001
2.856180e+003;1.073236e-001
2.858108e+003;1.088665e-001
2.860037e+003;1.098929e-001
2.861965e+003;1.099507e-001
2.863894e+003;1.090764e-001
2.865822e+003;1.076025e-001
2.867751e+003;1.058281e-001
2.869679e+003;1.035734e-001
2.871608e+003;1.006826e-001
2.873536e+003;9.770928e-002
2.875465e+003;9.468246e-002
2.877394e+003;9.161767e-002
2.879322e+003;8.934885e-002
2.881251e+003;8.780047e-002
2.883179e+003;8.663534e-002
2.885108e+003;8.607686e-002
2.887036e+003;8.616429e-002
2.888965e+003;8.689713e-002
2.890893e+003;8.841020e-002
2.892822e+003;9.048561e-002
2.894750e+003;9.256878e-002
2.896679e+003;9.472515e-002
2.898608e+003;9.657826e-002
2.900536e+003;9.784286e-002
2.902465e+003;9.908253e-002
2.904393e+003;1.006163e-001
2.906322e+003;1.024201e-001
2.908250e+003;1.043220e-001
2.910179e+003;1.065651e-001
2.912107e+003;1.095245e-001
2.914036e+003;1.125105e-001
2.915965e+003;1.157097e-001
2.917893e+003;1.195808e-001
2.919822e+003;1.236903e-001
2.921750e+003;1.275146e-001
2.923679e+003;1.303894e-001
2.925607e+003;1.328799e-001
2.927536e+003;1.353898e-001
2.929464e+003;1.373834e-001
2.931393e+003;1.386311e-001
2.933322e+003;1.392048e-001
2.935250e+003;1.389137e-001
2.937178e+003;1.375122e-001
2.939107e+003;1.352300e-001
2.941036e+003;1.321643e-001
2.942964e+003;1.288412e-001
2.944893e+003;1.248628e-001
2.946821e+003;1.195303e-001
2.948750e+003;1.132849e-001
2.950678e+003;1.068495e-001
2.952607e+003;1.007113e-001
2.954535e+003;9.486388e-002
2.956464e+003;8.960913e-002
2.958393e+003;8.494829e-002
2.960321e+003;8.089449e-002
2.962250e+003;7.751678e-002
2.964178e+003;7.436717e-002
2.966107e+003;7.145982e-002
2.968035e+003;6.862015e-002
2.969964e+003;6.623080e-002
2.971892e+003;6.397326e-002
2.973821e+003;6.189375e-002
2.975750e+003;5.993434e-002
2.977678e+003;5.810545e-002
2.979607e+003;5.651890e-002
2.981535e+003;5.512641e-002
2.983464e+003;5.413858e-002
2.985392e+003;5.325172e-002
2.987321e+003;5.222816e-002
2.989249e+003;5.125745e-002
2.991178e+003;5.057548e-002
2.993106e+003;5.030069e-002
2.995035e+003;5.008121e-002
2.996964e+003;4.996648e-002
2.998892e+003;4.964422e-002
3.000821e+003;4.923276e-002
3.002749e+003;4.919958e-002
3.004678e+003;4.950766e-002
3.006606e+003;4.930807e-002
3.008535e+003;4.896101e-002
3.010463e+003;4.908701e-002
3.012392e+003;4.942445e-002
3.014321e+003;4.965299e-002
3.016249e+003;4.985255e-002
3.018177e+003;5.020966e-002
3.020106e+003;5.050725e-002
3.022035e+003;5.053733e-002
3.023963e+003;5.074489e-002
3.025892e+003;5.114825e-002
3.027820e+003;5.142877e-002
3.029749e+003;5.191725e-002
3.031677e+003;5.266525e-002
3.033606e+003;5.327764e-002
3.035534e+003;5.358735e-002
3.037463e+003;5.416767e-002
3.039392e+003;5.539366e-002
3.041320e+003;5.622690e-002
3.043249e+003;5.658680e-002
3.045177e+003;5.708661e-002
3.047106e+003;5.797619e-002
3.049034e+003;5.890779e-002
3.050963e+003;5.963988e-002
3.052891e+003;6.038314e-002
3.054820e+003;6.116415e-002
3.056749e+003;6.178609e-002
3.058677e+003;6.216272e-002
3.060606e+003;6.271836e-002
3.062534e+003;6.347221e-002
3.064463e+003;6.352947e-002
3.066391e+003;6.368057e-002
3.068320e+003;6.424143e-002
3.070248e+003;6.450079e-002
3.072177e+003;6.446519e-002
3.074105e+003;6.424716e-002
3.076034e+003;6.433287e-002
3.077963e+003;6.479736e-002
3.079891e+003;6.490139e-002
3.081820e+003;6.445842e-002
3.083748e+003;6.413215e-002
3.085677e+003;6.386028e-002
3.087605e+003;6.365632e-002
3.089534e+003;6.301568e-002
3.091462e+003;6.242683e-002
3.093391e+003;6.201829e-002
3.095320e+003;6.151996e-002
3.097248e+003;6.103360e-002
3.099177e+003;6.004931e-002
3.101105e+003;5.914419e-002
3.103034e+003;5.864121e-002
3.104962e+003;5.826055e-002
3.106891e+003;5.752919e-002
3.108819e+003;5.682341e-002
3.110748e+003;5.637763e-002
3.112677e+003;5.577103e-002
3.114605e+003;5.517836e-002
3.116533e+003;5.467966e-002
3.118462e+003;5.443290e-002
3.120391e+003;5.428085e-002
3.122319e+003;5.378550e-002
3.124248e+003;5.327318e-002
3.126176e+003;5.333117e-002
3.128105e+003;5.350538e-002
3.130033e+003;5.321337e-002
3.131962e+003;5.287926e-002
3.133890e+003;5.303288e-002
3.135819e+003;5.308511e-002
3.137748e+003;5.292770e-002
3.139676e+003;5.337314e-002
3.141605e+003;5.343548e-002
3.143533e+003;5.303910e-002
3.145462e+003;5.286699e-002
3.147390e+003;5.333114e-002
3.149319e+003;5.404544e-002
3.151247e+003;5.418092e-002
3.153176e+003;5.418482e-002
3.155104e+003;5.454642e-002
3.157033e+003;5.481542e-002
3.158962e+003;5.513002e-002
3.160890e+003;5.586044e-002
3.162819e+003;5.632606e-002
3.164747e+003;5.672935e-002
3.166676e+003;5.706322e-002
3.168604e+003;5.736887e-002
3.170533e+003;5.799695e-002
3.172461e+003;5.876236e-002
3.174390e+003;5.956238e-002
3.176319e+003;6.007800e-002
3.178247e+003;6.072570e-002
3.180176e+003;6.151905e-002
3.182104e+003;6.209333e-002
3.184033e+003;6.259026e-002
3.185961e+003;6.311473e-002
3.187890e+003;6.330720e-002
3.189818e+003;6.365564e-002
3.191747e+003;6.436335e-002
3.193676e+003;6.465953e-002
3.195604e+003;6.460016e-002
3.197532e+003;6.482884e-002
3.199461e+003;6.587393e-002
3.201390e+003;6.661427e-002
3.203318e+003;6.671096e-002
3.205247e+003;6.703357e-002
3.207175e+003;6.721433e-002
3.209104e+003;6.729773e-002
3.211032e+003;6.777152e-002
3.212961e+003;6.824847e-002
3.214889e+003;6.850294e-002
3.216818e+003;6.924440e-002
3.218747e+003;6.993715e-002
3.220675e+003;7.038968e-002
3.222604e+003;7.094434e-002
3.224532e+003;7.188097e-002
3.226461e+003;7.286349e-002
3.228389e+003;7.377432e-002
3.230318e+003;7.461911e-002
3.232246e+003;7.583796e-002
3.234175e+003;7.739163e-002
3.236104e+003;7.899571e-002
3.238032e+003;8.021896e-002
3.239961e+003;8.150058e-002
3.241889e+003;8.321957e-002
3.243818e+003;8.501184e-002
3.245746e+003;8.678192e-002
3.247675e+003;8.843591e-002
3.249603e+003;8.995957e-002
3.251532e+003;9.194843e-002
3.253460e+003;9.432745e-002
3.255389e+003;9.630698e-002
3.257318e+003;9.811333e-002
3.259246e+003;1.003580e-001
3.261175e+003;1.026998e-001
3.263103e+003;1.049775e-001
3.265032e+003;1.069379e-001
3.266960e+003;1.090669e-001
3.268889e+003;1.115909e-001
3.270817e+003;1.138887e-001
3.272746e+003;1.154937e-001
3.274675e+003;1.178441e-001
3.276603e+003;1.206521e-001
3.278531e+003;1.231514e-001
3.280460e+003;1.251669e-001
3.282389e+003;1.270425e-001
3.284317e+003;1.290737e-001
3.286246e+003;1.308500e-001
3.288174e+003;1.323441e-001
3.290103e+003;1.336993e-001
3.292031e+003;1.342917e-001
3.293960e+003;1.342229e-001
3.295888e+003;1.334910e-001
3.297817e+003;1.321918e-001
3.299746e+003;1.301563e-001
3.301674e+003;1.274496e-001
3.303603e+003;1.247712e-001
3.305531e+003;1.217151e-001
3.307460e+003;1.186165e-001
3.309388e+003;1.153843e-001
3.311317e+003;1.120287e-001
3.313245e+003;1.088936e-001
3.315174e+003;1.060110e-001
3.317103e+003;1.030973e-001
3.319031e+003;1.001430e-001
3.320960e+003;9.713227e-002
3.322888e+003;9.440441e-002
3.324817e+003;9.186508e-002
3.326745e+003;8.908501e-002
3.328674e+003;8.660533e-002
3.330602e+003;8.391840e-002
3.332531e+003;8.187102e-002
3.334459e+003;8.032634e-002
3.336388e+003;7.835297e-002
3.338317e+003;7.649200e-002
3.340245e+003;7.495599e-002
3.342174e+003;7.303865e-002
3.344102e+003;7.085126e-002
3.346031e+003;6.901576e-002
3.347959e+003;6.763061e-002
3.349888e+003;6.613429e-002
3.351816e+003;6.464430e-002
3.353745e+003;6.341109e-002
3.355674e+003;6.204413e-002
3.357602e+003;6.098914e-002
3.359531e+003;5.998813e-002
3.361459e+003;5.895227e-002
3.363388e+003;5.800781e-002
3.365316e+003;5.710290e-002
3.367245e+003;5.576820e-002
3.369173e+003;5.468770e-002
3.371102e+003;5.450919e-002
3.373031e+003;5.401245e-002
3.374959e+003;5.286912e-002
3.376887e+003;5.215092e-002
3.378816e+003;5.179501e-002
3.380745e+003;5.130353e-002
3.382673e+003;5.107371e-002
3.384602e+003;5.065810e-002
3.386530e+003;4.983163e-002
3.388459e+003;4.951259e-002
3.390387e+003;4.934025e-002
3.392316e+003;4.870502e-002
3.394244e+003;4.822087e-002
3.396173e+003;4.779296e-002
3.398102e+003;4.778420e-002
3.400030e+003;4.805733e-002
3.401959e+003;4.775672e-002
3.403887e+003;4.709182e-002
3.405816e+003;4.671409e-002
3.407744e+003;4.640353e-002
3.409673e+003;4.603440e-002
3.411601e+003;4.596253e-002
3.413530e+003;4.599037e-002
3.415458e+003;4.556922e-002
3.417387e+003;4.503118e-002
3.419316e+003;4.484619e-002
3.421244e+003;4.510656e-002
3.423173e+003;4.518506e-002
3.425101e+003;4.488804e-002
3.427030e+003;4.478282e-002
3.428958e+003;4.455716e-002
3.430887e+003;4.407721e-002
3.432815e+003;4.397526e-002
3.434744e+003;4.387569e-002
3.436673e+003;4.379007e-002
3.438601e+003;4.380642e-002
3.440530e+003;4.386360e-002
3.442458e+003;4.382236e-002
3.444387e+003;4.336815e-002
3.446315e+003;4.296925e-002
3.448244e+003;4.288940e-002
3.450172e+003;4.318633e-002
3.452101e+003;4.351848e-002
3.454030e+003;4.308518e-002
3.455958e+003;4.265803e-002
3.457886e+003;4.268987e-002
3.459815e+003;4.274248e-002
3.461744e+003;4.244263e-002
3.463672e+003;4.226507e-002
3.465601e+003;4.215950e-002
3.467529e+003;4.223143e-002
3.469458e+003;4.201746e-002
3.471386e+003;4.143443e-002
3.473315e+003;4.134918e-002
3.475243e+003;4.149101e-002
3.477172e+003;4.146855e-002
3.479101e+003;4.135767e-002
3.481029e+003;4.114653e-002
3.482958e+003;4.108607e-002
3.484886e+003;4.104400e-002
3.486815e+003;4.094288e-002
3.488743e+003;4.079977e-002
3.490672e+003;4.052535e-002
3.492600e+003;4.049865e-002
3.494529e+003;4.052124e-002
3.496458e+003;4.030887e-002
3.498386e+003;4.017139e-002
3.500315e+003;4.018498e-002
3.502243e+003;4.032872e-002
3.504172e+003;4.034806e-002
3.506100e+003;3.985000e-002
3.508029e+003;3.911173e-002
3.509957e+003;3.867285e-002
3.511886e+003;3.866054e-002
3.513814e+003;3.872352e-002
3.515743e+003;3.912703e-002
3.517672e+003;3.927132e-002
3.519600e+003;3.896862e-002
3.521529e+003;3.861722e-002
3.523457e+003;3.836002e-002
3.525386e+003;3.832043e-002
3.527314e+003;3.847640e-002
3.529243e+003;3.853238e-002
3.531171e+003;3.848219e-002
3.533100e+003;3.803331e-002
3.535029e+003;3.760192e-002
3.536957e+003;3.743972e-002
3.538885e+003;3.739967e-002
3.540814e+003;3.680856e-002
3.542743e+003;3.602058e-002
3.544671e+003;3.596288e-002
3.546600e+003;3.610533e-002
3.548528e+003;3.587110e-002
3.550457e+003;3.541549e-002
3.552385e+003;3.502942e-002
3.554314e+003;3.474282e-002
3.556242e+003;3.442048e-002
3.558171e+003;3.445839e-002
3.560100e+003;3.447859e-002
3.562028e+003;3.412625e-002
3.563957e+003;3.374541e-002
3.565885e+003;3.310854e-002
3.567814e+003;3.257796e-002
3.569742e+003;3.261457e-002
3.571671e+003;3.245419e-002
3.573599e+003;3.203839e-002
3.575528e+003;3.211880e-002
3.577457e+003;3.225975e-002
3.579385e+003;3.211712e-002
3.581314e+003;3.160431e-002
3.583242e+003;3.131331e-002
3.585171e+003;3.086914e-002
3.587099e+003;3.029900e-002
3.589028e+003;3.032973e-002
3.590956e+003;3.006827e-002
3.592885e+003;2.930822e-002
3.594813e+003;2.898510e-002
3.596742e+003;2.900943e-002
3.598671e+003;2.926356e-002
3.600599e+003;2.923960e-002
3.602528e+003;2.902247e-002
3.604456e+003;2.855169e-002
3.606385e+003;2.757558e-002
3.608313e+003;2.651860e-002
3.610242e+003;2.629790e-002
3.612170e+003;2.635018e-002
3.614099e+003;2.664161e-002
3.616028e+003;2.610584e-002
3.617956e+003;2.531911e-002
3.619885e+003;2.564939e-002
3.621813e+003;2.596617e-002
3.623742e+003;2.604212e-002
3.625670e+003;2.599516e-002
3.627599e+003;2.473046e-002
3.629527e+003;2.424395e-002
3.631456e+003;2.489871e-002
3.633385e+003;2.496591e-002
3.635313e+003;2.473842e-002
3.637241e+003;2.464127e-002
3.639170e+003;2.436877e-002
3.641099e+003;2.419501e-002
3.643027e+003;2.394946e-002
3.644956e+003;2.329410e-002
3.646884e+003;2.261990e-002
3.648813e+003;2.223140e-002
3.650741e+003;2.232631e-002
3.652670e+003;2.249409e-002
3.654598e+003;2.245256e-002
3.656527e+003;2.251248e-002
3.658456e+003;2.233175e-002
3.660384e+003;2.193866e-002
3.662313e+003;2.215817e-002
3.664241e+003;2.241712e-002
3.666170e+003;2.233147e-002
3.668098e+003;2.174441e-002
3.670027e+003;2.113592e-002
3.671955e+003;2.086161e-002
3.673884e+003;2.034334e-002
3.675813e+003;2.015945e-002
3.677741e+003;2.089335e-002
3.679669e+003;2.119123e-002
3.681598e+003;2.114597e-002
3.683527e+003;2.085622e-002
3.685455e+003;2.046544e-002
3.687384e+003;1.958724e-002
3.689312e+003;1.946809e-002
3.691241e+003;1.960399e-002
3.693169e+003;1.939397e-002
3.695098e+003;1.918216e-002
3.697026e+003;1.912509e-002
3.698955e+003;1.904923e-002
3.700884e+003;1.887790e-002
3.702812e+003;1.910286e-002
3.704741e+003;1.904473e-002
3.706669e+003;1.876842e-002
3.708598e+003;1.841798e-002
3.710526e+003;1.797351e-002
3.712455e+003;1.813430e-002
3.714383e+003;1.857932e-002
3.716312e+003;1.843468e-002
3.718240e+003;1.828578e-002
3.720169e+003;1.849930e-002
3.722098e+003;1.846887e-002
3.724026e+003;1.847866e-002
3.725955e+003;1.832023e-002
3.727883e+003;1.802075e-002
3.729812e+003;1.774713e-002
3.731740e+003;1.755416e-002
3.733669e+003;1.749023e-002
3.735597e+003;1.719960e-002
3.737526e+003;1.746643e-002
3.739455e+003;1.835117e-002
3.741383e+003;1.873282e-002
3.743312e+003;1.792727e-002
3.745240e+003;1.776818e-002
3.747169e+003;1.800646e-002
3.749097e+003;1.744901e-002
3.751026e+003;1.730317e-002
3.752954e+003;1.786806e-002
3.754883e+003;1.854266e-002
3.756812e+003;1.829165e-002
3.758740e+003;1.776377e-002
3.760668e+003;1.794619e-002
3.762597e+003;1.884295e-002
3.764526e+003;1.908288e-002
3.766454e+003;1.858149e-002
3.768383e+003;1.825986e-002
3.770311e+003;1.857319e-002
3.772240e+003;1.881613e-002
3.774168e+003;1.900291e-002
3.776097e+003;1.916242e-002
3.778025e+003;1.895310e-002
3.779954e+003;1.892237e-002
3.781883e+003;1.888022e-002
3.783811e+003;1.887876e-002
3.785740e+003;1.868757e-002
3.787668e+003;1.839807e-002
3.789597e+003;1.853319e-002
3.791525e+003;1.857914e-002
3.793454e+003;1.844287e-002
3.795382e+003;1.820730e-002
3.797311e+003;1.802455e-002
3.799240e+003;1.793418e-002
3.801168e+003;1.786788e-002
3.803097e+003;1.869684e-002
3.805025e+003;1.891659e-002
3.806954e+003;1.879727e-002
3.808882e+003;1.924200e-002
3.810811e+003;1.929673e-002
3.812739e+003;1.880388e-002
3.814668e+003;1.857167e-002
3.816596e+003;1.906969e-002
3.818525e+003;1.908098e-002
3.820454e+003;1.837588e-002
3.822382e+003;1.885748e-002
3.824311e+003;1.930965e-002
3.826239e+003;1.879101e-002
3.828168e+003;1.901901e-002
3.830096e+003;1.917294e-002
3.832025e+003;1.910643e-002
3.833953e+003;1.904927e-002
3.835882e+003;1.865717e-002
3.837811e+003;1.833817e-002
3.839739e+003;1.901312e-002
3.841667e+003;1.968753e-002
3.843596e+003;1.978379e-002
3.845525e+003;1.986997e-002
3.847453e+003;1.990078e-002
3.849382e+003;1.939668e-002
3.851310e+003;1.866651e-002
3.853239e+003;1.846379e-002
3.855167e+003;1.928848e-002
3.857096e+003;1.973410e-002
3.859024e+003;1.949484e-002
3.860953e+003;1.969669e-002
3.862882e+003;2.010604e-002
3.864810e+003;1.984830e-002
3.866739e+003;1.966611e-002
3.868667e+003;1.956832e-002
3.870596e+003;1.951570e-002
3.872524e+003;1.962222e-002
3.874453e+003;1.987181e-002
3.876381e+003;2.013755e-002
3.878310e+003;1.985499e-002
3.880239e+003;1.955976e-002
3.882167e+003;2.003639e-002
3.884096e+003;2.008681e-002
3.886024e+003;1.991038e-002
3.887953e+003;2.032789e-002
3.889881e+003;2.038393e-002
3.891810e+003;2.034948e-002
3.893738e+003;2.038216e-002
3.895667e+003;2.005166e-002
3.897595e+003;2.001929e-002
3.899524e+003;2.052869e-002
3.901453e+003;2.053279e-002
3.903381e+003;2.009573e-002
3.905310e+003;2.051654e-002
3.907238e+003;2.132534e-002
3.909167e+003;2.141023e-002
3.911095e+003;2.101888e-002
3.913024e+003;2.101582e-002
3.914952e+003;2.092089e-002
3.916881e+003;2.082556e-002
3.918810e+003;2.089926e-002
3.920738e+003;2.079970e-002
3.922667e+003;2.091661e-002
3.924595e+003;2.119917e-002
3.926524e+003;2.135395e-002
3.928452e+003;2.173375e-002
3.930381e+003;2.140845e-002
3.932309e+003;2.108354e-002
3.934238e+003;2.159528e-002
3.936167e+003;2.184984e-002
3.938095e+003;2.175065e-002
3.940023e+003;2.191092e-002
3.941952e+003;2.190064e-002
3.943881e+003;2.175622e-002
3.945809e+003;2.237898e-002
3.947738e+003;2.264259e-002
3.949666e+003;2.199108e-002
3.951595e+003;2.201876e-002
3.953523e+003;2.246000e-002
3.955452e+003;2.249608e-002
3.957380e+003;2.269056e-002
3.959309e+003;2.301193e-002
3.961238e+003;2.292337e-002
3.963166e+003;2.271542e-002
3.965095e+003;2.279335e-002
3.967023e+003;2.299383e-002
3.968952e+003;2.347670e-002
3.970880e+003;2.393602e-002
3.972809e+003;2.376180e-002
3.974737e+003;2.347618e-002
3.976666e+003;2.343491e-002
3.978594e+003;2.331956e-002
3.980523e+003;2.329344e-002
3.982452e+003;2.344288e-002
3.984380e+003;2.316778e-002
3.986309e+003;2.318864e-002
3.988237e+003;2.338085e-002
3.990166e+003;2.335903e-002
3.992094e+003;2.373482e-002
3.994023e+003;2.448559e-002
3.995951e+003;2.505597e-002
3.997880e+003;2.483412e-002
3.999809e+003;2.460185e-002
4.001737e+003;0.000000e+000
