3.992094e+002;0.000000e+000
4.011380e+002;0.000000e+000
4.030665e+002;0.000000e+000
4.049951e+002;0.000000e+000
4.069236e+002;0.000000e+000
4.088522e+002;0.000000e+000
4.107807e+002;0.000000e+000
4.127093e+002;0.000000e+000
4.146378e+002;0.000000e+000
4.165664e+002;0.000000e+000
4.184949e+002;0.000000e+000
4.204235e+002;0.000000e+000
4.223520e+002;0.000000e+000
4.242806e+002;0.000000e+000
4.262091e+002;0.000000e+000
4.281377e+002;0.000000e+000
4.300662e+002;0.000000e+000
4.319948e+002;0.000000e+000
4.339233e+002;0.000000e+000
4.358519e+002;0.000000e+000
4.377804e+002;0.000000e+000
4.397090e+002;0.000000e+000
4.416375e+002;0.000000e+000
4.435660e+002;0.000000e+000
4.454946e+002;0.000000e+000
4.474232e+002;0.000000e+000
4.493517e+002;0.000000e+000
4.512802e+002;0.000000e+000
4.532088e+002;0.000000e+000
4.551373e+002;0.000000e+000
4.570659e+002;0.000000e+000
4.589944e+002;0.000000e+000
4.609230e+002;0.000000e+000
4.628515e+002;0.000000e+000
4.647801e+002;0.000000e+000
4.667086e+002;0.000000e+000
4.686372e+002;0.000000e+000
4.705657e+002;0.000000e+000
4.724943e+002;0.000000e+000
4.744228e+002;0.000000e+000
4.763513e+002;0.000000e+000
4.782799e+002;0.000000e+000
4.802085e+002;0.000000e+000
4.821370e+002;0.000000e+000
4.840656e+002;0.000000e+000
4.859941e+002;0.000000e+000
4.879226e+002;0.000000e+000
4.898512e+002;0.000000e+000
4.917798e+002;0.000000e+000
4.937083e+002;0.000000e+000
4.956368e+002;0.000000e+000
4.975654e+002;0.000000e+000
4.994939e+002;0.000000e+000
5.014225e+002;0.000000e+000
5.033510e+002;0.000000e+000
5.052796e+002;0.000000e+000
5.072081e+002;0.000000e+000
5.091367e+002;0.000000e+000
5.110652e+002;0.000000e+000
5.129938e+002;0.000000e+000
5.149223e+002;0.000000e+000
5.168509e+002;0.000000e+000
5.187794e+002;0.000000e+000
5.207079e+002;0.000000e+000
5.226365e+002;0.000000e+000
5.245651e+002;0.000000e+000
5.264936e+002;0.000000e+000
5.284222e+002;0.000000e+000
5.303507e+002;0.000000e+000
5.322792e+002;0.000000e+000
5.342078e+002;0.000000e+000
5.361364e+002;0.000000e+000
5.380649e+002;0.000000e+000
5.399935e+002;0.000000e+000
5.419220e+002;0.000000e+000
5.438505e+002;0.000000e+000
5.457791e+002;0.000000e+000
5.477076e+002;0.000000e+000
5.496362e+002;0.000000e+000
5.515648e+002;0.000000e+000
5.534933e+002;0.000000e+000
5.554218e+002;0.000000e+000
5.573504e+002;0.000000e+000
5.592789e+002;0.000000e+000
5.612075e+002;0.000000e+000
5.631360e+002;0.000000e+000
5.650646e+002;0.000000e+000
5.669931e+002;0.000000e+000
5.689217e+002;0.000000e+000
5.708502e+002;0.000000e+000
5.727787e+002;0.000000e+000
5.747073e+002;0.000000e+000
5.766359e+002;0.000000e+000
5.785644e+002;0.000000e+000
5.804930e+002;0.000000e+000
5.824215e+002;0.000000e+000
5.843500e+002;0.000000e+000
5.862786e+002;0.000000e+000
5.882072e+002;0.000000e+000
5.901357e+002;0.000000e+000
5.920643e+002;0.000000e+000
5.939928e+002;0.000000e+000
5.959213e+002;0.000000e+000
5.978499e+002;0.000000e+000
5.997784e+002;1.531268e-001
6.017070e+002;1.556987e-001
6.036355e+002;1.504980e-001
6.055641e+002;1.448611e-001
6.074926e+002;1.415657e-001
6.094211e+002;1.410460e-001
6.113497e+002;1.449628e-001
6.132783e+002;1.478750e-001
6.152068e+002;1.458106e-001
6.171354e+002;1.465176e-001
6.190639e+002;1.501623e-001
6.209924e+002;1.481915e-001
6.229210e+002;1.482006e-001
6.248495e+002;1.499194e-001
6.267781e+002;1.492618e-001
6.287067e+002;1.488540e-001
6.306352e+002;1.500852e-001
6.325637e+002;1.486746e-001
6.344923e+002;1.494717e-001
6.364208e+002;1.505341e-001
6.383494e+002;1.505309e-001
6.402780e+002;1.478381e-001
6.422065e+002;1.498501e-001
6.441350e+002;1.578073e-001
6.460636e+002;1.603464e-001
6.479921e+002;1.571247e-001
6.499207e+002;1.595787e-001
6.518492e+002;1.621291e-001
6.537778e+002;1.639449e-001
6.557063e+002;1.672822e-001
6.576349e+002;1.679773e-001
6.595634e+002;1.704247e-001
6.614919e+002;1.758600e-001
6.634205e+002;1.809110e-001
6.653491e+002;1.840982e-001
6.672776e+002;1.871681e-001
6.692062e+002;1.890132e-001
6.711347e+002;1.873295e-001
6.730632e+002;1.855604e-001
6.749918e+002;1.875695e-001
6.769203e+002;1.906144e-001
6.788489e+002;1.919779e-001
6.807775e+002;1.931572e-001
6.827060e+002;1.940963e-001
6.846345e+002;1.934918e-001
6.865631e+002;1.911770e-001
6.884916e+002;1.884674e-001
6.904202e+002;1.868768e-001
6.923488e+002;1.857141e-001
6.942773e+002;1.825934e-001
6.962058e+002;1.777487e-001
6.981344e+002;1.747624e-001
7.000629e+002;1.736374e-001
7.019915e+002;1.713461e-001
7.039200e+002;1.688821e-001
7.058486e+002;1.682454e-001
7.077771e+002;1.687526e-001
7.097057e+002;1.664737e-001
7.116342e+002;1.635415e-001
7.135627e+002;1.625904e-001
7.154913e+002;1.603940e-001
7.174199e+002;1.571277e-001
7.193484e+002;1.556916e-001
7.212770e+002;1.557030e-001
7.232055e+002;1.561700e-001
7.251340e+002;1.567296e-001
7.270626e+002;1.561746e-001
7.289911e+002;1.543274e-001
7.309197e+002;1.504337e-001
7.328483e+002;1.438860e-001
7.347768e+002;1.362705e-001
7.367053e+002;1.294259e-001
7.386339e+002;1.235141e-001
7.405624e+002;1.188402e-001
7.424910e+002;1.161775e-001
7.444196e+002;1.137101e-001
7.463481e+002;1.111377e-001
7.482766e+002;1.091852e-001
7.502052e+002;1.073119e-001
7.521337e+002;1.052412e-001
7.540623e+002;1.038625e-001
7.559908e+002;1.020558e-001
7.579194e+002;1.001879e-001
7.598479e+002;9.842726e-002
7.617765e+002;9.790571e-002
7.637050e+002;9.690206e-002
7.656335e+002;9.521034e-002
7.675621e+002;9.407975e-002
7.694907e+002;9.341998e-002
7.714192e+002;9.258956e-002
7.733478e+002;9.133360e-002
7.752763e+002;9.010837e-002
7.772048e+002;8.912687e-002
7.791334e+002;8.820303e-002
7.810620e+002;8.685702e-002
7.829905e+002;8.523645e-002
7.849191e+002;8.345743e-002
7.868476e+002;8.218948e-002
7.887761e+002;8.111181e-002
7.907047e+002;7.947815e-002
7.926332e+002;7.810663e-002
7.945618e+002;7.678887e-002
7.964903e+002;7.637458e-002
7.984189e+002;7.581646e-002
8.003474e+002;7.382973e-002
8.022759e+002;7.235804e-002
8.042045e+002;7.156900e-002
8.061331e+002;7.024892e-002
8.080616e+002;6.984227e-002
8.099902e+002;6.964863e-002
8.119187e+002;6.820036e-002
8.138472e+002;6.693244e-002
8.157758e+002;6.709065e-002
8.177043e+002;6.706509e-002
8.196329e+002;6.718358e-002
8.215615e+002;6.744728e-002
8.234900e+002;6.748015e-002
8.254185e+002;6.736381e-002
8.273471e+002;6.819916e-002
8.292756e+002;6.993065e-002
8.312042e+002;7.158725e-002
8.331328e+002;7.209090e-002
8.350613e+002;7.047221e-002
8.369898e+002;6.759027e-002
8.389184e+002;6.555326e-002
8.408469e+002;6.421116e-002
8.427755e+002;6.277782e-002
8.447040e+002;6.107898e-002
8.466326e+002;5.943079e-002
8.485611e+002;5.944462e-002
8.504897e+002;5.999874e-002
8.524182e+002;5.935147e-002
8.543467e+002;5.857614e-002
8.562753e+002;5.781635e-002
8.582039e+002;5.785356e-002
8.601324e+002;5.811064e-002
8.620610e+002;5.750430e-002
8.639895e+002;5.700152e-002
8.659180e+002;5.724777e-002
8.678466e+002;5.801100e-002
8.697751e+002;5.805398e-002
8.717037e+002;5.785985e-002
8.736323e+002;5.778581e-002
8.755608e+002;5.778123e-002
8.774893e+002;5.805038e-002
8.794179e+002;5.831872e-002
8.813464e+002;5.858490e-002
8.832750e+002;5.911970e-002
8.852036e+002;5.975306e-002
8.871321e+002;6.019239e-002
8.890606e+002;6.023060e-002
8.909892e+002;6.002686e-002
8.929177e+002;6.002614e-002
8.948463e+002;6.041056e-002
8.967748e+002;6.069583e-002
8.987034e+002;6.111475e-002
9.006319e+002;6.143594e-002
9.025605e+002;6.165830e-002
9.044890e+002;6.203679e-002
9.064175e+002;6.279693e-002
9.083461e+002;6.350347e-002
9.102747e+002;6.365260e-002
9.122032e+002;6.397229e-002
9.141318e+002;6.478494e-002
9.160603e+002;6.571158e-002
9.179888e+002;6.641825e-002
9.199174e+002;6.751064e-002
9.218459e+002;6.913630e-002
9.237745e+002;7.048687e-002
9.257031e+002;7.194870e-002
9.276316e+002;7.373988e-002
9.295601e+002;7.440272e-002
9.314887e+002;7.344867e-002
9.334172e+002;7.182992e-002
9.353458e+002;7.029801e-002
9.372744e+002;6.941088e-002
9.392029e+002;6.911252e-002
9.411314e+002;6.952169e-002
9.430600e+002;7.042225e-002
9.449885e+002;7.146138e-002
9.469171e+002;7.324396e-002
9.488456e+002;7.502373e-002
9.507742e+002;7.653768e-002
9.527027e+002;7.745075e-002
9.546313e+002;7.797807e-002
9.565598e+002;7.894889e-002
9.584883e+002;7.980604e-002
9.604169e+002;7.996830e-002
9.623455e+002;7.924689e-002
9.642740e+002;7.786112e-002
9.662026e+002;7.722488e-002
9.681311e+002;7.689877e-002
9.700596e+002;7.616525e-002
9.719882e+002;7.570738e-002
9.739167e+002;7.514181e-002
9.758453e+002;7.445676e-002
9.777739e+002;7.359854e-002
9.797024e+002;7.282536e-002
9.816309e+002;7.233436e-002
9.835595e+002;7.162050e-002
9.854880e+002;7.065565e-002
9.874166e+002;6.968415e-002
9.893452e+002;6.898356e-002
9.912737e+002;6.817637e-002
9.932022e+002;6.731866e-002
9.951307e+002;6.668512e-002
9.970593e+002;6.635308e-002
9.989879e+002;6.579616e-002
1.000916e+003;6.529031e-002
1.002845e+003;6.531639e-002
1.004773e+003;6.586633e-002
1.006702e+003;6.612839e-002
1.008631e+003;6.575926e-002
1.010559e+003;6.557199e-002
1.012488e+003;6.563449e-002
1.014416e+003;6.565893e-002
1.016345e+003;6.582230e-002
1.018273e+003;6.585249e-002
1.020202e+003;6.567881e-002
1.022130e+003;6.661168e-002
1.024059e+003;6.844203e-002
1.025988e+003;6.996794e-002
1.027916e+003;7.111580e-002
1.029845e+003;7.173536e-002
1.031773e+003;7.114300e-002
1.033702e+003;7.016468e-002
1.035630e+003;6.969185e-002
1.037559e+003;6.890415e-002
1.039487e+003;6.805532e-002
1.041416e+003;6.728265e-002
1.043344e+003;6.625307e-002
1.045273e+003;6.592526e-002
1.047202e+003;6.612545e-002
1.049130e+003;6.653424e-002
1.051059e+003;6.742898e-002
1.052987e+003;6.821816e-002
1.054916e+003;6.904738e-002
1.056844e+003;7.041617e-002
1.058773e+003;7.253456e-002
1.060701e+003;7.417799e-002
1.062630e+003;7.507874e-002
1.064558e+003;7.624510e-002
1.066487e+003;7.752331e-002
1.068416e+003;7.859805e-002
1.070344e+003;7.940160e-002
1.072273e+003;7.979442e-002
1.074201e+003;7.996814e-002
1.076130e+003;7.937515e-002
1.078058e+003;7.849995e-002
1.079987e+003;7.821295e-002
1.081915e+003;7.775985e-002
1.083844e+003;7.698461e-002
1.085773e+003;7.653262e-002
1.087701e+003;7.631391e-002
1.089630e+003;7.600778e-002
1.091558e+003;7.627358e-002
1.093487e+003;7.666361e-002
1.095415e+003;7.737516e-002
1.097344e+003;7.865504e-002
1.099272e+003;7.976730e-002
1.101201e+003;8.116321e-002
1.103129e+003;8.309229e-002
1.105058e+003;8.509374e-002
1.106987e+003;8.685136e-002
1.108915e+003;8.808126e-002
1.110844e+003;8.871870e-002
1.112772e+003;8.911515e-002
1.114701e+003;8.959598e-002
1.116629e+003;9.002405e-002
1.118558e+003;9.013357e-002
1.120486e+003;8.936813e-002
1.122415e+003;8.756591e-002
1.124344e+003;8.526930e-002
1.126272e+003;8.267512e-002
1.128201e+003;8.004694e-002
1.130129e+003;7.758740e-002
1.132058e+003;7.575156e-002
1.133986e+003;7.482410e-002
1.135915e+003;7.435934e-002
1.137843e+003;7.417280e-002
1.139772e+003;7.447516e-002
1.141700e+003;7.572162e-002
1.143629e+003;7.768741e-002
1.145557e+003;7.998546e-002
1.147486e+003;8.183961e-002
1.149415e+003;8.412530e-002
1.151343e+003;8.732138e-002
1.153272e+003;9.037674e-002
1.155200e+003;9.396283e-002
1.157129e+003;9.843590e-002
1.159057e+003;1.033344e-001
1.160986e+003;1.094304e-001
1.162914e+003;1.160783e-001
1.164843e+003;1.218530e-001
1.166771e+003;1.263817e-001
1.168700e+003;1.285553e-001
1.170629e+003;1.273350e-001
1.172557e+003;1.235676e-001
1.174486e+003;1.188190e-001
1.176414e+003;1.142023e-001
1.178343e+003;1.101464e-001
1.180271e+003;1.071560e-001
1.182200e+003;1.057818e-001
1.184128e+003;1.064898e-001
1.186057e+003;1.087655e-001
1.187986e+003;1.118113e-001
1.189914e+003;1.154068e-001
1.191843e+003;1.195803e-001
1.193771e+003;1.243460e-001
1.195700e+003;1.293368e-001
1.197628e+003;1.331126e-001
1.199557e+003;1.340338e-001
1.201485e+003;1.319405e-001
1.203414e+003;1.281395e-001
1.205343e+003;1.248905e-001
1.207271e+003;1.229025e-001
1.209200e+003;1.217276e-001
1.211128e+003;1.213080e-001
1.213057e+003;1.207867e-001
1.214985e+003;1.190344e-001
1.216914e+003;1.159738e-001
1.218842e+003;1.125686e-001
1.220771e+003;1.104942e-001
1.222699e+003;1.104270e-001
1.224628e+003;1.124802e-001
1.226557e+003;1.160038e-001
1.228485e+003;1.201613e-001
1.230414e+003;1.245382e-001
1.232342e+003;1.289370e-001
1.234271e+003;1.324829e-001
1.236199e+003;1.344715e-001
1.238128e+003;1.352878e-001
1.240056e+003;1.357991e-001
1.241985e+003;1.356121e-001
1.243913e+003;1.354268e-001
1.245842e+003;1.361255e-001
1.247771e+003;1.376702e-001
1.249699e+003;1.398241e-001
1.251628e+003;1.425139e-001
1.253556e+003;1.458274e-001
1.255485e+003;1.489163e-001
1.257413e+003;1.512724e-001
1.259342e+003;1.527090e-001
1.261270e+003;1.532137e-001
1.263199e+003;1.517618e-001
1.265127e+003;1.479044e-001
1.267056e+003;1.419948e-001
1.268985e+003;1.355844e-001
1.270913e+003;1.308392e-001
1.272842e+003;1.285157e-001
1.274770e+003;1.276704e-001
1.276699e+003;1.271482e-001
1.278627e+003;1.264635e-001
1.280556e+003;1.256120e-001
1.282484e+003;1.242700e-001
1.284413e+003;1.225257e-001
1.286342e+003;1.208059e-001
1.288270e+003;1.195321e-001
1.290199e+003;1.190923e-001
1.292127e+003;1.186289e-001
1.294056e+003;1.177906e-001
1.295984e+003;1.171892e-001
1.297913e+003;1.171445e-001
1.299841e+003;1.170847e-001
1.301770e+003;1.161443e-001
1.303698e+003;1.149664e-001
1.305627e+003;1.139995e-001
1.307556e+003;1.129250e-001
1.309484e+003;1.114346e-001
1.311413e+003;1.100713e-001
1.313341e+003;1.092416e-001
1.315270e+003;1.084462e-001
1.317198e+003;1.075287e-001
1.319127e+003;1.064165e-001
1.321055e+003;1.052743e-001
1.322984e+003;1.047719e-001
1.324912e+003;1.046929e-001
1.326841e+003;1.045121e-001
1.328770e+003;1.044845e-001
1.330698e+003;1.049936e-001
1.332627e+003;1.057231e-001
1.334555e+003;1.061893e-001
1.336484e+003;1.064132e-001
1.338412e+003;1.067659e-001
1.340341e+003;1.076019e-001
1.342269e+003;1.085645e-001
1.344198e+003;1.095123e-001
1.346126e+003;1.104096e-001
1.348055e+003;1.115049e-001
1.349984e+003;1.126977e-001
1.351912e+003;1.140880e-001
1.353841e+003;1.156853e-001
1.355769e+003;1.174037e-001
1.357698e+003;1.194366e-001
1.359626e+003;1.213523e-001
1.361555e+003;1.231078e-001
1.363483e+003;1.247920e-001
1.365412e+003;1.265330e-001
1.367341e+003;1.283788e-001
1.369269e+003;1.298220e-001
1.371198e+003;1.302619e-001
1.373126e+003;1.297880e-001
1.375055e+003;1.283792e-001
1.376983e+003;1.260943e-001
1.378912e+003;1.230742e-001
1.380840e+003;1.195370e-001
1.382769e+003;1.161500e-001
1.384698e+003;1.131615e-001
1.386626e+003;1.101945e-001
1.388555e+003;1.075853e-001
1.390483e+003;1.055299e-001
1.392412e+003;1.040277e-001
1.394340e+003;1.032068e-001
1.396269e+003;1.031979e-001
1.398197e+003;1.041501e-001
1.400126e+003;1.058891e-001
1.402054e+003;1.085855e-001
1.403983e+003;1.124701e-001
1.405911e+003;1.175924e-001
1.407840e+003;1.238568e-001
1.409769e+003;1.308872e-001
1.411697e+003;1.378548e-001
1.413626e+003;1.438449e-001
1.415554e+003;1.478376e-001
1.417483e+003;1.486945e-001
1.419411e+003;1.464766e-001
1.421340e+003;1.427120e-001
1.423268e+003;1.388967e-001
1.425197e+003;1.362268e-001
1.427125e+003;1.356021e-001
1.429054e+003;1.366815e-001
1.430983e+003;1.387506e-001
1.432911e+003;1.408258e-001
1.434840e+003;1.419573e-001
1.436768e+003;1.419016e-001
1.438697e+003;1.414821e-001
1.440625e+003;1.409939e-001
1.442554e+003;1.404960e-001
1.444482e+003;1.401425e-001
1.446411e+003;1.403079e-001
1.448340e+003;1.413780e-001
1.450268e+003;1.432832e-001
1.452197e+003;1.456234e-001
1.454125e+003;1.483698e-001
1.456054e+003;1.515494e-001
1.457982e+003;1.564953e-001
1.459911e+003;1.626586e-001
1.461839e+003;1.668906e-001
1.463768e+003;1.660920e-001
1.465697e+003;1.601350e-001
1.467625e+003;1.527432e-001
1.469554e+003;1.469865e-001
1.471482e+003;1.444500e-001
1.473411e+003;1.448049e-001
1.475339e+003;1.458813e-001
1.477268e+003;1.451860e-001
1.479196e+003;1.418403e-001
1.481125e+003;1.366695e-001
1.483053e+003;1.304306e-001
1.484982e+003;1.243765e-001
1.486911e+003;1.202720e-001
1.488839e+003;1.189511e-001
1.490768e+003;1.201050e-001
1.492696e+003;1.227094e-001
1.494625e+003;1.258921e-001
1.496553e+003;1.297757e-001
1.498482e+003;1.344666e-001
1.500410e+003;1.396709e-001
1.502339e+003;1.451955e-001
1.504267e+003;1.508785e-001
1.506196e+003;1.573571e-001
1.508125e+003;1.646617e-001
1.510053e+003;1.718765e-001
1.511982e+003;1.793589e-001
1.513910e+003;1.874023e-001
1.515839e+003;1.957495e-001
1.517767e+003;2.043106e-001
1.519696e+003;2.129494e-001
1.521624e+003;2.221681e-001
1.523553e+003;2.317271e-001
1.525481e+003;2.409461e-001
1.527410e+003;2.502805e-001
1.529339e+003;2.591499e-001
1.531267e+003;2.667439e-001
1.533196e+003;2.734048e-001
1.535124e+003;2.785737e-001
1.537053e+003;2.806183e-001
1.538981e+003;2.799196e-001
1.540910e+003;2.771162e-001
1.542838e+003;2.715655e-001
1.544767e+003;2.632309e-001
1.546695e+003;2.531914e-001
1.548624e+003;2.422963e-001
1.550553e+003;2.308374e-001
1.552481e+003;2.194715e-001
1.554410e+003;2.088856e-001
1.556338e+003;1.989614e-001
1.558267e+003;1.892027e-001
1.560195e+003;1.806666e-001
1.562124e+003;1.731070e-001
1.564052e+003;1.650107e-001
1.565981e+003;1.569315e-001
1.567910e+003;1.491382e-001
1.569838e+003;1.416818e-001
1.571767e+003;1.349622e-001
1.573695e+003;1.285986e-001
1.575624e+003;1.226306e-001
1.577552e+003;1.176670e-001
1.579481e+003;1.138859e-001
1.581409e+003;1.106158e-001
1.583338e+003;1.081929e-001
1.585266e+003;1.069343e-001
1.587195e+003;1.065336e-001
1.589124e+003;1.065916e-001
1.591052e+003;1.070359e-001
1.592981e+003;1.086170e-001
1.594909e+003;1.116277e-001
1.596838e+003;1.155797e-001
1.598766e+003;1.201617e-001
1.600695e+003;1.257053e-001
1.602623e+003;1.323951e-001
1.604552e+003;1.400397e-001
1.606480e+003;1.483906e-001
1.608409e+003;1.571289e-001
1.610338e+003;1.668073e-001
1.612266e+003;1.779592e-001
1.614195e+003;1.902708e-001
1.616123e+003;2.040072e-001
1.618052e+003;2.199800e-001
1.619980e+003;2.373914e-001
1.621909e+003;2.556791e-001
1.623837e+003;2.742688e-001
1.625766e+003;2.927118e-001
1.627694e+003;3.116236e-001
1.629623e+003;3.309255e-001
1.631552e+003;3.488612e-001
1.633480e+003;3.627838e-001
1.635409e+003;3.694682e-001
1.637337e+003;3.673709e-001
1.639266e+003;3.563618e-001
1.641194e+003;3.381571e-001
1.643123e+003;3.162693e-001
1.645051e+003;2.931016e-001
1.646980e+003;2.704962e-001
1.648909e+003;2.505400e-001
1.650837e+003;2.329237e-001
1.652766e+003;2.168861e-001
1.654694e+003;2.036657e-001
1.656623e+003;1.926675e-001
1.658551e+003;1.822538e-001
1.660480e+003;1.720648e-001
1.662408e+003;1.620949e-001
1.664337e+003;1.526395e-001
1.666266e+003;1.430514e-001
1.668194e+003;1.336469e-001
1.670123e+003;1.252865e-001
1.672051e+003;1.176130e-001
1.673980e+003;1.100161e-001
1.675908e+003;1.026636e-001
1.677837e+003;9.552230e-002
1.679765e+003;8.808905e-002
1.681694e+003;8.065448e-002
1.683622e+003;7.339793e-002
1.685551e+003;6.718022e-002
1.687479e+003;6.224653e-002
1.689408e+003;5.815094e-002
1.691337e+003;5.494513e-002
1.693265e+003;5.218003e-002
1.695194e+003;4.978347e-002
1.697122e+003;4.833922e-002
1.699051e+003;4.700819e-002
1.700979e+003;4.589266e-002
1.702908e+003;4.553231e-002
1.704836e+003;4.502875e-002
1.706765e+003;4.449644e-002
1.708693e+003;4.437990e-002
1.710622e+003;4.444087e-002
1.712551e+003;4.412411e-002
1.714479e+003;4.402059e-002
1.716408e+003;4.392456e-002
1.718336e+003;4.392504e-002
1.720265e+003;4.404640e-002
1.722193e+003;4.401432e-002
1.724122e+003;4.401879e-002
1.726050e+003;4.388933e-002
1.727979e+003;4.316210e-002
1.729908e+003;4.226635e-002
1.731836e+003;4.130895e-002
1.733765e+003;4.036188e-002
1.735693e+003;3.976792e-002
1.737622e+003;3.913515e-002
1.739550e+003;3.833241e-002
1.741479e+003;3.756329e-002
1.743407e+003;3.697821e-002
1.745336e+003;3.660174e-002
1.747265e+003;3.611152e-002
1.749193e+003;3.551120e-002
1.751122e+003;3.501276e-002
1.753050e+003;3.487590e-002
1.754979e+003;3.471881e-002
1.756907e+003;3.437568e-002
1.758836e+003;3.378334e-002
1.760764e+003;3.309367e-002
1.762693e+003;3.268705e-002
1.764621e+003;3.230175e-002
1.766550e+003;3.177040e-002
1.768479e+003;3.127948e-002
1.770407e+003;3.075201e-002
1.772336e+003;3.024124e-002
1.774264e+003;2.984072e-002
1.776193e+003;2.951610e-002
1.778121e+003;2.936370e-002
1.780050e+003;2.910239e-002
1.781978e+003;2.867758e-002
1.783907e+003;2.840610e-002
1.785835e+003;2.815757e-002
1.787764e+003;2.790875e-002
1.789693e+003;2.757173e-002
1.791621e+003;2.712735e-002
1.793550e+003;2.695665e-002
1.795478e+003;2.686792e-002
1.797407e+003;2.673181e-002
1.799335e+003;2.655812e-002
1.801264e+003;2.623693e-002
1.803192e+003;2.601282e-002
1.805121e+003;2.585162e-002
1.807049e+003;2.574627e-002
1.808978e+003;2.586811e-002
1.810907e+003;2.597433e-002
1.812835e+003;2.579834e-002
1.814764e+003;2.542730e-002
1.816692e+003;2.517165e-002
1.818621e+003;2.512320e-002
1.820549e+003;2.509603e-002
1.822478e+003;2.500080e-002
1.824406e+003;2.491608e-002
1.826335e+003;2.482479e-002
1.828264e+003;2.467571e-002
1.830192e+003;2.463702e-002
1.832121e+003;2.455189e-002
1.834049e+003;2.442015e-002
1.835978e+003;2.440627e-002
1.837906e+003;2.432412e-002
1.839835e+003;2.409938e-002
1.841763e+003;2.393966e-002
1.843692e+003;2.371267e-002
1.845620e+003;2.363548e-002
1.847549e+003;2.353361e-002
1.849478e+003;2.336868e-002
1.851406e+003;2.316865e-002
1.853335e+003;2.298723e-002
1.855263e+003;2.298534e-002
1.857192e+003;2.304869e-002
1.859120e+003;2.306598e-002
1.861049e+003;2.304708e-002
1.862977e+003;2.293207e-002
1.864906e+003;2.290182e-002
1.866834e+003;2.279384e-002
1.868763e+003;2.268337e-002
1.870692e+003;2.245253e-002
1.872620e+003;2.231891e-002
1.874549e+003;2.259181e-002
1.876477e+003;2.279834e-002
1.878406e+003;2.282694e-002
1.880334e+003;2.284042e-002
1.882263e+003;2.273982e-002
1.884191e+003;2.249800e-002
1.886120e+003;2.246310e-002
1.888048e+003;2.249985e-002
1.889977e+003;2.250822e-002
1.891906e+003;2.242106e-002
1.893834e+003;2.251984e-002
1.895763e+003;2.295530e-002
1.897691e+003;2.302625e-002
1.899620e+003;2.283030e-002
1.901548e+003;2.283885e-002
1.903477e+003;2.301756e-002
1.905405e+003;2.301766e-002
1.907334e+003;2.276807e-002
1.909262e+003;2.255258e-002
1.911191e+003;2.252549e-002
1.913120e+003;2.252043e-002
1.915048e+003;2.234870e-002
1.916977e+003;2.219116e-002
1.918905e+003;2.205630e-002
1.920834e+003;2.191099e-002
1.922762e+003;2.207938e-002
1.924691e+003;2.211463e-002
1.926619e+003;2.187402e-002
1.928548e+003;2.171045e-002
1.930477e+003;2.164494e-002
1.932405e+003;2.147494e-002
1.934334e+003;2.160200e-002
1.936262e+003;2.179841e-002
1.938191e+003;2.182994e-002
1.940119e+003;2.167576e-002
1.942048e+003;2.142735e-002
1.943976e+003;2.141830e-002
1.945905e+003;2.157602e-002
1.947833e+003;2.174466e-002
1.949762e+003;2.169042e-002
1.951691e+003;2.152066e-002
1.953619e+003;2.157132e-002
1.955548e+003;2.172539e-002
1.957476e+003;2.189259e-002
1.959405e+003;2.184088e-002
1.961333e+003;2.172738e-002
1.963262e+003;2.180834e-002
1.965190e+003;2.197801e-002
1.967119e+003;2.215113e-002
1.969047e+003;2.216117e-002
1.970976e+003;2.201332e-002
1.972905e+003;2.194853e-002
1.974833e+003;2.208778e-002
1.976762e+003;2.218534e-002
1.978690e+003;2.228295e-002
1.980619e+003;2.228463e-002
1.982547e+003;2.212198e-002
1.984476e+003;2.216428e-002
1.986404e+003;2.228947e-002
1.988333e+003;2.209716e-002
1.990261e+003;2.192288e-002
1.992190e+003;2.198185e-002
1.994119e+003;2.206875e-002
1.996047e+003;2.227186e-002
1.997976e+003;2.233911e-002
1.999904e+003;2.216487e-002
2.001833e+003;2.231009e-002
2.003761e+003;2.225348e-002
2.005690e+003;2.202381e-002
2.007618e+003;2.211714e-002
2.009547e+003;2.230862e-002
2.011476e+003;2.252221e-002
2.013404e+003;2.250731e-002
2.015333e+003;2.242221e-002
2.017261e+003;2.258957e-002
2.019190e+003;2.266144e-002
2.021118e+003;2.249133e-002
2.023047e+003;2.256493e-002
2.024975e+003;2.268776e-002
2.026904e+003;2.279705e-002
2.028833e+003;2.292994e-002
2.030761e+003;2.294985e-002
2.032690e+003;2.297322e-002
2.034618e+003;2.309516e-002
2.036547e+003;2.325666e-002
2.038475e+003;2.336704e-002
2.040404e+003;2.345820e-002
2.042332e+003;2.340522e-002
2.044261e+003;2.325387e-002
2.046189e+003;2.328103e-002
2.048118e+003;2.333113e-002
2.050047e+003;2.320710e-002
2.051975e+003;2.309163e-002
2.053904e+003;2.312825e-002
2.055832e+003;2.322789e-002
2.057761e+003;2.345491e-002
2.059689e+003;2.364209e-002
2.061618e+003;2.377307e-002
2.063546e+003;2.369962e-002
2.065475e+003;2.352577e-002
2.067404e+003;2.350279e-002
2.069332e+003;2.365766e-002
2.071260e+003;2.377626e-002
2.073189e+003;2.387521e-002
2.075118e+003;2.384797e-002
2.077046e+003;2.375606e-002
2.078975e+003;2.376079e-002
2.080903e+003;2.372047e-002
2.082832e+003;2.345834e-002
2.084760e+003;2.311563e-002
2.086689e+003;2.321461e-002
2.088617e+003;2.351955e-002
2.090546e+003;2.351206e-002
2.092475e+003;2.320178e-002
2.094403e+003;2.301759e-002
2.096332e+003;2.302370e-002
2.098260e+003;2.306829e-002
2.100189e+003;2.322954e-002
2.102117e+003;2.328225e-002
2.104046e+003;2.328431e-002
2.105974e+003;2.326803e-002
2.107903e+003;2.332774e-002
2.109832e+003;2.363205e-002
2.111760e+003;2.386072e-002
2.113688e+003;2.378732e-002
2.115617e+003;2.359570e-002
2.117546e+003;2.366749e-002
2.119474e+003;2.392713e-002
2.121403e+003;2.387514e-002
2.123331e+003;2.353553e-002
2.125260e+003;2.348359e-002
2.127188e+003;2.378259e-002
2.129117e+003;2.408271e-002
2.131045e+003;2.416505e-002
2.132974e+003;2.417056e-002
2.134903e+003;2.403497e-002
2.136831e+003;2.380737e-002
2.138760e+003;2.369594e-002
2.140688e+003;2.387587e-002
2.142617e+003;2.392240e-002
2.144545e+003;2.391785e-002
2.146474e+003;2.407010e-002
2.148402e+003;2.393157e-002
2.150331e+003;2.391372e-002
2.152260e+003;2.418341e-002
2.154188e+003;2.436046e-002
2.156117e+003;2.418236e-002
2.158045e+003;2.389492e-002
2.159974e+003;2.393087e-002
2.161902e+003;2.402356e-002
2.163831e+003;2.402300e-002
2.165759e+003;2.443950e-002
2.167688e+003;2.471474e-002
2.169616e+003;2.446088e-002
2.171545e+003;2.467872e-002
2.173474e+003;2.491748e-002
2.175402e+003;2.487285e-002
2.177331e+003;2.485173e-002
2.179259e+003;2.489962e-002
2.181188e+003;2.513243e-002
2.183116e+003;2.526864e-002
2.185045e+003;2.515845e-002
2.186973e+003;2.495854e-002
2.188902e+003;2.504299e-002
2.190831e+003;2.521905e-002
2.192759e+003;2.514117e-002
2.194688e+003;2.503755e-002
2.196616e+003;2.496949e-002
2.198545e+003;2.483380e-002
2.200473e+003;2.485952e-002
2.202402e+003;2.492570e-002
2.204330e+003;2.499286e-002
2.206259e+003;2.502449e-002
2.208188e+003;2.485036e-002
2.210116e+003;2.459782e-002
2.212044e+003;2.435244e-002
2.213973e+003;2.414271e-002
2.215902e+003;2.403602e-002
2.217830e+003;2.402955e-002
2.219759e+003;2.410495e-002
2.221687e+003;2.402825e-002
2.223616e+003;2.389709e-002
2.225544e+003;2.372653e-002
2.227473e+003;2.369951e-002
2.229401e+003;2.377535e-002
2.231330e+003;2.388067e-002
2.233259e+003;2.402114e-002
2.235187e+003;2.396690e-002
2.237116e+003;2.382897e-002
2.239044e+003;2.387832e-002
2.240973e+003;2.386989e-002
2.242901e+003;2.390339e-002
2.244830e+003;2.411570e-002
2.246758e+003;2.402846e-002
2.248687e+003;2.364174e-002
2.250615e+003;2.340581e-002
2.252544e+003;2.344600e-002
2.254473e+003;2.376719e-002
2.256401e+003;2.386800e-002
2.258330e+003;2.378231e-002
2.260258e+003;2.381059e-002
2.262187e+003;2.389317e-002
2.264115e+003;2.414509e-002
2.266044e+003;2.441927e-002
2.267972e+003;2.431378e-002
2.269901e+003;2.425509e-002
2.271830e+003;2.432514e-002
2.273758e+003;2.422005e-002
2.275687e+003;2.417623e-002
2.277615e+003;2.432496e-002
2.279544e+003;2.448598e-002
2.281472e+003;2.458155e-002
2.283401e+003;2.450855e-002
2.285329e+003;2.466561e-002
2.287258e+003;2.472860e-002
2.289187e+003;2.451893e-002
2.291115e+003;2.427082e-002
2.293043e+003;2.434175e-002
2.294972e+003;2.466571e-002
2.296901e+003;2.461598e-002
2.298829e+003;2.445951e-002
2.300758e+003;2.461535e-002
2.302686e+003;2.471155e-002
2.304615e+003;2.468542e-002
2.306543e+003;2.492335e-002
2.308472e+003;2.504186e-002
2.310400e+003;2.478027e-002
2.312329e+003;2.468030e-002
2.314258e+003;2.471551e-002
2.316186e+003;2.481801e-002
2.318115e+003;2.487773e-002
2.320043e+003;2.473663e-002
2.321972e+003;2.470629e-002
2.323900e+003;2.464018e-002
2.325829e+003;2.475876e-002
2.327757e+003;2.496219e-002
2.329686e+003;2.492703e-002
2.331615e+003;2.500789e-002
2.333543e+003;2.511983e-002
2.335472e+003;2.498627e-002
2.337400e+003;2.478030e-002
2.339329e+003;2.464439e-002
2.341257e+003;2.459740e-002
2.343186e+003;2.450642e-002
2.345114e+003;2.441682e-002
2.347043e+003;2.435520e-002
2.348971e+003;2.454218e-002
2.350900e+003;2.450028e-002
2.352829e+003;2.423680e-002
2.354757e+003;2.423481e-002
2.356686e+003;2.448482e-002
2.358614e+003;2.457135e-002
2.360543e+003;2.446670e-002
2.362471e+003;2.433467e-002
2.364400e+003;2.448300e-002
2.366328e+003;2.464807e-002
2.368257e+003;2.455644e-002
2.370186e+003;2.462552e-002
2.372114e+003;2.480173e-002
2.374042e+003;2.473582e-002
2.375971e+003;2.474105e-002
2.377900e+003;2.498002e-002
2.379828e+003;2.501287e-002
2.381757e+003;2.485654e-002
2.383685e+003;2.489608e-002
2.385614e+003;2.512611e-002
2.387542e+003;2.508104e-002
2.389471e+003;2.490499e-002
2.391399e+003;2.462324e-002
2.393328e+003;2.478672e-002
2.395257e+003;2.515817e-002
2.397185e+003;2.521048e-002
2.399114e+003;2.500641e-002
2.401042e+003;2.484240e-002
2.402971e+003;2.483306e-002
2.404899e+003;2.500245e-002
2.406828e+003;2.494987e-002
2.408756e+003;2.486604e-002
2.410685e+003;2.497500e-002
2.412614e+003;2.522393e-002
2.414542e+003;2.519683e-002
2.416471e+003;2.519258e-002
2.418399e+003;2.546426e-002
2.420328e+003;2.541767e-002
2.422256e+003;2.524662e-002
2.424185e+003;2.529681e-002
2.426113e+003;2.534366e-002
2.428042e+003;2.521940e-002
2.429970e+003;2.533403e-002
2.431899e+003;2.548657e-002
2.433828e+003;2.562306e-002
2.435756e+003;2.574272e-002
2.437685e+003;2.579792e-002
2.439613e+003;2.576617e-002
2.441542e+003;2.600708e-002
2.443470e+003;2.644862e-002
2.445399e+003;2.663964e-002
2.447327e+003;2.659831e-002
2.449256e+003;2.648849e-002
2.451185e+003;2.655347e-002
2.453113e+003;2.658190e-002
2.455042e+003;2.666627e-002
2.456970e+003;2.654502e-002
2.458899e+003;2.650631e-002
2.460827e+003;2.658384e-002
2.462756e+003;2.680898e-002
2.464684e+003;2.721529e-002
2.466613e+003;2.728782e-002
2.468542e+003;2.741677e-002
2.470470e+003;2.757908e-002
2.472398e+003;2.752157e-002
2.474327e+003;2.744465e-002
2.476256e+003;2.765270e-002
2.478184e+003;2.788066e-002
2.480113e+003;2.759775e-002
2.482041e+003;2.745527e-002
2.483970e+003;2.773099e-002
2.485898e+003;2.796956e-002
2.487827e+003;2.794221e-002
2.489755e+003;2.778475e-002
2.491684e+003;2.775254e-002
2.493613e+003;2.769327e-002
2.495541e+003;2.775833e-002
2.497470e+003;2.770627e-002
2.499398e+003;2.763123e-002
2.501327e+003;2.761643e-002
2.503255e+003;2.766092e-002
2.505184e+003;2.772361e-002
2.507112e+003;2.768045e-002
2.509041e+003;2.781774e-002
2.510969e+003;2.827457e-002
2.512898e+003;2.860590e-002
2.514827e+003;2.872773e-002
2.516755e+003;2.875513e-002
2.518684e+003;2.885229e-002
2.520612e+003;2.915154e-002
2.522541e+003;2.939851e-002
2.524469e+003;2.946897e-002
2.526398e+003;2.966128e-002
2.528326e+003;2.978550e-002
2.530255e+003;2.992842e-002
2.532184e+003;3.008521e-002
2.534112e+003;3.008240e-002
2.536041e+003;3.003688e-002
2.537969e+003;3.024642e-002
2.539898e+003;3.052633e-002
2.541826e+003;3.078274e-002
2.543755e+003;3.098285e-002
2.545683e+003;3.120143e-002
2.547612e+003;3.136014e-002
2.549541e+003;3.146457e-002
2.551469e+003;3.170660e-002
2.553397e+003;3.172823e-002
2.555326e+003;3.157969e-002
2.557255e+003;3.128051e-002
2.559183e+003;3.105627e-002
2.561112e+003;3.116722e-002
2.563040e+003;3.136655e-002
2.564969e+003;3.152995e-002
2.566897e+003;3.175294e-002
2.568826e+003;3.177279e-002
2.570754e+003;3.160913e-002
2.572683e+003;3.176877e-002
2.574612e+003;3.204124e-002
2.576540e+003;3.234302e-002
2.578469e+003;3.239767e-002
2.580397e+003;3.227420e-002
2.582326e+003;3.243041e-002
2.584254e+003;3.274918e-002
2.586183e+003;3.286074e-002
2.588111e+003;3.300643e-002
2.590040e+003;3.317381e-002
2.591969e+003;3.302098e-002
2.593897e+003;3.290352e-002
2.595826e+003;3.299145e-002
2.597754e+003;3.321451e-002
2.599683e+003;3.334752e-002
2.601611e+003;3.321505e-002
2.603540e+003;3.318014e-002
2.605468e+003;3.335710e-002
2.607397e+003;3.364956e-002
2.609325e+003;3.397015e-002
2.611254e+003;3.391462e-002
2.613183e+003;3.366649e-002
2.615111e+003;3.393880e-002
2.617040e+003;3.415865e-002
2.618968e+003;3.408428e-002
2.620897e+003;3.394751e-002
2.622825e+003;3.399351e-002
2.624754e+003;3.434427e-002
2.626682e+003;3.454574e-002
2.628611e+003;3.436561e-002
2.630540e+003;3.419834e-002
2.632468e+003;3.459346e-002
2.634396e+003;3.509447e-002
2.636325e+003;3.502027e-002
2.638254e+003;3.509756e-002
2.640182e+003;3.534586e-002
2.642111e+003;3.552745e-002
2.644039e+003;3.554334e-002
2.645968e+003;3.523345e-002
2.647896e+003;3.507946e-002
2.649825e+003;3.522662e-002
2.651753e+003;3.547398e-002
2.653682e+003;3.571279e-002
2.655611e+003;3.588988e-002
2.657539e+003;3.587059e-002
2.659468e+003;3.570426e-002
2.661396e+003;3.566383e-002
2.663325e+003;3.574588e-002
2.665253e+003;3.590493e-002
2.667182e+003;3.607001e-002
2.669110e+003;3.610018e-002
2.671039e+003;3.634210e-002
2.672968e+003;3.665128e-002
2.674896e+003;3.677109e-002
2.676825e+003;3.690992e-002
2.678753e+003;3.704572e-002
2.680682e+003;3.718773e-002
2.682610e+003;3.721177e-002
2.684539e+003;3.723170e-002
2.686467e+003;3.753198e-002
2.688396e+003;3.779678e-002
2.690324e+003;3.787790e-002
2.692253e+003;3.813637e-002
2.694182e+003;3.840197e-002
2.696110e+003;3.851952e-002
2.698039e+003;3.888907e-002
2.699967e+003;3.948421e-002
2.701896e+003;3.962644e-002
2.703824e+003;3.965984e-002
2.705753e+003;3.986111e-002
2.707681e+003;4.004296e-002
2.709610e+003;4.035199e-002
2.711539e+003;4.063194e-002
2.713467e+003;4.087236e-002
2.715396e+003;4.109714e-002
2.717324e+003;4.154478e-002
2.719253e+003;4.230254e-002
2.721181e+003;4.279911e-002
2.723110e+003;4.272664e-002
2.725038e+003;4.311552e-002
2.726967e+003;4.359481e-002
2.728896e+003;4.376640e-002
2.730824e+003;4.413328e-002
2.732752e+003;4.459402e-002
2.734681e+003;4.487757e-002
2.736610e+003;4.508690e-002
2.738538e+003;4.550505e-002
2.740467e+003;4.580149e-002
2.742395e+003;4.572182e-002
2.744324e+003;4.571184e-002
2.746252e+003;4.592846e-002
2.748181e+003;4.634779e-002
2.750109e+003;4.658121e-002
2.752038e+003;4.624037e-002
2.753967e+003;4.603587e-002
2.755895e+003;4.608336e-002
2.757824e+003;4.610602e-002
2.759752e+003;4.637429e-002
2.761681e+003;4.679598e-002
2.763609e+003;4.699988e-002
2.765538e+003;4.706745e-002
2.767466e+003;4.736640e-002
2.769395e+003;4.768039e-002
2.771323e+003;4.796307e-002
2.773252e+003;4.799608e-002
2.775181e+003;4.816327e-002
2.777109e+003;4.884594e-002
2.779038e+003;4.937188e-002
2.780966e+003;4.939664e-002
2.782895e+003;4.970730e-002
2.784823e+003;5.024913e-002
2.786752e+003;5.067883e-002
2.788680e+003;5.095294e-002
2.790609e+003;5.122348e-002
2.792538e+003;5.176026e-002
2.794466e+003;5.236327e-002
2.796395e+003;5.279387e-002
2.798323e+003;5.307395e-002
2.800252e+003;5.318112e-002
2.802180e+003;5.348071e-002
2.804109e+003;5.413520e-002
2.806037e+003;5.492689e-002
2.807966e+003;5.542784e-002
2.809895e+003;5.594523e-002
2.811823e+003;5.636360e-002
2.813751e+003;5.692898e-002
2.815680e+003;5.781711e-002
2.817609e+003;5.866151e-002
2.819537e+003;5.931960e-002
2.821466e+003;5.992023e-002
2.823394e+003;6.046784e-002
2.825323e+003;6.113775e-002
2.827251e+003;6.173480e-002
2.829180e+003;6.246876e-002
2.831108e+003;6.365421e-002
2.833037e+003;6.483068e-002
2.834966e+003;6.588272e-002
2.836894e+003;6.756360e-002
2.838823e+003;7.002143e-002
2.840751e+003;7.256518e-002
2.842680e+003;7.568734e-002
2.844608e+003;7.953195e-002
2.846537e+003;8.332349e-002
2.848465e+003;8.735517e-002
2.850394e+003;9.210680e-002
2.852323e+003;9.656432e-002
2.854251e+003;1.007089e-001
2.856180e+003;1.040742e-001
2.858108e+003;1.063139e-001
2.860037e+003;1.080952e-001
2.861965e+003;1.092186e-001
2.863894e+003;1.091545e-001
2.865822e+003;1.083578e-001
2.867751e+003;1.069476e-001
2.869679e+003;1.047997e-001
2.871608e+003;1.026124e-001
2.873536e+003;1.002790e-001
2.875465e+003;9.766629e-002
2.877394e+003;9.471975e-002
2.879322e+003;9.196997e-002
2.881251e+003;8.971113e-002
2.883179e+003;8.784074e-002
2.885108e+003;8.688774e-002
2.887036e+003;8.685836e-002
2.888965e+003;8.767594e-002
2.890893e+003;8.894245e-002
2.892822e+003;9.065264e-002
2.894750e+003;9.256504e-002
2.896679e+003;9.423915e-002
2.898608e+003;9.583321e-002
2.900536e+003;9.742332e-002
2.902465e+003;9.852003e-002
2.904393e+003;9.932473e-002
2.906322e+003;1.003892e-001
2.908250e+003;1.021068e-001
2.910179e+003;1.035222e-001
2.912107e+003;1.051670e-001
2.914036e+003;1.070220e-001
2.915965e+003;1.087580e-001
2.917893e+003;1.109588e-001
2.919822e+003;1.144510e-001
2.921750e+003;1.183783e-001
2.923679e+003;1.221773e-001
2.925607e+003;1.258018e-001
2.927536e+003;1.290557e-001
2.929464e+003;1.318548e-001
2.931393e+003;1.343212e-001
2.933322e+003;1.361474e-001
2.935250e+003;1.369549e-001
2.937178e+003;1.363462e-001
2.939107e+003;1.345941e-001
2.941036e+003;1.320642e-001
2.942964e+003;1.287886e-001
2.944893e+003;1.248068e-001
2.946821e+003;1.202813e-001
2.948750e+003;1.148859e-001
2.950678e+003;1.088192e-001
2.952607e+003;1.027527e-001
2.954535e+003;9.688061e-002
2.956464e+003;9.097311e-002
2.958393e+003;8.578646e-002
2.960321e+003;8.173941e-002
2.962250e+003;7.806785e-002
2.964178e+003;7.481918e-002
2.966107e+003;7.180810e-002
2.968035e+003;6.921020e-002
2.969964e+003;6.683342e-002
2.971892e+003;6.439409e-002
2.973821e+003;6.242488e-002
2.975750e+003;6.064786e-002
2.977678e+003;5.872777e-002
2.979607e+003;5.680204e-002
2.981535e+003;5.530028e-002
2.983464e+003;5.414267e-002
2.985392e+003;5.277767e-002
2.987321e+003;5.200684e-002
2.989249e+003;5.149155e-002
2.991178e+003;5.075409e-002
2.993106e+003;5.001622e-002
2.995035e+003;4.961202e-002
2.996964e+003;4.948917e-002
2.998892e+003;4.934441e-002
3.000821e+003;4.906761e-002
3.002749e+003;4.891309e-002
3.004678e+003;4.902766e-002
3.006606e+003;4.880515e-002
3.008535e+003;4.866214e-002
3.010463e+003;4.876100e-002
3.012392e+003;4.888439e-002
3.014321e+003;4.928617e-002
3.016249e+003;4.973316e-002
3.018177e+003;5.012658e-002
3.020106e+003;5.027502e-002
3.022035e+003;5.050152e-002
3.023963e+003;5.091493e-002
3.025892e+003;5.134746e-002
3.027820e+003;5.193727e-002
3.029749e+003;5.254699e-002
3.031677e+003;5.292766e-002
3.033606e+003;5.341866e-002
3.035534e+003;5.387244e-002
3.037463e+003;5.455292e-002
3.039392e+003;5.549240e-002
3.041320e+003;5.615171e-002
3.043249e+003;5.681413e-002
3.045177e+003;5.788105e-002
3.047106e+003;5.881972e-002
3.049034e+003;5.929241e-002
3.050963e+003;5.994065e-002
3.052891e+003;6.086756e-002
3.054820e+003;6.183839e-002
3.056749e+003;6.256741e-002
3.058677e+003;6.324433e-002
3.060606e+003;6.360369e-002
3.062534e+003;6.377040e-002
3.064463e+003;6.444555e-002
3.066391e+003;6.508334e-002
3.068320e+003;6.530664e-002
3.070248e+003;6.523721e-002
3.072177e+003;6.493152e-002
3.074105e+003;6.456913e-002
3.076034e+003;6.443997e-002
3.077963e+003;6.478982e-002
3.079891e+003;6.485438e-002
3.081820e+003;6.470075e-002
3.083748e+003;6.453627e-002
3.085677e+003;6.451777e-002
3.087605e+003;6.413749e-002
3.089534e+003;6.350619e-002
3.091462e+003;6.279068e-002
3.093391e+003;6.207502e-002
3.095320e+003;6.141945e-002
3.097248e+003;6.083604e-002
3.099177e+003;6.042164e-002
3.101105e+003;6.003002e-002
3.103034e+003;5.918714e-002
3.104962e+003;5.852446e-002
3.106891e+003;5.791342e-002
3.108819e+003;5.704648e-002
3.110748e+003;5.658688e-002
3.112677e+003;5.618960e-002
3.114605e+003;5.572032e-002
3.116533e+003;5.535993e-002
3.118462e+003;5.527721e-002
3.120391e+003;5.515590e-002
3.122319e+003;5.467624e-002
3.124248e+003;5.415731e-002
3.126176e+003;5.383073e-002
3.128105e+003;5.365610e-002
3.130033e+003;5.322730e-002
3.131962e+003;5.277079e-002
3.133890e+003;5.280592e-002
3.135819e+003;5.322812e-002
3.137748e+003;5.345583e-002
3.139676e+003;5.319363e-002
3.141605e+003;5.304191e-002
3.143533e+003;5.323337e-002
3.145462e+003;5.353989e-002
3.147390e+003;5.373034e-002
3.149319e+003;5.388876e-002
3.151247e+003;5.460304e-002
3.153176e+003;5.531131e-002
3.155104e+003;5.534529e-002
3.157033e+003;5.531865e-002
3.158962e+003;5.567165e-002
3.160890e+003;5.623301e-002
3.162819e+003;5.706541e-002
3.164747e+003;5.748860e-002
3.166676e+003;5.746647e-002
3.168604e+003;5.790562e-002
3.170533e+003;5.900753e-002
3.172461e+003;5.987170e-002
3.174390e+003;6.036723e-002
3.176319e+003;6.060569e-002
3.178247e+003;6.090530e-002
3.180176e+003;6.185375e-002
3.182104e+003;6.278245e-002
3.184033e+003;6.363741e-002
3.185961e+003;6.419626e-002
3.187890e+003;6.435151e-002
3.189818e+003;6.459109e-002
3.191747e+003;6.512091e-002
3.193676e+003;6.571836e-002
3.195604e+003;6.602712e-002
3.197532e+003;6.645311e-002
3.199461e+003;6.684069e-002
3.201390e+003;6.743599e-002
3.203318e+003;6.812125e-002
3.205247e+003;6.836485e-002
3.207175e+003;6.851330e-002
3.209104e+003;6.880025e-002
3.211032e+003;6.920072e-002
3.212961e+003;6.956241e-002
3.214889e+003;7.022867e-002
3.216818e+003;7.102990e-002
3.218747e+003;7.173075e-002
3.220675e+003;7.228775e-002
3.222604e+003;7.269368e-002
3.224532e+003;7.345729e-002
3.226461e+003;7.493895e-002
3.228389e+003;7.615688e-002
3.230318e+003;7.684221e-002
3.232246e+003;7.778826e-002
3.234175e+003;7.920795e-002
3.236104e+003;8.064754e-002
3.238032e+003;8.204564e-002
3.239961e+003;8.347847e-002
3.241889e+003;8.505351e-002
3.243818e+003;8.681866e-002
3.245746e+003;8.885650e-002
3.247675e+003;9.112998e-002
3.249603e+003;9.310053e-002
3.251532e+003;9.506411e-002
3.253460e+003;9.687216e-002
3.255389e+003;9.863337e-002
3.257318e+003;1.009988e-001
3.259246e+003;1.036262e-001
3.261175e+003;1.061056e-001
3.263103e+003;1.085494e-001
3.265032e+003;1.111705e-001
3.266960e+003;1.136616e-001
3.268889e+003;1.159646e-001
3.270817e+003;1.185994e-001
3.272746e+003;1.212821e-001
3.274675e+003;1.238789e-001
3.276603e+003;1.265459e-001
3.278531e+003;1.292407e-001
3.280460e+003;1.313560e-001
3.282389e+003;1.331959e-001
3.284317e+003;1.351750e-001
3.286246e+003;1.372623e-001
3.288174e+003;1.386572e-001
3.290103e+003;1.392727e-001
3.292031e+003;1.394777e-001
3.293960e+003;1.393107e-001
3.295888e+003;1.384369e-001
3.297817e+003;1.368041e-001
3.299746e+003;1.341304e-001
3.301674e+003;1.312080e-001
3.303603e+003;1.283206e-001
3.305531e+003;1.251400e-001
3.307460e+003;1.218810e-001
3.309388e+003;1.187710e-001
3.311317e+003;1.157755e-001
3.313245e+003;1.127044e-001
3.315174e+003;1.093594e-001
3.317103e+003;1.062342e-001
3.319031e+003;1.031036e-001
3.320960e+003;1.003161e-001
3.322888e+003;9.780888e-002
3.324817e+003;9.491303e-002
3.326745e+003;9.198492e-002
3.328674e+003;8.925381e-002
3.330602e+003;8.669671e-002
3.332531e+003;8.437845e-002
3.334459e+003;8.217234e-002
3.336388e+003;8.014037e-002
3.338317e+003;7.795396e-002
3.340245e+003;7.591696e-002
3.342174e+003;7.420158e-002
3.344102e+003;7.227072e-002
3.346031e+003;7.057710e-002
3.347959e+003;6.866315e-002
3.349888e+003;6.696093e-002
3.351816e+003;6.598480e-002
3.353745e+003;6.449878e-002
3.355674e+003;6.314634e-002
3.357602e+003;6.220638e-002
3.359531e+003;6.091838e-002
3.361459e+003;5.949227e-002
3.363388e+003;5.823512e-002
3.365316e+003;5.719859e-002
3.367245e+003;5.593615e-002
3.369173e+003;5.511919e-002
3.371102e+003;5.495960e-002
3.373031e+003;5.433016e-002
3.374959e+003;5.370154e-002
3.376887e+003;5.334668e-002
3.378816e+003;5.266143e-002
3.380745e+003;5.195131e-002
3.382673e+003;5.145510e-002
3.384602e+003;5.118188e-002
3.386530e+003;5.097253e-002
3.388459e+003;5.018307e-002
3.390387e+003;4.947814e-002
3.392316e+003;4.891001e-002
3.394244e+003;4.870391e-002
3.396173e+003;4.873290e-002
3.398102e+003;4.831474e-002
3.400030e+003;4.783299e-002
3.401959e+003;4.755852e-002
3.403887e+003;4.718785e-002
3.405816e+003;4.667000e-002
3.407744e+003;4.632589e-002
3.409673e+003;4.600444e-002
3.411601e+003;4.588364e-002
3.413530e+003;4.571990e-002
3.415458e+003;4.551682e-002
3.417387e+003;4.521546e-002
3.419316e+003;4.504297e-002
3.421244e+003;4.474341e-002
3.423173e+003;4.420327e-002
3.425101e+003;4.399341e-002
3.427030e+003;4.423288e-002
3.428958e+003;4.399341e-002
3.430887e+003;4.379898e-002
3.432815e+003;4.362364e-002
3.434744e+003;4.349559e-002
3.436673e+003;4.371341e-002
3.438601e+003;4.405395e-002
3.440530e+003;4.367805e-002
3.442458e+003;4.317729e-002
3.444387e+003;4.292901e-002
3.446315e+003;4.288340e-002
3.448244e+003;4.286790e-002
3.450172e+003;4.228169e-002
3.452101e+003;4.167734e-002
3.454030e+003;4.164466e-002
3.455958e+003;4.132830e-002
3.457886e+003;4.097532e-002
3.459815e+003;4.080250e-002
3.461744e+003;4.083763e-002
3.463672e+003;4.045304e-002
3.465601e+003;3.947369e-002
3.467529e+003;3.962281e-002
3.469458e+003;4.032334e-002
3.471386e+003;3.998026e-002
3.473315e+003;3.940119e-002
3.475243e+003;3.923999e-002
3.477172e+003;3.883975e-002
3.479101e+003;3.866843e-002
3.481029e+003;3.888696e-002
3.482958e+003;3.906855e-002
3.484886e+003;3.897420e-002
3.486815e+003;3.863138e-002
3.488743e+003;3.799994e-002
3.490672e+003;3.787508e-002
3.492600e+003;3.788112e-002
3.494529e+003;3.747472e-002
3.496458e+003;3.718369e-002
3.498386e+003;3.704020e-002
3.500315e+003;3.729683e-002
3.502243e+003;3.775319e-002
3.504172e+003;3.756980e-002
3.506100e+003;3.714669e-002
3.508029e+003;3.696504e-002
3.509957e+003;3.640673e-002
3.511886e+003;3.605103e-002
3.513814e+003;3.621592e-002
3.515743e+003;3.605363e-002
3.517672e+003;3.551630e-002
3.519600e+003;3.486039e-002
3.521529e+003;3.458966e-002
3.523457e+003;3.466580e-002
3.525386e+003;3.462113e-002
3.527314e+003;3.437260e-002
3.529243e+003;3.385952e-002
3.531171e+003;3.373094e-002
3.533100e+003;3.369066e-002
3.535029e+003;3.324513e-002
3.536957e+003;3.286899e-002
3.538885e+003;3.268136e-002
3.540814e+003;3.220932e-002
3.542743e+003;3.197226e-002
3.544671e+003;3.182901e-002
3.546600e+003;3.138657e-002
3.548528e+003;3.127125e-002
3.550457e+003;3.089767e-002
3.552385e+003;3.043346e-002
3.554314e+003;3.044089e-002
3.556242e+003;3.004828e-002
3.558171e+003;2.932169e-002
3.560100e+003;2.901850e-002
3.562028e+003;2.867789e-002
3.563957e+003;2.825137e-002
3.565885e+003;2.813851e-002
3.567814e+003;2.800946e-002
3.569742e+003;2.761724e-002
3.571671e+003;2.715233e-002
3.573599e+003;2.687966e-002
3.575528e+003;2.682534e-002
3.577457e+003;2.673843e-002
3.579385e+003;2.645982e-002
3.581314e+003;2.594331e-002
3.583242e+003;2.520501e-002
3.585171e+003;2.438359e-002
3.587099e+003;2.396449e-002
3.589028e+003;2.414908e-002
3.590956e+003;2.393056e-002
3.592885e+003;2.320098e-002
3.594813e+003;2.320909e-002
3.596742e+003;2.359861e-002
3.598671e+003;2.361410e-002
3.600599e+003;2.345460e-002
3.602528e+003;2.334829e-002
3.604456e+003;2.293242e-002
3.606385e+003;2.240417e-002
3.608313e+003;2.181196e-002
3.610242e+003;2.139272e-002
3.612170e+003;2.131772e-002
3.614099e+003;2.120393e-002
3.616028e+003;2.104020e-002
3.617956e+003;2.092784e-002
3.619885e+003;2.050351e-002
3.621813e+003;1.998112e-002
3.623742e+003;1.971898e-002
3.625670e+003;1.962728e-002
3.627599e+003;1.947343e-002
3.629527e+003;1.930736e-002
3.631456e+003;1.905089e-002
3.633385e+003;1.867771e-002
3.635313e+003;1.842922e-002
3.637241e+003;1.789975e-002
3.639170e+003;1.777426e-002
3.641099e+003;1.794699e-002
3.643027e+003;1.782801e-002
3.644956e+003;1.736614e-002
3.646884e+003;1.690365e-002
3.648813e+003;1.661434e-002
3.650741e+003;1.667796e-002
3.652670e+003;1.680311e-002
3.654598e+003;1.644902e-002
3.656527e+003;1.608907e-002
3.658456e+003;1.616490e-002
3.660384e+003;1.649287e-002
3.662313e+003;1.639328e-002
3.664241e+003;1.634642e-002
3.666170e+003;1.597961e-002
3.668098e+003;1.564536e-002
3.670027e+003;1.552921e-002
3.671955e+003;1.548172e-002
3.673884e+003;1.534594e-002
3.675813e+003;1.556036e-002
3.677741e+003;1.569029e-002
3.679669e+003;1.546029e-002
3.681598e+003;1.491128e-002
3.683527e+003;1.433423e-002
3.685455e+003;1.446281e-002
3.687384e+003;1.438499e-002
3.689312e+003;1.407353e-002
3.691241e+003;1.420131e-002
3.693169e+003;1.423945e-002
3.695098e+003;1.392029e-002
3.697026e+003;1.355584e-002
3.698955e+003;1.333742e-002
3.700884e+003;1.332966e-002
3.702812e+003;1.324418e-002
3.704741e+003;1.313844e-002
3.706669e+003;1.311460e-002
3.708598e+003;1.305385e-002
3.710526e+003;1.304402e-002
3.712455e+003;1.319612e-002
3.714383e+003;1.321884e-002
3.716312e+003;1.320316e-002
3.718240e+003;1.347459e-002
3.720169e+003;1.339035e-002
3.722098e+003;1.334247e-002
3.724026e+003;1.329054e-002
3.725955e+003;1.332030e-002
3.727883e+003;1.346057e-002
3.729812e+003;1.311781e-002
3.731740e+003;1.280299e-002
3.733669e+003;1.264260e-002
3.735597e+003;1.275232e-002
3.737526e+003;1.320374e-002
3.739455e+003;1.314581e-002
3.741383e+003;1.280320e-002
3.743312e+003;1.269121e-002
3.745240e+003;1.299772e-002
3.747169e+003;1.319653e-002
3.749097e+003;1.304709e-002
3.751026e+003;1.275812e-002
3.752954e+003;1.258413e-002
3.754883e+003;1.281535e-002
3.756812e+003;1.284855e-002
3.758740e+003;1.249887e-002
3.760668e+003;1.268135e-002
3.762597e+003;1.343265e-002
3.764526e+003;1.374386e-002
3.766454e+003;1.347161e-002
3.768383e+003;1.313738e-002
3.770311e+003;1.322116e-002
3.772240e+003;1.322973e-002
3.774168e+003;1.321850e-002
3.776097e+003;1.343853e-002
3.778025e+003;1.320142e-002
3.779954e+003;1.303917e-002
3.781883e+003;1.304200e-002
3.783811e+003;1.290231e-002
3.785740e+003;1.312819e-002
3.787668e+003;1.321166e-002
3.789597e+003;1.308923e-002
3.791525e+003;1.309548e-002
3.793454e+003;1.313861e-002
3.795382e+003;1.291548e-002
3.797311e+003;1.304153e-002
3.799240e+003;1.312536e-002
3.801168e+003;1.312990e-002
3.803097e+003;1.318051e-002
3.805025e+003;1.286995e-002
3.806954e+003;1.258570e-002
3.808882e+003;1.299202e-002
3.810811e+003;1.330308e-002
3.812739e+003;1.352322e-002
3.814668e+003;1.356954e-002
3.816596e+003;1.381291e-002
3.818525e+003;1.395553e-002
3.820454e+003;1.383354e-002
3.822382e+003;1.400998e-002
3.824311e+003;1.404043e-002
3.826239e+003;1.416352e-002
3.828168e+003;1.422462e-002
3.830096e+003;1.428893e-002
3.832025e+003;1.403366e-002
3.833953e+003;1.368391e-002
3.835882e+003;1.340480e-002
3.837811e+003;1.348764e-002
3.839739e+003;1.408756e-002
3.841667e+003;1.410546e-002
3.843596e+003;1.370969e-002
3.845525e+003;1.403824e-002
3.847453e+003;1.460839e-002
3.849382e+003;1.480245e-002
3.851310e+003;1.412685e-002
3.853239e+003;1.327811e-002
3.855167e+003;1.374109e-002
3.857096e+003;1.482851e-002
3.859024e+003;1.477733e-002
3.860953e+003;1.461994e-002
3.862882e+003;1.487864e-002
3.864810e+003;1.468378e-002
3.866739e+003;1.408698e-002
3.868667e+003;1.364606e-002
3.870596e+003;1.423394e-002
3.872524e+003;1.493138e-002
3.874453e+003;1.481630e-002
3.876381e+003;1.477619e-002
3.878310e+003;1.491900e-002
3.880239e+003;1.472988e-002
3.882167e+003;1.420463e-002
3.884096e+003;1.400228e-002
3.886024e+003;1.439149e-002
3.887953e+003;1.485844e-002
3.889881e+003;1.494362e-002
3.891810e+003;1.463597e-002
3.893738e+003;1.450351e-002
3.895667e+003;1.483283e-002
3.897595e+003;1.509269e-002
3.899524e+003;1.453609e-002
3.901453e+003;1.433701e-002
3.903381e+003;1.479745e-002
3.905310e+003;1.478260e-002
3.907238e+003;1.483376e-002
3.909167e+003;1.501345e-002
3.911095e+003;1.526439e-002
3.913024e+003;1.562070e-002
3.914952e+003;1.551952e-002
3.916881e+003;1.527551e-002
3.918810e+003;1.519922e-002
3.920738e+003;1.545171e-002
3.922667e+003;1.559041e-002
3.924595e+003;1.570469e-002
3.926524e+003;1.605923e-002
3.928452e+003;1.587350e-002
3.930381e+003;1.592595e-002
3.932309e+003;1.649407e-002
3.934238e+003;1.680118e-002
3.936167e+003;1.653341e-002
3.938095e+003;1.623231e-002
3.940023e+003;1.616975e-002
3.941952e+003;1.590959e-002
3.943881e+003;1.605999e-002
3.945809e+003;1.694813e-002
3.947738e+003;1.746864e-002
3.949666e+003;1.739907e-002
3.951595e+003;1.749013e-002
3.953523e+003;1.725824e-002
3.955452e+003;1.681902e-002
3.957380e+003;1.677621e-002
3.959309e+003;1.681788e-002
3.961238e+003;1.698265e-002
3.963166e+003;1.716330e-002
3.965095e+003;1.700956e-002
3.967023e+003;1.676763e-002
3.968952e+003;1.679935e-002
3.970880e+003;1.711525e-002
3.972809e+003;1.750196e-002
3.974737e+003;1.759694e-002
3.976666e+003;1.761399e-002
3.978594e+003;1.807246e-002
3.980523e+003;1.809761e-002
3.982452e+003;1.772618e-002
3.984380e+003;1.742025e-002
3.986309e+003;1.757665e-002
3.988237e+003;1.784113e-002
3.990166e+003;1.849577e-002
3.992094e+003;1.923237e-002
3.994023e+003;1.926244e-002
3.995951e+003;1.884056e-002
3.997880e+003;1.856358e-002
3.999809e+003;1.860975e-002
4.001737e+003;0.000000e+000
