3.992094e+002;0.000000e+000
4.011380e+002;0.000000e+000
4.030665e+002;0.000000e+000
4.049951e+002;0.000000e+000
4.069236e+002;0.000000e+000
4.088522e+002;0.000000e+000
4.107807e+002;0.000000e+000
4.127093e+002;0.000000e+000
4.146378e+002;0.000000e+000
4.165664e+002;0.000000e+000
4.184949e+002;0.000000e+000
4.204235e+002;0.000000e+000
4.223520e+002;0.000000e+000
4.242806e+002;0.000000e+000
4.262091e+002;0.000000e+000
4.281377e+002;0.000000e+000
4.300662e+002;0.000000e+000
4.319948e+002;0.000000e+000
4.339233e+002;0.000000e+000
4.358519e+002;0.000000e+000
4.377804e+002;0.000000e+000
4.397090e+002;0.000000e+000
4.416375e+002;0.000000e+000
4.435660e+002;0.000000e+000
4.454946e+002;0.000000e+000
4.474232e+002;0.000000e+000
4.493517e+002;0.000000e+000
4.512802e+002;0.000000e+000
4.532088e+002;0.000000e+000
4.551373e+002;0.000000e+000
4.570659e+002;0.000000e+000
4.589944e+002;0.000000e+000
4.609230e+002;0.000000e+000
4.628515e+002;0.000000e+000
4.647801e+002;0.000000e+000
4.667086e+002;0.000000e+000
4.686372e+002;0.000000e+000
4.705657e+002;0.000000e+000
4.724943e+002;0.000000e+000
4.744228e+002;0.000000e+000
4.763513e+002;0.000000e+000
4.782799e+002;0.000000e+000
4.802085e+002;0.000000e+000
4.821370e+002;0.000000e+000
4.840656e+002;0.000000e+000
4.859941e+002;0.000000e+000
4.879226e+002;0.000000e+000
4.898512e+002;0.000000e+000
4.917798e+002;0.000000e+000
4.937083e+002;0.000000e+000
4.956368e+002;0.000000e+000
4.975654e+002;0.000000e+000
4.994939e+002;0.000000e+000
5.014225e+002;0.000000e+000
5.033510e+002;0.000000e+000
5.052796e+002;0.000000e+000
5.072081e+002;0.000000e+000
5.091367e+002;0.000000e+000
5.110652e+002;0.000000e+000
5.129938e+002;0.000000e+000
5.149223e+002;0.000000e+000
5.168509e+002;0.000000e+000
5.187794e+002;0.000000e+000
5.207079e+002;0.000000e+000
5.226365e+002;0.000000e+000
5.245651e+002;0.000000e+000
5.264936e+002;0.000000e+000
5.284222e+002;0.000000e+000
5.303507e+002;0.000000e+000
5.322792e+002;0.000000e+000
5.342078e+002;0.000000e+000
5.361364e+002;0.000000e+000
5.380649e+002;0.000000e+000
5.399935e+002;0.000000e+000
5.419220e+002;0.000000e+000
5.438505e+002;0.000000e+000
5.457791e+002;0.000000e+000
5.477076e+002;0.000000e+000
5.496362e+002;0.000000e+000
5.515648e+002;0.000000e+000
5.534933e+002;0.000000e+000
5.554218e+002;0.000000e+000
5.573504e+002;0.000000e+000
5.592789e+002;0.000000e+000
5.612075e+002;0.000000e+000
5.631360e+002;0.000000e+000
5.650646e+002;0.000000e+000
5.669931e+002;0.000000e+000
5.689217e+002;0.000000e+000
5.708502e+002;0.000000e+000
5.727787e+002;0.000000e+000
5.747073e+002;0.000000e+000
5.766359e+002;0.000000e+000
5.785644e+002;0.000000e+000
5.804930e+002;0.000000e+000
5.824215e+002;0.000000e+000
5.843500e+002;0.000000e+000
5.862786e+002;0.000000e+000
5.882072e+002;0.000000e+000
5.901357e+002;0.000000e+000
5.920643e+002;0.000000e+000
5.939928e+002;0.000000e+000
5.959213e+002;0.000000e+000
5.978499e+002;0.000000e+000
5.997784e+002;1.403228e-001
6.017070e+002;1.490370e-001
6.036355e+002;1.474714e-001
6.055641e+002;1.422125e-001
6.074926e+002;1.373061e-001
6.094211e+002;1.356879e-001
6.113497e+002;1.384964e-001
6.132783e+002;1.430055e-001
6.152068e+002;1.436394e-001
6.171354e+002;1.413775e-001
6.190639e+002;1.416527e-001
6.209924e+002;1.420325e-001
6.229210e+002;1.439905e-001
6.248495e+002;1.476794e-001
6.267781e+002;1.459052e-001
6.287067e+002;1.422953e-001
6.306352e+002;1.440310e-001
6.325637e+002;1.437018e-001
6.344923e+002;1.424844e-001
6.364208e+002;1.473216e-001
6.383494e+002;1.469979e-001
6.402780e+002;1.420816e-001
6.422065e+002;1.446083e-001
6.441350e+002;1.510779e-001
6.460636e+002;1.521742e-001
6.479921e+002;1.527702e-001
6.499207e+002;1.564039e-001
6.518492e+002;1.596028e-001
6.537778e+002;1.629923e-001
6.557063e+002;1.645706e-001
6.576349e+002;1.634643e-001
6.595634e+002;1.671505e-001
6.614919e+002;1.738646e-001
6.634205e+002;1.776359e-001
6.653491e+002;1.808974e-001
6.672776e+002;1.843151e-001
6.692062e+002;1.844168e-001
6.711347e+002;1.840212e-001
6.730632e+002;1.854371e-001
6.749918e+002;1.876584e-001
6.769203e+002;1.903083e-001
6.788489e+002;1.922878e-001
6.807775e+002;1.931579e-001
6.827060e+002;1.933617e-001
6.846345e+002;1.930790e-001
6.865631e+002;1.924323e-001
6.884916e+002;1.912775e-001
6.904202e+002;1.901206e-001
6.923488e+002;1.882424e-001
6.942773e+002;1.846512e-001
6.962058e+002;1.802967e-001
6.981344e+002;1.771198e-001
7.000629e+002;1.737688e-001
7.019915e+002;1.710928e-001
7.039200e+002;1.695029e-001
7.058486e+002;1.682101e-001
7.077771e+002;1.677568e-001
7.097057e+002;1.664106e-001
7.116342e+002;1.645511e-001
7.135627e+002;1.631376e-001
7.154913e+002;1.595089e-001
7.174199e+002;1.567730e-001
7.193484e+002;1.567621e-001
7.212770e+002;1.563796e-001
7.232055e+002;1.562006e-001
7.251340e+002;1.571607e-001
7.270626e+002;1.578256e-001
7.289911e+002;1.568687e-001
7.309197e+002;1.518583e-001
7.328483e+002;1.446913e-001
7.347768e+002;1.373492e-001
7.367053e+002;1.313454e-001
7.386339e+002;1.266601e-001
7.405624e+002;1.215961e-001
7.424910e+002;1.181464e-001
7.444196e+002;1.159932e-001
7.463481e+002;1.137234e-001
7.482766e+002;1.122794e-001
7.502052e+002;1.108246e-001
7.521337e+002;1.082106e-001
7.540623e+002;1.060900e-001
7.559908e+002;1.045385e-001
7.579194e+002;1.030608e-001
7.598479e+002;1.012675e-001
7.617765e+002;9.968723e-002
7.637050e+002;9.854910e-002
7.656335e+002;9.755217e-002
7.675621e+002;9.667147e-002
7.694907e+002;9.548019e-002
7.714192e+002;9.445803e-002
7.733478e+002;9.356853e-002
7.752763e+002;9.273135e-002
7.772048e+002;9.153331e-002
7.791334e+002;9.048136e-002
7.810620e+002;8.993968e-002
7.829905e+002;8.836991e-002
7.849191e+002;8.613475e-002
7.868476e+002;8.423643e-002
7.887761e+002;8.300733e-002
7.907047e+002;8.174489e-002
7.926332e+002;8.066043e-002
7.945618e+002;7.992500e-002
7.964903e+002;7.926887e-002
7.984189e+002;7.830372e-002
8.003474e+002;7.611559e-002
8.022759e+002;7.511518e-002
8.042045e+002;7.527293e-002
8.061331e+002;7.408485e-002
8.080616e+002;7.352252e-002
8.099902e+002;7.364416e-002
8.119187e+002;7.251655e-002
8.138472e+002;7.059308e-002
8.157758e+002;6.999994e-002
8.177043e+002;6.987655e-002
8.196329e+002;6.951477e-002
8.215615e+002;6.952126e-002
8.234900e+002;6.975293e-002
8.254185e+002;6.996428e-002
8.273471e+002;7.106108e-002
8.292756e+002;7.294022e-002
8.312042e+002;7.464129e-002
8.331328e+002;7.495867e-002
8.350613e+002;7.373222e-002
8.369898e+002;7.135027e-002
8.389184e+002;6.926566e-002
8.408469e+002;6.752361e-002
8.427755e+002;6.544896e-002
8.447040e+002;6.437664e-002
8.466326e+002;6.371713e-002
8.485611e+002;6.353576e-002
8.504897e+002;6.392097e-002
8.524182e+002;6.408503e-002
8.543467e+002;6.361969e-002
8.562753e+002;6.278073e-002
8.582039e+002;6.287114e-002
8.601324e+002;6.275581e-002
8.620610e+002;6.204211e-002
8.639895e+002;6.220653e-002
8.659180e+002;6.306078e-002
8.678466e+002;6.344790e-002
8.697751e+002;6.342290e-002
8.717037e+002;6.373812e-002
8.736323e+002;6.397744e-002
8.755608e+002;6.396435e-002
8.774893e+002;6.405151e-002
8.794179e+002;6.427912e-002
8.813464e+002;6.470086e-002
8.832750e+002;6.545528e-002
8.852036e+002;6.592024e-002
8.871321e+002;6.603669e-002
8.890606e+002;6.584605e-002
8.909892e+002;6.562778e-002
8.929177e+002;6.578247e-002
8.948463e+002;6.592274e-002
8.967748e+002;6.646150e-002
8.987034e+002;6.660728e-002
9.006319e+002;6.606211e-002
9.025605e+002;6.645412e-002
9.044890e+002;6.707650e-002
9.064175e+002;6.760304e-002
9.083461e+002;6.818935e-002
9.102747e+002;6.864510e-002
9.122032e+002;6.928004e-002
9.141318e+002;6.991462e-002
9.160603e+002;7.044111e-002
9.179888e+002;7.109254e-002
9.199174e+002;7.186417e-002
9.218459e+002;7.290518e-002
9.237745e+002;7.419714e-002
9.257031e+002;7.557302e-002
9.276316e+002;7.688995e-002
9.295601e+002;7.716540e-002
9.314887e+002;7.631516e-002
9.334172e+002;7.536104e-002
9.353458e+002;7.425405e-002
9.372744e+002;7.327361e-002
9.392029e+002;7.314062e-002
9.411314e+002;7.364467e-002
9.430600e+002;7.457367e-002
9.449885e+002;7.540018e-002
9.469171e+002;7.651646e-002
9.488456e+002;7.812654e-002
9.507742e+002;7.962838e-002
9.527027e+002;8.068907e-002
9.546313e+002;8.144614e-002
9.565598e+002;8.202403e-002
9.584883e+002;8.198734e-002
9.604169e+002;8.193947e-002
9.623455e+002;8.155299e-002
9.642740e+002;8.079913e-002
9.662026e+002;8.019879e-002
9.681311e+002;7.968716e-002
9.700596e+002;7.978530e-002
9.719882e+002;7.987275e-002
9.739167e+002;7.913177e-002
9.758453e+002;7.840647e-002
9.777739e+002;7.764636e-002
9.797024e+002;7.662424e-002
9.816309e+002;7.592327e-002
9.835595e+002;7.540582e-002
9.854880e+002;7.471575e-002
9.874166e+002;7.398198e-002
9.893452e+002;7.319262e-002
9.912737e+002;7.215244e-002
9.932022e+002;7.105920e-002
9.951307e+002;7.042810e-002
9.970593e+002;7.047514e-002
9.989879e+002;7.048164e-002
1.000916e+003;7.039022e-002
1.002845e+003;7.026100e-002
1.004773e+003;7.022567e-002
1.006702e+003;7.029551e-002
1.008631e+003;7.047708e-002
1.010559e+003;7.038937e-002
1.012488e+003;7.011172e-002
1.014416e+003;6.992598e-002
1.016345e+003;6.984476e-002
1.018273e+003;7.011823e-002
1.020202e+003;7.047607e-002
1.022130e+003;7.153182e-002
1.024059e+003;7.302387e-002
1.025988e+003;7.400206e-002
1.027916e+003;7.447646e-002
1.029845e+003;7.495611e-002
1.031773e+003;7.461835e-002
1.033702e+003;7.404524e-002
1.035630e+003;7.354207e-002
1.037559e+003;7.277462e-002
1.039487e+003;7.200219e-002
1.041416e+003;7.138710e-002
1.043344e+003;7.081401e-002
1.045273e+003;7.048266e-002
1.047202e+003;7.071909e-002
1.049130e+003;7.137562e-002
1.051059e+003;7.226627e-002
1.052987e+003;7.340369e-002
1.054916e+003;7.463417e-002
1.056844e+003;7.597789e-002
1.058773e+003;7.759731e-002
1.060701e+003;7.871600e-002
1.062630e+003;7.936079e-002
1.064558e+003;8.067543e-002
1.066487e+003;8.181677e-002
1.068416e+003;8.249275e-002
1.070344e+003;8.310601e-002
1.072273e+003;8.398135e-002
1.074201e+003;8.395369e-002
1.076130e+003;8.305077e-002
1.078058e+003;8.227164e-002
1.079987e+003;8.165739e-002
1.081915e+003;8.087520e-002
1.083844e+003;7.983356e-002
1.085773e+003;7.913237e-002
1.087701e+003;7.933398e-002
1.089630e+003;7.901821e-002
1.091558e+003;7.844878e-002
1.093487e+003;7.841437e-002
1.095415e+003;7.901280e-002
1.097344e+003;8.015615e-002
1.099272e+003;8.145466e-002
1.101201e+003;8.267909e-002
1.103129e+003;8.425039e-002
1.105058e+003;8.605638e-002
1.106987e+003;8.805244e-002
1.108915e+003;8.942497e-002
1.110844e+003;9.038209e-002
1.112772e+003;9.114792e-002
1.114701e+003;9.162041e-002
1.116629e+003;9.183789e-002
1.118558e+003;9.195662e-002
1.120486e+003;9.158064e-002
1.122415e+003;8.995676e-002
1.124344e+003;8.747001e-002
1.126272e+003;8.509096e-002
1.128201e+003;8.251715e-002
1.130129e+003;7.994412e-002
1.132058e+003;7.794960e-002
1.133986e+003;7.706579e-002
1.135915e+003;7.671121e-002
1.137843e+003;7.676937e-002
1.139772e+003;7.744901e-002
1.141700e+003;7.896602e-002
1.143629e+003;8.114979e-002
1.145557e+003;8.360963e-002
1.147486e+003;8.561904e-002
1.149415e+003;8.772431e-002
1.151343e+003;9.055948e-002
1.153272e+003;9.406658e-002
1.155200e+003;9.749252e-002
1.157129e+003;1.011672e-001
1.159057e+003;1.059023e-001
1.160986e+003;1.116138e-001
1.162914e+003;1.178465e-001
1.164843e+003;1.241551e-001
1.166771e+003;1.290110e-001
1.168700e+003;1.313511e-001
1.170629e+003;1.302072e-001
1.172557e+003;1.261801e-001
1.174486e+003;1.209874e-001
1.176414e+003;1.157891e-001
1.178343e+003;1.109798e-001
1.180271e+003;1.074441e-001
1.182200e+003;1.059031e-001
1.184128e+003;1.063280e-001
1.186057e+003;1.083895e-001
1.187986e+003;1.113480e-001
1.189914e+003;1.147088e-001
1.191843e+003;1.190379e-001
1.193771e+003;1.242555e-001
1.195700e+003;1.298392e-001
1.197628e+003;1.350876e-001
1.199557e+003;1.377259e-001
1.201485e+003;1.364652e-001
1.203414e+003;1.327457e-001
1.205343e+003;1.289001e-001
1.207271e+003;1.264205e-001
1.209200e+003;1.252623e-001
1.211128e+003;1.246759e-001
1.213057e+003;1.240086e-001
1.214985e+003;1.223882e-001
1.216914e+003;1.191713e-001
1.218842e+003;1.155475e-001
1.220771e+003;1.134747e-001
1.222699e+003;1.135115e-001
1.224628e+003;1.153504e-001
1.226557e+003;1.185500e-001
1.228485e+003;1.227140e-001
1.230414e+003;1.276321e-001
1.232342e+003;1.326228e-001
1.234271e+003;1.363381e-001
1.236199e+003;1.381198e-001
1.238128e+003;1.384293e-001
1.240056e+003;1.382746e-001
1.241985e+003;1.377688e-001
1.243913e+003;1.375955e-001
1.245842e+003;1.381907e-001
1.247771e+003;1.394107e-001
1.249699e+003;1.410855e-001
1.251628e+003;1.438800e-001
1.253556e+003;1.473540e-001
1.255485e+003;1.507757e-001
1.257413e+003;1.539092e-001
1.259342e+003;1.564257e-001
1.261270e+003;1.575921e-001
1.263199e+003;1.565567e-001
1.265127e+003;1.530973e-001
1.267056e+003;1.472943e-001
1.268985e+003;1.405601e-001
1.270913e+003;1.353804e-001
1.272842e+003;1.326852e-001
1.274770e+003;1.316787e-001
1.276699e+003;1.311579e-001
1.278627e+003;1.306400e-001
1.280556e+003;1.295255e-001
1.282484e+003;1.275038e-001
1.284413e+003;1.255633e-001
1.286342e+003;1.240476e-001
1.288270e+003;1.228499e-001
1.290199e+003;1.218660e-001
1.292127e+003;1.214282e-001
1.294056e+003;1.209729e-001
1.295984e+003;1.202342e-001
1.297913e+003;1.199623e-001
1.299841e+003;1.197624e-001
1.301770e+003;1.192332e-001
1.303698e+003;1.181878e-001
1.305627e+003;1.171184e-001
1.307556e+003;1.161624e-001
1.309484e+003;1.148772e-001
1.311413e+003;1.138196e-001
1.313341e+003;1.127605e-001
1.315270e+003;1.115408e-001
1.317198e+003;1.105600e-001
1.319127e+003;1.096179e-001
1.321055e+003;1.089450e-001
1.322984e+003;1.083722e-001
1.324912e+003;1.078993e-001
1.326841e+003;1.077064e-001
1.328770e+003;1.079203e-001
1.330698e+003;1.086216e-001
1.332627e+003;1.092571e-001
1.334555e+003;1.094268e-001
1.336484e+003;1.097050e-001
1.338412e+003;1.103947e-001
1.340341e+003;1.111310e-001
1.342269e+003;1.118517e-001
1.344198e+003;1.127130e-001
1.346126e+003;1.137455e-001
1.348055e+003;1.148214e-001
1.349984e+003;1.159348e-001
1.351912e+003;1.172753e-001
1.353841e+003;1.188714e-001
1.355769e+003;1.207510e-001
1.357698e+003;1.227149e-001
1.359626e+003;1.246209e-001
1.361555e+003;1.263761e-001
1.363483e+003;1.280855e-001
1.365412e+003;1.299968e-001
1.367341e+003;1.319215e-001
1.369269e+003;1.336002e-001
1.371198e+003;1.343562e-001
1.373126e+003;1.338514e-001
1.375055e+003;1.324378e-001
1.376983e+003;1.301356e-001
1.378912e+003;1.271254e-001
1.380840e+003;1.236258e-001
1.382769e+003;1.198770e-001
1.384698e+003;1.164758e-001
1.386626e+003;1.133581e-001
1.388555e+003;1.107163e-001
1.390483e+003;1.088139e-001
1.392412e+003;1.074993e-001
1.394340e+003;1.064760e-001
1.396269e+003;1.062533e-001
1.398197e+003;1.069467e-001
1.400126e+003;1.083580e-001
1.402054e+003;1.107636e-001
1.403983e+003;1.141941e-001
1.405911e+003;1.186972e-001
1.407840e+003;1.246786e-001
1.409769e+003;1.316785e-001
1.411697e+003;1.387285e-001
1.413626e+003;1.448992e-001
1.415554e+003;1.487583e-001
1.417483e+003;1.494791e-001
1.419411e+003;1.472130e-001
1.421340e+003;1.435082e-001
1.423268e+003;1.401626e-001
1.425197e+003;1.378708e-001
1.427125e+003;1.377216e-001
1.429054e+003;1.395332e-001
1.430983e+003;1.419244e-001
1.432911e+003;1.441276e-001
1.434840e+003;1.455165e-001
1.436768e+003;1.455478e-001
1.438697e+003;1.449336e-001
1.440625e+003;1.439988e-001
1.442554e+003;1.429855e-001
1.444482e+003;1.422892e-001
1.446411e+003;1.422998e-001
1.448340e+003;1.433382e-001
1.450268e+003;1.454067e-001
1.452197e+003;1.480485e-001
1.454125e+003;1.509349e-001
1.456054e+003;1.542864e-001
1.457982e+003;1.589091e-001
1.459911e+003;1.645036e-001
1.461839e+003;1.682567e-001
1.463768e+003;1.668466e-001
1.465697e+003;1.603678e-001
1.467625e+003;1.520813e-001
1.469554e+003;1.457125e-001
1.471482e+003;1.429217e-001
1.473411e+003;1.430658e-001
1.475339e+003;1.436065e-001
1.477268e+003;1.423165e-001
1.479196e+003;1.387672e-001
1.481125e+003;1.332819e-001
1.483053e+003;1.267184e-001
1.484982e+003;1.207849e-001
1.486911e+003;1.170556e-001
1.488839e+003;1.160577e-001
1.490768e+003;1.172404e-001
1.492696e+003;1.198068e-001
1.494625e+003;1.231119e-001
1.496553e+003;1.270368e-001
1.498482e+003;1.316779e-001
1.500410e+003;1.367573e-001
1.502339e+003;1.421752e-001
1.504267e+003;1.482431e-001
1.506196e+003;1.550264e-001
1.508125e+003;1.621239e-001
1.510053e+003;1.692565e-001
1.511982e+003;1.768882e-001
1.513910e+003;1.851832e-001
1.515839e+003;1.941165e-001
1.517767e+003;2.033914e-001
1.519696e+003;2.130713e-001
1.521624e+003;2.232219e-001
1.523553e+003;2.336054e-001
1.525481e+003;2.443349e-001
1.527410e+003;2.554421e-001
1.529339e+003;2.661585e-001
1.531267e+003;2.762615e-001
1.533196e+003;2.854855e-001
1.535124e+003;2.928494e-001
1.537053e+003;2.972977e-001
1.538981e+003;2.983465e-001
1.540910e+003;2.962725e-001
1.542838e+003;2.911391e-001
1.544767e+003;2.825918e-001
1.546695e+003;2.717614e-001
1.548624e+003;2.595843e-001
1.550553e+003;2.468048e-001
1.552481e+003;2.344691e-001
1.554410e+003;2.230833e-001
1.556338e+003;2.123356e-001
1.558267e+003;2.021057e-001
1.560195e+003;1.928441e-001
1.562124e+003;1.841162e-001
1.564052e+003;1.755469e-001
1.565981e+003;1.671278e-001
1.567910e+003;1.586843e-001
1.569838e+003;1.504269e-001
1.571767e+003;1.431421e-001
1.573695e+003;1.363463e-001
1.575624e+003;1.298188e-001
1.577552e+003;1.241281e-001
1.579481e+003;1.197226e-001
1.581409e+003;1.161809e-001
1.583338e+003;1.136002e-001
1.585266e+003;1.121250e-001
1.587195e+003;1.115355e-001
1.589124e+003;1.116453e-001
1.591052e+003;1.122185e-001
1.592981e+003;1.137671e-001
1.594909e+003;1.164775e-001
1.596838e+003;1.201790e-001
1.598766e+003;1.248549e-001
1.600695e+003;1.302523e-001
1.602623e+003;1.365724e-001
1.604552e+003;1.442244e-001
1.606480e+003;1.526247e-001
1.608409e+003;1.616409e-001
1.610338e+003;1.712290e-001
1.612266e+003;1.819336e-001
1.614195e+003;1.941966e-001
1.616123e+003;2.082790e-001
1.618052e+003;2.243024e-001
1.619980e+003;2.416131e-001
1.621909e+003;2.600069e-001
1.623837e+003;2.789208e-001
1.625766e+003;2.975602e-001
1.627694e+003;3.167349e-001
1.629623e+003;3.363103e-001
1.631552e+003;3.538562e-001
1.633480e+003;3.673272e-001
1.635409e+003;3.735122e-001
1.637337e+003;3.698139e-001
1.639266e+003;3.566094e-001
1.641194e+003;3.365604e-001
1.643123e+003;3.132443e-001
1.645051e+003;2.889280e-001
1.646980e+003;2.658316e-001
1.648909e+003;2.457597e-001
1.650837e+003;2.284208e-001
1.652766e+003;2.131367e-001
1.654694e+003;2.002403e-001
1.656623e+003;1.895074e-001
1.658551e+003;1.796961e-001
1.660480e+003;1.700173e-001
1.662408e+003;1.605369e-001
1.664337e+003;1.511640e-001
1.666266e+003;1.418752e-001
1.668194e+003;1.331163e-001
1.670123e+003;1.246117e-001
1.672051e+003;1.168596e-001
1.673980e+003;1.098017e-001
1.675908e+003;1.026381e-001
1.677837e+003;9.551338e-002
1.679765e+003;8.831809e-002
1.681694e+003;8.116505e-002
1.683622e+003;7.462355e-002
1.685551e+003;6.881252e-002
1.687479e+003;6.405266e-002
1.689408e+003;6.007921e-002
1.691337e+003;5.716201e-002
1.693265e+003;5.496547e-002
1.695194e+003;5.303808e-002
1.697122e+003;5.166057e-002
1.699051e+003;5.066260e-002
1.700979e+003;4.973859e-002
1.702908e+003;4.942916e-002
1.704836e+003;4.913105e-002
1.706765e+003;4.894361e-002
1.708693e+003;4.892633e-002
1.710622e+003;4.863686e-002
1.712551e+003;4.835363e-002
1.714479e+003;4.847835e-002
1.716408e+003;4.860766e-002
1.718336e+003;4.860196e-002
1.720265e+003;4.876726e-002
1.722193e+003;4.887312e-002
1.724122e+003;4.898185e-002
1.726050e+003;4.904283e-002
1.727979e+003;4.890241e-002
1.729908e+003;4.865447e-002
1.731836e+003;4.845456e-002
1.733765e+003;4.816975e-002
1.735693e+003;4.786658e-002
1.737622e+003;4.753815e-002
1.739550e+003;4.699423e-002
1.741479e+003;4.619092e-002
1.743407e+003;4.537470e-002
1.745336e+003;4.475157e-002
1.747265e+003;4.392533e-002
1.749193e+003;4.312222e-002
1.751122e+003;4.240785e-002
1.753050e+003;4.188002e-002
1.754979e+003;4.135530e-002
1.756907e+003;4.070770e-002
1.758836e+003;4.026040e-002
1.760764e+003;3.980849e-002
1.762693e+003;3.922128e-002
1.764621e+003;3.851989e-002
1.766550e+003;3.805010e-002
1.768479e+003;3.790491e-002
1.770407e+003;3.752883e-002
1.772336e+003;3.707755e-002
1.774264e+003;3.675559e-002
1.776193e+003;3.639236e-002
1.778121e+003;3.606648e-002
1.780050e+003;3.576804e-002
1.781978e+003;3.547697e-002
1.783907e+003;3.536462e-002
1.785835e+003;3.515591e-002
1.787764e+003;3.480794e-002
1.789693e+003;3.458901e-002
1.791621e+003;3.434606e-002
1.793550e+003;3.413453e-002
1.795478e+003;3.413235e-002
1.797407e+003;3.411822e-002
1.799335e+003;3.390946e-002
1.801264e+003;3.354703e-002
1.803192e+003;3.334637e-002
1.805121e+003;3.332347e-002
1.807049e+003;3.329138e-002
1.808978e+003;3.320342e-002
1.810907e+003;3.310565e-002
1.812835e+003;3.304372e-002
1.814764e+003;3.312128e-002
1.816692e+003;3.297819e-002
1.818621e+003;3.278705e-002
1.820549e+003;3.270605e-002
1.822478e+003;3.253496e-002
1.824406e+003;3.251875e-002
1.826335e+003;3.269237e-002
1.828264e+003;3.259575e-002
1.830192e+003;3.237343e-002
1.832121e+003;3.220643e-002
1.834049e+003;3.205837e-002
1.835978e+003;3.222720e-002
1.837906e+003;3.237300e-002
1.839835e+003;3.199872e-002
1.841763e+003;3.184894e-002
1.843692e+003;3.180520e-002
1.845620e+003;3.162648e-002
1.847549e+003;3.141876e-002
1.849478e+003;3.127261e-002
1.851406e+003;3.132972e-002
1.853335e+003;3.136367e-002
1.855263e+003;3.114162e-002
1.857192e+003;3.097873e-002
1.859120e+003;3.101054e-002
1.861049e+003;3.124526e-002
1.862977e+003;3.132613e-002
1.864906e+003;3.120122e-002
1.866834e+003;3.091692e-002
1.868763e+003;3.083278e-002
1.870692e+003;3.086633e-002
1.872620e+003;3.089725e-002
1.874549e+003;3.091664e-002
1.876477e+003;3.092916e-002
1.878406e+003;3.112304e-002
1.880334e+003;3.120610e-002
1.882263e+003;3.102075e-002
1.884191e+003;3.089721e-002
1.886120e+003;3.088632e-002
1.888048e+003;3.100969e-002
1.889977e+003;3.104399e-002
1.891906e+003;3.075795e-002
1.893834e+003;3.062801e-002
1.895763e+003;3.101641e-002
1.897691e+003;3.125113e-002
1.899620e+003;3.127211e-002
1.901548e+003;3.128977e-002
1.903477e+003;3.141243e-002
1.905405e+003;3.129739e-002
1.907334e+003;3.111286e-002
1.909262e+003;3.109122e-002
1.911191e+003;3.102250e-002
1.913120e+003;3.095239e-002
1.915048e+003;3.079953e-002
1.916977e+003;3.059978e-002
1.918905e+003;3.060973e-002
1.920834e+003;3.070546e-002
1.922762e+003;3.061375e-002
1.924691e+003;3.065990e-002
1.926619e+003;3.075347e-002
1.928548e+003;3.062911e-002
1.930477e+003;3.055662e-002
1.932405e+003;3.055684e-002
1.934334e+003;3.066954e-002
1.936262e+003;3.067850e-002
1.938191e+003;3.047458e-002
1.940119e+003;3.034260e-002
1.942048e+003;3.035983e-002
1.943976e+003;3.039963e-002
1.945905e+003;3.055278e-002
1.947833e+003;3.080557e-002
1.949762e+003;3.081518e-002
1.951691e+003;3.069241e-002
1.953619e+003;3.076791e-002
1.955548e+003;3.088519e-002
1.957476e+003;3.096520e-002
1.959405e+003;3.097115e-002
1.961333e+003;3.092870e-002
1.963262e+003;3.096264e-002
1.965190e+003;3.101669e-002
1.967119e+003;3.119068e-002
1.969047e+003;3.137314e-002
1.970976e+003;3.128895e-002
1.972905e+003;3.115213e-002
1.974833e+003;3.111806e-002
1.976762e+003;3.128571e-002
1.978690e+003;3.141153e-002
1.980619e+003;3.120485e-002
1.982547e+003;3.093827e-002
1.984476e+003;3.097538e-002
1.986404e+003;3.124590e-002
1.988333e+003;3.140744e-002
1.990261e+003;3.127631e-002
1.992190e+003;3.128432e-002
1.994119e+003;3.142635e-002
1.996047e+003;3.142870e-002
1.997976e+003;3.139593e-002
1.999904e+003;3.145595e-002
2.001833e+003;3.159979e-002
2.003761e+003;3.168881e-002
2.005690e+003;3.164626e-002
2.007618e+003;3.165663e-002
2.009547e+003;3.158468e-002
2.011476e+003;3.155703e-002
2.013404e+003;3.157656e-002
2.015333e+003;3.169644e-002
2.017261e+003;3.197183e-002
2.019190e+003;3.201581e-002
2.021118e+003;3.190689e-002
2.023047e+003;3.213300e-002
2.024975e+003;3.249678e-002
2.026904e+003;3.264654e-002
2.028833e+003;3.266047e-002
2.030761e+003;3.266979e-002
2.032690e+003;3.267736e-002
2.034618e+003;3.276172e-002
2.036547e+003;3.289451e-002
2.038475e+003;3.296399e-002
2.040404e+003;3.288772e-002
2.042332e+003;3.277386e-002
2.044261e+003;3.282896e-002
2.046189e+003;3.287896e-002
2.048118e+003;3.275578e-002
2.050047e+003;3.270355e-002
2.051975e+003;3.275914e-002
2.053904e+003;3.263178e-002
2.055832e+003;3.272767e-002
2.057761e+003;3.298426e-002
2.059689e+003;3.306868e-002
2.061618e+003;3.326756e-002
2.063546e+003;3.341450e-002
2.065475e+003;3.322446e-002
2.067404e+003;3.311988e-002
2.069332e+003;3.327121e-002
2.071260e+003;3.334512e-002
2.073189e+003;3.337056e-002
2.075118e+003;3.345526e-002
2.077046e+003;3.329017e-002
2.078975e+003;3.300922e-002
2.080903e+003;3.286356e-002
2.082832e+003;3.278748e-002
2.084760e+003;3.278441e-002
2.086689e+003;3.284498e-002
2.088617e+003;3.303446e-002
2.090546e+003;3.311695e-002
2.092475e+003;3.293540e-002
2.094403e+003;3.272052e-002
2.096332e+003;3.257821e-002
2.098260e+003;3.246151e-002
2.100189e+003;3.244565e-002
2.102117e+003;3.244712e-002
2.104046e+003;3.258903e-002
2.105974e+003;3.275979e-002
2.107903e+003;3.281217e-002
2.109832e+003;3.278551e-002
2.111760e+003;3.293972e-002
2.113688e+003;3.300146e-002
2.115617e+003;3.299964e-002
2.117546e+003;3.312128e-002
2.119474e+003;3.328287e-002
2.121403e+003;3.343074e-002
2.123331e+003;3.340634e-002
2.125260e+003;3.339281e-002
2.127188e+003;3.338394e-002
2.129117e+003;3.343769e-002
2.131045e+003;3.367809e-002
2.132974e+003;3.365378e-002
2.134903e+003;3.337861e-002
2.136831e+003;3.349062e-002
2.138760e+003;3.368590e-002
2.140688e+003;3.362353e-002
2.142617e+003;3.347834e-002
2.144545e+003;3.352870e-002
2.146474e+003;3.363452e-002
2.148402e+003;3.349828e-002
2.150331e+003;3.345358e-002
2.152260e+003;3.366166e-002
2.154188e+003;3.386969e-002
2.156117e+003;3.385153e-002
2.158045e+003;3.377865e-002
2.159974e+003;3.375007e-002
2.161902e+003;3.366549e-002
2.163831e+003;3.367720e-002
2.165759e+003;3.421196e-002
2.167688e+003;3.466477e-002
2.169616e+003;3.454581e-002
2.171545e+003;3.457753e-002
2.173474e+003;3.470618e-002
2.175402e+003;3.467991e-002
2.177331e+003;3.438594e-002
2.179259e+003;3.422107e-002
2.181188e+003;3.433986e-002
2.183116e+003;3.443859e-002
2.185045e+003;3.466580e-002
2.186973e+003;3.469900e-002
2.188902e+003;3.459927e-002
2.190831e+003;3.467923e-002
2.192759e+003;3.475672e-002
2.194688e+003;3.481843e-002
2.196616e+003;3.470571e-002
2.198545e+003;3.458478e-002
2.200473e+003;3.458177e-002
2.202402e+003;3.460340e-002
2.204330e+003;3.453379e-002
2.206259e+003;3.434107e-002
2.208188e+003;3.428399e-002
2.210116e+003;3.413984e-002
2.212044e+003;3.374283e-002
2.213973e+003;3.354384e-002
2.215902e+003;3.364268e-002
2.217830e+003;3.367372e-002
2.219759e+003;3.358386e-002
2.221687e+003;3.355071e-002
2.223616e+003;3.372403e-002
2.225544e+003;3.366964e-002
2.227473e+003;3.341557e-002
2.229401e+003;3.338548e-002
2.231330e+003;3.344234e-002
2.233259e+003;3.361375e-002
2.235187e+003;3.368876e-002
2.237116e+003;3.357327e-002
2.239044e+003;3.347065e-002
2.240973e+003;3.328351e-002
2.242901e+003;3.317020e-002
2.244830e+003;3.323358e-002
2.246758e+003;3.330079e-002
2.248687e+003;3.320393e-002
2.250615e+003;3.307204e-002
2.252544e+003;3.311859e-002
2.254473e+003;3.330351e-002
2.256401e+003;3.345579e-002
2.258330e+003;3.350955e-002
2.260258e+003;3.354051e-002
2.262187e+003;3.370047e-002
2.264115e+003;3.385247e-002
2.266044e+003;3.390824e-002
2.267972e+003;3.379995e-002
2.269901e+003;3.376525e-002
2.271830e+003;3.391856e-002
2.273758e+003;3.388041e-002
2.275687e+003;3.372235e-002
2.277615e+003;3.380970e-002
2.279544e+003;3.392372e-002
2.281472e+003;3.393941e-002
2.283401e+003;3.395145e-002
2.285329e+003;3.408622e-002
2.287258e+003;3.426018e-002
2.289187e+003;3.430414e-002
2.291115e+003;3.408736e-002
2.293043e+003;3.411822e-002
2.294972e+003;3.444372e-002
2.296901e+003;3.456903e-002
2.298829e+003;3.456634e-002
2.300758e+003;3.457064e-002
2.302686e+003;3.466810e-002
2.304615e+003;3.464011e-002
2.306543e+003;3.452719e-002
2.308472e+003;3.454818e-002
2.310400e+003;3.456192e-002
2.312329e+003;3.453796e-002
2.314258e+003;3.454151e-002
2.316186e+003;3.448716e-002
2.318115e+003;3.455428e-002
2.320043e+003;3.470044e-002
2.321972e+003;3.479096e-002
2.323900e+003;3.472527e-002
2.325829e+003;3.475657e-002
2.327757e+003;3.481020e-002
2.329686e+003;3.470069e-002
2.331615e+003;3.474871e-002
2.333543e+003;3.488700e-002
2.335472e+003;3.464994e-002
2.337400e+003;3.436941e-002
2.339329e+003;3.451223e-002
2.341257e+003;3.464366e-002
2.343186e+003;3.438920e-002
2.345114e+003;3.411231e-002
2.347043e+003;3.412027e-002
2.348971e+003;3.423254e-002
2.350900e+003;3.416826e-002
2.352829e+003;3.416859e-002
2.354757e+003;3.435144e-002
2.356686e+003;3.433308e-002
2.358614e+003;3.433369e-002
2.360543e+003;3.435427e-002
2.362471e+003;3.428901e-002
2.364400e+003;3.425315e-002
2.366328e+003;3.429335e-002
2.368257e+003;3.437410e-002
2.370186e+003;3.467811e-002
2.372114e+003;3.502364e-002
2.374042e+003;3.501064e-002
2.375971e+003;3.487030e-002
2.377900e+003;3.489378e-002
2.379828e+003;3.498837e-002
2.381757e+003;3.509203e-002
2.383685e+003;3.516945e-002
2.385614e+003;3.521279e-002
2.387542e+003;3.511039e-002
2.389471e+003;3.502454e-002
2.391399e+003;3.487192e-002
2.393328e+003;3.488183e-002
2.395257e+003;3.514926e-002
2.397185e+003;3.520833e-002
2.399114e+003;3.500216e-002
2.401042e+003;3.484539e-002
2.402971e+003;3.492553e-002
2.404899e+003;3.526115e-002
2.406828e+003;3.542768e-002
2.408756e+003;3.518350e-002
2.410685e+003;3.503887e-002
2.412614e+003;3.522324e-002
2.414542e+003;3.520818e-002
2.416471e+003;3.510417e-002
2.418399e+003;3.520818e-002
2.420328e+003;3.511333e-002
2.422256e+003;3.510453e-002
2.424185e+003;3.529695e-002
2.426113e+003;3.529903e-002
2.428042e+003;3.532185e-002
2.429970e+003;3.562412e-002
2.431899e+003;3.594243e-002
2.433828e+003;3.609305e-002
2.435756e+003;3.588315e-002
2.437685e+003;3.574232e-002
2.439613e+003;3.589762e-002
2.441542e+003;3.635024e-002
2.443470e+003;3.667374e-002
2.445399e+003;3.666018e-002
2.447327e+003;3.663841e-002
2.449256e+003;3.654425e-002
2.451185e+003;3.645812e-002
2.453113e+003;3.660481e-002
2.455042e+003;3.669436e-002
2.456970e+003;3.652861e-002
2.458899e+003;3.665373e-002
2.460827e+003;3.683835e-002
2.462756e+003;3.686638e-002
2.464684e+003;3.712497e-002
2.466613e+003;3.743329e-002
2.468542e+003;3.747107e-002
2.470470e+003;3.737139e-002
2.472398e+003;3.755300e-002
2.474327e+003;3.782588e-002
2.476256e+003;3.808941e-002
2.478184e+003;3.820188e-002
2.480113e+003;3.795260e-002
2.482041e+003;3.787761e-002
2.483970e+003;3.794880e-002
2.485898e+003;3.794374e-002
2.487827e+003;3.780636e-002
2.489755e+003;3.772102e-002
2.491684e+003;3.778814e-002
2.493613e+003;3.774777e-002
2.495541e+003;3.749014e-002
2.497470e+003;3.739981e-002
2.499398e+003;3.759577e-002
2.501327e+003;3.767921e-002
2.503255e+003;3.790469e-002
2.505184e+003;3.819744e-002
2.507112e+003;3.814176e-002
2.509041e+003;3.820416e-002
2.510969e+003;3.852086e-002
2.512898e+003;3.869491e-002
2.514827e+003;3.888972e-002
2.516755e+003;3.898420e-002
2.518684e+003;3.903716e-002
2.520612e+003;3.922545e-002
2.522541e+003;3.942437e-002
2.524469e+003;3.949252e-002
2.526398e+003;3.980177e-002
2.528326e+003;3.997669e-002
2.530255e+003;4.001139e-002
2.532184e+003;4.009303e-002
2.534112e+003;4.025317e-002
2.536041e+003;4.024652e-002
2.537969e+003;4.025139e-002
2.539898e+003;4.037020e-002
2.541826e+003;4.056245e-002
2.543755e+003;4.079442e-002
2.545683e+003;4.084080e-002
2.547612e+003;4.101341e-002
2.549541e+003;4.138647e-002
2.551469e+003;4.156663e-002
2.553397e+003;4.142820e-002
2.555326e+003;4.139448e-002
2.557255e+003;4.139689e-002
2.559183e+003;4.114981e-002
2.561112e+003;4.116576e-002
2.563040e+003;4.132057e-002
2.564969e+003;4.135625e-002
2.566897e+003;4.165199e-002
2.568826e+003;4.184171e-002
2.570754e+003;4.182357e-002
2.572683e+003;4.195227e-002
2.574612e+003;4.211153e-002
2.576540e+003;4.224608e-002
2.578469e+003;4.218743e-002
2.580397e+003;4.226854e-002
2.582326e+003;4.254356e-002
2.584254e+003;4.269487e-002
2.586183e+003;4.268211e-002
2.588111e+003;4.276562e-002
2.590040e+003;4.305730e-002
2.591969e+003;4.293069e-002
2.593897e+003;4.278547e-002
2.595826e+003;4.292784e-002
2.597754e+003;4.297535e-002
2.599683e+003;4.323732e-002
2.601611e+003;4.340385e-002
2.603540e+003;4.340634e-002
2.605468e+003;4.349317e-002
2.607397e+003;4.351412e-002
2.609325e+003;4.344545e-002
2.611254e+003;4.344084e-002
2.613183e+003;4.349006e-002
2.615111e+003;4.375815e-002
2.617040e+003;4.406327e-002
2.618968e+003;4.405509e-002
2.620897e+003;4.382211e-002
2.622825e+003;4.374731e-002
2.624754e+003;4.398018e-002
2.626682e+003;4.418324e-002
2.628611e+003;4.410563e-002
2.630540e+003;4.421215e-002
2.632468e+003;4.456472e-002
2.634396e+003;4.469827e-002
2.636325e+003;4.469343e-002
2.638254e+003;4.488426e-002
2.640182e+003;4.503195e-002
2.642111e+003;4.481184e-002
2.644039e+003;4.484593e-002
2.645968e+003;4.492107e-002
2.647896e+003;4.490208e-002
2.649825e+003;4.510212e-002
2.651753e+003;4.547178e-002
2.653682e+003;4.556400e-002
2.655611e+003;4.558608e-002
2.657539e+003;4.555133e-002
2.659468e+003;4.553938e-002
2.661396e+003;4.569767e-002
2.663325e+003;4.582288e-002
2.665253e+003;4.589255e-002
2.667182e+003;4.595442e-002
2.669110e+003;4.602666e-002
2.671039e+003;4.586843e-002
2.672968e+003;4.598400e-002
2.674896e+003;4.639417e-002
2.676825e+003;4.660290e-002
2.678753e+003;4.672232e-002
2.680682e+003;4.693110e-002
2.682610e+003;4.704082e-002
2.684539e+003;4.707727e-002
2.686467e+003;4.708913e-002
2.688396e+003;4.694834e-002
2.690324e+003;4.697499e-002
2.692253e+003;4.744308e-002
2.694182e+003;4.810122e-002
2.696110e+003;4.844875e-002
2.698039e+003;4.845797e-002
2.699967e+003;4.859369e-002
2.701896e+003;4.863571e-002
2.703824e+003;4.872378e-002
2.705753e+003;4.885543e-002
2.707681e+003;4.911024e-002
2.709610e+003;4.936349e-002
2.711539e+003;4.964664e-002
2.713467e+003;4.993470e-002
2.715396e+003;5.009538e-002
2.717324e+003;5.033857e-002
2.719253e+003;5.080929e-002
2.721181e+003;5.127378e-002
2.723110e+003;5.148550e-002
2.725038e+003;5.165008e-002
2.726967e+003;5.178773e-002
2.728896e+003;5.200415e-002
2.730824e+003;5.216908e-002
2.732752e+003;5.236906e-002
2.734681e+003;5.268141e-002
2.736610e+003;5.283466e-002
2.738538e+003;5.305441e-002
2.740467e+003;5.352277e-002
2.742395e+003;5.369551e-002
2.744324e+003;5.340686e-002
2.746252e+003;5.345804e-002
2.748181e+003;5.383160e-002
2.750109e+003;5.397988e-002
2.752038e+003;5.380924e-002
2.753967e+003;5.382181e-002
2.755895e+003;5.398592e-002
2.757824e+003;5.400348e-002
2.759752e+003;5.414774e-002
2.761681e+003;5.430252e-002
2.763609e+003;5.454939e-002
2.765538e+003;5.487899e-002
2.767466e+003;5.513156e-002
2.769395e+003;5.529945e-002
2.771323e+003;5.537367e-002
2.773252e+003;5.548069e-002
2.775181e+003;5.581824e-002
2.777109e+003;5.630169e-002
2.779038e+003;5.679449e-002
2.780966e+003;5.689997e-002
2.782895e+003;5.702328e-002
2.784823e+003;5.721349e-002
2.786752e+003;5.738804e-002
2.788680e+003;5.768586e-002
2.790609e+003;5.812829e-002
2.792538e+003;5.854437e-002
2.794466e+003;5.882268e-002
2.796395e+003;5.899648e-002
2.798323e+003;5.933863e-002
2.800252e+003;5.982507e-002
2.802180e+003;6.018736e-002
2.804109e+003;6.060062e-002
2.806037e+003;6.117014e-002
2.807966e+003;6.155623e-002
2.809895e+003;6.210671e-002
2.811823e+003;6.277334e-002
2.813751e+003;6.340093e-002
2.815680e+003;6.408995e-002
2.817609e+003;6.471187e-002
2.819537e+003;6.517815e-002
2.821466e+003;6.566771e-002
2.823394e+003;6.640138e-002
2.825323e+003;6.711026e-002
2.827251e+003;6.766058e-002
2.829180e+003;6.846744e-002
2.831108e+003;6.939439e-002
2.833037e+003;7.055071e-002
2.834966e+003;7.189462e-002
2.836894e+003;7.350725e-002
2.838823e+003;7.620545e-002
2.840751e+003;7.957003e-002
2.842680e+003;8.354810e-002
2.844608e+003;8.831094e-002
2.846537e+003;9.315395e-002
2.848465e+003;9.842502e-002
2.850394e+003;1.038247e-001
2.852323e+003;1.080262e-001
2.854251e+003;1.111557e-001
2.856180e+003;1.132031e-001
2.858108e+003;1.144536e-001
2.860037e+003;1.151545e-001
2.861965e+003;1.152882e-001
2.863894e+003;1.149805e-001
2.865822e+003;1.139402e-001
2.867751e+003;1.118838e-001
2.869679e+003;1.095063e-001
2.871608e+003;1.072668e-001
2.873536e+003;1.046190e-001
2.875465e+003;1.016503e-001
2.877394e+003;9.860202e-002
2.879322e+003;9.586800e-002
2.881251e+003;9.396130e-002
2.883179e+003;9.274629e-002
2.885108e+003;9.205462e-002
2.887036e+003;9.215416e-002
2.888965e+003;9.314299e-002
2.890893e+003;9.451668e-002
2.892822e+003;9.682296e-002
2.894750e+003;9.964292e-002
2.896679e+003;1.020070e-001
2.898608e+003;1.035411e-001
2.900536e+003;1.047567e-001
2.902465e+003;1.060426e-001
2.904393e+003;1.074337e-001
2.906322e+003;1.088327e-001
2.908250e+003;1.106835e-001
2.910179e+003;1.128144e-001
2.912107e+003;1.160471e-001
2.914036e+003;1.194757e-001
2.915965e+003;1.226732e-001
2.917893e+003;1.259027e-001
2.919822e+003;1.294967e-001
2.921750e+003;1.331606e-001
2.923679e+003;1.364163e-001
2.925607e+003;1.389352e-001
2.927536e+003;1.413478e-001
2.929464e+003;1.435474e-001
2.931393e+003;1.448223e-001
2.933322e+003;1.455778e-001
2.935250e+003;1.457296e-001
2.937178e+003;1.446969e-001
2.939107e+003;1.419792e-001
2.941036e+003;1.385519e-001
2.942964e+003;1.349482e-001
2.944893e+003;1.307989e-001
2.946821e+003;1.255943e-001
2.948750e+003;1.194664e-001
2.950678e+003;1.132484e-001
2.952607e+003;1.068951e-001
2.954535e+003;1.005048e-001
2.956464e+003;9.467232e-002
2.958393e+003;8.998965e-002
2.960321e+003;8.610712e-002
2.962250e+003;8.239840e-002
2.964178e+003;7.923932e-002
2.966107e+003;7.659906e-002
2.968035e+003;7.416981e-002
2.969964e+003;7.191726e-002
2.971892e+003;6.954144e-002
2.973821e+003;6.726009e-002
2.975750e+003;6.490693e-002
2.977678e+003;6.291506e-002
2.979607e+003;6.138720e-002
2.981535e+003;6.027830e-002
2.983464e+003;5.933202e-002
2.985392e+003;5.818261e-002
2.987321e+003;5.731673e-002
2.989249e+003;5.679509e-002
2.991178e+003;5.621464e-002
2.993106e+003;5.564408e-002
2.995035e+003;5.529204e-002
2.996964e+003;5.499070e-002
2.998892e+003;5.469961e-002
3.000821e+003;5.457302e-002
3.002749e+003;5.457332e-002
3.004678e+003;5.485267e-002
3.006606e+003;5.515680e-002
3.008535e+003;5.528876e-002
3.010463e+003;5.502214e-002
3.012392e+003;5.491129e-002
3.014321e+003;5.530205e-002
3.016249e+003;5.548231e-002
3.018177e+003;5.560013e-002
3.020106e+003;5.600731e-002
3.022035e+003;5.651298e-002
3.023963e+003;5.673985e-002
3.025892e+003;5.668359e-002
3.027820e+003;5.689325e-002
3.029749e+003;5.790868e-002
3.031677e+003;5.867596e-002
3.033606e+003;5.885600e-002
3.035534e+003;5.923437e-002
3.037463e+003;5.994541e-002
3.039392e+003;6.041262e-002
3.041320e+003;6.087724e-002
3.043249e+003;6.173010e-002
3.045177e+003;6.272403e-002
3.047106e+003;6.368119e-002
3.049034e+003;6.448249e-002
3.050963e+003;6.536248e-002
3.052891e+003;6.628406e-002
3.054820e+003;6.716003e-002
3.056749e+003;6.772382e-002
3.058677e+003;6.810589e-002
3.060606e+003;6.853397e-002
3.062534e+003;6.881671e-002
3.064463e+003;6.932843e-002
3.066391e+003;7.002517e-002
3.068320e+003;7.047085e-002
3.070248e+003;7.025886e-002
3.072177e+003;6.998671e-002
3.074105e+003;7.010062e-002
3.076034e+003;7.015985e-002
3.077963e+003;7.020277e-002
3.079891e+003;6.998472e-002
3.081820e+003;6.979359e-002
3.083748e+003;6.993867e-002
3.085677e+003;6.978923e-002
3.087605e+003;6.913145e-002
3.089534e+003;6.849340e-002
3.091462e+003;6.794798e-002
3.093391e+003;6.773535e-002
3.095320e+003;6.723889e-002
3.097248e+003;6.637165e-002
3.099177e+003;6.560162e-002
3.101105e+003;6.500979e-002
3.103034e+003;6.419177e-002
3.104962e+003;6.359794e-002
3.106891e+003;6.321777e-002
3.108819e+003;6.258532e-002
3.110748e+003;6.190449e-002
3.112677e+003;6.127242e-002
3.114605e+003;6.089443e-002
3.116533e+003;6.087175e-002
3.118462e+003;6.099246e-002
3.120391e+003;6.049171e-002
3.122319e+003;5.983968e-002
3.124248e+003;5.921634e-002
3.126176e+003;5.898676e-002
3.128105e+003;5.922534e-002
3.130033e+003;5.937802e-002
3.131962e+003;5.922071e-002
3.133890e+003;5.903057e-002
3.135819e+003;5.900681e-002
3.137748e+003;5.918812e-002
3.139676e+003;5.915102e-002
3.141605e+003;5.872928e-002
3.143533e+003;5.855791e-002
3.145462e+003;5.885072e-002
3.147390e+003;5.922135e-002
3.149319e+003;5.949117e-002
3.151247e+003;6.011334e-002
3.153176e+003;6.071854e-002
3.155104e+003;6.051262e-002
3.157033e+003;6.057102e-002
3.158962e+003;6.115183e-002
3.160890e+003;6.137484e-002
3.162819e+003;6.193934e-002
3.164747e+003;6.252360e-002
3.166676e+003;6.249520e-002
3.168604e+003;6.253163e-002
3.170533e+003;6.351286e-002
3.172461e+003;6.446154e-002
3.174390e+003;6.499185e-002
3.176319e+003;6.562982e-002
3.178247e+003;6.618094e-002
3.180176e+003;6.670626e-002
3.182104e+003;6.727321e-002
3.184033e+003;6.823014e-002
3.185961e+003;6.880258e-002
3.187890e+003;6.907430e-002
3.189818e+003;6.941994e-002
3.191747e+003;6.987146e-002
3.193676e+003;7.053453e-002
3.195604e+003;7.107349e-002
3.197532e+003;7.142057e-002
3.199461e+003;7.170569e-002
3.201390e+003;7.217763e-002
3.203318e+003;7.241406e-002
3.205247e+003;7.259252e-002
3.207175e+003;7.301607e-002
3.209104e+003;7.346954e-002
3.211032e+003;7.373277e-002
3.212961e+003;7.414615e-002
3.214889e+003;7.481800e-002
3.216818e+003;7.530985e-002
3.218747e+003;7.582846e-002
3.220675e+003;7.647473e-002
3.222604e+003;7.747099e-002
3.224532e+003;7.857133e-002
3.226461e+003;7.946486e-002
3.228389e+003;8.005753e-002
3.230318e+003;8.068397e-002
3.232246e+003;8.170122e-002
3.234175e+003;8.290116e-002
3.236104e+003;8.438260e-002
3.238032e+003;8.595193e-002
3.239961e+003;8.740237e-002
3.241889e+003;8.901370e-002
3.243818e+003;9.100007e-002
3.245746e+003;9.294032e-002
3.247675e+003;9.499945e-002
3.249603e+003;9.679505e-002
3.251532e+003;9.832366e-002
3.253460e+003;1.001502e-001
3.255389e+003;1.021867e-001
3.257318e+003;1.044911e-001
3.259246e+003;1.072545e-001
3.261175e+003;1.099130e-001
3.263103e+003;1.123122e-001
3.265032e+003;1.149416e-001
3.266960e+003;1.175284e-001
3.268889e+003;1.197735e-001
3.270817e+003;1.219774e-001
3.272746e+003;1.246747e-001
3.274675e+003;1.275581e-001
3.276603e+003;1.303024e-001
3.278531e+003;1.331492e-001
3.280460e+003;1.359852e-001
3.282389e+003;1.382761e-001
3.284317e+003;1.402353e-001
3.286246e+003;1.426166e-001
3.288174e+003;1.446059e-001
3.290103e+003;1.452868e-001
3.292031e+003;1.452382e-001
3.293960e+003;1.446627e-001
3.295888e+003;1.434889e-001
3.297817e+003;1.418505e-001
3.299746e+003;1.391982e-001
3.301674e+003;1.358103e-001
3.303603e+003;1.326074e-001
3.305531e+003;1.292152e-001
3.307460e+003;1.253070e-001
3.309388e+003;1.217617e-001
3.311317e+003;1.183667e-001
3.313245e+003;1.149654e-001
3.315174e+003;1.114717e-001
3.317103e+003;1.083628e-001
3.319031e+003;1.052329e-001
3.320960e+003;1.022391e-001
3.322888e+003;9.953690e-002
3.324817e+003;9.653907e-002
3.326745e+003;9.377088e-002
3.328674e+003;9.108134e-002
3.330602e+003;8.848258e-002
3.332531e+003;8.607310e-002
3.334459e+003;8.380952e-002
3.336388e+003;8.188658e-002
3.338317e+003;7.988510e-002
3.340245e+003;7.805733e-002
3.342174e+003;7.654662e-002
3.344102e+003;7.500777e-002
3.346031e+003;7.341986e-002
3.347959e+003;7.188532e-002
3.349888e+003;7.037495e-002
3.351816e+003;6.895199e-002
3.353745e+003;6.749021e-002
3.355674e+003;6.623389e-002
3.357602e+003;6.538710e-002
3.359531e+003;6.442083e-002
3.361459e+003;6.325782e-002
3.363388e+003;6.202751e-002
3.365316e+003;6.106121e-002
3.367245e+003;6.023620e-002
3.369173e+003;5.927778e-002
3.371102e+003;5.858687e-002
3.373031e+003;5.805246e-002
3.374959e+003;5.734146e-002
3.376887e+003;5.670681e-002
3.378816e+003;5.623569e-002
3.380745e+003;5.570586e-002
3.382673e+003;5.506307e-002
3.384602e+003;5.446588e-002
3.386530e+003;5.421797e-002
3.388459e+003;5.378175e-002
3.390387e+003;5.309552e-002
3.392316e+003;5.271598e-002
3.394244e+003;5.269263e-002
3.396173e+003;5.270535e-002
3.398102e+003;5.211801e-002
3.400030e+003;5.139908e-002
3.401959e+003;5.117662e-002
3.403887e+003;5.108728e-002
3.405816e+003;5.066815e-002
3.407744e+003;5.023250e-002
3.409673e+003;4.986177e-002
3.411601e+003;4.991254e-002
3.413530e+003;4.984966e-002
3.415458e+003;4.951947e-002
3.417387e+003;4.926349e-002
3.419316e+003;4.918867e-002
3.421244e+003;4.907896e-002
3.423173e+003;4.863253e-002
3.425101e+003;4.845164e-002
3.427030e+003;4.866866e-002
3.428958e+003;4.851484e-002
3.430887e+003;4.844171e-002
3.432815e+003;4.864939e-002
3.434744e+003;4.850736e-002
3.436673e+003;4.811089e-002
3.438601e+003;4.808964e-002
3.440530e+003;4.775361e-002
3.442458e+003;4.735044e-002
3.444387e+003;4.755671e-002
3.446315e+003;4.792451e-002
3.448244e+003;4.766179e-002
3.450172e+003;4.706054e-002
3.452101e+003;4.682539e-002
3.454030e+003;4.697396e-002
3.455958e+003;4.694081e-002
3.457886e+003;4.655104e-002
3.459815e+003;4.656133e-002
3.461744e+003;4.677476e-002
3.463672e+003;4.643207e-002
3.465601e+003;4.570613e-002
3.467529e+003;4.563535e-002
3.469458e+003;4.606523e-002
3.471386e+003;4.565821e-002
3.473315e+003;4.495510e-002
3.475243e+003;4.474532e-002
3.477172e+003;4.475623e-002
3.479101e+003;4.481225e-002
3.481029e+003;4.444512e-002
3.482958e+003;4.419813e-002
3.484886e+003;4.429936e-002
3.486815e+003;4.419336e-002
3.488743e+003;4.401563e-002
3.490672e+003;4.398711e-002
3.492600e+003;4.370638e-002
3.494529e+003;4.353335e-002
3.496458e+003;4.357284e-002
3.498386e+003;4.345896e-002
3.500315e+003;4.364185e-002
3.502243e+003;4.387661e-002
3.504172e+003;4.353100e-002
3.506100e+003;4.302690e-002
3.508029e+003;4.270716e-002
3.509957e+003;4.229724e-002
3.511886e+003;4.211609e-002
3.513814e+003;4.219747e-002
3.515743e+003;4.224451e-002
3.517672e+003;4.192768e-002
3.519600e+003;4.153494e-002
3.521529e+003;4.163332e-002
3.523457e+003;4.171260e-002
3.525386e+003;4.177914e-002
3.527314e+003;4.163098e-002
3.529243e+003;4.119330e-002
3.531171e+003;4.109481e-002
3.533100e+003;4.115298e-002
3.535029e+003;4.070381e-002
3.536957e+003;4.039678e-002
3.538885e+003;4.029891e-002
3.540814e+003;3.995312e-002
3.542743e+003;3.947496e-002
3.544671e+003;3.948109e-002
3.546600e+003;3.976106e-002
3.548528e+003;3.967665e-002
3.550457e+003;3.892712e-002
3.552385e+003;3.834066e-002
3.554314e+003;3.867020e-002
3.556242e+003;3.862019e-002
3.558171e+003;3.819157e-002
3.560100e+003;3.768582e-002
3.562028e+003;3.698698e-002
3.563957e+003;3.656970e-002
3.565885e+003;3.681509e-002
3.567814e+003;3.711544e-002
3.569742e+003;3.673647e-002
3.571671e+003;3.616485e-002
3.573599e+003;3.587700e-002
3.575528e+003;3.584724e-002
3.577457e+003;3.554989e-002
3.579385e+003;3.522378e-002
3.581314e+003;3.504896e-002
3.583242e+003;3.460972e-002
3.585171e+003;3.403554e-002
3.587099e+003;3.315428e-002
3.589028e+003;3.272084e-002
3.590956e+003;3.265943e-002
3.592885e+003;3.280291e-002
3.594813e+003;3.315743e-002
3.596742e+003;3.335403e-002
3.598671e+003;3.331446e-002
3.600599e+003;3.297032e-002
3.602528e+003;3.277758e-002
3.604456e+003;3.264075e-002
3.606385e+003;3.228077e-002
3.608313e+003;3.192804e-002
3.610242e+003;3.159829e-002
3.612170e+003;3.133272e-002
3.614099e+003;3.116469e-002
3.616028e+003;3.138411e-002
3.617956e+003;3.133905e-002
3.619885e+003;3.066108e-002
3.621813e+003;3.005197e-002
3.623742e+003;3.004274e-002
3.625670e+003;3.005314e-002
3.627599e+003;2.996460e-002
3.629527e+003;2.969846e-002
3.631456e+003;2.953833e-002
3.633385e+003;2.934445e-002
3.635313e+003;2.901893e-002
3.637241e+003;2.854989e-002
3.639170e+003;2.841643e-002
3.641099e+003;2.835418e-002
3.643027e+003;2.826177e-002
3.644956e+003;2.808786e-002
3.646884e+003;2.799165e-002
3.648813e+003;2.765082e-002
3.650741e+003;2.759380e-002
3.652670e+003;2.776896e-002
3.654598e+003;2.782760e-002
3.656527e+003;2.755987e-002
3.658456e+003;2.726779e-002
3.660384e+003;2.734820e-002
3.662313e+003;2.722929e-002
3.664241e+003;2.733920e-002
3.666170e+003;2.742079e-002
3.668098e+003;2.715592e-002
3.670027e+003;2.672317e-002
3.671955e+003;2.652491e-002
3.673884e+003;2.658546e-002
3.675813e+003;2.675767e-002
3.677741e+003;2.674520e-002
3.679669e+003;2.619674e-002
3.681598e+003;2.588475e-002
3.683527e+003;2.569748e-002
3.685455e+003;2.574909e-002
3.687384e+003;2.553967e-002
3.689312e+003;2.520294e-002
3.691241e+003;2.511958e-002
3.693169e+003;2.494552e-002
3.695098e+003;2.485124e-002
3.697026e+003;2.510192e-002
3.698955e+003;2.497584e-002
3.700884e+003;2.478223e-002
3.702812e+003;2.453832e-002
3.704741e+003;2.417844e-002
3.706669e+003;2.424167e-002
3.708598e+003;2.450354e-002
3.710526e+003;2.454060e-002
3.712455e+003;2.416295e-002
3.714383e+003;2.383373e-002
3.716312e+003;2.393353e-002
3.718240e+003;2.424731e-002
3.720169e+003;2.426599e-002
3.722098e+003;2.419707e-002
3.724026e+003;2.407970e-002
3.725955e+003;2.433859e-002
3.727883e+003;2.426245e-002
3.729812e+003;2.403329e-002
3.731740e+003;2.416106e-002
3.733669e+003;2.424766e-002
3.735597e+003;2.434816e-002
3.737526e+003;2.470155e-002
3.739455e+003;2.476820e-002
3.741383e+003;2.446533e-002
3.743312e+003;2.414929e-002
3.745240e+003;2.397278e-002
3.747169e+003;2.416173e-002
3.749097e+003;2.408744e-002
3.751026e+003;2.387570e-002
3.752954e+003;2.397471e-002
3.754883e+003;2.408645e-002
3.756812e+003;2.426522e-002
3.758740e+003;2.462457e-002
3.760668e+003;2.483120e-002
3.762597e+003;2.476238e-002
3.764526e+003;2.471225e-002
3.766454e+003;2.460602e-002
3.768383e+003;2.444072e-002
3.770311e+003;2.437896e-002
3.772240e+003;2.424223e-002
3.774168e+003;2.410582e-002
3.776097e+003;2.432587e-002
3.778025e+003;2.432076e-002
3.779954e+003;2.412565e-002
3.781883e+003;2.426350e-002
3.783811e+003;2.436659e-002
3.785740e+003;2.451493e-002
3.787668e+003;2.446323e-002
3.789597e+003;2.448363e-002
3.791525e+003;2.436407e-002
3.793454e+003;2.410943e-002
3.795382e+003;2.398395e-002
3.797311e+003;2.419963e-002
3.799240e+003;2.444093e-002
3.801168e+003;2.443217e-002
3.803097e+003;2.412260e-002
3.805025e+003;2.388848e-002
3.806954e+003;2.377748e-002
3.808882e+003;2.412187e-002
3.810811e+003;2.475259e-002
3.812739e+003;2.565607e-002
3.814668e+003;2.591155e-002
3.816596e+003;2.542951e-002
3.818525e+003;2.506166e-002
3.820454e+003;2.480493e-002
3.822382e+003;2.486015e-002
3.824311e+003;2.514005e-002
3.826239e+003;2.534201e-002
3.828168e+003;2.519423e-002
3.830096e+003;2.534798e-002
3.832025e+003;2.590596e-002
3.833953e+003;2.604254e-002
3.835882e+003;2.542336e-002
3.837811e+003;2.523356e-002
3.839739e+003;2.555864e-002
3.841667e+003;2.526758e-002
3.843596e+003;2.486685e-002
3.845525e+003;2.502800e-002
3.847453e+003;2.547347e-002
3.849382e+003;2.597222e-002
3.851310e+003;2.583572e-002
3.853239e+003;2.529754e-002
3.855167e+003;2.511439e-002
3.857096e+003;2.570131e-002
3.859024e+003;2.618829e-002
3.860953e+003;2.643257e-002
3.862882e+003;2.643472e-002
3.864810e+003;2.599333e-002
3.866739e+003;2.529227e-002
3.868667e+003;2.508286e-002
3.870596e+003;2.582247e-002
3.872524e+003;2.643880e-002
3.874453e+003;2.628230e-002
3.876381e+003;2.614356e-002
3.878310e+003;2.632029e-002
3.880239e+003;2.614828e-002
3.882167e+003;2.540531e-002
3.884096e+003;2.514813e-002
3.886024e+003;2.556595e-002
3.887953e+003;2.591260e-002
3.889881e+003;2.572335e-002
3.891810e+003;2.561477e-002
3.893738e+003;2.603779e-002
3.895667e+003;2.615760e-002
3.897595e+003;2.593416e-002
3.899524e+003;2.614479e-002
3.901453e+003;2.661864e-002
3.903381e+003;2.652498e-002
3.905310e+003;2.625555e-002
3.907238e+003;2.639598e-002
3.909167e+003;2.629152e-002
3.911095e+003;2.640510e-002
3.913024e+003;2.659986e-002
3.914952e+003;2.682150e-002
3.916881e+003;2.702233e-002
3.918810e+003;2.707548e-002
3.920738e+003;2.718721e-002
3.922667e+003;2.677004e-002
3.924595e+003;2.679764e-002
3.926524e+003;2.733257e-002
3.928452e+003;2.725544e-002
3.930381e+003;2.738645e-002
3.932309e+003;2.720559e-002
3.934238e+003;2.721388e-002
3.936167e+003;2.762720e-002
3.938095e+003;2.763289e-002
3.940023e+003;2.781340e-002
3.941952e+003;2.753805e-002
3.943881e+003;2.750709e-002
3.945809e+003;2.828072e-002
3.947738e+003;2.876168e-002
3.949666e+003;2.857352e-002
3.951595e+003;2.833402e-002
3.953523e+003;2.816086e-002
3.955452e+003;2.836429e-002
3.957380e+003;2.862434e-002
3.959309e+003;2.842704e-002
3.961238e+003;2.822404e-002
3.963166e+003;2.844098e-002
3.965095e+003;2.892060e-002
3.967023e+003;2.891075e-002
3.968952e+003;2.855792e-002
3.970880e+003;2.875889e-002
3.972809e+003;2.919438e-002
3.974737e+003;2.892524e-002
3.976666e+003;2.876430e-002
3.978594e+003;2.930808e-002
3.980523e+003;2.940355e-002
3.982452e+003;2.930439e-002
3.984380e+003;2.934409e-002
3.986309e+003;2.987206e-002
3.988237e+003;2.991941e-002
3.990166e+003;2.993265e-002
3.992094e+003;3.037902e-002
3.994023e+003;3.028220e-002
3.995951e+003;2.984263e-002
3.997880e+003;2.959065e-002
3.999809e+003;2.980367e-002
4.001737e+003;0.000000e+000
