3.992094e+002;0.000000e+000
4.011380e+002;0.000000e+000
4.030665e+002;0.000000e+000
4.049951e+002;0.000000e+000
4.069236e+002;0.000000e+000
4.088522e+002;0.000000e+000
4.107807e+002;0.000000e+000
4.127093e+002;0.000000e+000
4.146378e+002;0.000000e+000
4.165664e+002;0.000000e+000
4.184949e+002;0.000000e+000
4.204235e+002;0.000000e+000
4.223520e+002;0.000000e+000
4.242806e+002;0.000000e+000
4.262091e+002;0.000000e+000
4.281377e+002;0.000000e+000
4.300662e+002;0.000000e+000
4.319948e+002;0.000000e+000
4.339233e+002;0.000000e+000
4.358519e+002;0.000000e+000
4.377804e+002;0.000000e+000
4.397090e+002;0.000000e+000
4.416375e+002;0.000000e+000
4.435660e+002;0.000000e+000
4.454946e+002;0.000000e+000
4.474232e+002;0.000000e+000
4.493517e+002;0.000000e+000
4.512802e+002;0.000000e+000
4.532088e+002;0.000000e+000
4.551373e+002;0.000000e+000
4.570659e+002;0.000000e+000
4.589944e+002;0.000000e+000
4.609230e+002;0.000000e+000
4.628515e+002;0.000000e+000
4.647801e+002;0.000000e+000
4.667086e+002;0.000000e+000
4.686372e+002;0.000000e+000
4.705657e+002;0.000000e+000
4.724943e+002;0.000000e+000
4.744228e+002;0.000000e+000
4.763513e+002;0.000000e+000
4.782799e+002;0.000000e+000
4.802085e+002;0.000000e+000
4.821370e+002;0.000000e+000
4.840656e+002;0.000000e+000
4.859941e+002;0.000000e+000
4.879226e+002;0.000000e+000
4.898512e+002;0.000000e+000
4.917798e+002;0.000000e+000
4.937083e+002;0.000000e+000
4.956368e+002;0.000000e+000
4.975654e+002;0.000000e+000
4.994939e+002;0.000000e+000
5.014225e+002;0.000000e+000
5.033510e+002;0.000000e+000
5.052796e+002;0.000000e+000
5.072081e+002;0.000000e+000
5.091367e+002;0.000000e+000
5.110652e+002;0.000000e+000
5.129938e+002;0.000000e+000
5.149223e+002;0.000000e+000
5.168509e+002;0.000000e+000
5.187794e+002;0.000000e+000
5.207079e+002;0.000000e+000
5.226365e+002;0.000000e+000
5.245651e+002;0.000000e+000
5.264936e+002;0.000000e+000
5.284222e+002;0.000000e+000
5.303507e+002;0.000000e+000
5.322792e+002;0.000000e+000
5.342078e+002;0.000000e+000
5.361364e+002;0.000000e+000
5.380649e+002;0.000000e+000
5.399935e+002;0.000000e+000
5.419220e+002;0.000000e+000
5.438505e+002;0.000000e+000
5.457791e+002;0.000000e+000
5.477076e+002;0.000000e+000
5.496362e+002;0.000000e+000
5.515648e+002;0.000000e+000
5.534933e+002;0.000000e+000
5.554218e+002;0.000000e+000
5.573504e+002;0.000000e+000
5.592789e+002;0.000000e+000
5.612075e+002;0.000000e+000
5.631360e+002;0.000000e+000
5.650646e+002;0.000000e+000
5.669931e+002;0.000000e+000
5.689217e+002;0.000000e+000
5.708502e+002;0.000000e+000
5.727787e+002;0.000000e+000
5.747073e+002;0.000000e+000
5.766359e+002;0.000000e+000
5.785644e+002;0.000000e+000
5.804930e+002;0.000000e+000
5.824215e+002;0.000000e+000
5.843500e+002;0.000000e+000
5.862786e+002;0.000000e+000
5.882072e+002;0.000000e+000
5.901357e+002;0.000000e+000
5.920643e+002;0.000000e+000
5.939928e+002;0.000000e+000
5.959213e+002;0.000000e+000
5.978499e+002;0.000000e+000
5.997784e+002;8.015089e-002
6.017070e+002;8.205806e-002
6.036355e+002;8.510695e-002
6.055641e+002;9.141032e-002
6.074926e+002;9.162213e-002
6.094211e+002;8.855534e-002
6.113497e+002;8.437986e-002
6.132783e+002;8.353689e-002
6.152068e+002;8.532350e-002
6.171354e+002;8.550223e-002
6.190639e+002;8.591526e-002
6.209924e+002;8.660748e-002
6.229210e+002;8.639801e-002
6.248495e+002;8.342136e-002
6.267781e+002;8.185662e-002
6.287067e+002;8.437479e-002
6.306352e+002;8.409357e-002
6.325637e+002;8.191419e-002
6.344923e+002;8.229987e-002
6.364208e+002;8.231333e-002
6.383494e+002;8.142544e-002
6.402780e+002;7.980342e-002
6.422065e+002;8.179445e-002
6.441350e+002;8.648907e-002
6.460636e+002;8.662988e-002
6.479921e+002;8.329788e-002
6.499207e+002;8.244543e-002
6.518492e+002;8.180429e-002
6.537778e+002;8.089991e-002
6.557063e+002;8.082347e-002
6.576349e+002;8.162760e-002
6.595634e+002;8.433391e-002
6.614919e+002;8.615725e-002
6.634205e+002;8.673563e-002
6.653491e+002;8.470641e-002
6.672776e+002;8.424721e-002
6.692062e+002;8.490933e-002
6.711347e+002;8.478708e-002
6.730632e+002;8.388242e-002
6.749918e+002;8.245288e-002
6.769203e+002;8.426644e-002
6.788489e+002;8.747596e-002
6.807775e+002;8.773189e-002
6.827060e+002;8.606446e-002
6.846345e+002;8.562545e-002
6.865631e+002;8.547423e-002
6.884916e+002;8.478345e-002
6.904202e+002;8.491208e-002
6.923488e+002;8.474628e-002
6.942773e+002;8.442264e-002
6.962058e+002;8.456118e-002
6.981344e+002;8.393861e-002
7.000629e+002;8.337018e-002
7.019915e+002;8.321223e-002
7.039200e+002;8.388021e-002
7.058486e+002;8.489894e-002
7.077771e+002;8.436787e-002
7.097057e+002;8.347011e-002
7.116342e+002;8.392965e-002
7.135627e+002;8.361345e-002
7.154913e+002;8.249547e-002
7.174199e+002;8.213987e-002
7.193484e+002;8.142959e-002
7.212770e+002;8.074174e-002
7.232055e+002;8.102767e-002
7.251340e+002;8.116481e-002
7.270626e+002;8.136609e-002
7.289911e+002;8.181673e-002
7.309197e+002;8.221286e-002
7.328483e+002;8.264510e-002
7.347768e+002;8.223036e-002
7.367053e+002;8.155339e-002
7.386339e+002;8.193167e-002
7.405624e+002;8.356605e-002
7.424910e+002;8.400555e-002
7.444196e+002;8.428116e-002
7.463481e+002;8.505053e-002
7.482766e+002;8.516847e-002
7.502052e+002;8.605561e-002
7.521337e+002;8.689491e-002
7.540623e+002;8.609439e-002
7.559908e+002;8.520366e-002
7.579194e+002;8.473367e-002
7.598479e+002;8.483859e-002
7.617765e+002;8.564361e-002
7.637050e+002;8.605452e-002
7.656335e+002;8.551687e-002
7.675621e+002;8.505617e-002
7.694907e+002;8.493576e-002
7.714192e+002;8.498577e-002
7.733478e+002;8.508777e-002
7.752763e+002;8.495535e-002
7.772048e+002;8.482433e-002
7.791334e+002;8.423720e-002
7.810620e+002;8.358983e-002
7.829905e+002;8.369781e-002
7.849191e+002;8.314128e-002
7.868476e+002;8.280709e-002
7.887761e+002;8.267408e-002
7.907047e+002;8.218607e-002
7.926332e+002;8.182045e-002
7.945618e+002;8.215185e-002
7.964903e+002;8.250841e-002
7.984189e+002;8.254772e-002
8.003474e+002;8.221478e-002
8.022759e+002;8.146457e-002
8.042045e+002;8.043974e-002
8.061331e+002;8.038551e-002
8.080616e+002;8.048424e-002
8.099902e+002;7.947659e-002
8.119187e+002;7.856414e-002
8.138472e+002;7.906960e-002
8.157758e+002;7.953847e-002
8.177043e+002;7.881503e-002
8.196329e+002;7.860640e-002
8.215615e+002;7.884967e-002
8.234900e+002;7.828928e-002
8.254185e+002;7.786611e-002
8.273471e+002;7.878869e-002
8.292756e+002;7.987537e-002
8.312042e+002;8.003243e-002
8.331328e+002;7.979709e-002
8.350613e+002;7.964657e-002
8.369898e+002;7.954631e-002
8.389184e+002;7.904456e-002
8.408469e+002;7.861660e-002
8.427755e+002;7.853695e-002
8.447040e+002;7.776096e-002
8.466326e+002;7.641546e-002
8.485611e+002;7.500400e-002
8.504897e+002;7.432140e-002
8.524182e+002;7.453228e-002
8.543467e+002;7.431676e-002
8.562753e+002;7.390647e-002
8.582039e+002;7.391433e-002
8.601324e+002;7.341264e-002
8.620610e+002;7.293540e-002
8.639895e+002;7.316592e-002
8.659180e+002;7.340652e-002
8.678466e+002;7.325098e-002
8.697751e+002;7.311212e-002
8.717037e+002;7.284711e-002
8.736323e+002;7.285028e-002
8.755608e+002;7.295167e-002
8.774893e+002;7.299964e-002
8.794179e+002;7.268894e-002
8.813464e+002;7.240771e-002
8.832750e+002;7.283359e-002
8.852036e+002;7.327973e-002
8.871321e+002;7.298487e-002
8.890606e+002;7.266842e-002
8.909892e+002;7.305084e-002
8.929177e+002;7.345521e-002
8.948463e+002;7.299948e-002
8.967748e+002;7.266580e-002
8.987034e+002;7.318603e-002
9.006319e+002;7.352699e-002
9.025605e+002;7.362799e-002
9.044890e+002;7.367745e-002
9.064175e+002;7.433166e-002
9.083461e+002;7.488725e-002
9.102747e+002;7.452995e-002
9.122032e+002;7.368503e-002
9.141318e+002;7.349226e-002
9.160603e+002;7.368997e-002
9.179888e+002;7.367922e-002
9.199174e+002;7.396729e-002
9.218459e+002;7.437586e-002
9.237745e+002;7.425441e-002
9.257031e+002;7.401817e-002
9.276316e+002;7.426671e-002
9.295601e+002;7.485055e-002
9.314887e+002;7.461359e-002
9.334172e+002;7.425531e-002
9.353458e+002;7.462855e-002
9.372744e+002;7.508706e-002
9.392029e+002;7.530390e-002
9.411314e+002;7.559088e-002
9.430600e+002;7.602597e-002
9.449885e+002;7.634921e-002
9.469171e+002;7.691953e-002
9.488456e+002;7.750596e-002
9.507742e+002;7.796201e-002
9.527027e+002;7.838456e-002
9.546313e+002;7.887153e-002
9.565598e+002;7.933820e-002
9.584883e+002;7.938720e-002
9.604169e+002;7.964915e-002
9.623455e+002;8.006299e-002
9.642740e+002;8.048321e-002
9.662026e+002;8.103250e-002
9.681311e+002;8.177425e-002
9.700596e+002;8.167626e-002
9.719882e+002;8.134559e-002
9.739167e+002;8.197589e-002
9.758453e+002;8.288151e-002
9.777739e+002;8.394010e-002
9.797024e+002;8.525757e-002
9.816309e+002;8.617354e-002
9.835595e+002;8.675776e-002
9.854880e+002;8.695015e-002
9.874166e+002;8.686366e-002
9.893452e+002;8.737049e-002
9.912737e+002;8.810301e-002
9.932022e+002;8.858601e-002
9.951307e+002;8.939720e-002
9.970593e+002;9.044362e-002
9.989879e+002;9.153028e-002
1.000916e+003;9.282001e-002
1.002845e+003;9.393119e-002
1.004773e+003;9.464917e-002
1.006702e+003;9.539372e-002
1.008631e+003;9.668931e-002
1.010559e+003;9.787799e-002
1.012488e+003;9.851397e-002
1.014416e+003;9.906259e-002
1.016345e+003;9.968839e-002
1.018273e+003;1.005836e-001
1.020202e+003;1.015633e-001
1.022130e+003;1.017986e-001
1.024059e+003;1.022134e-001
1.025988e+003;1.032775e-001
1.027916e+003;1.037527e-001
1.029845e+003;1.050632e-001
1.031773e+003;1.072471e-001
1.033702e+003;1.096385e-001
1.035630e+003;1.111510e-001
1.037559e+003;1.109878e-001
1.039487e+003;1.099885e-001
1.041416e+003;1.088843e-001
1.043344e+003;1.079816e-001
1.045273e+003;1.070511e-001
1.047202e+003;1.067589e-001
1.049130e+003;1.076042e-001
1.051059e+003;1.084130e-001
1.052987e+003;1.089874e-001
1.054916e+003;1.097467e-001
1.056844e+003;1.104843e-001
1.058773e+003;1.110439e-001
1.060701e+003;1.114534e-001
1.062630e+003;1.117027e-001
1.064558e+003;1.118942e-001
1.066487e+003;1.112910e-001
1.068416e+003;1.102374e-001
1.070344e+003;1.096190e-001
1.072273e+003;1.086309e-001
1.074201e+003;1.072167e-001
1.076130e+003;1.060341e-001
1.078058e+003;1.047753e-001
1.079987e+003;1.035097e-001
1.081915e+003;1.025341e-001
1.083844e+003;1.018427e-001
1.085773e+003;1.008774e-001
1.087701e+003;9.941953e-002
1.089630e+003;9.853026e-002
1.091558e+003;9.816740e-002
1.093487e+003;9.784154e-002
1.095415e+003;9.739164e-002
1.097344e+003;9.707518e-002
1.099272e+003;9.668472e-002
1.101201e+003;9.668927e-002
1.103129e+003;9.699807e-002
1.105058e+003;9.694261e-002
1.106987e+003;9.639662e-002
1.108915e+003;9.599007e-002
1.110844e+003;9.548717e-002
1.112772e+003;9.384321e-002
1.114701e+003;9.197493e-002
1.116629e+003;9.006413e-002
1.118558e+003;8.867630e-002
1.120486e+003;8.788382e-002
1.122415e+003;8.655603e-002
1.124344e+003;8.453554e-002
1.126272e+003;8.268550e-002
1.128201e+003;8.135023e-002
1.130129e+003;8.016607e-002
1.132058e+003;7.930005e-002
1.133986e+003;7.907958e-002
1.135915e+003;7.889600e-002
1.137843e+003;7.935192e-002
1.139772e+003;8.055443e-002
1.141700e+003;8.186746e-002
1.143629e+003;8.307492e-002
1.145557e+003;8.459278e-002
1.147486e+003;8.673697e-002
1.149415e+003;8.884593e-002
1.151343e+003;9.115340e-002
1.153272e+003;9.353627e-002
1.155200e+003;9.636960e-002
1.157129e+003;9.956786e-002
1.159057e+003;1.027949e-001
1.160986e+003;1.055044e-001
1.162914e+003;1.074196e-001
1.164843e+003;1.089437e-001
1.166771e+003;1.092926e-001
1.168700e+003;1.087061e-001
1.170629e+003;1.076892e-001
1.172557e+003;1.065132e-001
1.174486e+003;1.052059e-001
1.176414e+003;1.034723e-001
1.178343e+003;1.015537e-001
1.180271e+003;9.993815e-002
1.182200e+003;9.890129e-002
1.184128e+003;9.821326e-002
1.186057e+003;9.847842e-002
1.187986e+003;9.921883e-002
1.189914e+003;9.969606e-002
1.191843e+003;1.002795e-001
1.193771e+003;1.009773e-001
1.195700e+003;1.014826e-001
1.197628e+003;1.018466e-001
1.199557e+003;1.023702e-001
1.201485e+003;1.024237e-001
1.203414e+003;1.020879e-001
1.205343e+003;1.019895e-001
1.207271e+003;1.014474e-001
1.209200e+003;1.008561e-001
1.211128e+003;1.005043e-001
1.213057e+003;9.989794e-002
1.214985e+003;9.957765e-002
1.216914e+003;9.947902e-002
1.218842e+003;9.969343e-002
1.220771e+003;1.001761e-001
1.222699e+003;1.000672e-001
1.224628e+003;9.998857e-002
1.226557e+003;1.001832e-001
1.228485e+003;1.003234e-001
1.230414e+003;1.002783e-001
1.232342e+003;1.000403e-001
1.234271e+003;9.957799e-002
1.236199e+003;9.906629e-002
1.238128e+003;9.876209e-002
1.240056e+003;9.863812e-002
1.241985e+003;9.884899e-002
1.243913e+003;9.919610e-002
1.245842e+003;9.930524e-002
1.247771e+003;9.932881e-002
1.249699e+003;9.902184e-002
1.251628e+003;9.886218e-002
1.253556e+003;9.870399e-002
1.255485e+003;9.837382e-002
1.257413e+003;9.854336e-002
1.259342e+003;9.912078e-002
1.261270e+003;9.885070e-002
1.263199e+003;9.786350e-002
1.265127e+003;9.721968e-002
1.267056e+003;9.645574e-002
1.268985e+003;9.581805e-002
1.270913e+003;9.552676e-002
1.272842e+003;9.488099e-002
1.274770e+003;9.405794e-002
1.276699e+003;9.329239e-002
1.278627e+003;9.240409e-002
1.280556e+003;9.116999e-002
1.282484e+003;9.021591e-002
1.284413e+003;8.935157e-002
1.286342e+003;8.844188e-002
1.288270e+003;8.771806e-002
1.290199e+003;8.702485e-002
1.292127e+003;8.645983e-002
1.294056e+003;8.595043e-002
1.295984e+003;8.567335e-002
1.297913e+003;8.567993e-002
1.299841e+003;8.579449e-002
1.301770e+003;8.585037e-002
1.303698e+003;8.567610e-002
1.305627e+003;8.597297e-002
1.307556e+003;8.640473e-002
1.309484e+003;8.677901e-002
1.311413e+003;8.692045e-002
1.313341e+003;8.689041e-002
1.315270e+003;8.688997e-002
1.317198e+003;8.658212e-002
1.319127e+003;8.623137e-002
1.321055e+003;8.608983e-002
1.322984e+003;8.568058e-002
1.324912e+003;8.533556e-002
1.326841e+003;8.541860e-002
1.328770e+003;8.566859e-002
1.330698e+003;8.616607e-002
1.332627e+003;8.675129e-002
1.334555e+003;8.717220e-002
1.336484e+003;8.747309e-002
1.338412e+003;8.774564e-002
1.340341e+003;8.810014e-002
1.342269e+003;8.845495e-002
1.344198e+003;8.881255e-002
1.346126e+003;8.900000e-002
1.348055e+003;8.919457e-002
1.349984e+003;8.945636e-002
1.351912e+003;8.960482e-002
1.353841e+003;8.945119e-002
1.355769e+003;8.943526e-002
1.357698e+003;8.961125e-002
1.359626e+003;8.960278e-002
1.361555e+003;8.952761e-002
1.363483e+003;8.914371e-002
1.365412e+003;8.860836e-002
1.367341e+003;8.808865e-002
1.369269e+003;8.745485e-002
1.371198e+003;8.669303e-002
1.373126e+003;8.557380e-002
1.375055e+003;8.465603e-002
1.376983e+003;8.401629e-002
1.378912e+003;8.321989e-002
1.380840e+003;8.247359e-002
1.382769e+003;8.154804e-002
1.384698e+003;8.061814e-002
1.386626e+003;7.973872e-002
1.388555e+003;7.897607e-002
1.390483e+003;7.805432e-002
1.392412e+003;7.663788e-002
1.394340e+003;7.516304e-002
1.396269e+003;7.397978e-002
1.398197e+003;7.302077e-002
1.400126e+003;7.231377e-002
1.402054e+003;7.190029e-002
1.403983e+003;7.165907e-002
1.405911e+003;7.183617e-002
1.407840e+003;7.200149e-002
1.409769e+003;7.210249e-002
1.411697e+003;7.259452e-002
1.413626e+003;7.317054e-002
1.415554e+003;7.361425e-002
1.417483e+003;7.411346e-002
1.419411e+003;7.519952e-002
1.421340e+003;7.696091e-002
1.423268e+003;7.909035e-002
1.425197e+003;8.144442e-002
1.427125e+003;8.438207e-002
1.429054e+003;8.768311e-002
1.430983e+003;9.117032e-002
1.432911e+003;9.452727e-002
1.434840e+003;9.730531e-002
1.436768e+003;9.987455e-002
1.438697e+003;1.026207e-001
1.440625e+003;1.056882e-001
1.442554e+003;1.089205e-001
1.444482e+003;1.122259e-001
1.446411e+003;1.154067e-001
1.448340e+003;1.176276e-001
1.450268e+003;1.187182e-001
1.452197e+003;1.184497e-001
1.454125e+003;1.160537e-001
1.456054e+003;1.114153e-001
1.457982e+003;1.051522e-001
1.459911e+003;9.856032e-002
1.461839e+003;9.208850e-002
1.463768e+003;8.601470e-002
1.465697e+003;8.119106e-002
1.467625e+003;7.788355e-002
1.469554e+003;7.522272e-002
1.471482e+003;7.252838e-002
1.473411e+003;7.016542e-002
1.475339e+003;6.838754e-002
1.477268e+003;6.714135e-002
1.479196e+003;6.629958e-002
1.481125e+003;6.565079e-002
1.483053e+003;6.522767e-002
1.484982e+003;6.472486e-002
1.486911e+003;6.412144e-002
1.488839e+003;6.353959e-002
1.490768e+003;6.278383e-002
1.492696e+003;6.202028e-002
1.494625e+003;6.159800e-002
1.496553e+003;6.148549e-002
1.498482e+003;6.139224e-002
1.500410e+003;6.115454e-002
1.502339e+003;6.098433e-002
1.504267e+003;6.093473e-002
1.506196e+003;6.069088e-002
1.508125e+003;6.069918e-002
1.510053e+003;6.079689e-002
1.511982e+003;6.073755e-002
1.513910e+003;6.079933e-002
1.515839e+003;6.081534e-002
1.517767e+003;6.086611e-002
1.519696e+003;6.062344e-002
1.521624e+003;6.035158e-002
1.523553e+003;6.042899e-002
1.525481e+003;6.053643e-002
1.527410e+003;6.038832e-002
1.529339e+003;6.038040e-002
1.531267e+003;6.067906e-002
1.533196e+003;6.067304e-002
1.535124e+003;6.055807e-002
1.537053e+003;6.075714e-002
1.538981e+003;6.087907e-002
1.540910e+003;6.083733e-002
1.542838e+003;6.104473e-002
1.544767e+003;6.115065e-002
1.546695e+003;6.091956e-002
1.548624e+003;6.079514e-002
1.550553e+003;6.089870e-002
1.552481e+003;6.068162e-002
1.554410e+003;6.026349e-002
1.556338e+003;5.991369e-002
1.558267e+003;5.929434e-002
1.560195e+003;5.913971e-002
1.562124e+003;5.956690e-002
1.564052e+003;5.932469e-002
1.565981e+003;5.857015e-002
1.567910e+003;5.821213e-002
1.569838e+003;5.819186e-002
1.571767e+003;5.813000e-002
1.573695e+003;5.795832e-002
1.575624e+003;5.785697e-002
1.577552e+003;5.799929e-002
1.579481e+003;5.808227e-002
1.581409e+003;5.810731e-002
1.583338e+003;5.829416e-002
1.585266e+003;5.843746e-002
1.587195e+003;5.842711e-002
1.589124e+003;5.841688e-002
1.591052e+003;5.845816e-002
1.592981e+003;5.856447e-002
1.594909e+003;5.867618e-002
1.596838e+003;5.883987e-002
1.598766e+003;5.931269e-002
1.600695e+003;5.980302e-002
1.602623e+003;6.038661e-002
1.604552e+003;6.094091e-002
1.606480e+003;6.143590e-002
1.608409e+003;6.203320e-002
1.610338e+003;6.223720e-002
1.612266e+003;6.209536e-002
1.614195e+003;6.216895e-002
1.616123e+003;6.258639e-002
1.618052e+003;6.302822e-002
1.619980e+003;6.318179e-002
1.621909e+003;6.333441e-002
1.623837e+003;6.403538e-002
1.625766e+003;6.481664e-002
1.627694e+003;6.557603e-002
1.629623e+003;6.609463e-002
1.631552e+003;6.637076e-002
1.633480e+003;6.665928e-002
1.635409e+003;6.698436e-002
1.637337e+003;6.723905e-002
1.639266e+003;6.753677e-002
1.641194e+003;6.797583e-002
1.643123e+003;6.821223e-002
1.645051e+003;6.824852e-002
1.646980e+003;6.834611e-002
1.648909e+003;6.827581e-002
1.650837e+003;6.800541e-002
1.652766e+003;6.754409e-002
1.654694e+003;6.746323e-002
1.656623e+003;6.756263e-002
1.658551e+003;6.755516e-002
1.660480e+003;6.742352e-002
1.662408e+003;6.730393e-002
1.664337e+003;6.720354e-002
1.666266e+003;6.706215e-002
1.668194e+003;6.702031e-002
1.670123e+003;6.684714e-002
1.672051e+003;6.632262e-002
1.673980e+003;6.575132e-002
1.675908e+003;6.518728e-002
1.677837e+003;6.483530e-002
1.679765e+003;6.437168e-002
1.681694e+003;6.358673e-002
1.683622e+003;6.299699e-002
1.685551e+003;6.299654e-002
1.687479e+003;6.311135e-002
1.689408e+003;6.321417e-002
1.691337e+003;6.335262e-002
1.693265e+003;6.312852e-002
1.695194e+003;6.298504e-002
1.697122e+003;6.292793e-002
1.699051e+003;6.280010e-002
1.700979e+003;6.343248e-002
1.702908e+003;6.480341e-002
1.704836e+003;6.578740e-002
1.706765e+003;6.739764e-002
1.708693e+003;6.982561e-002
1.710622e+003;7.243183e-002
1.712551e+003;7.526075e-002
1.714479e+003;7.863955e-002
1.716408e+003;8.243730e-002
1.718336e+003;8.668789e-002
1.720265e+003;9.137060e-002
1.722193e+003;9.575348e-002
1.724122e+003;9.933519e-002
1.726050e+003;1.022816e-001
1.727979e+003;1.042383e-001
1.729908e+003;1.047673e-001
1.731836e+003;1.040409e-001
1.733765e+003;1.021676e-001
1.735693e+003;9.918244e-002
1.737622e+003;9.525617e-002
1.739550e+003;9.062063e-002
1.741479e+003;8.558026e-002
1.743407e+003;8.038830e-002
1.745336e+003;7.551029e-002
1.747265e+003;7.087911e-002
1.749193e+003;6.634787e-002
1.751122e+003;6.245625e-002
1.753050e+003;5.937639e-002
1.754979e+003;5.648302e-002
1.756907e+003;5.387638e-002
1.758836e+003;5.158624e-002
1.760764e+003;4.947546e-002
1.762693e+003;4.785652e-002
1.764621e+003;4.660607e-002
1.766550e+003;4.544530e-002
1.768479e+003;4.447089e-002
1.770407e+003;4.368293e-002
1.772336e+003;4.296142e-002
1.774264e+003;4.247270e-002
1.776193e+003;4.214464e-002
1.778121e+003;4.193914e-002
1.780050e+003;4.166384e-002
1.781978e+003;4.082118e-002
1.783907e+003;4.016681e-002
1.785835e+003;3.998069e-002
1.787764e+003;3.988574e-002
1.789693e+003;3.947644e-002
1.791621e+003;3.909291e-002
1.793550e+003;3.890719e-002
1.795478e+003;3.861276e-002
1.797407e+003;3.825250e-002
1.799335e+003;3.806746e-002
1.801264e+003;3.776121e-002
1.803192e+003;3.757583e-002
1.805121e+003;3.738479e-002
1.807049e+003;3.709086e-002
1.808978e+003;3.684665e-002
1.810907e+003;3.676410e-002
1.812835e+003;3.652039e-002
1.814764e+003;3.631173e-002
1.816692e+003;3.631274e-002
1.818621e+003;3.617036e-002
1.820549e+003;3.605381e-002
1.822478e+003;3.582943e-002
1.824406e+003;3.557891e-002
1.826335e+003;3.537473e-002
1.828264e+003;3.532976e-002
1.830192e+003;3.539069e-002
1.832121e+003;3.518946e-002
1.834049e+003;3.494348e-002
1.835978e+003;3.490283e-002
1.837906e+003;3.482650e-002
1.839835e+003;3.482550e-002
1.841763e+003;3.462891e-002
1.843692e+003;3.413901e-002
1.845620e+003;3.416084e-002
1.847549e+003;3.464528e-002
1.849478e+003;3.460695e-002
1.851406e+003;3.414360e-002
1.853335e+003;3.402615e-002
1.855263e+003;3.412145e-002
1.857192e+003;3.411571e-002
1.859120e+003;3.401046e-002
1.861049e+003;3.400430e-002
1.862977e+003;3.382173e-002
1.864906e+003;3.366209e-002
1.866834e+003;3.365206e-002
1.868763e+003;3.361673e-002
1.870692e+003;3.368654e-002
1.872620e+003;3.340974e-002
1.874549e+003;3.321562e-002
1.876477e+003;3.333807e-002
1.878406e+003;3.341793e-002
1.880334e+003;3.358891e-002
1.882263e+003;3.347090e-002
1.884191e+003;3.319498e-002
1.886120e+003;3.321458e-002
1.888048e+003;3.324724e-002
1.889977e+003;3.303067e-002
1.891906e+003;3.300614e-002
1.893834e+003;3.308055e-002
1.895763e+003;3.309514e-002
1.897691e+003;3.306210e-002
1.899620e+003;3.301590e-002
1.901548e+003;3.324173e-002
1.903477e+003;3.337993e-002
1.905405e+003;3.324034e-002
1.907334e+003;3.313458e-002
1.909262e+003;3.304454e-002
1.911191e+003;3.299524e-002
1.913120e+003;3.296053e-002
1.915048e+003;3.300632e-002
1.916977e+003;3.290766e-002
1.918905e+003;3.262618e-002
1.920834e+003;3.264907e-002
1.922762e+003;3.312646e-002
1.924691e+003;3.337628e-002
1.926619e+003;3.309918e-002
1.928548e+003;3.303374e-002
1.930477e+003;3.293447e-002
1.932405e+003;3.276308e-002
1.934334e+003;3.272134e-002
1.936262e+003;3.257692e-002
1.938191e+003;3.254578e-002
1.940119e+003;3.254525e-002
1.942048e+003;3.247800e-002
1.943976e+003;3.225839e-002
1.945905e+003;3.214880e-002
1.947833e+003;3.231057e-002
1.949762e+003;3.259135e-002
1.951691e+003;3.288186e-002
1.953619e+003;3.282736e-002
1.955548e+003;3.266475e-002
1.957476e+003;3.252171e-002
1.959405e+003;3.249903e-002
1.961333e+003;3.254428e-002
1.963262e+003;3.241245e-002
1.965190e+003;3.239653e-002
1.967119e+003;3.248597e-002
1.969047e+003;3.248729e-002
1.970976e+003;3.255700e-002
1.972905e+003;3.291320e-002
1.974833e+003;3.319531e-002
1.976762e+003;3.324688e-002
1.978690e+003;3.331564e-002
1.980619e+003;3.347573e-002
1.982547e+003;3.360763e-002
1.984476e+003;3.368142e-002
1.986404e+003;3.368625e-002
1.988333e+003;3.365296e-002
1.990261e+003;3.358039e-002
1.992190e+003;3.383051e-002
1.994119e+003;3.401261e-002
1.996047e+003;3.401842e-002
1.997976e+003;3.407572e-002
1.999904e+003;3.404640e-002
2.001833e+003;3.398294e-002
2.003761e+003;3.403579e-002
2.005690e+003;3.406335e-002
2.007618e+003;3.403995e-002
2.009547e+003;3.407729e-002
2.011476e+003;3.396492e-002
2.013404e+003;3.385193e-002
2.015333e+003;3.401788e-002
2.017261e+003;3.412485e-002
2.019190e+003;3.410983e-002
2.021118e+003;3.417615e-002
2.023047e+003;3.422064e-002
2.024975e+003;3.406665e-002
2.026904e+003;3.401687e-002
2.028833e+003;3.433254e-002
2.030761e+003;3.458123e-002
2.032690e+003;3.440190e-002
2.034618e+003;3.411328e-002
2.036547e+003;3.411919e-002
2.038475e+003;3.433874e-002
2.040404e+003;3.430389e-002
2.042332e+003;3.408471e-002
2.044261e+003;3.415786e-002
2.046189e+003;3.436320e-002
2.048118e+003;3.440731e-002
2.050047e+003;3.416479e-002
2.051975e+003;3.405199e-002
2.053904e+003;3.427907e-002
2.055832e+003;3.429310e-002
2.057761e+003;3.407317e-002
2.059689e+003;3.398176e-002
2.061618e+003;3.404310e-002
2.063546e+003;3.416170e-002
2.065475e+003;3.406905e-002
2.067404e+003;3.384859e-002
2.069332e+003;3.393164e-002
2.071260e+003;3.397337e-002
2.073189e+003;3.390975e-002
2.075118e+003;3.379054e-002
2.077046e+003;3.358035e-002
2.078975e+003;3.355254e-002
2.080903e+003;3.369005e-002
2.082832e+003;3.372772e-002
2.084760e+003;3.366520e-002
2.086689e+003;3.373778e-002
2.088617e+003;3.369077e-002
2.090546e+003;3.369345e-002
2.092475e+003;3.393615e-002
2.094403e+003;3.400885e-002
2.096332e+003;3.385533e-002
2.098260e+003;3.378835e-002
2.100189e+003;3.382811e-002
2.102117e+003;3.393898e-002
2.104046e+003;3.402992e-002
2.105974e+003;3.396194e-002
2.107903e+003;3.397133e-002
2.109832e+003;3.402028e-002
2.111760e+003;3.401723e-002
2.113688e+003;3.397541e-002
2.115617e+003;3.417572e-002
2.117546e+003;3.437794e-002
2.119474e+003;3.429266e-002
2.121403e+003;3.430166e-002
2.123331e+003;3.409446e-002
2.125260e+003;3.388334e-002
2.127188e+003;3.399899e-002
2.129117e+003;3.408102e-002
2.131045e+003;3.401096e-002
2.132974e+003;3.388252e-002
2.134903e+003;3.386464e-002
2.136831e+003;3.399573e-002
2.138760e+003;3.391354e-002
2.140688e+003;3.379985e-002
2.142617e+003;3.381299e-002
2.144545e+003;3.359013e-002
2.146474e+003;3.336673e-002
2.148402e+003;3.349445e-002
2.150331e+003;3.380522e-002
2.152260e+003;3.384072e-002
2.154188e+003;3.375465e-002
2.156117e+003;3.385615e-002
2.158045e+003;3.390079e-002
2.159974e+003;3.372110e-002
2.161902e+003;3.378463e-002
2.163831e+003;3.399871e-002
2.165759e+003;3.425412e-002
2.167688e+003;3.426437e-002
2.169616e+003;3.419554e-002
2.171545e+003;3.429421e-002
2.173474e+003;3.464707e-002
2.175402e+003;3.501193e-002
2.177331e+003;3.517153e-002
2.179259e+003;3.534795e-002
2.181188e+003;3.562221e-002
2.183116e+003;3.618257e-002
2.185045e+003;3.698824e-002
2.186973e+003;3.784800e-002
2.188902e+003;3.858137e-002
2.190831e+003;3.881790e-002
2.192759e+003;3.875602e-002
2.194688e+003;3.854929e-002
2.196616e+003;3.826405e-002
2.198545e+003;3.792125e-002
2.200473e+003;3.742650e-002
2.202402e+003;3.730528e-002
2.204330e+003;3.766165e-002
2.206259e+003;3.805172e-002
2.208188e+003;3.811173e-002
2.210116e+003;3.818589e-002
2.212044e+003;3.855993e-002
2.213973e+003;3.914393e-002
2.215902e+003;3.960339e-002
2.217830e+003;4.000412e-002
2.219759e+003;4.076305e-002
2.221687e+003;4.170465e-002
2.223616e+003;4.291409e-002
2.225544e+003;4.489193e-002
2.227473e+003;4.782837e-002
2.229401e+003;5.186218e-002
2.231330e+003;5.706579e-002
2.233259e+003;6.310062e-002
2.235187e+003;6.930488e-002
2.237116e+003;7.582688e-002
2.239044e+003;8.139007e-002
2.240973e+003;8.390988e-002
2.242901e+003;8.358971e-002
2.244830e+003;8.107140e-002
2.246758e+003;7.688322e-002
2.248687e+003;7.179833e-002
2.250615e+003;6.678013e-002
2.252544e+003;6.249490e-002
2.254473e+003;5.885755e-002
2.256401e+003;5.550818e-002
2.258330e+003;5.263342e-002
2.260258e+003;5.011914e-002
2.262187e+003;4.794827e-002
2.264115e+003;4.628766e-002
2.266044e+003;4.471212e-002
2.267972e+003;4.340488e-002
2.269901e+003;4.266322e-002
2.271830e+003;4.208013e-002
2.273758e+003;4.154209e-002
2.275687e+003;4.118904e-002
2.277615e+003;4.087917e-002
2.279544e+003;4.040439e-002
2.281472e+003;4.013094e-002
2.283401e+003;4.015660e-002
2.285329e+003;4.010078e-002
2.287258e+003;3.991516e-002
2.289187e+003;3.960612e-002
2.291115e+003;3.972414e-002
2.293043e+003;3.972918e-002
2.294972e+003;3.938171e-002
2.296901e+003;3.915756e-002
2.298829e+003;3.930223e-002
2.300758e+003;3.927140e-002
2.302686e+003;3.910466e-002
2.304615e+003;3.902349e-002
2.306543e+003;3.886692e-002
2.308472e+003;3.866727e-002
2.310400e+003;3.844715e-002
2.312329e+003;3.841537e-002
2.314258e+003;3.854867e-002
2.316186e+003;3.865192e-002
2.318115e+003;3.864047e-002
2.320043e+003;3.859571e-002
2.321972e+003;3.835546e-002
2.323900e+003;3.824393e-002
2.325829e+003;3.831496e-002
2.327757e+003;3.833936e-002
2.329686e+003;3.832560e-002
2.331615e+003;3.802236e-002
2.333543e+003;3.778322e-002
2.335472e+003;3.788021e-002
2.337400e+003;3.796160e-002
2.339329e+003;3.806941e-002
2.341257e+003;3.827509e-002
2.343186e+003;3.849146e-002
2.345114e+003;3.866601e-002
2.347043e+003;3.881250e-002
2.348971e+003;3.894252e-002
2.350900e+003;3.877500e-002
2.352829e+003;3.843614e-002
2.354757e+003;3.834841e-002
2.356686e+003;3.833997e-002
2.358614e+003;3.835698e-002
2.360543e+003;3.828312e-002
2.362471e+003;3.807303e-002
2.364400e+003;3.816534e-002
2.366328e+003;3.833624e-002
2.368257e+003;3.832361e-002
2.370186e+003;3.862102e-002
2.372114e+003;3.894158e-002
2.374042e+003;3.892878e-002
2.375971e+003;3.908882e-002
2.377900e+003;3.956637e-002
2.379828e+003;3.978993e-002
2.381757e+003;3.974654e-002
2.383685e+003;3.988751e-002
2.385614e+003;3.998719e-002
2.387542e+003;3.998570e-002
2.389471e+003;3.982723e-002
2.391399e+003;3.966754e-002
2.393328e+003;3.952848e-002
2.395257e+003;3.963853e-002
2.397185e+003;3.984883e-002
2.399114e+003;4.001622e-002
2.401042e+003;4.004166e-002
2.402971e+003;3.999660e-002
2.404899e+003;3.985265e-002
2.406828e+003;3.993870e-002
2.408756e+003;4.011382e-002
2.410685e+003;4.007974e-002
2.412614e+003;4.005644e-002
2.414542e+003;3.999613e-002
2.416471e+003;4.006164e-002
2.418399e+003;4.012461e-002
2.420328e+003;3.995566e-002
2.422256e+003;4.008318e-002
2.424185e+003;4.043515e-002
2.426113e+003;4.038086e-002
2.428042e+003;4.016088e-002
2.429970e+003;4.020159e-002
2.431899e+003;4.021166e-002
2.433828e+003;4.009496e-002
2.435756e+003;4.009714e-002
2.437685e+003;4.029512e-002
2.439613e+003;4.040748e-002
2.441542e+003;4.035177e-002
2.443470e+003;4.021704e-002
2.445399e+003;4.036075e-002
2.447327e+003;4.047730e-002
2.449256e+003;4.058570e-002
2.451185e+003;4.094208e-002
2.453113e+003;4.092981e-002
2.455042e+003;4.071836e-002
2.456970e+003;4.063547e-002
2.458899e+003;4.072986e-002
2.460827e+003;4.087214e-002
2.462756e+003;4.102717e-002
2.464684e+003;4.114372e-002
2.466613e+003;4.115276e-002
2.468542e+003;4.114467e-002
2.470470e+003;4.119228e-002
2.472398e+003;4.137648e-002
2.474327e+003;4.185926e-002
2.476256e+003;4.201505e-002
2.478184e+003;4.179479e-002
2.480113e+003;4.169907e-002
2.482041e+003;4.174595e-002
2.483970e+003;4.196669e-002
2.485898e+003;4.213266e-002
2.487827e+003;4.233008e-002
2.489755e+003;4.249894e-002
2.491684e+003;4.257312e-002
2.493613e+003;4.269148e-002
2.495541e+003;4.278595e-002
2.497470e+003;4.276869e-002
2.499398e+003;4.276039e-002
2.501327e+003;4.276774e-002
2.503255e+003;4.281107e-002
2.505184e+003;4.271140e-002
2.507112e+003;4.274200e-002
2.509041e+003;4.295392e-002
2.510969e+003;4.312602e-002
2.512898e+003;4.311325e-002
2.514827e+003;4.290041e-002
2.516755e+003;4.317861e-002
2.518684e+003;4.339836e-002
2.520612e+003;4.313502e-002
2.522541e+003;4.308160e-002
2.524469e+003;4.332638e-002
2.526398e+003;4.341755e-002
2.528326e+003;4.352756e-002
2.530255e+003;4.368816e-002
2.532184e+003;4.339419e-002
2.534112e+003;4.304878e-002
2.536041e+003;4.314501e-002
2.537969e+003;4.358738e-002
2.539898e+003;4.385920e-002
2.541826e+003;4.358565e-002
2.543755e+003;4.333901e-002
2.545683e+003;4.353016e-002
2.547612e+003;4.356243e-002
2.549541e+003;4.351148e-002
2.551469e+003;4.348585e-002
2.553397e+003;4.354002e-002
2.555326e+003;4.370832e-002
2.557255e+003;4.358298e-002
2.559183e+003;4.315241e-002
2.561112e+003;4.300817e-002
2.563040e+003;4.300210e-002
2.564969e+003;4.303817e-002
2.566897e+003;4.299266e-002
2.568826e+003;4.287167e-002
2.570754e+003;4.254878e-002
2.572683e+003;4.234225e-002
2.574612e+003;4.232303e-002
2.576540e+003;4.252481e-002
2.578469e+003;4.265686e-002
2.580397e+003;4.255587e-002
2.582326e+003;4.240949e-002
2.584254e+003;4.242162e-002
2.586183e+003;4.233304e-002
2.588111e+003;4.208349e-002
2.590040e+003;4.190885e-002
2.591969e+003;4.213917e-002
2.593897e+003;4.247512e-002
2.595826e+003;4.255953e-002
2.597754e+003;4.240354e-002
2.599683e+003;4.264330e-002
2.601611e+003;4.284175e-002
2.603540e+003;4.278639e-002
2.605468e+003;4.269487e-002
2.607397e+003;4.243865e-002
2.609325e+003;4.248027e-002
2.611254e+003;4.267513e-002
2.613183e+003;4.247866e-002
2.615111e+003;4.256848e-002
2.617040e+003;4.279578e-002
2.618968e+003;4.292813e-002
2.620897e+003;4.297869e-002
2.622825e+003;4.315735e-002
2.624754e+003;4.341136e-002
2.626682e+003;4.339961e-002
2.628611e+003;4.341865e-002
2.630540e+003;4.378868e-002
2.632468e+003;4.376926e-002
2.634396e+003;4.338111e-002
2.636325e+003;4.339452e-002
2.638254e+003;4.351892e-002
2.640182e+003;4.338064e-002
2.642111e+003;4.337035e-002
2.644039e+003;4.346929e-002
2.645968e+003;4.323871e-002
2.647896e+003;4.316200e-002
2.649825e+003;4.344692e-002
2.651753e+003;4.353137e-002
2.653682e+003;4.343315e-002
2.655611e+003;4.346028e-002
2.657539e+003;4.357031e-002
2.659468e+003;4.367497e-002
2.661396e+003;4.363306e-002
2.663325e+003;4.353745e-002
2.665253e+003;4.342740e-002
2.667182e+003;4.354408e-002
2.669110e+003;4.352511e-002
2.671039e+003;4.338814e-002
2.672968e+003;4.353481e-002
2.674896e+003;4.365581e-002
2.676825e+003;4.377882e-002
2.678753e+003;4.388772e-002
2.680682e+003;4.374496e-002
2.682610e+003;4.355771e-002
2.684539e+003;4.348914e-002
2.686467e+003;4.377281e-002
2.688396e+003;4.405124e-002
2.690324e+003;4.403687e-002
2.692253e+003;4.416530e-002
2.694182e+003;4.425353e-002
2.696110e+003;4.389651e-002
2.698039e+003;4.360368e-002
2.699967e+003;4.368325e-002
2.701896e+003;4.386330e-002
2.703824e+003;4.394597e-002
2.705753e+003;4.406492e-002
2.707681e+003;4.423830e-002
2.709610e+003;4.429514e-002
2.711539e+003;4.404875e-002
2.713467e+003;4.387042e-002
2.715396e+003;4.394333e-002
2.717324e+003;4.391704e-002
2.719253e+003;4.396518e-002
2.721181e+003;4.391814e-002
2.723110e+003;4.380543e-002
2.725038e+003;4.373147e-002
2.726967e+003;4.371674e-002
2.728896e+003;4.385678e-002
2.730824e+003;4.379180e-002
2.732752e+003;4.356902e-002
2.734681e+003;4.353958e-002
2.736610e+003;4.377230e-002
2.738538e+003;4.374925e-002
2.740467e+003;4.374324e-002
2.742395e+003;4.374397e-002
2.744324e+003;4.375640e-002
2.746252e+003;4.360635e-002
2.748181e+003;4.338020e-002
2.750109e+003;4.336621e-002
2.752038e+003;4.370685e-002
2.753967e+003;4.387009e-002
2.755895e+003;4.382017e-002
2.757824e+003;4.377325e-002
2.759752e+003;4.353386e-002
2.761681e+003;4.328369e-002
2.763609e+003;4.353016e-002
2.765538e+003;4.391030e-002
2.767466e+003;4.429088e-002
2.769395e+003;4.458154e-002
2.771323e+003;4.469408e-002
2.773252e+003;4.471972e-002
2.775181e+003;4.470371e-002
2.777109e+003;4.477661e-002
2.779038e+003;4.500034e-002
2.780966e+003;4.505352e-002
2.782895e+003;4.547719e-002
2.784823e+003;4.592658e-002
2.786752e+003;4.599679e-002
2.788680e+003;4.593159e-002
2.790609e+003;4.624104e-002
2.792538e+003;4.666451e-002
2.794466e+003;4.681623e-002
2.796395e+003;4.711073e-002
2.798323e+003;4.778627e-002
2.800252e+003;4.793861e-002
2.802180e+003;4.771622e-002
2.804109e+003;4.793795e-002
2.806037e+003;4.860500e-002
2.807966e+003;4.895185e-002
2.809895e+003;4.880282e-002
2.811823e+003;4.894198e-002
2.813751e+003;4.915528e-002
2.815680e+003;4.934637e-002
2.817609e+003;4.928153e-002
2.819537e+003;4.942541e-002
2.821466e+003;4.971990e-002
2.823394e+003;4.991689e-002
2.825323e+003;5.013357e-002
2.827251e+003;5.036829e-002
2.829180e+003;5.045135e-002
2.831108e+003;5.090458e-002
2.833037e+003;5.150013e-002
2.834966e+003;5.212029e-002
2.836894e+003;5.322235e-002
2.838823e+003;5.462167e-002
2.840751e+003;5.598673e-002
2.842680e+003;5.771734e-002
2.844608e+003;5.980792e-002
2.846537e+003;6.212984e-002
2.848465e+003;6.439966e-002
2.850394e+003;6.601555e-002
2.852323e+003;6.662270e-002
2.854251e+003;6.618295e-002
2.856180e+003;6.517757e-002
2.858108e+003;6.453515e-002
2.860037e+003;6.441107e-002
2.861965e+003;6.410377e-002
2.863894e+003;6.377704e-002
2.865822e+003;6.365345e-002
2.867751e+003;6.362452e-002
2.869679e+003;6.391963e-002
2.871608e+003;6.418405e-002
2.873536e+003;6.414279e-002
2.875465e+003;6.396389e-002
2.877394e+003;6.366649e-002
2.879322e+003;6.327388e-002
2.881251e+003;6.331701e-002
2.883179e+003;6.371533e-002
2.885108e+003;6.373785e-002
2.887036e+003;6.366239e-002
2.888965e+003;6.405838e-002
2.890893e+003;6.460858e-002
2.892822e+003;6.540424e-002
2.894750e+003;6.606269e-002
2.896679e+003;6.641246e-002
2.898608e+003;6.701873e-002
2.900536e+003;6.762236e-002
2.902465e+003;6.835473e-002
2.904393e+003;6.970126e-002
2.906322e+003;7.094262e-002
2.908250e+003;7.195996e-002
2.910179e+003;7.336050e-002
2.912107e+003;7.498820e-002
2.914036e+003;7.673940e-002
2.915965e+003;7.879826e-002
2.917893e+003;8.066310e-002
2.919822e+003;8.127667e-002
2.921750e+003;8.139455e-002
2.923679e+003;8.130188e-002
2.925607e+003;8.069310e-002
2.927536e+003;7.991903e-002
2.929464e+003;7.894830e-002
2.931393e+003;7.834511e-002
2.933322e+003;7.796565e-002
2.935250e+003;7.733861e-002
2.937178e+003;7.658903e-002
2.939107e+003;7.556537e-002
2.941036e+003;7.477797e-002
2.942964e+003;7.395452e-002
2.944893e+003;7.281462e-002
2.946821e+003;7.201475e-002
2.948750e+003;7.169182e-002
2.950678e+003;7.125824e-002
2.952607e+003;7.056903e-002
2.954535e+003;6.955381e-002
2.956464e+003;6.843691e-002
2.958393e+003;6.743456e-002
2.960321e+003;6.694110e-002
2.962250e+003;6.659476e-002
2.964178e+003;6.567585e-002
2.966107e+003;6.443709e-002
2.968035e+003;6.360205e-002
2.969964e+003;6.322141e-002
2.971892e+003;6.247626e-002
2.973821e+003;6.160285e-002
2.975750e+003;6.124834e-002
2.977678e+003;6.086550e-002
2.979607e+003;6.042397e-002
2.981535e+003;6.004116e-002
2.983464e+003;5.965581e-002
2.985392e+003;5.956854e-002
2.987321e+003;5.922294e-002
2.989249e+003;5.854391e-002
2.991178e+003;5.822478e-002
2.993106e+003;5.822058e-002
2.995035e+003;5.807507e-002
2.996964e+003;5.764159e-002
2.998892e+003;5.721088e-002
3.000821e+003;5.705162e-002
3.002749e+003;5.711934e-002
3.004678e+003;5.681065e-002
3.006606e+003;5.640664e-002
3.008535e+003;5.598748e-002
3.010463e+003;5.559606e-002
3.012392e+003;5.525422e-002
3.014321e+003;5.517129e-002
3.016249e+003;5.504565e-002
3.018177e+003;5.474855e-002
3.020106e+003;5.476603e-002
3.022035e+003;5.458343e-002
3.023963e+003;5.419954e-002
3.025892e+003;5.402742e-002
3.027820e+003;5.369929e-002
3.029749e+003;5.374613e-002
3.031677e+003;5.411633e-002
3.033606e+003;5.419473e-002
3.035534e+003;5.400622e-002
3.037463e+003;5.357734e-002
3.039392e+003;5.315360e-002
3.041320e+003;5.308335e-002
3.043249e+003;5.296576e-002
3.045177e+003;5.286684e-002
3.047106e+003;5.281898e-002
3.049034e+003;5.264692e-002
3.050963e+003;5.231180e-002
3.052891e+003;5.226343e-002
3.054820e+003;5.216770e-002
3.056749e+003;5.224397e-002
3.058677e+003;5.221336e-002
3.060606e+003;5.210565e-002
3.062534e+003;5.198298e-002
3.064463e+003;5.173544e-002
3.066391e+003;5.170304e-002
3.068320e+003;5.148666e-002
3.070248e+003;5.129578e-002
3.072177e+003;5.125103e-002
3.074105e+003;5.105183e-002
3.076034e+003;5.070252e-002
3.077963e+003;5.049657e-002
3.079891e+003;5.055181e-002
3.081820e+003;5.044663e-002
3.083748e+003;5.042597e-002
3.085677e+003;5.049489e-002
3.087605e+003;5.042858e-002
3.089534e+003;5.042757e-002
3.091462e+003;5.025791e-002
3.093391e+003;4.997488e-002
3.095320e+003;4.985192e-002
3.097248e+003;4.982747e-002
3.099177e+003;4.973740e-002
3.101105e+003;4.952192e-002
3.103034e+003;4.947038e-002
3.104962e+003;4.945675e-002
3.106891e+003;4.917198e-002
3.108819e+003;4.923424e-002
3.110748e+003;4.925711e-002
3.112677e+003;4.925466e-002
3.114605e+003;4.924875e-002
3.116533e+003;4.922000e-002
3.118462e+003;4.894146e-002
3.120391e+003;4.886644e-002
3.122319e+003;4.920522e-002
3.124248e+003;4.924204e-002
3.126176e+003;4.931723e-002
3.128105e+003;4.936545e-002
3.130033e+003;4.912968e-002
3.131962e+003;4.944717e-002
3.133890e+003;4.968197e-002
3.135819e+003;4.935116e-002
3.137748e+003;4.909484e-002
3.139676e+003;4.901601e-002
3.141605e+003;4.938513e-002
3.143533e+003;4.975304e-002
3.145462e+003;4.951702e-002
3.147390e+003;4.938699e-002
3.149319e+003;4.939649e-002
3.151247e+003;4.910716e-002
3.153176e+003;4.904635e-002
3.155104e+003;4.942043e-002
3.157033e+003;4.998592e-002
3.158962e+003;5.024738e-002
3.160890e+003;4.975557e-002
3.162819e+003;4.943867e-002
3.164747e+003;4.976612e-002
3.166676e+003;5.020208e-002
3.168604e+003;5.023700e-002
3.170533e+003;5.027971e-002
3.172461e+003;5.031848e-002
3.174390e+003;5.021733e-002
3.176319e+003;4.992002e-002
3.178247e+003;5.004273e-002
3.180176e+003;5.062984e-002
3.182104e+003;5.087302e-002
3.184033e+003;5.093263e-002
3.185961e+003;5.114739e-002
3.187890e+003;5.140523e-002
3.189818e+003;5.132867e-002
3.191747e+003;5.117811e-002
3.193676e+003;5.123742e-002
3.195604e+003;5.150598e-002
3.197532e+003;5.162243e-002
3.199461e+003;5.122281e-002
3.201390e+003;5.112436e-002
3.203318e+003;5.182152e-002
3.205247e+003;5.201413e-002
3.207175e+003;5.188768e-002
3.209104e+003;5.189145e-002
3.211032e+003;5.205716e-002
3.212961e+003;5.258229e-002
3.214889e+003;5.296322e-002
3.216818e+003;5.313731e-002
3.218747e+003;5.329353e-002
3.220675e+003;5.332555e-002
3.222604e+003;5.323150e-002
3.224532e+003;5.344556e-002
3.226461e+003;5.383790e-002
3.228389e+003;5.361490e-002
3.230318e+003;5.361700e-002
3.232246e+003;5.386164e-002
3.234175e+003;5.395246e-002
3.236104e+003;5.388865e-002
3.238032e+003;5.418017e-002
3.239961e+003;5.440876e-002
3.241889e+003;5.421726e-002
3.243818e+003;5.425731e-002
3.245746e+003;5.450795e-002
3.247675e+003;5.448748e-002
3.249603e+003;5.500067e-002
3.251532e+003;5.526095e-002
3.253460e+003;5.491914e-002
3.255389e+003;5.472739e-002
3.257318e+003;5.499811e-002
3.259246e+003;5.540747e-002
3.261175e+003;5.529633e-002
3.263103e+003;5.534853e-002
3.265032e+003;5.563930e-002
3.266960e+003;5.563825e-002
3.268889e+003;5.555739e-002
3.270817e+003;5.561670e-002
3.272746e+003;5.591353e-002
3.274675e+003;5.608459e-002
3.276603e+003;5.615683e-002
3.278531e+003;5.616453e-002
3.280460e+003;5.636069e-002
3.282389e+003;5.643521e-002
3.284317e+003;5.627600e-002
3.286246e+003;5.623109e-002
3.288174e+003;5.594026e-002
3.290103e+003;5.587830e-002
3.292031e+003;5.621374e-002
3.293960e+003;5.656170e-002
3.295888e+003;5.635183e-002
3.297817e+003;5.617486e-002
3.299746e+003;5.608915e-002
3.301674e+003;5.596430e-002
3.303603e+003;5.584612e-002
3.305531e+003;5.584706e-002
3.307460e+003;5.600693e-002
3.309388e+003;5.593283e-002
3.311317e+003;5.578327e-002
3.313245e+003;5.569346e-002
3.315174e+003;5.578851e-002
3.317103e+003;5.602163e-002
3.319031e+003;5.592096e-002
3.320960e+003;5.540664e-002
3.322888e+003;5.530657e-002
3.324817e+003;5.586398e-002
3.326745e+003;5.552881e-002
3.328674e+003;5.535056e-002
3.330602e+003;5.562363e-002
3.332531e+003;5.560846e-002
3.334459e+003;5.583915e-002
3.336388e+003;5.569294e-002
3.338317e+003;5.558661e-002
3.340245e+003;5.560236e-002
3.342174e+003;5.505250e-002
3.344102e+003;5.474449e-002
3.346031e+003;5.483286e-002
3.347959e+003;5.485553e-002
3.349888e+003;5.481214e-002
3.351816e+003;5.437289e-002
3.353745e+003;5.433688e-002
3.355674e+003;5.454751e-002
3.357602e+003;5.427372e-002
3.359531e+003;5.387946e-002
3.361459e+003;5.385556e-002
3.363388e+003;5.393974e-002
3.365316e+003;5.378618e-002
3.367245e+003;5.330915e-002
3.369173e+003;5.294274e-002
3.371102e+003;5.276266e-002
3.373031e+003;5.242494e-002
3.374959e+003;5.213415e-002
3.376887e+003;5.224860e-002
3.378816e+003;5.189657e-002
3.380745e+003;5.123925e-002
3.382673e+003;5.116846e-002
3.384602e+003;5.127497e-002
3.386530e+003;5.145883e-002
3.388459e+003;5.137181e-002
3.390387e+003;5.057463e-002
3.392316e+003;5.007225e-002
3.394244e+003;5.033533e-002
3.396173e+003;5.068342e-002
3.398102e+003;5.088286e-002
3.400030e+003;5.087503e-002
3.401959e+003;5.099452e-002
3.403887e+003;5.094060e-002
3.405816e+003;5.053442e-002
3.407744e+003;5.017898e-002
3.409673e+003;4.997146e-002
3.411601e+003;5.018441e-002
3.413530e+003;5.023273e-002
3.415458e+003;4.988166e-002
3.417387e+003;4.989095e-002
3.419316e+003;5.001269e-002
3.421244e+003;4.977203e-002
3.423173e+003;4.956919e-002
3.425101e+003;4.976820e-002
3.427030e+003;4.997168e-002
3.428958e+003;4.964248e-002
3.430887e+003;4.881698e-002
3.432815e+003;4.855430e-002
3.434744e+003;4.908319e-002
3.436673e+003;4.941190e-002
3.438601e+003;4.898801e-002
3.440530e+003;4.856082e-002
3.442458e+003;4.868130e-002
3.444387e+003;4.842811e-002
3.446315e+003;4.807080e-002
3.448244e+003;4.758373e-002
3.450172e+003;4.720790e-002
3.452101e+003;4.749564e-002
3.454030e+003;4.795116e-002
3.455958e+003;4.806532e-002
3.457886e+003;4.787812e-002
3.459815e+003;4.759305e-002
3.461744e+003;4.728338e-002
3.463672e+003;4.680014e-002
3.465601e+003;4.677955e-002
3.467529e+003;4.689131e-002
3.469458e+003;4.687031e-002
3.471386e+003;4.701616e-002
3.473315e+003;4.658818e-002
3.475243e+003;4.622301e-002
3.477172e+003;4.604666e-002
3.479101e+003;4.572988e-002
3.481029e+003;4.553286e-002
3.482958e+003;4.541745e-002
3.484886e+003;4.521285e-002
3.486815e+003;4.516763e-002
3.488743e+003;4.524120e-002
3.490672e+003;4.527658e-002
3.492600e+003;4.502526e-002
3.494529e+003;4.465553e-002
3.496458e+003;4.425903e-002
3.498386e+003;4.458958e-002
3.500315e+003;4.447250e-002
3.502243e+003;4.437326e-002
3.504172e+003;4.461638e-002
3.506100e+003;4.484917e-002
3.508029e+003;4.477658e-002
3.509957e+003;4.450855e-002
3.511886e+003;4.465622e-002
3.513814e+003;4.466320e-002
3.515743e+003;4.483793e-002
3.517672e+003;4.475876e-002
3.519600e+003;4.446087e-002
3.521529e+003;4.420800e-002
3.523457e+003;4.410119e-002
3.525386e+003;4.435814e-002
3.527314e+003;4.453770e-002
3.529243e+003;4.429238e-002
3.531171e+003;4.401402e-002
3.533100e+003;4.389622e-002
3.535029e+003;4.371784e-002
3.536957e+003;4.360536e-002
3.538885e+003;4.384831e-002
3.540814e+003;4.430482e-002
3.542743e+003;4.408223e-002
3.544671e+003;4.346178e-002
3.546600e+003;4.321305e-002
3.548528e+003;4.271878e-002
3.550457e+003;4.234432e-002
3.552385e+003;4.251385e-002
3.554314e+003;4.250387e-002
3.556242e+003;4.251078e-002
3.558171e+003;4.240000e-002
3.560100e+003;4.221058e-002
3.562028e+003;4.228899e-002
3.563957e+003;4.189783e-002
3.565885e+003;4.134324e-002
3.567814e+003;4.162916e-002
3.569742e+003;4.223866e-002
3.571671e+003;4.197004e-002
3.573599e+003;4.190374e-002
3.575528e+003;4.193096e-002
3.577457e+003;4.114580e-002
3.579385e+003;4.070122e-002
3.581314e+003;4.098799e-002
3.583242e+003;4.079839e-002
3.585171e+003;4.037737e-002
3.587099e+003;4.080884e-002
3.589028e+003;4.151288e-002
3.590956e+003;4.139051e-002
3.592885e+003;4.063740e-002
3.594813e+003;4.037020e-002
3.596742e+003;4.108632e-002
3.598671e+003;4.149261e-002
3.600599e+003;4.134886e-002
3.602528e+003;4.112147e-002
3.604456e+003;4.102372e-002
3.606385e+003;4.110606e-002
3.608313e+003;4.096101e-002
3.610242e+003;4.093119e-002
3.612170e+003;4.118427e-002
3.614099e+003;4.128639e-002
3.616028e+003;4.105245e-002
3.617956e+003;4.097758e-002
3.619885e+003;4.096167e-002
3.621813e+003;4.089504e-002
3.623742e+003;4.095107e-002
3.625670e+003;4.062634e-002
3.627599e+003;4.017916e-002
3.629527e+003;3.987894e-002
3.631456e+003;3.955443e-002
3.633385e+003;3.960162e-002
3.635313e+003;3.958314e-002
3.637241e+003;3.954249e-002
3.639170e+003;3.928772e-002
3.641099e+003;3.935439e-002
3.643027e+003;3.965563e-002
3.644956e+003;3.914846e-002
3.646884e+003;3.819657e-002
3.648813e+003;3.815127e-002
3.650741e+003;3.839636e-002
3.652670e+003;3.800540e-002
3.654598e+003;3.749675e-002
3.656527e+003;3.711092e-002
3.658456e+003;3.687821e-002
3.660384e+003;3.663873e-002
3.662313e+003;3.643405e-002
3.664241e+003;3.631840e-002
3.666170e+003;3.584976e-002
3.668098e+003;3.563045e-002
3.670027e+003;3.546043e-002
3.671955e+003;3.514488e-002
3.673884e+003;3.555000e-002
3.675813e+003;3.618567e-002
3.677741e+003;3.568196e-002
3.679669e+003;3.478303e-002
3.681598e+003;3.441377e-002
3.683527e+003;3.431461e-002
3.685455e+003;3.393787e-002
3.687384e+003;3.344917e-002
3.689312e+003;3.331764e-002
3.691241e+003;3.367920e-002
3.693169e+003;3.380436e-002
3.695098e+003;3.380250e-002
3.697026e+003;3.392830e-002
3.698955e+003;3.387725e-002
3.700884e+003;3.345526e-002
3.702812e+003;3.317456e-002
3.704741e+003;3.320467e-002
3.706669e+003;3.354055e-002
3.708598e+003;3.338405e-002
3.710526e+003;3.315353e-002
3.712455e+003;3.338623e-002
3.714383e+003;3.320854e-002
3.716312e+003;3.280978e-002
3.718240e+003;3.305015e-002
3.720169e+003;3.311380e-002
3.722098e+003;3.280238e-002
3.724026e+003;3.271773e-002
3.725955e+003;3.282807e-002
3.727883e+003;3.344581e-002
3.729812e+003;3.366416e-002
3.731740e+003;3.325511e-002
3.733669e+003;3.280542e-002
3.735597e+003;3.278909e-002
3.737526e+003;3.298416e-002
3.739455e+003;3.267447e-002
3.741383e+003;3.297922e-002
3.743312e+003;3.353819e-002
3.745240e+003;3.331245e-002
3.747169e+003;3.301236e-002
3.749097e+003;3.287800e-002
3.751026e+003;3.318915e-002
3.752954e+003;3.364676e-002
3.754883e+003;3.387621e-002
3.756812e+003;3.375583e-002
3.758740e+003;3.370373e-002
3.760668e+003;3.322192e-002
3.762597e+003;3.299738e-002
3.764526e+003;3.288532e-002
3.766454e+003;3.278216e-002
3.768383e+003;3.317524e-002
3.770311e+003;3.368207e-002
3.772240e+003;3.362618e-002
3.774168e+003;3.376529e-002
3.776097e+003;3.393719e-002
3.778025e+003;3.343586e-002
3.779954e+003;3.297551e-002
3.781883e+003;3.325067e-002
3.783811e+003;3.356331e-002
3.785740e+003;3.324381e-002
3.787668e+003;3.324685e-002
3.789597e+003;3.395439e-002
3.791525e+003;3.393590e-002
3.793454e+003;3.362560e-002
3.795382e+003;3.360273e-002
3.797311e+003;3.315739e-002
3.799240e+003;3.280481e-002
3.801168e+003;3.277404e-002
3.803097e+003;3.335861e-002
3.805025e+003;3.381650e-002
3.806954e+003;3.352433e-002
3.808882e+003;3.349627e-002
3.810811e+003;3.369603e-002
3.812739e+003;3.363824e-002
3.814668e+003;3.329557e-002
3.816596e+003;3.317359e-002
3.818525e+003;3.348346e-002
3.820454e+003;3.359453e-002
3.822382e+003;3.387048e-002
3.824311e+003;3.405869e-002
3.826239e+003;3.376278e-002
3.828168e+003;3.377320e-002
3.830096e+003;3.365582e-002
3.832025e+003;3.342598e-002
3.833953e+003;3.351016e-002
3.835882e+003;3.344148e-002
3.837811e+003;3.345218e-002
3.839739e+003;3.381880e-002
3.841667e+003;3.426993e-002
3.843596e+003;3.423573e-002
3.845525e+003;3.421831e-002
3.847453e+003;3.433806e-002
3.849382e+003;3.433304e-002
3.851310e+003;3.430263e-002
3.853239e+003;3.422745e-002
3.855167e+003;3.419913e-002
3.857096e+003;3.431952e-002
3.859024e+003;3.426212e-002
3.860953e+003;3.403515e-002
3.862882e+003;3.399907e-002
3.864810e+003;3.397319e-002
3.866739e+003;3.412808e-002
3.868667e+003;3.421142e-002
3.870596e+003;3.402411e-002
3.872524e+003;3.408980e-002
3.874453e+003;3.405253e-002
3.876381e+003;3.398094e-002
3.878310e+003;3.389828e-002
3.880239e+003;3.430841e-002
3.882167e+003;3.457997e-002
3.884096e+003;3.443687e-002
3.886024e+003;3.492664e-002
3.887953e+003;3.506451e-002
3.889881e+003;3.499354e-002
3.891810e+003;3.462500e-002
3.893738e+003;3.412482e-002
3.895667e+003;3.405289e-002
3.897595e+003;3.417185e-002
3.899524e+003;3.448644e-002
3.901453e+003;3.434842e-002
3.903381e+003;3.429869e-002
3.905310e+003;3.437367e-002
3.907238e+003;3.439021e-002
3.909167e+003;3.462511e-002
3.911095e+003;3.490991e-002
3.913024e+003;3.516863e-002
3.914952e+003;3.490039e-002
3.916881e+003;3.439670e-002
3.918810e+003;3.467270e-002
3.920738e+003;3.520549e-002
3.922667e+003;3.542290e-002
3.924595e+003;3.530101e-002
3.926524e+003;3.502192e-002
3.928452e+003;3.497325e-002
3.930381e+003;3.522212e-002
3.932309e+003;3.550983e-002
3.934238e+003;3.582493e-002
3.936167e+003;3.575725e-002
3.938095e+003;3.522633e-002
3.940023e+003;3.496198e-002
3.941952e+003;3.526554e-002
3.943881e+003;3.527851e-002
3.945809e+003;3.506800e-002
3.947738e+003;3.511912e-002
3.949666e+003;3.566854e-002
3.951595e+003;3.608257e-002
3.953523e+003;3.588261e-002
3.955452e+003;3.567001e-002
3.957380e+003;3.532753e-002
3.959309e+003;3.539813e-002
3.961238e+003;3.607436e-002
3.963166e+003;3.637301e-002
3.965095e+003;3.638742e-002
3.967023e+003;3.640011e-002
3.968952e+003;3.645538e-002
3.970880e+003;3.650482e-002
3.972809e+003;3.632459e-002
3.974737e+003;3.599203e-002
3.976666e+003;3.564419e-002
3.978594e+003;3.584263e-002
3.980523e+003;3.624268e-002
3.982452e+003;3.606306e-002
3.984380e+003;3.588805e-002
3.986309e+003;3.603073e-002
3.988237e+003;3.624639e-002
3.990166e+003;3.645682e-002
3.992094e+003;3.677697e-002
3.994023e+003;3.679356e-002
3.995951e+003;3.650223e-002
3.997880e+003;3.658455e-002
3.999809e+003;3.671837e-002
4.001737e+003;0.000000e+000
