3.992094e+002;0.000000e+000
4.011380e+002;0.000000e+000
4.030665e+002;0.000000e+000
4.049951e+002;0.000000e+000
4.069236e+002;0.000000e+000
4.088522e+002;0.000000e+000
4.107807e+002;0.000000e+000
4.127093e+002;0.000000e+000
4.146378e+002;0.000000e+000
4.165664e+002;0.000000e+000
4.184949e+002;0.000000e+000
4.204235e+002;0.000000e+000
4.223520e+002;0.000000e+000
4.242806e+002;0.000000e+000
4.262091e+002;0.000000e+000
4.281377e+002;0.000000e+000
4.300662e+002;0.000000e+000
4.319948e+002;0.000000e+000
4.339233e+002;0.000000e+000
4.358519e+002;0.000000e+000
4.377804e+002;0.000000e+000
4.397090e+002;0.000000e+000
4.416375e+002;0.000000e+000
4.435660e+002;0.000000e+000
4.454946e+002;0.000000e+000
4.474232e+002;0.000000e+000
4.493517e+002;0.000000e+000
4.512802e+002;0.000000e+000
4.532088e+002;0.000000e+000
4.551373e+002;0.000000e+000
4.570659e+002;0.000000e+000
4.589944e+002;0.000000e+000
4.609230e+002;0.000000e+000
4.628515e+002;0.000000e+000
4.647801e+002;0.000000e+000
4.667086e+002;0.000000e+000
4.686372e+002;0.000000e+000
4.705657e+002;0.000000e+000
4.724943e+002;0.000000e+000
4.744228e+002;0.000000e+000
4.763513e+002;0.000000e+000
4.782799e+002;0.000000e+000
4.802085e+002;0.000000e+000
4.821370e+002;0.000000e+000
4.840656e+002;0.000000e+000
4.859941e+002;0.000000e+000
4.879226e+002;0.000000e+000
4.898512e+002;0.000000e+000
4.917798e+002;0.000000e+000
4.937083e+002;0.000000e+000
4.956368e+002;0.000000e+000
4.975654e+002;0.000000e+000
4.994939e+002;0.000000e+000
5.014225e+002;0.000000e+000
5.033510e+002;0.000000e+000
5.052796e+002;0.000000e+000
5.072081e+002;0.000000e+000
5.091367e+002;0.000000e+000
5.110652e+002;0.000000e+000
5.129938e+002;0.000000e+000
5.149223e+002;0.000000e+000
5.168509e+002;0.000000e+000
5.187794e+002;0.000000e+000
5.207079e+002;0.000000e+000
5.226365e+002;0.000000e+000
5.245651e+002;0.000000e+000
5.264936e+002;0.000000e+000
5.284222e+002;0.000000e+000
5.303507e+002;0.000000e+000
5.322792e+002;0.000000e+000
5.342078e+002;0.000000e+000
5.361364e+002;0.000000e+000
5.380649e+002;0.000000e+000
5.399935e+002;0.000000e+000
5.419220e+002;0.000000e+000
5.438505e+002;0.000000e+000
5.457791e+002;0.000000e+000
5.477076e+002;0.000000e+000
5.496362e+002;0.000000e+000
5.515648e+002;0.000000e+000
5.534933e+002;0.000000e+000
5.554218e+002;0.000000e+000
5.573504e+002;0.000000e+000
5.592789e+002;0.000000e+000
5.612075e+002;0.000000e+000
5.631360e+002;0.000000e+000
5.650646e+002;0.000000e+000
5.669931e+002;0.000000e+000
5.689217e+002;0.000000e+000
5.708502e+002;0.000000e+000
5.727787e+002;0.000000e+000
5.747073e+002;0.000000e+000
5.766359e+002;0.000000e+000
5.785644e+002;0.000000e+000
5.804930e+002;0.000000e+000
5.824215e+002;0.000000e+000
5.843500e+002;0.000000e+000
5.862786e+002;0.000000e+000
5.882072e+002;0.000000e+000
5.901357e+002;0.000000e+000
5.920643e+002;0.000000e+000
5.939928e+002;0.000000e+000
5.959213e+002;0.000000e+000
5.978499e+002;0.000000e+000
5.997784e+002;-2.663678e-002
6.017070e+002;-1.854582e-002
6.036355e+002;-1.688172e-002
6.055641e+002;-2.312537e-002
6.074926e+002;-2.554933e-002
6.094211e+002;-2.251626e-002
6.113497e+002;-2.253407e-002
6.132783e+002;-2.458830e-002
6.152068e+002;-2.599011e-002
6.171354e+002;-2.712187e-002
6.190639e+002;-2.777880e-002
6.209924e+002;-3.034580e-002
6.229210e+002;-3.207123e-002
6.248495e+002;-2.810751e-002
6.267781e+002;-2.513785e-002
6.287067e+002;-2.641488e-002
6.306352e+002;-2.688184e-002
6.325637e+002;-2.312223e-002
6.344923e+002;-2.296949e-002
6.364208e+002;-2.630633e-002
6.383494e+002;-2.606569e-002
6.402780e+002;-2.622343e-002
6.422065e+002;-2.906210e-002
6.441350e+002;-2.911469e-002
6.460636e+002;-2.661210e-002
6.479921e+002;-2.369388e-002
6.499207e+002;-2.202514e-002
6.518492e+002;-2.186446e-002
6.537778e+002;-2.084419e-002
6.557063e+002;-2.530502e-002
6.576349e+002;-2.922622e-002
6.595634e+002;-2.718938e-002
6.614919e+002;-2.493623e-002
6.634205e+002;-2.764373e-002
6.653491e+002;-3.134586e-002
6.672776e+002;-3.229315e-002
6.692062e+002;-3.027148e-002
6.711347e+002;-2.784416e-002
6.730632e+002;-2.658545e-002
6.749918e+002;-2.614953e-002
6.769203e+002;-2.690296e-002
6.788489e+002;-2.865509e-002
6.807775e+002;-2.941066e-002
6.827060e+002;-2.908249e-002
6.846345e+002;-2.903731e-002
6.865631e+002;-2.911522e-002
6.884916e+002;-2.943267e-002
6.904202e+002;-3.002994e-002
6.923488e+002;-3.146406e-002
6.942773e+002;-3.329927e-002
6.962058e+002;-3.343020e-002
6.981344e+002;-3.349750e-002
7.000629e+002;-3.322386e-002
7.019915e+002;-3.167940e-002
7.039200e+002;-3.109751e-002
7.058486e+002;-3.158526e-002
7.077771e+002;-3.184752e-002
7.097057e+002;-3.216779e-002
7.116342e+002;-3.220782e-002
7.135627e+002;-3.234765e-002
7.154913e+002;-3.222230e-002
7.174199e+002;-3.227473e-002
7.193484e+002;-3.230822e-002
7.212770e+002;-3.170475e-002
7.232055e+002;-3.100972e-002
7.251340e+002;-3.019162e-002
7.270626e+002;-2.915041e-002
7.289911e+002;-2.889352e-002
7.309197e+002;-2.854005e-002
7.328483e+002;-2.821359e-002
7.347768e+002;-2.791696e-002
7.367053e+002;-2.757713e-002
7.386339e+002;-2.711677e-002
7.405624e+002;-2.684907e-002
7.424910e+002;-2.612547e-002
7.444196e+002;-2.609552e-002
7.463481e+002;-2.672222e-002
7.482766e+002;-2.619008e-002
7.502052e+002;-2.493332e-002
7.521337e+002;-2.326898e-002
7.540623e+002;-2.317670e-002
7.559908e+002;-2.487128e-002
7.579194e+002;-2.493604e-002
7.598479e+002;-2.332177e-002
7.617765e+002;-2.176397e-002
7.637050e+002;-2.205699e-002
7.656335e+002;-2.307328e-002
7.675621e+002;-2.282990e-002
7.694907e+002;-2.256115e-002
7.714192e+002;-2.276262e-002
7.733478e+002;-2.285633e-002
7.752763e+002;-2.347043e-002
7.772048e+002;-2.365064e-002
7.791334e+002;-2.287359e-002
7.810620e+002;-2.257027e-002
7.829905e+002;-2.319128e-002
7.849191e+002;-2.339383e-002
7.868476e+002;-2.289695e-002
7.887761e+002;-2.283172e-002
7.907047e+002;-2.268784e-002
7.926332e+002;-2.221511e-002
7.945618e+002;-2.188093e-002
7.964903e+002;-2.128004e-002
7.984189e+002;-2.123051e-002
8.003474e+002;-2.162601e-002
8.022759e+002;-2.234703e-002
8.042045e+002;-2.284024e-002
8.061331e+002;-2.329322e-002
8.080616e+002;-2.307136e-002
8.099902e+002;-2.270426e-002
8.119187e+002;-2.225409e-002
8.138472e+002;-2.250663e-002
8.157758e+002;-2.329184e-002
8.177043e+002;-2.402065e-002
8.196329e+002;-2.426891e-002
8.215615e+002;-2.433852e-002
8.234900e+002;-2.464183e-002
8.254185e+002;-2.530293e-002
8.273471e+002;-2.591726e-002
8.292756e+002;-2.724092e-002
8.312042e+002;-2.852200e-002
8.331328e+002;-2.832669e-002
8.350613e+002;-2.859624e-002
8.369898e+002;-2.927743e-002
8.389184e+002;-2.962618e-002
8.408469e+002;-2.950468e-002
8.427755e+002;-2.932370e-002
8.447040e+002;-2.959578e-002
8.466326e+002;-3.001299e-002
8.485611e+002;-3.027442e-002
8.504897e+002;-3.065951e-002
8.524182e+002;-3.067078e-002
8.543467e+002;-3.065254e-002
8.562753e+002;-3.083414e-002
8.582039e+002;-3.088327e-002
8.601324e+002;-3.043567e-002
8.620610e+002;-3.002558e-002
8.639895e+002;-3.034651e-002
8.659180e+002;-3.051196e-002
8.678466e+002;-3.006033e-002
8.697751e+002;-3.007913e-002
8.717037e+002;-2.993457e-002
8.736323e+002;-2.962098e-002
8.755608e+002;-2.963141e-002
8.774893e+002;-2.968015e-002
8.794179e+002;-2.991450e-002
8.813464e+002;-2.988066e-002
8.832750e+002;-2.968686e-002
8.852036e+002;-2.950682e-002
8.871321e+002;-2.913938e-002
8.890606e+002;-2.894544e-002
8.909892e+002;-2.886810e-002
8.929177e+002;-2.850536e-002
8.948463e+002;-2.855845e-002
8.967748e+002;-2.879871e-002
8.987034e+002;-2.889172e-002
9.006319e+002;-2.835851e-002
9.025605e+002;-2.739285e-002
9.044890e+002;-2.740343e-002
9.064175e+002;-2.768508e-002
9.083461e+002;-2.723510e-002
9.102747e+002;-2.669773e-002
9.122032e+002;-2.624726e-002
9.141318e+002;-2.556564e-002
9.160603e+002;-2.463219e-002
9.179888e+002;-2.407573e-002
9.199174e+002;-2.413798e-002
9.218459e+002;-2.318857e-002
9.237745e+002;-2.189949e-002
9.257031e+002;-2.119968e-002
9.276316e+002;-2.030169e-002
9.295601e+002;-1.919733e-002
9.314887e+002;-1.833686e-002
9.334172e+002;-1.716254e-002
9.353458e+002;-1.625386e-002
9.372744e+002;-1.584277e-002
9.392029e+002;-1.562787e-002
9.411314e+002;-1.535163e-002
9.430600e+002;-1.484894e-002
9.449885e+002;-1.543266e-002
9.469171e+002;-1.595179e-002
9.488456e+002;-1.575069e-002
9.507742e+002;-1.586967e-002
9.527027e+002;-1.662965e-002
9.546313e+002;-1.753083e-002
9.565598e+002;-1.802610e-002
9.584883e+002;-1.801354e-002
9.604169e+002;-1.769052e-002
9.623455e+002;-1.744242e-002
9.642740e+002;-1.778470e-002
9.662026e+002;-1.825179e-002
9.681311e+002;-1.869254e-002
9.700596e+002;-1.910418e-002
9.719882e+002;-1.906518e-002
9.739167e+002;-1.895703e-002
9.758453e+002;-1.893441e-002
9.777739e+002;-1.868514e-002
9.797024e+002;-1.877914e-002
9.816309e+002;-1.867934e-002
9.835595e+002;-1.841191e-002
9.854880e+002;-1.833413e-002
9.874166e+002;-1.827260e-002
9.893452e+002;-1.819886e-002
9.912737e+002;-1.764783e-002
9.932022e+002;-1.666224e-002
9.951307e+002;-1.635053e-002
9.970593e+002;-1.594799e-002
9.989879e+002;-1.498891e-002
1.000916e+003;-1.358952e-002
1.002845e+003;-1.187369e-002
1.004773e+003;-1.019191e-002
1.006702e+003;-8.488736e-003
1.008631e+003;-6.710741e-003
1.010559e+003;-4.518919e-003
1.012488e+003;-1.737449e-003
1.014416e+003;1.586769e-003
1.016345e+003;4.889678e-003
1.018273e+003;7.628930e-003
1.020202e+003;1.057738e-002
1.022130e+003;1.273850e-002
1.024059e+003;1.391851e-002
1.025988e+003;1.494094e-002
1.027916e+003;1.521648e-002
1.029845e+003;1.525193e-002
1.031773e+003;1.528385e-002
1.033702e+003;1.536355e-002
1.035630e+003;1.635515e-002
1.037559e+003;1.705567e-002
1.039487e+003;1.775176e-002
1.041416e+003;1.885354e-002
1.043344e+003;1.933023e-002
1.045273e+003;1.877347e-002
1.047202e+003;1.803443e-002
1.049130e+003;1.752777e-002
1.051059e+003;1.741287e-002
1.052987e+003;1.753084e-002
1.054916e+003;1.855300e-002
1.056844e+003;2.004260e-002
1.058773e+003;2.092968e-002
1.060701e+003;2.183980e-002
1.062630e+003;2.362023e-002
1.064558e+003;2.523194e-002
1.066487e+003;2.658665e-002
1.068416e+003;2.769532e-002
1.070344e+003;2.744299e-002
1.072273e+003;2.688339e-002
1.074201e+003;2.615458e-002
1.076130e+003;2.529080e-002
1.078058e+003;2.430926e-002
1.079987e+003;2.334994e-002
1.081915e+003;2.205989e-002
1.083844e+003;2.044832e-002
1.085773e+003;1.854518e-002
1.087701e+003;1.666137e-002
1.089630e+003;1.463176e-002
1.091558e+003;1.192055e-002
1.093487e+003;9.673837e-003
1.095415e+003;8.711650e-003
1.097344e+003;8.026888e-003
1.099272e+003;6.859924e-003
1.101201e+003;5.345139e-003
1.103129e+003;4.172637e-003
1.105058e+003;3.472209e-003
1.106987e+003;2.608042e-003
1.108915e+003;1.317916e-003
1.110844e+003;-3.279032e-004
1.112772e+003;-1.785200e-003
1.114701e+003;-3.500285e-003
1.116629e+003;-5.234814e-003
1.118558e+003;-6.587299e-003
1.120486e+003;-8.175947e-003
1.122415e+003;-1.023560e-002
1.124344e+003;-1.224565e-002
1.126272e+003;-1.407949e-002
1.128201e+003;-1.597440e-002
1.130129e+003;-1.825903e-002
1.132058e+003;-2.033224e-002
1.133986e+003;-2.152956e-002
1.135915e+003;-2.272831e-002
1.137843e+003;-2.442614e-002
1.139772e+003;-2.534653e-002
1.141700e+003;-2.523087e-002
1.143629e+003;-2.460361e-002
1.145557e+003;-2.331137e-002
1.147486e+003;-2.223111e-002
1.149415e+003;-2.215722e-002
1.151343e+003;-2.243644e-002
1.153272e+003;-2.183846e-002
1.155200e+003;-2.044491e-002
1.157129e+003;-1.929454e-002
1.159057e+003;-1.848356e-002
1.160986e+003;-1.732826e-002
1.162914e+003;-1.592170e-002
1.164843e+003;-1.449677e-002
1.166771e+003;-1.294105e-002
1.168700e+003;-1.132758e-002
1.170629e+003;-1.032132e-002
1.172557e+003;-9.432078e-003
1.174486e+003;-8.063491e-003
1.176414e+003;-6.785644e-003
1.178343e+003;-5.499608e-003
1.180271e+003;-4.297162e-003
1.182200e+003;-3.637816e-003
1.184128e+003;-2.983291e-003
1.186057e+003;-2.030076e-003
1.187986e+003;-1.208009e-003
1.189914e+003;-3.830593e-004
1.191843e+003;9.171903e-004
1.193771e+003;2.085386e-003
1.195700e+003;3.301168e-003
1.197628e+003;5.106369e-003
1.199557e+003;7.449873e-003
1.201485e+003;9.935303e-003
1.203414e+003;1.256026e-002
1.205343e+003;1.553587e-002
1.207271e+003;1.904432e-002
1.209200e+003;2.341840e-002
1.211128e+003;2.821216e-002
1.213057e+003;3.392769e-002
1.214985e+003;4.048287e-002
1.216914e+003;4.681369e-002
1.218842e+003;5.291074e-002
1.220771e+003;5.933719e-002
1.222699e+003;6.518728e-002
1.224628e+003;6.987329e-002
1.226557e+003;7.399753e-002
1.228485e+003;7.744137e-002
1.230414e+003;7.998212e-002
1.232342e+003;8.152469e-002
1.234271e+003;8.148096e-002
1.236199e+003;8.048097e-002
1.238128e+003;7.898661e-002
1.240056e+003;7.677910e-002
1.241985e+003;7.399950e-002
1.243913e+003;7.088609e-002
1.245842e+003;6.665302e-002
1.247771e+003;6.131615e-002
1.249699e+003;5.636545e-002
1.251628e+003;5.191348e-002
1.253556e+003;4.741004e-002
1.255485e+003;4.303693e-002
1.257413e+003;3.848882e-002
1.259342e+003;3.382850e-002
1.261270e+003;2.988480e-002
1.263199e+003;2.580963e-002
1.265127e+003;2.162850e-002
1.267056e+003;1.743970e-002
1.268985e+003;1.330195e-002
1.270913e+003;9.489398e-003
1.272842e+003;6.255278e-003
1.274770e+003;3.970188e-003
1.276699e+003;1.959621e-003
1.278627e+003;-1.817353e-004
1.280556e+003;-1.987365e-003
1.282484e+003;-3.326312e-003
1.284413e+003;-4.452578e-003
1.286342e+003;-5.347284e-003
1.288270e+003;-6.185242e-003
1.290199e+003;-6.839040e-003
1.292127e+003;-7.168242e-003
1.294056e+003;-7.653945e-003
1.295984e+003;-8.070028e-003
1.297913e+003;-8.302578e-003
1.299841e+003;-8.321659e-003
1.301770e+003;-8.104308e-003
1.303698e+003;-8.175328e-003
1.305627e+003;-8.126226e-003
1.307556e+003;-8.080566e-003
1.309484e+003;-8.422739e-003
1.311413e+003;-8.674555e-003
1.313341e+003;-8.351595e-003
1.315270e+003;-7.901944e-003
1.317198e+003;-8.040560e-003
1.319127e+003;-8.431350e-003
1.321055e+003;-8.894445e-003
1.322984e+003;-9.263515e-003
1.324912e+003;-9.197603e-003
1.326841e+003;-8.941578e-003
1.328770e+003;-8.916778e-003
1.330698e+003;-8.580258e-003
1.332627e+003;-7.837842e-003
1.334555e+003;-7.143016e-003
1.336484e+003;-6.596143e-003
1.338412e+003;-5.977931e-003
1.340341e+003;-4.882354e-003
1.342269e+003;-3.380826e-003
1.344198e+003;-1.777610e-003
1.346126e+003;-2.044552e-004
1.348055e+003;1.524519e-003
1.349984e+003;3.304473e-003
1.351912e+003;4.882808e-003
1.353841e+003;6.472753e-003
1.355769e+003;8.748703e-003
1.357698e+003;1.108871e-002
1.359626e+003;1.297177e-002
1.361555e+003;1.499860e-002
1.363483e+003;1.684292e-002
1.365412e+003;1.842217e-002
1.367341e+003;1.941102e-002
1.369269e+003;2.004253e-002
1.371198e+003;2.000992e-002
1.373126e+003;1.880533e-002
1.375055e+003;1.715448e-002
1.376983e+003;1.474452e-002
1.378912e+003;1.157213e-002
1.380840e+003;7.692903e-003
1.382769e+003;2.958453e-003
1.384698e+003;-2.041124e-003
1.386626e+003;-6.909420e-003
1.388555e+003;-1.014423e-002
1.390483e+003;-1.243386e-002
1.392412e+003;-1.558597e-002
1.394340e+003;-1.853861e-002
1.396269e+003;-1.980427e-002
1.398197e+003;-2.071134e-002
1.400126e+003;-2.097119e-002
1.402054e+003;-2.135412e-002
1.403983e+003;-2.256153e-002
1.405911e+003;-2.270199e-002
1.407840e+003;-2.216830e-002
1.409769e+003;-2.173718e-002
1.411697e+003;-2.105239e-002
1.413626e+003;-2.019056e-002
1.415554e+003;-1.923413e-002
1.417483e+003;-1.899258e-002
1.419411e+003;-1.800509e-002
1.421340e+003;-1.418520e-002
1.423268e+003;-1.048181e-002
1.425197e+003;-7.116712e-003
1.427125e+003;-3.455713e-003
1.429054e+003;3.302400e-004
1.430983e+003;5.141539e-003
1.432911e+003;1.053936e-002
1.434840e+003;1.485069e-002
1.436768e+003;2.011339e-002
1.438697e+003;2.834427e-002
1.440625e+003;3.564937e-002
1.442554e+003;4.187122e-002
1.444482e+003;4.787453e-002
1.446411e+003;5.238113e-002
1.448340e+003;5.534977e-002
1.450268e+003;5.742748e-002
1.452197e+003;5.682066e-002
1.454125e+003;5.251793e-002
1.456054e+003;4.388390e-002
1.457982e+003;3.591644e-002
1.459911e+003;2.875676e-002
1.461839e+003;1.945094e-002
1.463768e+003;8.717905e-003
1.465697e+003;-6.204554e-004
1.467625e+003;-6.901985e-003
1.469554e+003;-1.215068e-002
1.471482e+003;-1.759062e-002
1.473411e+003;-2.078541e-002
1.475339e+003;-2.161242e-002
1.477268e+003;-2.248486e-002
1.479196e+003;-2.307403e-002
1.481125e+003;-2.386229e-002
1.483053e+003;-2.442993e-002
1.484982e+003;-2.540957e-002
1.486911e+003;-2.688274e-002
1.488839e+003;-2.815425e-002
1.490768e+003;-2.844324e-002
1.492696e+003;-2.774253e-002
1.494625e+003;-2.868964e-002
1.496553e+003;-3.035500e-002
1.498482e+003;-2.990144e-002
1.500410e+003;-2.877294e-002
1.502339e+003;-2.889603e-002
1.504267e+003;-3.196861e-002
1.506196e+003;-3.500239e-002
1.508125e+003;-3.304501e-002
1.510053e+003;-3.015085e-002
1.511982e+003;-2.971462e-002
1.513910e+003;-2.988097e-002
1.515839e+003;-3.037336e-002
1.517767e+003;-3.080791e-002
1.519696e+003;-3.261877e-002
1.521624e+003;-3.376634e-002
1.523553e+003;-3.192532e-002
1.525481e+003;-3.128007e-002
1.527410e+003;-3.081923e-002
1.529339e+003;-3.022519e-002
1.531267e+003;-3.050634e-002
1.533196e+003;-3.132477e-002
1.535124e+003;-3.075296e-002
1.537053e+003;-3.214662e-002
1.538981e+003;-3.618826e-002
1.540910e+003;-3.629893e-002
1.542838e+003;-3.359096e-002
1.544767e+003;-3.197803e-002
1.546695e+003;-3.095881e-002
1.548624e+003;-3.077655e-002
1.550553e+003;-3.074824e-002
1.552481e+003;-3.121029e-002
1.554410e+003;-3.250405e-002
1.556338e+003;-3.472345e-002
1.558267e+003;-3.858831e-002
1.560195e+003;-3.739817e-002
1.562124e+003;-3.291577e-002
1.564052e+003;-3.150456e-002
1.565981e+003;-3.154489e-002
1.567910e+003;-3.231693e-002
1.569838e+003;-3.282918e-002
1.571767e+003;-3.172529e-002
1.573695e+003;-3.228248e-002
1.575624e+003;-3.442607e-002
1.577552e+003;-3.287609e-002
1.579481e+003;-3.069971e-002
1.581409e+003;-3.044259e-002
1.583338e+003;-3.016414e-002
1.585266e+003;-3.022407e-002
1.587195e+003;-3.039943e-002
1.589124e+003;-3.027154e-002
1.591052e+003;-3.000492e-002
1.592981e+003;-3.004546e-002
1.594909e+003;-2.993287e-002
1.596838e+003;-2.975302e-002
1.598766e+003;-2.940601e-002
1.600695e+003;-2.913526e-002
1.602623e+003;-2.881229e-002
1.604552e+003;-2.848088e-002
1.606480e+003;-2.817000e-002
1.608409e+003;-2.794226e-002
1.610338e+003;-2.753145e-002
1.612266e+003;-2.691118e-002
1.614195e+003;-2.765306e-002
1.616123e+003;-2.948221e-002
1.618052e+003;-2.774268e-002
1.619980e+003;-2.543144e-002
1.621909e+003;-2.593733e-002
1.623837e+003;-2.619386e-002
1.625766e+003;-2.558644e-002
1.627694e+003;-2.522540e-002
1.629623e+003;-2.464603e-002
1.631552e+003;-2.457217e-002
1.633480e+003;-2.650597e-002
1.635409e+003;-2.849807e-002
1.637337e+003;-2.659543e-002
1.639266e+003;-2.454894e-002
1.641194e+003;-2.417368e-002
1.643123e+003;-2.490466e-002
1.645051e+003;-2.715456e-002
1.646980e+003;-2.765937e-002
1.648909e+003;-2.633031e-002
1.650837e+003;-2.913557e-002
1.652766e+003;-3.340492e-002
1.654694e+003;-2.982696e-002
1.656623e+003;-2.573221e-002
1.658551e+003;-2.511899e-002
1.660480e+003;-2.550203e-002
1.662408e+003;-2.611068e-002
1.664337e+003;-2.564648e-002
1.666266e+003;-2.535610e-002
1.668194e+003;-2.645715e-002
1.670123e+003;-2.681266e-002
1.672051e+003;-2.590412e-002
1.673980e+003;-2.620892e-002
1.675908e+003;-2.591832e-002
1.677837e+003;-2.416982e-002
1.679765e+003;-2.404689e-002
1.681694e+003;-2.549688e-002
1.683622e+003;-2.834358e-002
1.685551e+003;-2.667146e-002
1.687479e+003;-2.279170e-002
1.689408e+003;-2.178332e-002
1.691337e+003;-2.145915e-002
1.693265e+003;-2.233095e-002
1.695194e+003;-2.473402e-002
1.697122e+003;-2.384724e-002
1.699051e+003;-2.400876e-002
1.700979e+003;-2.304780e-002
1.702908e+003;-1.867150e-002
1.704836e+003;-1.685419e-002
1.706765e+003;-1.510013e-002
1.708693e+003;-1.238978e-002
1.710622e+003;-9.138753e-003
1.712551e+003;-6.150387e-003
1.714479e+003;-3.399006e-003
1.716408e+003;-3.771666e-004
1.718336e+003;6.529022e-003
1.720265e+003;1.612886e-002
1.722193e+003;2.421967e-002
1.724122e+003;3.156184e-002
1.726050e+003;3.899478e-002
1.727979e+003;4.578061e-002
1.729908e+003;5.138300e-002
1.731836e+003;5.382957e-002
1.733765e+003;5.432512e-002
1.735693e+003;5.784860e-002
1.737622e+003;5.893234e-002
1.739550e+003;5.584774e-002
1.741479e+003;5.203086e-002
1.743407e+003;4.684166e-002
1.745336e+003;4.049854e-002
1.747265e+003;3.293218e-002
1.749193e+003;2.448321e-002
1.751122e+003;1.638932e-002
1.753050e+003;1.019967e-002
1.754979e+003;3.467232e-003
1.756907e+003;-3.426687e-003
1.758836e+003;-8.559857e-003
1.760764e+003;-1.379564e-002
1.762693e+003;-1.782350e-002
1.764621e+003;-2.009997e-002
1.766550e+003;-2.304997e-002
1.768479e+003;-2.580344e-002
1.770407e+003;-2.813261e-002
1.772336e+003;-2.989269e-002
1.774264e+003;-2.902101e-002
1.776193e+003;-2.839237e-002
1.778121e+003;-2.901679e-002
1.780050e+003;-2.961565e-002
1.781978e+003;-2.974974e-002
1.783907e+003;-2.996296e-002
1.785835e+003;-3.008961e-002
1.787764e+003;-3.006917e-002
1.789693e+003;-3.084420e-002
1.791621e+003;-3.199887e-002
1.793550e+003;-3.135652e-002
1.795478e+003;-3.035983e-002
1.797407e+003;-3.066649e-002
1.799335e+003;-3.112906e-002
1.801264e+003;-3.121988e-002
1.803192e+003;-3.100506e-002
1.805121e+003;-3.085244e-002
1.807049e+003;-3.074438e-002
1.808978e+003;-3.087087e-002
1.810907e+003;-3.089907e-002
1.812835e+003;-3.073904e-002
1.814764e+003;-3.049634e-002
1.816692e+003;-3.071345e-002
1.818621e+003;-3.072095e-002
1.820549e+003;-3.074620e-002
1.822478e+003;-3.077652e-002
1.824406e+003;-3.127063e-002
1.826335e+003;-3.139986e-002
1.828264e+003;-3.157305e-002
1.830192e+003;-3.165633e-002
1.832121e+003;-3.094517e-002
1.834049e+003;-3.060736e-002
1.835978e+003;-3.072552e-002
1.837906e+003;-3.088565e-002
1.839835e+003;-3.089006e-002
1.841763e+003;-3.134213e-002
1.843692e+003;-3.229746e-002
1.845620e+003;-3.181245e-002
1.847549e+003;-3.105399e-002
1.849478e+003;-3.087040e-002
1.851406e+003;-3.092252e-002
1.853335e+003;-3.117517e-002
1.855263e+003;-3.122287e-002
1.857192e+003;-3.116129e-002
1.859120e+003;-3.114510e-002
1.861049e+003;-3.128994e-002
1.862977e+003;-3.139327e-002
1.864906e+003;-3.130369e-002
1.866834e+003;-3.163415e-002
1.868763e+003;-3.208209e-002
1.870692e+003;-3.164542e-002
1.872620e+003;-3.137767e-002
1.874549e+003;-3.142428e-002
1.876477e+003;-3.136118e-002
1.878406e+003;-3.118704e-002
1.880334e+003;-3.106420e-002
1.882263e+003;-3.127202e-002
1.884191e+003;-3.143392e-002
1.886120e+003;-3.164542e-002
1.888048e+003;-3.218649e-002
1.889977e+003;-3.219265e-002
1.891906e+003;-3.171596e-002
1.893834e+003;-3.182597e-002
1.895763e+003;-3.198338e-002
1.897691e+003;-3.201672e-002
1.899620e+003;-3.190713e-002
1.901548e+003;-3.165201e-002
1.903477e+003;-3.144566e-002
1.905405e+003;-3.171723e-002
1.907334e+003;-3.203364e-002
1.909262e+003;-3.203657e-002
1.911191e+003;-3.195066e-002
1.913120e+003;-3.182781e-002
1.915048e+003;-3.195568e-002
1.916977e+003;-3.242300e-002
1.918905e+003;-3.221046e-002
1.920834e+003;-3.183650e-002
1.922762e+003;-3.184888e-002
1.924691e+003;-3.183502e-002
1.926619e+003;-3.190636e-002
1.928548e+003;-3.189814e-002
1.930477e+003;-3.165325e-002
1.932405e+003;-3.162900e-002
1.934334e+003;-3.189445e-002
1.936262e+003;-3.190454e-002
1.938191e+003;-3.188201e-002
1.940119e+003;-3.206581e-002
1.942048e+003;-3.207326e-002
1.943976e+003;-3.198132e-002
1.945905e+003;-3.185861e-002
1.947833e+003;-3.169721e-002
1.949762e+003;-3.147479e-002
1.951691e+003;-3.135073e-002
1.953619e+003;-3.131235e-002
1.955548e+003;-3.143238e-002
1.957476e+003;-3.147060e-002
1.959405e+003;-3.148952e-002
1.961333e+003;-3.152163e-002
1.963262e+003;-3.138670e-002
1.965190e+003;-3.121961e-002
1.967119e+003;-3.136226e-002
1.969047e+003;-3.144878e-002
1.970976e+003;-3.128787e-002
1.972905e+003;-3.104199e-002
1.974833e+003;-3.113927e-002
1.976762e+003;-3.103668e-002
1.978690e+003;-3.063373e-002
1.980619e+003;-3.036668e-002
1.982547e+003;-3.040252e-002
1.984476e+003;-3.059705e-002
1.986404e+003;-3.080500e-002
1.988333e+003;-3.078741e-002
1.990261e+003;-3.068267e-002
1.992190e+003;-3.061823e-002
1.994119e+003;-3.055212e-002
1.996047e+003;-3.046767e-002
1.997976e+003;-3.027695e-002
1.999904e+003;-3.053510e-002
2.001833e+003;-3.071169e-002
2.003761e+003;-3.045170e-002
2.005690e+003;-3.022333e-002
2.007618e+003;-3.020952e-002
2.009547e+003;-3.007709e-002
2.011476e+003;-3.002892e-002
2.013404e+003;-3.010207e-002
2.015333e+003;-3.035707e-002
2.017261e+003;-3.055388e-002
2.019190e+003;-3.034669e-002
2.021118e+003;-3.006729e-002
2.023047e+003;-3.005913e-002
2.024975e+003;-3.012207e-002
2.026904e+003;-3.002403e-002
2.028833e+003;-2.998637e-002
2.030761e+003;-2.992875e-002
2.032690e+003;-3.005350e-002
2.034618e+003;-3.012120e-002
2.036547e+003;-2.995442e-002
2.038475e+003;-3.007665e-002
2.040404e+003;-3.000931e-002
2.042332e+003;-2.997211e-002
2.044261e+003;-3.017542e-002
2.046189e+003;-3.004051e-002
2.048118e+003;-2.984292e-002
2.050047e+003;-2.999861e-002
2.051975e+003;-3.018847e-002
2.053904e+003;-3.014668e-002
2.055832e+003;-3.003374e-002
2.057761e+003;-3.003714e-002
2.059689e+003;-3.024429e-002
2.061618e+003;-3.046261e-002
2.063546e+003;-3.056922e-002
2.065475e+003;-3.041222e-002
2.067404e+003;-3.030683e-002
2.069332e+003;-3.024682e-002
2.071260e+003;-3.010810e-002
2.073189e+003;-3.003516e-002
2.075118e+003;-3.003992e-002
2.077046e+003;-3.017839e-002
2.078975e+003;-3.015524e-002
2.080903e+003;-3.013713e-002
2.082832e+003;-3.032058e-002
2.084760e+003;-3.035992e-002
2.086689e+003;-3.023403e-002
2.088617e+003;-3.038785e-002
2.090546e+003;-3.068746e-002
2.092475e+003;-3.071478e-002
2.094403e+003;-3.070521e-002
2.096332e+003;-3.064056e-002
2.098260e+003;-3.061703e-002
2.100189e+003;-3.038701e-002
2.102117e+003;-3.036239e-002
2.104046e+003;-3.060338e-002
2.105974e+003;-3.076068e-002
2.107903e+003;-3.078985e-002
2.109832e+003;-3.050841e-002
2.111760e+003;-3.026351e-002
2.113688e+003;-3.026459e-002
2.115617e+003;-3.030384e-002
2.117546e+003;-3.029707e-002
2.119474e+003;-3.031734e-002
2.121403e+003;-3.031156e-002
2.123331e+003;-3.049146e-002
2.125260e+003;-3.057920e-002
2.127188e+003;-3.029490e-002
2.129117e+003;-3.015963e-002
2.131045e+003;-3.040870e-002
2.132974e+003;-3.020479e-002
2.134903e+003;-2.987481e-002
2.136831e+003;-2.982093e-002
2.138760e+003;-2.993717e-002
2.140688e+003;-3.016528e-002
2.142617e+003;-3.017187e-002
2.144545e+003;-3.030730e-002
2.146474e+003;-3.036968e-002
2.148402e+003;-3.033545e-002
2.150331e+003;-3.014603e-002
2.152260e+003;-3.024197e-002
2.154188e+003;-3.040159e-002
2.156117e+003;-3.014182e-002
2.158045e+003;-3.003940e-002
2.159974e+003;-3.016767e-002
2.161902e+003;-3.015756e-002
2.163831e+003;-3.001268e-002
2.165759e+003;-2.975843e-002
2.167688e+003;-2.958842e-002
2.169616e+003;-2.949716e-002
2.171545e+003;-2.968024e-002
2.173474e+003;-2.989136e-002
2.175402e+003;-2.975141e-002
2.177331e+003;-2.946345e-002
2.179259e+003;-2.923790e-002
2.181188e+003;-2.889383e-002
2.183116e+003;-2.857443e-002
2.185045e+003;-2.834364e-002
2.186973e+003;-2.806120e-002
2.188902e+003;-2.785870e-002
2.190831e+003;-2.775592e-002
2.192759e+003;-2.757309e-002
2.194688e+003;-2.746831e-002
2.196616e+003;-2.759115e-002
2.198545e+003;-2.774632e-002
2.200473e+003;-2.754016e-002
2.202402e+003;-2.775204e-002
2.204330e+003;-2.815686e-002
2.206259e+003;-2.818403e-002
2.208188e+003;-2.787834e-002
2.210116e+003;-2.743164e-002
2.212044e+003;-2.722813e-002
2.213973e+003;-2.716803e-002
2.215902e+003;-2.707290e-002
2.217830e+003;-2.674116e-002
2.219759e+003;-2.607764e-002
2.221687e+003;-2.537260e-002
2.223616e+003;-2.455088e-002
2.225544e+003;-2.342748e-002
2.227473e+003;-2.153499e-002
2.229401e+003;-1.798598e-002
2.231330e+003;-1.149687e-002
2.233259e+003;-1.638069e-003
2.235187e+003;1.027441e-002
2.237116e+003;2.309278e-002
2.239044e+003;3.437565e-002
2.240973e+003;4.137954e-002
2.242901e+003;4.436401e-002
2.244830e+003;4.380382e-002
2.246758e+003;3.972889e-002
2.248687e+003;3.329732e-002
2.250615e+003;2.578565e-002
2.252544e+003;1.808877e-002
2.254473e+003;1.032208e-002
2.256401e+003;2.870424e-003
2.258330e+003;-3.933730e-003
2.260258e+003;-9.552899e-003
2.262187e+003;-1.384205e-002
2.264115e+003;-1.715999e-002
2.266044e+003;-1.980082e-002
2.267972e+003;-2.180125e-002
2.269901e+003;-2.320004e-002
2.271830e+003;-2.428761e-002
2.273758e+003;-2.487425e-002
2.275687e+003;-2.552675e-002
2.277615e+003;-2.606481e-002
2.279544e+003;-2.624033e-002
2.281472e+003;-2.619716e-002
2.283401e+003;-2.623200e-002
2.285329e+003;-2.635233e-002
2.287258e+003;-2.662650e-002
2.289187e+003;-2.675145e-002
2.291115e+003;-2.688368e-002
2.293043e+003;-2.678425e-002
2.294972e+003;-2.680920e-002
2.296901e+003;-2.709470e-002
2.298829e+003;-2.692644e-002
2.300758e+003;-2.703800e-002
2.302686e+003;-2.740141e-002
2.304615e+003;-2.747139e-002
2.306543e+003;-2.752996e-002
2.308472e+003;-2.772726e-002
2.310400e+003;-2.810198e-002
2.312329e+003;-2.847098e-002
2.314258e+003;-2.865726e-002
2.316186e+003;-2.881868e-002
2.318115e+003;-2.924478e-002
2.320043e+003;-2.989816e-002
2.321972e+003;-3.062975e-002
2.323900e+003;-3.126913e-002
2.325829e+003;-3.176438e-002
2.327757e+003;-3.218206e-002
2.329686e+003;-3.288257e-002
2.331615e+003;-3.338734e-002
2.333543e+003;-3.342271e-002
2.335472e+003;-3.333407e-002
2.337400e+003;-3.348220e-002
2.339329e+003;-3.356182e-002
2.341257e+003;-3.295979e-002
2.343186e+003;-3.212659e-002
2.345114e+003;-3.096310e-002
2.347043e+003;-2.944221e-002
2.348971e+003;-2.868740e-002
2.350900e+003;-2.961866e-002
2.352829e+003;-3.143737e-002
2.354757e+003;-3.293546e-002
2.356686e+003;-3.425714e-002
2.358614e+003;-3.538985e-002
2.360543e+003;-3.593278e-002
2.362471e+003;-3.578134e-002
2.364400e+003;-3.516303e-002
2.366328e+003;-3.427211e-002
2.368257e+003;-3.349462e-002
2.370186e+003;-3.264404e-002
2.372114e+003;-3.136580e-002
2.374042e+003;-2.983955e-002
2.375971e+003;-2.859863e-002
2.377900e+003;-2.796602e-002
2.379828e+003;-2.726687e-002
2.381757e+003;-2.648415e-002
2.383685e+003;-2.648053e-002
2.385614e+003;-2.659499e-002
2.387542e+003;-2.645001e-002
2.389471e+003;-2.636028e-002
2.391399e+003;-2.620668e-002
2.393328e+003;-2.630215e-002
2.395257e+003;-2.650594e-002
2.397185e+003;-2.629245e-002
2.399114e+003;-2.639608e-002
2.401042e+003;-2.663497e-002
2.402971e+003;-2.657903e-002
2.404899e+003;-2.635258e-002
2.406828e+003;-2.646326e-002
2.408756e+003;-2.648976e-002
2.410685e+003;-2.637596e-002
2.412614e+003;-2.614048e-002
2.414542e+003;-2.581702e-002
2.416471e+003;-2.571391e-002
2.418399e+003;-2.584705e-002
2.420328e+003;-2.580852e-002
2.422256e+003;-2.560719e-002
2.424185e+003;-2.557907e-002
2.426113e+003;-2.574723e-002
2.428042e+003;-2.584227e-002
2.429970e+003;-2.564339e-002
2.431899e+003;-2.583481e-002
2.433828e+003;-2.612291e-002
2.435756e+003;-2.614397e-002
2.437685e+003;-2.613530e-002
2.439613e+003;-2.595593e-002
2.441542e+003;-2.586550e-002
2.443470e+003;-2.610831e-002
2.445399e+003;-2.623085e-002
2.447327e+003;-2.616051e-002
2.449256e+003;-2.616890e-002
2.451185e+003;-2.618649e-002
2.453113e+003;-2.582226e-002
2.455042e+003;-2.554065e-002
2.456970e+003;-2.567365e-002
2.458899e+003;-2.574807e-002
2.460827e+003;-2.560313e-002
2.462756e+003;-2.550828e-002
2.464684e+003;-2.580437e-002
2.466613e+003;-2.567609e-002
2.468542e+003;-2.547563e-002
2.470470e+003;-2.553352e-002
2.472398e+003;-2.529061e-002
2.474327e+003;-2.488686e-002
2.476256e+003;-2.478513e-002
2.478184e+003;-2.489891e-002
2.480113e+003;-2.496539e-002
2.482041e+003;-2.496192e-002
2.483970e+003;-2.498297e-002
2.485898e+003;-2.509576e-002
2.487827e+003;-2.499007e-002
2.489755e+003;-2.473317e-002
2.491684e+003;-2.484227e-002
2.493613e+003;-2.490642e-002
2.495541e+003;-2.451452e-002
2.497470e+003;-2.447024e-002
2.499398e+003;-2.472281e-002
2.501327e+003;-2.462480e-002
2.503255e+003;-2.444042e-002
2.505184e+003;-2.456791e-002
2.507112e+003;-2.467464e-002
2.509041e+003;-2.466071e-002
2.510969e+003;-2.472178e-002
2.512898e+003;-2.459966e-002
2.514827e+003;-2.444885e-002
2.516755e+003;-2.448321e-002
2.518684e+003;-2.445414e-002
2.520612e+003;-2.433104e-002
2.522541e+003;-2.423936e-002
2.524469e+003;-2.440810e-002
2.526398e+003;-2.450284e-002
2.528326e+003;-2.434366e-002
2.530255e+003;-2.440249e-002
2.532184e+003;-2.449276e-002
2.534112e+003;-2.455504e-002
2.536041e+003;-2.452912e-002
2.537969e+003;-2.437844e-002
2.539898e+003;-2.432048e-002
2.541826e+003;-2.409052e-002
2.543755e+003;-2.433555e-002
2.545683e+003;-2.435234e-002
2.547612e+003;-2.415509e-002
2.549541e+003;-2.422711e-002
2.551469e+003;-2.429003e-002
2.553397e+003;-2.422961e-002
2.555326e+003;-2.422353e-002
2.557255e+003;-2.437324e-002
2.559183e+003;-2.441640e-002
2.561112e+003;-2.433091e-002
2.563040e+003;-2.399767e-002
2.564969e+003;-2.389237e-002
2.566897e+003;-2.426750e-002
2.568826e+003;-2.448155e-002
2.570754e+003;-2.440274e-002
2.572683e+003;-2.434266e-002
2.574612e+003;-2.430206e-002
2.576540e+003;-2.419812e-002
2.578469e+003;-2.396195e-002
2.580397e+003;-2.409877e-002
2.582326e+003;-2.430309e-002
2.584254e+003;-2.429849e-002
2.586183e+003;-2.447704e-002
2.588111e+003;-2.452755e-002
2.590040e+003;-2.457421e-002
2.591969e+003;-2.474914e-002
2.593897e+003;-2.469371e-002
2.595826e+003;-2.436966e-002
2.597754e+003;-2.419865e-002
2.599683e+003;-2.427113e-002
2.601611e+003;-2.450043e-002
2.603540e+003;-2.450434e-002
2.605468e+003;-2.449354e-002
2.607397e+003;-2.459722e-002
2.609325e+003;-2.465905e-002
2.611254e+003;-2.466487e-002
2.613183e+003;-2.464318e-002
2.615111e+003;-2.426095e-002
2.617040e+003;-2.375838e-002
2.618968e+003;-2.376449e-002
2.620897e+003;-2.421282e-002
2.622825e+003;-2.409920e-002
2.624754e+003;-2.358311e-002
2.626682e+003;-2.360621e-002
2.628611e+003;-2.400876e-002
2.630540e+003;-2.411504e-002
2.632468e+003;-2.397355e-002
2.634396e+003;-2.398497e-002
2.636325e+003;-2.416540e-002
2.638254e+003;-2.440553e-002
2.640182e+003;-2.427969e-002
2.642111e+003;-2.392661e-002
2.644039e+003;-2.354777e-002
2.645968e+003;-2.354648e-002
2.647896e+003;-2.356908e-002
2.649825e+003;-2.354507e-002
2.651753e+003;-2.359679e-002
2.653682e+003;-2.367656e-002
2.655611e+003;-2.358879e-002
2.657539e+003;-2.327972e-002
2.659468e+003;-2.318000e-002
2.661396e+003;-2.330814e-002
2.663325e+003;-2.335621e-002
2.665253e+003;-2.354071e-002
2.667182e+003;-2.351133e-002
2.669110e+003;-2.324938e-002
2.671039e+003;-2.348390e-002
2.672968e+003;-2.348258e-002
2.674896e+003;-2.308836e-002
2.676825e+003;-2.293972e-002
2.678753e+003;-2.287259e-002
2.680682e+003;-2.281537e-002
2.682610e+003;-2.291185e-002
2.684539e+003;-2.293787e-002
2.686467e+003;-2.304173e-002
2.688396e+003;-2.308487e-002
2.690324e+003;-2.310548e-002
2.692253e+003;-2.314990e-002
2.694182e+003;-2.307450e-002
2.696110e+003;-2.294214e-002
2.698039e+003;-2.301154e-002
2.699967e+003;-2.330597e-002
2.701896e+003;-2.320129e-002
2.703824e+003;-2.319325e-002
2.705753e+003;-2.340874e-002
2.707681e+003;-2.320148e-002
2.709610e+003;-2.305191e-002
2.711539e+003;-2.289475e-002
2.713467e+003;-2.296427e-002
2.715396e+003;-2.295673e-002
2.717324e+003;-2.271029e-002
2.719253e+003;-2.271256e-002
2.721181e+003;-2.287416e-002
2.723110e+003;-2.276831e-002
2.725038e+003;-2.275696e-002
2.726967e+003;-2.305207e-002
2.728896e+003;-2.321339e-002
2.730824e+003;-2.333015e-002
2.732752e+003;-2.335851e-002
2.734681e+003;-2.307727e-002
2.736610e+003;-2.276934e-002
2.738538e+003;-2.302813e-002
2.740467e+003;-2.336190e-002
2.742395e+003;-2.294092e-002
2.744324e+003;-2.261909e-002
2.746252e+003;-2.309603e-002
2.748181e+003;-2.326662e-002
2.750109e+003;-2.290829e-002
2.752038e+003;-2.272630e-002
2.753967e+003;-2.274724e-002
2.755895e+003;-2.296392e-002
2.757824e+003;-2.324919e-002
2.759752e+003;-2.303567e-002
2.761681e+003;-2.257323e-002
2.763609e+003;-2.280185e-002
2.765538e+003;-2.306769e-002
2.767466e+003;-2.285885e-002
2.769395e+003;-2.278601e-002
2.771323e+003;-2.271467e-002
2.773252e+003;-2.250047e-002
2.775181e+003;-2.247857e-002
2.777109e+003;-2.239522e-002
2.779038e+003;-2.220766e-002
2.780966e+003;-2.242536e-002
2.782895e+003;-2.275711e-002
2.784823e+003;-2.258031e-002
2.786752e+003;-2.232947e-002
2.788680e+003;-2.210876e-002
2.790609e+003;-2.199695e-002
2.792538e+003;-2.208205e-002
2.794466e+003;-2.211653e-002
2.796395e+003;-2.196448e-002
2.798323e+003;-2.159908e-002
2.800252e+003;-2.116794e-002
2.802180e+003;-2.109045e-002
2.804109e+003;-2.143657e-002
2.806037e+003;-2.151168e-002
2.807966e+003;-2.150049e-002
2.809895e+003;-2.142430e-002
2.811823e+003;-2.127963e-002
2.813751e+003;-2.098243e-002
2.815680e+003;-2.076207e-002
2.817609e+003;-2.085486e-002
2.819537e+003;-2.104705e-002
2.821466e+003;-2.095322e-002
2.823394e+003;-2.101659e-002
2.825323e+003;-2.121521e-002
2.827251e+003;-2.090271e-002
2.829180e+003;-2.050023e-002
2.831108e+003;-2.024743e-002
2.833037e+003;-2.005457e-002
2.834966e+003;-1.994936e-002
2.836894e+003;-2.001227e-002
2.838823e+003;-2.004505e-002
2.840751e+003;-2.000771e-002
2.842680e+003;-1.974199e-002
2.844608e+003;-1.923660e-002
2.846537e+003;-1.850480e-002
2.848465e+003;-1.748596e-002
2.850394e+003;-1.664266e-002
2.852323e+003;-1.608033e-002
2.854251e+003;-1.539173e-002
2.856180e+003;-1.427636e-002
2.858108e+003;-1.289442e-002
2.860037e+003;-1.176916e-002
2.861965e+003;-1.069451e-002
2.863894e+003;-9.545541e-003
2.865822e+003;-9.144690e-003
2.867751e+003;-8.947518e-003
2.869679e+003;-8.476031e-003
2.871608e+003;-8.295297e-003
2.873536e+003;-8.107852e-003
2.875465e+003;-8.265357e-003
2.877394e+003;-8.413281e-003
2.879322e+003;-8.518044e-003
2.881251e+003;-8.892920e-003
2.883179e+003;-9.062665e-003
2.885108e+003;-9.332336e-003
2.887036e+003;-9.536433e-003
2.888965e+003;-9.197214e-003
2.890893e+003;-8.756978e-003
2.892822e+003;-8.152111e-003
2.894750e+003;-7.614160e-003
2.896679e+003;-7.378114e-003
2.898608e+003;-6.545654e-003
2.900536e+003;-5.219590e-003
2.902465e+003;-4.081562e-003
2.904393e+003;-2.693710e-003
2.906322e+003;-1.156857e-003
2.908250e+003;4.805105e-004
2.910179e+003;2.279197e-003
2.912107e+003;3.939894e-003
2.914036e+003;5.546284e-003
2.915965e+003;7.663596e-003
2.917893e+003;9.547380e-003
2.919822e+003;1.086888e-002
2.921750e+003;1.192978e-002
2.923679e+003;1.277992e-002
2.925607e+003;1.362616e-002
2.927536e+003;1.506888e-002
2.929464e+003;1.646117e-002
2.931393e+003;1.713649e-002
2.933322e+003;1.785587e-002
2.935250e+003;1.889942e-002
2.937178e+003;1.941355e-002
2.939107e+003;1.891777e-002
2.941036e+003;1.834024e-002
2.942964e+003;1.773819e-002
2.944893e+003;1.629075e-002
2.946821e+003;1.466644e-002
2.948750e+003;1.303593e-002
2.950678e+003;1.130502e-002
2.952607e+003;9.860253e-003
2.954535e+003;8.391766e-003
2.956464e+003;6.761038e-003
2.958393e+003;5.343831e-003
2.960321e+003;4.288838e-003
2.962250e+003;3.508316e-003
2.964178e+003;2.915787e-003
2.966107e+003;2.251785e-003
2.968035e+003;1.460649e-003
2.969964e+003;8.714042e-004
2.971892e+003;1.710716e-004
2.973821e+003;-1.006571e-003
2.975750e+003;-1.886591e-003
2.977678e+003;-2.538750e-003
2.979607e+003;-3.193386e-003
2.981535e+003;-3.635811e-003
2.983464e+003;-3.902535e-003
2.985392e+003;-4.322227e-003
2.987321e+003;-5.226989e-003
2.989249e+003;-6.035315e-003
2.991178e+003;-6.292927e-003
2.993106e+003;-6.682812e-003
2.995035e+003;-7.577726e-003
2.996964e+003;-8.650552e-003
2.998892e+003;-9.515719e-003
3.000821e+003;-1.012290e-002
3.002749e+003;-1.091367e-002
3.004678e+003;-1.154707e-002
3.006606e+003;-1.174597e-002
3.008535e+003;-1.190674e-002
3.010463e+003;-1.265395e-002
3.012392e+003;-1.350933e-002
3.014321e+003;-1.409209e-002
3.016249e+003;-1.463301e-002
3.018177e+003;-1.475803e-002
3.020106e+003;-1.482486e-002
3.022035e+003;-1.521196e-002
3.023963e+003;-1.577283e-002
3.025892e+003;-1.595179e-002
3.027820e+003;-1.622329e-002
3.029749e+003;-1.660191e-002
3.031677e+003;-1.688274e-002
3.033606e+003;-1.702547e-002
3.035534e+003;-1.685910e-002
3.037463e+003;-1.709795e-002
3.039392e+003;-1.737121e-002
3.041320e+003;-1.721140e-002
3.043249e+003;-1.718751e-002
3.045177e+003;-1.769889e-002
3.047106e+003;-1.820238e-002
3.049034e+003;-1.787817e-002
3.050963e+003;-1.767710e-002
3.052891e+003;-1.821474e-002
3.054820e+003;-1.860747e-002
3.056749e+003;-1.886808e-002
3.058677e+003;-1.897222e-002
3.060606e+003;-1.879806e-002
3.062534e+003;-1.900175e-002
3.064463e+003;-1.928123e-002
3.066391e+003;-1.931232e-002
3.068320e+003;-1.929756e-002
3.070248e+003;-1.956985e-002
3.072177e+003;-1.980424e-002
3.074105e+003;-1.967464e-002
3.076034e+003;-1.946065e-002
3.077963e+003;-1.969770e-002
3.079891e+003;-1.999433e-002
3.081820e+003;-1.989888e-002
3.083748e+003;-2.001806e-002
3.085677e+003;-2.060360e-002
3.087605e+003;-2.095963e-002
3.089534e+003;-2.115231e-002
3.091462e+003;-2.104986e-002
3.093391e+003;-2.071879e-002
3.095320e+003;-2.079953e-002
3.097248e+003;-2.096646e-002
3.099177e+003;-2.081937e-002
3.101105e+003;-2.094268e-002
3.103034e+003;-2.125471e-002
3.104962e+003;-2.138001e-002
3.106891e+003;-2.135049e-002
3.108819e+003;-2.123957e-002
3.110748e+003;-2.104907e-002
3.112677e+003;-2.082082e-002
3.114605e+003;-2.131626e-002
3.116533e+003;-2.196250e-002
3.118462e+003;-2.167430e-002
3.120391e+003;-2.144836e-002
3.122319e+003;-2.166651e-002
3.124248e+003;-2.166043e-002
3.126176e+003;-2.168748e-002
3.128105e+003;-2.187722e-002
3.130033e+003;-2.212397e-002
3.131962e+003;-2.238584e-002
3.133890e+003;-2.250981e-002
3.135819e+003;-2.250534e-002
3.137748e+003;-2.238417e-002
3.139676e+003;-2.225428e-002
3.141605e+003;-2.220554e-002
3.143533e+003;-2.190935e-002
3.145462e+003;-2.183270e-002
3.147390e+003;-2.214380e-002
3.149319e+003;-2.275938e-002
3.151247e+003;-2.292175e-002
3.153176e+003;-2.288906e-002
3.155104e+003;-2.277318e-002
3.157033e+003;-2.220888e-002
3.158962e+003;-2.191738e-002
3.160890e+003;-2.229353e-002
3.162819e+003;-2.281072e-002
3.164747e+003;-2.307752e-002
3.166676e+003;-2.282069e-002
3.168604e+003;-2.252746e-002
3.170533e+003;-2.227710e-002
3.172461e+003;-2.245211e-002
3.174390e+003;-2.303548e-002
3.176319e+003;-2.318870e-002
3.178247e+003;-2.323079e-002
3.180176e+003;-2.297097e-002
3.182104e+003;-2.243147e-002
3.184033e+003;-2.231909e-002
3.185961e+003;-2.265721e-002
3.187890e+003;-2.291090e-002
3.189818e+003;-2.276831e-002
3.191747e+003;-2.289377e-002
3.193676e+003;-2.300641e-002
3.195604e+003;-2.281591e-002
3.197532e+003;-2.251915e-002
3.199461e+003;-2.254284e-002
3.201390e+003;-2.230543e-002
3.203318e+003;-2.233385e-002
3.205247e+003;-2.231758e-002
3.207175e+003;-2.265029e-002
3.209104e+003;-2.309358e-002
3.211032e+003;-2.294460e-002
3.212961e+003;-2.266366e-002
3.214889e+003;-2.250251e-002
3.216818e+003;-2.236696e-002
3.218747e+003;-2.263029e-002
3.220675e+003;-2.326172e-002
3.222604e+003;-2.341022e-002
3.224532e+003;-2.346748e-002
3.226461e+003;-2.322859e-002
3.228389e+003;-2.268690e-002
3.230318e+003;-2.291364e-002
3.232246e+003;-2.309411e-002
3.234175e+003;-2.281867e-002
3.236104e+003;-2.279362e-002
3.238032e+003;-2.280780e-002
3.239961e+003;-2.282352e-002
3.241889e+003;-2.289971e-002
3.243818e+003;-2.303498e-002
3.245746e+003;-2.341587e-002
3.247675e+003;-2.309659e-002
3.249603e+003;-2.249679e-002
3.251532e+003;-2.247149e-002
3.253460e+003;-2.263057e-002
3.255389e+003;-2.295481e-002
3.257318e+003;-2.292652e-002
3.259246e+003;-2.261859e-002
3.261175e+003;-2.309700e-002
3.263103e+003;-2.321295e-002
3.265032e+003;-2.279937e-002
3.266960e+003;-2.267643e-002
3.268889e+003;-2.288648e-002
3.270817e+003;-2.296877e-002
3.272746e+003;-2.294321e-002
3.274675e+003;-2.287378e-002
3.276603e+003;-2.286426e-002
3.278531e+003;-2.294714e-002
3.280460e+003;-2.248565e-002
3.282389e+003;-2.253926e-002
3.284317e+003;-2.309455e-002
3.286246e+003;-2.303872e-002
3.288174e+003;-2.295560e-002
3.290103e+003;-2.323380e-002
3.292031e+003;-2.329592e-002
3.293960e+003;-2.327275e-002
3.295888e+003;-2.346654e-002
3.297817e+003;-2.332095e-002
3.299746e+003;-2.309367e-002
3.301674e+003;-2.329960e-002
3.303603e+003;-2.363828e-002
3.305531e+003;-2.355361e-002
3.307460e+003;-2.317277e-002
3.309388e+003;-2.292137e-002
3.311317e+003;-2.318942e-002
3.313245e+003;-2.337060e-002
3.315174e+003;-2.353757e-002
3.317103e+003;-2.321980e-002
3.319031e+003;-2.324458e-002
3.320960e+003;-2.386452e-002
3.322888e+003;-2.403375e-002
3.324817e+003;-2.370304e-002
3.326745e+003;-2.385414e-002
3.328674e+003;-2.367734e-002
3.330602e+003;-2.330211e-002
3.332531e+003;-2.352888e-002
3.334459e+003;-2.333521e-002
3.336388e+003;-2.314318e-002
3.338317e+003;-2.346359e-002
3.340245e+003;-2.363881e-002
3.342174e+003;-2.366843e-002
3.344102e+003;-2.373695e-002
3.346031e+003;-2.359572e-002
3.347959e+003;-2.355248e-002
3.349888e+003;-2.357620e-002
3.351816e+003;-2.336997e-002
3.353745e+003;-2.369268e-002
3.355674e+003;-2.407143e-002
3.357602e+003;-2.396484e-002
3.359531e+003;-2.395553e-002
3.361459e+003;-2.435635e-002
3.363388e+003;-2.431180e-002
3.365316e+003;-2.403225e-002
3.367245e+003;-2.423109e-002
3.369173e+003;-2.431099e-002
3.371102e+003;-2.416537e-002
3.373031e+003;-2.417791e-002
3.374959e+003;-2.406074e-002
3.376887e+003;-2.362067e-002
3.378816e+003;-2.312870e-002
3.380745e+003;-2.357655e-002
3.382673e+003;-2.420727e-002
3.384602e+003;-2.484478e-002
3.386530e+003;-2.507139e-002
3.388459e+003;-2.461447e-002
3.390387e+003;-2.453472e-002
3.392316e+003;-2.447557e-002
3.394244e+003;-2.441750e-002
3.396173e+003;-2.466710e-002
3.398102e+003;-2.506964e-002
3.400030e+003;-2.513575e-002
3.401959e+003;-2.441386e-002
3.403887e+003;-2.408171e-002
3.405816e+003;-2.451975e-002
3.407744e+003;-2.465962e-002
3.409673e+003;-2.443144e-002
3.411601e+003;-2.437418e-002
3.413530e+003;-2.392912e-002
3.415458e+003;-2.385963e-002
3.417387e+003;-2.446091e-002
3.419316e+003;-2.465561e-002
3.421244e+003;-2.445408e-002
3.423173e+003;-2.435742e-002
3.425101e+003;-2.423920e-002
3.427030e+003;-2.394474e-002
3.428958e+003;-2.368421e-002
3.430887e+003;-2.370266e-002
3.432815e+003;-2.394910e-002
3.434744e+003;-2.414121e-002
3.436673e+003;-2.482694e-002
3.438601e+003;-2.480635e-002
3.440530e+003;-2.418593e-002
3.442458e+003;-2.399516e-002
3.444387e+003;-2.402660e-002
3.446315e+003;-2.412080e-002
3.448244e+003;-2.383620e-002
3.450172e+003;-2.333050e-002
3.452101e+003;-2.307843e-002
3.454030e+003;-2.306734e-002
3.455958e+003;-2.347125e-002
3.457886e+003;-2.381029e-002
3.459815e+003;-2.369256e-002
3.461744e+003;-2.351974e-002
3.463672e+003;-2.350239e-002
3.465601e+003;-2.362867e-002
3.467529e+003;-2.374724e-002
3.469458e+003;-2.333345e-002
3.471386e+003;-2.298687e-002
3.473315e+003;-2.296006e-002
3.475243e+003;-2.300352e-002
3.477172e+003;-2.360771e-002
3.479101e+003;-2.416296e-002
3.481029e+003;-2.382522e-002
3.482958e+003;-2.327228e-002
3.484886e+003;-2.311525e-002
3.486815e+003;-2.305198e-002
3.488743e+003;-2.288437e-002
3.490672e+003;-2.294991e-002
3.492600e+003;-2.291345e-002
3.494529e+003;-2.294321e-002
3.496458e+003;-2.283348e-002
3.498386e+003;-2.255952e-002
3.500315e+003;-2.260925e-002
3.502243e+003;-2.286124e-002
3.504172e+003;-2.306338e-002
3.506100e+003;-2.320462e-002
3.508029e+003;-2.308311e-002
3.509957e+003;-2.254914e-002
3.511886e+003;-2.215599e-002
3.513814e+003;-2.193695e-002
3.515743e+003;-2.203667e-002
3.517672e+003;-2.243568e-002
3.519600e+003;-2.245088e-002
3.521529e+003;-2.251742e-002
3.523457e+003;-2.265259e-002
3.525386e+003;-2.220224e-002
3.527314e+003;-2.200149e-002
3.529243e+003;-2.171294e-002
3.531171e+003;-2.150166e-002
3.533100e+003;-2.191830e-002
3.535029e+003;-2.200061e-002
3.536957e+003;-2.164902e-002
3.538885e+003;-2.185264e-002
3.540814e+003;-2.181644e-002
3.542743e+003;-2.192696e-002
3.544671e+003;-2.245604e-002
3.546600e+003;-2.214462e-002
3.548528e+003;-2.136689e-002
3.550457e+003;-2.115358e-002
3.552385e+003;-2.147596e-002
3.554314e+003;-2.234461e-002
3.556242e+003;-2.259777e-002
3.558171e+003;-2.268460e-002
3.560100e+003;-2.282160e-002
3.562028e+003;-2.229120e-002
3.563957e+003;-2.240466e-002
3.565885e+003;-2.337750e-002
3.567814e+003;-2.356889e-002
3.569742e+003;-2.281776e-002
3.571671e+003;-2.255159e-002
3.573599e+003;-2.256939e-002
3.575528e+003;-2.240186e-002
3.577457e+003;-2.232214e-002
3.579385e+003;-2.221833e-002
3.581314e+003;-2.240868e-002
3.583242e+003;-2.273844e-002
3.585171e+003;-2.349940e-002
3.587099e+003;-2.444478e-002
3.589028e+003;-2.441045e-002
3.590956e+003;-2.354824e-002
3.592885e+003;-2.287705e-002
3.594813e+003;-2.302231e-002
3.596742e+003;-2.263900e-002
3.598671e+003;-2.219453e-002
3.600599e+003;-2.199885e-002
3.602528e+003;-2.157090e-002
3.604456e+003;-2.147186e-002
3.606385e+003;-2.225453e-002
3.608313e+003;-2.310643e-002
3.610242e+003;-2.269221e-002
3.612170e+003;-2.220337e-002
3.614099e+003;-2.203204e-002
3.616028e+003;-2.213234e-002
3.617956e+003;-2.250997e-002
3.619885e+003;-2.248480e-002
3.621813e+003;-2.157399e-002
3.623742e+003;-2.104554e-002
3.625670e+003;-2.207525e-002
3.627599e+003;-2.487294e-002
3.629527e+003;-2.517909e-002
3.631456e+003;-2.280736e-002
3.633385e+003;-2.205267e-002
3.635313e+003;-2.155621e-002
3.637241e+003;-2.123291e-002
3.639170e+003;-2.144638e-002
3.641099e+003;-2.146590e-002
3.643027e+003;-2.156292e-002
3.644956e+003;-2.236819e-002
3.646884e+003;-2.443823e-002
3.648813e+003;-2.581121e-002
3.650741e+003;-2.442805e-002
3.652670e+003;-2.277151e-002
3.654598e+003;-2.356827e-002
3.656527e+003;-2.417916e-002
3.658456e+003;-2.348327e-002
3.660384e+003;-2.298049e-002
3.662313e+003;-2.279330e-002
3.664241e+003;-2.335772e-002
3.666170e+003;-2.407482e-002
3.668098e+003;-2.569926e-002
3.670027e+003;-2.732528e-002
3.671955e+003;-2.624298e-002
3.673884e+003;-2.718285e-002
3.675813e+003;-2.827327e-002
3.677741e+003;-2.592740e-002
3.679669e+003;-2.468835e-002
3.681598e+003;-2.449893e-002
3.683527e+003;-2.456932e-002
3.685455e+003;-2.544057e-002
3.687384e+003;-2.746010e-002
3.689312e+003;-2.725822e-002
3.691241e+003;-2.539879e-002
3.693169e+003;-2.383068e-002
3.695098e+003;-2.338237e-002
3.697026e+003;-2.377274e-002
3.698955e+003;-2.445173e-002
3.700884e+003;-2.486355e-002
3.702812e+003;-2.429745e-002
3.704741e+003;-2.381528e-002
3.706669e+003;-2.414917e-002
3.708598e+003;-2.492638e-002
3.710526e+003;-2.635267e-002
3.712455e+003;-2.643090e-002
3.714383e+003;-2.474845e-002
3.716312e+003;-2.383755e-002
3.718240e+003;-2.399230e-002
3.720169e+003;-2.464412e-002
3.722098e+003;-2.478281e-002
3.724026e+003;-2.466550e-002
3.725955e+003;-2.501450e-002
3.727883e+003;-2.482512e-002
3.729812e+003;-2.502104e-002
3.731740e+003;-2.597129e-002
3.733669e+003;-2.619473e-002
3.735597e+003;-2.648191e-002
3.737526e+003;-2.553299e-002
3.739455e+003;-2.454080e-002
3.741383e+003;-2.560762e-002
3.743312e+003;-2.888664e-002
3.745240e+003;-2.794667e-002
3.747169e+003;-2.612298e-002
3.749097e+003;-2.829099e-002
3.751026e+003;-2.918009e-002
3.752954e+003;-2.746564e-002
3.754883e+003;-2.531743e-002
3.756812e+003;-2.499007e-002
3.758740e+003;-2.522368e-002
3.760668e+003;-2.467192e-002
3.762597e+003;-2.358973e-002
3.764526e+003;-2.369406e-002
3.766454e+003;-2.387104e-002
3.768383e+003;-2.442708e-002
3.770311e+003;-2.437587e-002
3.772240e+003;-2.346173e-002
3.774168e+003;-2.323644e-002
3.776097e+003;-2.364963e-002
3.778025e+003;-2.459556e-002
3.779954e+003;-2.420831e-002
3.781883e+003;-2.313979e-002
3.783811e+003;-2.358295e-002
3.785740e+003;-2.360963e-002
3.787668e+003;-2.284068e-002
3.789597e+003;-2.252158e-002
3.791525e+003;-2.332359e-002
3.793454e+003;-2.346089e-002
3.795382e+003;-2.344698e-002
3.797311e+003;-2.360649e-002
3.799240e+003;-2.471486e-002
3.801168e+003;-2.604054e-002
3.803097e+003;-2.466732e-002
3.805025e+003;-2.466271e-002
3.806954e+003;-2.531693e-002
3.808882e+003;-2.361003e-002
3.810811e+003;-2.291562e-002
3.812739e+003;-2.351573e-002
3.814668e+003;-2.576309e-002
3.816596e+003;-2.578405e-002
3.818525e+003;-2.466462e-002
3.820454e+003;-2.602952e-002
3.822382e+003;-2.521611e-002
3.824311e+003;-2.338127e-002
3.826239e+003;-2.292486e-002
3.828168e+003;-2.300132e-002
3.830096e+003;-2.367279e-002
3.832025e+003;-2.395342e-002
3.833953e+003;-2.415224e-002
3.835882e+003;-2.569942e-002
3.837811e+003;-2.630920e-002
3.839739e+003;-2.424252e-002
3.841667e+003;-2.358499e-002
3.843596e+003;-2.307878e-002
3.845525e+003;-2.193912e-002
3.847453e+003;-2.165542e-002
3.849382e+003;-2.273938e-002
3.851310e+003;-2.615602e-002
3.853239e+003;-2.932754e-002
3.855167e+003;-2.657461e-002
3.857096e+003;-2.284543e-002
3.859024e+003;-2.242797e-002
3.860953e+003;-2.296946e-002
3.862882e+003;-2.334183e-002
3.864810e+003;-2.357413e-002
3.866739e+003;-2.331285e-002
3.868667e+003;-2.451302e-002
3.870596e+003;-2.442467e-002
3.872524e+003;-2.315050e-002
3.874453e+003;-2.257631e-002
3.876381e+003;-2.199163e-002
3.878310e+003;-2.248341e-002
3.880239e+003;-2.308880e-002
3.882167e+003;-2.258405e-002
3.884096e+003;-2.303853e-002
3.886024e+003;-2.335333e-002
3.887953e+003;-2.195799e-002
3.889881e+003;-2.256125e-002
3.891810e+003;-2.265158e-002
3.893738e+003;-2.134270e-002
3.895667e+003;-2.135058e-002
3.897595e+003;-2.241671e-002
3.899524e+003;-2.353672e-002
3.901453e+003;-2.437107e-002
3.903381e+003;-2.430024e-002
3.905310e+003;-2.340234e-002
3.907238e+003;-2.263727e-002
3.909167e+003;-2.162251e-002
3.911095e+003;-2.082919e-002
3.913024e+003;-2.093337e-002
3.914952e+003;-2.205582e-002
3.916881e+003;-2.307058e-002
3.918810e+003;-2.243411e-002
3.920738e+003;-2.144171e-002
3.922667e+003;-2.150084e-002
3.924595e+003;-2.206054e-002
3.926524e+003;-2.225601e-002
3.928452e+003;-2.246120e-002
3.930381e+003;-2.249307e-002
3.932309e+003;-2.231827e-002
3.934238e+003;-2.186786e-002
3.936167e+003;-2.158272e-002
3.938095e+003;-2.160943e-002
3.940023e+003;-2.171008e-002
3.941952e+003;-2.166749e-002
3.943881e+003;-2.136147e-002
3.945809e+003;-2.123439e-002
3.947738e+003;-2.103389e-002
3.949666e+003;-2.058540e-002
3.951595e+003;-2.025138e-002
3.953523e+003;-2.026710e-002
3.955452e+003;-2.078469e-002
3.957380e+003;-2.146713e-002
3.959309e+003;-2.153596e-002
3.961238e+003;-2.086298e-002
3.963166e+003;-2.048936e-002
3.965095e+003;-2.095127e-002
3.967023e+003;-2.140657e-002
3.968952e+003;-2.155100e-002
3.970880e+003;-2.154763e-002
3.972809e+003;-2.136399e-002
3.974737e+003;-2.085385e-002
3.976666e+003;-2.089402e-002
3.978594e+003;-2.100178e-002
3.980523e+003;-2.082859e-002
3.982452e+003;-2.061883e-002
3.984380e+003;-2.025429e-002
3.986309e+003;-2.041061e-002
3.988237e+003;-2.053231e-002
3.990166e+003;-2.038643e-002
3.992094e+003;-2.053616e-002
3.994023e+003;-2.120609e-002
3.995951e+003;-2.086734e-002
3.997880e+003;-2.016599e-002
3.999809e+003;-2.058179e-002
4.001737e+003;0.000000e+000
