3.992094e+002;0.000000e+000
4.011380e+002;0.000000e+000
4.030665e+002;0.000000e+000
4.049951e+002;0.000000e+000
4.069236e+002;0.000000e+000
4.088522e+002;0.000000e+000
4.107807e+002;0.000000e+000
4.127093e+002;0.000000e+000
4.146378e+002;0.000000e+000
4.165664e+002;0.000000e+000
4.184949e+002;0.000000e+000
4.204235e+002;0.000000e+000
4.223520e+002;0.000000e+000
4.242806e+002;0.000000e+000
4.262091e+002;0.000000e+000
4.281377e+002;0.000000e+000
4.300662e+002;0.000000e+000
4.319948e+002;0.000000e+000
4.339233e+002;0.000000e+000
4.358519e+002;0.000000e+000
4.377804e+002;0.000000e+000
4.397090e+002;0.000000e+000
4.416375e+002;0.000000e+000
4.435660e+002;0.000000e+000
4.454946e+002;0.000000e+000
4.474232e+002;0.000000e+000
4.493517e+002;0.000000e+000
4.512802e+002;0.000000e+000
4.532088e+002;0.000000e+000
4.551373e+002;0.000000e+000
4.570659e+002;0.000000e+000
4.589944e+002;0.000000e+000
4.609230e+002;0.000000e+000
4.628515e+002;0.000000e+000
4.647801e+002;0.000000e+000
4.667086e+002;0.000000e+000
4.686372e+002;0.000000e+000
4.705657e+002;0.000000e+000
4.724943e+002;0.000000e+000
4.744228e+002;0.000000e+000
4.763513e+002;0.000000e+000
4.782799e+002;0.000000e+000
4.802085e+002;0.000000e+000
4.821370e+002;0.000000e+000
4.840656e+002;0.000000e+000
4.859941e+002;0.000000e+000
4.879226e+002;0.000000e+000
4.898512e+002;0.000000e+000
4.917798e+002;0.000000e+000
4.937083e+002;0.000000e+000
4.956368e+002;0.000000e+000
4.975654e+002;0.000000e+000
4.994939e+002;0.000000e+000
5.014225e+002;0.000000e+000
5.033510e+002;0.000000e+000
5.052796e+002;0.000000e+000
5.072081e+002;0.000000e+000
5.091367e+002;0.000000e+000
5.110652e+002;0.000000e+000
5.129938e+002;0.000000e+000
5.149223e+002;0.000000e+000
5.168509e+002;0.000000e+000
5.187794e+002;0.000000e+000
5.207079e+002;0.000000e+000
5.226365e+002;0.000000e+000
5.245651e+002;0.000000e+000
5.264936e+002;0.000000e+000
5.284222e+002;0.000000e+000
5.303507e+002;0.000000e+000
5.322792e+002;0.000000e+000
5.342078e+002;0.000000e+000
5.361364e+002;0.000000e+000
5.380649e+002;0.000000e+000
5.399935e+002;0.000000e+000
5.419220e+002;0.000000e+000
5.438505e+002;0.000000e+000
5.457791e+002;0.000000e+000
5.477076e+002;0.000000e+000
5.496362e+002;0.000000e+000
5.515648e+002;0.000000e+000
5.534933e+002;0.000000e+000
5.554218e+002;0.000000e+000
5.573504e+002;0.000000e+000
5.592789e+002;0.000000e+000
5.612075e+002;0.000000e+000
5.631360e+002;0.000000e+000
5.650646e+002;0.000000e+000
5.669931e+002;0.000000e+000
5.689217e+002;0.000000e+000
5.708502e+002;0.000000e+000
5.727787e+002;0.000000e+000
5.747073e+002;0.000000e+000
5.766359e+002;0.000000e+000
5.785644e+002;0.000000e+000
5.804930e+002;0.000000e+000
5.824215e+002;0.000000e+000
5.843500e+002;0.000000e+000
5.862786e+002;0.000000e+000
5.882072e+002;0.000000e+000
5.901357e+002;0.000000e+000
5.920643e+002;0.000000e+000
5.939928e+002;0.000000e+000
5.959213e+002;0.000000e+000
5.978499e+002;0.000000e+000
5.997784e+002;-2.959693e-002
6.017070e+002;-2.507512e-002
6.036355e+002;-2.735788e-002
6.055641e+002;-2.806481e-002
6.074926e+002;-2.795394e-002
6.094211e+002;-2.952676e-002
6.113497e+002;-2.869128e-002
6.132783e+002;-2.835978e-002
6.152068e+002;-3.253848e-002
6.171354e+002;-3.638716e-002
6.190639e+002;-3.296838e-002
6.209924e+002;-3.330301e-002
6.229210e+002;-3.498643e-002
6.248495e+002;-3.139120e-002
6.267781e+002;-2.855082e-002
6.287067e+002;-3.210572e-002
6.306352e+002;-3.384631e-002
6.325637e+002;-3.119765e-002
6.344923e+002;-2.913071e-002
6.364208e+002;-2.901345e-002
6.383494e+002;-2.895471e-002
6.402780e+002;-2.780640e-002
6.422065e+002;-2.818742e-002
6.441350e+002;-3.014621e-002
6.460636e+002;-3.115648e-002
6.479921e+002;-3.017301e-002
6.499207e+002;-2.765399e-002
6.518492e+002;-2.783241e-002
6.537778e+002;-2.981783e-002
6.557063e+002;-3.233111e-002
6.576349e+002;-3.594153e-002
6.595634e+002;-3.403707e-002
6.614919e+002;-2.853031e-002
6.634205e+002;-2.933184e-002
6.653491e+002;-3.245913e-002
6.672776e+002;-3.298564e-002
6.692062e+002;-3.123872e-002
6.711347e+002;-3.060940e-002
6.730632e+002;-3.163970e-002
6.749918e+002;-3.221440e-002
6.769203e+002;-3.237985e-002
6.788489e+002;-3.320624e-002
6.807775e+002;-3.428368e-002
6.827060e+002;-3.521078e-002
6.846345e+002;-3.516156e-002
6.865631e+002;-3.515606e-002
6.884916e+002;-3.542375e-002
6.904202e+002;-3.591686e-002
6.923488e+002;-3.662650e-002
6.942773e+002;-3.672574e-002
6.962058e+002;-3.647064e-002
6.981344e+002;-3.768943e-002
7.000629e+002;-3.789699e-002
7.019915e+002;-3.669124e-002
7.039200e+002;-3.651435e-002
7.058486e+002;-3.717631e-002
7.077771e+002;-3.758527e-002
7.097057e+002;-3.703491e-002
7.116342e+002;-3.755175e-002
7.135627e+002;-3.830466e-002
7.154913e+002;-3.791436e-002
7.174199e+002;-3.805853e-002
7.193484e+002;-3.800559e-002
7.212770e+002;-3.710699e-002
7.232055e+002;-3.701894e-002
7.251340e+002;-3.671770e-002
7.270626e+002;-3.560203e-002
7.289911e+002;-3.536255e-002
7.309197e+002;-3.521955e-002
7.328483e+002;-3.481157e-002
7.347768e+002;-3.380230e-002
7.367053e+002;-3.220188e-002
7.386339e+002;-3.093635e-002
7.405624e+002;-3.099966e-002
7.424910e+002;-3.137369e-002
7.444196e+002;-3.160411e-002
7.463481e+002;-3.192841e-002
7.482766e+002;-3.079213e-002
7.502052e+002;-2.966851e-002
7.521337e+002;-2.887411e-002
7.540623e+002;-2.867720e-002
7.559908e+002;-2.938238e-002
7.579194e+002;-2.875052e-002
7.598479e+002;-2.750293e-002
7.617765e+002;-2.635891e-002
7.637050e+002;-2.688894e-002
7.656335e+002;-2.778542e-002
7.675621e+002;-2.702060e-002
7.694907e+002;-2.706680e-002
7.714192e+002;-2.849280e-002
7.733478e+002;-2.842428e-002
7.752763e+002;-2.846195e-002
7.772048e+002;-2.880119e-002
7.791334e+002;-2.833393e-002
7.810620e+002;-2.812543e-002
7.829905e+002;-2.846046e-002
7.849191e+002;-2.825777e-002
7.868476e+002;-2.704299e-002
7.887761e+002;-2.691361e-002
7.907047e+002;-2.805981e-002
7.926332e+002;-2.834634e-002
7.945618e+002;-2.743699e-002
7.964903e+002;-2.590886e-002
7.984189e+002;-2.531921e-002
8.003474e+002;-2.553193e-002
8.022759e+002;-2.669237e-002
8.042045e+002;-2.748844e-002
8.061331e+002;-2.675026e-002
8.080616e+002;-2.597538e-002
8.099902e+002;-2.546557e-002
8.119187e+002;-2.498938e-002
8.138472e+002;-2.516580e-002
8.157758e+002;-2.534297e-002
8.177043e+002;-2.533831e-002
8.196329e+002;-2.489894e-002
8.215615e+002;-2.446858e-002
8.234900e+002;-2.406711e-002
8.254185e+002;-2.400754e-002
8.273471e+002;-2.512465e-002
8.292756e+002;-2.697592e-002
8.312042e+002;-2.800849e-002
8.331328e+002;-2.814152e-002
8.350613e+002;-2.879499e-002
8.369898e+002;-2.959554e-002
8.389184e+002;-3.001896e-002
8.408469e+002;-2.989049e-002
8.427755e+002;-2.927966e-002
8.447040e+002;-2.920915e-002
8.466326e+002;-2.955858e-002
8.485611e+002;-2.962005e-002
8.504897e+002;-2.926655e-002
8.524182e+002;-2.903167e-002
8.543467e+002;-2.942453e-002
8.562753e+002;-2.989114e-002
8.582039e+002;-2.983460e-002
8.601324e+002;-2.937954e-002
8.620610e+002;-2.885700e-002
8.639895e+002;-2.868064e-002
8.659180e+002;-2.802747e-002
8.678466e+002;-2.737288e-002
8.697751e+002;-2.738299e-002
8.717037e+002;-2.751347e-002
8.736323e+002;-2.737810e-002
8.755608e+002;-2.696639e-002
8.774893e+002;-2.691009e-002
8.794179e+002;-2.698031e-002
8.813464e+002;-2.664629e-002
8.832750e+002;-2.625418e-002
8.852036e+002;-2.633571e-002
8.871321e+002;-2.642152e-002
8.890606e+002;-2.622193e-002
8.909892e+002;-2.606188e-002
8.929177e+002;-2.561528e-002
8.948463e+002;-2.527054e-002
8.967748e+002;-2.542582e-002
8.987034e+002;-2.520789e-002
9.006319e+002;-2.435381e-002
9.025605e+002;-2.350690e-002
9.044890e+002;-2.294777e-002
9.064175e+002;-2.279704e-002
9.083461e+002;-2.279792e-002
9.102747e+002;-2.220668e-002
9.122032e+002;-2.146810e-002
9.141318e+002;-2.076428e-002
9.160603e+002;-1.967578e-002
9.179888e+002;-1.897644e-002
9.199174e+002;-1.868787e-002
9.218459e+002;-1.746037e-002
9.237745e+002;-1.610677e-002
9.257031e+002;-1.513421e-002
9.276316e+002;-1.391188e-002
9.295601e+002;-1.285736e-002
9.314887e+002;-1.203325e-002
9.334172e+002;-1.088721e-002
9.353458e+002;-9.943302e-003
9.372744e+002;-9.319753e-003
9.392029e+002;-9.100241e-003
9.411314e+002;-8.464918e-003
9.430600e+002;-7.642387e-003
9.449885e+002;-7.917302e-003
9.469171e+002;-8.352895e-003
9.488456e+002;-8.423453e-003
9.507742e+002;-8.445746e-003
9.527027e+002;-8.685532e-003
9.546313e+002;-9.091577e-003
9.565598e+002;-9.142711e-003
9.584883e+002;-8.945570e-003
9.604169e+002;-8.676179e-003
9.623455e+002;-8.371226e-003
9.642740e+002;-8.634117e-003
9.662026e+002;-9.199484e-003
9.681311e+002;-1.003837e-002
9.700596e+002;-1.082500e-002
9.719882e+002;-1.087839e-002
9.739167e+002;-1.052029e-002
9.758453e+002;-1.033520e-002
9.777739e+002;-1.044519e-002
9.797024e+002;-1.083020e-002
9.816309e+002;-1.097551e-002
9.835595e+002;-1.084446e-002
9.854880e+002;-1.057569e-002
9.874166e+002;-1.024531e-002
9.893452e+002;-1.009182e-002
9.912737e+002;-9.682208e-003
9.932022e+002;-8.781170e-003
9.951307e+002;-8.312135e-003
9.970593e+002;-7.980904e-003
9.989879e+002;-7.475343e-003
1.000916e+003;-6.747770e-003
1.002845e+003;-5.292820e-003
1.004773e+003;-3.660454e-003
1.006702e+003;-2.169721e-003
1.008631e+003;-5.444484e-004
1.010559e+003;1.584674e-003
1.012488e+003;4.261734e-003
1.014416e+003;7.123978e-003
1.016345e+003;1.017997e-002
1.018273e+003;1.304603e-002
1.020202e+003;1.559875e-002
1.022130e+003;1.742363e-002
1.024059e+003;1.867522e-002
1.025988e+003;1.974485e-002
1.027916e+003;1.992450e-002
1.029845e+003;2.029067e-002
1.031773e+003;2.111623e-002
1.033702e+003;2.166576e-002
1.035630e+003;2.226537e-002
1.037559e+003;2.299436e-002
1.039487e+003;2.385694e-002
1.041416e+003;2.516027e-002
1.043344e+003;2.583238e-002
1.045273e+003;2.526432e-002
1.047202e+003;2.408099e-002
1.049130e+003;2.336148e-002
1.051059e+003;2.332882e-002
1.052987e+003;2.376870e-002
1.054916e+003;2.446708e-002
1.056844e+003;2.567175e-002
1.058773e+003;2.675182e-002
1.060701e+003;2.796720e-002
1.062630e+003;2.948872e-002
1.064558e+003;3.112422e-002
1.066487e+003;3.263604e-002
1.068416e+003;3.339478e-002
1.070344e+003;3.300042e-002
1.072273e+003;3.249350e-002
1.074201e+003;3.189562e-002
1.076130e+003;3.134101e-002
1.078058e+003;3.067367e-002
1.079987e+003;2.930294e-002
1.081915e+003;2.788554e-002
1.083844e+003;2.623950e-002
1.085773e+003;2.415805e-002
1.087701e+003;2.298290e-002
1.089630e+003;2.186109e-002
1.091558e+003;1.976489e-002
1.093487e+003;1.784817e-002
1.095415e+003;1.624376e-002
1.097344e+003;1.498371e-002
1.099272e+003;1.386409e-002
1.101201e+003;1.212075e-002
1.103129e+003;1.081269e-002
1.105058e+003;9.826461e-003
1.106987e+003;8.345253e-003
1.108915e+003;6.895371e-003
1.110844e+003;6.077257e-003
1.112772e+003;4.899094e-003
1.114701e+003;3.082305e-003
1.116629e+003;1.406762e-003
1.118558e+003;3.497712e-004
1.120486e+003;-1.330875e-003
1.122415e+003;-3.626907e-003
1.124344e+003;-5.696226e-003
1.126272e+003;-7.697729e-003
1.128201e+003;-1.005585e-002
1.130129e+003;-1.264945e-002
1.132058e+003;-1.464086e-002
1.133986e+003;-1.577414e-002
1.135915e+003;-1.664869e-002
1.137843e+003;-1.764605e-002
1.139772e+003;-1.814960e-002
1.141700e+003;-1.826653e-002
1.143629e+003;-1.770878e-002
1.145557e+003;-1.674954e-002
1.147486e+003;-1.609885e-002
1.149415e+003;-1.542656e-002
1.151343e+003;-1.496721e-002
1.153272e+003;-1.438844e-002
1.155200e+003;-1.322276e-002
1.157129e+003;-1.191634e-002
1.159057e+003;-1.085092e-002
1.160986e+003;-9.887468e-003
1.162914e+003;-8.515249e-003
1.164843e+003;-7.234985e-003
1.166771e+003;-6.178611e-003
1.168700e+003;-4.661963e-003
1.170629e+003;-3.250251e-003
1.172557e+003;-2.122112e-003
1.174486e+003;-1.228726e-003
1.176414e+003;-3.406169e-004
1.178343e+003;1.815783e-005
1.180271e+003;1.496922e-004
1.182200e+003;8.214734e-004
1.184128e+003;2.050029e-003
1.186057e+003;3.096488e-003
1.187986e+003;3.536341e-003
1.189914e+003;3.992826e-003
1.191843e+003;4.898357e-003
1.193771e+003;5.616229e-003
1.195700e+003;6.569858e-003
1.197628e+003;8.388489e-003
1.199557e+003;1.042860e-002
1.201485e+003;1.230164e-002
1.203414e+003;1.497833e-002
1.205343e+003;1.796146e-002
1.207271e+003;2.132075e-002
1.209200e+003;2.565424e-002
1.211128e+003;3.039885e-002
1.213057e+003;3.541585e-002
1.214985e+003;4.119440e-002
1.216914e+003;4.731496e-002
1.218842e+003;5.333312e-002
1.220771e+003;5.942661e-002
1.222699e+003;6.498250e-002
1.224628e+003;7.034737e-002
1.226557e+003;7.564519e-002
1.228485e+003;7.955506e-002
1.230414e+003;8.183513e-002
1.232342e+003;8.346867e-002
1.234271e+003;8.454616e-002
1.236199e+003;8.469920e-002
1.238128e+003;8.379967e-002
1.240056e+003;8.180561e-002
1.241985e+003;7.944986e-002
1.243913e+003;7.683668e-002
1.245842e+003;7.316345e-002
1.247771e+003;6.848734e-002
1.249699e+003;6.373460e-002
1.251628e+003;5.931569e-002
1.253556e+003;5.508909e-002
1.255485e+003;5.058445e-002
1.257413e+003;4.577568e-002
1.259342e+003;4.118015e-002
1.261270e+003;3.711540e-002
1.263199e+003;3.269555e-002
1.265127e+003;2.832525e-002
1.267056e+003;2.414064e-002
1.268985e+003;1.971090e-002
1.270913e+003;1.562012e-002
1.272842e+003;1.208436e-002
1.274770e+003;9.527227e-003
1.276699e+003;7.574338e-003
1.278627e+003;5.492625e-003
1.280556e+003;3.470004e-003
1.282484e+003;1.689340e-003
1.284413e+003;-1.155562e-004
1.286342e+003;-1.285882e-003
1.288270e+003;-1.808001e-003
1.290199e+003;-2.312486e-003
1.292127e+003;-2.871227e-003
1.294056e+003;-3.171381e-003
1.295984e+003;-3.178979e-003
1.297913e+003;-3.422413e-003
1.299841e+003;-3.850451e-003
1.301770e+003;-4.048474e-003
1.303698e+003;-3.908478e-003
1.305627e+003;-3.572391e-003
1.307556e+003;-3.810481e-003
1.309484e+003;-4.168471e-003
1.311413e+003;-4.182090e-003
1.313341e+003;-3.934550e-003
1.315270e+003;-3.932022e-003
1.317198e+003;-4.381076e-003
1.319127e+003;-4.599119e-003
1.321055e+003;-4.539380e-003
1.322984e+003;-4.489406e-003
1.324912e+003;-4.437984e-003
1.326841e+003;-4.314353e-003
1.328770e+003;-4.232264e-003
1.330698e+003;-4.010229e-003
1.332627e+003;-3.490884e-003
1.334555e+003;-2.911284e-003
1.336484e+003;-2.570932e-003
1.338412e+003;-2.190689e-003
1.340341e+003;-1.198823e-003
1.342269e+003;1.769055e-004
1.344198e+003;1.676601e-003
1.346126e+003;3.161199e-003
1.348055e+003;4.383649e-003
1.349984e+003;5.847991e-003
1.351912e+003;7.635539e-003
1.353841e+003;9.384595e-003
1.355769e+003;1.181237e-002
1.357698e+003;1.424914e-002
1.359626e+003;1.636599e-002
1.361555e+003;1.842894e-002
1.363483e+003;2.040588e-002
1.365412e+003;2.230308e-002
1.367341e+003;2.370053e-002
1.369269e+003;2.455659e-002
1.371198e+003;2.460925e-002
1.373126e+003;2.366431e-002
1.375055e+003;2.198397e-002
1.376983e+003;1.968136e-002
1.378912e+003;1.661868e-002
1.380840e+003;1.298529e-002
1.382769e+003;8.880034e-003
1.384698e+003;4.444669e-003
1.386626e+003;-3.997107e-004
1.388555e+003;-3.557800e-003
1.390483e+003;-5.798409e-003
1.392412e+003;-8.902463e-003
1.394340e+003;-1.174613e-002
1.396269e+003;-1.290500e-002
1.398197e+003;-1.363798e-002
1.400126e+003;-1.400714e-002
1.402054e+003;-1.428281e-002
1.403983e+003;-1.545390e-002
1.405911e+003;-1.586734e-002
1.407840e+003;-1.574938e-002
1.409769e+003;-1.554866e-002
1.411697e+003;-1.495370e-002
1.413626e+003;-1.439296e-002
1.415554e+003;-1.373956e-002
1.417483e+003;-1.354459e-002
1.419411e+003;-1.246748e-002
1.421340e+003;-8.757270e-003
1.423268e+003;-5.090812e-003
1.425197e+003;-1.596178e-003
1.427125e+003;2.195768e-003
1.429054e+003;6.090463e-003
1.430983e+003;1.112298e-002
1.432911e+003;1.672493e-002
1.434840e+003;2.109474e-002
1.436768e+003;2.674372e-002
1.438697e+003;3.523492e-002
1.440625e+003;4.305013e-002
1.442554e+003;5.005809e-002
1.444482e+003;5.662527e-002
1.446411e+003;6.163053e-002
1.448340e+003;6.510670e-002
1.450268e+003;6.743622e-002
1.452197e+003;6.728980e-002
1.454125e+003;6.310549e-002
1.456054e+003;5.452099e-002
1.457982e+003;4.679520e-002
1.459911e+003;4.012839e-002
1.461839e+003;3.083346e-002
1.463768e+003;1.960835e-002
1.465697e+003;9.953643e-003
1.467625e+003;3.567910e-003
1.469554e+003;-2.054249e-003
1.471482e+003;-7.898040e-003
1.473411e+003;-1.145385e-002
1.475339e+003;-1.268243e-002
1.477268e+003;-1.418507e-002
1.479196e+003;-1.566808e-002
1.481125e+003;-1.703079e-002
1.483053e+003;-1.779911e-002
1.484982e+003;-1.874037e-002
1.486911e+003;-2.014226e-002
1.488839e+003;-2.146615e-002
1.490768e+003;-2.190762e-002
1.492696e+003;-2.139976e-002
1.494625e+003;-2.215089e-002
1.496553e+003;-2.357859e-002
1.498482e+003;-2.324743e-002
1.500410e+003;-2.246602e-002
1.502339e+003;-2.277815e-002
1.504267e+003;-2.563383e-002
1.506196e+003;-2.852364e-002
1.508125e+003;-2.702278e-002
1.510053e+003;-2.452461e-002
1.511982e+003;-2.394715e-002
1.513910e+003;-2.413720e-002
1.515839e+003;-2.466271e-002
1.517767e+003;-2.490285e-002
1.519696e+003;-2.659384e-002
1.521624e+003;-2.792215e-002
1.523553e+003;-2.629566e-002
1.525481e+003;-2.574270e-002
1.527410e+003;-2.532968e-002
1.529339e+003;-2.473333e-002
1.531267e+003;-2.497546e-002
1.533196e+003;-2.584037e-002
1.535124e+003;-2.523081e-002
1.537053e+003;-2.630492e-002
1.538981e+003;-2.992919e-002
1.540910e+003;-3.006342e-002
1.542838e+003;-2.783160e-002
1.544767e+003;-2.649712e-002
1.546695e+003;-2.537025e-002
1.548624e+003;-2.527389e-002
1.550553e+003;-2.559782e-002
1.552481e+003;-2.609177e-002
1.554410e+003;-2.725657e-002
1.556338e+003;-2.927157e-002
1.558267e+003;-3.264889e-002
1.560195e+003;-3.151682e-002
1.562124e+003;-2.743382e-002
1.564052e+003;-2.617305e-002
1.565981e+003;-2.621691e-002
1.567910e+003;-2.681253e-002
1.569838e+003;-2.717628e-002
1.571767e+003;-2.632476e-002
1.573695e+003;-2.700211e-002
1.575624e+003;-2.890977e-002
1.577552e+003;-2.741867e-002
1.579481e+003;-2.530280e-002
1.581409e+003;-2.507477e-002
1.583338e+003;-2.503727e-002
1.585266e+003;-2.506123e-002
1.587195e+003;-2.491327e-002
1.589124e+003;-2.462518e-002
1.591052e+003;-2.442683e-002
1.592981e+003;-2.446091e-002
1.594909e+003;-2.420100e-002
1.596838e+003;-2.386443e-002
1.598766e+003;-2.375882e-002
1.600695e+003;-2.385229e-002
1.602623e+003;-2.334924e-002
1.604552e+003;-2.270636e-002
1.606480e+003;-2.248115e-002
1.608409e+003;-2.221370e-002
1.610338e+003;-2.158739e-002
1.612266e+003;-2.093665e-002
1.614195e+003;-2.166582e-002
1.616123e+003;-2.343731e-002
1.618052e+003;-2.205110e-002
1.619980e+003;-2.001499e-002
1.621909e+003;-2.020451e-002
1.623837e+003;-2.025069e-002
1.625766e+003;-1.953719e-002
1.627694e+003;-1.910497e-002
1.629623e+003;-1.878901e-002
1.631552e+003;-1.873719e-002
1.633480e+003;-2.041754e-002
1.635409e+003;-2.227552e-002
1.637337e+003;-2.078276e-002
1.639266e+003;-1.900257e-002
1.641194e+003;-1.848772e-002
1.643123e+003;-1.907792e-002
1.645051e+003;-2.113849e-002
1.646980e+003;-2.174014e-002
1.648909e+003;-2.047586e-002
1.650837e+003;-2.268124e-002
1.652766e+003;-2.641640e-002
1.654694e+003;-2.323914e-002
1.656623e+003;-1.942520e-002
1.658551e+003;-1.892585e-002
1.660480e+003;-1.953367e-002
1.662408e+003;-2.006375e-002
1.664337e+003;-1.947032e-002
1.666266e+003;-1.909631e-002
1.668194e+003;-2.001053e-002
1.670123e+003;-2.033745e-002
1.672051e+003;-1.947431e-002
1.673980e+003;-1.953257e-002
1.675908e+003;-1.917751e-002
1.677837e+003;-1.763972e-002
1.679765e+003;-1.742523e-002
1.681694e+003;-1.878029e-002
1.683622e+003;-2.165447e-002
1.685551e+003;-2.013012e-002
1.687479e+003;-1.632771e-002
1.689408e+003;-1.522447e-002
1.691337e+003;-1.457729e-002
1.693265e+003;-1.504841e-002
1.695194e+003;-1.716990e-002
1.697122e+003;-1.644692e-002
1.699051e+003;-1.641016e-002
1.700979e+003;-1.523807e-002
1.702908e+003;-1.102242e-002
1.704836e+003;-8.813445e-003
1.706765e+003;-6.455171e-003
1.708693e+003;-3.516423e-003
1.710622e+003;-2.137282e-004
1.712551e+003;3.134232e-003
1.714479e+003;6.625198e-003
1.716408e+003;1.044401e-002
1.718336e+003;1.761737e-002
1.720265e+003;2.755697e-002
1.722193e+003;3.634203e-002
1.724122e+003;4.427580e-002
1.726050e+003;5.234084e-002
1.727979e+003;5.947870e-002
1.729908e+003;6.551134e-002
1.731836e+003;6.875984e-002
1.733765e+003;6.998001e-002
1.735693e+003;7.359713e-002
1.737622e+003;7.483044e-002
1.739550e+003;7.166536e-002
1.741479e+003;6.748842e-002
1.743407e+003;6.134133e-002
1.745336e+003;5.386888e-002
1.747265e+003;4.552808e-002
1.749193e+003;3.659598e-002
1.751122e+003;2.763225e-002
1.753050e+003;2.048211e-002
1.754979e+003;1.349212e-002
1.756907e+003;6.477529e-003
1.758836e+003;4.007422e-004
1.760764e+003;-5.660252e-003
1.762693e+003;-1.007897e-002
1.764621e+003;-1.265598e-002
1.766550e+003;-1.577654e-002
1.768479e+003;-1.867800e-002
1.770407e+003;-2.123256e-002
1.772336e+003;-2.314588e-002
1.774264e+003;-2.258528e-002
1.776193e+003;-2.224974e-002
1.778121e+003;-2.283203e-002
1.780050e+003;-2.351918e-002
1.781978e+003;-2.377127e-002
1.783907e+003;-2.393348e-002
1.785835e+003;-2.395490e-002
1.787764e+003;-2.383062e-002
1.789693e+003;-2.454221e-002
1.791621e+003;-2.556233e-002
1.793550e+003;-2.518557e-002
1.795478e+003;-2.435748e-002
1.797407e+003;-2.451349e-002
1.799335e+003;-2.486224e-002
1.801264e+003;-2.506708e-002
1.803192e+003;-2.482678e-002
1.805121e+003;-2.455122e-002
1.807049e+003;-2.452670e-002
1.808978e+003;-2.498494e-002
1.810907e+003;-2.512059e-002
1.812835e+003;-2.478059e-002
1.814764e+003;-2.440588e-002
1.816692e+003;-2.459941e-002
1.818621e+003;-2.462831e-002
1.820549e+003;-2.454164e-002
1.822478e+003;-2.433354e-002
1.824406e+003;-2.469699e-002
1.826335e+003;-2.504797e-002
1.828264e+003;-2.541219e-002
1.830192e+003;-2.538160e-002
1.832121e+003;-2.475505e-002
1.834049e+003;-2.440140e-002
1.835978e+003;-2.434849e-002
1.837906e+003;-2.436594e-002
1.839835e+003;-2.443049e-002
1.841763e+003;-2.499748e-002
1.843692e+003;-2.590867e-002
1.845620e+003;-2.525851e-002
1.847549e+003;-2.439413e-002
1.849478e+003;-2.428605e-002
1.851406e+003;-2.443729e-002
1.853335e+003;-2.438122e-002
1.855263e+003;-2.404312e-002
1.857192e+003;-2.398522e-002
1.859120e+003;-2.405767e-002
1.861049e+003;-2.413102e-002
1.862977e+003;-2.423256e-002
1.864906e+003;-2.417349e-002
1.866834e+003;-2.435165e-002
1.868763e+003;-2.469001e-002
1.870692e+003;-2.441571e-002
1.872620e+003;-2.414049e-002
1.874549e+003;-2.408077e-002
1.876477e+003;-2.399525e-002
1.878406e+003;-2.383360e-002
1.880334e+003;-2.352652e-002
1.882263e+003;-2.365632e-002
1.884191e+003;-2.393633e-002
1.886120e+003;-2.420743e-002
1.888048e+003;-2.443475e-002
1.889977e+003;-2.416305e-002
1.891906e+003;-2.389196e-002
1.893834e+003;-2.409755e-002
1.895763e+003;-2.405385e-002
1.897691e+003;-2.393245e-002
1.899620e+003;-2.388218e-002
1.901548e+003;-2.384078e-002
1.903477e+003;-2.381998e-002
1.905405e+003;-2.395753e-002
1.907334e+003;-2.409704e-002
1.909262e+003;-2.403485e-002
1.911191e+003;-2.389613e-002
1.913120e+003;-2.372942e-002
1.915048e+003;-2.379160e-002
1.916977e+003;-2.433696e-002
1.918905e+003;-2.431841e-002
1.920834e+003;-2.398359e-002
1.922762e+003;-2.392580e-002
1.924691e+003;-2.380998e-002
1.926619e+003;-2.378843e-002
1.928548e+003;-2.390968e-002
1.930477e+003;-2.401504e-002
1.932405e+003;-2.418555e-002
1.934334e+003;-2.424262e-002
1.936262e+003;-2.411516e-002
1.938191e+003;-2.410949e-002
1.940119e+003;-2.428323e-002
1.942048e+003;-2.441997e-002
1.943976e+003;-2.425540e-002
1.945905e+003;-2.395515e-002
1.947833e+003;-2.393612e-002
1.949762e+003;-2.397600e-002
1.951691e+003;-2.400497e-002
1.953619e+003;-2.398766e-002
1.955548e+003;-2.400368e-002
1.957476e+003;-2.400318e-002
1.959405e+003;-2.381120e-002
1.961333e+003;-2.375932e-002
1.963262e+003;-2.380662e-002
1.965190e+003;-2.379925e-002
1.967119e+003;-2.392304e-002
1.969047e+003;-2.395117e-002
1.970976e+003;-2.369077e-002
1.972905e+003;-2.332299e-002
1.974833e+003;-2.325767e-002
1.976762e+003;-2.341053e-002
1.978690e+003;-2.340253e-002
1.980619e+003;-2.311742e-002
1.982547e+003;-2.294950e-002
1.984476e+003;-2.307177e-002
1.986404e+003;-2.316637e-002
1.988333e+003;-2.295563e-002
1.990261e+003;-2.311324e-002
1.992190e+003;-2.335392e-002
1.994119e+003;-2.305766e-002
1.996047e+003;-2.282487e-002
1.997976e+003;-2.268366e-002
1.999904e+003;-2.284134e-002
2.001833e+003;-2.290864e-002
2.003761e+003;-2.272155e-002
2.005690e+003;-2.260742e-002
2.007618e+003;-2.258474e-002
2.009547e+003;-2.262450e-002
2.011476e+003;-2.263092e-002
2.013404e+003;-2.251887e-002
2.015333e+003;-2.257638e-002
2.017261e+003;-2.262041e-002
2.019190e+003;-2.237240e-002
2.021118e+003;-2.215879e-002
2.023047e+003;-2.208555e-002
2.024975e+003;-2.211477e-002
2.026904e+003;-2.193017e-002
2.028833e+003;-2.173586e-002
2.030761e+003;-2.188295e-002
2.032690e+003;-2.216597e-002
2.034618e+003;-2.215870e-002
2.036547e+003;-2.186465e-002
2.038475e+003;-2.175152e-002
2.040404e+003;-2.179564e-002
2.042332e+003;-2.178978e-002
2.044261e+003;-2.166425e-002
2.046189e+003;-2.174944e-002
2.048118e+003;-2.185765e-002
2.050047e+003;-2.188484e-002
2.051975e+003;-2.204675e-002
2.053904e+003;-2.212545e-002
2.055832e+003;-2.191234e-002
2.057761e+003;-2.176160e-002
2.059689e+003;-2.198785e-002
2.061618e+003;-2.227389e-002
2.063546e+003;-2.212220e-002
2.065475e+003;-2.166371e-002
2.067404e+003;-2.167588e-002
2.069332e+003;-2.175836e-002
2.071260e+003;-2.178089e-002
2.073189e+003;-2.198785e-002
2.075118e+003;-2.194637e-002
2.077046e+003;-2.179258e-002
2.078975e+003;-2.165759e-002
2.080903e+003;-2.167108e-002
2.082832e+003;-2.182970e-002
2.084760e+003;-2.181492e-002
2.086689e+003;-2.165409e-002
2.088617e+003;-2.187542e-002
2.090546e+003;-2.189722e-002
2.092475e+003;-2.173450e-002
2.094403e+003;-2.177720e-002
2.096332e+003;-2.193764e-002
2.098260e+003;-2.207903e-002
2.100189e+003;-2.195012e-002
2.102117e+003;-2.200379e-002
2.104046e+003;-2.218014e-002
2.105974e+003;-2.225670e-002
2.107903e+003;-2.244182e-002
2.109832e+003;-2.242272e-002
2.111760e+003;-2.221486e-002
2.113688e+003;-2.204637e-002
2.115617e+003;-2.211398e-002
2.117546e+003;-2.209389e-002
2.119474e+003;-2.205040e-002
2.121403e+003;-2.210832e-002
2.123331e+003;-2.211140e-002
2.125260e+003;-2.205418e-002
2.127188e+003;-2.190960e-002
2.129117e+003;-2.186480e-002
2.131045e+003;-2.172615e-002
2.132974e+003;-2.154526e-002
2.134903e+003;-2.150241e-002
2.136831e+003;-2.158764e-002
2.138760e+003;-2.183660e-002
2.140688e+003;-2.211147e-002
2.142617e+003;-2.208391e-002
2.144545e+003;-2.205311e-002
2.146474e+003;-2.207875e-002
2.148402e+003;-2.200096e-002
2.150331e+003;-2.197982e-002
2.152260e+003;-2.191783e-002
2.154188e+003;-2.188903e-002
2.156117e+003;-2.189442e-002
2.158045e+003;-2.203283e-002
2.159974e+003;-2.214132e-002
2.161902e+003;-2.180396e-002
2.163831e+003;-2.162598e-002
2.165759e+003;-2.161809e-002
2.167688e+003;-2.171565e-002
2.169616e+003;-2.158843e-002
2.171545e+003;-2.151995e-002
2.173474e+003;-2.158635e-002
2.175402e+003;-2.149885e-002
2.177331e+003;-2.138370e-002
2.179259e+003;-2.117248e-002
2.181188e+003;-2.086320e-002
2.183116e+003;-2.065842e-002
2.185045e+003;-2.039452e-002
2.186973e+003;-2.025183e-002
2.188902e+003;-2.029784e-002
2.190831e+003;-2.014796e-002
2.192759e+003;-1.996945e-002
2.194688e+003;-1.990635e-002
2.196616e+003;-1.994249e-002
2.198545e+003;-1.993686e-002
2.200473e+003;-1.982513e-002
2.202402e+003;-1.999847e-002
2.204330e+003;-2.026523e-002
2.206259e+003;-2.009779e-002
2.208188e+003;-1.967882e-002
2.210116e+003;-1.952807e-002
2.212044e+003;-1.944437e-002
2.213973e+003;-1.917612e-002
2.215902e+003;-1.898136e-002
2.217830e+003;-1.885244e-002
2.219759e+003;-1.837691e-002
2.221687e+003;-1.777357e-002
2.223616e+003;-1.711887e-002
2.225544e+003;-1.612132e-002
2.227473e+003;-1.440838e-002
2.229401e+003;-1.128575e-002
2.231330e+003;-5.740863e-003
2.233259e+003;2.759870e-003
2.235187e+003;1.386713e-002
2.237116e+003;2.678773e-002
2.239044e+003;3.898123e-002
2.240973e+003;4.786495e-002
2.242901e+003;5.292773e-002
2.244830e+003;5.445968e-002
2.246758e+003;5.221377e-002
2.248687e+003;4.703207e-002
2.250615e+003;4.047552e-002
2.252544e+003;3.310408e-002
2.254473e+003;2.499364e-002
2.256401e+003;1.697752e-002
2.258330e+003;9.566415e-003
2.260258e+003;3.372788e-003
2.262187e+003;-1.743389e-003
2.264115e+003;-5.841008e-003
2.266044e+003;-8.801983e-003
2.267972e+003;-1.128265e-002
2.269901e+003;-1.350605e-002
2.271830e+003;-1.513828e-002
2.273758e+003;-1.592180e-002
2.275687e+003;-1.660908e-002
2.277615e+003;-1.738104e-002
2.279544e+003;-1.799285e-002
2.281472e+003;-1.828565e-002
2.283401e+003;-1.835919e-002
2.285329e+003;-1.840461e-002
2.287258e+003;-1.851724e-002
2.289187e+003;-1.859823e-002
2.291115e+003;-1.879323e-002
2.293043e+003;-1.886570e-002
2.294972e+003;-1.880973e-002
2.296901e+003;-1.890548e-002
2.298829e+003;-1.898694e-002
2.300758e+003;-1.905053e-002
2.302686e+003;-1.936940e-002
2.304615e+003;-1.963221e-002
2.306543e+003;-1.975573e-002
2.308472e+003;-1.992528e-002
2.310400e+003;-2.010269e-002
2.312329e+003;-2.032693e-002
2.314258e+003;-2.064578e-002
2.316186e+003;-2.116336e-002
2.318115e+003;-2.178105e-002
2.320043e+003;-2.228305e-002
2.321972e+003;-2.291062e-002
2.323900e+003;-2.362033e-002
2.325829e+003;-2.413265e-002
2.327757e+003;-2.458923e-002
2.329686e+003;-2.511565e-002
2.331615e+003;-2.546591e-002
2.333543e+003;-2.555383e-002
2.335472e+003;-2.540757e-002
2.337400e+003;-2.559454e-002
2.339329e+003;-2.581302e-002
2.341257e+003;-2.545294e-002
2.343186e+003;-2.461679e-002
2.345114e+003;-2.343226e-002
2.347043e+003;-2.196394e-002
2.348971e+003;-2.095048e-002
2.350900e+003;-2.180159e-002
2.352829e+003;-2.403635e-002
2.354757e+003;-2.580387e-002
2.356686e+003;-2.700270e-002
2.358614e+003;-2.797230e-002
2.360543e+003;-2.845391e-002
2.362471e+003;-2.824716e-002
2.364400e+003;-2.780985e-002
2.366328e+003;-2.714659e-002
2.368257e+003;-2.613904e-002
2.370186e+003;-2.489109e-002
2.372114e+003;-2.343904e-002
2.374042e+003;-2.215171e-002
2.375971e+003;-2.123963e-002
2.377900e+003;-2.049368e-002
2.379828e+003;-1.991806e-002
2.381757e+003;-1.956006e-002
2.383685e+003;-1.939985e-002
2.385614e+003;-1.934383e-002
2.387542e+003;-1.923175e-002
2.389471e+003;-1.931711e-002
2.391399e+003;-1.942111e-002
2.393328e+003;-1.933578e-002
2.395257e+003;-1.933286e-002
2.397185e+003;-1.922294e-002
2.399114e+003;-1.910855e-002
2.401042e+003;-1.895976e-002
2.402971e+003;-1.879444e-002
2.404899e+003;-1.872621e-002
2.406828e+003;-1.868162e-002
2.408756e+003;-1.865756e-002
2.410685e+003;-1.854071e-002
2.412614e+003;-1.843348e-002
2.414542e+003;-1.828588e-002
2.416471e+003;-1.827794e-002
2.418399e+003;-1.833845e-002
2.420328e+003;-1.834595e-002
2.422256e+003;-1.833413e-002
2.424185e+003;-1.834039e-002
2.426113e+003;-1.831066e-002
2.428042e+003;-1.816978e-002
2.429970e+003;-1.796875e-002
2.431899e+003;-1.833870e-002
2.433828e+003;-1.861887e-002
2.435756e+003;-1.844459e-002
2.437685e+003;-1.837946e-002
2.439613e+003;-1.852985e-002
2.441542e+003;-1.854214e-002
2.443470e+003;-1.874132e-002
2.445399e+003;-1.880748e-002
2.447327e+003;-1.848924e-002
2.449256e+003;-1.828032e-002
2.451185e+003;-1.828480e-002
2.453113e+003;-1.808887e-002
2.455042e+003;-1.810308e-002
2.456970e+003;-1.836119e-002
2.458899e+003;-1.830449e-002
2.460827e+003;-1.823492e-002
2.462756e+003;-1.831968e-002
2.464684e+003;-1.825725e-002
2.466613e+003;-1.800238e-002
2.468542e+003;-1.782277e-002
2.470470e+003;-1.792097e-002
2.472398e+003;-1.778852e-002
2.474327e+003;-1.735032e-002
2.476256e+003;-1.722707e-002
2.478184e+003;-1.732310e-002
2.480113e+003;-1.742535e-002
2.482041e+003;-1.743302e-002
2.483970e+003;-1.739578e-002
2.485898e+003;-1.729613e-002
2.487827e+003;-1.720751e-002
2.489755e+003;-1.708594e-002
2.491684e+003;-1.701247e-002
2.493613e+003;-1.709725e-002
2.495541e+003;-1.680886e-002
2.497470e+003;-1.653553e-002
2.499398e+003;-1.676356e-002
2.501327e+003;-1.684765e-002
2.503255e+003;-1.671367e-002
2.505184e+003;-1.690633e-002
2.507112e+003;-1.703566e-002
2.509041e+003;-1.689527e-002
2.510969e+003;-1.668127e-002
2.512898e+003;-1.648868e-002
2.514827e+003;-1.662668e-002
2.516755e+003;-1.684536e-002
2.518684e+003;-1.683580e-002
2.520612e+003;-1.685288e-002
2.522541e+003;-1.686812e-002
2.524469e+003;-1.677647e-002
2.526398e+003;-1.642621e-002
2.528326e+003;-1.631463e-002
2.530255e+003;-1.664448e-002
2.532184e+003;-1.671109e-002
2.534112e+003;-1.652622e-002
2.536041e+003;-1.639954e-002
2.537969e+003;-1.655359e-002
2.539898e+003;-1.654832e-002
2.541826e+003;-1.614233e-002
2.543755e+003;-1.620962e-002
2.545683e+003;-1.631709e-002
2.547612e+003;-1.634166e-002
2.549541e+003;-1.643645e-002
2.551469e+003;-1.652498e-002
2.553397e+003;-1.649161e-002
2.555326e+003;-1.633218e-002
2.557255e+003;-1.634632e-002
2.559183e+003;-1.648820e-002
2.561112e+003;-1.663172e-002
2.563040e+003;-1.633100e-002
2.564969e+003;-1.592110e-002
2.566897e+003;-1.584389e-002
2.568826e+003;-1.582306e-002
2.570754e+003;-1.584906e-002
2.572683e+003;-1.607848e-002
2.574612e+003;-1.638084e-002
2.576540e+003;-1.635075e-002
2.578469e+003;-1.629583e-002
2.580397e+003;-1.636808e-002
2.582326e+003;-1.637114e-002
2.584254e+003;-1.630138e-002
2.586183e+003;-1.635592e-002
2.588111e+003;-1.654759e-002
2.590040e+003;-1.652915e-002
2.591969e+003;-1.674928e-002
2.593897e+003;-1.694387e-002
2.595826e+003;-1.667416e-002
2.597754e+003;-1.649710e-002
2.599683e+003;-1.659686e-002
2.601611e+003;-1.668593e-002
2.603540e+003;-1.647703e-002
2.605468e+003;-1.641287e-002
2.607397e+003;-1.663080e-002
2.609325e+003;-1.673589e-002
2.611254e+003;-1.688937e-002
2.613183e+003;-1.687943e-002
2.615111e+003;-1.650721e-002
2.617040e+003;-1.628728e-002
2.618968e+003;-1.629069e-002
2.620897e+003;-1.643026e-002
2.622825e+003;-1.641980e-002
2.624754e+003;-1.613349e-002
2.626682e+003;-1.605213e-002
2.628611e+003;-1.619076e-002
2.630540e+003;-1.629021e-002
2.632468e+003;-1.613081e-002
2.634396e+003;-1.606791e-002
2.636325e+003;-1.620397e-002
2.638254e+003;-1.632302e-002
2.640182e+003;-1.630707e-002
2.642111e+003;-1.641894e-002
2.644039e+003;-1.631523e-002
2.645968e+003;-1.615299e-002
2.647896e+003;-1.604265e-002
2.649825e+003;-1.592480e-002
2.651753e+003;-1.584220e-002
2.653682e+003;-1.580894e-002
2.655611e+003;-1.561064e-002
2.657539e+003;-1.557334e-002
2.659468e+003;-1.587718e-002
2.661396e+003;-1.596677e-002
2.663325e+003;-1.564190e-002
2.665253e+003;-1.546720e-002
2.667182e+003;-1.564277e-002
2.669110e+003;-1.564516e-002
2.671039e+003;-1.567617e-002
2.672968e+003;-1.557583e-002
2.674896e+003;-1.551154e-002
2.676825e+003;-1.548587e-002
2.678753e+003;-1.519056e-002
2.680682e+003;-1.517162e-002
2.682610e+003;-1.553153e-002
2.684539e+003;-1.566632e-002
2.686467e+003;-1.554476e-002
2.688396e+003;-1.535553e-002
2.690324e+003;-1.526840e-002
2.692253e+003;-1.520742e-002
2.694182e+003;-1.542406e-002
2.696110e+003;-1.559006e-002
2.698039e+003;-1.549143e-002
2.699967e+003;-1.561256e-002
2.701896e+003;-1.564523e-002
2.703824e+003;-1.557066e-002
2.705753e+003;-1.545274e-002
2.707681e+003;-1.538015e-002
2.709610e+003;-1.545140e-002
2.711539e+003;-1.539925e-002
2.713467e+003;-1.554351e-002
2.715396e+003;-1.564091e-002
2.717324e+003;-1.528909e-002
2.719253e+003;-1.513828e-002
2.721181e+003;-1.523625e-002
2.723110e+003;-1.498715e-002
2.725038e+003;-1.483296e-002
2.726967e+003;-1.525391e-002
2.728896e+003;-1.536970e-002
2.730824e+003;-1.521827e-002
2.732752e+003;-1.544881e-002
2.734681e+003;-1.529930e-002
2.736610e+003;-1.497281e-002
2.738538e+003;-1.494067e-002
2.740467e+003;-1.496660e-002
2.742395e+003;-1.484763e-002
2.744324e+003;-1.487670e-002
2.746252e+003;-1.515191e-002
2.748181e+003;-1.551135e-002
2.750109e+003;-1.536400e-002
2.752038e+003;-1.534123e-002
2.753967e+003;-1.537971e-002
2.755895e+003;-1.542860e-002
2.757824e+003;-1.525317e-002
2.759752e+003;-1.477689e-002
2.761681e+003;-1.463096e-002
2.763609e+003;-1.500536e-002
2.765538e+003;-1.508202e-002
2.767466e+003;-1.479031e-002
2.769395e+003;-1.486249e-002
2.771323e+003;-1.499445e-002
2.773252e+003;-1.499826e-002
2.775181e+003;-1.501055e-002
2.777109e+003;-1.494413e-002
2.779038e+003;-1.478205e-002
2.780966e+003;-1.493222e-002
2.782895e+003;-1.521766e-002
2.784823e+003;-1.497185e-002
2.786752e+003;-1.458569e-002
2.788680e+003;-1.438084e-002
2.790609e+003;-1.415951e-002
2.792538e+003;-1.435603e-002
2.794466e+003;-1.455877e-002
2.796395e+003;-1.438709e-002
2.798323e+003;-1.403156e-002
2.800252e+003;-1.366594e-002
2.802180e+003;-1.383733e-002
2.804109e+003;-1.431653e-002
2.806037e+003;-1.420938e-002
2.807966e+003;-1.411509e-002
2.809895e+003;-1.400021e-002
2.811823e+003;-1.351604e-002
2.813751e+003;-1.347910e-002
2.815680e+003;-1.372457e-002
2.817609e+003;-1.357121e-002
2.819537e+003;-1.332772e-002
2.821466e+003;-1.329231e-002
2.823394e+003;-1.363743e-002
2.825323e+003;-1.371397e-002
2.827251e+003;-1.298547e-002
2.829180e+003;-1.250292e-002
2.831108e+003;-1.241670e-002
2.833037e+003;-1.241644e-002
2.834966e+003;-1.242530e-002
2.836894e+003;-1.228321e-002
2.838823e+003;-1.182688e-002
2.840751e+003;-1.152132e-002
2.842680e+003;-1.138223e-002
2.844608e+003;-1.115798e-002
2.846537e+003;-1.074859e-002
2.848465e+003;-9.995470e-003
2.850394e+003;-9.074314e-003
2.852323e+003;-8.404182e-003
2.854251e+003;-7.631709e-003
2.856180e+003;-6.000414e-003
2.858108e+003;-4.221238e-003
2.860037e+003;-3.114933e-003
2.861965e+003;-2.011936e-003
2.863894e+003;-6.019595e-004
2.865822e+003;8.208077e-005
2.867751e+003;1.260602e-004
2.869679e+003;3.775608e-004
2.871608e+003;6.685297e-004
2.873536e+003;1.192872e-003
2.875465e+003;1.331476e-003
2.877394e+003;1.226696e-003
2.879322e+003;9.017839e-004
2.881251e+003;3.073607e-004
2.883179e+003;-4.426482e-005
2.885108e+003;-3.088651e-004
2.887036e+003;-6.622419e-004
2.888965e+003;-6.086763e-004
2.890893e+003;-6.222127e-005
2.892822e+003;6.399582e-004
2.894750e+003;1.260823e-003
2.896679e+003;1.733150e-003
2.898608e+003;2.530715e-003
2.900536e+003;3.864402e-003
2.902465e+003;4.964343e-003
2.904393e+003;6.098763e-003
2.906322e+003;7.800706e-003
2.908250e+003;9.475343e-003
2.910179e+003;1.120896e-002
2.912107e+003;1.307611e-002
2.914036e+003;1.501221e-002
2.915965e+003;1.729014e-002
2.917893e+003;1.957158e-002
2.919822e+003;2.106569e-002
2.921750e+003;2.251147e-002
2.923679e+003;2.433709e-002
2.925607e+003;2.581768e-002
2.927536e+003;2.716439e-002
2.929464e+003;2.840989e-002
2.931393e+003;2.953752e-002
2.933322e+003;3.064838e-002
2.935250e+003;3.156697e-002
2.937178e+003;3.219979e-002
2.939107e+003;3.206760e-002
2.941036e+003;3.143654e-002
2.942964e+003;3.097424e-002
2.944893e+003;2.982411e-002
2.946821e+003;2.802028e-002
2.948750e+003;2.624091e-002
2.950678e+003;2.457489e-002
2.952607e+003;2.326282e-002
2.954535e+003;2.178848e-002
2.956464e+003;2.038772e-002
2.958393e+003;1.907603e-002
2.960321e+003;1.783792e-002
2.962250e+003;1.669869e-002
2.964178e+003;1.567995e-002
2.966107e+003;1.494979e-002
2.968035e+003;1.444555e-002
2.969964e+003;1.348221e-002
2.971892e+003;1.211373e-002
2.973821e+003;1.115677e-002
2.975750e+003;1.048410e-002
2.977678e+003;9.614415e-003
2.979607e+003;8.622616e-003
2.981535e+003;7.578081e-003
2.983464e+003;6.465186e-003
2.985392e+003;5.647647e-003
2.987321e+003;4.961729e-003
2.989249e+003;4.256146e-003
2.991178e+003;3.871222e-003
2.993106e+003;3.123719e-003
2.995035e+003;1.898117e-003
2.996964e+003;7.351040e-004
2.998892e+003;-2.568123e-004
3.000821e+003;-7.463321e-004
3.002749e+003;-1.192842e-003
3.004678e+003;-1.914764e-003
3.006606e+003;-2.455797e-003
3.008535e+003;-2.629559e-003
3.010463e+003;-3.231867e-003
3.012392e+003;-4.225668e-003
3.014321e+003;-4.974280e-003
3.016249e+003;-6.002179e-003
3.018177e+003;-6.549734e-003
3.020106e+003;-6.506291e-003
3.022035e+003;-6.604204e-003
3.023963e+003;-6.888581e-003
3.025892e+003;-7.476678e-003
3.027820e+003;-8.291136e-003
3.029749e+003;-8.579998e-003
3.031677e+003;-8.887661e-003
3.033606e+003;-9.446376e-003
3.035534e+003;-9.653304e-003
3.037463e+003;-9.703691e-003
3.039392e+003;-9.821326e-003
3.041320e+003;-1.001768e-002
3.043249e+003;-1.020116e-002
3.045177e+003;-1.052207e-002
3.047106e+003;-1.082200e-002
3.049034e+003;-1.061362e-002
3.050963e+003;-1.036746e-002
3.052891e+003;-1.100155e-002
3.054820e+003;-1.151648e-002
3.056749e+003;-1.177954e-002
3.058677e+003;-1.199045e-002
3.060606e+003;-1.190996e-002
3.062534e+003;-1.193469e-002
3.064463e+003;-1.211562e-002
3.066391e+003;-1.224958e-002
3.068320e+003;-1.244800e-002
3.070248e+003;-1.287004e-002
3.072177e+003;-1.270686e-002
3.074105e+003;-1.244568e-002
3.076034e+003;-1.219740e-002
3.077963e+003;-1.204302e-002
3.079891e+003;-1.225960e-002
3.081820e+003;-1.239084e-002
3.083748e+003;-1.274875e-002
3.085677e+003;-1.343143e-002
3.087605e+003;-1.357176e-002
3.089534e+003;-1.340110e-002
3.091462e+003;-1.362719e-002
3.093391e+003;-1.375089e-002
3.095320e+003;-1.395466e-002
3.097248e+003;-1.413959e-002
3.099177e+003;-1.364305e-002
3.101105e+003;-1.337286e-002
3.103034e+003;-1.362520e-002
3.104962e+003;-1.371895e-002
3.106891e+003;-1.369920e-002
3.108819e+003;-1.355965e-002
3.110748e+003;-1.375381e-002
3.112677e+003;-1.402007e-002
3.114605e+003;-1.420405e-002
3.116533e+003;-1.452135e-002
3.118462e+003;-1.460702e-002
3.120391e+003;-1.470422e-002
3.122319e+003;-1.500680e-002
3.124248e+003;-1.502857e-002
3.126176e+003;-1.474912e-002
3.128105e+003;-1.453452e-002
3.130033e+003;-1.447648e-002
3.131962e+003;-1.464880e-002
3.133890e+003;-1.509037e-002
3.135819e+003;-1.533813e-002
3.137748e+003;-1.522252e-002
3.139676e+003;-1.507373e-002
3.141605e+003;-1.507498e-002
3.143533e+003;-1.493817e-002
3.145462e+003;-1.488122e-002
3.147390e+003;-1.501666e-002
3.149319e+003;-1.542572e-002
3.151247e+003;-1.549802e-002
3.153176e+003;-1.542761e-002
3.155104e+003;-1.539410e-002
3.157033e+003;-1.511172e-002
3.158962e+003;-1.472814e-002
3.160890e+003;-1.491932e-002
3.162819e+003;-1.556359e-002
3.164747e+003;-1.576152e-002
3.166676e+003;-1.549920e-002
3.168604e+003;-1.520630e-002
3.170533e+003;-1.509328e-002
3.172461e+003;-1.532373e-002
3.174390e+003;-1.557299e-002
3.176319e+003;-1.541149e-002
3.178247e+003;-1.567003e-002
3.180176e+003;-1.580159e-002
3.182104e+003;-1.550576e-002
3.184033e+003;-1.542531e-002
3.185961e+003;-1.546090e-002
3.187890e+003;-1.564571e-002
3.189818e+003;-1.552635e-002
3.191747e+003;-1.549543e-002
3.193676e+003;-1.540670e-002
3.195604e+003;-1.560441e-002
3.197532e+003;-1.553648e-002
3.199461e+003;-1.549588e-002
3.201390e+003;-1.550071e-002
3.203318e+003;-1.545956e-002
3.205247e+003;-1.559188e-002
3.207175e+003;-1.599634e-002
3.209104e+003;-1.603511e-002
3.211032e+003;-1.556749e-002
3.212961e+003;-1.532252e-002
3.214889e+003;-1.550330e-002
3.216818e+003;-1.573599e-002
3.218747e+003;-1.576197e-002
3.220675e+003;-1.614674e-002
3.222604e+003;-1.643932e-002
3.224532e+003;-1.651713e-002
3.226461e+003;-1.653049e-002
3.228389e+003;-1.611928e-002
3.230318e+003;-1.601056e-002
3.232246e+003;-1.618434e-002
3.234175e+003;-1.583830e-002
3.236104e+003;-1.559431e-002
3.238032e+003;-1.543250e-002
3.239961e+003;-1.561860e-002
3.241889e+003;-1.587948e-002
3.243818e+003;-1.619552e-002
3.245746e+003;-1.682907e-002
3.247675e+003;-1.651531e-002
3.249603e+003;-1.583660e-002
3.251532e+003;-1.542793e-002
3.253460e+003;-1.561186e-002
3.255389e+003;-1.625141e-002
3.257318e+003;-1.627869e-002
3.259246e+003;-1.583932e-002
3.261175e+003;-1.599890e-002
3.263103e+003;-1.613556e-002
3.265032e+003;-1.611813e-002
3.266960e+003;-1.599583e-002
3.268889e+003;-1.570937e-002
3.270817e+003;-1.582964e-002
3.272746e+003;-1.620538e-002
3.274675e+003;-1.632755e-002
3.276603e+003;-1.607484e-002
3.278531e+003;-1.603371e-002
3.280460e+003;-1.577255e-002
3.282389e+003;-1.614153e-002
3.284317e+003;-1.693166e-002
3.286246e+003;-1.677326e-002
3.288174e+003;-1.662732e-002
3.290103e+003;-1.689517e-002
3.292031e+003;-1.698768e-002
3.293960e+003;-1.651420e-002
3.295888e+003;-1.637896e-002
3.297817e+003;-1.638863e-002
3.299746e+003;-1.666415e-002
3.301674e+003;-1.692609e-002
3.303603e+003;-1.691184e-002
3.305531e+003;-1.694603e-002
3.307460e+003;-1.712365e-002
3.309388e+003;-1.704162e-002
3.311317e+003;-1.697175e-002
3.313245e+003;-1.707906e-002
3.315174e+003;-1.692717e-002
3.317103e+003;-1.649365e-002
3.319031e+003;-1.677176e-002
3.320960e+003;-1.727553e-002
3.322888e+003;-1.743283e-002
3.324817e+003;-1.756237e-002
3.326745e+003;-1.737296e-002
3.328674e+003;-1.677459e-002
3.330602e+003;-1.662359e-002
3.332531e+003;-1.707233e-002
3.334459e+003;-1.720293e-002
3.336388e+003;-1.701432e-002
3.338317e+003;-1.696859e-002
3.340245e+003;-1.726439e-002
3.342174e+003;-1.747195e-002
3.344102e+003;-1.704733e-002
3.346031e+003;-1.682072e-002
3.347959e+003;-1.720133e-002
3.349888e+003;-1.714537e-002
3.351816e+003;-1.677504e-002
3.353745e+003;-1.694097e-002
3.355674e+003;-1.758311e-002
3.357602e+003;-1.765995e-002
3.359531e+003;-1.729540e-002
3.361459e+003;-1.755253e-002
3.363388e+003;-1.753894e-002
3.365316e+003;-1.757554e-002
3.367245e+003;-1.796913e-002
3.369173e+003;-1.777058e-002
3.371102e+003;-1.745734e-002
3.373031e+003;-1.755546e-002
3.374959e+003;-1.787066e-002
3.376887e+003;-1.814430e-002
3.378816e+003;-1.788116e-002
3.380745e+003;-1.774272e-002
3.382673e+003;-1.780264e-002
3.384602e+003;-1.776060e-002
3.386530e+003;-1.799720e-002
3.388459e+003;-1.827466e-002
3.390387e+003;-1.841611e-002
3.392316e+003;-1.828550e-002
3.394244e+003;-1.823311e-002
3.396173e+003;-1.848197e-002
3.398102e+003;-1.864175e-002
3.400030e+003;-1.868606e-002
3.401959e+003;-1.815354e-002
3.403887e+003;-1.804047e-002
3.405816e+003;-1.833493e-002
3.407744e+003;-1.816152e-002
3.409673e+003;-1.802429e-002
3.411601e+003;-1.786996e-002
3.413530e+003;-1.769466e-002
3.415458e+003;-1.793289e-002
3.417387e+003;-1.836348e-002
3.419316e+003;-1.869362e-002
3.421244e+003;-1.858579e-002
3.423173e+003;-1.824331e-002
3.425101e+003;-1.809955e-002
3.427030e+003;-1.817464e-002
3.428958e+003;-1.825808e-002
3.430887e+003;-1.806262e-002
3.432815e+003;-1.803525e-002
3.434744e+003;-1.838590e-002
3.436673e+003;-1.855049e-002
3.438601e+003;-1.854585e-002
3.440530e+003;-1.850296e-002
3.442458e+003;-1.834588e-002
3.444387e+003;-1.811137e-002
3.446315e+003;-1.798856e-002
3.448244e+003;-1.796408e-002
3.450172e+003;-1.756863e-002
3.452101e+003;-1.726623e-002
3.454030e+003;-1.748653e-002
3.455958e+003;-1.785298e-002
3.457886e+003;-1.808522e-002
3.459815e+003;-1.803331e-002
3.461744e+003;-1.788815e-002
3.463672e+003;-1.780035e-002
3.465601e+003;-1.774059e-002
3.467529e+003;-1.767926e-002
3.469458e+003;-1.724879e-002
3.471386e+003;-1.690483e-002
3.473315e+003;-1.711798e-002
3.475243e+003;-1.784220e-002
3.477172e+003;-1.850988e-002
3.479101e+003;-1.865766e-002
3.481029e+003;-1.806856e-002
3.482958e+003;-1.743252e-002
3.484886e+003;-1.756243e-002
3.486815e+003;-1.804056e-002
3.488743e+003;-1.796233e-002
3.490672e+003;-1.772338e-002
3.492600e+003;-1.753054e-002
3.494529e+003;-1.736850e-002
3.496458e+003;-1.760131e-002
3.498386e+003;-1.757812e-002
3.500315e+003;-1.742093e-002
3.502243e+003;-1.770569e-002
3.504172e+003;-1.758073e-002
3.506100e+003;-1.734351e-002
3.508029e+003;-1.762199e-002
3.509957e+003;-1.723468e-002
3.511886e+003;-1.677399e-002
3.513814e+003;-1.698153e-002
3.515743e+003;-1.728340e-002
3.517672e+003;-1.725261e-002
3.519600e+003;-1.719748e-002
3.521529e+003;-1.733475e-002
3.523457e+003;-1.741676e-002
3.525386e+003;-1.702480e-002
3.527314e+003;-1.674115e-002
3.529243e+003;-1.632586e-002
3.531171e+003;-1.635452e-002
3.533100e+003;-1.695502e-002
3.535029e+003;-1.714869e-002
3.536957e+003;-1.692838e-002
3.538885e+003;-1.708071e-002
3.540814e+003;-1.711298e-002
3.542743e+003;-1.711935e-002
3.544671e+003;-1.747580e-002
3.546600e+003;-1.721668e-002
3.548528e+003;-1.647017e-002
3.550457e+003;-1.623136e-002
3.552385e+003;-1.633553e-002
3.554314e+003;-1.683286e-002
3.556242e+003;-1.717592e-002
3.558171e+003;-1.752991e-002
3.560100e+003;-1.797838e-002
3.562028e+003;-1.763660e-002
3.563957e+003;-1.779132e-002
3.565885e+003;-1.875671e-002
3.567814e+003;-1.876794e-002
3.569742e+003;-1.816238e-002
3.571671e+003;-1.769962e-002
3.573599e+003;-1.692787e-002
3.575528e+003;-1.664138e-002
3.577457e+003;-1.694196e-002
3.579385e+003;-1.708100e-002
3.581314e+003;-1.692669e-002
3.583242e+003;-1.690094e-002
3.585171e+003;-1.752631e-002
3.587099e+003;-1.812529e-002
3.589028e+003;-1.814868e-002
3.590956e+003;-1.783476e-002
3.592885e+003;-1.769583e-002
3.594813e+003;-1.794211e-002
3.596742e+003;-1.759336e-002
3.598671e+003;-1.694371e-002
3.600599e+003;-1.649388e-002
3.602528e+003;-1.600647e-002
3.604456e+003;-1.593477e-002
3.606385e+003;-1.655595e-002
3.608313e+003;-1.735360e-002
3.610242e+003;-1.731619e-002
3.612170e+003;-1.693590e-002
3.614099e+003;-1.642707e-002
3.616028e+003;-1.646759e-002
3.617956e+003;-1.743058e-002
3.619885e+003;-1.782780e-002
3.621813e+003;-1.662678e-002
3.623742e+003;-1.590832e-002
3.625670e+003;-1.660924e-002
3.627599e+003;-1.870523e-002
3.629527e+003;-1.911306e-002
3.631456e+003;-1.751040e-002
3.633385e+003;-1.692628e-002
3.635313e+003;-1.639871e-002
3.637241e+003;-1.620279e-002
3.639170e+003;-1.608247e-002
3.641099e+003;-1.586261e-002
3.643027e+003;-1.614750e-002
3.644956e+003;-1.705198e-002
3.646884e+003;-1.916112e-002
3.648813e+003;-2.054596e-002
3.650741e+003;-1.942685e-002
3.652670e+003;-1.816991e-002
3.654598e+003;-1.891573e-002
3.656527e+003;-1.904206e-002
3.658456e+003;-1.759937e-002
3.660384e+003;-1.734160e-002
3.662313e+003;-1.780643e-002
3.664241e+003;-1.785740e-002
3.666170e+003;-1.775900e-002
3.668098e+003;-1.894313e-002
3.670027e+003;-2.069952e-002
3.671955e+003;-2.043059e-002
3.673884e+003;-2.130591e-002
3.675813e+003;-2.189193e-002
3.677741e+003;-2.023984e-002
3.679669e+003;-1.956095e-002
3.681598e+003;-1.891592e-002
3.683527e+003;-1.855887e-002
3.685455e+003;-1.901910e-002
3.687384e+003;-2.097741e-002
3.689312e+003;-2.107994e-002
3.691241e+003;-1.948628e-002
3.693169e+003;-1.810864e-002
3.695098e+003;-1.783168e-002
3.697026e+003;-1.837806e-002
3.698955e+003;-1.894348e-002
3.700884e+003;-1.917628e-002
3.702812e+003;-1.841662e-002
3.704741e+003;-1.778804e-002
3.706669e+003;-1.817121e-002
3.708598e+003;-1.898456e-002
3.710526e+003;-2.028525e-002
3.712455e+003;-2.067529e-002
3.714383e+003;-1.937361e-002
3.716312e+003;-1.843700e-002
3.718240e+003;-1.827339e-002
3.720169e+003;-1.853099e-002
3.722098e+003;-1.887512e-002
3.724026e+003;-1.933273e-002
3.725955e+003;-1.947041e-002
3.727883e+003;-1.871929e-002
3.729812e+003;-1.892137e-002
3.731740e+003;-1.977302e-002
3.733669e+003;-2.015172e-002
3.735597e+003;-2.131390e-002
3.737526e+003;-2.073601e-002
3.739455e+003;-1.953925e-002
3.741383e+003;-2.011262e-002
3.743312e+003;-2.301512e-002
3.745240e+003;-2.220734e-002
3.747169e+003;-2.048047e-002
3.749097e+003;-2.266941e-002
3.751026e+003;-2.353132e-002
3.752954e+003;-2.158490e-002
3.754883e+003;-1.944411e-002
3.756812e+003;-1.914828e-002
3.758740e+003;-1.947757e-002
3.760668e+003;-1.916556e-002
3.762597e+003;-1.811134e-002
3.764526e+003;-1.832441e-002
3.766454e+003;-1.838590e-002
3.768383e+003;-1.835617e-002
3.770311e+003;-1.846339e-002
3.772240e+003;-1.822472e-002
3.774168e+003;-1.813791e-002
3.776097e+003;-1.829547e-002
3.778025e+003;-1.837469e-002
3.779954e+003;-1.792208e-002
3.781883e+003;-1.744070e-002
3.783811e+003;-1.784522e-002
3.785740e+003;-1.803792e-002
3.787668e+003;-1.760583e-002
3.789597e+003;-1.708629e-002
3.791525e+003;-1.732679e-002
3.793454e+003;-1.738181e-002
3.795382e+003;-1.751991e-002
3.797311e+003;-1.764188e-002
3.799240e+003;-1.882718e-002
3.801168e+003;-2.045142e-002
3.803097e+003;-1.936240e-002
3.805025e+003;-1.892471e-002
3.806954e+003;-1.954267e-002
3.808882e+003;-1.823079e-002
3.810811e+003;-1.710938e-002
3.812739e+003;-1.729932e-002
3.814668e+003;-1.950060e-002
3.816596e+003;-2.000657e-002
3.818525e+003;-1.882503e-002
3.820454e+003;-1.975640e-002
3.822382e+003;-1.895696e-002
3.824311e+003;-1.736614e-002
3.826239e+003;-1.753242e-002
3.828168e+003;-1.753073e-002
3.830096e+003;-1.753955e-002
3.832025e+003;-1.778903e-002
3.833953e+003;-1.800534e-002
3.835882e+003;-1.946186e-002
3.837811e+003;-2.035630e-002
3.839739e+003;-1.865861e-002
3.841667e+003;-1.805811e-002
3.843596e+003;-1.776260e-002
3.845525e+003;-1.678320e-002
3.847453e+003;-1.636524e-002
3.849382e+003;-1.725003e-002
3.851310e+003;-2.036493e-002
3.853239e+003;-2.282411e-002
3.855167e+003;-2.010367e-002
3.857096e+003;-1.703098e-002
3.859024e+003;-1.661826e-002
3.860953e+003;-1.697274e-002
3.862882e+003;-1.765553e-002
3.864810e+003;-1.783082e-002
3.866739e+003;-1.701760e-002
3.868667e+003;-1.799145e-002
3.870596e+003;-1.798875e-002
3.872524e+003;-1.691184e-002
3.874453e+003;-1.668258e-002
3.876381e+003;-1.624805e-002
3.878310e+003;-1.657170e-002
3.880239e+003;-1.720210e-002
3.882167e+003;-1.705956e-002
3.884096e+003;-1.761999e-002
3.886024e+003;-1.717458e-002
3.887953e+003;-1.576625e-002
3.889881e+003;-1.667531e-002
3.891810e+003;-1.701875e-002
3.893738e+003;-1.606385e-002
3.895667e+003;-1.611663e-002
3.897595e+003;-1.677326e-002
3.899524e+003;-1.779663e-002
3.901453e+003;-1.854258e-002
3.903381e+003;-1.828905e-002
3.905310e+003;-1.747195e-002
3.907238e+003;-1.687685e-002
3.909167e+003;-1.596003e-002
3.911095e+003;-1.530163e-002
3.913024e+003;-1.576414e-002
3.914952e+003;-1.694814e-002
3.916881e+003;-1.767392e-002
3.918810e+003;-1.678872e-002
3.920738e+003;-1.614125e-002
3.922667e+003;-1.652198e-002
3.924595e+003;-1.681603e-002
3.926524e+003;-1.645856e-002
3.928452e+003;-1.632366e-002
3.930381e+003;-1.628747e-002
3.932309e+003;-1.612088e-002
3.934238e+003;-1.575673e-002
3.936167e+003;-1.518912e-002
3.938095e+003;-1.532092e-002
3.940023e+003;-1.576472e-002
3.941952e+003;-1.549783e-002
3.943881e+003;-1.526385e-002
3.945809e+003;-1.549012e-002
3.947738e+003;-1.547439e-002
3.949666e+003;-1.486159e-002
3.951595e+003;-1.503327e-002
3.953523e+003;-1.519936e-002
3.955452e+003;-1.547903e-002
3.957380e+003;-1.614182e-002
3.959309e+003;-1.614591e-002
3.961238e+003;-1.558916e-002
3.963166e+003;-1.503132e-002
3.965095e+003;-1.487609e-002
3.967023e+003;-1.517719e-002
3.968952e+003;-1.572656e-002
3.970880e+003;-1.603083e-002
3.972809e+003;-1.595473e-002
3.974737e+003;-1.578382e-002
3.976666e+003;-1.554438e-002
3.978594e+003;-1.501490e-002
3.980523e+003;-1.492674e-002
3.982452e+003;-1.542937e-002
3.984380e+003;-1.530473e-002
3.986309e+003;-1.495005e-002
3.988237e+003;-1.490216e-002
3.990166e+003;-1.488266e-002
3.992094e+003;-1.495636e-002
3.994023e+003;-1.540030e-002
3.995951e+003;-1.545808e-002
3.997880e+003;-1.516004e-002
3.999809e+003;-1.524591e-002
4.001737e+003;0.000000e+000
