3.992094e+002;0.000000e+000
4.011380e+002;0.000000e+000
4.030665e+002;0.000000e+000
4.049951e+002;0.000000e+000
4.069236e+002;0.000000e+000
4.088522e+002;0.000000e+000
4.107807e+002;0.000000e+000
4.127093e+002;0.000000e+000
4.146378e+002;0.000000e+000
4.165664e+002;0.000000e+000
4.184949e+002;0.000000e+000
4.204235e+002;0.000000e+000
4.223520e+002;0.000000e+000
4.242806e+002;0.000000e+000
4.262091e+002;0.000000e+000
4.281377e+002;0.000000e+000
4.300662e+002;0.000000e+000
4.319948e+002;0.000000e+000
4.339233e+002;0.000000e+000
4.358519e+002;0.000000e+000
4.377804e+002;0.000000e+000
4.397090e+002;0.000000e+000
4.416375e+002;0.000000e+000
4.435660e+002;0.000000e+000
4.454946e+002;0.000000e+000
4.474232e+002;0.000000e+000
4.493517e+002;0.000000e+000
4.512802e+002;0.000000e+000
4.532088e+002;0.000000e+000
4.551373e+002;0.000000e+000
4.570659e+002;0.000000e+000
4.589944e+002;0.000000e+000
4.609230e+002;0.000000e+000
4.628515e+002;0.000000e+000
4.647801e+002;0.000000e+000
4.667086e+002;0.000000e+000
4.686372e+002;0.000000e+000
4.705657e+002;0.000000e+000
4.724943e+002;0.000000e+000
4.744228e+002;0.000000e+000
4.763513e+002;0.000000e+000
4.782799e+002;0.000000e+000
4.802085e+002;0.000000e+000
4.821370e+002;0.000000e+000
4.840656e+002;0.000000e+000
4.859941e+002;0.000000e+000
4.879226e+002;0.000000e+000
4.898512e+002;0.000000e+000
4.917798e+002;0.000000e+000
4.937083e+002;0.000000e+000
4.956368e+002;0.000000e+000
4.975654e+002;0.000000e+000
4.994939e+002;0.000000e+000
5.014225e+002;0.000000e+000
5.033510e+002;0.000000e+000
5.052796e+002;0.000000e+000
5.072081e+002;0.000000e+000
5.091367e+002;0.000000e+000
5.110652e+002;0.000000e+000
5.129938e+002;0.000000e+000
5.149223e+002;0.000000e+000
5.168509e+002;0.000000e+000
5.187794e+002;0.000000e+000
5.207079e+002;0.000000e+000
5.226365e+002;0.000000e+000
5.245651e+002;0.000000e+000
5.264936e+002;0.000000e+000
5.284222e+002;0.000000e+000
5.303507e+002;0.000000e+000
5.322792e+002;0.000000e+000
5.342078e+002;0.000000e+000
5.361364e+002;0.000000e+000
5.380649e+002;0.000000e+000
5.399935e+002;0.000000e+000
5.419220e+002;0.000000e+000
5.438505e+002;0.000000e+000
5.457791e+002;0.000000e+000
5.477076e+002;0.000000e+000
5.496362e+002;0.000000e+000
5.515648e+002;0.000000e+000
5.534933e+002;0.000000e+000
5.554218e+002;0.000000e+000
5.573504e+002;0.000000e+000
5.592789e+002;0.000000e+000
5.612075e+002;0.000000e+000
5.631360e+002;0.000000e+000
5.650646e+002;0.000000e+000
5.669931e+002;0.000000e+000
5.689217e+002;0.000000e+000
5.708502e+002;0.000000e+000
5.727787e+002;0.000000e+000
5.747073e+002;0.000000e+000
5.766359e+002;0.000000e+000
5.785644e+002;0.000000e+000
5.804930e+002;0.000000e+000
5.824215e+002;0.000000e+000
5.843500e+002;0.000000e+000
5.862786e+002;0.000000e+000
5.882072e+002;0.000000e+000
5.901357e+002;0.000000e+000
5.920643e+002;0.000000e+000
5.939928e+002;0.000000e+000
5.959213e+002;0.000000e+000
5.978499e+002;0.000000e+000
5.997784e+002;5.861240e-002
6.017070e+002;6.491620e-002
6.036355e+002;6.646562e-002
6.055641e+002;6.820028e-002
6.074926e+002;6.702202e-002
6.094211e+002;6.810043e-002
6.113497e+002;6.761180e-002
6.132783e+002;6.807338e-002
6.152068e+002;6.744945e-002
6.171354e+002;6.506179e-002
6.190639e+002;6.659334e-002
6.209924e+002;6.483003e-002
6.229210e+002;6.217568e-002
6.248495e+002;6.380494e-002
6.267781e+002;6.390788e-002
6.287067e+002;6.440055e-002
6.306352e+002;6.552213e-002
6.325637e+002;6.419810e-002
6.344923e+002;6.615478e-002
6.364208e+002;6.737713e-002
6.383494e+002;6.772366e-002
6.402780e+002;6.478667e-002
6.422065e+002;6.279176e-002
6.441350e+002;6.391840e-002
6.460636e+002;6.768343e-002
6.479921e+002;6.822665e-002
6.499207e+002;6.590925e-002
6.518492e+002;6.373057e-002
6.537778e+002;6.246850e-002
6.557063e+002;6.202055e-002
6.576349e+002;6.127696e-002
6.595634e+002;6.121958e-002
6.614919e+002;6.215526e-002
6.634205e+002;6.380114e-002
6.653491e+002;6.326204e-002
6.672776e+002;6.279410e-002
6.692062e+002;6.344729e-002
6.711347e+002;6.377850e-002
6.730632e+002;6.425477e-002
6.749918e+002;6.465061e-002
6.769203e+002;6.550139e-002
6.788489e+002;6.764540e-002
6.807775e+002;6.897122e-002
6.827060e+002;6.719255e-002
6.846345e+002;6.593038e-002
6.865631e+002;6.590651e-002
6.884916e+002;6.504104e-002
6.904202e+002;6.516699e-002
6.923488e+002;6.606485e-002
6.942773e+002;6.528981e-002
6.962058e+002;6.455275e-002
6.981344e+002;6.458086e-002
7.000629e+002;6.395191e-002
7.019915e+002;6.475848e-002
7.039200e+002;6.576370e-002
7.058486e+002;6.576674e-002
7.077771e+002;6.593096e-002
7.097057e+002;6.534034e-002
7.116342e+002;6.452131e-002
7.135627e+002;6.316753e-002
7.154913e+002;6.215962e-002
7.174199e+002;6.287879e-002
7.193484e+002;6.337812e-002
7.212770e+002;6.321973e-002
7.232055e+002;6.356027e-002
7.251340e+002;6.382996e-002
7.270626e+002;6.416561e-002
7.289911e+002;6.459255e-002
7.309197e+002;6.526274e-002
7.328483e+002;6.575421e-002
7.347768e+002;6.560871e-002
7.367053e+002;6.542651e-002
7.386339e+002;6.549800e-002
7.405624e+002;6.695873e-002
7.424910e+002;6.859780e-002
7.444196e+002;6.892290e-002
7.463481e+002;6.957722e-002
7.482766e+002;7.079131e-002
7.502052e+002;7.225272e-002
7.521337e+002;7.251244e-002
7.540623e+002;7.137745e-002
7.559908e+002;7.094742e-002
7.579194e+002;7.129572e-002
7.598479e+002;7.164583e-002
7.617765e+002;7.175518e-002
7.637050e+002;7.181162e-002
7.656335e+002;7.152139e-002
7.675621e+002;7.125332e-002
7.694907e+002;7.164891e-002
7.714192e+002;7.232895e-002
7.733478e+002;7.182468e-002
7.752763e+002;7.089394e-002
7.772048e+002;7.089659e-002
7.791334e+002;7.121193e-002
7.810620e+002;7.092120e-002
7.829905e+002;7.057983e-002
7.849191e+002;7.059799e-002
7.868476e+002;6.947071e-002
7.887761e+002;6.820893e-002
7.907047e+002;6.808977e-002
7.926332e+002;6.810516e-002
7.945618e+002;6.825235e-002
7.964903e+002;6.816400e-002
7.984189e+002;6.734021e-002
8.003474e+002;6.739110e-002
8.022759e+002;6.752434e-002
8.042045e+002;6.701370e-002
8.061331e+002;6.639083e-002
8.080616e+002;6.590096e-002
8.099902e+002;6.527483e-002
8.119187e+002;6.517360e-002
8.138472e+002;6.550914e-002
8.157758e+002;6.618222e-002
8.177043e+002;6.576921e-002
8.196329e+002;6.462696e-002
8.215615e+002;6.456813e-002
8.234900e+002;6.532589e-002
8.254185e+002;6.586564e-002
8.273471e+002;6.656480e-002
8.292756e+002;6.758323e-002
8.312042e+002;6.823611e-002
8.331328e+002;6.848501e-002
8.350613e+002;6.841768e-002
8.369898e+002;6.794864e-002
8.389184e+002;6.753670e-002
8.408469e+002;6.661489e-002
8.427755e+002;6.580059e-002
8.447040e+002;6.473683e-002
8.466326e+002;6.338947e-002
8.485611e+002;6.215924e-002
8.504897e+002;6.158845e-002
8.524182e+002;6.105656e-002
8.543467e+002;5.990456e-002
8.562753e+002;5.905182e-002
8.582039e+002;5.882519e-002
8.601324e+002;5.839338e-002
8.620610e+002;5.795363e-002
8.639895e+002;5.812844e-002
8.659180e+002;5.845012e-002
8.678466e+002;5.881984e-002
8.697751e+002;5.904507e-002
8.717037e+002;5.882018e-002
8.736323e+002;5.917365e-002
8.755608e+002;5.917100e-002
8.774893e+002;5.837950e-002
8.794179e+002;5.792523e-002
8.813464e+002;5.807795e-002
8.832750e+002;5.839849e-002
8.852036e+002;5.834138e-002
8.871321e+002;5.818428e-002
8.890606e+002;5.801016e-002
8.909892e+002;5.819799e-002
8.929177e+002;5.837124e-002
8.948463e+002;5.781787e-002
8.967748e+002;5.717697e-002
8.987034e+002;5.712584e-002
9.006319e+002;5.752658e-002
9.025605e+002;5.727211e-002
9.044890e+002;5.706662e-002
9.064175e+002;5.779580e-002
9.083461e+002;5.809636e-002
9.102747e+002;5.797199e-002
9.122032e+002;5.793159e-002
9.141318e+002;5.804583e-002
9.160603e+002;5.800043e-002
9.179888e+002;5.769891e-002
9.199174e+002;5.766259e-002
9.218459e+002;5.807492e-002
9.237745e+002;5.829564e-002
9.257031e+002;5.828616e-002
9.276316e+002;5.861145e-002
9.295601e+002;5.934201e-002
9.314887e+002;5.965756e-002
9.334172e+002;5.943463e-002
9.353458e+002;5.965668e-002
9.372744e+002;5.985835e-002
9.392029e+002;6.024461e-002
9.411314e+002;6.067274e-002
9.430600e+002;6.075284e-002
9.449885e+002;6.113654e-002
9.469171e+002;6.220623e-002
9.488456e+002;6.305193e-002
9.507742e+002;6.314419e-002
9.527027e+002;6.309856e-002
9.546313e+002;6.352134e-002
9.565598e+002;6.395203e-002
9.584883e+002;6.367999e-002
9.604169e+002;6.321578e-002
9.623455e+002;6.333897e-002
9.642740e+002;6.364225e-002
9.662026e+002;6.373874e-002
9.681311e+002;6.361558e-002
9.700596e+002;6.276204e-002
9.719882e+002;6.218749e-002
9.739167e+002;6.219625e-002
9.758453e+002;6.217679e-002
9.777739e+002;6.188222e-002
9.797024e+002;6.175618e-002
9.816309e+002;6.206386e-002
9.835595e+002;6.268866e-002
9.854880e+002;6.326112e-002
9.874166e+002;6.322011e-002
9.893452e+002;6.312070e-002
9.912737e+002;6.345288e-002
9.932022e+002;6.351471e-002
9.951307e+002;6.375144e-002
9.970593e+002;6.426414e-002
9.989879e+002;6.476259e-002
1.000916e+003;6.508638e-002
1.002845e+003;6.558647e-002
1.004773e+003;6.615879e-002
1.006702e+003;6.660153e-002
1.008631e+003;6.725966e-002
1.010559e+003;6.766465e-002
1.012488e+003;6.806532e-002
1.014416e+003;6.870957e-002
1.016345e+003;6.951648e-002
1.018273e+003;7.043052e-002
1.020202e+003;7.132844e-002
1.022130e+003;7.213484e-002
1.024059e+003;7.332437e-002
1.025988e+003;7.493804e-002
1.027916e+003;7.587197e-002
1.029845e+003;7.756396e-002
1.031773e+003;8.007877e-002
1.033702e+003;8.258647e-002
1.035630e+003;8.501563e-002
1.037559e+003;8.627348e-002
1.039487e+003;8.622381e-002
1.041416e+003;8.562142e-002
1.043344e+003;8.496877e-002
1.045273e+003;8.419584e-002
1.047202e+003;8.423860e-002
1.049130e+003;8.557493e-002
1.051059e+003;8.695003e-002
1.052987e+003;8.768052e-002
1.054916e+003;8.848457e-002
1.056844e+003;8.999524e-002
1.058773e+003;9.161714e-002
1.060701e+003;9.335721e-002
1.062630e+003;9.503503e-002
1.064558e+003;9.655107e-002
1.066487e+003;9.683638e-002
1.068416e+003;9.630847e-002
1.070344e+003;9.569400e-002
1.072273e+003;9.488034e-002
1.074201e+003;9.389030e-002
1.076130e+003;9.264407e-002
1.078058e+003;9.176204e-002
1.079987e+003;9.067799e-002
1.081915e+003;8.889736e-002
1.083844e+003;8.790115e-002
1.085773e+003;8.712647e-002
1.087701e+003;8.522789e-002
1.089630e+003;8.362076e-002
1.091558e+003;8.253850e-002
1.093487e+003;8.136829e-002
1.095415e+003;8.036760e-002
1.097344e+003;7.974485e-002
1.099272e+003;7.953899e-002
1.101201e+003;7.964235e-002
1.103129e+003;7.953179e-002
1.105058e+003;7.882572e-002
1.106987e+003;7.827011e-002
1.108915e+003;7.799857e-002
1.110844e+003;7.745590e-002
1.112772e+003;7.660590e-002
1.114701e+003;7.543053e-002
1.116629e+003;7.410658e-002
1.118558e+003;7.300588e-002
1.120486e+003;7.172739e-002
1.122415e+003;7.041080e-002
1.124344e+003;6.930328e-002
1.126272e+003;6.778400e-002
1.128201e+003;6.629452e-002
1.130129e+003;6.523729e-002
1.132058e+003;6.485557e-002
1.133986e+003;6.488770e-002
1.135915e+003;6.491739e-002
1.137843e+003;6.502422e-002
1.139772e+003;6.585453e-002
1.141700e+003;6.736935e-002
1.143629e+003;6.906548e-002
1.145557e+003;7.117692e-002
1.147486e+003;7.416525e-002
1.149415e+003;7.707414e-002
1.151343e+003;7.993651e-002
1.153272e+003;8.329571e-002
1.155200e+003;8.685496e-002
1.157129e+003;9.055042e-002
1.159057e+003;9.425446e-002
1.160986e+003;9.740698e-002
1.162914e+003;1.003436e-001
1.164843e+003;1.026398e-001
1.166771e+003;1.035142e-001
1.168700e+003;1.038058e-001
1.170629e+003;1.038212e-001
1.172557e+003;1.029347e-001
1.174486e+003;1.014115e-001
1.176414e+003;9.957336e-002
1.178343e+003;9.740938e-002
1.180271e+003;9.594452e-002
1.182200e+003;9.538988e-002
1.184128e+003;9.472239e-002
1.186057e+003;9.457958e-002
1.187986e+003;9.519412e-002
1.189914e+003;9.607104e-002
1.191843e+003;9.688061e-002
1.193771e+003;9.755292e-002
1.195700e+003;9.808671e-002
1.197628e+003;9.829748e-002
1.199557e+003;9.816740e-002
1.201485e+003;9.784490e-002
1.203414e+003;9.784590e-002
1.205343e+003;9.779879e-002
1.207271e+003;9.729541e-002
1.209200e+003;9.685075e-002
1.211128e+003;9.689274e-002
1.213057e+003;9.643757e-002
1.214985e+003;9.621761e-002
1.216914e+003;9.637448e-002
1.218842e+003;9.622236e-002
1.220771e+003;9.605426e-002
1.222699e+003;9.565621e-002
1.224628e+003;9.570052e-002
1.226557e+003;9.586878e-002
1.228485e+003;9.569297e-002
1.230414e+003;9.549175e-002
1.232342e+003;9.513629e-002
1.234271e+003;9.442854e-002
1.236199e+003;9.365378e-002
1.238128e+003;9.321189e-002
1.240056e+003;9.299343e-002
1.241985e+003;9.291205e-002
1.243913e+003;9.302516e-002
1.245842e+003;9.320175e-002
1.247771e+003;9.318011e-002
1.249699e+003;9.263599e-002
1.251628e+003;9.243462e-002
1.253556e+003;9.239462e-002
1.255485e+003;9.199041e-002
1.257413e+003;9.184096e-002
1.259342e+003;9.165384e-002
1.261270e+003;9.149347e-002
1.263199e+003;9.084370e-002
1.265127e+003;9.004734e-002
1.267056e+003;8.938654e-002
1.268985e+003;8.876669e-002
1.270913e+003;8.814985e-002
1.272842e+003;8.728484e-002
1.274770e+003;8.637954e-002
1.276699e+003;8.556411e-002
1.278627e+003;8.448389e-002
1.280556e+003;8.328427e-002
1.282484e+003;8.231641e-002
1.284413e+003;8.118830e-002
1.286342e+003;8.009630e-002
1.288270e+003;7.925528e-002
1.290199e+003;7.837662e-002
1.292127e+003;7.774391e-002
1.294056e+003;7.726799e-002
1.295984e+003;7.648935e-002
1.297913e+003;7.557956e-002
1.299841e+003;7.519712e-002
1.301770e+003;7.520551e-002
1.303698e+003;7.509855e-002
1.305627e+003;7.494654e-002
1.307556e+003;7.485346e-002
1.309484e+003;7.479584e-002
1.311413e+003;7.474203e-002
1.313341e+003;7.481497e-002
1.315270e+003;7.487882e-002
1.317198e+003;7.468836e-002
1.319127e+003;7.467844e-002
1.321055e+003;7.510931e-002
1.322984e+003;7.534973e-002
1.324912e+003;7.511234e-002
1.326841e+003;7.524601e-002
1.328770e+003;7.587241e-002
1.330698e+003;7.642159e-002
1.332627e+003;7.696909e-002
1.334555e+003;7.755599e-002
1.336484e+003;7.800737e-002
1.338412e+003;7.862514e-002
1.340341e+003;7.944958e-002
1.342269e+003;8.016719e-002
1.344198e+003;8.087432e-002
1.346126e+003;8.139662e-002
1.348055e+003;8.175689e-002
1.349984e+003;8.216666e-002
1.351912e+003;8.268198e-002
1.353841e+003;8.267415e-002
1.355769e+003;8.248065e-002
1.357698e+003;8.237192e-002
1.359626e+003;8.210200e-002
1.361555e+003;8.171938e-002
1.363483e+003;8.118170e-002
1.365412e+003;8.069159e-002
1.367341e+003;8.016507e-002
1.369269e+003;7.936831e-002
1.371198e+003;7.863558e-002
1.373126e+003;7.786884e-002
1.375055e+003;7.716187e-002
1.376983e+003;7.661475e-002
1.378912e+003;7.616340e-002
1.380840e+003;7.567263e-002
1.382769e+003;7.493083e-002
1.384698e+003;7.412257e-002
1.386626e+003;7.305774e-002
1.388555e+003;7.182515e-002
1.390483e+003;7.045191e-002
1.392412e+003;6.886221e-002
1.394340e+003;6.691760e-002
1.396269e+003;6.505408e-002
1.398197e+003;6.356859e-002
1.400126e+003;6.248430e-002
1.402054e+003;6.172578e-002
1.403983e+003;6.123327e-002
1.405911e+003;6.095501e-002
1.407840e+003;6.072441e-002
1.409769e+003;6.085224e-002
1.411697e+003;6.151607e-002
1.413626e+003;6.214146e-002
1.415554e+003;6.275642e-002
1.417483e+003;6.365675e-002
1.419411e+003;6.517095e-002
1.421340e+003;6.704196e-002
1.423268e+003;6.946313e-002
1.425197e+003;7.297166e-002
1.427125e+003;7.740367e-002
1.429054e+003;8.210397e-002
1.430983e+003;8.684509e-002
1.432911e+003;9.103076e-002
1.434840e+003;9.459788e-002
1.436768e+003;9.811432e-002
1.438697e+003;1.017927e-001
1.440625e+003;1.056230e-001
1.442554e+003;1.095845e-001
1.444482e+003;1.136503e-001
1.446411e+003;1.173014e-001
1.448340e+003;1.198668e-001
1.450268e+003;1.211097e-001
1.452197e+003;1.207618e-001
1.454125e+003;1.178560e-001
1.456054e+003;1.125494e-001
1.457982e+003;1.056830e-001
1.459911e+003;9.826981e-002
1.461839e+003;9.106443e-002
1.463768e+003;8.426414e-002
1.465697e+003;7.827765e-002
1.467625e+003;7.379163e-002
1.469554e+003;7.019545e-002
1.471482e+003;6.706172e-002
1.473411e+003;6.428185e-002
1.475339e+003;6.197358e-002
1.477268e+003;6.046700e-002
1.479196e+003;5.968025e-002
1.481125e+003;5.896210e-002
1.483053e+003;5.848697e-002
1.484982e+003;5.806576e-002
1.486911e+003;5.766229e-002
1.488839e+003;5.721345e-002
1.490768e+003;5.639650e-002
1.492696e+003;5.562536e-002
1.494625e+003;5.512449e-002
1.496553e+003;5.481128e-002
1.498482e+003;5.469131e-002
1.500410e+003;5.472100e-002
1.502339e+003;5.464249e-002
1.504267e+003;5.407061e-002
1.506196e+003;5.353573e-002
1.508125e+003;5.376394e-002
1.510053e+003;5.414613e-002
1.511982e+003;5.442340e-002
1.513910e+003;5.455239e-002
1.515839e+003;5.437191e-002
1.517767e+003;5.434893e-002
1.519696e+003;5.422315e-002
1.521624e+003;5.411584e-002
1.523553e+003;5.419271e-002
1.525481e+003;5.405369e-002
1.527410e+003;5.398739e-002
1.529339e+003;5.388692e-002
1.531267e+003;5.392001e-002
1.533196e+003;5.405020e-002
1.535124e+003;5.427887e-002
1.537053e+003;5.420033e-002
1.538981e+003;5.372592e-002
1.540910e+003;5.387000e-002
1.542838e+003;5.430410e-002
1.544767e+003;5.404367e-002
1.546695e+003;5.384637e-002
1.548624e+003;5.387225e-002
1.550553e+003;5.362229e-002
1.552481e+003;5.303756e-002
1.554410e+003;5.258278e-002
1.556338e+003;5.217054e-002
1.558267e+003;5.148159e-002
1.560195e+003;5.136890e-002
1.562124e+003;5.167079e-002
1.564052e+003;5.144287e-002
1.565981e+003;5.079827e-002
1.567910e+003;5.017693e-002
1.569838e+003;4.975534e-002
1.571767e+003;4.963995e-002
1.573695e+003;4.954643e-002
1.575624e+003;4.932618e-002
1.577552e+003;4.938929e-002
1.579481e+003;4.966755e-002
1.581409e+003;4.969393e-002
1.583338e+003;4.967543e-002
1.585266e+003;4.991336e-002
1.587195e+003;4.990864e-002
1.589124e+003;4.987619e-002
1.591052e+003;5.017656e-002
1.592981e+003;5.025426e-002
1.594909e+003;5.030958e-002
1.596838e+003;5.081875e-002
1.598766e+003;5.158889e-002
1.600695e+003;5.232450e-002
1.602623e+003;5.297306e-002
1.604552e+003;5.345579e-002
1.606480e+003;5.407489e-002
1.608409e+003;5.477775e-002
1.610338e+003;5.545649e-002
1.612266e+003;5.598620e-002
1.614195e+003;5.623603e-002
1.616123e+003;5.648686e-002
1.618052e+003;5.722947e-002
1.619980e+003;5.837677e-002
1.621909e+003;5.923760e-002
1.623837e+003;5.980180e-002
1.625766e+003;6.045397e-002
1.627694e+003;6.158303e-002
1.629623e+003;6.236555e-002
1.631552e+003;6.266700e-002
1.633480e+003;6.327672e-002
1.635409e+003;6.376280e-002
1.637337e+003;6.400355e-002
1.639266e+003;6.414971e-002
1.641194e+003;6.426990e-002
1.643123e+003;6.442722e-002
1.645051e+003;6.417894e-002
1.646980e+003;6.404924e-002
1.648909e+003;6.427412e-002
1.650837e+003;6.409302e-002
1.652766e+003;6.359682e-002
1.654694e+003;6.364930e-002
1.656623e+003;6.370915e-002
1.658551e+003;6.335852e-002
1.660480e+003;6.316059e-002
1.662408e+003;6.315921e-002
1.664337e+003;6.322643e-002
1.666266e+003;6.324200e-002
1.668194e+003;6.304058e-002
1.670123e+003;6.269356e-002
1.672051e+003;6.224821e-002
1.673980e+003;6.173480e-002
1.675908e+003;6.127372e-002
1.677837e+003;6.096695e-002
1.679765e+003;6.053639e-002
1.681694e+003;5.978591e-002
1.683622e+003;5.908884e-002
1.685551e+003;5.906982e-002
1.687479e+003;5.935846e-002
1.689408e+003;5.936188e-002
1.691337e+003;5.935405e-002
1.693265e+003;5.931557e-002
1.695194e+003;5.926874e-002
1.697122e+003;5.947810e-002
1.699051e+003;5.985188e-002
1.700979e+003;6.089184e-002
1.702908e+003;6.258605e-002
1.704836e+003;6.415012e-002
1.706765e+003;6.645230e-002
1.708693e+003;6.956077e-002
1.710622e+003;7.302473e-002
1.712551e+003;7.701475e-002
1.714479e+003;8.136058e-002
1.716408e+003;8.596837e-002
1.718336e+003;9.117551e-002
1.720265e+003;9.666754e-002
1.722193e+003;1.017205e-001
1.724122e+003;1.058653e-001
1.726050e+003;1.091356e-001
1.727979e+003;1.111670e-001
1.729908e+003;1.120271e-001
1.731836e+003;1.111665e-001
1.733765e+003;1.086639e-001
1.735693e+003;1.055298e-001
1.737622e+003;1.017220e-001
1.739550e+003;9.690119e-002
1.741479e+003;9.158771e-002
1.743407e+003;8.611358e-002
1.745336e+003;8.071733e-002
1.747265e+003;7.535340e-002
1.749193e+003;7.039361e-002
1.751122e+003;6.577943e-002
1.753050e+003;6.159869e-002
1.754979e+003;5.785977e-002
1.756907e+003;5.435009e-002
1.758836e+003;5.100875e-002
1.760764e+003;4.802717e-002
1.762693e+003;4.562858e-002
1.764621e+003;4.370161e-002
1.766550e+003;4.197986e-002
1.768479e+003;4.061772e-002
1.770407e+003;3.968674e-002
1.772336e+003;3.887751e-002
1.774264e+003;3.832050e-002
1.776193e+003;3.790436e-002
1.778121e+003;3.742899e-002
1.780050e+003;3.682140e-002
1.781978e+003;3.619020e-002
1.783907e+003;3.587750e-002
1.785835e+003;3.574912e-002
1.787764e+003;3.536089e-002
1.789693e+003;3.496108e-002
1.791621e+003;3.460415e-002
1.793550e+003;3.418973e-002
1.795478e+003;3.368654e-002
1.797407e+003;3.337692e-002
1.799335e+003;3.324262e-002
1.801264e+003;3.301544e-002
1.803192e+003;3.295796e-002
1.805121e+003;3.296153e-002
1.807049e+003;3.259256e-002
1.808978e+003;3.219401e-002
1.810907e+003;3.204374e-002
1.812835e+003;3.175176e-002
1.814764e+003;3.158461e-002
1.816692e+003;3.152803e-002
1.818621e+003;3.136488e-002
1.820549e+003;3.127656e-002
1.822478e+003;3.125936e-002
1.824406e+003;3.127720e-002
1.826335e+003;3.103929e-002
1.828264e+003;3.065055e-002
1.830192e+003;3.042433e-002
1.832121e+003;3.057838e-002
1.834049e+003;3.050771e-002
1.835978e+003;3.027836e-002
1.837906e+003;3.023015e-002
1.839835e+003;3.023346e-002
1.841763e+003;3.015045e-002
1.843692e+003;2.982166e-002
1.845620e+003;2.958501e-002
1.847549e+003;2.969537e-002
1.849478e+003;2.970839e-002
1.851406e+003;2.920604e-002
1.853335e+003;2.913176e-002
1.855263e+003;2.944982e-002
1.857192e+003;2.966231e-002
1.859120e+003;2.967948e-002
1.861049e+003;2.950588e-002
1.862977e+003;2.916709e-002
1.864906e+003;2.904656e-002
1.866834e+003;2.903710e-002
1.868763e+003;2.900518e-002
1.870692e+003;2.905478e-002
1.872620e+003;2.906473e-002
1.874549e+003;2.896728e-002
1.876477e+003;2.889202e-002
1.878406e+003;2.894667e-002
1.880334e+003;2.903345e-002
1.882263e+003;2.877393e-002
1.884191e+003;2.864027e-002
1.886120e+003;2.861196e-002
1.888048e+003;2.842871e-002
1.889977e+003;2.839213e-002
1.891906e+003;2.840069e-002
1.893834e+003;2.845750e-002
1.895763e+003;2.868511e-002
1.897691e+003;2.888869e-002
1.899620e+003;2.893909e-002
1.901548e+003;2.884648e-002
1.903477e+003;2.863868e-002
1.905405e+003;2.862505e-002
1.907334e+003;2.865128e-002
1.909262e+003;2.849798e-002
1.911191e+003;2.852890e-002
1.913120e+003;2.851946e-002
1.915048e+003;2.851471e-002
1.916977e+003;2.837183e-002
1.918905e+003;2.835478e-002
1.920834e+003;2.839832e-002
1.922762e+003;2.851040e-002
1.924691e+003;2.883720e-002
1.926619e+003;2.881918e-002
1.928548e+003;2.866618e-002
1.930477e+003;2.848121e-002
1.932405e+003;2.852593e-002
1.934334e+003;2.866221e-002
1.936262e+003;2.845651e-002
1.938191e+003;2.826110e-002
1.940119e+003;2.819695e-002
1.942048e+003;2.806177e-002
1.943976e+003;2.784028e-002
1.945905e+003;2.779944e-002
1.947833e+003;2.789932e-002
1.949762e+003;2.794893e-002
1.951691e+003;2.793084e-002
1.953619e+003;2.797716e-002
1.955548e+003;2.818497e-002
1.957476e+003;2.831998e-002
1.959405e+003;2.827948e-002
1.961333e+003;2.814346e-002
1.963262e+003;2.815262e-002
1.965190e+003;2.823719e-002
1.967119e+003;2.835396e-002
1.969047e+003;2.838608e-002
1.970976e+003;2.843614e-002
1.972905e+003;2.886320e-002
1.974833e+003;2.899374e-002
1.976762e+003;2.882548e-002
1.978690e+003;2.875708e-002
1.980619e+003;2.884779e-002
1.982547e+003;2.914328e-002
1.984476e+003;2.946180e-002
1.986404e+003;2.944797e-002
1.988333e+003;2.944248e-002
1.990261e+003;2.955958e-002
1.992190e+003;2.967862e-002
1.994119e+003;2.976208e-002
1.996047e+003;2.964904e-002
1.997976e+003;2.956362e-002
1.999904e+003;2.955539e-002
2.001833e+003;2.960313e-002
2.003761e+003;2.992352e-002
2.005690e+003;2.998455e-002
2.007618e+003;2.998852e-002
2.009547e+003;3.009558e-002
2.011476e+003;2.981396e-002
2.013404e+003;2.964049e-002
2.015333e+003;2.988451e-002
2.017261e+003;2.995775e-002
2.019190e+003;2.981325e-002
2.021118e+003;2.981882e-002
2.023047e+003;2.991582e-002
2.024975e+003;2.980796e-002
2.026904e+003;2.964081e-002
2.028833e+003;2.983923e-002
2.030761e+003;3.008074e-002
2.032690e+003;2.997610e-002
2.034618e+003;2.991224e-002
2.036547e+003;2.990112e-002
2.038475e+003;2.984820e-002
2.040404e+003;2.980370e-002
2.042332e+003;2.964804e-002
2.044261e+003;2.957348e-002
2.046189e+003;2.961126e-002
2.048118e+003;2.970197e-002
2.050047e+003;2.964244e-002
2.051975e+003;2.949180e-002
2.053904e+003;2.953936e-002
2.055832e+003;2.950035e-002
2.057761e+003;2.945570e-002
2.059689e+003;2.943557e-002
2.061618e+003;2.932538e-002
2.063546e+003;2.927837e-002
2.065475e+003;2.928174e-002
2.067404e+003;2.935976e-002
2.069332e+003;2.939646e-002
2.071260e+003;2.915908e-002
2.073189e+003;2.908655e-002
2.075118e+003;2.937487e-002
2.077046e+003;2.947790e-002
2.078975e+003;2.929230e-002
2.080903e+003;2.934615e-002
2.082832e+003;2.943138e-002
2.084760e+003;2.935274e-002
2.086689e+003;2.948670e-002
2.088617e+003;2.934629e-002
2.090546e+003;2.912145e-002
2.092475e+003;2.916603e-002
2.094403e+003;2.905173e-002
2.096332e+003;2.890473e-002
2.098260e+003;2.904900e-002
2.100189e+003;2.928883e-002
2.102117e+003;2.933144e-002
2.104046e+003;2.917404e-002
2.105974e+003;2.907380e-002
2.107903e+003;2.917333e-002
2.109832e+003;2.920356e-002
2.111760e+003;2.903040e-002
2.113688e+003;2.897575e-002
2.115617e+003;2.919285e-002
2.117546e+003;2.934151e-002
2.119474e+003;2.928720e-002
2.121403e+003;2.915862e-002
2.123331e+003;2.895389e-002
2.125260e+003;2.871357e-002
2.127188e+003;2.861978e-002
2.129117e+003;2.855144e-002
2.131045e+003;2.843454e-002
2.132974e+003;2.857030e-002
2.134903e+003;2.865418e-002
2.136831e+003;2.851305e-002
2.138760e+003;2.831701e-002
2.140688e+003;2.849862e-002
2.142617e+003;2.866175e-002
2.144545e+003;2.839885e-002
2.146474e+003;2.826781e-002
2.148402e+003;2.829773e-002
2.150331e+003;2.826131e-002
2.152260e+003;2.836875e-002
2.154188e+003;2.867418e-002
2.156117e+003;2.889354e-002
2.158045e+003;2.894674e-002
2.159974e+003;2.871510e-002
2.161902e+003;2.857526e-002
2.163831e+003;2.864162e-002
2.165759e+003;2.869934e-002
2.167688e+003;2.868377e-002
2.169616e+003;2.873450e-002
2.171545e+003;2.891957e-002
2.173474e+003;2.928022e-002
2.175402e+003;2.958600e-002
2.177331e+003;2.970796e-002
2.179259e+003;3.004814e-002
2.181188e+003;3.071694e-002
2.183116e+003;3.149667e-002
2.185045e+003;3.229618e-002
2.186973e+003;3.312971e-002
2.188902e+003;3.403694e-002
2.190831e+003;3.458356e-002
2.192759e+003;3.456569e-002
2.194688e+003;3.439311e-002
2.196616e+003;3.417984e-002
2.198545e+003;3.366645e-002
2.200473e+003;3.310926e-002
2.202402e+003;3.293258e-002
2.204330e+003;3.317256e-002
2.206259e+003;3.344617e-002
2.208188e+003;3.350228e-002
2.210116e+003;3.369098e-002
2.212044e+003;3.411292e-002
2.213973e+003;3.442536e-002
2.215902e+003;3.474412e-002
2.217830e+003;3.529634e-002
2.219759e+003;3.650428e-002
2.221687e+003;3.802044e-002
2.223616e+003;3.958387e-002
2.225544e+003;4.199698e-002
2.227473e+003;4.582229e-002
2.229401e+003;5.146174e-002
2.231330e+003;5.864178e-002
2.233259e+003;6.673790e-002
2.235187e+003;7.469225e-002
2.237116e+003;8.189218e-002
2.239044e+003;8.776060e-002
2.240973e+003;9.090488e-002
2.242901e+003;9.086265e-002
2.244830e+003;8.837210e-002
2.246758e+003;8.432534e-002
2.248687e+003;7.914040e-002
2.250615e+003;7.375586e-002
2.252544e+003;6.874447e-002
2.254473e+003;6.412294e-002
2.256401e+003;5.971006e-002
2.258330e+003;5.557475e-002
2.260258e+003;5.176575e-002
2.262187e+003;4.834145e-002
2.264115e+003;4.569421e-002
2.266044e+003;4.353243e-002
2.267972e+003;4.139215e-002
2.269901e+003;3.977584e-002
2.271830e+003;3.877446e-002
2.273758e+003;3.805932e-002
2.275687e+003;3.755018e-002
2.277615e+003;3.703626e-002
2.279544e+003;3.672501e-002
2.281472e+003;3.658614e-002
2.283401e+003;3.641189e-002
2.285329e+003;3.616316e-002
2.287258e+003;3.593289e-002
2.289187e+003;3.576013e-002
2.291115e+003;3.561657e-002
2.293043e+003;3.549261e-002
2.294972e+003;3.526647e-002
2.296901e+003;3.507493e-002
2.298829e+003;3.493002e-002
2.300758e+003;3.473565e-002
2.302686e+003;3.460631e-002
2.304615e+003;3.462446e-002
2.306543e+003;3.484793e-002
2.308472e+003;3.474114e-002
2.310400e+003;3.453792e-002
2.312329e+003;3.461337e-002
2.314258e+003;3.447037e-002
2.316186e+003;3.418203e-002
2.318115e+003;3.399380e-002
2.320043e+003;3.398011e-002
2.321972e+003;3.406944e-002
2.323900e+003;3.424537e-002
2.325829e+003;3.424480e-002
2.327757e+003;3.413546e-002
2.329686e+003;3.404909e-002
2.331615e+003;3.376697e-002
2.333543e+003;3.355211e-002
2.335472e+003;3.364569e-002
2.337400e+003;3.372052e-002
2.339329e+003;3.373417e-002
2.341257e+003;3.387693e-002
2.343186e+003;3.409066e-002
2.345114e+003;3.412930e-002
2.347043e+003;3.415507e-002
2.348971e+003;3.434075e-002
2.350900e+003;3.422193e-002
2.352829e+003;3.396857e-002
2.354757e+003;3.392049e-002
2.356686e+003;3.365475e-002
2.358614e+003;3.342584e-002
2.360543e+003;3.358701e-002
2.362471e+003;3.357888e-002
2.364400e+003;3.363538e-002
2.366328e+003;3.393253e-002
2.368257e+003;3.407303e-002
2.370186e+003;3.414740e-002
2.372114e+003;3.409371e-002
2.374042e+003;3.407916e-002
2.375971e+003;3.423727e-002
2.377900e+003;3.464453e-002
2.379828e+003;3.499002e-002
2.381757e+003;3.514545e-002
2.383685e+003;3.528606e-002
2.385614e+003;3.529278e-002
2.387542e+003;3.530413e-002
2.389471e+003;3.502429e-002
2.391399e+003;3.483645e-002
2.393328e+003;3.507131e-002
2.395257e+003;3.546129e-002
2.397185e+003;3.536002e-002
2.399114e+003;3.507123e-002
2.401042e+003;3.510769e-002
2.402971e+003;3.540460e-002
2.404899e+003;3.538619e-002
2.406828e+003;3.520200e-002
2.408756e+003;3.507044e-002
2.410685e+003;3.502522e-002
2.412614e+003;3.511642e-002
2.414542e+003;3.514452e-002
2.416471e+003;3.517459e-002
2.418399e+003;3.499814e-002
2.420328e+003;3.482722e-002
2.422256e+003;3.517897e-002
2.424185e+003;3.553522e-002
2.426113e+003;3.541891e-002
2.428042e+003;3.510845e-002
2.429970e+003;3.495792e-002
2.431899e+003;3.487267e-002
2.433828e+003;3.481666e-002
2.435756e+003;3.489989e-002
2.437685e+003;3.517926e-002
2.439613e+003;3.541847e-002
2.441542e+003;3.525756e-002
2.443470e+003;3.504943e-002
2.445399e+003;3.516309e-002
2.447327e+003;3.511175e-002
2.449256e+003;3.531244e-002
2.451185e+003;3.569829e-002
2.453113e+003;3.558553e-002
2.455042e+003;3.529425e-002
2.456970e+003;3.516855e-002
2.458899e+003;3.525698e-002
2.460827e+003;3.554557e-002
2.462756e+003;3.574013e-002
2.464684e+003;3.594077e-002
2.466613e+003;3.607379e-002
2.468542e+003;3.605021e-002
2.470470e+003;3.603232e-002
2.472398e+003;3.631645e-002
2.474327e+003;3.682876e-002
2.476256e+003;3.707224e-002
2.478184e+003;3.682032e-002
2.480113e+003;3.663664e-002
2.482041e+003;3.684228e-002
2.483970e+003;3.707213e-002
2.485898e+003;3.714279e-002
2.487827e+003;3.745135e-002
2.489755e+003;3.783090e-002
2.491684e+003;3.790256e-002
2.493613e+003;3.795531e-002
2.495541e+003;3.805585e-002
2.497470e+003;3.809292e-002
2.499398e+003;3.815764e-002
2.501327e+003;3.827697e-002
2.503255e+003;3.840798e-002
2.505184e+003;3.838406e-002
2.507112e+003;3.810519e-002
2.509041e+003;3.785082e-002
2.510969e+003;3.817366e-002
2.512898e+003;3.860277e-002
2.514827e+003;3.845631e-002
2.516755e+003;3.854994e-002
2.518684e+003;3.867535e-002
2.520612e+003;3.845906e-002
2.522541e+003;3.835463e-002
2.524469e+003;3.842977e-002
2.526398e+003;3.844929e-002
2.528326e+003;3.844494e-002
2.530255e+003;3.857210e-002
2.532184e+003;3.858694e-002
2.534112e+003;3.855805e-002
2.536041e+003;3.865170e-002
2.537969e+003;3.891218e-002
2.539898e+003;3.914005e-002
2.541826e+003;3.896325e-002
2.543755e+003;3.856279e-002
2.545683e+003;3.843578e-002
2.547612e+003;3.843669e-002
2.549541e+003;3.833621e-002
2.551469e+003;3.827349e-002
2.553397e+003;3.842677e-002
2.555326e+003;3.841149e-002
2.557255e+003;3.821216e-002
2.559183e+003;3.818622e-002
2.561112e+003;3.824288e-002
2.563040e+003;3.806279e-002
2.564969e+003;3.796088e-002
2.566897e+003;3.800753e-002
2.568826e+003;3.771578e-002
2.570754e+003;3.727538e-002
2.572683e+003;3.700700e-002
2.574612e+003;3.687514e-002
2.576540e+003;3.703056e-002
2.578469e+003;3.714626e-002
2.580397e+003;3.729643e-002
2.582326e+003;3.725892e-002
2.584254e+003;3.713648e-002
2.586183e+003;3.671066e-002
2.588111e+003;3.629066e-002
2.590040e+003;3.626843e-002
2.591969e+003;3.659569e-002
2.593897e+003;3.679489e-002
2.595826e+003;3.677026e-002
2.597754e+003;3.670922e-002
2.599683e+003;3.687244e-002
2.601611e+003;3.708245e-002
2.603540e+003;3.694516e-002
2.605468e+003;3.693531e-002
2.607397e+003;3.708606e-002
2.609325e+003;3.718780e-002
2.611254e+003;3.710010e-002
2.613183e+003;3.676550e-002
2.615111e+003;3.681949e-002
2.617040e+003;3.714936e-002
2.618968e+003;3.744774e-002
2.620897e+003;3.738613e-002
2.622825e+003;3.730607e-002
2.624754e+003;3.757067e-002
2.626682e+003;3.778655e-002
2.628611e+003;3.776436e-002
2.630540e+003;3.786980e-002
2.632468e+003;3.776580e-002
2.634396e+003;3.744763e-002
2.636325e+003;3.737732e-002
2.638254e+003;3.777122e-002
2.640182e+003;3.787555e-002
2.642111e+003;3.760943e-002
2.644039e+003;3.751608e-002
2.645968e+003;3.766920e-002
2.647896e+003;3.756944e-002
2.649825e+003;3.730921e-002
2.651753e+003;3.739075e-002
2.653682e+003;3.748718e-002
2.655611e+003;3.741607e-002
2.657539e+003;3.735027e-002
2.659468e+003;3.748039e-002
2.661396e+003;3.759354e-002
2.663325e+003;3.738042e-002
2.665253e+003;3.715406e-002
2.667182e+003;3.747667e-002
2.669110e+003;3.797918e-002
2.671039e+003;3.821451e-002
2.672968e+003;3.806196e-002
2.674896e+003;3.772189e-002
2.676825e+003;3.763043e-002
2.678753e+003;3.773046e-002
2.680682e+003;3.772160e-002
2.682610e+003;3.758805e-002
2.684539e+003;3.757753e-002
2.686467e+003;3.775897e-002
2.688396e+003;3.763364e-002
2.690324e+003;3.756073e-002
2.692253e+003;3.792244e-002
2.694182e+003;3.801451e-002
2.696110e+003;3.769496e-002
2.698039e+003;3.760719e-002
2.699967e+003;3.776707e-002
2.701896e+003;3.807382e-002
2.703824e+003;3.799462e-002
2.705753e+003;3.770928e-002
2.707681e+003;3.789626e-002
2.709610e+003;3.785827e-002
2.711539e+003;3.753931e-002
2.713467e+003;3.738811e-002
2.715396e+003;3.742231e-002
2.717324e+003;3.747613e-002
2.719253e+003;3.744998e-002
2.721181e+003;3.745818e-002
2.723110e+003;3.732972e-002
2.725038e+003;3.714294e-002
2.726967e+003;3.710627e-002
2.728896e+003;3.711194e-002
2.730824e+003;3.695826e-002
2.732752e+003;3.673035e-002
2.734681e+003;3.671116e-002
2.736610e+003;3.693827e-002
2.738538e+003;3.675205e-002
2.740467e+003;3.637236e-002
2.742395e+003;3.626850e-002
2.744324e+003;3.643945e-002
2.746252e+003;3.648100e-002
2.748181e+003;3.640173e-002
2.750109e+003;3.649437e-002
2.752038e+003;3.669613e-002
2.753967e+003;3.667341e-002
2.755895e+003;3.669321e-002
2.757824e+003;3.664522e-002
2.759752e+003;3.653156e-002
2.761681e+003;3.661624e-002
2.763609e+003;3.671412e-002
2.765538e+003;3.678912e-002
2.767466e+003;3.700126e-002
2.769395e+003;3.722127e-002
2.771323e+003;3.736204e-002
2.773252e+003;3.747938e-002
2.775181e+003;3.768788e-002
2.777109e+003;3.812483e-002
2.779038e+003;3.833639e-002
2.780966e+003;3.844947e-002
2.782895e+003;3.872682e-002
2.784823e+003;3.887298e-002
2.786752e+003;3.907435e-002
2.788680e+003;3.947053e-002
2.790609e+003;3.987894e-002
2.792538e+003;4.025324e-002
2.794466e+003;4.040617e-002
2.796395e+003;4.049476e-002
2.798323e+003;4.081867e-002
2.800252e+003;4.117028e-002
2.802180e+003;4.128617e-002
2.804109e+003;4.144562e-002
2.806037e+003;4.200632e-002
2.807966e+003;4.233845e-002
2.809895e+003;4.253592e-002
2.811823e+003;4.272807e-002
2.813751e+003;4.280408e-002
2.815680e+003;4.283901e-002
2.817609e+003;4.276993e-002
2.819537e+003;4.282537e-002
2.821466e+003;4.320006e-002
2.823394e+003;4.340374e-002
2.825323e+003;4.340711e-002
2.827251e+003;4.354694e-002
2.829180e+003;4.379150e-002
2.831108e+003;4.421138e-002
2.833037e+003;4.486937e-002
2.834966e+003;4.561279e-002
2.836894e+003;4.670756e-002
2.838823e+003;4.847005e-002
2.840751e+003;5.023589e-002
2.842680e+003;5.194522e-002
2.844608e+003;5.390459e-002
2.846537e+003;5.623060e-002
2.848465e+003;5.873535e-002
2.850394e+003;6.057395e-002
2.852323e+003;6.161709e-002
2.854251e+003;6.132248e-002
2.856180e+003;6.074217e-002
2.858108e+003;6.063083e-002
2.860037e+003;6.068352e-002
2.861965e+003;6.057875e-002
2.863894e+003;6.042926e-002
2.865822e+003;6.035113e-002
2.867751e+003;6.018946e-002
2.869679e+003;6.031507e-002
2.871608e+003;6.053255e-002
2.873536e+003;6.045957e-002
2.875465e+003;6.029596e-002
2.877394e+003;5.997371e-002
2.879322e+003;5.952673e-002
2.881251e+003;5.943254e-002
2.883179e+003;5.970842e-002
2.885108e+003;5.989577e-002
2.887036e+003;5.999467e-002
2.888965e+003;6.057708e-002
2.890893e+003;6.098094e-002
2.892822e+003;6.128532e-002
2.894750e+003;6.189502e-002
2.896679e+003;6.304181e-002
2.898608e+003;6.384002e-002
2.900536e+003;6.409490e-002
2.902465e+003;6.490774e-002
2.904393e+003;6.645632e-002
2.906322e+003;6.800444e-002
2.908250e+003;6.936757e-002
2.910179e+003;7.084943e-002
2.912107e+003;7.291141e-002
2.914036e+003;7.496615e-002
2.915965e+003;7.699963e-002
2.917893e+003;7.891778e-002
2.919822e+003;7.966575e-002
2.921750e+003;7.977097e-002
2.923679e+003;7.994340e-002
2.925607e+003;7.974095e-002
2.927536e+003;7.936545e-002
2.929464e+003;7.886747e-002
2.931393e+003;7.852698e-002
2.933322e+003;7.842255e-002
2.935250e+003;7.805987e-002
2.937178e+003;7.734404e-002
2.939107e+003;7.640666e-002
2.941036e+003;7.553351e-002
2.942964e+003;7.478250e-002
2.944893e+003;7.382623e-002
2.946821e+003;7.275762e-002
2.948750e+003;7.198136e-002
2.950678e+003;7.144802e-002
2.952607e+003;7.078008e-002
2.954535e+003;7.026766e-002
2.956464e+003;6.957567e-002
2.958393e+003;6.839863e-002
2.960321e+003;6.723116e-002
2.962250e+003;6.634100e-002
2.964178e+003;6.575475e-002
2.966107e+003;6.471344e-002
2.968035e+003;6.357186e-002
2.969964e+003;6.283085e-002
2.971892e+003;6.260955e-002
2.973821e+003;6.224240e-002
2.975750e+003;6.142621e-002
2.977678e+003;6.078573e-002
2.979607e+003;6.020552e-002
2.981535e+003;5.980941e-002
2.983464e+003;5.949907e-002
2.985392e+003;5.911989e-002
2.987321e+003;5.885801e-002
2.989249e+003;5.866632e-002
2.991178e+003;5.834998e-002
2.993106e+003;5.803466e-002
2.995035e+003;5.762838e-002
2.996964e+003;5.697794e-002
2.998892e+003;5.636582e-002
3.000821e+003;5.594120e-002
3.002749e+003;5.588305e-002
3.004678e+003;5.547678e-002
3.006606e+003;5.482154e-002
3.008535e+003;5.468135e-002
3.010463e+003;5.463080e-002
3.012392e+003;5.424568e-002
3.014321e+003;5.378374e-002
3.016249e+003;5.323962e-002
3.018177e+003;5.246420e-002
3.020106e+003;5.207333e-002
3.022035e+003;5.184679e-002
3.023963e+003;5.150624e-002
3.025892e+003;5.135458e-002
3.027820e+003;5.100797e-002
3.029749e+003;5.097171e-002
3.031677e+003;5.090323e-002
3.033606e+003;5.063229e-002
3.035534e+003;5.043036e-002
3.037463e+003;5.012628e-002
3.039392e+003;4.974297e-002
3.041320e+003;4.951746e-002
3.043249e+003;4.921164e-002
3.045177e+003;4.890256e-002
3.047106e+003;4.855189e-002
3.049034e+003;4.821928e-002
3.050963e+003;4.817623e-002
3.052891e+003;4.819466e-002
3.054820e+003;4.760799e-002
3.056749e+003;4.720650e-002
3.058677e+003;4.732893e-002
3.060606e+003;4.740324e-002
3.062534e+003;4.731375e-002
3.064463e+003;4.706922e-002
3.066391e+003;4.680524e-002
3.068320e+003;4.635258e-002
3.070248e+003;4.593604e-002
3.072177e+003;4.578400e-002
3.074105e+003;4.551421e-002
3.076034e+003;4.512917e-002
3.077963e+003;4.495661e-002
3.079891e+003;4.495631e-002
3.081820e+003;4.485556e-002
3.083748e+003;4.506870e-002
3.085677e+003;4.515491e-002
3.087605e+003;4.452860e-002
3.089534e+003;4.401413e-002
3.091462e+003;4.397504e-002
3.093391e+003;4.418126e-002
3.095320e+003;4.412242e-002
3.097248e+003;4.380330e-002
3.099177e+003;4.324694e-002
3.101105e+003;4.280021e-002
3.103034e+003;4.255518e-002
3.104962e+003;4.239729e-002
3.106891e+003;4.217334e-002
3.108819e+003;4.212613e-002
3.110748e+003;4.203688e-002
3.112677e+003;4.208459e-002
3.114605e+003;4.190231e-002
3.116533e+003;4.174624e-002
3.118462e+003;4.197567e-002
3.120391e+003;4.187819e-002
3.122319e+003;4.191264e-002
3.124248e+003;4.192118e-002
3.126176e+003;4.166348e-002
3.128105e+003;4.146385e-002
3.130033e+003;4.107088e-002
3.131962e+003;4.126056e-002
3.133890e+003;4.154354e-002
3.135819e+003;4.147690e-002
3.137748e+003;4.143145e-002
3.139676e+003;4.122445e-002
3.141605e+003;4.089388e-002
3.143533e+003;4.085667e-002
3.145462e+003;4.116489e-002
3.147390e+003;4.149185e-002
3.149319e+003;4.139594e-002
3.151247e+003;4.090803e-002
3.153176e+003;4.057733e-002
3.155104e+003;4.086959e-002
3.157033e+003;4.138869e-002
3.158962e+003;4.131125e-002
3.160890e+003;4.082034e-002
3.162819e+003;4.100591e-002
3.164747e+003;4.141628e-002
3.166676e+003;4.166975e-002
3.168604e+003;4.153458e-002
3.170533e+003;4.129357e-002
3.172461e+003;4.134116e-002
3.174390e+003;4.126595e-002
3.176319e+003;4.098351e-002
3.178247e+003;4.111491e-002
3.180176e+003;4.155423e-002
3.182104e+003;4.164933e-002
3.184033e+003;4.194782e-002
3.185961e+003;4.199373e-002
3.187890e+003;4.175878e-002
3.189818e+003;4.167701e-002
3.191747e+003;4.165848e-002
3.193676e+003;4.152889e-002
3.195604e+003;4.160396e-002
3.197532e+003;4.161702e-002
3.199461e+003;4.136001e-002
3.201390e+003;4.153917e-002
3.203318e+003;4.228603e-002
3.205247e+003;4.274372e-002
3.207175e+003;4.270829e-002
3.209104e+003;4.241315e-002
3.211032e+003;4.218831e-002
3.212961e+003;4.252214e-002
3.214889e+003;4.261479e-002
3.216818e+003;4.246452e-002
3.218747e+003;4.240496e-002
3.220675e+003;4.257330e-002
3.222604e+003;4.277385e-002
3.224532e+003;4.288669e-002
3.226461e+003;4.342073e-002
3.228389e+003;4.347471e-002
3.230318e+003;4.324540e-002
3.232246e+003;4.305185e-002
3.234175e+003;4.307721e-002
3.236104e+003;4.326968e-002
3.238032e+003;4.381925e-002
3.239961e+003;4.368937e-002
3.241889e+003;4.261588e-002
3.243818e+003;4.242024e-002
3.245746e+003;4.292660e-002
3.247675e+003;4.338942e-002
3.249603e+003;4.367655e-002
3.251532e+003;4.355507e-002
3.253460e+003;4.328567e-002
3.255389e+003;4.298245e-002
3.257318e+003;4.304688e-002
3.259246e+003;4.328351e-002
3.261175e+003;4.307692e-002
3.263103e+003;4.325810e-002
3.265032e+003;4.390806e-002
3.266960e+003;4.387859e-002
3.268889e+003;4.357155e-002
3.270817e+003;4.343187e-002
3.272746e+003;4.326345e-002
3.274675e+003;4.310934e-002
3.276603e+003;4.308621e-002
3.278531e+003;4.308372e-002
3.280460e+003;4.319885e-002
3.282389e+003;4.303799e-002
3.284317e+003;4.273326e-002
3.286246e+003;4.253259e-002
3.288174e+003;4.242564e-002
3.290103e+003;4.261457e-002
3.292031e+003;4.252437e-002
3.293960e+003;4.253595e-002
3.295888e+003;4.258332e-002
3.297817e+003;4.270789e-002
3.299746e+003;4.269308e-002
3.301674e+003;4.228052e-002
3.303603e+003;4.215180e-002
3.305531e+003;4.220361e-002
3.307460e+003;4.240603e-002
3.309388e+003;4.237161e-002
3.311317e+003;4.210068e-002
3.313245e+003;4.185700e-002
3.315174e+003;4.173135e-002
3.317103e+003;4.180752e-002
3.319031e+003;4.196950e-002
3.320960e+003;4.154103e-002
3.322888e+003;4.144967e-002
3.324817e+003;4.186134e-002
3.326745e+003;4.143327e-002
3.328674e+003;4.096440e-002
3.330602e+003;4.110912e-002
3.332531e+003;4.100769e-002
3.334459e+003;4.079752e-002
3.336388e+003;4.053179e-002
3.338317e+003;4.047461e-002
3.340245e+003;4.080986e-002
3.342174e+003;4.097845e-002
3.344102e+003;4.086734e-002
3.346031e+003;4.076811e-002
3.347959e+003;4.072615e-002
3.349888e+003;4.033083e-002
3.351816e+003;3.972188e-002
3.353745e+003;3.969545e-002
3.355674e+003;4.003137e-002
3.357602e+003;3.997331e-002
3.359531e+003;3.980282e-002
3.361459e+003;3.985748e-002
3.363388e+003;3.975227e-002
3.365316e+003;3.951796e-002
3.367245e+003;3.915727e-002
3.369173e+003;3.867781e-002
3.371102e+003;3.825866e-002
3.373031e+003;3.831504e-002
3.374959e+003;3.829701e-002
3.376887e+003;3.848089e-002
3.378816e+003;3.848075e-002
3.380745e+003;3.811177e-002
3.382673e+003;3.804655e-002
3.384602e+003;3.801194e-002
3.386530e+003;3.763592e-002
3.388459e+003;3.726329e-002
3.390387e+003;3.689935e-002
3.392316e+003;3.664807e-002
3.394244e+003;3.695797e-002
3.396173e+003;3.751778e-002
3.398102e+003;3.777621e-002
3.400030e+003;3.710966e-002
3.401959e+003;3.686230e-002
3.403887e+003;3.714547e-002
3.405816e+003;3.678617e-002
3.407744e+003;3.658801e-002
3.409673e+003;3.708361e-002
3.411601e+003;3.745771e-002
3.413530e+003;3.723181e-002
3.415458e+003;3.696233e-002
3.417387e+003;3.728632e-002
3.419316e+003;3.754256e-002
3.421244e+003;3.753534e-002
3.423173e+003;3.755889e-002
3.425101e+003;3.757204e-002
3.427030e+003;3.764791e-002
3.428958e+003;3.781247e-002
3.430887e+003;3.727235e-002
3.432815e+003;3.666995e-002
3.434744e+003;3.703716e-002
3.436673e+003;3.746425e-002
3.438601e+003;3.740097e-002
3.440530e+003;3.728520e-002
3.442458e+003;3.755531e-002
3.444387e+003;3.766345e-002
3.446315e+003;3.773468e-002
3.448244e+003;3.746959e-002
3.450172e+003;3.718174e-002
3.452101e+003;3.712764e-002
3.454030e+003;3.728509e-002
3.455958e+003;3.751417e-002
3.457886e+003;3.719192e-002
3.459815e+003;3.660856e-002
3.461744e+003;3.647260e-002
3.463672e+003;3.616914e-002
3.465601e+003;3.616975e-002
3.467529e+003;3.643142e-002
3.469458e+003;3.630085e-002
3.471386e+003;3.619175e-002
3.473315e+003;3.609921e-002
3.475243e+003;3.615445e-002
3.477172e+003;3.579636e-002
3.479101e+003;3.542865e-002
3.481029e+003;3.538303e-002
3.482958e+003;3.562563e-002
3.484886e+003;3.600315e-002
3.486815e+003;3.621448e-002
3.488743e+003;3.602634e-002
3.490672e+003;3.577024e-002
3.492600e+003;3.573329e-002
3.494529e+003;3.563185e-002
3.496458e+003;3.530467e-002
3.498386e+003;3.553162e-002
3.500315e+003;3.571908e-002
3.502243e+003;3.594718e-002
3.504172e+003;3.608768e-002
3.506100e+003;3.637539e-002
3.508029e+003;3.642302e-002
3.509957e+003;3.587862e-002
3.511886e+003;3.570167e-002
3.513814e+003;3.575131e-002
3.515743e+003;3.610889e-002
3.517672e+003;3.651509e-002
3.519600e+003;3.664811e-002
3.521529e+003;3.634660e-002
3.523457e+003;3.618044e-002
3.525386e+003;3.659958e-002
3.527314e+003;3.701194e-002
3.529243e+003;3.715647e-002
3.531171e+003;3.689123e-002
3.533100e+003;3.677272e-002
3.535029e+003;3.653304e-002
3.536957e+003;3.632517e-002
3.538885e+003;3.651473e-002
3.540814e+003;3.674769e-002
3.542743e+003;3.658307e-002
3.544671e+003;3.647120e-002
3.546600e+003;3.682270e-002
3.548528e+003;3.682133e-002
3.550457e+003;3.629246e-002
3.552385e+003;3.605669e-002
3.554314e+003;3.593728e-002
3.556242e+003;3.596726e-002
3.558171e+003;3.608920e-002
3.560100e+003;3.624394e-002
3.562028e+003;3.628669e-002
3.563957e+003;3.561408e-002
3.565885e+003;3.476486e-002
3.567814e+003;3.515842e-002
3.569742e+003;3.547575e-002
3.571671e+003;3.476386e-002
3.573599e+003;3.484241e-002
3.575528e+003;3.519651e-002
3.577457e+003;3.479717e-002
3.579385e+003;3.422117e-002
3.581314e+003;3.450072e-002
3.583242e+003;3.472161e-002
3.585171e+003;3.444279e-002
3.587099e+003;3.457843e-002
3.589028e+003;3.513220e-002
3.590956e+003;3.530514e-002
3.592885e+003;3.471705e-002
3.594813e+003;3.469168e-002
3.596742e+003;3.539852e-002
3.598671e+003;3.604333e-002
3.600599e+003;3.593915e-002
3.602528e+003;3.580086e-002
3.604456e+003;3.605442e-002
3.606385e+003;3.602263e-002
3.608313e+003;3.583511e-002
3.610242e+003;3.565652e-002
3.612170e+003;3.532059e-002
3.614099e+003;3.524034e-002
3.616028e+003;3.569048e-002
3.617956e+003;3.611552e-002
3.619885e+003;3.608837e-002
3.621813e+003;3.592238e-002
3.623742e+003;3.567109e-002
3.625670e+003;3.558704e-002
3.627599e+003;3.526184e-002
3.629527e+003;3.482589e-002
3.631456e+003;3.456135e-002
3.633385e+003;3.431052e-002
3.635313e+003;3.421107e-002
3.637241e+003;3.405142e-002
3.639170e+003;3.404049e-002
3.641099e+003;3.433269e-002
3.643027e+003;3.397072e-002
3.644956e+003;3.353396e-002
3.646884e+003;3.302005e-002
3.648813e+003;3.269701e-002
3.650741e+003;3.296031e-002
3.652670e+003;3.254499e-002
3.654598e+003;3.171658e-002
3.656527e+003;3.119224e-002
3.658456e+003;3.093154e-002
3.660384e+003;3.051251e-002
3.662313e+003;3.000933e-002
3.664241e+003;2.943127e-002
3.666170e+003;2.880452e-002
3.668098e+003;2.826170e-002
3.670027e+003;2.780167e-002
3.671955e+003;2.751270e-002
3.673884e+003;2.761880e-002
3.675813e+003;2.752481e-002
3.677741e+003;2.697040e-002
3.679669e+003;2.669467e-002
3.681598e+003;2.658352e-002
3.683527e+003;2.628892e-002
3.685455e+003;2.570089e-002
3.687384e+003;2.497342e-002
3.689312e+003;2.473737e-002
3.691241e+003;2.499880e-002
3.693169e+003;2.524097e-002
3.695098e+003;2.528567e-002
3.697026e+003;2.557474e-002
3.698955e+003;2.556040e-002
3.700884e+003;2.514770e-002
3.702812e+003;2.507872e-002
3.704741e+003;2.496696e-002
3.706669e+003;2.475490e-002
3.708598e+003;2.449352e-002
3.710526e+003;2.457016e-002
3.712455e+003;2.494247e-002
3.714383e+003;2.511635e-002
3.716312e+003;2.519609e-002
3.718240e+003;2.530720e-002
3.720169e+003;2.491436e-002
3.722098e+003;2.443101e-002
3.724026e+003;2.418457e-002
3.725955e+003;2.409188e-002
3.727883e+003;2.446172e-002
3.729812e+003;2.446785e-002
3.731740e+003;2.436838e-002
3.733669e+003;2.457913e-002
3.735597e+003;2.457457e-002
3.737526e+003;2.447771e-002
3.739455e+003;2.465642e-002
3.741383e+003;2.489327e-002
3.743312e+003;2.466319e-002
3.745240e+003;2.466354e-002
3.747169e+003;2.458954e-002
3.749097e+003;2.446494e-002
3.751026e+003;2.479321e-002
3.752954e+003;2.503070e-002
3.754883e+003;2.521013e-002
3.756812e+003;2.512738e-002
3.758740e+003;2.527545e-002
3.760668e+003;2.508381e-002
3.762597e+003;2.460070e-002
3.764526e+003;2.479802e-002
3.766454e+003;2.545302e-002
3.768383e+003;2.541954e-002
3.770311e+003;2.483577e-002
3.772240e+003;2.429973e-002
3.774168e+003;2.435934e-002
3.776097e+003;2.469321e-002
3.778025e+003;2.473480e-002
3.779954e+003;2.462061e-002
3.781883e+003;2.484233e-002
3.783811e+003;2.532248e-002
3.785740e+003;2.547895e-002
3.787668e+003;2.555555e-002
3.789597e+003;2.585320e-002
3.791525e+003;2.557997e-002
3.793454e+003;2.526959e-002
3.795382e+003;2.531872e-002
3.797311e+003;2.507953e-002
3.799240e+003;2.482980e-002
3.801168e+003;2.445338e-002
3.803097e+003;2.455596e-002
3.805025e+003;2.528753e-002
3.806954e+003;2.537468e-002
3.808882e+003;2.549409e-002
3.810811e+003;2.576769e-002
3.812739e+003;2.576965e-002
3.814668e+003;2.521951e-002
3.816596e+003;2.493573e-002
3.818525e+003;2.551616e-002
3.820454e+003;2.562683e-002
3.822382e+003;2.562454e-002
3.824311e+003;2.599526e-002
3.826239e+003;2.550421e-002
3.828168e+003;2.520848e-002
3.830096e+003;2.526688e-002
3.832025e+003;2.514872e-002
3.833953e+003;2.531135e-002
3.835882e+003;2.545537e-002
3.837811e+003;2.538606e-002
3.839739e+003;2.551718e-002
3.841667e+003;2.572866e-002
3.843596e+003;2.549922e-002
3.845525e+003;2.520873e-002
3.847453e+003;2.542804e-002
3.849382e+003;2.550618e-002
3.851310e+003;2.536839e-002
3.853239e+003;2.542179e-002
3.855167e+003;2.566176e-002
3.857096e+003;2.608251e-002
3.859024e+003;2.605869e-002
3.860953e+003;2.613195e-002
3.862882e+003;2.648398e-002
3.864810e+003;2.604124e-002
3.866739e+003;2.564440e-002
3.868667e+003;2.542828e-002
3.870596e+003;2.545390e-002
3.872524e+003;2.575324e-002
3.874453e+003;2.577950e-002
3.876381e+003;2.576881e-002
3.878310e+003;2.592087e-002
3.880239e+003;2.621381e-002
3.882167e+003;2.600757e-002
3.884096e+003;2.593666e-002
3.886024e+003;2.634380e-002
3.887953e+003;2.630617e-002
3.889881e+003;2.580953e-002
3.891810e+003;2.518390e-002
3.893738e+003;2.537576e-002
3.895667e+003;2.603899e-002
3.897595e+003;2.646370e-002
3.899524e+003;2.639095e-002
3.901453e+003;2.605936e-002
3.903381e+003;2.625534e-002
3.905310e+003;2.625259e-002
3.907238e+003;2.602087e-002
3.909167e+003;2.607745e-002
3.911095e+003;2.630430e-002
3.913024e+003;2.661850e-002
3.914952e+003;2.677547e-002
3.916881e+003;2.666141e-002
3.918810e+003;2.664302e-002
3.920738e+003;2.708517e-002
3.922667e+003;2.751207e-002
3.924595e+003;2.736634e-002
3.926524e+003;2.699730e-002
3.928452e+003;2.682291e-002
3.930381e+003;2.703108e-002
3.932309e+003;2.750565e-002
3.934238e+003;2.774801e-002
3.936167e+003;2.734305e-002
3.938095e+003;2.675528e-002
3.940023e+003;2.674421e-002
3.941952e+003;2.702967e-002
3.943881e+003;2.697286e-002
3.945809e+003;2.693803e-002
3.947738e+003;2.706310e-002
3.949666e+003;2.724891e-002
3.951595e+003;2.726182e-002
3.953523e+003;2.733814e-002
3.955452e+003;2.793055e-002
3.957380e+003;2.804862e-002
3.959309e+003;2.784579e-002
3.961238e+003;2.794681e-002
3.963166e+003;2.809075e-002
3.965095e+003;2.816022e-002
3.967023e+003;2.825682e-002
3.968952e+003;2.826134e-002
3.970880e+003;2.841353e-002
3.972809e+003;2.826071e-002
3.974737e+003;2.794751e-002
3.976666e+003;2.787624e-002
3.978594e+003;2.802582e-002
3.980523e+003;2.816064e-002
3.982452e+003;2.792034e-002
3.984380e+003;2.787897e-002
3.986309e+003;2.788038e-002
3.988237e+003;2.770909e-002
3.990166e+003;2.795490e-002
3.992094e+003;2.868844e-002
3.994023e+003;2.893147e-002
3.995951e+003;2.881486e-002
3.997880e+003;2.885073e-002
3.999809e+003;2.893880e-002
4.001737e+003;0.000000e+000
