3.992094e+002;0.000000e+000
4.011380e+002;0.000000e+000
4.030665e+002;0.000000e+000
4.049951e+002;0.000000e+000
4.069236e+002;0.000000e+000
4.088522e+002;0.000000e+000
4.107807e+002;0.000000e+000
4.127093e+002;0.000000e+000
4.146378e+002;0.000000e+000
4.165664e+002;0.000000e+000
4.184949e+002;0.000000e+000
4.204235e+002;0.000000e+000
4.223520e+002;0.000000e+000
4.242806e+002;0.000000e+000
4.262091e+002;0.000000e+000
4.281377e+002;0.000000e+000
4.300662e+002;0.000000e+000
4.319948e+002;0.000000e+000
4.339233e+002;0.000000e+000
4.358519e+002;0.000000e+000
4.377804e+002;0.000000e+000
4.397090e+002;0.000000e+000
4.416375e+002;0.000000e+000
4.435660e+002;0.000000e+000
4.454946e+002;0.000000e+000
4.474232e+002;0.000000e+000
4.493517e+002;0.000000e+000
4.512802e+002;0.000000e+000
4.532088e+002;0.000000e+000
4.551373e+002;0.000000e+000
4.570659e+002;0.000000e+000
4.589944e+002;0.000000e+000
4.609230e+002;0.000000e+000
4.628515e+002;0.000000e+000
4.647801e+002;0.000000e+000
4.667086e+002;0.000000e+000
4.686372e+002;0.000000e+000
4.705657e+002;0.000000e+000
4.724943e+002;0.000000e+000
4.744228e+002;0.000000e+000
4.763513e+002;0.000000e+000
4.782799e+002;0.000000e+000
4.802085e+002;0.000000e+000
4.821370e+002;0.000000e+000
4.840656e+002;0.000000e+000
4.859941e+002;0.000000e+000
4.879226e+002;0.000000e+000
4.898512e+002;0.000000e+000
4.917798e+002;0.000000e+000
4.937083e+002;0.000000e+000
4.956368e+002;0.000000e+000
4.975654e+002;0.000000e+000
4.994939e+002;0.000000e+000
5.014225e+002;0.000000e+000
5.033510e+002;0.000000e+000
5.052796e+002;0.000000e+000
5.072081e+002;0.000000e+000
5.091367e+002;0.000000e+000
5.110652e+002;0.000000e+000
5.129938e+002;0.000000e+000
5.149223e+002;0.000000e+000
5.168509e+002;0.000000e+000
5.187794e+002;0.000000e+000
5.207079e+002;0.000000e+000
5.226365e+002;0.000000e+000
5.245651e+002;0.000000e+000
5.264936e+002;0.000000e+000
5.284222e+002;0.000000e+000
5.303507e+002;0.000000e+000
5.322792e+002;0.000000e+000
5.342078e+002;0.000000e+000
5.361364e+002;0.000000e+000
5.380649e+002;0.000000e+000
5.399935e+002;0.000000e+000
5.419220e+002;0.000000e+000
5.438505e+002;0.000000e+000
5.457791e+002;0.000000e+000
5.477076e+002;0.000000e+000
5.496362e+002;0.000000e+000
5.515648e+002;0.000000e+000
5.534933e+002;0.000000e+000
5.554218e+002;0.000000e+000
5.573504e+002;0.000000e+000
5.592789e+002;0.000000e+000
5.612075e+002;0.000000e+000
5.631360e+002;0.000000e+000
5.650646e+002;0.000000e+000
5.669931e+002;0.000000e+000
5.689217e+002;0.000000e+000
5.708502e+002;0.000000e+000
5.727787e+002;0.000000e+000
5.747073e+002;0.000000e+000
5.766359e+002;0.000000e+000
5.785644e+002;0.000000e+000
5.804930e+002;0.000000e+000
5.824215e+002;0.000000e+000
5.843500e+002;0.000000e+000
5.862786e+002;0.000000e+000
5.882072e+002;0.000000e+000
5.901357e+002;0.000000e+000
5.920643e+002;0.000000e+000
5.939928e+002;0.000000e+000
5.959213e+002;0.000000e+000
5.978499e+002;0.000000e+000
5.997784e+002;4.595973e-002
6.017070e+002;5.067310e-002
6.036355e+002;5.090815e-002
6.055641e+002;5.009553e-002
6.074926e+002;4.552333e-002
6.094211e+002;4.263939e-002
6.113497e+002;4.077000e-002
6.132783e+002;3.762179e-002
6.152068e+002;4.094597e-002
6.171354e+002;4.386877e-002
6.190639e+002;4.169955e-002
6.209924e+002;3.915150e-002
6.229210e+002;3.813434e-002
6.248495e+002;3.884051e-002
6.267781e+002;3.965933e-002
6.287067e+002;4.118099e-002
6.306352e+002;4.073747e-002
6.325637e+002;3.825985e-002
6.344923e+002;3.967138e-002
6.364208e+002;3.951625e-002
6.383494e+002;3.533292e-002
6.402780e+002;3.546388e-002
6.422065e+002;3.653117e-002
6.441350e+002;3.708826e-002
6.460636e+002;3.764210e-002
6.479921e+002;3.659219e-002
6.499207e+002;3.485734e-002
6.518492e+002;3.394704e-002
6.537778e+002;3.409654e-002
6.557063e+002;3.534770e-002
6.576349e+002;3.761211e-002
6.595634e+002;3.870234e-002
6.614919e+002;3.747960e-002
6.634205e+002;3.590601e-002
6.653491e+002;3.581345e-002
6.672776e+002;3.653924e-002
6.692062e+002;3.578251e-002
6.711347e+002;3.425699e-002
6.730632e+002;3.478777e-002
6.749918e+002;3.621984e-002
6.769203e+002;3.715016e-002
6.788489e+002;3.633317e-002
6.807775e+002;3.605370e-002
6.827060e+002;3.626079e-002
6.846345e+002;3.597540e-002
6.865631e+002;3.566073e-002
6.884916e+002;3.383448e-002
6.904202e+002;3.259085e-002
6.923488e+002;3.171854e-002
6.942773e+002;3.139241e-002
6.962058e+002;3.122023e-002
6.981344e+002;3.078025e-002
7.000629e+002;3.105901e-002
7.019915e+002;3.179254e-002
7.039200e+002;3.169633e-002
7.058486e+002;3.044775e-002
7.077771e+002;2.956025e-002
7.097057e+002;2.985282e-002
7.116342e+002;2.987429e-002
7.135627e+002;2.928660e-002
7.154913e+002;2.823574e-002
7.174199e+002;2.874943e-002
7.193484e+002;3.018774e-002
7.212770e+002;3.010726e-002
7.232055e+002;2.948656e-002
7.251340e+002;2.895145e-002
7.270626e+002;2.973858e-002
7.289911e+002;3.159163e-002
7.309197e+002;3.280763e-002
7.328483e+002;3.409324e-002
7.347768e+002;3.556661e-002
7.367053e+002;3.493501e-002
7.386339e+002;3.489960e-002
7.405624e+002;3.648965e-002
7.424910e+002;3.693852e-002
7.444196e+002;3.700970e-002
7.463481e+002;3.802698e-002
7.482766e+002;3.925261e-002
7.502052e+002;3.939415e-002
7.521337e+002;3.946280e-002
7.540623e+002;4.192746e-002
7.559908e+002;4.413845e-002
7.579194e+002;4.449787e-002
7.598479e+002;4.432666e-002
7.617765e+002;4.448557e-002
7.637050e+002;4.504022e-002
7.656335e+002;4.515016e-002
7.675621e+002;4.507653e-002
7.694907e+002;4.555343e-002
7.714192e+002;4.693420e-002
7.733478e+002;4.756362e-002
7.752763e+002;4.666871e-002
7.772048e+002;4.655299e-002
7.791334e+002;4.739016e-002
7.810620e+002;4.826161e-002
7.829905e+002;4.929938e-002
7.849191e+002;4.948471e-002
7.868476e+002;4.979258e-002
7.887761e+002;5.029630e-002
7.907047e+002;5.024764e-002
7.926332e+002;5.024738e-002
7.945618e+002;5.122091e-002
7.964903e+002;5.294278e-002
7.984189e+002;5.355028e-002
8.003474e+002;5.299814e-002
8.022759e+002;5.243134e-002
8.042045e+002;5.256460e-002
8.061331e+002;5.289584e-002
8.080616e+002;5.228762e-002
8.099902e+002;5.116969e-002
8.119187e+002;5.061293e-002
8.138472e+002;5.004284e-002
8.157758e+002;4.902232e-002
8.177043e+002;4.869531e-002
8.196329e+002;4.857457e-002
8.215615e+002;4.820988e-002
8.234900e+002;4.742486e-002
8.254185e+002;4.655864e-002
8.273471e+002;4.568928e-002
8.292756e+002;4.344069e-002
8.312042e+002;4.107346e-002
8.331328e+002;4.010604e-002
8.350613e+002;3.947430e-002
8.369898e+002;3.815348e-002
8.389184e+002;3.673478e-002
8.408469e+002;3.646089e-002
8.427755e+002;3.659439e-002
8.447040e+002;3.585411e-002
8.466326e+002;3.490226e-002
8.485611e+002;3.449946e-002
8.504897e+002;3.492520e-002
8.524182e+002;3.499466e-002
8.543467e+002;3.492833e-002
8.562753e+002;3.595589e-002
8.582039e+002;3.677510e-002
8.601324e+002;3.691702e-002
8.620610e+002;3.763960e-002
8.639895e+002;3.770602e-002
8.659180e+002;3.772601e-002
8.678466e+002;3.827914e-002
8.697751e+002;3.858571e-002
8.717037e+002;3.851836e-002
8.736323e+002;3.835601e-002
8.755608e+002;3.849059e-002
8.774893e+002;3.838109e-002
8.794179e+002;3.805227e-002
8.813464e+002;3.795679e-002
8.832750e+002;3.787953e-002
8.852036e+002;3.804163e-002
8.871321e+002;3.808865e-002
8.890606e+002;3.740072e-002
8.909892e+002;3.694148e-002
8.929177e+002;3.685462e-002
8.948463e+002;3.684517e-002
8.967748e+002;3.738606e-002
8.987034e+002;3.801046e-002
9.006319e+002;3.842974e-002
9.025605e+002;3.849356e-002
9.044890e+002;3.841356e-002
9.064175e+002;3.888410e-002
9.083461e+002;3.924133e-002
9.102747e+002;3.914668e-002
9.122032e+002;3.953117e-002
9.141318e+002;3.995312e-002
9.160603e+002;4.067156e-002
9.179888e+002;4.170083e-002
9.199174e+002;4.252963e-002
9.218459e+002;4.384428e-002
9.237745e+002;4.523381e-002
9.257031e+002;4.639642e-002
9.276316e+002;4.745838e-002
9.295601e+002;4.859669e-002
9.314887e+002;5.015871e-002
9.334172e+002;5.144119e-002
9.353458e+002;5.204939e-002
9.372744e+002;5.294169e-002
9.392029e+002;5.360684e-002
9.411314e+002;5.303681e-002
9.430600e+002;5.234895e-002
9.449885e+002;5.205219e-002
9.469171e+002;5.185172e-002
9.488456e+002;5.125294e-002
9.507742e+002;5.043155e-002
9.527027e+002;4.941806e-002
9.546313e+002;4.849102e-002
9.565598e+002;4.795667e-002
9.584883e+002;4.765247e-002
9.604169e+002;4.727481e-002
9.623455e+002;4.688584e-002
9.642740e+002;4.658386e-002
9.662026e+002;4.619700e-002
9.681311e+002;4.592536e-002
9.700596e+002;4.565280e-002
9.719882e+002;4.543294e-002
9.739167e+002;4.536790e-002
9.758453e+002;4.527845e-002
9.777739e+002;4.554622e-002
9.797024e+002;4.588011e-002
9.816309e+002;4.595774e-002
9.835595e+002;4.641592e-002
9.854880e+002;4.691921e-002
9.874166e+002;4.740254e-002
9.893452e+002;4.801580e-002
9.912737e+002;4.902183e-002
9.932022e+002;5.034136e-002
9.951307e+002;5.134086e-002
9.970593e+002;5.259531e-002
9.989879e+002;5.419365e-002
1.000916e+003;5.581658e-002
1.002845e+003;5.795541e-002
1.004773e+003;6.051617e-002
1.006702e+003;6.370958e-002
1.008631e+003;6.713179e-002
1.010559e+003;7.045101e-002
1.012488e+003;7.395574e-002
1.014416e+003;7.748593e-002
1.016345e+003;8.110782e-002
1.018273e+003;8.452599e-002
1.020202e+003;8.764159e-002
1.022130e+003;8.968326e-002
1.024059e+003;9.074679e-002
1.025988e+003;9.121201e-002
1.027916e+003;9.149081e-002
1.029845e+003;9.190229e-002
1.031773e+003;9.230818e-002
1.033702e+003;9.284648e-002
1.035630e+003;9.364593e-002
1.037559e+003;9.442241e-002
1.039487e+003;9.517902e-002
1.041416e+003;9.553349e-002
1.043344e+003;9.502506e-002
1.045273e+003;9.411876e-002
1.047202e+003;9.386217e-002
1.049130e+003;9.427480e-002
1.051059e+003;9.428797e-002
1.052987e+003;9.397117e-002
1.054916e+003;9.472490e-002
1.056844e+003;9.642582e-002
1.058773e+003;9.736975e-002
1.060701e+003;9.832731e-002
1.062630e+003;1.002111e-001
1.064558e+003;1.018517e-001
1.066487e+003;1.028843e-001
1.068416e+003;1.035483e-001
1.070344e+003;1.036403e-001
1.072273e+003;1.034284e-001
1.074201e+003;1.025797e-001
1.076130e+003;1.016771e-001
1.078058e+003;1.008155e-001
1.079987e+003;9.980454e-002
1.081915e+003;9.870490e-002
1.083844e+003;9.736045e-002
1.085773e+003;9.553234e-002
1.087701e+003;9.364457e-002
1.089630e+003;9.156587e-002
1.091558e+003;8.917715e-002
1.093487e+003;8.778331e-002
1.095415e+003;8.649283e-002
1.097344e+003;8.508330e-002
1.099272e+003;8.387559e-002
1.101201e+003;8.301832e-002
1.103129e+003;8.254940e-002
1.105058e+003;8.122014e-002
1.106987e+003;7.919881e-002
1.108915e+003;7.749571e-002
1.110844e+003;7.541185e-002
1.112772e+003;7.297644e-002
1.114701e+003;7.107212e-002
1.116629e+003;6.964478e-002
1.118558e+003;6.710097e-002
1.120486e+003;6.448356e-002
1.122415e+003;6.201069e-002
1.124344e+003;5.898339e-002
1.126272e+003;5.583858e-002
1.128201e+003;5.291145e-002
1.130129e+003;5.047320e-002
1.132058e+003;4.810700e-002
1.133986e+003;4.579626e-002
1.135915e+003;4.394168e-002
1.137843e+003;4.224016e-002
1.139772e+003;4.106028e-002
1.141700e+003;4.015794e-002
1.143629e+003;3.931804e-002
1.145557e+003;3.914911e-002
1.147486e+003;3.875910e-002
1.149415e+003;3.861244e-002
1.151343e+003;3.869288e-002
1.153272e+003;3.893386e-002
1.155200e+003;3.931452e-002
1.157129e+003;3.990775e-002
1.159057e+003;4.066320e-002
1.160986e+003;4.160936e-002
1.162914e+003;4.316562e-002
1.164843e+003;4.522962e-002
1.166771e+003;4.677833e-002
1.168700e+003;4.805885e-002
1.170629e+003;4.990842e-002
1.172557e+003;5.205103e-002
1.174486e+003;5.446303e-002
1.176414e+003;5.627321e-002
1.178343e+003;5.778581e-002
1.180271e+003;5.922674e-002
1.182200e+003;6.053030e-002
1.184128e+003;6.216883e-002
1.186057e+003;6.340063e-002
1.187986e+003;6.425411e-002
1.189914e+003;6.559079e-002
1.191843e+003;6.725096e-002
1.193771e+003;6.904241e-002
1.195700e+003;7.107490e-002
1.197628e+003;7.302301e-002
1.199557e+003;7.485473e-002
1.201485e+003;7.706654e-002
1.203414e+003;7.992241e-002
1.205343e+003;8.279815e-002
1.207271e+003;8.620651e-002
1.209200e+003;9.022818e-002
1.211128e+003;9.485354e-002
1.213057e+003;1.003053e-001
1.214985e+003;1.059489e-001
1.216914e+003;1.117110e-001
1.218842e+003;1.171056e-001
1.220771e+003;1.221568e-001
1.222699e+003;1.270395e-001
1.224628e+003;1.317590e-001
1.226557e+003;1.356442e-001
1.228485e+003;1.387127e-001
1.230414e+003;1.409978e-001
1.232342e+003;1.420836e-001
1.234271e+003;1.422485e-001
1.236199e+003;1.414754e-001
1.238128e+003;1.394906e-001
1.240056e+003;1.368080e-001
1.241985e+003;1.337073e-001
1.243913e+003;1.299249e-001
1.245842e+003;1.251667e-001
1.247771e+003;1.205004e-001
1.249699e+003;1.164148e-001
1.251628e+003;1.123678e-001
1.253556e+003;1.081691e-001
1.255485e+003;1.040992e-001
1.257413e+003;1.008050e-001
1.259342e+003;9.736104e-002
1.261270e+003;9.313346e-002
1.263199e+003;8.866484e-002
1.265127e+003;8.423522e-002
1.267056e+003;8.004514e-002
1.268985e+003;7.573909e-002
1.270913e+003;7.160421e-002
1.272842e+003;6.819846e-002
1.274770e+003;6.569859e-002
1.276699e+003;6.349871e-002
1.278627e+003;6.160926e-002
1.280556e+003;5.986363e-002
1.282484e+003;5.844311e-002
1.284413e+003;5.743020e-002
1.286342e+003;5.659669e-002
1.288270e+003;5.572134e-002
1.290199e+003;5.484914e-002
1.292127e+003;5.468597e-002
1.294056e+003;5.476813e-002
1.295984e+003;5.436669e-002
1.297913e+003;5.397895e-002
1.299841e+003;5.396473e-002
1.301770e+003;5.423355e-002
1.303698e+003;5.436996e-002
1.305627e+003;5.456520e-002
1.307556e+003;5.483120e-002
1.309484e+003;5.522893e-002
1.311413e+003;5.568472e-002
1.313341e+003;5.573897e-002
1.315270e+003;5.582830e-002
1.317198e+003;5.599137e-002
1.319127e+003;5.620993e-002
1.321055e+003;5.622460e-002
1.322984e+003;5.600822e-002
1.324912e+003;5.588116e-002
1.326841e+003;5.602035e-002
1.328770e+003;5.645460e-002
1.330698e+003;5.706469e-002
1.332627e+003;5.777945e-002
1.334555e+003;5.882101e-002
1.336484e+003;6.021028e-002
1.338412e+003;6.176348e-002
1.340341e+003;6.349012e-002
1.342269e+003;6.543732e-002
1.344198e+003;6.713852e-002
1.346126e+003;6.873849e-002
1.348055e+003;7.065125e-002
1.349984e+003;7.250156e-002
1.351912e+003;7.436155e-002
1.353841e+003;7.621548e-002
1.355769e+003;7.807221e-002
1.357698e+003;7.995069e-002
1.359626e+003;8.163519e-002
1.361555e+003;8.314630e-002
1.363483e+003;8.441854e-002
1.365412e+003;8.522257e-002
1.367341e+003;8.554330e-002
1.369269e+003;8.541388e-002
1.371198e+003;8.483573e-002
1.373126e+003;8.404459e-002
1.375055e+003;8.251362e-002
1.376983e+003;7.987586e-002
1.378912e+003;7.637541e-002
1.380840e+003;7.236622e-002
1.382769e+003;6.764974e-002
1.384698e+003;6.256733e-002
1.386626e+003;5.803012e-002
1.388555e+003;5.403361e-002
1.390483e+003;5.023451e-002
1.392412e+003;4.696333e-002
1.394340e+003;4.428101e-002
1.396269e+003;4.215541e-002
1.398197e+003;4.055310e-002
1.400126e+003;3.916104e-002
1.402054e+003;3.801860e-002
1.403983e+003;3.720531e-002
1.405911e+003;3.675999e-002
1.407840e+003;3.680867e-002
1.409769e+003;3.741856e-002
1.411697e+003;3.850482e-002
1.413626e+003;4.007788e-002
1.415554e+003;4.181110e-002
1.417483e+003;4.373602e-002
1.419411e+003;4.625633e-002
1.421340e+003;4.961536e-002
1.423268e+003;5.329162e-002
1.425197e+003;5.703208e-002
1.427125e+003;6.096180e-002
1.429054e+003;6.510497e-002
1.430983e+003;6.993665e-002
1.432911e+003;7.536991e-002
1.434840e+003;8.101457e-002
1.436768e+003;8.694048e-002
1.438697e+003;9.315334e-002
1.440625e+003;9.890624e-002
1.442554e+003;1.041842e-001
1.444482e+003;1.091506e-001
1.446411e+003;1.131401e-001
1.448340e+003;1.161793e-001
1.450268e+003;1.178740e-001
1.452197e+003;1.174180e-001
1.454125e+003;1.144386e-001
1.456054e+003;1.083690e-001
1.457982e+003;9.978803e-002
1.459911e+003;9.034957e-002
1.461839e+003;8.076210e-002
1.463768e+003;7.145911e-002
1.465697e+003;6.284858e-002
1.467625e+003;5.539780e-002
1.469554e+003;4.918006e-002
1.471482e+003;4.395950e-002
1.473411e+003;3.968547e-002
1.475339e+003;3.644644e-002
1.477268e+003;3.397097e-002
1.479196e+003;3.206000e-002
1.481125e+003;3.076687e-002
1.483053e+003;2.985434e-002
1.484982e+003;2.865828e-002
1.486911e+003;2.737544e-002
1.488839e+003;2.638436e-002
1.490768e+003;2.546191e-002
1.492696e+003;2.449425e-002
1.494625e+003;2.349230e-002
1.496553e+003;2.254162e-002
1.498482e+003;2.216027e-002
1.500410e+003;2.191298e-002
1.502339e+003;2.149698e-002
1.504267e+003;2.090715e-002
1.506196e+003;2.025491e-002
1.508125e+003;1.996839e-002
1.510053e+003;1.992509e-002
1.511982e+003;1.976583e-002
1.513910e+003;1.943441e-002
1.515839e+003;1.914936e-002
1.517767e+003;1.904328e-002
1.519696e+003;1.874040e-002
1.521624e+003;1.826470e-002
1.523553e+003;1.812943e-002
1.525481e+003;1.815841e-002
1.527410e+003;1.814608e-002
1.529339e+003;1.819199e-002
1.531267e+003;1.813934e-002
1.533196e+003;1.784793e-002
1.535124e+003;1.770447e-002
1.537053e+003;1.729824e-002
1.538981e+003;1.665011e-002
1.540910e+003;1.638588e-002
1.542838e+003;1.640381e-002
1.544767e+003;1.657331e-002
1.546695e+003;1.674508e-002
1.548624e+003;1.665982e-002
1.550553e+003;1.656914e-002
1.552481e+003;1.636393e-002
1.554410e+003;1.627730e-002
1.556338e+003;1.616259e-002
1.558267e+003;1.578378e-002
1.560195e+003;1.606446e-002
1.562124e+003;1.659430e-002
1.564052e+003;1.631039e-002
1.565981e+003;1.606886e-002
1.567910e+003;1.617872e-002
1.569838e+003;1.649280e-002
1.571767e+003;1.687589e-002
1.573695e+003;1.709209e-002
1.575624e+003;1.698096e-002
1.577552e+003;1.712146e-002
1.579481e+003;1.752942e-002
1.581409e+003;1.793894e-002
1.583338e+003;1.824559e-002
1.585266e+003;1.811968e-002
1.587195e+003;1.788073e-002
1.589124e+003;1.799344e-002
1.591052e+003;1.850542e-002
1.592981e+003;1.897650e-002
1.594909e+003;1.929628e-002
1.596838e+003;1.983973e-002
1.598766e+003;2.040414e-002
1.600695e+003;2.076345e-002
1.602623e+003;2.122954e-002
1.604552e+003;2.195069e-002
1.606480e+003;2.260221e-002
1.608409e+003;2.336648e-002
1.610338e+003;2.442954e-002
1.612266e+003;2.520501e-002
1.614195e+003;2.548622e-002
1.616123e+003;2.562331e-002
1.618052e+003;2.600469e-002
1.619980e+003;2.664062e-002
1.621909e+003;2.721448e-002
1.623837e+003;2.751182e-002
1.625766e+003;2.793405e-002
1.627694e+003;2.825530e-002
1.629623e+003;2.811882e-002
1.631552e+003;2.782308e-002
1.633480e+003;2.779326e-002
1.635409e+003;2.776253e-002
1.637337e+003;2.731986e-002
1.639266e+003;2.668487e-002
1.641194e+003;2.639563e-002
1.643123e+003;2.616052e-002
1.645051e+003;2.570089e-002
1.646980e+003;2.527510e-002
1.648909e+003;2.508458e-002
1.650837e+003;2.460269e-002
1.652766e+003;2.377563e-002
1.654694e+003;2.374745e-002
1.656623e+003;2.390259e-002
1.658551e+003;2.349744e-002
1.660480e+003;2.348044e-002
1.662408e+003;2.336452e-002
1.664337e+003;2.304327e-002
1.666266e+003;2.316641e-002
1.668194e+003;2.359189e-002
1.670123e+003;2.378578e-002
1.672051e+003;2.394705e-002
1.673980e+003;2.430464e-002
1.675908e+003;2.469377e-002
1.677837e+003;2.560781e-002
1.679765e+003;2.629188e-002
1.681694e+003;2.668153e-002
1.683622e+003;2.693468e-002
1.685551e+003;2.773714e-002
1.687479e+003;2.889244e-002
1.689408e+003;2.948478e-002
1.691337e+003;3.022028e-002
1.693265e+003;3.117979e-002
1.695194e+003;3.187038e-002
1.697122e+003;3.292561e-002
1.699051e+003;3.362249e-002
1.700979e+003;3.457563e-002
1.702908e+003;3.657882e-002
1.704836e+003;3.889765e-002
1.706765e+003;4.151806e-002
1.708693e+003;4.487937e-002
1.710622e+003;4.882606e-002
1.712551e+003;5.358652e-002
1.714479e+003;5.934391e-002
1.716408e+003;6.526979e-002
1.718336e+003;7.145025e-002
1.720265e+003;7.818168e-002
1.722193e+003;8.484468e-002
1.724122e+003;9.120081e-002
1.726050e+003;9.733040e-002
1.727979e+003;1.031210e-001
1.729908e+003;1.078944e-001
1.731836e+003;1.116425e-001
1.733765e+003;1.141420e-001
1.735693e+003;1.156151e-001
1.737622e+003;1.156142e-001
1.739550e+003;1.137110e-001
1.741479e+003;1.099605e-001
1.743407e+003;1.048028e-001
1.745336e+003;9.870191e-002
1.747265e+003;9.223127e-002
1.749193e+003;8.541545e-002
1.751122e+003;7.832900e-002
1.753050e+003;7.141647e-002
1.754979e+003;6.465280e-002
1.756907e+003;5.753161e-002
1.758836e+003;5.074136e-002
1.760764e+003;4.452489e-002
1.762693e+003;3.905630e-002
1.764621e+003;3.441499e-002
1.766550e+003;3.020330e-002
1.768479e+003;2.660973e-002
1.770407e+003;2.383982e-002
1.772336e+003;2.170422e-002
1.774264e+003;2.029421e-002
1.776193e+003;1.938843e-002
1.778121e+003;1.856915e-002
1.780050e+003;1.762793e-002
1.781978e+003;1.677404e-002
1.783907e+003;1.632866e-002
1.785835e+003;1.597228e-002
1.787764e+003;1.547052e-002
1.789693e+003;1.504617e-002
1.791621e+003;1.462347e-002
1.793550e+003;1.434105e-002
1.795478e+003;1.433290e-002
1.797407e+003;1.410437e-002
1.799335e+003;1.374013e-002
1.801264e+003;1.348146e-002
1.803192e+003;1.331774e-002
1.805121e+003;1.330855e-002
1.807049e+003;1.309739e-002
1.808978e+003;1.258294e-002
1.810907e+003;1.239583e-002
1.812835e+003;1.225133e-002
1.814764e+003;1.218140e-002
1.816692e+003;1.234899e-002
1.818621e+003;1.233954e-002
1.820549e+003;1.219309e-002
1.822478e+003;1.185091e-002
1.824406e+003;1.171174e-002
1.826335e+003;1.196306e-002
1.828264e+003;1.214981e-002
1.830192e+003;1.200608e-002
1.832121e+003;1.194484e-002
1.834049e+003;1.190540e-002
1.835978e+003;1.172038e-002
1.837906e+003;1.154491e-002
1.839835e+003;1.154161e-002
1.841763e+003;1.161722e-002
1.843692e+003;1.161365e-002
1.845620e+003;1.162991e-002
1.847549e+003;1.153892e-002
1.849478e+003;1.148928e-002
1.851406e+003;1.162491e-002
1.853335e+003;1.155600e-002
1.855263e+003;1.126917e-002
1.857192e+003;1.102016e-002
1.859120e+003;1.089936e-002
1.861049e+003;1.089895e-002
1.862977e+003;1.086953e-002
1.864906e+003;1.095304e-002
1.866834e+003;1.098434e-002
1.868763e+003;1.080627e-002
1.870692e+003;1.077377e-002
1.872620e+003;1.080919e-002
1.874549e+003;1.071521e-002
1.876477e+003;1.047670e-002
1.878406e+003;1.062342e-002
1.880334e+003;1.091842e-002
1.882263e+003;1.072414e-002
1.884191e+003;1.057232e-002
1.886120e+003;1.055633e-002
1.888048e+003;1.012641e-002
1.889977e+003;9.560590e-003
1.891906e+003;9.507109e-003
1.893834e+003;9.707346e-003
1.895763e+003;9.607064e-003
1.897691e+003;9.359778e-003
1.899620e+003;9.526177e-003
1.901548e+003;9.672821e-003
1.903477e+003;9.328326e-003
1.905405e+003;9.018780e-003
1.907334e+003;9.032615e-003
1.909262e+003;9.100756e-003
1.911191e+003;9.236965e-003
1.913120e+003;9.343797e-003
1.915048e+003;9.493224e-003
1.916977e+003;9.418149e-003
1.918905e+003;9.351652e-003
1.920834e+003;9.399153e-003
1.922762e+003;9.255514e-003
1.924691e+003;8.888083e-003
1.926619e+003;8.801007e-003
1.928548e+003;8.903301e-003
1.930477e+003;8.836613e-003
1.932405e+003;8.772505e-003
1.934334e+003;8.769461e-003
1.936262e+003;8.588414e-003
1.938191e+003;8.615654e-003
1.940119e+003;8.758811e-003
1.942048e+003;8.666928e-003
1.943976e+003;8.545799e-003
1.945905e+003;8.450818e-003
1.947833e+003;8.373255e-003
1.949762e+003;8.503493e-003
1.951691e+003;8.662331e-003
1.953619e+003;8.862279e-003
1.955548e+003;8.764863e-003
1.957476e+003;8.789714e-003
1.959405e+003;8.937596e-003
1.961333e+003;8.880507e-003
1.963262e+003;9.004605e-003
1.965190e+003;9.154863e-003
1.967119e+003;9.066110e-003
1.969047e+003;8.903369e-003
1.970976e+003;8.776223e-003
1.972905e+003;9.063064e-003
1.974833e+003;9.259169e-003
1.976762e+003;9.230433e-003
1.978690e+003;9.182544e-003
1.980619e+003;9.467012e-003
1.982547e+003;9.767898e-003
1.984476e+003;9.775388e-003
1.986404e+003;9.747939e-003
1.988333e+003;9.841950e-003
1.990261e+003;9.637315e-003
1.992190e+003;9.628168e-003
1.994119e+003;9.825613e-003
1.996047e+003;9.853304e-003
1.997976e+003;9.875608e-003
1.999904e+003;9.930489e-003
2.001833e+003;9.852490e-003
2.003761e+003;9.898861e-003
2.005690e+003;9.865811e-003
2.007618e+003;9.840594e-003
2.009547e+003;1.000721e-002
2.011476e+003;1.000138e-002
2.013404e+003;9.977342e-003
2.015333e+003;1.000118e-002
2.017261e+003;9.969205e-003
2.019190e+003;1.005387e-002
2.021118e+003;9.986903e-003
2.023047e+003;9.830121e-003
2.024975e+003;1.004309e-002
2.026904e+003;1.005041e-002
2.028833e+003;9.876319e-003
2.030761e+003;1.007137e-002
2.032690e+003;1.029616e-002
2.034618e+003;1.000402e-002
2.036547e+003;9.721305e-003
2.038475e+003;9.746347e-003
2.040404e+003;9.919438e-003
2.042332e+003;1.004224e-002
2.044261e+003;9.929607e-003
2.046189e+003;9.757292e-003
2.048118e+003;9.890013e-003
2.050047e+003;9.954457e-003
2.051975e+003;9.761901e-003
2.053904e+003;9.819818e-003
2.055832e+003;1.022600e-002
2.057761e+003;1.044119e-002
2.059689e+003;1.012726e-002
2.061618e+003;9.752954e-003
2.063546e+003;9.743501e-003
2.065475e+003;9.888827e-003
2.067404e+003;9.938930e-003
2.069332e+003;9.992396e-003
2.071260e+003;9.996904e-003
2.073189e+003;9.964356e-003
2.075118e+003;1.006330e-002
2.077046e+003;9.972731e-003
2.078975e+003;9.747093e-003
2.080903e+003;9.638467e-003
2.082832e+003;9.793722e-003
2.084760e+003;9.921030e-003
2.086689e+003;9.656863e-003
2.088617e+003;9.406501e-003
2.090546e+003;9.172697e-003
2.092475e+003;9.067090e-003
2.094403e+003;9.412291e-003
2.096332e+003;9.819683e-003
2.098260e+003;9.583216e-003
2.100189e+003;9.240283e-003
2.102117e+003;9.142409e-003
2.104046e+003;9.194490e-003
2.105974e+003;9.208096e-003
2.107903e+003;9.188196e-003
2.109832e+003;9.413476e-003
2.111760e+003;9.568989e-003
2.113688e+003;9.208434e-003
2.115617e+003;8.817541e-003
2.117546e+003;9.037251e-003
2.119474e+003;9.464506e-003
2.121403e+003;9.556727e-003
2.123331e+003;9.468943e-003
2.125260e+003;9.396276e-003
2.127188e+003;9.418285e-003
2.129117e+003;9.443613e-003
2.131045e+003;9.539589e-003
2.132974e+003;9.816327e-003
2.134903e+003;1.009019e-002
2.136831e+003;1.001559e-002
2.138760e+003;9.860897e-003
2.140688e+003;9.513375e-003
2.142617e+003;9.417573e-003
2.144545e+003;9.533933e-003
2.146474e+003;9.559200e-003
2.148402e+003;9.900827e-003
2.150331e+003;1.003495e-002
2.152260e+003;9.773558e-003
2.154188e+003;9.610722e-003
2.156117e+003;9.915403e-003
2.158045e+003;1.022138e-002
2.159974e+003;1.017308e-002
2.161902e+003;1.023743e-002
2.163831e+003;1.038231e-002
2.165759e+003;1.048464e-002
2.167688e+003;1.073885e-002
2.169616e+003;1.088356e-002
2.171545e+003;1.092294e-002
2.173474e+003;1.095987e-002
2.175402e+003;1.094231e-002
2.177331e+003;1.097465e-002
2.179259e+003;1.156733e-002
2.181188e+003;1.259556e-002
2.183116e+003;1.323004e-002
2.185045e+003;1.397107e-002
2.186973e+003;1.502950e-002
2.188902e+003;1.610417e-002
2.190831e+003;1.685108e-002
2.192759e+003;1.712373e-002
2.194688e+003;1.701470e-002
2.196616e+003;1.667091e-002
2.198545e+003;1.634291e-002
2.200473e+003;1.593946e-002
2.202402e+003;1.599267e-002
2.204330e+003;1.605531e-002
2.206259e+003;1.581560e-002
2.208188e+003;1.584353e-002
2.210116e+003;1.630991e-002
2.212044e+003;1.698813e-002
2.213973e+003;1.761116e-002
2.215902e+003;1.820747e-002
2.217830e+003;1.898114e-002
2.219759e+003;1.997078e-002
2.221687e+003;2.117213e-002
2.223616e+003;2.287245e-002
2.225544e+003;2.560307e-002
2.227473e+003;3.046964e-002
2.229401e+003;3.852694e-002
2.231330e+003;4.956061e-002
2.233259e+003;6.237527e-002
2.235187e+003;7.565729e-002
2.237116e+003;8.773400e-002
2.239044e+003;9.710588e-002
2.240973e+003;1.028401e-001
2.242901e+003;1.047814e-001
2.244830e+003;1.027952e-001
2.246758e+003;9.795175e-002
2.248687e+003;9.172312e-002
2.250615e+003;8.431967e-002
2.252544e+003;7.652840e-002
2.254473e+003;6.907783e-002
2.256401e+003;6.185746e-002
2.258330e+003;5.475508e-002
2.260258e+003;4.831871e-002
2.262187e+003;4.270866e-002
2.264115e+003;3.778449e-002
2.266044e+003;3.364866e-002
2.267972e+003;3.029829e-002
2.269901e+003;2.772608e-002
2.271830e+003;2.583604e-002
2.273758e+003;2.439849e-002
2.275687e+003;2.299694e-002
2.277615e+003;2.186454e-002
2.279544e+003;2.130585e-002
2.281472e+003;2.086982e-002
2.283401e+003;2.023339e-002
2.285329e+003;1.970092e-002
2.287258e+003;1.938947e-002
2.289187e+003;1.923029e-002
2.291115e+003;1.928021e-002
2.293043e+003;1.910127e-002
2.294972e+003;1.882783e-002
2.296901e+003;1.873811e-002
2.298829e+003;1.856849e-002
2.300758e+003;1.853623e-002
2.302686e+003;1.874603e-002
2.304615e+003;1.871486e-002
2.306543e+003;1.853429e-002
2.308472e+003;1.851102e-002
2.310400e+003;1.845947e-002
2.312329e+003;1.840768e-002
2.314258e+003;1.834526e-002
2.316186e+003;1.839258e-002
2.318115e+003;1.849028e-002
2.320043e+003;1.844059e-002
2.321972e+003;1.841135e-002
2.323900e+003;1.831000e-002
2.325829e+003;1.826176e-002
2.327757e+003;1.808883e-002
2.329686e+003;1.787893e-002
2.331615e+003;1.761916e-002
2.333543e+003;1.760488e-002
2.335472e+003;1.789927e-002
2.337400e+003;1.812991e-002
2.339329e+003;1.776377e-002
2.341257e+003;1.753687e-002
2.343186e+003;1.796926e-002
2.345114e+003;1.796356e-002
2.347043e+003;1.749058e-002
2.348971e+003;1.749361e-002
2.350900e+003;1.784161e-002
2.352829e+003;1.780550e-002
2.354757e+003;1.799644e-002
2.356686e+003;1.829711e-002
2.358614e+003;1.801927e-002
2.360543e+003;1.772590e-002
2.362471e+003;1.784617e-002
2.364400e+003;1.792889e-002
2.366328e+003;1.767172e-002
2.368257e+003;1.787009e-002
2.370186e+003;1.819593e-002
2.372114e+003;1.804435e-002
2.374042e+003;1.801678e-002
2.375971e+003;1.825816e-002
2.377900e+003;1.815447e-002
2.379828e+003;1.799661e-002
2.381757e+003;1.793083e-002
2.383685e+003;1.781700e-002
2.385614e+003;1.795265e-002
2.387542e+003;1.801941e-002
2.389471e+003;1.767293e-002
2.391399e+003;1.749524e-002
2.393328e+003;1.777357e-002
2.395257e+003;1.790169e-002
2.397185e+003;1.781133e-002
2.399114e+003;1.761288e-002
2.401042e+003;1.753608e-002
2.402971e+003;1.753415e-002
2.404899e+003;1.751462e-002
2.406828e+003;1.744239e-002
2.408756e+003;1.730196e-002
2.410685e+003;1.756358e-002
2.412614e+003;1.769750e-002
2.414542e+003;1.760357e-002
2.416471e+003;1.754819e-002
2.418399e+003;1.766941e-002
2.420328e+003;1.806963e-002
2.422256e+003;1.828125e-002
2.424185e+003;1.804673e-002
2.426113e+003;1.774430e-002
2.428042e+003;1.756665e-002
2.429970e+003;1.766005e-002
2.431899e+003;1.781620e-002
2.433828e+003;1.812379e-002
2.435756e+003;1.816867e-002
2.437685e+003;1.789278e-002
2.439613e+003;1.804379e-002
2.441542e+003;1.821238e-002
2.443470e+003;1.837948e-002
2.445399e+003;1.866474e-002
2.447327e+003;1.879011e-002
2.449256e+003;1.858371e-002
2.451185e+003;1.824762e-002
2.453113e+003;1.826608e-002
2.455042e+003;1.847278e-002
2.456970e+003;1.871569e-002
2.458899e+003;1.875908e-002
2.460827e+003;1.864285e-002
2.462756e+003;1.881357e-002
2.464684e+003;1.897089e-002
2.466613e+003;1.914039e-002
2.468542e+003;1.898356e-002
2.470470e+003;1.887925e-002
2.472398e+003;1.936387e-002
2.474327e+003;1.969433e-002
2.476256e+003;1.947769e-002
2.478184e+003;1.941532e-002
2.480113e+003;1.948701e-002
2.482041e+003;1.951449e-002
2.483970e+003;1.967415e-002
2.485898e+003;1.979444e-002
2.487827e+003;1.998438e-002
2.489755e+003;2.010614e-002
2.491684e+003;2.044266e-002
2.493613e+003;2.089540e-002
2.495541e+003;2.089811e-002
2.497470e+003;2.100667e-002
2.499398e+003;2.117603e-002
2.501327e+003;2.117537e-002
2.503255e+003;2.114500e-002
2.505184e+003;2.109630e-002
2.507112e+003;2.117607e-002
2.509041e+003;2.136195e-002
2.510969e+003;2.129524e-002
2.512898e+003;2.121267e-002
2.514827e+003;2.143714e-002
2.516755e+003;2.182325e-002
2.518684e+003;2.186597e-002
2.520612e+003;2.155164e-002
2.522541e+003;2.132468e-002
2.524469e+003;2.137730e-002
2.526398e+003;2.157668e-002
2.528326e+003;2.143143e-002
2.530255e+003;2.121642e-002
2.532184e+003;2.137323e-002
2.534112e+003;2.140765e-002
2.536041e+003;2.117697e-002
2.537969e+003;2.118243e-002
2.539898e+003;2.122839e-002
2.541826e+003;2.108983e-002
2.543755e+003;2.107658e-002
2.545683e+003;2.119054e-002
2.547612e+003;2.127968e-002
2.549541e+003;2.116347e-002
2.551469e+003;2.104208e-002
2.553397e+003;2.096950e-002
2.555326e+003;2.086540e-002
2.557255e+003;2.077179e-002
2.559183e+003;2.081927e-002
2.561112e+003;2.069029e-002
2.563040e+003;2.049886e-002
2.564969e+003;2.070151e-002
2.566897e+003;2.063445e-002
2.568826e+003;2.008223e-002
2.570754e+003;1.985499e-002
2.572683e+003;2.002626e-002
2.574612e+003;1.979405e-002
2.576540e+003;1.968070e-002
2.578469e+003;1.968743e-002
2.580397e+003;1.913478e-002
2.582326e+003;1.896131e-002
2.584254e+003;1.938216e-002
2.586183e+003;1.956572e-002
2.588111e+003;1.957549e-002
2.590040e+003;1.967214e-002
2.591969e+003;1.941920e-002
2.593897e+003;1.926625e-002
2.595826e+003;1.950281e-002
2.597754e+003;1.959504e-002
2.599683e+003;1.930113e-002
2.601611e+003;1.944113e-002
2.603540e+003;1.998334e-002
2.605468e+003;1.991843e-002
2.607397e+003;1.962853e-002
2.609325e+003;1.946369e-002
2.611254e+003;1.953823e-002
2.613183e+003;1.978743e-002
2.615111e+003;1.999857e-002
2.617040e+003;1.979704e-002
2.618968e+003;1.946684e-002
2.620897e+003;1.966701e-002
2.622825e+003;1.975678e-002
2.624754e+003;1.967373e-002
2.626682e+003;2.002702e-002
2.628611e+003;2.029546e-002
2.630540e+003;2.041227e-002
2.632468e+003;2.049948e-002
2.634396e+003;2.053220e-002
2.636325e+003;2.053880e-002
2.638254e+003;2.045836e-002
2.640182e+003;2.047426e-002
2.642111e+003;2.051841e-002
2.644039e+003;2.065509e-002
2.645968e+003;2.093097e-002
2.647896e+003;2.060641e-002
2.649825e+003;2.025529e-002
2.651753e+003;2.051886e-002
2.653682e+003;2.054582e-002
2.655611e+003;2.028056e-002
2.657539e+003;2.024227e-002
2.659468e+003;2.041425e-002
2.661396e+003;2.046423e-002
2.663325e+003;2.071931e-002
2.665253e+003;2.100605e-002
2.667182e+003;2.102058e-002
2.669110e+003;2.097607e-002
2.671039e+003;2.074207e-002
2.672968e+003;2.058730e-002
2.674896e+003;2.063177e-002
2.676825e+003;2.061169e-002
2.678753e+003;2.064859e-002
2.680682e+003;2.060558e-002
2.682610e+003;2.061909e-002
2.684539e+003;2.070412e-002
2.686467e+003;2.058734e-002
2.688396e+003;2.050726e-002
2.690324e+003;2.076317e-002
2.692253e+003;2.111400e-002
2.694182e+003;2.133916e-002
2.696110e+003;2.125438e-002
2.698039e+003;2.096602e-002
2.699967e+003;2.085149e-002
2.701896e+003;2.052929e-002
2.703824e+003;2.017011e-002
2.705753e+003;2.058904e-002
2.707681e+003;2.083655e-002
2.709610e+003;2.040470e-002
2.711539e+003;2.018670e-002
2.713467e+003;2.024272e-002
2.715396e+003;2.031473e-002
2.717324e+003;2.023682e-002
2.719253e+003;2.035226e-002
2.721181e+003;2.066506e-002
2.723110e+003;2.067660e-002
2.725038e+003;2.028081e-002
2.726967e+003;1.989710e-002
2.728896e+003;1.955539e-002
2.730824e+003;1.964302e-002
2.732752e+003;2.012516e-002
2.734681e+003;2.004333e-002
2.736610e+003;1.962007e-002
2.738538e+003;1.936608e-002
2.740467e+003;1.944415e-002
2.742395e+003;1.935597e-002
2.744324e+003;1.915085e-002
2.746252e+003;1.920858e-002
2.748181e+003;1.924938e-002
2.750109e+003;1.923823e-002
2.752038e+003;1.920941e-002
2.753967e+003;1.931807e-002
2.755895e+003;1.959476e-002
2.757824e+003;1.948826e-002
2.759752e+003;1.929067e-002
2.761681e+003;1.939782e-002
2.763609e+003;1.961175e-002
2.765538e+003;1.960981e-002
2.767466e+003;1.970092e-002
2.769395e+003;2.009438e-002
2.771323e+003;2.035945e-002
2.773252e+003;2.050382e-002
2.775181e+003;2.081214e-002
2.777109e+003;2.111380e-002
2.779038e+003;2.121823e-002
2.780966e+003;2.128292e-002
2.782895e+003;2.142941e-002
2.784823e+003;2.162707e-002
2.786752e+003;2.182684e-002
2.788680e+003;2.210207e-002
2.790609e+003;2.219643e-002
2.792538e+003;2.234337e-002
2.794466e+003;2.309289e-002
2.796395e+003;2.344295e-002
2.798323e+003;2.361036e-002
2.800252e+003;2.405991e-002
2.802180e+003;2.422429e-002
2.804109e+003;2.416162e-002
2.806037e+003;2.440213e-002
2.807966e+003;2.468970e-002
2.809895e+003;2.472007e-002
2.811823e+003;2.454386e-002
2.813751e+003;2.438212e-002
2.815680e+003;2.450505e-002
2.817609e+003;2.482068e-002
2.819537e+003;2.494268e-002
2.821466e+003;2.465151e-002
2.823394e+003;2.453583e-002
2.825323e+003;2.486503e-002
2.827251e+003;2.543331e-002
2.829180e+003;2.589062e-002
2.831108e+003;2.597363e-002
2.833037e+003;2.626924e-002
2.834966e+003;2.685057e-002
2.836894e+003;2.729199e-002
2.838823e+003;2.787890e-002
2.840751e+003;2.885547e-002
2.842680e+003;3.000407e-002
2.844608e+003;3.152920e-002
2.846537e+003;3.287039e-002
2.848465e+003;3.425520e-002
2.850394e+003;3.636670e-002
2.852323e+003;3.839477e-002
2.854251e+003;3.981866e-002
2.856180e+003;4.106068e-002
2.858108e+003;4.239441e-002
2.860037e+003;4.383508e-002
2.861965e+003;4.527165e-002
2.863894e+003;4.627978e-002
2.865822e+003;4.693553e-002
2.867751e+003;4.749228e-002
2.869679e+003;4.769326e-002
2.871608e+003;4.786858e-002
2.873536e+003;4.795282e-002
2.875465e+003;4.762159e-002
2.877394e+003;4.731862e-002
2.879322e+003;4.701708e-002
2.881251e+003;4.682535e-002
2.883179e+003;4.691873e-002
2.885108e+003;4.673616e-002
2.887036e+003;4.661212e-002
2.888965e+003;4.709755e-002
2.890893e+003;4.779082e-002
2.892822e+003;4.846353e-002
2.894750e+003;4.926728e-002
2.896679e+003;5.019579e-002
2.898608e+003;5.149919e-002
2.900536e+003;5.284854e-002
2.902465e+003;5.439839e-002
2.904393e+003;5.618165e-002
2.906322e+003;5.821554e-002
2.908250e+003;6.033121e-002
2.910179e+003;6.227196e-002
2.912107e+003;6.425622e-002
2.914036e+003;6.641470e-002
2.915965e+003;6.850573e-002
2.917893e+003;6.986857e-002
2.919822e+003;7.083749e-002
2.921750e+003;7.208132e-002
2.923679e+003;7.319556e-002
2.925607e+003;7.349297e-002
2.927536e+003;7.399962e-002
2.929464e+003;7.465487e-002
2.931393e+003;7.487705e-002
2.933322e+003;7.511159e-002
2.935250e+003;7.519274e-002
2.937178e+003;7.494701e-002
2.939107e+003;7.469816e-002
2.941036e+003;7.443607e-002
2.942964e+003;7.368769e-002
2.944893e+003;7.241116e-002
2.946821e+003;7.071394e-002
2.948750e+003;6.872261e-002
2.950678e+003;6.679887e-002
2.952607e+003;6.496900e-002
2.954535e+003;6.313576e-002
2.956464e+003;6.145808e-002
2.958393e+003;6.031720e-002
2.960321e+003;5.942095e-002
2.962250e+003;5.844777e-002
2.964178e+003;5.743168e-002
2.966107e+003;5.670847e-002
2.968035e+003;5.644883e-002
2.969964e+003;5.595054e-002
2.971892e+003;5.502165e-002
2.973821e+003;5.413183e-002
2.975750e+003;5.371058e-002
2.977678e+003;5.346565e-002
2.979607e+003;5.287717e-002
2.981535e+003;5.232574e-002
2.983464e+003;5.181282e-002
2.985392e+003;5.132367e-002
2.987321e+003;5.062615e-002
2.989249e+003;4.992507e-002
2.991178e+003;4.960819e-002
2.993106e+003;4.938929e-002
2.995035e+003;4.856212e-002
2.996964e+003;4.743037e-002
2.998892e+003;4.695447e-002
3.000821e+003;4.660611e-002
3.002749e+003;4.565482e-002
3.004678e+003;4.441679e-002
3.006606e+003;4.321590e-002
3.008535e+003;4.239832e-002
3.010463e+003;4.159251e-002
3.012392e+003;4.027313e-002
3.014321e+003;3.918186e-002
3.016249e+003;3.848049e-002
3.018177e+003;3.773046e-002
3.020106e+003;3.708942e-002
3.022035e+003;3.636400e-002
3.023963e+003;3.557521e-002
3.025892e+003;3.505924e-002
3.027820e+003;3.489720e-002
3.029749e+003;3.444257e-002
3.031677e+003;3.364325e-002
3.033606e+003;3.304940e-002
3.035534e+003;3.259028e-002
3.037463e+003;3.243076e-002
3.039392e+003;3.216636e-002
3.041320e+003;3.157627e-002
3.043249e+003;3.123137e-002
3.045177e+003;3.100652e-002
3.047106e+003;3.075610e-002
3.049034e+003;3.039053e-002
3.050963e+003;3.015009e-002
3.052891e+003;3.013930e-002
3.054820e+003;2.982716e-002
3.056749e+003;2.907982e-002
3.058677e+003;2.863556e-002
3.060606e+003;2.883246e-002
3.062534e+003;2.870285e-002
3.064463e+003;2.826530e-002
3.066391e+003;2.826148e-002
3.068320e+003;2.839181e-002
3.070248e+003;2.793702e-002
3.072177e+003;2.725286e-002
3.074105e+003;2.744906e-002
3.076034e+003;2.743290e-002
3.077963e+003;2.678509e-002
3.079891e+003;2.631578e-002
3.081820e+003;2.615014e-002
3.083748e+003;2.605535e-002
3.085677e+003;2.573130e-002
3.087605e+003;2.563698e-002
3.089534e+003;2.546985e-002
3.091462e+003;2.511467e-002
3.093391e+003;2.479160e-002
3.095320e+003;2.448913e-002
3.097248e+003;2.429857e-002
3.099177e+003;2.423974e-002
3.101105e+003;2.395731e-002
3.103034e+003;2.367383e-002
3.104962e+003;2.387780e-002
3.106891e+003;2.376894e-002
3.108819e+003;2.355400e-002
3.110748e+003;2.346512e-002
3.112677e+003;2.315093e-002
3.114605e+003;2.280407e-002
3.116533e+003;2.250588e-002
3.118462e+003;2.244056e-002
3.120391e+003;2.246998e-002
3.122319e+003;2.189183e-002
3.124248e+003;2.123065e-002
3.126176e+003;2.124896e-002
3.128105e+003;2.119666e-002
3.130033e+003;2.107616e-002
3.131962e+003;2.099419e-002
3.133890e+003;2.084618e-002
3.135819e+003;2.069689e-002
3.137748e+003;2.071236e-002
3.139676e+003;2.089471e-002
3.141605e+003;2.060255e-002
3.143533e+003;2.041387e-002
3.145462e+003;2.054224e-002
3.147390e+003;2.057354e-002
3.149319e+003;2.057337e-002
3.151247e+003;2.012381e-002
3.153176e+003;1.970435e-002
3.155104e+003;2.007647e-002
3.157033e+003;2.013814e-002
3.158962e+003;1.985017e-002
3.160890e+003;2.006713e-002
3.162819e+003;2.018361e-002
3.164747e+003;2.000655e-002
3.166676e+003;1.980633e-002
3.168604e+003;1.969773e-002
3.170533e+003;1.956669e-002
3.172461e+003;1.981604e-002
3.174390e+003;2.034466e-002
3.176319e+003;2.050810e-002
3.178247e+003;2.001606e-002
3.180176e+003;1.971794e-002
3.182104e+003;1.981309e-002
3.184033e+003;2.000114e-002
3.185961e+003;2.009989e-002
3.187890e+003;1.980952e-002
3.189818e+003;1.968674e-002
3.191747e+003;2.023363e-002
3.193676e+003;2.025074e-002
3.195604e+003;1.986217e-002
3.197532e+003;1.982339e-002
3.199461e+003;1.970660e-002
3.201390e+003;1.961889e-002
3.203318e+003;1.972224e-002
3.205247e+003;1.975425e-002
3.207175e+003;1.972716e-002
3.209104e+003;2.027730e-002
3.211032e+003;2.082567e-002
3.212961e+003;2.059984e-002
3.214889e+003;2.009705e-002
3.216818e+003;2.035122e-002
3.218747e+003;2.077356e-002
3.220675e+003;2.093984e-002
3.222604e+003;2.092576e-002
3.224532e+003;2.066273e-002
3.226461e+003;2.055009e-002
3.228389e+003;2.036987e-002
3.230318e+003;2.011856e-002
3.232246e+003;2.054054e-002
3.234175e+003;2.106124e-002
3.236104e+003;2.073029e-002
3.238032e+003;2.045669e-002
3.239961e+003;2.043029e-002
3.241889e+003;2.025477e-002
3.243818e+003;1.999281e-002
3.245746e+003;2.022304e-002
3.247675e+003;2.035216e-002
3.249603e+003;2.053241e-002
3.251532e+003;2.077186e-002
3.253460e+003;2.070780e-002
3.255389e+003;2.013588e-002
3.257318e+003;1.990220e-002
3.259246e+003;1.993730e-002
3.261175e+003;1.982416e-002
3.263103e+003;1.990206e-002
3.265032e+003;1.989183e-002
3.266960e+003;1.934616e-002
3.268889e+003;1.895885e-002
3.270817e+003;1.892406e-002
3.272746e+003;1.900371e-002
3.274675e+003;1.927380e-002
3.276603e+003;1.919978e-002
3.278531e+003;1.902237e-002
3.280460e+003;1.865091e-002
3.282389e+003;1.810472e-002
3.284317e+003;1.782393e-002
3.286246e+003;1.775728e-002
3.288174e+003;1.768086e-002
3.290103e+003;1.761899e-002
3.292031e+003;1.750131e-002
3.293960e+003;1.774109e-002
3.295888e+003;1.840713e-002
3.297817e+003;1.879143e-002
3.299746e+003;1.874226e-002
3.301674e+003;1.815554e-002
3.303603e+003;1.723663e-002
3.305531e+003;1.715072e-002
3.307460e+003;1.737338e-002
3.309388e+003;1.737620e-002
3.311317e+003;1.730934e-002
3.313245e+003;1.731313e-002
3.315174e+003;1.719495e-002
3.317103e+003;1.705560e-002
3.319031e+003;1.704605e-002
3.320960e+003;1.713490e-002
3.322888e+003;1.727490e-002
3.324817e+003;1.740135e-002
3.326745e+003;1.708765e-002
3.328674e+003;1.652532e-002
3.330602e+003;1.673161e-002
3.332531e+003;1.720260e-002
3.334459e+003;1.662415e-002
3.336388e+003;1.631989e-002
3.338317e+003;1.687272e-002
3.340245e+003;1.724593e-002
3.342174e+003;1.733541e-002
3.344102e+003;1.720005e-002
3.346031e+003;1.686045e-002
3.347959e+003;1.677001e-002
3.349888e+003;1.691633e-002
3.351816e+003;1.699705e-002
3.353745e+003;1.731317e-002
3.355674e+003;1.767358e-002
3.357602e+003;1.697872e-002
3.359531e+003;1.614375e-002
3.361459e+003;1.582340e-002
3.363388e+003;1.574715e-002
3.365316e+003;1.630462e-002
3.367245e+003;1.675437e-002
3.369173e+003;1.642838e-002
3.371102e+003;1.621521e-002
3.373031e+003;1.576175e-002
3.374959e+003;1.493175e-002
3.376887e+003;1.505773e-002
3.378816e+003;1.564172e-002
3.380745e+003;1.534501e-002
3.382673e+003;1.534728e-002
3.384602e+003;1.537608e-002
3.386530e+003;1.511361e-002
3.388459e+003;1.467199e-002
3.390387e+003;1.440684e-002
3.392316e+003;1.453465e-002
3.394244e+003;1.448216e-002
3.396173e+003;1.409160e-002
3.398102e+003;1.412816e-002
3.400030e+003;1.442345e-002
3.401959e+003;1.454979e-002
3.403887e+003;1.430547e-002
3.405816e+003;1.422528e-002
3.407744e+003;1.482971e-002
3.409673e+003;1.501822e-002
3.411601e+003;1.494928e-002
3.413530e+003;1.511684e-002
3.415458e+003;1.519541e-002
3.417387e+003;1.516130e-002
3.419316e+003;1.548076e-002
3.421244e+003;1.568799e-002
3.423173e+003;1.545974e-002
3.425101e+003;1.546912e-002
3.427030e+003;1.607315e-002
3.428958e+003;1.685990e-002
3.430887e+003;1.685660e-002
3.432815e+003;1.668805e-002
3.434744e+003;1.692911e-002
3.436673e+003;1.722270e-002
3.438601e+003;1.732141e-002
3.440530e+003;1.710509e-002
3.442458e+003;1.713438e-002
3.444387e+003;1.770661e-002
3.446315e+003;1.821653e-002
3.448244e+003;1.809671e-002
3.450172e+003;1.771720e-002
3.452101e+003;1.741456e-002
3.454030e+003;1.747561e-002
3.455958e+003;1.774858e-002
3.457886e+003;1.839019e-002
3.459815e+003;1.900516e-002
3.461744e+003;1.917624e-002
3.463672e+003;1.885911e-002
3.465601e+003;1.871895e-002
3.467529e+003;1.858018e-002
3.469458e+003;1.867332e-002
3.471386e+003;1.873351e-002
3.473315e+003;1.889620e-002
3.475243e+003;1.939415e-002
3.477172e+003;1.936993e-002
3.479101e+003;1.877565e-002
3.481029e+003;1.872849e-002
3.482958e+003;1.876869e-002
3.484886e+003;1.916301e-002
3.486815e+003;1.922212e-002
3.488743e+003;1.876309e-002
3.490672e+003;1.921288e-002
3.492600e+003;1.987296e-002
3.494529e+003;1.983203e-002
3.496458e+003;1.965345e-002
3.498386e+003;1.986238e-002
3.500315e+003;1.985912e-002
3.502243e+003;1.992638e-002
3.504172e+003;2.013651e-002
3.506100e+003;2.046881e-002
3.508029e+003;2.112649e-002
3.509957e+003;2.136550e-002
3.511886e+003;2.132910e-002
3.513814e+003;2.159043e-002
3.515743e+003;2.160475e-002
3.517672e+003;2.153054e-002
3.519600e+003;2.144518e-002
3.521529e+003;2.160872e-002
3.523457e+003;2.215804e-002
3.525386e+003;2.279995e-002
3.527314e+003;2.348541e-002
3.529243e+003;2.377839e-002
3.531171e+003;2.339952e-002
3.533100e+003;2.305015e-002
3.535029e+003;2.297811e-002
3.536957e+003;2.287594e-002
3.538885e+003;2.292135e-002
3.540814e+003;2.302325e-002
3.542743e+003;2.278169e-002
3.544671e+003;2.262940e-002
3.546600e+003;2.268763e-002
3.548528e+003;2.306815e-002
3.550457e+003;2.344925e-002
3.552385e+003;2.321716e-002
3.554314e+003;2.255690e-002
3.556242e+003;2.247155e-002
3.558171e+003;2.228463e-002
3.560100e+003;2.249513e-002
3.562028e+003;2.297437e-002
3.563957e+003;2.316911e-002
3.565885e+003;2.250724e-002
3.567814e+003;2.203660e-002
3.569742e+003;2.226488e-002
3.571671e+003;2.258350e-002
3.573599e+003;2.256392e-002
3.575528e+003;2.191301e-002
3.577457e+003;2.152177e-002
3.579385e+003;2.166980e-002
3.581314e+003;2.173943e-002
3.583242e+003;2.197986e-002
3.585171e+003;2.165598e-002
3.587099e+003;2.153430e-002
3.589028e+003;2.214287e-002
3.590956e+003;2.253722e-002
3.592885e+003;2.244192e-002
3.594813e+003;2.246192e-002
3.596742e+003;2.305103e-002
3.598671e+003;2.343648e-002
3.600599e+003;2.324831e-002
3.602528e+003;2.330627e-002
3.604456e+003;2.323789e-002
3.606385e+003;2.348552e-002
3.608313e+003;2.397926e-002
3.610242e+003;2.434101e-002
3.612170e+003;2.477869e-002
3.614099e+003;2.509540e-002
3.616028e+003;2.479710e-002
3.617956e+003;2.428330e-002
3.619885e+003;2.414358e-002
3.621813e+003;2.400927e-002
3.623742e+003;2.416779e-002
3.625670e+003;2.425218e-002
3.627599e+003;2.423424e-002
3.629527e+003;2.419189e-002
3.631456e+003;2.413413e-002
3.633385e+003;2.399103e-002
3.635313e+003;2.367645e-002
3.637241e+003;2.353242e-002
3.639170e+003;2.330428e-002
3.641099e+003;2.255683e-002
3.643027e+003;2.250529e-002
3.644956e+003;2.222429e-002
3.646884e+003;2.126486e-002
3.648813e+003;2.093789e-002
3.650741e+003;2.080954e-002
3.652670e+003;2.041814e-002
3.654598e+003;1.963768e-002
3.656527e+003;1.857873e-002
3.658456e+003;1.786737e-002
3.660384e+003;1.736638e-002
3.662313e+003;1.689824e-002
3.664241e+003;1.595462e-002
3.666170e+003;1.503067e-002
3.668098e+003;1.476989e-002
3.670027e+003;1.469671e-002
3.671955e+003;1.450673e-002
3.673884e+003;1.388690e-002
3.675813e+003;1.277675e-002
3.677741e+003;1.220181e-002
3.679669e+003;1.221319e-002
3.681598e+003;1.251824e-002
3.683527e+003;1.235233e-002
3.685455e+003;1.188875e-002
3.687384e+003;1.162624e-002
3.689312e+003;1.189569e-002
3.691241e+003;1.164448e-002
3.693169e+003;1.103851e-002
3.695098e+003;1.103375e-002
3.697026e+003;1.133828e-002
3.698955e+003;1.138984e-002
3.700884e+003;1.105646e-002
3.702812e+003;1.045066e-002
3.704741e+003;1.062753e-002
3.706669e+003;1.125557e-002
3.708598e+003;1.126380e-002
3.710526e+003;1.067252e-002
3.712455e+003;1.029711e-002
3.714383e+003;1.057232e-002
3.716312e+003;1.088325e-002
3.718240e+003;1.098573e-002
3.720169e+003;1.037973e-002
3.722098e+003;1.008904e-002
3.724026e+003;1.029358e-002
3.725955e+003;1.074782e-002
3.727883e+003;1.100748e-002
3.729812e+003;1.103056e-002
3.731740e+003;1.107168e-002
3.733669e+003;1.079595e-002
3.735597e+003;1.071830e-002
3.737526e+003;1.119566e-002
3.739455e+003;1.110615e-002
3.741383e+003;1.086232e-002
3.743312e+003;1.031614e-002
3.745240e+003;1.022464e-002
3.747169e+003;1.126163e-002
3.749097e+003;1.132495e-002
3.751026e+003;1.080199e-002
3.752954e+003;1.099977e-002
3.754883e+003;1.127829e-002
3.756812e+003;1.076663e-002
3.758740e+003;1.027020e-002
3.760668e+003;1.017335e-002
3.762597e+003;1.072404e-002
3.764526e+003;1.104565e-002
3.766454e+003;1.112808e-002
3.768383e+003;1.129209e-002
3.770311e+003;1.171875e-002
3.772240e+003;1.189372e-002
3.774168e+003;1.178752e-002
3.776097e+003;1.157683e-002
3.778025e+003;1.140256e-002
3.779954e+003;1.124034e-002
3.781883e+003;1.147910e-002
3.783811e+003;1.212027e-002
3.785740e+003;1.255644e-002
3.787668e+003;1.225290e-002
3.789597e+003;1.147434e-002
3.791525e+003;1.102760e-002
3.793454e+003;1.096310e-002
3.795382e+003;1.103097e-002
3.797311e+003;1.116826e-002
3.799240e+003;1.099821e-002
3.801168e+003;1.082818e-002
3.803097e+003;1.098223e-002
3.805025e+003;1.130512e-002
3.806954e+003;1.161300e-002
3.808882e+003;1.197825e-002
3.810811e+003;1.189774e-002
3.812739e+003;1.173281e-002
3.814668e+003;1.198210e-002
3.816596e+003;1.197389e-002
3.818525e+003;1.197249e-002
3.820454e+003;1.190966e-002
3.822382e+003;1.191596e-002
3.824311e+003;1.201282e-002
3.826239e+003;1.215826e-002
3.828168e+003;1.243688e-002
3.830096e+003;1.224308e-002
3.832025e+003;1.155808e-002
3.833953e+003;1.144685e-002
3.835882e+003;1.169948e-002
3.837811e+003;1.181002e-002
3.839739e+003;1.191136e-002
3.841667e+003;1.172205e-002
3.843596e+003;1.168090e-002
3.845525e+003;1.188633e-002
3.847453e+003;1.202089e-002
3.849382e+003;1.231084e-002
3.851310e+003;1.242675e-002
3.853239e+003;1.207353e-002
3.855167e+003;1.225109e-002
3.857096e+003;1.275740e-002
3.859024e+003;1.276232e-002
3.860953e+003;1.239013e-002
3.862882e+003;1.234251e-002
3.864810e+003;1.236818e-002
3.866739e+003;1.238379e-002
3.868667e+003;1.181121e-002
3.870596e+003;1.126832e-002
3.872524e+003;1.186661e-002
3.874453e+003;1.176028e-002
3.876381e+003;1.179606e-002
3.878310e+003;1.260791e-002
3.880239e+003;1.296921e-002
3.882167e+003;1.297901e-002
3.884096e+003;1.290064e-002
3.886024e+003;1.302350e-002
3.887953e+003;1.279323e-002
3.889881e+003;1.219288e-002
3.891810e+003;1.218058e-002
3.893738e+003;1.257639e-002
3.895667e+003;1.267770e-002
3.897595e+003;1.266457e-002
3.899524e+003;1.309227e-002
3.901453e+003;1.320278e-002
3.903381e+003;1.252895e-002
3.905310e+003;1.252455e-002
3.907238e+003;1.316433e-002
3.909167e+003;1.315954e-002
3.911095e+003;1.238308e-002
3.913024e+003;1.246951e-002
3.914952e+003;1.303176e-002
3.916881e+003;1.366589e-002
3.918810e+003;1.391694e-002
3.920738e+003;1.339267e-002
3.922667e+003;1.334856e-002
3.924595e+003;1.385587e-002
3.926524e+003;1.408150e-002
3.928452e+003;1.378138e-002
3.930381e+003;1.372153e-002
3.932309e+003;1.395844e-002
3.934238e+003;1.367793e-002
3.936167e+003;1.343754e-002
3.938095e+003;1.361293e-002
3.940023e+003;1.380888e-002
3.941952e+003;1.385564e-002
3.943881e+003;1.398725e-002
3.945809e+003;1.416146e-002
3.947738e+003;1.408660e-002
3.949666e+003;1.427184e-002
3.951595e+003;1.432862e-002
3.953523e+003;1.427944e-002
3.955452e+003;1.431088e-002
3.957380e+003;1.439728e-002
3.959309e+003;1.461322e-002
3.961238e+003;1.505440e-002
3.963166e+003;1.520090e-002
3.965095e+003;1.512113e-002
3.967023e+003;1.495041e-002
3.968952e+003;1.511698e-002
3.970880e+003;1.523226e-002
3.972809e+003;1.477503e-002
3.974737e+003;1.532555e-002
3.976666e+003;1.614898e-002
3.978594e+003;1.585838e-002
3.980523e+003;1.531618e-002
3.982452e+003;1.541559e-002
3.984380e+003;1.537824e-002
3.986309e+003;1.525361e-002
3.988237e+003;1.550936e-002
3.990166e+003;1.586570e-002
3.992094e+003;1.609946e-002
3.994023e+003;1.611865e-002
3.995951e+003;1.602584e-002
3.997880e+003;1.585505e-002
3.999809e+003;1.591598e-002
4.001737e+003;0.000000e+000
