3.992094e+002;0.000000e+000
4.011380e+002;0.000000e+000
4.030665e+002;0.000000e+000
4.049951e+002;0.000000e+000
4.069236e+002;0.000000e+000
4.088522e+002;0.000000e+000
4.107807e+002;0.000000e+000
4.127093e+002;0.000000e+000
4.146378e+002;0.000000e+000
4.165664e+002;0.000000e+000
4.184949e+002;0.000000e+000
4.204235e+002;0.000000e+000
4.223520e+002;0.000000e+000
4.242806e+002;0.000000e+000
4.262091e+002;0.000000e+000
4.281377e+002;0.000000e+000
4.300662e+002;0.000000e+000
4.319948e+002;0.000000e+000
4.339233e+002;0.000000e+000
4.358519e+002;0.000000e+000
4.377804e+002;0.000000e+000
4.397090e+002;0.000000e+000
4.416375e+002;0.000000e+000
4.435660e+002;0.000000e+000
4.454946e+002;0.000000e+000
4.474232e+002;0.000000e+000
4.493517e+002;0.000000e+000
4.512802e+002;0.000000e+000
4.532088e+002;0.000000e+000
4.551373e+002;0.000000e+000
4.570659e+002;0.000000e+000
4.589944e+002;0.000000e+000
4.609230e+002;0.000000e+000
4.628515e+002;0.000000e+000
4.647801e+002;0.000000e+000
4.667086e+002;0.000000e+000
4.686372e+002;0.000000e+000
4.705657e+002;0.000000e+000
4.724943e+002;0.000000e+000
4.744228e+002;0.000000e+000
4.763513e+002;0.000000e+000
4.782799e+002;0.000000e+000
4.802085e+002;0.000000e+000
4.821370e+002;0.000000e+000
4.840656e+002;0.000000e+000
4.859941e+002;0.000000e+000
4.879226e+002;0.000000e+000
4.898512e+002;0.000000e+000
4.917798e+002;0.000000e+000
4.937083e+002;0.000000e+000
4.956368e+002;0.000000e+000
4.975654e+002;0.000000e+000
4.994939e+002;0.000000e+000
5.014225e+002;0.000000e+000
5.033510e+002;0.000000e+000
5.052796e+002;0.000000e+000
5.072081e+002;0.000000e+000
5.091367e+002;0.000000e+000
5.110652e+002;0.000000e+000
5.129938e+002;0.000000e+000
5.149223e+002;0.000000e+000
5.168509e+002;0.000000e+000
5.187794e+002;0.000000e+000
5.207079e+002;0.000000e+000
5.226365e+002;0.000000e+000
5.245651e+002;0.000000e+000
5.264936e+002;0.000000e+000
5.284222e+002;0.000000e+000
5.303507e+002;0.000000e+000
5.322792e+002;0.000000e+000
5.342078e+002;0.000000e+000
5.361364e+002;0.000000e+000
5.380649e+002;0.000000e+000
5.399935e+002;0.000000e+000
5.419220e+002;0.000000e+000
5.438505e+002;0.000000e+000
5.457791e+002;0.000000e+000
5.477076e+002;0.000000e+000
5.496362e+002;0.000000e+000
5.515648e+002;0.000000e+000
5.534933e+002;0.000000e+000
5.554218e+002;0.000000e+000
5.573504e+002;0.000000e+000
5.592789e+002;0.000000e+000
5.612075e+002;0.000000e+000
5.631360e+002;0.000000e+000
5.650646e+002;0.000000e+000
5.669931e+002;0.000000e+000
5.689217e+002;0.000000e+000
5.708502e+002;0.000000e+000
5.727787e+002;0.000000e+000
5.747073e+002;0.000000e+000
5.766359e+002;0.000000e+000
5.785644e+002;0.000000e+000
5.804930e+002;0.000000e+000
5.824215e+002;0.000000e+000
5.843500e+002;0.000000e+000
5.862786e+002;0.000000e+000
5.882072e+002;0.000000e+000
5.901357e+002;0.000000e+000
5.920643e+002;0.000000e+000
5.939928e+002;0.000000e+000
5.959213e+002;0.000000e+000
5.978499e+002;0.000000e+000
5.997784e+002;7.138081e-002
6.017070e+002;6.937410e-002
6.036355e+002;6.938114e-002
6.055641e+002;7.476754e-002
6.074926e+002;7.179786e-002
6.094211e+002;6.976332e-002
6.113497e+002;7.022637e-002
6.132783e+002;7.034211e-002
6.152068e+002;7.256135e-002
6.171354e+002;7.360844e-002
6.190639e+002;7.540815e-002
6.209924e+002;7.613335e-002
6.229210e+002;7.674466e-002
6.248495e+002;7.690319e-002
6.267781e+002;7.458369e-002
6.287067e+002;7.409432e-002
6.306352e+002;7.385416e-002
6.325637e+002;7.127042e-002
6.344923e+002;7.290448e-002
6.364208e+002;7.374298e-002
6.383494e+002;7.509469e-002
6.402780e+002;7.496335e-002
6.422065e+002;7.012916e-002
6.441350e+002;7.004203e-002
6.460636e+002;7.510072e-002
6.479921e+002;7.526489e-002
6.499207e+002;7.423802e-002
6.518492e+002;7.227851e-002
6.537778e+002;7.028800e-002
6.557063e+002;7.087689e-002
6.576349e+002;7.271809e-002
6.595634e+002;7.389124e-002
6.614919e+002;7.312216e-002
6.634205e+002;7.290875e-002
6.653491e+002;7.341707e-002
6.672776e+002;7.278121e-002
6.692062e+002;7.234766e-002
6.711347e+002;7.360020e-002
6.730632e+002;7.475951e-002
6.749918e+002;7.417831e-002
6.769203e+002;7.469052e-002
6.788489e+002;7.739678e-002
6.807775e+002;7.866941e-002
6.827060e+002;7.660863e-002
6.846345e+002;7.589786e-002
6.865631e+002;7.563761e-002
6.884916e+002;7.407486e-002
6.904202e+002;7.440291e-002
6.923488e+002;7.549763e-002
6.942773e+002;7.488425e-002
6.962058e+002;7.433697e-002
6.981344e+002;7.497879e-002
7.000629e+002;7.556628e-002
7.019915e+002;7.602341e-002
7.039200e+002;7.667982e-002
7.058486e+002;7.676542e-002
7.077771e+002;7.525228e-002
7.097057e+002;7.395299e-002
7.116342e+002;7.415991e-002
7.135627e+002;7.361880e-002
7.154913e+002;7.304951e-002
7.174199e+002;7.342822e-002
7.193484e+002;7.373682e-002
7.212770e+002;7.293466e-002
7.232055e+002;7.261907e-002
7.251340e+002;7.348582e-002
7.270626e+002;7.492177e-002
7.289911e+002;7.508111e-002
7.309197e+002;7.547031e-002
7.328483e+002;7.609308e-002
7.347768e+002;7.564400e-002
7.367053e+002;7.537728e-002
7.386339e+002;7.534812e-002
7.405624e+002;7.601444e-002
7.424910e+002;7.791023e-002
7.444196e+002;7.910848e-002
7.463481e+002;7.938752e-002
7.482766e+002;8.004956e-002
7.502052e+002;8.071753e-002
7.521337e+002;8.076820e-002
7.540623e+002;8.013017e-002
7.559908e+002;7.946693e-002
7.579194e+002;7.933562e-002
7.598479e+002;7.976548e-002
7.617765e+002;7.976500e-002
7.637050e+002;7.984682e-002
7.656335e+002;7.967678e-002
7.675621e+002;7.925329e-002
7.694907e+002;7.877833e-002
7.714192e+002;7.844465e-002
7.733478e+002;7.787099e-002
7.752763e+002;7.726438e-002
7.772048e+002;7.723901e-002
7.791334e+002;7.724316e-002
7.810620e+002;7.635155e-002
7.829905e+002;7.599692e-002
7.849191e+002;7.650425e-002
7.868476e+002;7.641013e-002
7.887761e+002;7.507130e-002
7.907047e+002;7.374369e-002
7.926332e+002;7.312816e-002
7.945618e+002;7.279198e-002
7.964903e+002;7.283700e-002
7.984189e+002;7.284013e-002
8.003474e+002;7.270301e-002
8.022759e+002;7.247117e-002
8.042045e+002;7.187706e-002
8.061331e+002;7.137304e-002
8.080616e+002;7.110167e-002
8.099902e+002;7.065850e-002
8.119187e+002;7.027292e-002
8.138472e+002;7.001442e-002
8.157758e+002;7.023042e-002
8.177043e+002;7.025808e-002
8.196329e+002;7.028367e-002
8.215615e+002;7.069035e-002
8.234900e+002;7.132551e-002
8.254185e+002;7.182831e-002
8.273471e+002;7.257258e-002
8.292756e+002;7.407451e-002
8.312042e+002;7.496828e-002
8.331328e+002;7.508961e-002
8.350613e+002;7.542296e-002
8.369898e+002;7.500746e-002
8.389184e+002;7.391747e-002
8.408469e+002;7.283441e-002
8.427755e+002;7.241621e-002
8.447040e+002;7.125207e-002
8.466326e+002;6.940015e-002
8.485611e+002;6.829788e-002
8.504897e+002;6.784888e-002
8.524182e+002;6.749927e-002
8.543467e+002;6.639840e-002
8.562753e+002;6.567647e-002
8.582039e+002;6.559449e-002
8.601324e+002;6.480033e-002
8.620610e+002;6.422507e-002
8.639895e+002;6.465226e-002
8.659180e+002;6.500721e-002
8.678466e+002;6.476083e-002
8.697751e+002;6.489147e-002
8.717037e+002;6.553241e-002
8.736323e+002;6.585268e-002
8.755608e+002;6.581143e-002
8.774893e+002;6.595005e-002
8.794179e+002;6.598604e-002
8.813464e+002;6.580845e-002
8.832750e+002;6.608710e-002
8.852036e+002;6.569018e-002
8.871321e+002;6.478306e-002
8.890606e+002;6.441246e-002
8.909892e+002;6.484545e-002
8.929177e+002;6.472021e-002
8.948463e+002;6.435289e-002
8.967748e+002;6.475948e-002
8.987034e+002;6.503461e-002
9.006319e+002;6.483256e-002
9.025605e+002;6.473102e-002
9.044890e+002;6.515786e-002
9.064175e+002;6.589267e-002
9.083461e+002;6.618325e-002
9.102747e+002;6.602546e-002
9.122032e+002;6.603603e-002
9.141318e+002;6.609162e-002
9.160603e+002;6.614486e-002
9.179888e+002;6.626569e-002
9.199174e+002;6.644987e-002
9.218459e+002;6.729271e-002
9.237745e+002;6.801509e-002
9.257031e+002;6.796115e-002
9.276316e+002;6.824305e-002
9.295601e+002;6.905705e-002
9.314887e+002;6.941862e-002
9.334172e+002;6.964420e-002
9.353458e+002;7.041571e-002
9.372744e+002;7.124051e-002
9.392029e+002;7.220964e-002
9.411314e+002;7.337247e-002
9.430600e+002;7.470556e-002
9.449885e+002;7.579803e-002
9.469171e+002;7.700688e-002
9.488456e+002;7.849860e-002
9.507742e+002;8.003582e-002
9.527027e+002;8.114325e-002
9.546313e+002;8.187534e-002
9.565598e+002;8.266125e-002
9.584883e+002;8.292238e-002
9.604169e+002;8.298574e-002
9.623455e+002;8.293870e-002
9.642740e+002;8.265961e-002
9.662026e+002;8.236227e-002
9.681311e+002;8.232535e-002
9.700596e+002;8.200855e-002
9.719882e+002;8.135746e-002
9.739167e+002;8.094646e-002
9.758453e+002;8.075148e-002
9.777739e+002;8.060864e-002
9.797024e+002;8.059365e-002
9.816309e+002;8.057179e-002
9.835595e+002;8.087564e-002
9.854880e+002;8.117300e-002
9.874166e+002;8.103210e-002
9.893452e+002;8.116733e-002
9.912737e+002;8.130863e-002
9.932022e+002;8.081122e-002
9.951307e+002;8.057689e-002
9.970593e+002;8.123803e-002
9.989879e+002;8.175101e-002
1.000916e+003;8.166266e-002
1.002845e+003;8.170685e-002
1.004773e+003;8.230060e-002
1.006702e+003;8.275384e-002
1.008631e+003;8.297022e-002
1.010559e+003;8.334236e-002
1.012488e+003;8.381020e-002
1.014416e+003;8.362228e-002
1.016345e+003;8.394766e-002
1.018273e+003;8.488045e-002
1.020202e+003;8.595827e-002
1.022130e+003;8.663551e-002
1.024059e+003;8.753043e-002
1.025988e+003;8.913036e-002
1.027916e+003;9.046533e-002
1.029845e+003;9.257378e-002
1.031773e+003;9.526595e-002
1.033702e+003;9.822349e-002
1.035630e+003;1.009988e-001
1.037559e+003;1.021538e-001
1.039487e+003;1.016287e-001
1.041416e+003;1.002015e-001
1.043344e+003;9.887815e-002
1.045273e+003;9.837240e-002
1.047202e+003;9.829976e-002
1.049130e+003;9.806760e-002
1.051059e+003;9.872399e-002
1.052987e+003;9.996267e-002
1.054916e+003;1.012426e-001
1.056844e+003;1.027981e-001
1.058773e+003;1.042569e-001
1.060701e+003;1.060928e-001
1.062630e+003;1.075425e-001
1.064558e+003;1.084746e-001
1.066487e+003;1.088938e-001
1.068416e+003;1.089514e-001
1.070344e+003;1.090227e-001
1.072273e+003;1.078518e-001
1.074201e+003;1.059942e-001
1.076130e+003;1.041074e-001
1.078058e+003;1.023985e-001
1.079987e+003;1.003788e-001
1.081915e+003;9.839284e-002
1.083844e+003;9.749929e-002
1.085773e+003;9.644680e-002
1.087701e+003;9.397990e-002
1.089630e+003;9.196530e-002
1.091558e+003;9.096261e-002
1.093487e+003;8.972347e-002
1.095415e+003;8.843250e-002
1.097344e+003;8.784638e-002
1.099272e+003;8.722132e-002
1.101201e+003;8.657002e-002
1.103129e+003;8.617479e-002
1.105058e+003;8.572175e-002
1.106987e+003;8.503969e-002
1.108915e+003;8.456460e-002
1.110844e+003;8.397672e-002
1.112772e+003;8.271252e-002
1.114701e+003;8.151525e-002
1.116629e+003;8.023578e-002
1.118558e+003;7.883613e-002
1.120486e+003;7.766030e-002
1.122415e+003;7.630095e-002
1.124344e+003;7.476384e-002
1.126272e+003;7.338016e-002
1.128201e+003;7.194299e-002
1.130129e+003;7.062357e-002
1.132058e+003;6.998908e-002
1.133986e+003;6.971674e-002
1.135915e+003;6.983480e-002
1.137843e+003;7.012671e-002
1.139772e+003;7.120081e-002
1.141700e+003;7.273270e-002
1.143629e+003;7.394466e-002
1.145557e+003;7.550748e-002
1.147486e+003;7.815566e-002
1.149415e+003;8.097477e-002
1.151343e+003;8.372385e-002
1.153272e+003;8.689183e-002
1.155200e+003;9.058789e-002
1.157129e+003;9.433190e-002
1.159057e+003;9.786408e-002
1.160986e+003;1.009165e-001
1.162914e+003;1.037868e-001
1.164843e+003;1.061284e-001
1.166771e+003;1.071265e-001
1.168700e+003;1.074205e-001
1.170629e+003;1.071717e-001
1.172557e+003;1.062269e-001
1.174486e+003;1.050997e-001
1.176414e+003;1.035622e-001
1.178343e+003;1.017063e-001
1.180271e+003;1.004144e-001
1.182200e+003;9.972166e-002
1.184128e+003;9.940333e-002
1.186057e+003;9.958857e-002
1.187986e+003;1.000147e-001
1.189914e+003;1.005048e-001
1.191843e+003;1.012232e-001
1.193771e+003;1.019923e-001
1.195700e+003;1.025560e-001
1.197628e+003;1.031675e-001
1.199557e+003;1.034728e-001
1.201485e+003;1.032174e-001
1.203414e+003;1.028932e-001
1.205343e+003;1.026496e-001
1.207271e+003;1.025293e-001
1.209200e+003;1.021303e-001
1.211128e+003;1.016676e-001
1.213057e+003;1.012354e-001
1.214985e+003;1.010139e-001
1.216914e+003;1.011155e-001
1.218842e+003;1.010972e-001
1.220771e+003;1.010942e-001
1.222699e+003;1.009829e-001
1.224628e+003;1.009173e-001
1.226557e+003;1.010866e-001
1.228485e+003;1.012729e-001
1.230414e+003;1.013327e-001
1.232342e+003;1.010386e-001
1.234271e+003;1.005802e-001
1.236199e+003;9.981767e-002
1.238128e+003;9.938171e-002
1.240056e+003;9.955356e-002
1.241985e+003;9.975859e-002
1.243913e+003;9.981292e-002
1.245842e+003;9.987780e-002
1.247771e+003;9.964041e-002
1.249699e+003;9.920876e-002
1.251628e+003;9.914689e-002
1.253556e+003;9.911121e-002
1.255485e+003;9.856248e-002
1.257413e+003;9.809725e-002
1.259342e+003;9.787139e-002
1.261270e+003;9.760821e-002
1.263199e+003;9.698059e-002
1.265127e+003;9.646542e-002
1.267056e+003;9.607836e-002
1.268985e+003;9.589601e-002
1.270913e+003;9.564766e-002
1.272842e+003;9.476121e-002
1.274770e+003;9.372593e-002
1.276699e+003;9.295325e-002
1.278627e+003;9.196076e-002
1.280556e+003;9.067562e-002
1.282484e+003;8.973292e-002
1.284413e+003;8.879991e-002
1.286342e+003;8.801191e-002
1.288270e+003;8.738062e-002
1.290199e+003;8.655983e-002
1.292127e+003;8.581314e-002
1.294056e+003;8.525023e-002
1.295984e+003;8.458964e-002
1.297913e+003;8.388801e-002
1.299841e+003;8.371922e-002
1.301770e+003;8.388306e-002
1.303698e+003;8.351669e-002
1.305627e+003;8.332000e-002
1.307556e+003;8.329391e-002
1.309484e+003;8.339772e-002
1.311413e+003;8.350156e-002
1.313341e+003;8.345879e-002
1.315270e+003;8.331052e-002
1.317198e+003;8.338021e-002
1.319127e+003;8.364474e-002
1.321055e+003;8.389058e-002
1.322984e+003;8.410853e-002
1.324912e+003;8.419347e-002
1.326841e+003;8.423389e-002
1.328770e+003;8.448679e-002
1.330698e+003;8.488545e-002
1.332627e+003;8.525225e-002
1.334555e+003;8.566158e-002
1.336484e+003;8.610966e-002
1.338412e+003;8.686807e-002
1.340341e+003;8.788350e-002
1.342269e+003;8.855144e-002
1.344198e+003;8.932129e-002
1.346126e+003;8.993540e-002
1.348055e+003;9.025045e-002
1.349984e+003;9.056471e-002
1.351912e+003;9.084439e-002
1.353841e+003;9.084599e-002
1.355769e+003;9.066713e-002
1.357698e+003;9.069318e-002
1.359626e+003;9.073107e-002
1.361555e+003;9.066362e-002
1.363483e+003;9.030665e-002
1.365412e+003;8.971483e-002
1.367341e+003;8.918891e-002
1.369269e+003;8.867253e-002
1.371198e+003;8.796898e-002
1.373126e+003;8.711579e-002
1.375055e+003;8.646638e-002
1.376983e+003;8.590177e-002
1.378912e+003;8.533302e-002
1.380840e+003;8.502740e-002
1.382769e+003;8.453727e-002
1.384698e+003;8.356453e-002
1.386626e+003;8.247271e-002
1.388555e+003;8.156978e-002
1.390483e+003;8.037486e-002
1.392412e+003;7.862779e-002
1.394340e+003;7.679792e-002
1.396269e+003;7.519507e-002
1.398197e+003;7.374208e-002
1.400126e+003;7.270920e-002
1.402054e+003;7.220585e-002
1.403983e+003;7.190741e-002
1.405911e+003;7.206798e-002
1.407840e+003;7.231303e-002
1.409769e+003;7.229052e-002
1.411697e+003;7.295053e-002
1.413626e+003;7.372817e-002
1.415554e+003;7.441998e-002
1.417483e+003;7.526745e-002
1.419411e+003;7.649907e-002
1.421340e+003;7.829432e-002
1.423268e+003;8.074733e-002
1.425197e+003;8.403856e-002
1.427125e+003;8.802043e-002
1.429054e+003;9.243126e-002
1.430983e+003;9.701241e-002
1.432911e+003;1.013349e-001
1.434840e+003;1.050348e-001
1.436768e+003;1.084858e-001
1.438697e+003;1.121586e-001
1.440625e+003;1.161030e-001
1.442554e+003;1.199271e-001
1.444482e+003;1.236055e-001
1.446411e+003;1.268860e-001
1.448340e+003;1.294758e-001
1.450268e+003;1.307479e-001
1.452197e+003;1.299896e-001
1.454125e+003;1.269505e-001
1.456054e+003;1.218162e-001
1.457982e+003;1.149765e-001
1.459911e+003;1.076721e-001
1.461839e+003;1.004070e-001
1.463768e+003;9.358431e-002
1.465697e+003;8.793247e-002
1.467625e+003;8.328664e-002
1.469554e+003;7.970974e-002
1.471482e+003;7.685613e-002
1.473411e+003;7.412002e-002
1.475339e+003;7.169902e-002
1.477268e+003;6.987994e-002
1.479196e+003;6.877676e-002
1.481125e+003;6.790939e-002
1.483053e+003;6.732725e-002
1.484982e+003;6.682759e-002
1.486911e+003;6.626318e-002
1.488839e+003;6.592120e-002
1.490768e+003;6.539626e-002
1.492696e+003;6.465972e-002
1.494625e+003;6.431217e-002
1.496553e+003;6.435966e-002
1.498482e+003;6.442322e-002
1.500410e+003;6.440224e-002
1.502339e+003;6.429937e-002
1.504267e+003;6.418781e-002
1.506196e+003;6.415754e-002
1.508125e+003;6.432208e-002
1.510053e+003;6.461408e-002
1.511982e+003;6.501044e-002
1.513910e+003;6.530733e-002
1.515839e+003;6.540185e-002
1.517767e+003;6.554050e-002
1.519696e+003;6.519039e-002
1.521624e+003;6.497161e-002
1.523553e+003;6.495564e-002
1.525481e+003;6.489097e-002
1.527410e+003;6.503192e-002
1.529339e+003;6.523424e-002
1.531267e+003;6.525712e-002
1.533196e+003;6.518909e-002
1.535124e+003;6.545235e-002
1.537053e+003;6.542770e-002
1.538981e+003;6.485422e-002
1.540910e+003;6.497122e-002
1.542838e+003;6.557515e-002
1.544767e+003;6.530637e-002
1.546695e+003;6.497812e-002
1.548624e+003;6.514050e-002
1.550553e+003;6.492709e-002
1.552481e+003;6.430786e-002
1.554410e+003;6.384942e-002
1.556338e+003;6.320328e-002
1.558267e+003;6.232110e-002
1.560195e+003;6.191351e-002
1.562124e+003;6.182250e-002
1.564052e+003;6.145640e-002
1.565981e+003;6.080688e-002
1.567910e+003;6.003519e-002
1.569838e+003;5.960358e-002
1.571767e+003;5.958105e-002
1.573695e+003;5.949048e-002
1.575624e+003;5.908364e-002
1.577552e+003;5.900168e-002
1.579481e+003;5.919613e-002
1.581409e+003;5.912373e-002
1.583338e+003;5.904533e-002
1.585266e+003;5.928280e-002
1.587195e+003;5.919515e-002
1.589124e+003;5.900825e-002
1.591052e+003;5.906473e-002
1.592981e+003;5.914518e-002
1.594909e+003;5.928838e-002
1.596838e+003;5.961537e-002
1.598766e+003;6.016506e-002
1.600695e+003;6.065540e-002
1.602623e+003;6.114256e-002
1.604552e+003;6.172979e-002
1.606480e+003;6.257372e-002
1.608409e+003;6.342060e-002
1.610338e+003;6.403734e-002
1.612266e+003;6.428527e-002
1.614195e+003;6.429940e-002
1.616123e+003;6.462900e-002
1.618052e+003;6.530602e-002
1.619980e+003;6.605165e-002
1.621909e+003;6.680448e-002
1.623837e+003;6.759941e-002
1.625766e+003;6.838618e-002
1.627694e+003;6.947188e-002
1.629623e+003;7.048851e-002
1.631552e+003;7.129728e-002
1.633480e+003;7.205011e-002
1.635409e+003;7.278081e-002
1.637337e+003;7.371660e-002
1.639266e+003;7.449923e-002
1.641194e+003;7.486968e-002
1.643123e+003;7.546731e-002
1.645051e+003;7.627527e-002
1.646980e+003;7.680836e-002
1.648909e+003;7.705558e-002
1.650837e+003;7.702049e-002
1.652766e+003;7.676415e-002
1.654694e+003;7.680033e-002
1.656623e+003;7.671615e-002
1.658551e+003;7.628614e-002
1.660480e+003;7.559833e-002
1.662408e+003;7.535777e-002
1.664337e+003;7.560859e-002
1.666266e+003;7.556154e-002
1.668194e+003;7.520894e-002
1.670123e+003;7.464015e-002
1.672051e+003;7.381492e-002
1.673980e+003;7.291200e-002
1.675908e+003;7.221348e-002
1.677837e+003;7.186299e-002
1.679765e+003;7.133805e-002
1.681694e+003;7.072911e-002
1.683622e+003;7.014626e-002
1.685551e+003;6.998811e-002
1.687479e+003;6.995019e-002
1.689408e+003;6.956509e-002
1.691337e+003;6.924747e-002
1.693265e+003;6.889021e-002
1.695194e+003;6.848579e-002
1.697122e+003;6.848264e-002
1.699051e+003;6.874252e-002
1.700979e+003;6.948047e-002
1.702908e+003;7.077326e-002
1.704836e+003;7.225429e-002
1.706765e+003;7.457595e-002
1.708693e+003;7.761347e-002
1.710622e+003;8.123808e-002
1.712551e+003;8.523685e-002
1.714479e+003;8.941071e-002
1.716408e+003;9.383927e-002
1.718336e+003;9.888469e-002
1.720265e+003;1.042406e-001
1.722193e+003;1.090705e-001
1.724122e+003;1.132581e-001
1.726050e+003;1.166946e-001
1.727979e+003;1.187452e-001
1.729908e+003;1.192141e-001
1.731836e+003;1.181277e-001
1.733765e+003;1.155542e-001
1.735693e+003;1.122139e-001
1.737622e+003;1.079605e-001
1.739550e+003;1.025731e-001
1.741479e+003;9.698403e-002
1.743407e+003;9.148590e-002
1.745336e+003;8.615810e-002
1.747265e+003;8.114592e-002
1.749193e+003;7.609754e-002
1.751122e+003;7.114523e-002
1.753050e+003;6.714823e-002
1.754979e+003;6.376852e-002
1.756907e+003;6.034846e-002
1.758836e+003;5.711786e-002
1.760764e+003;5.431326e-002
1.762693e+003;5.195721e-002
1.764621e+003;5.025888e-002
1.766550e+003;4.888780e-002
1.768479e+003;4.767177e-002
1.770407e+003;4.676165e-002
1.772336e+003;4.587742e-002
1.774264e+003;4.519101e-002
1.776193e+003;4.481254e-002
1.778121e+003;4.450466e-002
1.780050e+003;4.409312e-002
1.781978e+003;4.348328e-002
1.783907e+003;4.290341e-002
1.785835e+003;4.252094e-002
1.787764e+003;4.208772e-002
1.789693e+003;4.169306e-002
1.791621e+003;4.145091e-002
1.793550e+003;4.134962e-002
1.795478e+003;4.104564e-002
1.797407e+003;4.073190e-002
1.799335e+003;4.060731e-002
1.801264e+003;4.043570e-002
1.803192e+003;4.036955e-002
1.805121e+003;4.015038e-002
1.807049e+003;3.959937e-002
1.808978e+003;3.933408e-002
1.810907e+003;3.943573e-002
1.812835e+003;3.936491e-002
1.814764e+003;3.904009e-002
1.816692e+003;3.881029e-002
1.818621e+003;3.867843e-002
1.820549e+003;3.854693e-002
1.822478e+003;3.861624e-002
1.824406e+003;3.859277e-002
1.826335e+003;3.820604e-002
1.828264e+003;3.798612e-002
1.830192e+003;3.797260e-002
1.832121e+003;3.779356e-002
1.834049e+003;3.757038e-002
1.835978e+003;3.747548e-002
1.837906e+003;3.744460e-002
1.839835e+003;3.740541e-002
1.841763e+003;3.718210e-002
1.843692e+003;3.704933e-002
1.845620e+003;3.717513e-002
1.847549e+003;3.735532e-002
1.849478e+003;3.732662e-002
1.851406e+003;3.699971e-002
1.853335e+003;3.684034e-002
1.855263e+003;3.691645e-002
1.857192e+003;3.697929e-002
1.859120e+003;3.687092e-002
1.861049e+003;3.680881e-002
1.862977e+003;3.662875e-002
1.864906e+003;3.637200e-002
1.866834e+003;3.631677e-002
1.868763e+003;3.627063e-002
1.870692e+003;3.630031e-002
1.872620e+003;3.639888e-002
1.874549e+003;3.639416e-002
1.876477e+003;3.623843e-002
1.878406e+003;3.626764e-002
1.880334e+003;3.641286e-002
1.882263e+003;3.617904e-002
1.884191e+003;3.609899e-002
1.886120e+003;3.623339e-002
1.888048e+003;3.608805e-002
1.889977e+003;3.583123e-002
1.891906e+003;3.589560e-002
1.893834e+003;3.603232e-002
1.895763e+003;3.618106e-002
1.897691e+003;3.627906e-002
1.899620e+003;3.626400e-002
1.901548e+003;3.630380e-002
1.903477e+003;3.635597e-002
1.905405e+003;3.622327e-002
1.907334e+003;3.598098e-002
1.909262e+003;3.590248e-002
1.911191e+003;3.605802e-002
1.913120e+003;3.614760e-002
1.915048e+003;3.620616e-002
1.916977e+003;3.589784e-002
1.918905e+003;3.562789e-002
1.920834e+003;3.570451e-002
1.922762e+003;3.592987e-002
1.924691e+003;3.611469e-002
1.926619e+003;3.595639e-002
1.928548e+003;3.571246e-002
1.930477e+003;3.554025e-002
1.932405e+003;3.569249e-002
1.934334e+003;3.590874e-002
1.936262e+003;3.575272e-002
1.938191e+003;3.569832e-002
1.940119e+003;3.569527e-002
1.942048e+003;3.554018e-002
1.943976e+003;3.551016e-002
1.945905e+003;3.563595e-002
1.947833e+003;3.564994e-002
1.949762e+003;3.558046e-002
1.951691e+003;3.558297e-002
1.953619e+003;3.543749e-002
1.955548e+003;3.558772e-002
1.957476e+003;3.584962e-002
1.959405e+003;3.564156e-002
1.961333e+003;3.539949e-002
1.963262e+003;3.544292e-002
1.965190e+003;3.564861e-002
1.967119e+003;3.588805e-002
1.969047e+003;3.585037e-002
1.970976e+003;3.592404e-002
1.972905e+003;3.639528e-002
1.974833e+003;3.662965e-002
1.976762e+003;3.659619e-002
1.978690e+003;3.652926e-002
1.980619e+003;3.651657e-002
1.982547e+003;3.669396e-002
1.984476e+003;3.684910e-002
1.986404e+003;3.674224e-002
1.988333e+003;3.664601e-002
1.990261e+003;3.689163e-002
1.992190e+003;3.719733e-002
1.994119e+003;3.721452e-002
1.996047e+003;3.715243e-002
1.997976e+003;3.734066e-002
1.999904e+003;3.738280e-002
2.001833e+003;3.731206e-002
2.003761e+003;3.750373e-002
2.005690e+003;3.763028e-002
2.007618e+003;3.767393e-002
2.009547e+003;3.776313e-002
2.011476e+003;3.783108e-002
2.013404e+003;3.789316e-002
2.015333e+003;3.785632e-002
2.017261e+003;3.765225e-002
2.019190e+003;3.771560e-002
2.021118e+003;3.796627e-002
2.023047e+003;3.795578e-002
2.024975e+003;3.753797e-002
2.026904e+003;3.738916e-002
2.028833e+003;3.769959e-002
2.030761e+003;3.790194e-002
2.032690e+003;3.774242e-002
2.034618e+003;3.760296e-002
2.036547e+003;3.763537e-002
2.038475e+003;3.766295e-002
2.040404e+003;3.765279e-002
2.042332e+003;3.773378e-002
2.044261e+003;3.777523e-002
2.046189e+003;3.777643e-002
2.048118e+003;3.781275e-002
2.050047e+003;3.768329e-002
2.051975e+003;3.757023e-002
2.053904e+003;3.763339e-002
2.055832e+003;3.755650e-002
2.057761e+003;3.750604e-002
2.059689e+003;3.756665e-002
2.061618e+003;3.737710e-002
2.063546e+003;3.721668e-002
2.065475e+003;3.716867e-002
2.067404e+003;3.727589e-002
2.069332e+003;3.756178e-002
2.071260e+003;3.733868e-002
2.073189e+003;3.710335e-002
2.075118e+003;3.726892e-002
2.077046e+003;3.728820e-002
2.078975e+003;3.718077e-002
2.080903e+003;3.722567e-002
2.082832e+003;3.712475e-002
2.084760e+003;3.721935e-002
2.086689e+003;3.761406e-002
2.088617e+003;3.761095e-002
2.090546e+003;3.736442e-002
2.092475e+003;3.731788e-002
2.094403e+003;3.732171e-002
2.096332e+003;3.730730e-002
2.098260e+003;3.722296e-002
2.100189e+003;3.718954e-002
2.102117e+003;3.735630e-002
2.104046e+003;3.736825e-002
2.105974e+003;3.718401e-002
2.107903e+003;3.715828e-002
2.109832e+003;3.717138e-002
2.111760e+003;3.697785e-002
2.113688e+003;3.688928e-002
2.115617e+003;3.703633e-002
2.117546e+003;3.726831e-002
2.119474e+003;3.716932e-002
2.121403e+003;3.696327e-002
2.123331e+003;3.699264e-002
2.125260e+003;3.712720e-002
2.127188e+003;3.724874e-002
2.129117e+003;3.714171e-002
2.131045e+003;3.682245e-002
2.132974e+003;3.660791e-002
2.134903e+003;3.648641e-002
2.136831e+003;3.653711e-002
2.138760e+003;3.657687e-002
2.140688e+003;3.666288e-002
2.142617e+003;3.670684e-002
2.144545e+003;3.650327e-002
2.146474e+003;3.654195e-002
2.148402e+003;3.679313e-002
2.150331e+003;3.688542e-002
2.152260e+003;3.681166e-002
2.154188e+003;3.679385e-002
2.156117e+003;3.711327e-002
2.158045e+003;3.729553e-002
2.159974e+003;3.711912e-002
2.161902e+003;3.701349e-002
2.163831e+003;3.692893e-002
2.165759e+003;3.700848e-002
2.167688e+003;3.731564e-002
2.169616e+003;3.750943e-002
2.171545e+003;3.748270e-002
2.173474e+003;3.756962e-002
2.175402e+003;3.784778e-002
2.177331e+003;3.816538e-002
2.179259e+003;3.839401e-002
2.181188e+003;3.882036e-002
2.183116e+003;3.960844e-002
2.185045e+003;4.059727e-002
2.186973e+003;4.167055e-002
2.188902e+003;4.241567e-002
2.190831e+003;4.266142e-002
2.192759e+003;4.269941e-002
2.194688e+003;4.245392e-002
2.196616e+003;4.215819e-002
2.198545e+003;4.200439e-002
2.200473e+003;4.157311e-002
2.202402e+003;4.110839e-002
2.204330e+003;4.118187e-002
2.206259e+003;4.149432e-002
2.208188e+003;4.174660e-002
2.210116e+003;4.207082e-002
2.212044e+003;4.234159e-002
2.213973e+003;4.272259e-002
2.215902e+003;4.351503e-002
2.217830e+003;4.414704e-002
2.219759e+003;4.474400e-002
2.221687e+003;4.585948e-002
2.223616e+003;4.738621e-002
2.225544e+003;4.973766e-002
2.227473e+003;5.344287e-002
2.229401e+003;5.865384e-002
2.231330e+003;6.549172e-002
2.233259e+003;7.319713e-002
2.235187e+003;8.089013e-002
2.237116e+003;8.798229e-002
2.239044e+003;9.392235e-002
2.240973e+003;9.703536e-002
2.242901e+003;9.670823e-002
2.244830e+003;9.396257e-002
2.246758e+003;8.955737e-002
2.248687e+003;8.406273e-002
2.250615e+003;7.875334e-002
2.252544e+003;7.391229e-002
2.254473e+003;6.920243e-002
2.256401e+003;6.506602e-002
2.258330e+003;6.146526e-002
2.260258e+003;5.793791e-002
2.262187e+003;5.481624e-002
2.264115e+003;5.222887e-002
2.266044e+003;5.002473e-002
2.267972e+003;4.833126e-002
2.269901e+003;4.730274e-002
2.271830e+003;4.662699e-002
2.273758e+003;4.598013e-002
2.275687e+003;4.546435e-002
2.277615e+003;4.486930e-002
2.279544e+003;4.411505e-002
2.281472e+003;4.374899e-002
2.283401e+003;4.374884e-002
2.285329e+003;4.357774e-002
2.287258e+003;4.323881e-002
2.289187e+003;4.295454e-002
2.291115e+003;4.296343e-002
2.293043e+003;4.291881e-002
2.294972e+003;4.271681e-002
2.296901e+003;4.267901e-002
2.298829e+003;4.282910e-002
2.300758e+003;4.272928e-002
2.302686e+003;4.247413e-002
2.304615e+003;4.240456e-002
2.306543e+003;4.231795e-002
2.308472e+003;4.199191e-002
2.310400e+003;4.189633e-002
2.312329e+003;4.216877e-002
2.314258e+003;4.215059e-002
2.316186e+003;4.179793e-002
2.318115e+003;4.146578e-002
2.320043e+003;4.155580e-002
2.321972e+003;4.156826e-002
2.323900e+003;4.133785e-002
2.325829e+003;4.127958e-002
2.327757e+003;4.152167e-002
2.329686e+003;4.185670e-002
2.331615e+003;4.169488e-002
2.333543e+003;4.139153e-002
2.335472e+003;4.138311e-002
2.337400e+003;4.141843e-002
2.339329e+003;4.143119e-002
2.341257e+003;4.147635e-002
2.343186e+003;4.170046e-002
2.345114e+003;4.204359e-002
2.347043e+003;4.210605e-002
2.348971e+003;4.210791e-002
2.350900e+003;4.192169e-002
2.352829e+003;4.163784e-002
2.354757e+003;4.165794e-002
2.356686e+003;4.145273e-002
2.358614e+003;4.111335e-002
2.360543e+003;4.117505e-002
2.362471e+003;4.124420e-002
2.364400e+003;4.140626e-002
2.366328e+003;4.179993e-002
2.368257e+003;4.202925e-002
2.370186e+003;4.203841e-002
2.372114e+003;4.220653e-002
2.374042e+003;4.246930e-002
2.375971e+003;4.242367e-002
2.377900e+003;4.237771e-002
2.379828e+003;4.256256e-002
2.381757e+003;4.264940e-002
2.383685e+003;4.264183e-002
2.385614e+003;4.275403e-002
2.387542e+003;4.290330e-002
2.389471e+003;4.274222e-002
2.391399e+003;4.258503e-002
2.393328e+003;4.244537e-002
2.395257e+003;4.258533e-002
2.397185e+003;4.284160e-002
2.399114e+003;4.280646e-002
2.401042e+003;4.281396e-002
2.402971e+003;4.290802e-002
2.404899e+003;4.278065e-002
2.406828e+003;4.273480e-002
2.408756e+003;4.276339e-002
2.410685e+003;4.282127e-002
2.412614e+003;4.300495e-002
2.414542e+003;4.310882e-002
2.416471e+003;4.302394e-002
2.418399e+003;4.276704e-002
2.420328e+003;4.256248e-002
2.422256e+003;4.275520e-002
2.424185e+003;4.297839e-002
2.426113e+003;4.293439e-002
2.428042e+003;4.287422e-002
2.429970e+003;4.280920e-002
2.431899e+003;4.276448e-002
2.433828e+003;4.278485e-002
2.435756e+003;4.287353e-002
2.437685e+003;4.305343e-002
2.439613e+003;4.298348e-002
2.441542e+003;4.276686e-002
2.443470e+003;4.286892e-002
2.445399e+003;4.307355e-002
2.447327e+003;4.284844e-002
2.449256e+003;4.273915e-002
2.451185e+003;4.293011e-002
2.453113e+003;4.315299e-002
2.455042e+003;4.339602e-002
2.456970e+003;4.332016e-002
2.458899e+003;4.333883e-002
2.460827e+003;4.357679e-002
2.462756e+003;4.377772e-002
2.464684e+003;4.393483e-002
2.466613e+003;4.407192e-002
2.468542e+003;4.394975e-002
2.470470e+003;4.385601e-002
2.472398e+003;4.400808e-002
2.474327e+003;4.432537e-002
2.476256e+003;4.461201e-002
2.478184e+003;4.463577e-002
2.480113e+003;4.453285e-002
2.482041e+003;4.456076e-002
2.483970e+003;4.476736e-002
2.485898e+003;4.483936e-002
2.487827e+003;4.498020e-002
2.489755e+003;4.535962e-002
2.491684e+003;4.555675e-002
2.493613e+003;4.562405e-002
2.495541e+003;4.583267e-002
2.497470e+003;4.578323e-002
2.499398e+003;4.563731e-002
2.501327e+003;4.582605e-002
2.503255e+003;4.616191e-002
2.505184e+003;4.612197e-002
2.507112e+003;4.591343e-002
2.509041e+003;4.594279e-002
2.510969e+003;4.619276e-002
2.512898e+003;4.618870e-002
2.514827e+003;4.604563e-002
2.516755e+003;4.609036e-002
2.518684e+003;4.635221e-002
2.520612e+003;4.648274e-002
2.522541e+003;4.647160e-002
2.524469e+003;4.653256e-002
2.526398e+003;4.658630e-002
2.528326e+003;4.664964e-002
2.530255e+003;4.662168e-002
2.532184e+003;4.640998e-002
2.534112e+003;4.612182e-002
2.536041e+003;4.619854e-002
2.537969e+003;4.662488e-002
2.539898e+003;4.676542e-002
2.541826e+003;4.642739e-002
2.543755e+003;4.600787e-002
2.545683e+003;4.612396e-002
2.547612e+003;4.629485e-002
2.549541e+003;4.625217e-002
2.551469e+003;4.617326e-002
2.553397e+003;4.623536e-002
2.555326e+003;4.622386e-002
2.557255e+003;4.591351e-002
2.559183e+003;4.591502e-002
2.561112e+003;4.603745e-002
2.563040e+003;4.583083e-002
2.564969e+003;4.581430e-002
2.566897e+003;4.582012e-002
2.568826e+003;4.564220e-002
2.570754e+003;4.524149e-002
2.572683e+003;4.510906e-002
2.574612e+003;4.507760e-002
2.576540e+003;4.523550e-002
2.578469e+003;4.537687e-002
2.580397e+003;4.533579e-002
2.582326e+003;4.526779e-002
2.584254e+003;4.531880e-002
2.586183e+003;4.521940e-002
2.588111e+003;4.487063e-002
2.590040e+003;4.460173e-002
2.591969e+003;4.470136e-002
2.593897e+003;4.491288e-002
2.595826e+003;4.494727e-002
2.597754e+003;4.499490e-002
2.599683e+003;4.496344e-002
2.601611e+003;4.487860e-002
2.603540e+003;4.500431e-002
2.605468e+003;4.526087e-002
2.607397e+003;4.529044e-002
2.609325e+003;4.528555e-002
2.611254e+003;4.516333e-002
2.613183e+003;4.519182e-002
2.615111e+003;4.548131e-002
2.617040e+003;4.542201e-002
2.618968e+003;4.557043e-002
2.620897e+003;4.561533e-002
2.622825e+003;4.538184e-002
2.624754e+003;4.535731e-002
2.626682e+003;4.563981e-002
2.628611e+003;4.605687e-002
2.630540e+003;4.638090e-002
2.632468e+003;4.644018e-002
2.634396e+003;4.610546e-002
2.636325e+003;4.592305e-002
2.638254e+003;4.616302e-002
2.640182e+003;4.617444e-002
2.642111e+003;4.593686e-002
2.644039e+003;4.603650e-002
2.645968e+003;4.600920e-002
2.647896e+003;4.570864e-002
2.649825e+003;4.558975e-002
2.651753e+003;4.563377e-002
2.653682e+003;4.552311e-002
2.655611e+003;4.562847e-002
2.657539e+003;4.582844e-002
2.659468e+003;4.610911e-002
2.661396e+003;4.620411e-002
2.663325e+003;4.581758e-002
2.665253e+003;4.568597e-002
2.667182e+003;4.592577e-002
2.669110e+003;4.612610e-002
2.671039e+003;4.635324e-002
2.672968e+003;4.642422e-002
2.674896e+003;4.624660e-002
2.676825e+003;4.616446e-002
2.678753e+003;4.614437e-002
2.680682e+003;4.615974e-002
2.682610e+003;4.611854e-002
2.684539e+003;4.599999e-002
2.686467e+003;4.616623e-002
2.688396e+003;4.642429e-002
2.690324e+003;4.638867e-002
2.692253e+003;4.636316e-002
2.694182e+003;4.638775e-002
2.696110e+003;4.599620e-002
2.698039e+003;4.564062e-002
2.699967e+003;4.572049e-002
2.701896e+003;4.608638e-002
2.703824e+003;4.636467e-002
2.705753e+003;4.639240e-002
2.707681e+003;4.633312e-002
2.709610e+003;4.622556e-002
2.711539e+003;4.620702e-002
2.713467e+003;4.618262e-002
2.715396e+003;4.614677e-002
2.717324e+003;4.629375e-002
2.719253e+003;4.639354e-002
2.721181e+003;4.613066e-002
2.723110e+003;4.580326e-002
2.725038e+003;4.551156e-002
2.726967e+003;4.537456e-002
2.728896e+003;4.548654e-002
2.730824e+003;4.544026e-002
2.732752e+003;4.539078e-002
2.734681e+003;4.537588e-002
2.736610e+003;4.543735e-002
2.738538e+003;4.539324e-002
2.740467e+003;4.531026e-002
2.742395e+003;4.517832e-002
2.744324e+003;4.518781e-002
2.746252e+003;4.526165e-002
2.748181e+003;4.501313e-002
2.750109e+003;4.483010e-002
2.752038e+003;4.505257e-002
2.753967e+003;4.521098e-002
2.755895e+003;4.511141e-002
2.757824e+003;4.505396e-002
2.759752e+003;4.500185e-002
2.761681e+003;4.504198e-002
2.763609e+003;4.529346e-002
2.765538e+003;4.560499e-002
2.767466e+003;4.582605e-002
2.769395e+003;4.583650e-002
2.771323e+003;4.586578e-002
2.773252e+003;4.610329e-002
2.775181e+003;4.639701e-002
2.777109e+003;4.645091e-002
2.779038e+003;4.659825e-002
2.780966e+003;4.695325e-002
2.782895e+003;4.715660e-002
2.784823e+003;4.738887e-002
2.786752e+003;4.761827e-002
2.788680e+003;4.797165e-002
2.790609e+003;4.852877e-002
2.792538e+003;4.890923e-002
2.794466e+003;4.904531e-002
2.796395e+003;4.920203e-002
2.798323e+003;4.946685e-002
2.800252e+003;4.965158e-002
2.802180e+003;4.973814e-002
2.804109e+003;4.993845e-002
2.806037e+003;5.050487e-002
2.807966e+003;5.096180e-002
2.809895e+003;5.098043e-002
2.811823e+003;5.094917e-002
2.813751e+003;5.122173e-002
2.815680e+003;5.137263e-002
2.817609e+003;5.101222e-002
2.819537e+003;5.098286e-002
2.821466e+003;5.141508e-002
2.823394e+003;5.165113e-002
2.825323e+003;5.181409e-002
2.827251e+003;5.202571e-002
2.829180e+003;5.206074e-002
2.831108e+003;5.245052e-002
2.833037e+003;5.314974e-002
2.834966e+003;5.410720e-002
2.836894e+003;5.521471e-002
2.838823e+003;5.665430e-002
2.840751e+003;5.825528e-002
2.842680e+003;6.012194e-002
2.844608e+003;6.260154e-002
2.846537e+003;6.550799e-002
2.848465e+003;6.834514e-002
2.850394e+003;7.027826e-002
2.852323e+003;7.071815e-002
2.854251e+003;7.005624e-002
2.856180e+003;6.935571e-002
2.858108e+003;6.897300e-002
2.860037e+003;6.893320e-002
2.861965e+003;6.877963e-002
2.863894e+003;6.852435e-002
2.865822e+003;6.861402e-002
2.867751e+003;6.863389e-002
2.869679e+003;6.862295e-002
2.871608e+003;6.854302e-002
2.873536e+003;6.815694e-002
2.875465e+003;6.818008e-002
2.877394e+003;6.816637e-002
2.879322e+003;6.760851e-002
2.881251e+003;6.757575e-002
2.883179e+003;6.799506e-002
2.885108e+003;6.814656e-002
2.887036e+003;6.828508e-002
2.888965e+003;6.864809e-002
2.890893e+003;6.873604e-002
2.892822e+003;6.918615e-002
2.894750e+003;7.004931e-002
2.896679e+003;7.086187e-002
2.898608e+003;7.183410e-002
2.900536e+003;7.249329e-002
2.902465e+003;7.325985e-002
2.904393e+003;7.486694e-002
2.906322e+003;7.679887e-002
2.908250e+003;7.847939e-002
2.910179e+003;7.996587e-002
2.912107e+003;8.212418e-002
2.914036e+003;8.484117e-002
2.915965e+003;8.738843e-002
2.917893e+003;8.936699e-002
2.919822e+003;9.031478e-002
2.921750e+003;9.099366e-002
2.923679e+003;9.109974e-002
2.925607e+003;9.008994e-002
2.927536e+003;8.906117e-002
2.929464e+003;8.856086e-002
2.931393e+003;8.833364e-002
2.933322e+003;8.781608e-002
2.935250e+003;8.694530e-002
2.937178e+003;8.591998e-002
2.939107e+003;8.502075e-002
2.941036e+003;8.423261e-002
2.942964e+003;8.314449e-002
2.944893e+003;8.204284e-002
2.946821e+003;8.093788e-002
2.948750e+003;7.998419e-002
2.950678e+003;7.924999e-002
2.952607e+003;7.868681e-002
2.954535e+003;7.810520e-002
2.956464e+003;7.755239e-002
2.958393e+003;7.672766e-002
2.960321e+003;7.550524e-002
2.962250e+003;7.456367e-002
2.964178e+003;7.382505e-002
2.966107e+003;7.277106e-002
2.968035e+003;7.182706e-002
2.969964e+003;7.080922e-002
2.971892e+003;6.992874e-002
2.973821e+003;6.956618e-002
2.975750e+003;6.902838e-002
2.977678e+003;6.819478e-002
2.979607e+003;6.766972e-002
2.981535e+003;6.746733e-002
2.983464e+003;6.702615e-002
2.985392e+003;6.657677e-002
2.987321e+003;6.607603e-002
2.989249e+003;6.531904e-002
2.991178e+003;6.506952e-002
2.993106e+003;6.488677e-002
2.995035e+003;6.448491e-002
2.996964e+003;6.397253e-002
2.998892e+003;6.343609e-002
3.000821e+003;6.289680e-002
3.002749e+003;6.275699e-002
3.004678e+003;6.255551e-002
3.006606e+003;6.222447e-002
3.008535e+003;6.203985e-002
3.010463e+003;6.163828e-002
3.012392e+003;6.115530e-002
3.014321e+003;6.089344e-002
3.016249e+003;6.056797e-002
3.018177e+003;6.009131e-002
3.020106e+003;5.989973e-002
3.022035e+003;5.956976e-002
3.023963e+003;5.883877e-002
3.025892e+003;5.833933e-002
3.027820e+003;5.823440e-002
3.029749e+003;5.845361e-002
3.031677e+003;5.831750e-002
3.033606e+003;5.770164e-002
3.035534e+003;5.768215e-002
3.037463e+003;5.768703e-002
3.039392e+003;5.741716e-002
3.041320e+003;5.733646e-002
3.043249e+003;5.699596e-002
3.045177e+003;5.668642e-002
3.047106e+003;5.662312e-002
3.049034e+003;5.652536e-002
3.050963e+003;5.635360e-002
3.052891e+003;5.611445e-002
3.054820e+003;5.555197e-002
3.056749e+003;5.550358e-002
3.058677e+003;5.568619e-002
3.060606e+003;5.549620e-002
3.062534e+003;5.499461e-002
3.064463e+003;5.449304e-002
3.066391e+003;5.434401e-002
3.068320e+003;5.448267e-002
3.070248e+003;5.453455e-002
3.072177e+003;5.414361e-002
3.074105e+003;5.372516e-002
3.076034e+003;5.358851e-002
3.077963e+003;5.361194e-002
3.079891e+003;5.359762e-002
3.081820e+003;5.319704e-002
3.083748e+003;5.297179e-002
3.085677e+003;5.302244e-002
3.087605e+003;5.290707e-002
3.089534e+003;5.295951e-002
3.091462e+003;5.265081e-002
3.093391e+003;5.223802e-002
3.095320e+003;5.202212e-002
3.097248e+003;5.195557e-002
3.099177e+003;5.162325e-002
3.101105e+003;5.133933e-002
3.103034e+003;5.111624e-002
3.104962e+003;5.086915e-002
3.106891e+003;5.071525e-002
3.108819e+003;5.079123e-002
3.110748e+003;5.074881e-002
3.112677e+003;5.048481e-002
3.114605e+003;5.037681e-002
3.116533e+003;5.022161e-002
3.118462e+003;4.986868e-002
3.120391e+003;5.001830e-002
3.122319e+003;5.058658e-002
3.124248e+003;5.035293e-002
3.126176e+003;4.976523e-002
3.128105e+003;4.969036e-002
3.130033e+003;4.955672e-002
3.131962e+003;4.957926e-002
3.133890e+003;4.960073e-002
3.135819e+003;4.960574e-002
3.137748e+003;4.963821e-002
3.139676e+003;4.950432e-002
3.141605e+003;4.940677e-002
3.143533e+003;4.942742e-002
3.145462e+003;4.940844e-002
3.147390e+003;4.943291e-002
3.149319e+003;4.958011e-002
3.151247e+003;4.948645e-002
3.153176e+003;4.925692e-002
3.155104e+003;4.915892e-002
3.157033e+003;4.920593e-002
3.158962e+003;4.940384e-002
3.160890e+003;4.945486e-002
3.162819e+003;4.950703e-002
3.164747e+003;4.976170e-002
3.166676e+003;4.970370e-002
3.168604e+003;4.956704e-002
3.170533e+003;4.973279e-002
3.172461e+003;4.981235e-002
3.174390e+003;4.975215e-002
3.176319e+003;4.975571e-002
3.178247e+003;5.009858e-002
3.180176e+003;5.048633e-002
3.182104e+003;5.043967e-002
3.184033e+003;5.063092e-002
3.185961e+003;5.080735e-002
3.187890e+003;5.074657e-002
3.189818e+003;5.061699e-002
3.191747e+003;5.069138e-002
3.193676e+003;5.072326e-002
3.195604e+003;5.075279e-002
3.197532e+003;5.090841e-002
3.199461e+003;5.051592e-002
3.201390e+003;5.039021e-002
3.203318e+003;5.082449e-002
3.205247e+003;5.108135e-002
3.207175e+003;5.115943e-002
3.209104e+003;5.127281e-002
3.211032e+003;5.119723e-002
3.212961e+003;5.129100e-002
3.214889e+003;5.151270e-002
3.216818e+003;5.164150e-002
3.218747e+003;5.167001e-002
3.220675e+003;5.161810e-002
3.222604e+003;5.166464e-002
3.224532e+003;5.193466e-002
3.226461e+003;5.222203e-002
3.228389e+003;5.174652e-002
3.230318e+003;5.167460e-002
3.232246e+003;5.216202e-002
3.234175e+003;5.251692e-002
3.236104e+003;5.257945e-002
3.238032e+003;5.242947e-002
3.239961e+003;5.242494e-002
3.241889e+003;5.220256e-002
3.243818e+003;5.164508e-002
3.245746e+003;5.176959e-002
3.247675e+003;5.239680e-002
3.249603e+003;5.257552e-002
3.251532e+003;5.241930e-002
3.253460e+003;5.229823e-002
3.255389e+003;5.218440e-002
3.257318e+003;5.232895e-002
3.259246e+003;5.285120e-002
3.261175e+003;5.265238e-002
3.263103e+003;5.213792e-002
3.265032e+003;5.229729e-002
3.266960e+003;5.270543e-002
3.268889e+003;5.280061e-002
3.270817e+003;5.271130e-002
3.272746e+003;5.261206e-002
3.274675e+003;5.264251e-002
3.276603e+003;5.258342e-002
3.278531e+003;5.230271e-002
3.280460e+003;5.267359e-002
3.282389e+003;5.299271e-002
3.284317e+003;5.283024e-002
3.286246e+003;5.265960e-002
3.288174e+003;5.231262e-002
3.290103e+003;5.212634e-002
3.292031e+003;5.223574e-002
3.293960e+003;5.248331e-002
3.295888e+003;5.265220e-002
3.297817e+003;5.258708e-002
3.299746e+003;5.249625e-002
3.301674e+003;5.246462e-002
3.303603e+003;5.236514e-002
3.305531e+003;5.199194e-002
3.307460e+003;5.187961e-002
3.309388e+003;5.184725e-002
3.311317e+003;5.161862e-002
3.313245e+003;5.133392e-002
3.315174e+003;5.137300e-002
3.317103e+003;5.158758e-002
3.319031e+003;5.166897e-002
3.320960e+003;5.156318e-002
3.322888e+003;5.144074e-002
3.324817e+003;5.115984e-002
3.326745e+003;5.089005e-002
3.328674e+003;5.087570e-002
3.330602e+003;5.106037e-002
3.332531e+003;5.106070e-002
3.334459e+003;5.093900e-002
3.336388e+003;5.078430e-002
3.338317e+003;5.086241e-002
3.340245e+003;5.135421e-002
3.342174e+003;5.124783e-002
3.344102e+003;5.095379e-002
3.346031e+003;5.071008e-002
3.347959e+003;5.064417e-002
3.349888e+003;5.021803e-002
3.351816e+003;4.962331e-002
3.353745e+003;5.027007e-002
3.355674e+003;5.042619e-002
3.357602e+003;4.978399e-002
3.359531e+003;4.950194e-002
3.361459e+003;4.947903e-002
3.363388e+003;4.947049e-002
3.365316e+003;4.961042e-002
3.367245e+003;4.939304e-002
3.369173e+003;4.921981e-002
3.371102e+003;4.878313e-002
3.373031e+003;4.845178e-002
3.374959e+003;4.820710e-002
3.376887e+003;4.835255e-002
3.378816e+003;4.848183e-002
3.380745e+003;4.794194e-002
3.382673e+003;4.761124e-002
3.384602e+003;4.768541e-002
3.386530e+003;4.786059e-002
3.388459e+003;4.761061e-002
3.390387e+003;4.677553e-002
3.392316e+003;4.640117e-002
3.394244e+003;4.681819e-002
3.396173e+003;4.666026e-002
3.398102e+003;4.644461e-002
3.400030e+003;4.641290e-002
3.401959e+003;4.630363e-002
3.403887e+003;4.645058e-002
3.405816e+003;4.660876e-002
3.407744e+003;4.655609e-002
3.409673e+003;4.639634e-002
3.411601e+003;4.640777e-002
3.413530e+003;4.645091e-002
3.415458e+003;4.626359e-002
3.417387e+003;4.630281e-002
3.419316e+003;4.658582e-002
3.421244e+003;4.675896e-002
3.423173e+003;4.672509e-002
3.425101e+003;4.682922e-002
3.427030e+003;4.693738e-002
3.428958e+003;4.692996e-002
3.430887e+003;4.664776e-002
3.432815e+003;4.640895e-002
3.434744e+003;4.658449e-002
3.436673e+003;4.677557e-002
3.438601e+003;4.687259e-002
3.440530e+003;4.655819e-002
3.442458e+003;4.634996e-002
3.444387e+003;4.645943e-002
3.446315e+003;4.617897e-002
3.448244e+003;4.580392e-002
3.450172e+003;4.583588e-002
3.452101e+003;4.593166e-002
3.454030e+003;4.642267e-002
3.455958e+003;4.652360e-002
3.457886e+003;4.606199e-002
3.459815e+003;4.570603e-002
3.461744e+003;4.570827e-002
3.463672e+003;4.577594e-002
3.465601e+003;4.579449e-002
3.467529e+003;4.563605e-002
3.469458e+003;4.536363e-002
3.471386e+003;4.524951e-002
3.473315e+003;4.530868e-002
3.475243e+003;4.514958e-002
3.477172e+003;4.467591e-002
3.479101e+003;4.420720e-002
3.481029e+003;4.409202e-002
3.482958e+003;4.429620e-002
3.484886e+003;4.469772e-002
3.486815e+003;4.495209e-002
3.488743e+003;4.466544e-002
3.490672e+003;4.466607e-002
3.492600e+003;4.467003e-002
3.494529e+003;4.424267e-002
3.496458e+003;4.403096e-002
3.498386e+003;4.431227e-002
3.500315e+003;4.416248e-002
3.502243e+003;4.400511e-002
3.504172e+003;4.405817e-002
3.506100e+003;4.438299e-002
3.508029e+003;4.460944e-002
3.509957e+003;4.461073e-002
3.511886e+003;4.463419e-002
3.513814e+003;4.446494e-002
3.515743e+003;4.504937e-002
3.517672e+003;4.559012e-002
3.519600e+003;4.517079e-002
3.521529e+003;4.464164e-002
3.523457e+003;4.448080e-002
3.525386e+003;4.508863e-002
3.527314e+003;4.557772e-002
3.529243e+003;4.532589e-002
3.531171e+003;4.495642e-002
3.533100e+003;4.523024e-002
3.535029e+003;4.496285e-002
3.536957e+003;4.463122e-002
3.538885e+003;4.505686e-002
3.540814e+003;4.516502e-002
3.542743e+003;4.503790e-002
3.544671e+003;4.480090e-002
3.546600e+003;4.474811e-002
3.548528e+003;4.482140e-002
3.550457e+003;4.463041e-002
3.552385e+003;4.448891e-002
3.554314e+003;4.447445e-002
3.556242e+003;4.422862e-002
3.558171e+003;4.383339e-002
3.560100e+003;4.405729e-002
3.562028e+003;4.442545e-002
3.563957e+003;4.402433e-002
3.565885e+003;4.304465e-002
3.567814e+003;4.299903e-002
3.569742e+003;4.361068e-002
3.571671e+003;4.340187e-002
3.573599e+003;4.328179e-002
3.575528e+003;4.348211e-002
3.577457e+003;4.316675e-002
3.579385e+003;4.304933e-002
3.581314e+003;4.309484e-002
3.583242e+003;4.287565e-002
3.585171e+003;4.269674e-002
3.587099e+003;4.272719e-002
3.589028e+003;4.319764e-002
3.590956e+003;4.342901e-002
3.592885e+003;4.315969e-002
3.594813e+003;4.312203e-002
3.596742e+003;4.358866e-002
3.598671e+003;4.388775e-002
3.600599e+003;4.382031e-002
3.602528e+003;4.384303e-002
3.604456e+003;4.399749e-002
3.606385e+003;4.402550e-002
3.608313e+003;4.381455e-002
3.610242e+003;4.362896e-002
3.612170e+003;4.343015e-002
3.614099e+003;4.340708e-002
3.616028e+003;4.378146e-002
3.617956e+003;4.397200e-002
3.619885e+003;4.386316e-002
3.621813e+003;4.365794e-002
3.623742e+003;4.347109e-002
3.625670e+003;4.327806e-002
3.627599e+003;4.298114e-002
3.629527e+003;4.279955e-002
3.631456e+003;4.255412e-002
3.633385e+003;4.255540e-002
3.635313e+003;4.255503e-002
3.637241e+003;4.266040e-002
3.639170e+003;4.252945e-002
3.641099e+003;4.238816e-002
3.643027e+003;4.210196e-002
3.644956e+003;4.150683e-002
3.646884e+003;4.083253e-002
3.648813e+003;4.060036e-002
3.650741e+003;4.085867e-002
3.652670e+003;4.063853e-002
3.654598e+003;4.022115e-002
3.656527e+003;4.014064e-002
3.658456e+003;3.973717e-002
3.660384e+003;3.903542e-002
3.662313e+003;3.851337e-002
3.664241e+003;3.815688e-002
3.666170e+003;3.759354e-002
3.668098e+003;3.687561e-002
3.670027e+003;3.674470e-002
3.671955e+003;3.664075e-002
3.673884e+003;3.664677e-002
3.675813e+003;3.696609e-002
3.677741e+003;3.689650e-002
3.679669e+003;3.620868e-002
3.681598e+003;3.561365e-002
3.683527e+003;3.527578e-002
3.685455e+003;3.499218e-002
3.687384e+003;3.490897e-002
3.689312e+003;3.477549e-002
3.691241e+003;3.470123e-002
3.693169e+003;3.479179e-002
3.695098e+003;3.515659e-002
3.697026e+003;3.510690e-002
3.698955e+003;3.476921e-002
3.700884e+003;3.474433e-002
3.702812e+003;3.485458e-002
3.704741e+003;3.473177e-002
3.706669e+003;3.431454e-002
3.708598e+003;3.376435e-002
3.710526e+003;3.382173e-002
3.712455e+003;3.452838e-002
3.714383e+003;3.483688e-002
3.716312e+003;3.468123e-002
3.718240e+003;3.488826e-002
3.720169e+003;3.464424e-002
3.722098e+003;3.380533e-002
3.724026e+003;3.355572e-002
3.725955e+003;3.360480e-002
3.727883e+003;3.386009e-002
3.729812e+003;3.417851e-002
3.731740e+003;3.402057e-002
3.733669e+003;3.407561e-002
3.735597e+003;3.416270e-002
3.737526e+003;3.393253e-002
3.739455e+003;3.394457e-002
3.741383e+003;3.428725e-002
3.743312e+003;3.406264e-002
3.745240e+003;3.379186e-002
3.747169e+003;3.389549e-002
3.749097e+003;3.401899e-002
3.751026e+003;3.419461e-002
3.752954e+003;3.428567e-002
3.754883e+003;3.467514e-002
3.756812e+003;3.478052e-002
3.758740e+003;3.456713e-002
3.760668e+003;3.439914e-002
3.762597e+003;3.406557e-002
3.764526e+003;3.360631e-002
3.766454e+003;3.407794e-002
3.768383e+003;3.444785e-002
3.770311e+003;3.407905e-002
3.772240e+003;3.382488e-002
3.774168e+003;3.415941e-002
3.776097e+003;3.439688e-002
3.778025e+003;3.428668e-002
3.779954e+003;3.401455e-002
3.781883e+003;3.403662e-002
3.783811e+003;3.425373e-002
3.785740e+003;3.397072e-002
3.787668e+003;3.380558e-002
3.789597e+003;3.464104e-002
3.791525e+003;3.524024e-002
3.793454e+003;3.514861e-002
3.795382e+003;3.504839e-002
3.797311e+003;3.474886e-002
3.799240e+003;3.454262e-002
3.801168e+003;3.456321e-002
3.803097e+003;3.476465e-002
3.805025e+003;3.492739e-002
3.806954e+003;3.480130e-002
3.808882e+003;3.498783e-002
3.810811e+003;3.488520e-002
3.812739e+003;3.436610e-002
3.814668e+003;3.374932e-002
3.816596e+003;3.392368e-002
3.818525e+003;3.457836e-002
3.820454e+003;3.464822e-002
3.822382e+003;3.488280e-002
3.824311e+003;3.504598e-002
3.826239e+003;3.490104e-002
3.828168e+003;3.529209e-002
3.830096e+003;3.544936e-002
3.832025e+003;3.476386e-002
3.833953e+003;3.442822e-002
3.835882e+003;3.460620e-002
3.837811e+003;3.460509e-002
3.839739e+003;3.456713e-002
3.841667e+003;3.458159e-002
3.843596e+003;3.464682e-002
3.845525e+003;3.495095e-002
3.847453e+003;3.519252e-002
3.849382e+003;3.493899e-002
3.851310e+003;3.481674e-002
3.853239e+003;3.462145e-002
3.855167e+003;3.452694e-002
3.857096e+003;3.481957e-002
3.859024e+003;3.478457e-002
3.860953e+003;3.480040e-002
3.862882e+003;3.543526e-002
3.864810e+003;3.525199e-002
3.866739e+003;3.500145e-002
3.868667e+003;3.483813e-002
3.870596e+003;3.490391e-002
3.872524e+003;3.523934e-002
3.874453e+003;3.527031e-002
3.876381e+003;3.516166e-002
3.878310e+003;3.496079e-002
3.880239e+003;3.506372e-002
3.882167e+003;3.518519e-002
3.884096e+003;3.508115e-002
3.886024e+003;3.560639e-002
3.887953e+003;3.559815e-002
3.889881e+003;3.527024e-002
3.891810e+003;3.507982e-002
3.893738e+003;3.495228e-002
3.895667e+003;3.494452e-002
3.897595e+003;3.510116e-002
3.899524e+003;3.496191e-002
3.901453e+003;3.521846e-002
3.903381e+003;3.575721e-002
3.905310e+003;3.569897e-002
3.907238e+003;3.553385e-002
3.909167e+003;3.579161e-002
3.911095e+003;3.588988e-002
3.913024e+003;3.597295e-002
3.914952e+003;3.624732e-002
3.916881e+003;3.620497e-002
3.918810e+003;3.579132e-002
3.920738e+003;3.586059e-002
3.922667e+003;3.577330e-002
3.924595e+003;3.579193e-002
3.926524e+003;3.657107e-002
3.928452e+003;3.666984e-002
3.930381e+003;3.627434e-002
3.932309e+003;3.663181e-002
3.934238e+003;3.689184e-002
3.936167e+003;3.636973e-002
3.938095e+003;3.603487e-002
3.940023e+003;3.596403e-002
3.941952e+003;3.603062e-002
3.943881e+003;3.595794e-002
3.945809e+003;3.579129e-002
3.947738e+003;3.586264e-002
3.949666e+003;3.624214e-002
3.951595e+003;3.638097e-002
3.953523e+003;3.630910e-002
3.955452e+003;3.663393e-002
3.957380e+003;3.653492e-002
3.959309e+003;3.636825e-002
3.961238e+003;3.661923e-002
3.963166e+003;3.656386e-002
3.965095e+003;3.663210e-002
3.967023e+003;3.699585e-002
3.968952e+003;3.703078e-002
3.970880e+003;3.683597e-002
3.972809e+003;3.667320e-002
3.974737e+003;3.679929e-002
3.976666e+003;3.693235e-002
3.978594e+003;3.654000e-002
3.980523e+003;3.625309e-002
3.982452e+003;3.669508e-002
3.984380e+003;3.709689e-002
3.986309e+003;3.697164e-002
3.988237e+003;3.698236e-002
3.990166e+003;3.663339e-002
3.992094e+003;3.709934e-002
3.994023e+003;3.769348e-002
3.995951e+003;3.727853e-002
3.997880e+003;3.724628e-002
3.999809e+003;3.755340e-002
4.001737e+003;0.000000e+000
