3.992094e+002;0.000000e+000
4.011380e+002;0.000000e+000
4.030665e+002;0.000000e+000
4.049951e+002;0.000000e+000
4.069236e+002;0.000000e+000
4.088522e+002;0.000000e+000
4.107807e+002;0.000000e+000
4.127093e+002;0.000000e+000
4.146378e+002;0.000000e+000
4.165664e+002;0.000000e+000
4.184949e+002;0.000000e+000
4.204235e+002;0.000000e+000
4.223520e+002;0.000000e+000
4.242806e+002;0.000000e+000
4.262091e+002;0.000000e+000
4.281377e+002;0.000000e+000
4.300662e+002;0.000000e+000
4.319948e+002;0.000000e+000
4.339233e+002;0.000000e+000
4.358519e+002;0.000000e+000
4.377804e+002;0.000000e+000
4.397090e+002;0.000000e+000
4.416375e+002;0.000000e+000
4.435660e+002;0.000000e+000
4.454946e+002;0.000000e+000
4.474232e+002;0.000000e+000
4.493517e+002;0.000000e+000
4.512802e+002;0.000000e+000
4.532088e+002;0.000000e+000
4.551373e+002;0.000000e+000
4.570659e+002;0.000000e+000
4.589944e+002;0.000000e+000
4.609230e+002;0.000000e+000
4.628515e+002;0.000000e+000
4.647801e+002;0.000000e+000
4.667086e+002;0.000000e+000
4.686372e+002;0.000000e+000
4.705657e+002;0.000000e+000
4.724943e+002;0.000000e+000
4.744228e+002;0.000000e+000
4.763513e+002;0.000000e+000
4.782799e+002;0.000000e+000
4.802085e+002;0.000000e+000
4.821370e+002;0.000000e+000
4.840656e+002;0.000000e+000
4.859941e+002;0.000000e+000
4.879226e+002;0.000000e+000
4.898512e+002;0.000000e+000
4.917798e+002;0.000000e+000
4.937083e+002;0.000000e+000
4.956368e+002;0.000000e+000
4.975654e+002;0.000000e+000
4.994939e+002;0.000000e+000
5.014225e+002;0.000000e+000
5.033510e+002;0.000000e+000
5.052796e+002;0.000000e+000
5.072081e+002;0.000000e+000
5.091367e+002;0.000000e+000
5.110652e+002;0.000000e+000
5.129938e+002;0.000000e+000
5.149223e+002;0.000000e+000
5.168509e+002;0.000000e+000
5.187794e+002;0.000000e+000
5.207079e+002;0.000000e+000
5.226365e+002;0.000000e+000
5.245651e+002;0.000000e+000
5.264936e+002;0.000000e+000
5.284222e+002;0.000000e+000
5.303507e+002;0.000000e+000
5.322792e+002;0.000000e+000
5.342078e+002;0.000000e+000
5.361364e+002;0.000000e+000
5.380649e+002;0.000000e+000
5.399935e+002;0.000000e+000
5.419220e+002;0.000000e+000
5.438505e+002;0.000000e+000
5.457791e+002;0.000000e+000
5.477076e+002;0.000000e+000
5.496362e+002;0.000000e+000
5.515648e+002;0.000000e+000
5.534933e+002;0.000000e+000
5.554218e+002;0.000000e+000
5.573504e+002;0.000000e+000
5.592789e+002;0.000000e+000
5.612075e+002;0.000000e+000
5.631360e+002;0.000000e+000
5.650646e+002;0.000000e+000
5.669931e+002;0.000000e+000
5.689217e+002;0.000000e+000
5.708502e+002;0.000000e+000
5.727787e+002;0.000000e+000
5.747073e+002;0.000000e+000
5.766359e+002;0.000000e+000
5.785644e+002;0.000000e+000
5.804930e+002;0.000000e+000
5.824215e+002;0.000000e+000
5.843500e+002;0.000000e+000
5.862786e+002;0.000000e+000
5.882072e+002;0.000000e+000
5.901357e+002;0.000000e+000
5.920643e+002;0.000000e+000
5.939928e+002;0.000000e+000
5.959213e+002;0.000000e+000
5.978499e+002;0.000000e+000
5.997784e+002;-4.603194e-002
6.017070e+002;-4.401305e-002
6.036355e+002;-3.884269e-002
6.055641e+002;-3.736700e-002
6.074926e+002;-3.968208e-002
6.094211e+002;-4.035909e-002
6.113497e+002;-3.860938e-002
6.132783e+002;-3.826113e-002
6.152068e+002;-4.149819e-002
6.171354e+002;-4.639791e-002
6.190639e+002;-4.525181e-002
6.209924e+002;-4.647541e-002
6.229210e+002;-4.679774e-002
6.248495e+002;-4.350067e-002
6.267781e+002;-4.276597e-002
6.287067e+002;-4.606804e-002
6.306352e+002;-4.772327e-002
6.325637e+002;-4.220326e-002
6.344923e+002;-3.756248e-002
6.364208e+002;-3.889392e-002
6.383494e+002;-4.031362e-002
6.402780e+002;-4.234704e-002
6.422065e+002;-4.511457e-002
6.441350e+002;-4.489833e-002
6.460636e+002;-4.398143e-002
6.479921e+002;-4.273996e-002
6.499207e+002;-4.041697e-002
6.518492e+002;-4.119769e-002
6.537778e+002;-4.222647e-002
6.557063e+002;-4.436797e-002
6.576349e+002;-4.692945e-002
6.595634e+002;-4.618564e-002
6.614919e+002;-4.403406e-002
6.634205e+002;-4.495250e-002
6.653491e+002;-4.642232e-002
6.672776e+002;-4.901778e-002
6.692062e+002;-4.812888e-002
6.711347e+002;-4.529584e-002
6.730632e+002;-4.449605e-002
6.749918e+002;-4.441041e-002
6.769203e+002;-4.539444e-002
6.788489e+002;-4.681491e-002
6.807775e+002;-4.701807e-002
6.827060e+002;-4.633019e-002
6.846345e+002;-4.640767e-002
6.865631e+002;-4.807096e-002
6.884916e+002;-4.933250e-002
6.904202e+002;-5.012982e-002
6.923488e+002;-5.163395e-002
6.942773e+002;-5.228432e-002
6.962058e+002;-5.244650e-002
6.981344e+002;-5.295178e-002
7.000629e+002;-5.248021e-002
7.019915e+002;-5.265544e-002
7.039200e+002;-5.250303e-002
7.058486e+002;-5.273762e-002
7.077771e+002;-5.286407e-002
7.097057e+002;-5.200113e-002
7.116342e+002;-5.220165e-002
7.135627e+002;-5.309255e-002
7.154913e+002;-5.289579e-002
7.174199e+002;-5.222051e-002
7.193484e+002;-5.207823e-002
7.212770e+002;-5.173547e-002
7.232055e+002;-5.135110e-002
7.251340e+002;-5.054089e-002
7.270626e+002;-4.861572e-002
7.289911e+002;-4.803047e-002
7.309197e+002;-4.865687e-002
7.328483e+002;-4.809122e-002
7.347768e+002;-4.588559e-002
7.367053e+002;-4.489050e-002
7.386339e+002;-4.449432e-002
7.405624e+002;-4.462374e-002
7.424910e+002;-4.440327e-002
7.444196e+002;-4.363290e-002
7.463481e+002;-4.315329e-002
7.482766e+002;-4.280527e-002
7.502052e+002;-4.184813e-002
7.521337e+002;-4.001598e-002
7.540623e+002;-3.952570e-002
7.559908e+002;-4.041120e-002
7.579194e+002;-4.042023e-002
7.598479e+002;-3.909465e-002
7.617765e+002;-3.751531e-002
7.637050e+002;-3.730401e-002
7.656335e+002;-3.774192e-002
7.675621e+002;-3.765181e-002
7.694907e+002;-3.777001e-002
7.714192e+002;-3.837613e-002
7.733478e+002;-3.851979e-002
7.752763e+002;-3.788888e-002
7.772048e+002;-3.717418e-002
7.791334e+002;-3.674943e-002
7.810620e+002;-3.683333e-002
7.829905e+002;-3.729449e-002
7.849191e+002;-3.716055e-002
7.868476e+002;-3.641193e-002
7.887761e+002;-3.659242e-002
7.907047e+002;-3.758484e-002
7.926332e+002;-3.747343e-002
7.945618e+002;-3.605947e-002
7.964903e+002;-3.465536e-002
7.984189e+002;-3.414232e-002
8.003474e+002;-3.453071e-002
8.022759e+002;-3.564208e-002
8.042045e+002;-3.626081e-002
8.061331e+002;-3.594059e-002
8.080616e+002;-3.517785e-002
8.099902e+002;-3.452551e-002
8.119187e+002;-3.380108e-002
8.138472e+002;-3.332588e-002
8.157758e+002;-3.349631e-002
8.177043e+002;-3.431654e-002
8.196329e+002;-3.456565e-002
8.215615e+002;-3.418680e-002
8.234900e+002;-3.422915e-002
8.254185e+002;-3.465842e-002
8.273471e+002;-3.543728e-002
8.292756e+002;-3.646680e-002
8.312042e+002;-3.782189e-002
8.331328e+002;-3.881051e-002
8.350613e+002;-4.016940e-002
8.369898e+002;-4.135391e-002
8.389184e+002;-4.159370e-002
8.408469e+002;-4.168025e-002
8.427755e+002;-4.167420e-002
8.447040e+002;-4.157570e-002
8.466326e+002;-4.188812e-002
8.485611e+002;-4.183964e-002
8.504897e+002;-4.159596e-002
8.524182e+002;-4.157720e-002
8.543467e+002;-4.212243e-002
8.562753e+002;-4.244841e-002
8.582039e+002;-4.215732e-002
8.601324e+002;-4.151849e-002
8.620610e+002;-4.057516e-002
8.639895e+002;-4.039985e-002
8.659180e+002;-4.019843e-002
8.678466e+002;-4.002541e-002
8.697751e+002;-4.028236e-002
8.717037e+002;-4.048682e-002
8.736323e+002;-4.023561e-002
8.755608e+002;-3.994355e-002
8.774893e+002;-3.985925e-002
8.794179e+002;-3.996126e-002
8.813464e+002;-3.954539e-002
8.832750e+002;-3.904889e-002
8.852036e+002;-3.923383e-002
8.871321e+002;-3.912353e-002
8.890606e+002;-3.935678e-002
8.909892e+002;-3.987122e-002
8.929177e+002;-3.946538e-002
8.948463e+002;-3.896990e-002
8.967748e+002;-3.881945e-002
8.987034e+002;-3.856939e-002
9.006319e+002;-3.780816e-002
9.025605e+002;-3.699901e-002
9.044890e+002;-3.690315e-002
9.064175e+002;-3.667797e-002
9.083461e+002;-3.628845e-002
9.102747e+002;-3.563604e-002
9.122032e+002;-3.500655e-002
9.141318e+002;-3.444235e-002
9.160603e+002;-3.351566e-002
9.179888e+002;-3.234784e-002
9.199174e+002;-3.160343e-002
9.218459e+002;-3.029636e-002
9.237745e+002;-2.915141e-002
9.257031e+002;-2.887662e-002
9.276316e+002;-2.792672e-002
9.295601e+002;-2.619136e-002
9.314887e+002;-2.457183e-002
9.334172e+002;-2.328208e-002
9.353458e+002;-2.249405e-002
9.372744e+002;-2.197018e-002
9.392029e+002;-2.115796e-002
9.411314e+002;-2.059178e-002
9.430600e+002;-2.038744e-002
9.449885e+002;-2.086390e-002
9.469171e+002;-2.093873e-002
9.488456e+002;-2.073336e-002
9.507742e+002;-2.145379e-002
9.527027e+002;-2.229652e-002
9.546313e+002;-2.265639e-002
9.565598e+002;-2.284911e-002
9.584883e+002;-2.298746e-002
9.604169e+002;-2.315949e-002
9.623455e+002;-2.293533e-002
9.642740e+002;-2.279695e-002
9.662026e+002;-2.328418e-002
9.681311e+002;-2.388234e-002
9.700596e+002;-2.465282e-002
9.719882e+002;-2.521421e-002
9.739167e+002;-2.523687e-002
9.758453e+002;-2.498156e-002
9.777739e+002;-2.480381e-002
9.797024e+002;-2.491211e-002
9.816309e+002;-2.474419e-002
9.835595e+002;-2.446050e-002
9.854880e+002;-2.425897e-002
9.874166e+002;-2.403043e-002
9.893452e+002;-2.374235e-002
9.912737e+002;-2.355624e-002
9.932022e+002;-2.282182e-002
9.951307e+002;-2.210951e-002
9.970593e+002;-2.136478e-002
9.989879e+002;-2.040436e-002
1.000916e+003;-1.905931e-002
1.002845e+003;-1.717538e-002
1.004773e+003;-1.560026e-002
1.006702e+003;-1.379403e-002
1.008631e+003;-1.160450e-002
1.010559e+003;-9.047770e-003
1.012488e+003;-5.350884e-003
1.014416e+003;-1.402814e-003
1.016345e+003;2.335059e-003
1.018273e+003;6.119866e-003
1.020202e+003;9.702094e-003
1.022130e+003;1.248206e-002
1.024059e+003;1.438143e-002
1.025988e+003;1.547193e-002
1.027916e+003;1.560043e-002
1.029845e+003;1.626640e-002
1.031773e+003;1.718498e-002
1.033702e+003;1.781050e-002
1.035630e+003;1.882021e-002
1.037559e+003;1.987604e-002
1.039487e+003;2.104041e-002
1.041416e+003;2.217083e-002
1.043344e+003;2.254874e-002
1.045273e+003;2.168868e-002
1.047202e+003;2.074270e-002
1.049130e+003;2.010573e-002
1.051059e+003;1.924886e-002
1.052987e+003;1.928603e-002
1.054916e+003;2.016729e-002
1.056844e+003;2.132920e-002
1.058773e+003;2.215089e-002
1.060701e+003;2.306546e-002
1.062630e+003;2.473210e-002
1.064558e+003;2.628339e-002
1.066487e+003;2.784777e-002
1.068416e+003;2.883239e-002
1.070344e+003;2.870253e-002
1.072273e+003;2.855647e-002
1.074201e+003;2.823040e-002
1.076130e+003;2.770411e-002
1.078058e+003;2.695175e-002
1.079987e+003;2.577778e-002
1.081915e+003;2.463127e-002
1.083844e+003;2.259072e-002
1.085773e+003;2.009410e-002
1.087701e+003;1.858187e-002
1.089630e+003;1.669239e-002
1.091558e+003;1.411087e-002
1.093487e+003;1.201643e-002
1.095415e+003;1.020602e-002
1.097344e+003;8.523699e-003
1.099272e+003;7.347617e-003
1.101201e+003;6.258169e-003
1.103129e+003;4.890851e-003
1.105058e+003;3.081638e-003
1.106987e+003;9.746372e-004
1.108915e+003;-1.186994e-003
1.110844e+003;-2.675500e-003
1.112772e+003;-4.031699e-003
1.114701e+003;-5.921291e-003
1.116629e+003;-7.821864e-003
1.118558e+003;-1.007389e-002
1.120486e+003;-1.256596e-002
1.122415e+003;-1.491983e-002
1.124344e+003;-1.705965e-002
1.126272e+003;-1.960269e-002
1.128201e+003;-2.233130e-002
1.130129e+003;-2.519032e-002
1.132058e+003;-2.799457e-002
1.133986e+003;-3.002882e-002
1.135915e+003;-3.149275e-002
1.137843e+003;-3.303561e-002
1.139772e+003;-3.435640e-002
1.141700e+003;-3.505970e-002
1.143629e+003;-3.483753e-002
1.145557e+003;-3.430349e-002
1.147486e+003;-3.418793e-002
1.149415e+003;-3.426941e-002
1.151343e+003;-3.383360e-002
1.153272e+003;-3.340071e-002
1.155200e+003;-3.277477e-002
1.157129e+003;-3.199967e-002
1.159057e+003;-3.102801e-002
1.160986e+003;-2.971966e-002
1.162914e+003;-2.837468e-002
1.164843e+003;-2.720401e-002
1.166771e+003;-2.593193e-002
1.168700e+003;-2.390545e-002
1.170629e+003;-2.160366e-002
1.172557e+003;-2.007105e-002
1.174486e+003;-1.889044e-002
1.176414e+003;-1.721672e-002
1.178343e+003;-1.577529e-002
1.180271e+003;-1.455211e-002
1.182200e+003;-1.301720e-002
1.184128e+003;-1.172494e-002
1.186057e+003;-1.050238e-002
1.187986e+003;-9.144950e-003
1.189914e+003;-7.508073e-003
1.191843e+003;-5.527417e-003
1.193771e+003;-3.985081e-003
1.195700e+003;-2.610753e-003
1.197628e+003;-1.730909e-004
1.199557e+003;2.605075e-003
1.201485e+003;5.159310e-003
1.203414e+003;8.320090e-003
1.205343e+003;1.197682e-002
1.207271e+003;1.634841e-002
1.209200e+003;2.180845e-002
1.211128e+003;2.789317e-002
1.213057e+003;3.452199e-002
1.214985e+003;4.187396e-002
1.216914e+003;4.917973e-002
1.218842e+003;5.619036e-002
1.220771e+003;6.348456e-002
1.222699e+003;7.045678e-002
1.224628e+003;7.657191e-002
1.226557e+003;8.188866e-002
1.228485e+003;8.629793e-002
1.230414e+003;8.923233e-002
1.232342e+003;9.134824e-002
1.234271e+003;9.269153e-002
1.236199e+003;9.267101e-002
1.238128e+003;9.147661e-002
1.240056e+003;8.926781e-002
1.241985e+003;8.651757e-002
1.243913e+003;8.305907e-002
1.245842e+003;7.856685e-002
1.247771e+003;7.337415e-002
1.249699e+003;6.776452e-002
1.251628e+003;6.219686e-002
1.253556e+003;5.672625e-002
1.255485e+003;5.123586e-002
1.257413e+003;4.532553e-002
1.259342e+003;3.918059e-002
1.261270e+003;3.358100e-002
1.263199e+003;2.834031e-002
1.265127e+003;2.333102e-002
1.267056e+003;1.829269e-002
1.268985e+003;1.316661e-002
1.270913e+003;8.167015e-003
1.272842e+003;4.022723e-003
1.274770e+003;1.046506e-003
1.276699e+003;-1.876034e-003
1.278627e+003;-4.933299e-003
1.280556e+003;-7.137083e-003
1.282484e+003;-9.060329e-003
1.284413e+003;-1.117028e-002
1.286342e+003;-1.258482e-002
1.288270e+003;-1.347239e-002
1.290199e+003;-1.426212e-002
1.292127e+003;-1.488320e-002
1.294056e+003;-1.542867e-002
1.295984e+003;-1.559118e-002
1.297913e+003;-1.553718e-002
1.299841e+003;-1.565948e-002
1.301770e+003;-1.603952e-002
1.303698e+003;-1.625651e-002
1.305627e+003;-1.614224e-002
1.307556e+003;-1.613620e-002
1.309484e+003;-1.641147e-002
1.311413e+003;-1.663175e-002
1.313341e+003;-1.647228e-002
1.315270e+003;-1.633984e-002
1.317198e+003;-1.658229e-002
1.319127e+003;-1.675435e-002
1.321055e+003;-1.681543e-002
1.322984e+003;-1.696484e-002
1.324912e+003;-1.704637e-002
1.326841e+003;-1.688721e-002
1.328770e+003;-1.679828e-002
1.330698e+003;-1.664033e-002
1.332627e+003;-1.622664e-002
1.334555e+003;-1.565370e-002
1.336484e+003;-1.498850e-002
1.338412e+003;-1.440860e-002
1.340341e+003;-1.324783e-002
1.342269e+003;-1.149506e-002
1.344198e+003;-9.709978e-003
1.346126e+003;-7.789125e-003
1.348055e+003;-5.752438e-003
1.349984e+003;-3.658088e-003
1.351912e+003;-1.368398e-003
1.353841e+003;9.772938e-004
1.355769e+003;3.715195e-003
1.357698e+003;6.772951e-003
1.359626e+003;9.550631e-003
1.361555e+003;1.211479e-002
1.363483e+003;1.469520e-002
1.365412e+003;1.690785e-002
1.367341e+003;1.825678e-002
1.369269e+003;1.896709e-002
1.371198e+003;1.877132e-002
1.373126e+003;1.737524e-002
1.375055e+003;1.547712e-002
1.376983e+003;1.275853e-002
1.378912e+003;8.913312e-003
1.380840e+003;4.363668e-003
1.382769e+003;-9.796618e-004
1.384698e+003;-6.825699e-003
1.386626e+003;-1.281294e-002
1.388555e+003;-1.713311e-002
1.390483e+003;-2.021498e-002
1.392412e+003;-2.382610e-002
1.394340e+003;-2.751217e-002
1.396269e+003;-2.971935e-002
1.398197e+003;-3.125291e-002
1.400126e+003;-3.203131e-002
1.402054e+003;-3.250153e-002
1.403983e+003;-3.374580e-002
1.405911e+003;-3.407763e-002
1.407840e+003;-3.337258e-002
1.409769e+003;-3.284868e-002
1.411697e+003;-3.224701e-002
1.413626e+003;-3.140680e-002
1.415554e+003;-3.027089e-002
1.417483e+003;-2.954165e-002
1.419411e+003;-2.791131e-002
1.421340e+003;-2.339650e-002
1.423268e+003;-1.896629e-002
1.425197e+003;-1.460328e-002
1.427125e+003;-9.807398e-003
1.429054e+003;-4.676976e-003
1.430983e+003;1.586469e-003
1.432911e+003;8.753943e-003
1.434840e+003;1.468279e-002
1.436768e+003;2.133940e-002
1.438697e+003;3.126676e-002
1.440625e+003;4.036722e-002
1.442554e+003;4.783059e-002
1.444482e+003;5.465703e-002
1.446411e+003;5.980553e-002
1.448340e+003;6.331383e-002
1.450268e+003;6.541086e-002
1.452197e+003;6.467179e-002
1.454125e+003;5.987550e-002
1.456054e+003;5.029827e-002
1.457982e+003;4.128107e-002
1.459911e+003;3.323579e-002
1.461839e+003;2.273207e-002
1.463768e+003;1.025392e-002
1.465697e+003;-1.001051e-003
1.467625e+003;-9.302273e-003
1.469554e+003;-1.673050e-002
1.471482e+003;-2.405400e-002
1.473411e+003;-2.866706e-002
1.475339e+003;-3.048957e-002
1.477268e+003;-3.227537e-002
1.479196e+003;-3.381618e-002
1.481125e+003;-3.513442e-002
1.483053e+003;-3.594236e-002
1.484982e+003;-3.716487e-002
1.486911e+003;-3.894566e-002
1.488839e+003;-4.060603e-002
1.490768e+003;-4.122653e-002
1.492696e+003;-4.077785e-002
1.494625e+003;-4.197590e-002
1.496553e+003;-4.362721e-002
1.498482e+003;-4.282184e-002
1.500410e+003;-4.179769e-002
1.502339e+003;-4.219415e-002
1.504267e+003;-4.543117e-002
1.506196e+003;-4.880818e-002
1.508125e+003;-4.712186e-002
1.510053e+003;-4.438382e-002
1.511982e+003;-4.380539e-002
1.513910e+003;-4.398475e-002
1.515839e+003;-4.485673e-002
1.517767e+003;-4.524766e-002
1.519696e+003;-4.660903e-002
1.521624e+003;-4.764278e-002
1.523553e+003;-4.582120e-002
1.525481e+003;-4.527578e-002
1.527410e+003;-4.515345e-002
1.529339e+003;-4.448684e-002
1.531267e+003;-4.462828e-002
1.533196e+003;-4.579156e-002
1.535124e+003;-4.513587e-002
1.537053e+003;-4.635318e-002
1.538981e+003;-5.070951e-002
1.540910e+003;-5.089235e-002
1.542838e+003;-4.809063e-002
1.544767e+003;-4.652768e-002
1.546695e+003;-4.542804e-002
1.548624e+003;-4.534975e-002
1.550553e+003;-4.546910e-002
1.552481e+003;-4.600780e-002
1.554410e+003;-4.740227e-002
1.556338e+003;-4.960020e-002
1.558267e+003;-5.363269e-002
1.560195e+003;-5.228676e-002
1.562124e+003;-4.732185e-002
1.564052e+003;-4.579701e-002
1.565981e+003;-4.599439e-002
1.567910e+003;-4.688341e-002
1.569838e+003;-4.736555e-002
1.571767e+003;-4.617560e-002
1.573695e+003;-4.676433e-002
1.575624e+003;-4.898475e-002
1.577552e+003;-4.765986e-002
1.579481e+003;-4.554134e-002
1.581409e+003;-4.516274e-002
1.583338e+003;-4.492104e-002
1.585266e+003;-4.496749e-002
1.587195e+003;-4.485888e-002
1.589124e+003;-4.455024e-002
1.591052e+003;-4.435143e-002
1.592981e+003;-4.439271e-002
1.594909e+003;-4.441081e-002
1.596838e+003;-4.414375e-002
1.598766e+003;-4.365430e-002
1.600695e+003;-4.334785e-002
1.602623e+003;-4.293225e-002
1.604552e+003;-4.274888e-002
1.606480e+003;-4.268534e-002
1.608409e+003;-4.235768e-002
1.610338e+003;-4.156257e-002
1.612266e+003;-4.058877e-002
1.614195e+003;-4.140085e-002
1.616123e+003;-4.347879e-002
1.618052e+003;-4.169338e-002
1.619980e+003;-3.928259e-002
1.621909e+003;-3.982098e-002
1.623837e+003;-4.010892e-002
1.625766e+003;-3.943000e-002
1.627694e+003;-3.892279e-002
1.629623e+003;-3.841944e-002
1.631552e+003;-3.867953e-002
1.633480e+003;-4.070901e-002
1.635409e+003;-4.289359e-002
1.637337e+003;-4.144085e-002
1.639266e+003;-3.952948e-002
1.641194e+003;-3.904983e-002
1.643123e+003;-3.972698e-002
1.645051e+003;-4.232363e-002
1.646980e+003;-4.314816e-002
1.648909e+003;-4.168182e-002
1.650837e+003;-4.447844e-002
1.652766e+003;-4.913459e-002
1.654694e+003;-4.555095e-002
1.656623e+003;-4.105407e-002
1.658551e+003;-4.028765e-002
1.660480e+003;-4.087437e-002
1.662408e+003;-4.161659e-002
1.664337e+003;-4.094915e-002
1.666266e+003;-4.057872e-002
1.668194e+003;-4.178641e-002
1.670123e+003;-4.188177e-002
1.672051e+003;-4.079969e-002
1.673980e+003;-4.108554e-002
1.675908e+003;-4.076826e-002
1.677837e+003;-3.913546e-002
1.679765e+003;-3.887532e-002
1.681694e+003;-4.026799e-002
1.683622e+003;-4.327690e-002
1.685551e+003;-4.156055e-002
1.687479e+003;-3.765519e-002
1.689408e+003;-3.638085e-002
1.691337e+003;-3.553218e-002
1.693265e+003;-3.608283e-002
1.695194e+003;-3.854959e-002
1.697122e+003;-3.760849e-002
1.699051e+003;-3.754838e-002
1.700979e+003;-3.610585e-002
1.702908e+003;-3.109322e-002
1.704836e+003;-2.885641e-002
1.706765e+003;-2.628830e-002
1.708693e+003;-2.249238e-002
1.710622e+003;-1.805620e-002
1.712551e+003;-1.360487e-002
1.714479e+003;-9.250833e-003
1.716408e+003;-4.765012e-003
1.718336e+003;3.576663e-003
1.720265e+003;1.482676e-002
1.722193e+003;2.447066e-002
1.724122e+003;3.300997e-002
1.726050e+003;4.124701e-002
1.727979e+003;4.882506e-002
1.729908e+003;5.522562e-002
1.731836e+003;5.844747e-002
1.733765e+003;5.962274e-002
1.735693e+003;6.349491e-002
1.737622e+003;6.465745e-002
1.739550e+003;6.147774e-002
1.741479e+003;5.787086e-002
1.743407e+003;5.224423e-002
1.745336e+003;4.480644e-002
1.747265e+003;3.638512e-002
1.749193e+003;2.712471e-002
1.751122e+003;1.786881e-002
1.753050e+003;1.031516e-002
1.754979e+003;2.439307e-003
1.756907e+003;-5.793145e-003
1.758836e+003;-1.275046e-002
1.760764e+003;-1.965913e-002
1.762693e+003;-2.510092e-002
1.764621e+003;-2.877148e-002
1.766550e+003;-3.298779e-002
1.768479e+003;-3.678748e-002
1.770407e+003;-4.008971e-002
1.772336e+003;-4.238816e-002
1.774264e+003;-4.183441e-002
1.776193e+003;-4.136654e-002
1.778121e+003;-4.199167e-002
1.780050e+003;-4.275513e-002
1.781978e+003;-4.284838e-002
1.783907e+003;-4.299078e-002
1.785835e+003;-4.314951e-002
1.787764e+003;-4.330602e-002
1.789693e+003;-4.431558e-002
1.791621e+003;-4.553495e-002
1.793550e+003;-4.503139e-002
1.795478e+003;-4.395858e-002
1.797407e+003;-4.436438e-002
1.799335e+003;-4.489498e-002
1.801264e+003;-4.483408e-002
1.803192e+003;-4.430370e-002
1.805121e+003;-4.415689e-002
1.807049e+003;-4.437285e-002
1.808978e+003;-4.457365e-002
1.810907e+003;-4.446689e-002
1.812835e+003;-4.419762e-002
1.814764e+003;-4.390423e-002
1.816692e+003;-4.393037e-002
1.818621e+003;-4.382195e-002
1.820549e+003;-4.401487e-002
1.822478e+003;-4.413148e-002
1.824406e+003;-4.447347e-002
1.826335e+003;-4.457449e-002
1.828264e+003;-4.487433e-002
1.830192e+003;-4.506858e-002
1.832121e+003;-4.436510e-002
1.834049e+003;-4.373724e-002
1.835978e+003;-4.378795e-002
1.837906e+003;-4.413040e-002
1.839835e+003;-4.434975e-002
1.841763e+003;-4.494072e-002
1.843692e+003;-4.574438e-002
1.845620e+003;-4.487989e-002
1.847549e+003;-4.400125e-002
1.849478e+003;-4.390093e-002
1.851406e+003;-4.401493e-002
1.853335e+003;-4.408990e-002
1.855263e+003;-4.373550e-002
1.857192e+003;-4.366634e-002
1.859120e+003;-4.395152e-002
1.861049e+003;-4.410950e-002
1.862977e+003;-4.408313e-002
1.864906e+003;-4.410169e-002
1.866834e+003;-4.469809e-002
1.868763e+003;-4.530931e-002
1.870692e+003;-4.481005e-002
1.872620e+003;-4.441598e-002
1.874549e+003;-4.441517e-002
1.876477e+003;-4.434742e-002
1.878406e+003;-4.413273e-002
1.880334e+003;-4.397487e-002
1.882263e+003;-4.418849e-002
1.884191e+003;-4.437799e-002
1.886120e+003;-4.455389e-002
1.888048e+003;-4.508286e-002
1.889977e+003;-4.513082e-002
1.891906e+003;-4.459494e-002
1.893834e+003;-4.471749e-002
1.895763e+003;-4.491455e-002
1.897691e+003;-4.490708e-002
1.899620e+003;-4.479995e-002
1.901548e+003;-4.464822e-002
1.903477e+003;-4.450236e-002
1.905405e+003;-4.453038e-002
1.907334e+003;-4.464801e-002
1.909262e+003;-4.472520e-002
1.911191e+003;-4.469426e-002
1.913120e+003;-4.460314e-002
1.915048e+003;-4.475626e-002
1.916977e+003;-4.523509e-002
1.918905e+003;-4.500280e-002
1.920834e+003;-4.465979e-002
1.922762e+003;-4.495524e-002
1.924691e+003;-4.502073e-002
1.926619e+003;-4.497938e-002
1.928548e+003;-4.485912e-002
1.930477e+003;-4.459473e-002
1.932405e+003;-4.475288e-002
1.934334e+003;-4.493741e-002
1.936262e+003;-4.487039e-002
1.938191e+003;-4.487368e-002
1.940119e+003;-4.501667e-002
1.942048e+003;-4.505018e-002
1.943976e+003;-4.498434e-002
1.945905e+003;-4.477736e-002
1.947833e+003;-4.481164e-002
1.949762e+003;-4.482984e-002
1.951691e+003;-4.483396e-002
1.953619e+003;-4.493881e-002
1.955548e+003;-4.471608e-002
1.957476e+003;-4.445131e-002
1.959405e+003;-4.455574e-002
1.961333e+003;-4.470927e-002
1.963262e+003;-4.446501e-002
1.965190e+003;-4.435929e-002
1.967119e+003;-4.455000e-002
1.969047e+003;-4.436653e-002
1.970976e+003;-4.425041e-002
1.972905e+003;-4.422548e-002
1.974833e+003;-4.422351e-002
1.976762e+003;-4.412465e-002
1.978690e+003;-4.385433e-002
1.980619e+003;-4.370673e-002
1.982547e+003;-4.363506e-002
1.984476e+003;-4.355070e-002
1.986404e+003;-4.374934e-002
1.988333e+003;-4.377588e-002
1.990261e+003;-4.374940e-002
1.992190e+003;-4.392597e-002
1.994119e+003;-4.381887e-002
1.996047e+003;-4.355453e-002
1.997976e+003;-4.342758e-002
1.999904e+003;-4.376830e-002
2.001833e+003;-4.380284e-002
2.003761e+003;-4.363066e-002
2.005690e+003;-4.355115e-002
2.007618e+003;-4.343346e-002
2.009547e+003;-4.322981e-002
2.011476e+003;-4.315047e-002
2.013404e+003;-4.307015e-002
2.015333e+003;-4.330311e-002
2.017261e+003;-4.355798e-002
2.019190e+003;-4.346068e-002
2.021118e+003;-4.324523e-002
2.023047e+003;-4.319808e-002
2.024975e+003;-4.303186e-002
2.026904e+003;-4.281160e-002
2.028833e+003;-4.300611e-002
2.030761e+003;-4.316367e-002
2.032690e+003;-4.324016e-002
2.034618e+003;-4.314150e-002
2.036547e+003;-4.288858e-002
2.038475e+003;-4.291616e-002
2.040404e+003;-4.311291e-002
2.042332e+003;-4.302694e-002
2.044261e+003;-4.287156e-002
2.046189e+003;-4.299963e-002
2.048118e+003;-4.306112e-002
2.050047e+003;-4.301527e-002
2.051975e+003;-4.317096e-002
2.053904e+003;-4.326757e-002
2.055832e+003;-4.308497e-002
2.057761e+003;-4.276963e-002
2.059689e+003;-4.303969e-002
2.061618e+003;-4.344389e-002
2.063546e+003;-4.324538e-002
2.065475e+003;-4.292469e-002
2.067404e+003;-4.299762e-002
2.069332e+003;-4.308629e-002
2.071260e+003;-4.300945e-002
2.073189e+003;-4.302295e-002
2.075118e+003;-4.296425e-002
2.077046e+003;-4.300803e-002
2.078975e+003;-4.301623e-002
2.080903e+003;-4.290058e-002
2.082832e+003;-4.301464e-002
2.084760e+003;-4.307450e-002
2.086689e+003;-4.302013e-002
2.088617e+003;-4.338669e-002
2.090546e+003;-4.365154e-002
2.092475e+003;-4.342623e-002
2.094403e+003;-4.320939e-002
2.096332e+003;-4.295716e-002
2.098260e+003;-4.298427e-002
2.100189e+003;-4.309424e-002
2.102117e+003;-4.304231e-002
2.104046e+003;-4.299972e-002
2.105974e+003;-4.297484e-002
2.107903e+003;-4.307066e-002
2.109832e+003;-4.302463e-002
2.111760e+003;-4.310679e-002
2.113688e+003;-4.316067e-002
2.115617e+003;-4.314297e-002
2.117546e+003;-4.308206e-002
2.119474e+003;-4.287447e-002
2.121403e+003;-4.266906e-002
2.123331e+003;-4.264350e-002
2.125260e+003;-4.273317e-002
2.127188e+003;-4.277080e-002
2.129117e+003;-4.274344e-002
2.131045e+003;-4.263266e-002
2.132974e+003;-4.220401e-002
2.134903e+003;-4.189751e-002
2.136831e+003;-4.202277e-002
2.138760e+003;-4.238545e-002
2.140688e+003;-4.280395e-002
2.142617e+003;-4.274119e-002
2.144545e+003;-4.258228e-002
2.146474e+003;-4.248933e-002
2.148402e+003;-4.220329e-002
2.150331e+003;-4.194856e-002
2.152260e+003;-4.213471e-002
2.154188e+003;-4.243975e-002
2.156117e+003;-4.247554e-002
2.158045e+003;-4.232378e-002
2.159974e+003;-4.219484e-002
2.161902e+003;-4.208184e-002
2.163831e+003;-4.209528e-002
2.165759e+003;-4.199082e-002
2.167688e+003;-4.171920e-002
2.169616e+003;-4.150141e-002
2.171545e+003;-4.151424e-002
2.173474e+003;-4.165731e-002
2.175402e+003;-4.162019e-002
2.177331e+003;-4.147928e-002
2.179259e+003;-4.118938e-002
2.181188e+003;-4.088622e-002
2.183116e+003;-4.069284e-002
2.185045e+003;-4.046853e-002
2.186973e+003;-4.019843e-002
2.188902e+003;-3.976499e-002
2.190831e+003;-3.923074e-002
2.192759e+003;-3.886562e-002
2.194688e+003;-3.875915e-002
2.196616e+003;-3.895751e-002
2.198545e+003;-3.918203e-002
2.200473e+003;-3.909682e-002
2.202402e+003;-3.919559e-002
2.204330e+003;-3.932188e-002
2.206259e+003;-3.927609e-002
2.208188e+003;-3.906048e-002
2.210116e+003;-3.895006e-002
2.212044e+003;-3.881793e-002
2.213973e+003;-3.853416e-002
2.215902e+003;-3.816998e-002
2.217830e+003;-3.754744e-002
2.219759e+003;-3.684724e-002
2.221687e+003;-3.638213e-002
2.223616e+003;-3.546586e-002
2.225544e+003;-3.391800e-002
2.227473e+003;-3.153651e-002
2.229401e+003;-2.702561e-002
2.231330e+003;-1.937555e-002
2.233259e+003;-8.109284e-003
2.235187e+003;6.204792e-003
2.237116e+003;2.191591e-002
2.239044e+003;3.622787e-002
2.240973e+003;4.672313e-002
2.242901e+003;5.258648e-002
2.244830e+003;5.410218e-002
2.246758e+003;5.176284e-002
2.248687e+003;4.593008e-002
2.250615e+003;3.806178e-002
2.252544e+003;2.932952e-002
2.254473e+003;2.010545e-002
2.256401e+003;1.086052e-002
2.258330e+003;2.222177e-003
2.260258e+003;-5.409529e-003
2.262187e+003;-1.219330e-002
2.264115e+003;-1.796347e-002
2.266044e+003;-2.255086e-002
2.267972e+003;-2.592472e-002
2.269901e+003;-2.856208e-002
2.271830e+003;-3.058386e-002
2.273758e+003;-3.197049e-002
2.275687e+003;-3.328003e-002
2.277615e+003;-3.433650e-002
2.279544e+003;-3.505964e-002
2.281472e+003;-3.526285e-002
2.283401e+003;-3.544064e-002
2.285329e+003;-3.572314e-002
2.287258e+003;-3.590102e-002
2.289187e+003;-3.605700e-002
2.291115e+003;-3.619859e-002
2.293043e+003;-3.625764e-002
2.294972e+003;-3.661228e-002
2.296901e+003;-3.681105e-002
2.298829e+003;-3.663786e-002
2.300758e+003;-3.672635e-002
2.302686e+003;-3.718601e-002
2.304615e+003;-3.739981e-002
2.306543e+003;-3.752701e-002
2.308472e+003;-3.771093e-002
2.310400e+003;-3.800198e-002
2.312329e+003;-3.840640e-002
2.314258e+003;-3.880893e-002
2.316186e+003;-3.901978e-002
2.318115e+003;-3.925178e-002
2.320043e+003;-3.981106e-002
2.321972e+003;-4.045126e-002
2.323900e+003;-4.119832e-002
2.325829e+003;-4.184470e-002
2.327757e+003;-4.244300e-002
2.329686e+003;-4.311234e-002
2.331615e+003;-4.348670e-002
2.333543e+003;-4.373409e-002
2.335472e+003;-4.378867e-002
2.337400e+003;-4.370047e-002
2.339329e+003;-4.378292e-002
2.341257e+003;-4.349060e-002
2.343186e+003;-4.265729e-002
2.345114e+003;-4.134681e-002
2.347043e+003;-3.985976e-002
2.348971e+003;-3.905370e-002
2.350900e+003;-4.001275e-002
2.352829e+003;-4.196754e-002
2.354757e+003;-4.379299e-002
2.356686e+003;-4.519717e-002
2.358614e+003;-4.618024e-002
2.360543e+003;-4.661746e-002
2.362471e+003;-4.653021e-002
2.364400e+003;-4.607230e-002
2.366328e+003;-4.506918e-002
2.368257e+003;-4.395622e-002
2.370186e+003;-4.272095e-002
2.372114e+003;-4.146997e-002
2.374042e+003;-4.023271e-002
2.375971e+003;-3.926885e-002
2.377900e+003;-3.874454e-002
2.379828e+003;-3.794597e-002
2.381757e+003;-3.735420e-002
2.383685e+003;-3.735916e-002
2.385614e+003;-3.747139e-002
2.387542e+003;-3.737342e-002
2.389471e+003;-3.733216e-002
2.391399e+003;-3.757378e-002
2.393328e+003;-3.747689e-002
2.395257e+003;-3.742547e-002
2.397185e+003;-3.735074e-002
2.399114e+003;-3.731130e-002
2.401042e+003;-3.730285e-002
2.402971e+003;-3.709905e-002
2.404899e+003;-3.717242e-002
2.406828e+003;-3.760247e-002
2.408756e+003;-3.767551e-002
2.410685e+003;-3.739330e-002
2.412614e+003;-3.727244e-002
2.414542e+003;-3.726764e-002
2.416471e+003;-3.735183e-002
2.418399e+003;-3.735962e-002
2.420328e+003;-3.728348e-002
2.422256e+003;-3.724267e-002
2.424185e+003;-3.724699e-002
2.426113e+003;-3.738503e-002
2.428042e+003;-3.732575e-002
2.429970e+003;-3.713759e-002
2.431899e+003;-3.733298e-002
2.433828e+003;-3.763966e-002
2.435756e+003;-3.764571e-002
2.437685e+003;-3.748653e-002
2.439613e+003;-3.751465e-002
2.441542e+003;-3.746726e-002
2.443470e+003;-3.743574e-002
2.445399e+003;-3.759551e-002
2.447327e+003;-3.749328e-002
2.449256e+003;-3.740072e-002
2.451185e+003;-3.758193e-002
2.453113e+003;-3.722157e-002
2.455042e+003;-3.701413e-002
2.456970e+003;-3.720986e-002
2.458899e+003;-3.704441e-002
2.460827e+003;-3.697853e-002
2.462756e+003;-3.703942e-002
2.464684e+003;-3.712375e-002
2.466613e+003;-3.695388e-002
2.468542e+003;-3.696615e-002
2.470470e+003;-3.701985e-002
2.472398e+003;-3.654177e-002
2.474327e+003;-3.602709e-002
2.476256e+003;-3.616588e-002
2.478184e+003;-3.637351e-002
2.480113e+003;-3.644264e-002
2.482041e+003;-3.634541e-002
2.483970e+003;-3.605523e-002
2.485898e+003;-3.608307e-002
2.487827e+003;-3.617929e-002
2.489755e+003;-3.582500e-002
2.491684e+003;-3.573306e-002
2.493613e+003;-3.592582e-002
2.495541e+003;-3.565624e-002
2.497470e+003;-3.538661e-002
2.499398e+003;-3.556109e-002
2.501327e+003;-3.556228e-002
2.503255e+003;-3.538252e-002
2.505184e+003;-3.535320e-002
2.507112e+003;-3.538112e-002
2.509041e+003;-3.553804e-002
2.510969e+003;-3.569809e-002
2.512898e+003;-3.561791e-002
2.514827e+003;-3.542665e-002
2.516755e+003;-3.527870e-002
2.518684e+003;-3.553853e-002
2.520612e+003;-3.562688e-002
2.522541e+003;-3.527344e-002
2.524469e+003;-3.521537e-002
2.526398e+003;-3.524134e-002
2.528326e+003;-3.499527e-002
2.530255e+003;-3.485597e-002
2.532184e+003;-3.499196e-002
2.534112e+003;-3.521995e-002
2.536041e+003;-3.523489e-002
2.537969e+003;-3.496020e-002
2.539898e+003;-3.491202e-002
2.541826e+003;-3.492831e-002
2.543755e+003;-3.522955e-002
2.545683e+003;-3.545252e-002
2.547612e+003;-3.530186e-002
2.549541e+003;-3.512235e-002
2.551469e+003;-3.518686e-002
2.553397e+003;-3.516388e-002
2.555326e+003;-3.517268e-002
2.557255e+003;-3.519697e-002
2.559183e+003;-3.509476e-002
2.561112e+003;-3.509079e-002
2.563040e+003;-3.500340e-002
2.564969e+003;-3.501098e-002
2.566897e+003;-3.508067e-002
2.568826e+003;-3.506725e-002
2.570754e+003;-3.518102e-002
2.572683e+003;-3.523492e-002
2.574612e+003;-3.514967e-002
2.576540e+003;-3.501575e-002
2.578469e+003;-3.484093e-002
2.580397e+003;-3.502140e-002
2.582326e+003;-3.527360e-002
2.584254e+003;-3.516462e-002
2.586183e+003;-3.518127e-002
2.588111e+003;-3.538405e-002
2.590040e+003;-3.555865e-002
2.591969e+003;-3.569226e-002
2.593897e+003;-3.552446e-002
2.595826e+003;-3.513201e-002
2.597754e+003;-3.519322e-002
2.599683e+003;-3.544397e-002
2.601611e+003;-3.563845e-002
2.603540e+003;-3.532984e-002
2.605468e+003;-3.509146e-002
2.607397e+003;-3.520862e-002
2.609325e+003;-3.531899e-002
2.611254e+003;-3.540757e-002
2.613183e+003;-3.543743e-002
2.615111e+003;-3.532391e-002
2.617040e+003;-3.515734e-002
2.618968e+003;-3.499108e-002
2.620897e+003;-3.512666e-002
2.622825e+003;-3.523480e-002
2.624754e+003;-3.494813e-002
2.626682e+003;-3.470311e-002
2.628611e+003;-3.476735e-002
2.630540e+003;-3.499774e-002
2.632468e+003;-3.497919e-002
2.634396e+003;-3.486900e-002
2.636325e+003;-3.497115e-002
2.638254e+003;-3.521793e-002
2.640182e+003;-3.501783e-002
2.642111e+003;-3.467723e-002
2.644039e+003;-3.468002e-002
2.645968e+003;-3.475786e-002
2.647896e+003;-3.472021e-002
2.649825e+003;-3.467815e-002
2.651753e+003;-3.461944e-002
2.653682e+003;-3.457642e-002
2.655611e+003;-3.429076e-002
2.657539e+003;-3.412884e-002
2.659468e+003;-3.444869e-002
2.661396e+003;-3.479203e-002
2.663325e+003;-3.476781e-002
2.665253e+003;-3.461568e-002
2.667182e+003;-3.454549e-002
2.669110e+003;-3.454084e-002
2.671039e+003;-3.472658e-002
2.672968e+003;-3.464841e-002
2.674896e+003;-3.439163e-002
2.676825e+003;-3.427015e-002
2.678753e+003;-3.434440e-002
2.680682e+003;-3.428436e-002
2.682610e+003;-3.422134e-002
2.684539e+003;-3.404984e-002
2.686467e+003;-3.388208e-002
2.688396e+003;-3.388717e-002
2.690324e+003;-3.378900e-002
2.692253e+003;-3.368979e-002
2.694182e+003;-3.386139e-002
2.696110e+003;-3.403817e-002
2.698039e+003;-3.411307e-002
2.699967e+003;-3.430646e-002
2.701896e+003;-3.450102e-002
2.703824e+003;-3.463440e-002
2.705753e+003;-3.455500e-002
2.707681e+003;-3.446142e-002
2.709610e+003;-3.441107e-002
2.711539e+003;-3.435291e-002
2.713467e+003;-3.445563e-002
2.715396e+003;-3.420936e-002
2.717324e+003;-3.378795e-002
2.719253e+003;-3.384742e-002
2.721181e+003;-3.399084e-002
2.723110e+003;-3.400870e-002
2.725038e+003;-3.406599e-002
2.726967e+003;-3.426846e-002
2.728896e+003;-3.436209e-002
2.730824e+003;-3.431641e-002
2.732752e+003;-3.448759e-002
2.734681e+003;-3.441909e-002
2.736610e+003;-3.403937e-002
2.738538e+003;-3.394233e-002
2.740467e+003;-3.405833e-002
2.742395e+003;-3.390819e-002
2.744324e+003;-3.405741e-002
2.746252e+003;-3.438658e-002
2.748181e+003;-3.435915e-002
2.750109e+003;-3.411295e-002
2.752038e+003;-3.419785e-002
2.753967e+003;-3.411705e-002
2.755895e+003;-3.414471e-002
2.757824e+003;-3.437829e-002
2.759752e+003;-3.420082e-002
2.761681e+003;-3.385992e-002
2.763609e+003;-3.402880e-002
2.765538e+003;-3.401669e-002
2.767466e+003;-3.385318e-002
2.769395e+003;-3.393118e-002
2.771323e+003;-3.378857e-002
2.773252e+003;-3.370144e-002
2.775181e+003;-3.375298e-002
2.777109e+003;-3.361169e-002
2.779038e+003;-3.336110e-002
2.780966e+003;-3.347296e-002
2.782895e+003;-3.375019e-002
2.784823e+003;-3.364652e-002
2.786752e+003;-3.324415e-002
2.788680e+003;-3.323203e-002
2.790609e+003;-3.344633e-002
2.792538e+003;-3.357173e-002
2.794466e+003;-3.354336e-002
2.796395e+003;-3.346904e-002
2.798323e+003;-3.286518e-002
2.800252e+003;-3.242933e-002
2.802180e+003;-3.273153e-002
2.804109e+003;-3.296654e-002
2.806037e+003;-3.280893e-002
2.807966e+003;-3.257620e-002
2.809895e+003;-3.210849e-002
2.811823e+003;-3.198338e-002
2.813751e+003;-3.216496e-002
2.815680e+003;-3.213520e-002
2.817609e+003;-3.184309e-002
2.819537e+003;-3.164638e-002
2.821466e+003;-3.175720e-002
2.823394e+003;-3.211111e-002
2.825323e+003;-3.222086e-002
2.827251e+003;-3.181494e-002
2.829180e+003;-3.144813e-002
2.831108e+003;-3.119965e-002
2.833037e+003;-3.124221e-002
2.834966e+003;-3.139012e-002
2.836894e+003;-3.141118e-002
2.838823e+003;-3.118704e-002
2.840751e+003;-3.111090e-002
2.842680e+003;-3.121344e-002
2.844608e+003;-3.115845e-002
2.846537e+003;-3.050010e-002
2.848465e+003;-2.949487e-002
2.850394e+003;-2.867981e-002
2.852323e+003;-2.795900e-002
2.854251e+003;-2.676497e-002
2.856180e+003;-2.481965e-002
2.858108e+003;-2.277186e-002
2.860037e+003;-2.138424e-002
2.861965e+003;-2.019338e-002
2.863894e+003;-1.866585e-002
2.865822e+003;-1.792020e-002
2.867751e+003;-1.801186e-002
2.869679e+003;-1.753105e-002
2.871608e+003;-1.691751e-002
2.873536e+003;-1.647043e-002
2.875465e+003;-1.645164e-002
2.877394e+003;-1.643782e-002
2.879322e+003;-1.650159e-002
2.881251e+003;-1.678929e-002
2.883179e+003;-1.726219e-002
2.885108e+003;-1.772949e-002
2.887036e+003;-1.777119e-002
2.888965e+003;-1.753796e-002
2.890893e+003;-1.713904e-002
2.892822e+003;-1.654938e-002
2.894750e+003;-1.597977e-002
2.896679e+003;-1.524687e-002
2.898608e+003;-1.415621e-002
2.900536e+003;-1.265154e-002
2.902465e+003;-1.103205e-002
2.904393e+003;-9.043097e-003
2.906322e+003;-6.797191e-003
2.908250e+003;-4.582005e-003
2.910179e+003;-2.537532e-003
2.912107e+003;-4.517464e-004
2.914036e+003;2.024530e-003
2.915965e+003;4.654507e-003
2.917893e+003;7.023550e-003
2.919822e+003;9.021520e-003
2.921750e+003;1.111706e-002
2.923679e+003;1.317980e-002
2.925607e+003;1.500340e-002
2.927536e+003;1.671491e-002
2.929464e+003;1.804196e-002
2.931393e+003;1.931755e-002
2.933322e+003;2.082699e-002
2.935250e+003;2.218338e-002
2.937178e+003;2.280135e-002
2.939107e+003;2.275305e-002
2.941036e+003;2.246352e-002
2.942964e+003;2.191246e-002
2.944893e+003;2.015063e-002
2.946821e+003;1.800746e-002
2.948750e+003;1.550455e-002
2.950678e+003;1.298799e-002
2.952607e+003;1.122912e-002
2.954535e+003;9.368072e-003
2.956464e+003;7.123338e-003
2.958393e+003;5.026115e-003
2.960321e+003;3.486404e-003
2.962250e+003;2.757169e-003
2.964178e+003;2.029889e-003
2.966107e+003;8.794721e-004
2.968035e+003;-2.145893e-004
2.969964e+003;-1.026042e-003
2.971892e+003;-1.959593e-003
2.973821e+003;-3.012610e-003
2.975750e+003;-3.689202e-003
2.977678e+003;-4.071189e-003
2.979607e+003;-4.714605e-003
2.981535e+003;-5.721962e-003
2.983464e+003;-6.554565e-003
2.985392e+003;-6.818654e-003
2.987321e+003;-7.437594e-003
2.989249e+003;-8.237560e-003
2.991178e+003;-8.735870e-003
2.993106e+003;-9.350205e-003
2.995035e+003;-1.015284e-002
2.996964e+003;-1.121720e-002
2.998892e+003;-1.222517e-002
3.000821e+003;-1.287547e-002
3.002749e+003;-1.352474e-002
3.004678e+003;-1.430211e-002
3.006606e+003;-1.527764e-002
3.008535e+003;-1.593528e-002
3.010463e+003;-1.615006e-002
3.012392e+003;-1.671093e-002
3.014321e+003;-1.781323e-002
3.016249e+003;-1.906137e-002
3.018177e+003;-1.948308e-002
3.020106e+003;-1.995363e-002
3.022035e+003;-2.069854e-002
3.023963e+003;-2.130986e-002
3.025892e+003;-2.191679e-002
3.027820e+003;-2.264696e-002
3.029749e+003;-2.307089e-002
3.031677e+003;-2.321333e-002
3.033606e+003;-2.345825e-002
3.035534e+003;-2.382955e-002
3.037463e+003;-2.404908e-002
3.039392e+003;-2.435663e-002
3.041320e+003;-2.492194e-002
3.043249e+003;-2.529524e-002
3.045177e+003;-2.543613e-002
3.047106e+003;-2.569967e-002
3.049034e+003;-2.572390e-002
3.050963e+003;-2.588364e-002
3.052891e+003;-2.627966e-002
3.054820e+003;-2.650709e-002
3.056749e+003;-2.669016e-002
3.058677e+003;-2.670889e-002
3.060606e+003;-2.660051e-002
3.062534e+003;-2.674194e-002
3.064463e+003;-2.696387e-002
3.066391e+003;-2.732954e-002
3.068320e+003;-2.743332e-002
3.070248e+003;-2.747848e-002
3.072177e+003;-2.776624e-002
3.074105e+003;-2.783645e-002
3.076034e+003;-2.773320e-002
3.077963e+003;-2.782359e-002
3.079891e+003;-2.804884e-002
3.081820e+003;-2.800896e-002
3.083748e+003;-2.814407e-002
3.085677e+003;-2.874345e-002
3.087605e+003;-2.922932e-002
3.089534e+003;-2.922585e-002
3.091462e+003;-2.921801e-002
3.093391e+003;-2.949212e-002
3.095320e+003;-2.968033e-002
3.097248e+003;-2.986464e-002
3.099177e+003;-2.998263e-002
3.101105e+003;-3.005099e-002
3.103034e+003;-2.993262e-002
3.104962e+003;-2.986259e-002
3.106891e+003;-2.999023e-002
3.108819e+003;-2.984066e-002
3.110748e+003;-2.958523e-002
3.112677e+003;-2.978405e-002
3.114605e+003;-3.046338e-002
3.116533e+003;-3.088661e-002
3.118462e+003;-3.075432e-002
3.120391e+003;-3.092092e-002
3.122319e+003;-3.116101e-002
3.124248e+003;-3.099111e-002
3.126176e+003;-3.051715e-002
3.128105e+003;-3.040768e-002
3.130033e+003;-3.060536e-002
3.131962e+003;-3.088784e-002
3.133890e+003;-3.135310e-002
3.135819e+003;-3.158649e-002
3.137748e+003;-3.151245e-002
3.139676e+003;-3.166563e-002
3.141605e+003;-3.182270e-002
3.143533e+003;-3.152255e-002
3.145462e+003;-3.127011e-002
3.147390e+003;-3.151784e-002
3.149319e+003;-3.198270e-002
3.151247e+003;-3.191621e-002
3.153176e+003;-3.170860e-002
3.155104e+003;-3.172853e-002
3.157033e+003;-3.147497e-002
3.158962e+003;-3.125251e-002
3.160890e+003;-3.144788e-002
3.162819e+003;-3.200973e-002
3.164747e+003;-3.212394e-002
3.166676e+003;-3.198914e-002
3.168604e+003;-3.198862e-002
3.170533e+003;-3.197519e-002
3.172461e+003;-3.185845e-002
3.174390e+003;-3.163338e-002
3.176319e+003;-3.170989e-002
3.178247e+003;-3.230887e-002
3.180176e+003;-3.248108e-002
3.182104e+003;-3.218129e-002
3.184033e+003;-3.195897e-002
3.185961e+003;-3.228143e-002
3.187890e+003;-3.265725e-002
3.189818e+003;-3.242242e-002
3.191747e+003;-3.213573e-002
3.193676e+003;-3.213034e-002
3.195604e+003;-3.199767e-002
3.197532e+003;-3.174344e-002
3.199461e+003;-3.201718e-002
3.201390e+003;-3.226648e-002
3.203318e+003;-3.235688e-002
3.205247e+003;-3.240455e-002
3.207175e+003;-3.236921e-002
3.209104e+003;-3.230176e-002
3.211032e+003;-3.209351e-002
3.212961e+003;-3.195568e-002
3.214889e+003;-3.191193e-002
3.216818e+003;-3.194835e-002
3.218747e+003;-3.222267e-002
3.220675e+003;-3.256572e-002
3.222604e+003;-3.276837e-002
3.224532e+003;-3.289836e-002
3.226461e+003;-3.302225e-002
3.228389e+003;-3.298137e-002
3.230318e+003;-3.275574e-002
3.232246e+003;-3.238960e-002
3.234175e+003;-3.195161e-002
3.236104e+003;-3.195537e-002
3.238032e+003;-3.206759e-002
3.239961e+003;-3.247023e-002
3.241889e+003;-3.307110e-002
3.243818e+003;-3.311485e-002
3.245746e+003;-3.292686e-002
3.247675e+003;-3.258684e-002
3.249603e+003;-3.229494e-002
3.251532e+003;-3.229100e-002
3.253460e+003;-3.240061e-002
3.255389e+003;-3.249824e-002
3.257318e+003;-3.280690e-002
3.259246e+003;-3.289181e-002
3.261175e+003;-3.295321e-002
3.263103e+003;-3.279572e-002
3.265032e+003;-3.266245e-002
3.266960e+003;-3.246426e-002
3.268889e+003;-3.235393e-002
3.270817e+003;-3.292188e-002
3.272746e+003;-3.325241e-002
3.274675e+003;-3.313883e-002
3.276603e+003;-3.336518e-002
3.278531e+003;-3.324071e-002
3.280460e+003;-3.245606e-002
3.282389e+003;-3.271734e-002
3.284317e+003;-3.346002e-002
3.286246e+003;-3.354023e-002
3.288174e+003;-3.336835e-002
3.290103e+003;-3.351888e-002
3.292031e+003;-3.350462e-002
3.293960e+003;-3.317039e-002
3.295888e+003;-3.325409e-002
3.297817e+003;-3.364116e-002
3.299746e+003;-3.360369e-002
3.301674e+003;-3.342115e-002
3.303603e+003;-3.368810e-002
3.305531e+003;-3.395575e-002
3.307460e+003;-3.398312e-002
3.309388e+003;-3.375313e-002
3.311317e+003;-3.363368e-002
3.313245e+003;-3.355137e-002
3.315174e+003;-3.356057e-002
3.317103e+003;-3.339194e-002
3.319031e+003;-3.375203e-002
3.320960e+003;-3.406810e-002
3.322888e+003;-3.423987e-002
3.324817e+003;-3.458215e-002
3.326745e+003;-3.473186e-002
3.328674e+003;-3.442016e-002
3.330602e+003;-3.419482e-002
3.332531e+003;-3.432024e-002
3.334459e+003;-3.411635e-002
3.336388e+003;-3.409527e-002
3.338317e+003;-3.458169e-002
3.340245e+003;-3.476371e-002
3.342174e+003;-3.464104e-002
3.344102e+003;-3.422501e-002
3.346031e+003;-3.417669e-002
3.347959e+003;-3.470783e-002
3.349888e+003;-3.473226e-002
3.351816e+003;-3.450705e-002
3.353745e+003;-3.459665e-002
3.355674e+003;-3.484622e-002
3.357602e+003;-3.483659e-002
3.359531e+003;-3.458138e-002
3.361459e+003;-3.469957e-002
3.363388e+003;-3.473970e-002
3.365316e+003;-3.485071e-002
3.367245e+003;-3.518026e-002
3.369173e+003;-3.505365e-002
3.371102e+003;-3.484741e-002
3.373031e+003;-3.489514e-002
3.374959e+003;-3.479117e-002
3.376887e+003;-3.483864e-002
3.378816e+003;-3.507034e-002
3.380745e+003;-3.551328e-002
3.382673e+003;-3.553505e-002
3.384602e+003;-3.566961e-002
3.386530e+003;-3.598616e-002
3.388459e+003;-3.612551e-002
3.390387e+003;-3.596645e-002
3.392316e+003;-3.548992e-002
3.394244e+003;-3.522404e-002
3.396173e+003;-3.534480e-002
3.398102e+003;-3.588964e-002
3.400030e+003;-3.657951e-002
3.401959e+003;-3.615591e-002
3.403887e+003;-3.591908e-002
3.405816e+003;-3.633770e-002
3.407744e+003;-3.610451e-002
3.409673e+003;-3.613222e-002
3.411601e+003;-3.619463e-002
3.413530e+003;-3.535555e-002
3.415458e+003;-3.496684e-002
3.417387e+003;-3.544617e-002
3.419316e+003;-3.577993e-002
3.421244e+003;-3.558710e-002
3.423173e+003;-3.528063e-002
3.425101e+003;-3.499637e-002
3.427030e+003;-3.484652e-002
3.428958e+003;-3.494296e-002
3.430887e+003;-3.521225e-002
3.432815e+003;-3.513779e-002
3.434744e+003;-3.517250e-002
3.436673e+003;-3.597710e-002
3.438601e+003;-3.609399e-002
3.440530e+003;-3.533741e-002
3.442458e+003;-3.513066e-002
3.444387e+003;-3.512776e-002
3.446315e+003;-3.501205e-002
3.448244e+003;-3.462541e-002
3.450172e+003;-3.444042e-002
3.452101e+003;-3.462452e-002
3.454030e+003;-3.458900e-002
3.455958e+003;-3.458805e-002
3.457886e+003;-3.458206e-002
3.459815e+003;-3.420401e-002
3.461744e+003;-3.419506e-002
3.463672e+003;-3.455112e-002
3.465601e+003;-3.477502e-002
3.467529e+003;-3.471927e-002
3.469458e+003;-3.452774e-002
3.471386e+003;-3.421846e-002
3.473315e+003;-3.393289e-002
3.475243e+003;-3.421494e-002
3.477172e+003;-3.484738e-002
3.479101e+003;-3.508485e-002
3.481029e+003;-3.454491e-002
3.482958e+003;-3.412820e-002
3.484886e+003;-3.425407e-002
3.486815e+003;-3.457624e-002
3.488743e+003;-3.454720e-002
3.490672e+003;-3.440911e-002
3.492600e+003;-3.408964e-002
3.494529e+003;-3.362294e-002
3.496458e+003;-3.350440e-002
3.498386e+003;-3.353008e-002
3.500315e+003;-3.359823e-002
3.502243e+003;-3.385943e-002
3.504172e+003;-3.366502e-002
3.506100e+003;-3.342977e-002
3.508029e+003;-3.355308e-002
3.509957e+003;-3.337820e-002
3.511886e+003;-3.348321e-002
3.513814e+003;-3.336341e-002
3.515743e+003;-3.319231e-002
3.517672e+003;-3.301436e-002
3.519600e+003;-3.288905e-002
3.521529e+003;-3.322718e-002
3.523457e+003;-3.349404e-002
3.525386e+003;-3.309201e-002
3.527314e+003;-3.263752e-002
3.529243e+003;-3.247306e-002
3.531171e+003;-3.221154e-002
3.533100e+003;-3.265931e-002
3.535029e+003;-3.319648e-002
3.536957e+003;-3.297020e-002
3.538885e+003;-3.292047e-002
3.540814e+003;-3.264462e-002
3.542743e+003;-3.228017e-002
3.544671e+003;-3.281634e-002
3.546600e+003;-3.292253e-002
3.548528e+003;-3.225473e-002
3.550457e+003;-3.232911e-002
3.552385e+003;-3.242026e-002
3.554314e+003;-3.262508e-002
3.556242e+003;-3.291712e-002
3.558171e+003;-3.312631e-002
3.560100e+003;-3.342833e-002
3.562028e+003;-3.317275e-002
3.563957e+003;-3.335027e-002
3.565885e+003;-3.460794e-002
3.567814e+003;-3.471572e-002
3.569742e+003;-3.393332e-002
3.571671e+003;-3.337694e-002
3.573599e+003;-3.289138e-002
3.575528e+003;-3.292158e-002
3.577457e+003;-3.316456e-002
3.579385e+003;-3.305888e-002
3.581314e+003;-3.307147e-002
3.583242e+003;-3.295742e-002
3.585171e+003;-3.370273e-002
3.587099e+003;-3.471189e-002
3.589028e+003;-3.443712e-002
3.590956e+003;-3.382287e-002
3.592885e+003;-3.369687e-002
3.594813e+003;-3.363662e-002
3.596742e+003;-3.327509e-002
3.598671e+003;-3.279040e-002
3.600599e+003;-3.239886e-002
3.602528e+003;-3.215551e-002
3.604456e+003;-3.229623e-002
3.606385e+003;-3.291012e-002
3.608313e+003;-3.318178e-002
3.610242e+003;-3.281996e-002
3.612170e+003;-3.276410e-002
3.614099e+003;-3.264428e-002
3.616028e+003;-3.280380e-002
3.617956e+003;-3.345741e-002
3.619885e+003;-3.360356e-002
3.621813e+003;-3.213662e-002
3.623742e+003;-3.097516e-002
3.625670e+003;-3.179899e-002
3.627599e+003;-3.451106e-002
3.629527e+003;-3.498863e-002
3.631456e+003;-3.295988e-002
3.633385e+003;-3.240901e-002
3.635313e+003;-3.211499e-002
3.637241e+003;-3.193619e-002
3.639170e+003;-3.214090e-002
3.641099e+003;-3.243533e-002
3.643027e+003;-3.231939e-002
3.644956e+003;-3.291288e-002
3.646884e+003;-3.521179e-002
3.648813e+003;-3.707809e-002
3.650741e+003;-3.620792e-002
3.652670e+003;-3.460500e-002
3.654598e+003;-3.527681e-002
3.656527e+003;-3.566241e-002
3.658456e+003;-3.452355e-002
3.660384e+003;-3.435499e-002
3.662313e+003;-3.455399e-002
3.664241e+003;-3.500750e-002
3.666170e+003;-3.580425e-002
3.668098e+003;-3.733283e-002
3.670027e+003;-3.903928e-002
3.671955e+003;-3.856918e-002
3.673884e+003;-3.960544e-002
3.675813e+003;-4.018517e-002
3.677741e+003;-3.762124e-002
3.679669e+003;-3.650933e-002
3.681598e+003;-3.621850e-002
3.683527e+003;-3.602574e-002
3.685455e+003;-3.656663e-002
3.687384e+003;-3.879133e-002
3.689312e+003;-3.897359e-002
3.691241e+003;-3.683041e-002
3.693169e+003;-3.556949e-002
3.695098e+003;-3.571133e-002
3.697026e+003;-3.577960e-002
3.698955e+003;-3.607069e-002
3.700884e+003;-3.666161e-002
3.702812e+003;-3.618935e-002
3.704741e+003;-3.587222e-002
3.706669e+003;-3.627211e-002
3.708598e+003;-3.671350e-002
3.710526e+003;-3.822396e-002
3.712455e+003;-3.861090e-002
3.714383e+003;-3.678767e-002
3.716312e+003;-3.569464e-002
3.718240e+003;-3.581313e-002
3.720169e+003;-3.607679e-002
3.722098e+003;-3.625508e-002
3.724026e+003;-3.677649e-002
3.725955e+003;-3.708545e-002
3.727883e+003;-3.651704e-002
3.729812e+003;-3.696268e-002
3.731740e+003;-3.834792e-002
3.733669e+003;-3.879914e-002
3.735597e+003;-3.904704e-002
3.737526e+003;-3.765120e-002
3.739455e+003;-3.663530e-002
3.741383e+003;-3.777399e-002
3.743312e+003;-4.116903e-002
3.745240e+003;-4.025473e-002
3.747169e+003;-3.813824e-002
3.749097e+003;-4.008956e-002
3.751026e+003;-4.110460e-002
3.752954e+003;-3.949260e-002
3.754883e+003;-3.729729e-002
3.756812e+003;-3.688793e-002
3.758740e+003;-3.683528e-002
3.760668e+003;-3.649851e-002
3.762597e+003;-3.602589e-002
3.764526e+003;-3.636936e-002
3.766454e+003;-3.650762e-002
3.768383e+003;-3.652974e-002
3.770311e+003;-3.592119e-002
3.772240e+003;-3.545328e-002
3.774168e+003;-3.541487e-002
3.776097e+003;-3.560307e-002
3.778025e+003;-3.608865e-002
3.779954e+003;-3.557184e-002
3.781883e+003;-3.466246e-002
3.783811e+003;-3.516251e-002
3.785740e+003;-3.556201e-002
3.787668e+003;-3.521078e-002
3.789597e+003;-3.496008e-002
3.791525e+003;-3.534495e-002
3.793454e+003;-3.551072e-002
3.795382e+003;-3.578079e-002
3.797311e+003;-3.570361e-002
3.799240e+003;-3.664072e-002
3.801168e+003;-3.796767e-002
3.803097e+003;-3.622307e-002
3.805025e+003;-3.609554e-002
3.806954e+003;-3.709482e-002
3.808882e+003;-3.557007e-002
3.810811e+003;-3.465196e-002
3.812739e+003;-3.500612e-002
3.814668e+003;-3.722747e-002
3.816596e+003;-3.760289e-002
3.818525e+003;-3.658389e-002
3.820454e+003;-3.786869e-002
3.822382e+003;-3.706357e-002
3.824311e+003;-3.521549e-002
3.826239e+003;-3.469446e-002
3.828168e+003;-3.464358e-002
3.830096e+003;-3.517360e-002
3.832025e+003;-3.555743e-002
3.833953e+003;-3.597213e-002
3.835882e+003;-3.752106e-002
3.837811e+003;-3.804588e-002
3.839739e+003;-3.614887e-002
3.841667e+003;-3.561382e-002
3.843596e+003;-3.552113e-002
3.845525e+003;-3.450418e-002
3.847453e+003;-3.382621e-002
3.849382e+003;-3.440308e-002
3.851310e+003;-3.811207e-002
3.853239e+003;-4.169061e-002
3.855167e+003;-3.846369e-002
3.857096e+003;-3.435817e-002
3.859024e+003;-3.408673e-002
3.860953e+003;-3.465820e-002
3.862882e+003;-3.507514e-002
3.864810e+003;-3.545991e-002
3.866739e+003;-3.501027e-002
3.868667e+003;-3.624773e-002
3.870596e+003;-3.609383e-002
3.872524e+003;-3.494754e-002
3.874453e+003;-3.448214e-002
3.876381e+003;-3.361485e-002
3.878310e+003;-3.411515e-002
3.880239e+003;-3.501816e-002
3.882167e+003;-3.477334e-002
3.884096e+003;-3.565197e-002
3.886024e+003;-3.588791e-002
3.887953e+003;-3.422507e-002
3.889881e+003;-3.448768e-002
3.891810e+003;-3.466099e-002
3.893738e+003;-3.365410e-002
3.895667e+003;-3.334410e-002
3.897595e+003;-3.392931e-002
3.899524e+003;-3.550238e-002
3.901453e+003;-3.663043e-002
3.903381e+003;-3.611576e-002
3.905310e+003;-3.482616e-002
3.907238e+003;-3.413169e-002
3.909167e+003;-3.321895e-002
3.911095e+003;-3.235691e-002
3.913024e+003;-3.252065e-002
3.914952e+003;-3.397435e-002
3.916881e+003;-3.501795e-002
3.918810e+003;-3.406743e-002
3.920738e+003;-3.308477e-002
3.922667e+003;-3.350928e-002
3.924595e+003;-3.405750e-002
3.926524e+003;-3.398388e-002
3.928452e+003;-3.394077e-002
3.930381e+003;-3.387169e-002
3.932309e+003;-3.384230e-002
3.934238e+003;-3.393672e-002
3.936167e+003;-3.358611e-002
3.938095e+003;-3.331805e-002
3.940023e+003;-3.352870e-002
3.941952e+003;-3.343489e-002
3.943881e+003;-3.343811e-002
3.945809e+003;-3.370690e-002
3.947738e+003;-3.347870e-002
3.949666e+003;-3.255247e-002
3.951595e+003;-3.220231e-002
3.953523e+003;-3.234288e-002
3.955452e+003;-3.275200e-002
3.957380e+003;-3.282070e-002
3.959309e+003;-3.286868e-002
3.961238e+003;-3.277310e-002
3.963166e+003;-3.264853e-002
3.965095e+003;-3.292790e-002
3.967023e+003;-3.291408e-002
3.968952e+003;-3.268448e-002
3.970880e+003;-3.273178e-002
3.972809e+003;-3.280196e-002
3.974737e+003;-3.259790e-002
3.976666e+003;-3.267806e-002
3.978594e+003;-3.264819e-002
3.980523e+003;-3.218893e-002
3.982452e+003;-3.216206e-002
3.984380e+003;-3.196919e-002
3.986309e+003;-3.190251e-002
3.988237e+003;-3.202103e-002
3.990166e+003;-3.201955e-002
3.992094e+003;-3.203334e-002
3.994023e+003;-3.206445e-002
3.995951e+003;-3.210806e-002
3.997880e+003;-3.212720e-002
3.999809e+003;-3.240532e-002
4.001737e+003;0.000000e+000
