3.992094e+002;0.000000e+000
4.011380e+002;0.000000e+000
4.030665e+002;0.000000e+000
4.049951e+002;0.000000e+000
4.069236e+002;0.000000e+000
4.088522e+002;0.000000e+000
4.107807e+002;0.000000e+000
4.127093e+002;0.000000e+000
4.146378e+002;0.000000e+000
4.165664e+002;0.000000e+000
4.184949e+002;0.000000e+000
4.204235e+002;0.000000e+000
4.223520e+002;0.000000e+000
4.242806e+002;0.000000e+000
4.262091e+002;0.000000e+000
4.281377e+002;0.000000e+000
4.300662e+002;0.000000e+000
4.319948e+002;0.000000e+000
4.339233e+002;0.000000e+000
4.358519e+002;0.000000e+000
4.377804e+002;0.000000e+000
4.397090e+002;0.000000e+000
4.416375e+002;0.000000e+000
4.435660e+002;0.000000e+000
4.454946e+002;0.000000e+000
4.474232e+002;0.000000e+000
4.493517e+002;0.000000e+000
4.512802e+002;0.000000e+000
4.532088e+002;0.000000e+000
4.551373e+002;0.000000e+000
4.570659e+002;0.000000e+000
4.589944e+002;0.000000e+000
4.609230e+002;0.000000e+000
4.628515e+002;0.000000e+000
4.647801e+002;0.000000e+000
4.667086e+002;0.000000e+000
4.686372e+002;0.000000e+000
4.705657e+002;0.000000e+000
4.724943e+002;0.000000e+000
4.744228e+002;0.000000e+000
4.763513e+002;0.000000e+000
4.782799e+002;0.000000e+000
4.802085e+002;0.000000e+000
4.821370e+002;0.000000e+000
4.840656e+002;0.000000e+000
4.859941e+002;0.000000e+000
4.879226e+002;0.000000e+000
4.898512e+002;0.000000e+000
4.917798e+002;0.000000e+000
4.937083e+002;0.000000e+000
4.956368e+002;0.000000e+000
4.975654e+002;0.000000e+000
4.994939e+002;0.000000e+000
5.014225e+002;0.000000e+000
5.033510e+002;0.000000e+000
5.052796e+002;0.000000e+000
5.072081e+002;0.000000e+000
5.091367e+002;0.000000e+000
5.110652e+002;0.000000e+000
5.129938e+002;0.000000e+000
5.149223e+002;0.000000e+000
5.168509e+002;0.000000e+000
5.187794e+002;0.000000e+000
5.207079e+002;0.000000e+000
5.226365e+002;0.000000e+000
5.245651e+002;0.000000e+000
5.264936e+002;0.000000e+000
5.284222e+002;0.000000e+000
5.303507e+002;0.000000e+000
5.322792e+002;0.000000e+000
5.342078e+002;0.000000e+000
5.361364e+002;0.000000e+000
5.380649e+002;0.000000e+000
5.399935e+002;0.000000e+000
5.419220e+002;0.000000e+000
5.438505e+002;0.000000e+000
5.457791e+002;0.000000e+000
5.477076e+002;0.000000e+000
5.496362e+002;0.000000e+000
5.515648e+002;0.000000e+000
5.534933e+002;0.000000e+000
5.554218e+002;0.000000e+000
5.573504e+002;0.000000e+000
5.592789e+002;0.000000e+000
5.612075e+002;0.000000e+000
5.631360e+002;0.000000e+000
5.650646e+002;0.000000e+000
5.669931e+002;0.000000e+000
5.689217e+002;0.000000e+000
5.708502e+002;0.000000e+000
5.727787e+002;0.000000e+000
5.747073e+002;0.000000e+000
5.766359e+002;0.000000e+000
5.785644e+002;0.000000e+000
5.804930e+002;0.000000e+000
5.824215e+002;0.000000e+000
5.843500e+002;0.000000e+000
5.862786e+002;0.000000e+000
5.882072e+002;0.000000e+000
5.901357e+002;0.000000e+000
5.920643e+002;0.000000e+000
5.939928e+002;0.000000e+000
5.959213e+002;0.000000e+000
5.978499e+002;0.000000e+000
5.997784e+002;6.407294e-002
6.017070e+002;6.609575e-002
6.036355e+002;6.548163e-002
6.055641e+002;6.700071e-002
6.074926e+002;6.747027e-002
6.094211e+002;7.002968e-002
6.113497e+002;7.109714e-002
6.132783e+002;7.122236e-002
6.152068e+002;7.263395e-002
6.171354e+002;7.062703e-002
6.190639e+002;6.929006e-002
6.209924e+002;7.242787e-002
6.229210e+002;7.615570e-002
6.248495e+002;7.389567e-002
6.267781e+002;6.942631e-002
6.287067e+002;7.084634e-002
6.306352e+002;7.151345e-002
6.325637e+002;6.809981e-002
6.344923e+002;7.009790e-002
6.364208e+002;7.026953e-002
6.383494e+002;7.029489e-002
6.402780e+002;7.078164e-002
6.422065e+002;7.066255e-002
6.441350e+002;7.376159e-002
6.460636e+002;7.607784e-002
6.479921e+002;7.254983e-002
6.499207e+002;7.154740e-002
6.518492e+002;7.208911e-002
6.537778e+002;7.128081e-002
6.557063e+002;7.078456e-002
6.576349e+002;7.059437e-002
6.595634e+002;7.039183e-002
6.614919e+002;6.981149e-002
6.634205e+002;7.153795e-002
6.653491e+002;7.233506e-002
6.672776e+002;7.239053e-002
6.692062e+002;7.251345e-002
6.711347e+002;7.185947e-002
6.730632e+002;7.253706e-002
6.749918e+002;7.361279e-002
6.769203e+002;7.457669e-002
6.788489e+002;7.581950e-002
6.807775e+002;7.610082e-002
6.827060e+002;7.573405e-002
6.846345e+002;7.536396e-002
6.865631e+002;7.346028e-002
6.884916e+002;7.180670e-002
6.904202e+002;7.178868e-002
6.923488e+002;7.331174e-002
6.942773e+002;7.336062e-002
6.962058e+002;7.228693e-002
6.981344e+002;7.224493e-002
7.000629e+002;7.261692e-002
7.019915e+002;7.233036e-002
7.039200e+002;7.242928e-002
7.058486e+002;7.288810e-002
7.077771e+002;7.195918e-002
7.097057e+002;7.163402e-002
7.116342e+002;7.240955e-002
7.135627e+002;7.169671e-002
7.154913e+002;7.039350e-002
7.174199e+002;7.031725e-002
7.193484e+002;7.166971e-002
7.212770e+002;7.218867e-002
7.232055e+002;7.212036e-002
7.251340e+002;7.237194e-002
7.270626e+002;7.316584e-002
7.289911e+002;7.377499e-002
7.309197e+002;7.408638e-002
7.328483e+002;7.389037e-002
7.347768e+002;7.358999e-002
7.367053e+002;7.390286e-002
7.386339e+002;7.477545e-002
7.405624e+002;7.639350e-002
7.424910e+002;7.710445e-002
7.444196e+002;7.706223e-002
7.463481e+002;7.830896e-002
7.482766e+002;7.977368e-002
7.502052e+002;8.054518e-002
7.521337e+002;8.064224e-002
7.540623e+002;8.006869e-002
7.559908e+002;7.941712e-002
7.579194e+002;7.942977e-002
7.598479e+002;7.956820e-002
7.617765e+002;7.925539e-002
7.637050e+002;7.893435e-002
7.656335e+002;7.899512e-002
7.675621e+002;7.924525e-002
7.694907e+002;7.925539e-002
7.714192e+002;7.924832e-002
7.733478e+002;7.861859e-002
7.752763e+002;7.790694e-002
7.772048e+002;7.780503e-002
7.791334e+002;7.731383e-002
7.810620e+002;7.660337e-002
7.829905e+002;7.648753e-002
7.849191e+002;7.652868e-002
7.868476e+002;7.623566e-002
7.887761e+002;7.511159e-002
7.907047e+002;7.396666e-002
7.926332e+002;7.376584e-002
7.945618e+002;7.408583e-002
7.964903e+002;7.431562e-002
7.984189e+002;7.442757e-002
8.003474e+002;7.397695e-002
8.022759e+002;7.291286e-002
8.042045e+002;7.210487e-002
8.061331e+002;7.212012e-002
8.080616e+002;7.212721e-002
8.099902e+002;7.125090e-002
8.119187e+002;7.030124e-002
8.138472e+002;7.014272e-002
8.157758e+002;7.079221e-002
8.177043e+002;7.104938e-002
8.196329e+002;7.102920e-002
8.215615e+002;7.143416e-002
8.234900e+002;7.147118e-002
8.254185e+002;7.123864e-002
8.273471e+002;7.187046e-002
8.292756e+002;7.312874e-002
8.312042e+002;7.387603e-002
8.331328e+002;7.381971e-002
8.350613e+002;7.425810e-002
8.369898e+002;7.412139e-002
8.389184e+002;7.290643e-002
8.408469e+002;7.194135e-002
8.427755e+002;7.098912e-002
8.447040e+002;6.958336e-002
8.466326e+002;6.863762e-002
8.485611e+002;6.757568e-002
8.504897e+002;6.616393e-002
8.524182e+002;6.561361e-002
8.543467e+002;6.508865e-002
8.562753e+002;6.413853e-002
8.582039e+002;6.371284e-002
8.601324e+002;6.293804e-002
8.620610e+002;6.250182e-002
8.639895e+002;6.274068e-002
8.659180e+002;6.311925e-002
8.678466e+002;6.345917e-002
8.697751e+002;6.366353e-002
8.717037e+002;6.418420e-002
8.736323e+002;6.480140e-002
8.755608e+002;6.442484e-002
8.774893e+002;6.383618e-002
8.794179e+002;6.347571e-002
8.813464e+002;6.361719e-002
8.832750e+002;6.371975e-002
8.852036e+002;6.360868e-002
8.871321e+002;6.351068e-002
8.890606e+002;6.322885e-002
8.909892e+002;6.337374e-002
8.929177e+002;6.327875e-002
8.948463e+002;6.274099e-002
8.967748e+002;6.210560e-002
8.987034e+002;6.209623e-002
9.006319e+002;6.274118e-002
9.025605e+002;6.333077e-002
9.044890e+002;6.372692e-002
9.064175e+002;6.428923e-002
9.083461e+002;6.422880e-002
9.102747e+002;6.387475e-002
9.122032e+002;6.379288e-002
9.141318e+002;6.375908e-002
9.160603e+002;6.386838e-002
9.179888e+002;6.425438e-002
9.199174e+002;6.447549e-002
9.218459e+002;6.447176e-002
9.237745e+002;6.447426e-002
9.257031e+002;6.447376e-002
9.276316e+002;6.456240e-002
9.295601e+002;6.501187e-002
9.314887e+002;6.515193e-002
9.334172e+002;6.480490e-002
9.353458e+002;6.532332e-002
9.372744e+002;6.581744e-002
9.392029e+002;6.624508e-002
9.411314e+002;6.683512e-002
9.430600e+002;6.711552e-002
9.449885e+002;6.740917e-002
9.469171e+002;6.784822e-002
9.488456e+002;6.837082e-002
9.507742e+002;6.907908e-002
9.527027e+002;6.961989e-002
9.546313e+002;6.980226e-002
9.565598e+002;6.993408e-002
9.584883e+002;7.012734e-002
9.604169e+002;7.010093e-002
9.623455e+002;7.026342e-002
9.642740e+002;7.056365e-002
9.662026e+002;7.068521e-002
9.681311e+002;7.064813e-002
9.700596e+002;7.010674e-002
9.719882e+002;6.959702e-002
9.739167e+002;6.980651e-002
9.758453e+002;6.976312e-002
9.777739e+002;6.953390e-002
9.797024e+002;6.982592e-002
9.816309e+002;6.988936e-002
9.835595e+002;7.032855e-002
9.854880e+002;7.082435e-002
9.874166e+002;7.080890e-002
9.893452e+002;7.117146e-002
9.912737e+002;7.168752e-002
9.932022e+002;7.231718e-002
9.951307e+002;7.307409e-002
9.970593e+002;7.358339e-002
9.989879e+002;7.381264e-002
1.000916e+003;7.417740e-002
1.002845e+003;7.480469e-002
1.004773e+003;7.541075e-002
1.006702e+003;7.610899e-002
1.008631e+003;7.695818e-002
1.010559e+003;7.768483e-002
1.012488e+003;7.858074e-002
1.014416e+003;7.943454e-002
1.016345e+003;8.090574e-002
1.018273e+003;8.221775e-002
1.020202e+003;8.332542e-002
1.022130e+003;8.431239e-002
1.024059e+003;8.561036e-002
1.025988e+003;8.723652e-002
1.027916e+003;8.866741e-002
1.029845e+003;9.113141e-002
1.031773e+003;9.446334e-002
1.033702e+003;9.807063e-002
1.035630e+003;1.012008e-001
1.037559e+003;1.027202e-001
1.039487e+003;1.026042e-001
1.041416e+003;1.012777e-001
1.043344e+003;9.987330e-002
1.045273e+003;9.947710e-002
1.047202e+003;9.985236e-002
1.049130e+003;1.000265e-001
1.051059e+003;1.001858e-001
1.052987e+003;1.012694e-001
1.054916e+003;1.027474e-001
1.056844e+003;1.040395e-001
1.058773e+003;1.055180e-001
1.060701e+003;1.077286e-001
1.062630e+003;1.095118e-001
1.064558e+003;1.107881e-001
1.066487e+003;1.111483e-001
1.068416e+003;1.112664e-001
1.070344e+003;1.116160e-001
1.072273e+003;1.109036e-001
1.074201e+003;1.096845e-001
1.076130e+003;1.085294e-001
1.078058e+003;1.068814e-001
1.079987e+003;1.052204e-001
1.081915e+003;1.038603e-001
1.083844e+003;1.026358e-001
1.085773e+003;1.012660e-001
1.087701e+003;9.925164e-002
1.089630e+003;9.751949e-002
1.091558e+003;9.664597e-002
1.093487e+003;9.587882e-002
1.095415e+003;9.473587e-002
1.097344e+003;9.360442e-002
1.099272e+003;9.309561e-002
1.101201e+003;9.283396e-002
1.103129e+003;9.209726e-002
1.105058e+003;9.124251e-002
1.106987e+003;9.082548e-002
1.108915e+003;8.997151e-002
1.110844e+003;8.895221e-002
1.112772e+003;8.759363e-002
1.114701e+003;8.639078e-002
1.116629e+003;8.536548e-002
1.118558e+003;8.430237e-002
1.120486e+003;8.313518e-002
1.122415e+003;8.186769e-002
1.124344e+003;8.036003e-002
1.126272e+003;7.830463e-002
1.128201e+003;7.640717e-002
1.130129e+003;7.488311e-002
1.132058e+003;7.387757e-002
1.133986e+003;7.375205e-002
1.135915e+003;7.395990e-002
1.137843e+003;7.438023e-002
1.139772e+003;7.568876e-002
1.141700e+003;7.742561e-002
1.143629e+003;7.880812e-002
1.145557e+003;8.077575e-002
1.147486e+003;8.334561e-002
1.149415e+003;8.610647e-002
1.151343e+003;8.925776e-002
1.153272e+003;9.326660e-002
1.155200e+003;9.796039e-002
1.157129e+003;1.022508e-001
1.159057e+003;1.060840e-001
1.160986e+003;1.098733e-001
1.162914e+003;1.135364e-001
1.164843e+003;1.162057e-001
1.166771e+003;1.176075e-001
1.168700e+003;1.181121e-001
1.170629e+003;1.180048e-001
1.172557e+003;1.170420e-001
1.174486e+003;1.151939e-001
1.176414e+003;1.132891e-001
1.178343e+003;1.112380e-001
1.180271e+003;1.092316e-001
1.182200e+003;1.078081e-001
1.184128e+003;1.069495e-001
1.186057e+003;1.072573e-001
1.187986e+003;1.080046e-001
1.189914e+003;1.084705e-001
1.191843e+003;1.094121e-001
1.193771e+003;1.104519e-001
1.195700e+003;1.111288e-001
1.197628e+003;1.116809e-001
1.199557e+003;1.118237e-001
1.201485e+003;1.115985e-001
1.203414e+003;1.112777e-001
1.205343e+003;1.105568e-001
1.207271e+003;1.100219e-001
1.209200e+003;1.099814e-001
1.211128e+003;1.097854e-001
1.213057e+003;1.090420e-001
1.214985e+003;1.086702e-001
1.216914e+003;1.084774e-001
1.218842e+003;1.082347e-001
1.220771e+003;1.084615e-001
1.222699e+003;1.085274e-001
1.224628e+003;1.085797e-001
1.226557e+003;1.086040e-001
1.228485e+003;1.086145e-001
1.230414e+003;1.086217e-001
1.232342e+003;1.083312e-001
1.234271e+003;1.079236e-001
1.236199e+003;1.073641e-001
1.238128e+003;1.067787e-001
1.240056e+003;1.063073e-001
1.241985e+003;1.062223e-001
1.243913e+003;1.063510e-001
1.245842e+003;1.064816e-001
1.247771e+003;1.065129e-001
1.249699e+003;1.060491e-001
1.251628e+003;1.055471e-001
1.253556e+003;1.051449e-001
1.255485e+003;1.046304e-001
1.257413e+003;1.041380e-001
1.259342e+003;1.039358e-001
1.261270e+003;1.037442e-001
1.263199e+003;1.029413e-001
1.265127e+003;1.024529e-001
1.267056e+003;1.019758e-001
1.268985e+003;1.012530e-001
1.270913e+003;1.005216e-001
1.272842e+003;9.948985e-002
1.274770e+003;9.863387e-002
1.276699e+003;9.785594e-002
1.278627e+003;9.655347e-002
1.280556e+003;9.518290e-002
1.282484e+003;9.396648e-002
1.284413e+003;9.266269e-002
1.286342e+003;9.138145e-002
1.288270e+003;9.024315e-002
1.290199e+003;8.935385e-002
1.292127e+003;8.861401e-002
1.294056e+003;8.791965e-002
1.295984e+003;8.734111e-002
1.297913e+003;8.703549e-002
1.299841e+003;8.699513e-002
1.301770e+003;8.693170e-002
1.303698e+003;8.666714e-002
1.305627e+003;8.637388e-002
1.307556e+003;8.598711e-002
1.309484e+003;8.592875e-002
1.311413e+003;8.599409e-002
1.313341e+003;8.609693e-002
1.315270e+003;8.597168e-002
1.317198e+003;8.599748e-002
1.319127e+003;8.636535e-002
1.321055e+003;8.638375e-002
1.322984e+003;8.626220e-002
1.324912e+003;8.608579e-002
1.326841e+003;8.602342e-002
1.328770e+003;8.645170e-002
1.330698e+003;8.688281e-002
1.332627e+003;8.737462e-002
1.334555e+003;8.809664e-002
1.336484e+003;8.863778e-002
1.338412e+003;8.933415e-002
1.340341e+003;9.027590e-002
1.342269e+003;9.113791e-002
1.344198e+003;9.181865e-002
1.346126e+003;9.250940e-002
1.348055e+003;9.328594e-002
1.349984e+003;9.384095e-002
1.351912e+003;9.418041e-002
1.353841e+003;9.448196e-002
1.355769e+003;9.470735e-002
1.357698e+003;9.460817e-002
1.359626e+003;9.391778e-002
1.361555e+003;9.342635e-002
1.363483e+003;9.329810e-002
1.365412e+003;9.312964e-002
1.367341e+003;9.240470e-002
1.369269e+003;9.139805e-002
1.371198e+003;9.053438e-002
1.373126e+003;8.974885e-002
1.375055e+003;8.890378e-002
1.376983e+003;8.809823e-002
1.378912e+003;8.744115e-002
1.380840e+003;8.679292e-002
1.382769e+003;8.602988e-002
1.384698e+003;8.498359e-002
1.386626e+003;8.392020e-002
1.388555e+003;8.274210e-002
1.390483e+003;8.124562e-002
1.392412e+003;7.947222e-002
1.394340e+003;7.722223e-002
1.396269e+003;7.521130e-002
1.398197e+003;7.371608e-002
1.400126e+003;7.253437e-002
1.402054e+003;7.182003e-002
1.403983e+003;7.140729e-002
1.405911e+003;7.130575e-002
1.407840e+003;7.132278e-002
1.409769e+003;7.149048e-002
1.411697e+003;7.217935e-002
1.413626e+003;7.294324e-002
1.415554e+003;7.351486e-002
1.417483e+003;7.425075e-002
1.419411e+003;7.586385e-002
1.421340e+003;7.823627e-002
1.423268e+003;8.104915e-002
1.425197e+003;8.457708e-002
1.427125e+003;8.917613e-002
1.429054e+003;9.433103e-002
1.430983e+003;9.977969e-002
1.432911e+003;1.048890e-001
1.434840e+003;1.093779e-001
1.436768e+003;1.137785e-001
1.438697e+003;1.183350e-001
1.440625e+003;1.230102e-001
1.442554e+003;1.279520e-001
1.444482e+003;1.327710e-001
1.446411e+003;1.370023e-001
1.448340e+003;1.403822e-001
1.450268e+003;1.419752e-001
1.452197e+003;1.412909e-001
1.454125e+003;1.380559e-001
1.456054e+003;1.316483e-001
1.457982e+003;1.230118e-001
1.459911e+003;1.139659e-001
1.461839e+003;1.051340e-001
1.463768e+003;9.681717e-002
1.465697e+003;9.000885e-002
1.467625e+003;8.487513e-002
1.469554e+003;8.076449e-002
1.471482e+003;7.719852e-002
1.473411e+003;7.416176e-002
1.475339e+003;7.134464e-002
1.477268e+003;6.898811e-002
1.479196e+003;6.767475e-002
1.481125e+003;6.670467e-002
1.483053e+003;6.617546e-002
1.484982e+003;6.601269e-002
1.486911e+003;6.559958e-002
1.488839e+003;6.494372e-002
1.490768e+003;6.433994e-002
1.492696e+003;6.382719e-002
1.494625e+003;6.344345e-002
1.496553e+003;6.337374e-002
1.498482e+003;6.352173e-002
1.500410e+003;6.359675e-002
1.502339e+003;6.352663e-002
1.504267e+003;6.345028e-002
1.506196e+003;6.350573e-002
1.508125e+003;6.397349e-002
1.510053e+003;6.456929e-002
1.511982e+003;6.507803e-002
1.513910e+003;6.543040e-002
1.515839e+003;6.560004e-002
1.517767e+003;6.571666e-002
1.519696e+003;6.551026e-002
1.521624e+003;6.527121e-002
1.523553e+003;6.550609e-002
1.525481e+003;6.577164e-002
1.527410e+003;6.598781e-002
1.529339e+003;6.611859e-002
1.531267e+003;6.624343e-002
1.533196e+003;6.643640e-002
1.535124e+003;6.677850e-002
1.537053e+003;6.666762e-002
1.538981e+003;6.629942e-002
1.540910e+003;6.635528e-002
1.542838e+003;6.674230e-002
1.544767e+003;6.696623e-002
1.546695e+003;6.677406e-002
1.548624e+003;6.634574e-002
1.550553e+003;6.601138e-002
1.552481e+003;6.548040e-002
1.554410e+003;6.489135e-002
1.556338e+003;6.427859e-002
1.558267e+003;6.325813e-002
1.560195e+003;6.274815e-002
1.562124e+003;6.270171e-002
1.564052e+003;6.217591e-002
1.565981e+003;6.121775e-002
1.567910e+003;6.024899e-002
1.569838e+003;5.965258e-002
1.571767e+003;5.959537e-002
1.573695e+003;5.936750e-002
1.575624e+003;5.888275e-002
1.577552e+003;5.887762e-002
1.579481e+003;5.911556e-002
1.581409e+003;5.907475e-002
1.583338e+003;5.882010e-002
1.585266e+003;5.903300e-002
1.587195e+003;5.918729e-002
1.589124e+003;5.896870e-002
1.591052e+003;5.876722e-002
1.592981e+003;5.880754e-002
1.594909e+003;5.927687e-002
1.596838e+003;5.990520e-002
1.598766e+003;6.061201e-002
1.600695e+003;6.129402e-002
1.602623e+003;6.185184e-002
1.604552e+003;6.258884e-002
1.606480e+003;6.353511e-002
1.608409e+003;6.448710e-002
1.610338e+003;6.520002e-002
1.612266e+003;6.573355e-002
1.614195e+003;6.621382e-002
1.616123e+003;6.675030e-002
1.618052e+003;6.751563e-002
1.619980e+003;6.832161e-002
1.621909e+003;6.926037e-002
1.623837e+003;7.064497e-002
1.625766e+003;7.208605e-002
1.627694e+003;7.365448e-002
1.629623e+003;7.494741e-002
1.631552e+003;7.623337e-002
1.633480e+003;7.740945e-002
1.635409e+003;7.829992e-002
1.637337e+003;7.927360e-002
1.639266e+003;8.017197e-002
1.641194e+003;8.087540e-002
1.643123e+003;8.156879e-002
1.645051e+003;8.226556e-002
1.646980e+003;8.287044e-002
1.648909e+003;8.302975e-002
1.650837e+003;8.275056e-002
1.652766e+003;8.250805e-002
1.654694e+003;8.268742e-002
1.656623e+003;8.263288e-002
1.658551e+003;8.213867e-002
1.660480e+003;8.148111e-002
1.662408e+003;8.118666e-002
1.664337e+003;8.102715e-002
1.666266e+003;8.031666e-002
1.668194e+003;7.956127e-002
1.670123e+003;7.910601e-002
1.672051e+003;7.837392e-002
1.673980e+003;7.726046e-002
1.675908e+003;7.618871e-002
1.677837e+003;7.549889e-002
1.679765e+003;7.467372e-002
1.681694e+003;7.343972e-002
1.683622e+003;7.255398e-002
1.685551e+003;7.238540e-002
1.687479e+003;7.196035e-002
1.689408e+003;7.113563e-002
1.691337e+003;7.060029e-002
1.693265e+003;6.992431e-002
1.695194e+003;6.917737e-002
1.697122e+003;6.888151e-002
1.699051e+003;6.881128e-002
1.700979e+003;6.933430e-002
1.702908e+003;7.072954e-002
1.704836e+003;7.217337e-002
1.706765e+003;7.428130e-002
1.708693e+003;7.726407e-002
1.710622e+003;8.079075e-002
1.712551e+003;8.493383e-002
1.714479e+003;8.956910e-002
1.716408e+003;9.463248e-002
1.718336e+003;1.003736e-001
1.720265e+003;1.064465e-001
1.722193e+003;1.120877e-001
1.724122e+003;1.169579e-001
1.726050e+003;1.212176e-001
1.727979e+003;1.240567e-001
1.729908e+003;1.249541e-001
1.731836e+003;1.238079e-001
1.733765e+003;1.209545e-001
1.735693e+003;1.170936e-001
1.737622e+003;1.122381e-001
1.739550e+003;1.062176e-001
1.741479e+003;9.941649e-002
1.743407e+003;9.243926e-002
1.745336e+003;8.615144e-002
1.747265e+003;8.024745e-002
1.749193e+003;7.447673e-002
1.751122e+003;6.923150e-002
1.753050e+003;6.465272e-002
1.754979e+003;6.034564e-002
1.756907e+003;5.654140e-002
1.758836e+003;5.330828e-002
1.760764e+003;5.041886e-002
1.762693e+003;4.786887e-002
1.764621e+003;4.587351e-002
1.766550e+003;4.448631e-002
1.768479e+003;4.335117e-002
1.770407e+003;4.197140e-002
1.772336e+003;4.074711e-002
1.774264e+003;4.013741e-002
1.776193e+003;3.984343e-002
1.778121e+003;3.944647e-002
1.780050e+003;3.893491e-002
1.781978e+003;3.814216e-002
1.783907e+003;3.765297e-002
1.785835e+003;3.750253e-002
1.787764e+003;3.718596e-002
1.789693e+003;3.683886e-002
1.791621e+003;3.647931e-002
1.793550e+003;3.619662e-002
1.795478e+003;3.586764e-002
1.797407e+003;3.553500e-002
1.799335e+003;3.523765e-002
1.801264e+003;3.487077e-002
1.803192e+003;3.477707e-002
1.805121e+003;3.473303e-002
1.807049e+003;3.444734e-002
1.808978e+003;3.408597e-002
1.810907e+003;3.375372e-002
1.812835e+003;3.341307e-002
1.814764e+003;3.336648e-002
1.816692e+003;3.332837e-002
1.818621e+003;3.309471e-002
1.820549e+003;3.295313e-002
1.822478e+003;3.285162e-002
1.824406e+003;3.271077e-002
1.826335e+003;3.253203e-002
1.828264e+003;3.237411e-002
1.830192e+003;3.244073e-002
1.832121e+003;3.253192e-002
1.834049e+003;3.227716e-002
1.835978e+003;3.199252e-002
1.837906e+003;3.193071e-002
1.839835e+003;3.198867e-002
1.841763e+003;3.183557e-002
1.843692e+003;3.154498e-002
1.845620e+003;3.150725e-002
1.847549e+003;3.170203e-002
1.849478e+003;3.173511e-002
1.851406e+003;3.140206e-002
1.853335e+003;3.115106e-002
1.855263e+003;3.112468e-002
1.857192e+003;3.123803e-002
1.859120e+003;3.122796e-002
1.861049e+003;3.115458e-002
1.862977e+003;3.094005e-002
1.864906e+003;3.065742e-002
1.866834e+003;3.059647e-002
1.868763e+003;3.077285e-002
1.870692e+003;3.094023e-002
1.872620e+003;3.064173e-002
1.874549e+003;3.035532e-002
1.876477e+003;3.060120e-002
1.878406e+003;3.083645e-002
1.880334e+003;3.087971e-002
1.882263e+003;3.079501e-002
1.884191e+003;3.076549e-002
1.886120e+003;3.069248e-002
1.888048e+003;3.052676e-002
1.889977e+003;3.045279e-002
1.891906e+003;3.048880e-002
1.893834e+003;3.048112e-002
1.895763e+003;3.053799e-002
1.897691e+003;3.062460e-002
1.899620e+003;3.084666e-002
1.901548e+003;3.099349e-002
1.903477e+003;3.074582e-002
1.905405e+003;3.037131e-002
1.907334e+003;3.016018e-002
1.909262e+003;3.004295e-002
1.911191e+003;3.017893e-002
1.913120e+003;3.028365e-002
1.915048e+003;3.015812e-002
1.916977e+003;2.992793e-002
1.918905e+003;2.994085e-002
1.920834e+003;3.002520e-002
1.922762e+003;3.017229e-002
1.924691e+003;3.036431e-002
1.926619e+003;3.026941e-002
1.928548e+003;3.035809e-002
1.930477e+003;3.029374e-002
1.932405e+003;3.006958e-002
1.934334e+003;3.008358e-002
1.936262e+003;2.993921e-002
1.938191e+003;2.989363e-002
1.940119e+003;2.988462e-002
1.942048e+003;2.959597e-002
1.943976e+003;2.938954e-002
1.945905e+003;2.948943e-002
1.947833e+003;2.959977e-002
1.949762e+003;2.957575e-002
1.951691e+003;2.963414e-002
1.953619e+003;2.974955e-002
1.955548e+003;2.990961e-002
1.957476e+003;3.003255e-002
1.959405e+003;2.974330e-002
1.961333e+003;2.949805e-002
1.963262e+003;2.956146e-002
1.965190e+003;2.976271e-002
1.967119e+003;2.991894e-002
1.969047e+003;2.976463e-002
1.970976e+003;2.990762e-002
1.972905e+003;3.038062e-002
1.974833e+003;3.074059e-002
1.976762e+003;3.098712e-002
1.978690e+003;3.090667e-002
1.980619e+003;3.063455e-002
1.982547e+003;3.083129e-002
1.984476e+003;3.123536e-002
1.986404e+003;3.112407e-002
1.988333e+003;3.094617e-002
1.990261e+003;3.114177e-002
1.992190e+003;3.133799e-002
1.994119e+003;3.135497e-002
1.996047e+003;3.132627e-002
1.997976e+003;3.126919e-002
1.999904e+003;3.126435e-002
2.001833e+003;3.132256e-002
2.003761e+003;3.145414e-002
2.005690e+003;3.157053e-002
2.007618e+003;3.163086e-002
2.009547e+003;3.160955e-002
2.011476e+003;3.153608e-002
2.013404e+003;3.155788e-002
2.015333e+003;3.162277e-002
2.017261e+003;3.143558e-002
2.019190e+003;3.140552e-002
2.021118e+003;3.154395e-002
2.023047e+003;3.160182e-002
2.024975e+003;3.149332e-002
2.026904e+003;3.149090e-002
2.028833e+003;3.180028e-002
2.030761e+003;3.204862e-002
2.032690e+003;3.186435e-002
2.034618e+003;3.175882e-002
2.036547e+003;3.163054e-002
2.038475e+003;3.149650e-002
2.040404e+003;3.126021e-002
2.042332e+003;3.120748e-002
2.044261e+003;3.135202e-002
2.046189e+003;3.141631e-002
2.048118e+003;3.130351e-002
2.050047e+003;3.106463e-002
2.051975e+003;3.103207e-002
2.053904e+003;3.124081e-002
2.055832e+003;3.140648e-002
2.057761e+003;3.155489e-002
2.059689e+003;3.165613e-002
2.061618e+003;3.151110e-002
2.063546e+003;3.144926e-002
2.065475e+003;3.138268e-002
2.067404e+003;3.135879e-002
2.069332e+003;3.160096e-002
2.071260e+003;3.152058e-002
2.073189e+003;3.123062e-002
2.075118e+003;3.107463e-002
2.077046e+003;3.105634e-002
2.078975e+003;3.099335e-002
2.080903e+003;3.094595e-002
2.082832e+003;3.109311e-002
2.084760e+003;3.110012e-002
2.086689e+003;3.117057e-002
2.088617e+003;3.116540e-002
2.090546e+003;3.117405e-002
2.092475e+003;3.119873e-002
2.094403e+003;3.121467e-002
2.096332e+003;3.126082e-002
2.098260e+003;3.114287e-002
2.100189e+003;3.097951e-002
2.102117e+003;3.094627e-002
2.104046e+003;3.099321e-002
2.105974e+003;3.106791e-002
2.107903e+003;3.090333e-002
2.109832e+003;3.064650e-002
2.111760e+003;3.072370e-002
2.113688e+003;3.084577e-002
2.115617e+003;3.089785e-002
2.117546e+003;3.103524e-002
2.119474e+003;3.105196e-002
2.121403e+003;3.100175e-002
2.123331e+003;3.103538e-002
2.125260e+003;3.094549e-002
2.127188e+003;3.067217e-002
2.129117e+003;3.059274e-002
2.131045e+003;3.048386e-002
2.132974e+003;3.027914e-002
2.134903e+003;3.044018e-002
2.136831e+003;3.053600e-002
2.138760e+003;3.036004e-002
2.140688e+003;3.029911e-002
2.142617e+003;3.019907e-002
2.144545e+003;2.990364e-002
2.146474e+003;2.976112e-002
2.148402e+003;2.989779e-002
2.150331e+003;3.001991e-002
2.152260e+003;3.010201e-002
2.154188e+003;3.011493e-002
2.156117e+003;3.021332e-002
2.158045e+003;3.030934e-002
2.159974e+003;3.023957e-002
2.161902e+003;3.038090e-002
2.163831e+003;3.058936e-002
2.165759e+003;3.069372e-002
2.167688e+003;3.066083e-002
2.169616e+003;3.055584e-002
2.171545e+003;3.079195e-002
2.173474e+003;3.109286e-002
2.175402e+003;3.116676e-002
2.177331e+003;3.146251e-002
2.179259e+003;3.187975e-002
2.181188e+003;3.245755e-002
2.183116e+003;3.328612e-002
2.185045e+003;3.422114e-002
2.186973e+003;3.522187e-002
2.188902e+003;3.594128e-002
2.190831e+003;3.612153e-002
2.192759e+003;3.605705e-002
2.194688e+003;3.607577e-002
2.196616e+003;3.605381e-002
2.198545e+003;3.564753e-002
2.200473e+003;3.509534e-002
2.202402e+003;3.477646e-002
2.204330e+003;3.472219e-002
2.206259e+003;3.492858e-002
2.208188e+003;3.498773e-002
2.210116e+003;3.521958e-002
2.212044e+003;3.574926e-002
2.213973e+003;3.616089e-002
2.215902e+003;3.665885e-002
2.217830e+003;3.745471e-002
2.219759e+003;3.867437e-002
2.221687e+003;3.987669e-002
2.223616e+003;4.119156e-002
2.225544e+003;4.365665e-002
2.227473e+003;4.786081e-002
2.229401e+003;5.381472e-002
2.231330e+003;6.157150e-002
2.233259e+003;7.091254e-002
2.235187e+003;8.070137e-002
2.237116e+003;9.010417e-002
2.239044e+003;9.776704e-002
2.240973e+003;1.018189e-001
2.242901e+003;1.019055e-001
2.244830e+003;9.845353e-002
2.246758e+003;9.259071e-002
2.248687e+003;8.546225e-002
2.250615e+003;7.834404e-002
2.252544e+003;7.198679e-002
2.254473e+003;6.630217e-002
2.256401e+003;6.122820e-002
2.258330e+003;5.687629e-002
2.260258e+003;5.276989e-002
2.262187e+003;4.906004e-002
2.264115e+003;4.622335e-002
2.266044e+003;4.400519e-002
2.267972e+003;4.210733e-002
2.269901e+003;4.075301e-002
2.271830e+003;3.998850e-002
2.273758e+003;3.931550e-002
2.275687e+003;3.868039e-002
2.277615e+003;3.814248e-002
2.279544e+003;3.780744e-002
2.281472e+003;3.738356e-002
2.283401e+003;3.699881e-002
2.285329e+003;3.662878e-002
2.287258e+003;3.656181e-002
2.289187e+003;3.648806e-002
2.291115e+003;3.631577e-002
2.293043e+003;3.614220e-002
2.294972e+003;3.597648e-002
2.296901e+003;3.595067e-002
2.298829e+003;3.600506e-002
2.300758e+003;3.584396e-002
2.302686e+003;3.562041e-002
2.304615e+003;3.547772e-002
2.306543e+003;3.528681e-002
2.308472e+003;3.515936e-002
2.310400e+003;3.501876e-002
2.312329e+003;3.500651e-002
2.314258e+003;3.496233e-002
2.316186e+003;3.495447e-002
2.318115e+003;3.478823e-002
2.320043e+003;3.461456e-002
2.321972e+003;3.441664e-002
2.323900e+003;3.424770e-002
2.325829e+003;3.430980e-002
2.327757e+003;3.452127e-002
2.329686e+003;3.467549e-002
2.331615e+003;3.438443e-002
2.333543e+003;3.412966e-002
2.335472e+003;3.404178e-002
2.337400e+003;3.401942e-002
2.339329e+003;3.427090e-002
2.341257e+003;3.429991e-002
2.343186e+003;3.426033e-002
2.345114e+003;3.448066e-002
2.347043e+003;3.488872e-002
2.348971e+003;3.508998e-002
2.350900e+003;3.481968e-002
2.352829e+003;3.430862e-002
2.354757e+003;3.408711e-002
2.356686e+003;3.413722e-002
2.358614e+003;3.421791e-002
2.360543e+003;3.423426e-002
2.362471e+003;3.404336e-002
2.364400e+003;3.385010e-002
2.366328e+003;3.407532e-002
2.368257e+003;3.436578e-002
2.370186e+003;3.451087e-002
2.372114e+003;3.471738e-002
2.374042e+003;3.497803e-002
2.375971e+003;3.520197e-002
2.377900e+003;3.532002e-002
2.379828e+003;3.524150e-002
2.381757e+003;3.498263e-002
2.383685e+003;3.494039e-002
2.385614e+003;3.513478e-002
2.387542e+003;3.534069e-002
2.389471e+003;3.539288e-002
2.391399e+003;3.524433e-002
2.393328e+003;3.509785e-002
2.395257e+003;3.522486e-002
2.397185e+003;3.526561e-002
2.399114e+003;3.521498e-002
2.401042e+003;3.506408e-002
2.402971e+003;3.504361e-002
2.404899e+003;3.517085e-002
2.406828e+003;3.538501e-002
2.408756e+003;3.558265e-002
2.410685e+003;3.578143e-002
2.412614e+003;3.600099e-002
2.414542e+003;3.592764e-002
2.416471e+003;3.580273e-002
2.418399e+003;3.567357e-002
2.420328e+003;3.541247e-002
2.422256e+003;3.568264e-002
2.424185e+003;3.584674e-002
2.426113e+003;3.565714e-002
2.428042e+003;3.565858e-002
2.429970e+003;3.561527e-002
2.431899e+003;3.552558e-002
2.433828e+003;3.560574e-002
2.435756e+003;3.571573e-002
2.437685e+003;3.590356e-002
2.439613e+003;3.597036e-002
2.441542e+003;3.582795e-002
2.443470e+003;3.560207e-002
2.445399e+003;3.548621e-002
2.447327e+003;3.535445e-002
2.449256e+003;3.529889e-002
2.451185e+003;3.559117e-002
2.453113e+003;3.577902e-002
2.455042e+003;3.583151e-002
2.456970e+003;3.578852e-002
2.458899e+003;3.576884e-002
2.460827e+003;3.594948e-002
2.462756e+003;3.630741e-002
2.464684e+003;3.654187e-002
2.466613e+003;3.663249e-002
2.468542e+003;3.661177e-002
2.470470e+003;3.666923e-002
2.472398e+003;3.687150e-002
2.474327e+003;3.716355e-002
2.476256e+003;3.725997e-002
2.478184e+003;3.707336e-002
2.480113e+003;3.703438e-002
2.482041e+003;3.726304e-002
2.483970e+003;3.749534e-002
2.485898e+003;3.754581e-002
2.487827e+003;3.768983e-002
2.489755e+003;3.807444e-002
2.491684e+003;3.843951e-002
2.493613e+003;3.849476e-002
2.495541e+003;3.838239e-002
2.497470e+003;3.829929e-002
2.499398e+003;3.843104e-002
2.501327e+003;3.864384e-002
2.503255e+003;3.849468e-002
2.505184e+003;3.824548e-002
2.507112e+003;3.822909e-002
2.509041e+003;3.855504e-002
2.510969e+003;3.901668e-002
2.512898e+003;3.919252e-002
2.514827e+003;3.890443e-002
2.516755e+003;3.883953e-002
2.518684e+003;3.897267e-002
2.520612e+003;3.893280e-002
2.522541e+003;3.878181e-002
2.524469e+003;3.879935e-002
2.526398e+003;3.891882e-002
2.528326e+003;3.889461e-002
2.530255e+003;3.877131e-002
2.532184e+003;3.867549e-002
2.534112e+003;3.891172e-002
2.536041e+003;3.904002e-002
2.537969e+003;3.921787e-002
2.539898e+003;3.941415e-002
2.541826e+003;3.910158e-002
2.543755e+003;3.873537e-002
2.545683e+003;3.876884e-002
2.547612e+003;3.889504e-002
2.549541e+003;3.901748e-002
2.551469e+003;3.896539e-002
2.553397e+003;3.875602e-002
2.555326e+003;3.864735e-002
2.557255e+003;3.860103e-002
2.559183e+003;3.841457e-002
2.561112e+003;3.846312e-002
2.563040e+003;3.849588e-002
2.564969e+003;3.837747e-002
2.566897e+003;3.815999e-002
2.568826e+003;3.812381e-002
2.570754e+003;3.805791e-002
2.572683e+003;3.779938e-002
2.574612e+003;3.759924e-002
2.576540e+003;3.757439e-002
2.578469e+003;3.758006e-002
2.580397e+003;3.753143e-002
2.582326e+003;3.753107e-002
2.584254e+003;3.779461e-002
2.586183e+003;3.779042e-002
2.588111e+003;3.743084e-002
2.590040e+003;3.722282e-002
2.591969e+003;3.743405e-002
2.593897e+003;3.756282e-002
2.595826e+003;3.733766e-002
2.597754e+003;3.720528e-002
2.599683e+003;3.729903e-002
2.601611e+003;3.753270e-002
2.603540e+003;3.770743e-002
2.605468e+003;3.774704e-002
2.607397e+003;3.775745e-002
2.609325e+003;3.802897e-002
2.611254e+003;3.800908e-002
2.613183e+003;3.767563e-002
2.615111e+003;3.762139e-002
2.617040e+003;3.785643e-002
2.618968e+003;3.808518e-002
2.620897e+003;3.809600e-002
2.622825e+003;3.815883e-002
2.624754e+003;3.845837e-002
2.626682e+003;3.851275e-002
2.628611e+003;3.845808e-002
2.630540e+003;3.853053e-002
2.632468e+003;3.842271e-002
2.634396e+003;3.829057e-002
2.636325e+003;3.841805e-002
2.638254e+003;3.854813e-002
2.640182e+003;3.861823e-002
2.642111e+003;3.869288e-002
2.644039e+003;3.864971e-002
2.645968e+003;3.845624e-002
2.647896e+003;3.826180e-002
2.649825e+003;3.826842e-002
2.651753e+003;3.836936e-002
2.653682e+003;3.846015e-002
2.655611e+003;3.846612e-002
2.657539e+003;3.840241e-002
2.659468e+003;3.835691e-002
2.661396e+003;3.840346e-002
2.663325e+003;3.848480e-002
2.665253e+003;3.861715e-002
2.667182e+003;3.866883e-002
2.669110e+003;3.870041e-002
2.671039e+003;3.899413e-002
2.672968e+003;3.914886e-002
2.674896e+003;3.897173e-002
2.676825e+003;3.891617e-002
2.678753e+003;3.902911e-002
2.680682e+003;3.918665e-002
2.682610e+003;3.916039e-002
2.684539e+003;3.892074e-002
2.686467e+003;3.884710e-002
2.688396e+003;3.886431e-002
2.690324e+003;3.874845e-002
2.692253e+003;3.865249e-002
2.694182e+003;3.876037e-002
2.696110e+003;3.875743e-002
2.698039e+003;3.854107e-002
2.699967e+003;3.823260e-002
2.701896e+003;3.849617e-002
2.703824e+003;3.890356e-002
2.705753e+003;3.883015e-002
2.707681e+003;3.882355e-002
2.709610e+003;3.887504e-002
2.711539e+003;3.883304e-002
2.713467e+003;3.875218e-002
2.715396e+003;3.862794e-002
2.717324e+003;3.872852e-002
2.719253e+003;3.897934e-002
2.721181e+003;3.876584e-002
2.723110e+003;3.860741e-002
2.725038e+003;3.834956e-002
2.726967e+003;3.798106e-002
2.728896e+003;3.809784e-002
2.730824e+003;3.821603e-002
2.732752e+003;3.815055e-002
2.734681e+003;3.825960e-002
2.736610e+003;3.857996e-002
2.738538e+003;3.846851e-002
2.740467e+003;3.804398e-002
2.742395e+003;3.784804e-002
2.744324e+003;3.785700e-002
2.746252e+003;3.769973e-002
2.748181e+003;3.763299e-002
2.750109e+003;3.783838e-002
2.752038e+003;3.789721e-002
2.753967e+003;3.786807e-002
2.755895e+003;3.808779e-002
2.757824e+003;3.822269e-002
2.759752e+003;3.812443e-002
2.761681e+003;3.815612e-002
2.763609e+003;3.839625e-002
2.765538e+003;3.834815e-002
2.767466e+003;3.856935e-002
2.769395e+003;3.893447e-002
2.771323e+003;3.896357e-002
2.773252e+003;3.921805e-002
2.775181e+003;3.953777e-002
2.777109e+003;3.957349e-002
2.779038e+003;3.974316e-002
2.780966e+003;3.997121e-002
2.782895e+003;4.028549e-002
2.784823e+003;4.046399e-002
2.786752e+003;4.061739e-002
2.788680e+003;4.108268e-002
2.790609e+003;4.167402e-002
2.792538e+003;4.208185e-002
2.794466e+003;4.222435e-002
2.796395e+003;4.226270e-002
2.798323e+003;4.271849e-002
2.800252e+003;4.307981e-002
2.802180e+003;4.298713e-002
2.804109e+003;4.307476e-002
2.806037e+003;4.369656e-002
2.807966e+003;4.417972e-002
2.809895e+003;4.432185e-002
2.811823e+003;4.456942e-002
2.813751e+003;4.473100e-002
2.815680e+003;4.479645e-002
2.817609e+003;4.460889e-002
2.819537e+003;4.456366e-002
2.821466e+003;4.508848e-002
2.823394e+003;4.560944e-002
2.825323e+003;4.552690e-002
2.827251e+003;4.548407e-002
2.829180e+003;4.597421e-002
2.831108e+003;4.667296e-002
2.833037e+003;4.716724e-002
2.834966e+003;4.788929e-002
2.836894e+003;4.911035e-002
2.838823e+003;5.070430e-002
2.840751e+003;5.262987e-002
2.842680e+003;5.501556e-002
2.844608e+003;5.774978e-002
2.846537e+003;6.108146e-002
2.848465e+003;6.517545e-002
2.850394e+003;6.800633e-002
2.852323e+003;6.869812e-002
2.854251e+003;6.802408e-002
2.856180e+003;6.673716e-002
2.858108e+003;6.568043e-002
2.860037e+003;6.538845e-002
2.861965e+003;6.538524e-002
2.863894e+003;6.539800e-002
2.865822e+003;6.513827e-002
2.867751e+003;6.471971e-002
2.869679e+003;6.456263e-002
2.871608e+003;6.453688e-002
2.873536e+003;6.473025e-002
2.875465e+003;6.478375e-002
2.877394e+003;6.445270e-002
2.879322e+003;6.395590e-002
2.881251e+003;6.385709e-002
2.883179e+003;6.420194e-002
2.885108e+003;6.420087e-002
2.887036e+003;6.427870e-002
2.888965e+003;6.491108e-002
2.890893e+003;6.549138e-002
2.892822e+003;6.625199e-002
2.894750e+003;6.717066e-002
2.896679e+003;6.813210e-002
2.898608e+003;6.909664e-002
2.900536e+003;6.994214e-002
2.902465e+003;7.089639e-002
2.904393e+003;7.266885e-002
2.906322e+003;7.490925e-002
2.908250e+003;7.675747e-002
2.910179e+003;7.845104e-002
2.912107e+003;8.065277e-002
2.914036e+003;8.351745e-002
2.915965e+003;8.697659e-002
2.917893e+003;9.015910e-002
2.919822e+003;9.192866e-002
2.921750e+003;9.262402e-002
2.923679e+003;9.229720e-002
2.925607e+003;9.119570e-002
2.927536e+003;9.053124e-002
2.929464e+003;8.967785e-002
2.931393e+003;8.867367e-002
2.933322e+003;8.819970e-002
2.935250e+003;8.718746e-002
2.937178e+003;8.587920e-002
2.939107e+003;8.462729e-002
2.941036e+003;8.328014e-002
2.942964e+003;8.222611e-002
2.944893e+003;8.120959e-002
2.946821e+003;7.999965e-002
2.948750e+003;7.898363e-002
2.950678e+003;7.833015e-002
2.952607e+003;7.732179e-002
2.954535e+003;7.624676e-002
2.956464e+003;7.521449e-002
2.958393e+003;7.391850e-002
2.960321e+003;7.255994e-002
2.962250e+003;7.158741e-002
2.964178e+003;7.088668e-002
2.966107e+003;6.981577e-002
2.968035e+003;6.863556e-002
2.969964e+003;6.783807e-002
2.971892e+003;6.688861e-002
2.973821e+003;6.591569e-002
2.975750e+003;6.541637e-002
2.977678e+003;6.501887e-002
2.979607e+003;6.436319e-002
2.981535e+003;6.377036e-002
2.983464e+003;6.334783e-002
2.985392e+003;6.263959e-002
2.987321e+003;6.196728e-002
2.989249e+003;6.145144e-002
2.991178e+003;6.119158e-002
2.993106e+003;6.092787e-002
2.995035e+003;6.058881e-002
2.996964e+003;6.004204e-002
2.998892e+003;5.952089e-002
3.000821e+003;5.913546e-002
3.002749e+003;5.917346e-002
3.004678e+003;5.876039e-002
3.006606e+003;5.787571e-002
3.008535e+003;5.766682e-002
3.010463e+003;5.734592e-002
3.012392e+003;5.689197e-002
3.014321e+003;5.644309e-002
3.016249e+003;5.569414e-002
3.018177e+003;5.501959e-002
3.020106e+003;5.469093e-002
3.022035e+003;5.448560e-002
3.023963e+003;5.429809e-002
3.025892e+003;5.413397e-002
3.027820e+003;5.380962e-002
3.029749e+003;5.353682e-002
3.031677e+003;5.358825e-002
3.033606e+003;5.346168e-002
3.035534e+003;5.300922e-002
3.037463e+003;5.249378e-002
3.039392e+003;5.227423e-002
3.041320e+003;5.228522e-002
3.043249e+003;5.228433e-002
3.045177e+003;5.209556e-002
3.047106e+003;5.175418e-002
3.049034e+003;5.164173e-002
3.050963e+003;5.147412e-002
3.052891e+003;5.114676e-002
3.054820e+003;5.061267e-002
3.056749e+003;5.057418e-002
3.058677e+003;5.077365e-002
3.060606e+003;5.054849e-002
3.062534e+003;5.016760e-002
3.064463e+003;4.984568e-002
3.066391e+003;4.938661e-002
3.068320e+003;4.919012e-002
3.070248e+003;4.930317e-002
3.072177e+003;4.900288e-002
3.074105e+003;4.850299e-002
3.076034e+003;4.827960e-002
3.077963e+003;4.806758e-002
3.079891e+003;4.785518e-002
3.081820e+003;4.742076e-002
3.083748e+003;4.739046e-002
3.085677e+003;4.756421e-002
3.087605e+003;4.744227e-002
3.089534e+003;4.721744e-002
3.091462e+003;4.707668e-002
3.093391e+003;4.692062e-002
3.095320e+003;4.639026e-002
3.097248e+003;4.617013e-002
3.099177e+003;4.599697e-002
3.101105e+003;4.581795e-002
3.103034e+003;4.579365e-002
3.104962e+003;4.569476e-002
3.106891e+003;4.507370e-002
3.108819e+003;4.495499e-002
3.110748e+003;4.520689e-002
3.112677e+003;4.493831e-002
3.114605e+003;4.469978e-002
3.116533e+003;4.474716e-002
3.118462e+003;4.445683e-002
3.120391e+003;4.424920e-002
3.122319e+003;4.446832e-002
3.124248e+003;4.474359e-002
3.126176e+003;4.465483e-002
3.128105e+003;4.448039e-002
3.130033e+003;4.425672e-002
3.131962e+003;4.437491e-002
3.133890e+003;4.429341e-002
3.135819e+003;4.416549e-002
3.137748e+003;4.434511e-002
3.139676e+003;4.423834e-002
3.141605e+003;4.398278e-002
3.143533e+003;4.395961e-002
3.145462e+003;4.399374e-002
3.147390e+003;4.433062e-002
3.149319e+003;4.460526e-002
3.151247e+003;4.418984e-002
3.153176e+003;4.371242e-002
3.155104e+003;4.382786e-002
3.157033e+003;4.463001e-002
3.158962e+003;4.463125e-002
3.160890e+003;4.420129e-002
3.162819e+003;4.463188e-002
3.164747e+003;4.501078e-002
3.166676e+003;4.484671e-002
3.168604e+003;4.472659e-002
3.170533e+003;4.499611e-002
3.172461e+003;4.506510e-002
3.174390e+003;4.488675e-002
3.176319e+003;4.461223e-002
3.178247e+003;4.455121e-002
3.180176e+003;4.522285e-002
3.182104e+003;4.572830e-002
3.184033e+003;4.561051e-002
3.185961e+003;4.525485e-002
3.187890e+003;4.536930e-002
3.189818e+003;4.571449e-002
3.191747e+003;4.569631e-002
3.193676e+003;4.539810e-002
3.195604e+003;4.530247e-002
3.197532e+003;4.552017e-002
3.199461e+003;4.558066e-002
3.201390e+003;4.595538e-002
3.203318e+003;4.659888e-002
3.205247e+003;4.665853e-002
3.207175e+003;4.625269e-002
3.209104e+003;4.631443e-002
3.211032e+003;4.669420e-002
3.212961e+003;4.708776e-002
3.214889e+003;4.716395e-002
3.216818e+003;4.728770e-002
3.218747e+003;4.740395e-002
3.220675e+003;4.732243e-002
3.222604e+003;4.736969e-002
3.224532e+003;4.747476e-002
3.226461e+003;4.771729e-002
3.228389e+003;4.742383e-002
3.230318e+003;4.721049e-002
3.232246e+003;4.761967e-002
3.234175e+003;4.797081e-002
3.236104e+003;4.818785e-002
3.238032e+003;4.850284e-002
3.239961e+003;4.852229e-002
3.241889e+003;4.805100e-002
3.243818e+003;4.776789e-002
3.245746e+003;4.768923e-002
3.247675e+003;4.799997e-002
3.249603e+003;4.880067e-002
3.251532e+003;4.894435e-002
3.253460e+003;4.849721e-002
3.255389e+003;4.829745e-002
3.257318e+003;4.876396e-002
3.259246e+003;4.919803e-002
3.261175e+003;4.912267e-002
3.263103e+003;4.894751e-002
3.265032e+003;4.902380e-002
3.266960e+003;4.860381e-002
3.268889e+003;4.841552e-002
3.270817e+003;4.892169e-002
3.272746e+003;4.896505e-002
3.274675e+003;4.881557e-002
3.276603e+003;4.911339e-002
3.278531e+003;4.933977e-002
3.280460e+003;4.927073e-002
3.282389e+003;4.880385e-002
3.284317e+003;4.843000e-002
3.286246e+003;4.857442e-002
3.288174e+003;4.852559e-002
3.290103e+003;4.837696e-002
3.292031e+003;4.876066e-002
3.293960e+003;4.906635e-002
3.295888e+003;4.892466e-002
3.297817e+003;4.882573e-002
3.299746e+003;4.867319e-002
3.301674e+003;4.860099e-002
3.303603e+003;4.841663e-002
3.305531e+003;4.806695e-002
3.307460e+003;4.823772e-002
3.309388e+003;4.866952e-002
3.311317e+003;4.852940e-002
3.313245e+003;4.795685e-002
3.315174e+003;4.758277e-002
3.317103e+003;4.780865e-002
3.319031e+003;4.758089e-002
3.320960e+003;4.694029e-002
3.322888e+003;4.711771e-002
3.324817e+003;4.766108e-002
3.326745e+003;4.738769e-002
3.328674e+003;4.698636e-002
3.330602e+003;4.689086e-002
3.332531e+003;4.673549e-002
3.334459e+003;4.644693e-002
3.336388e+003;4.607720e-002
3.338317e+003;4.619092e-002
3.340245e+003;4.661747e-002
3.342174e+003;4.660293e-002
3.344102e+003;4.663381e-002
3.346031e+003;4.637275e-002
3.347959e+003;4.621015e-002
3.349888e+003;4.581622e-002
3.351816e+003;4.519759e-002
3.353745e+003;4.531339e-002
3.355674e+003;4.550990e-002
3.357602e+003;4.537537e-002
3.359531e+003;4.513557e-002
3.361459e+003;4.498806e-002
3.363388e+003;4.502022e-002
3.365316e+003;4.478496e-002
3.367245e+003;4.415646e-002
3.369173e+003;4.392951e-002
3.371102e+003;4.365614e-002
3.373031e+003;4.327205e-002
3.374959e+003;4.322967e-002
3.376887e+003;4.324057e-002
3.378816e+003;4.286632e-002
3.380745e+003;4.228015e-002
3.382673e+003;4.232128e-002
3.384602e+003;4.224034e-002
3.386530e+003;4.185149e-002
3.388459e+003;4.137108e-002
3.390387e+003;4.092358e-002
3.392316e+003;4.085460e-002
3.394244e+003;4.136970e-002
3.396173e+003;4.144304e-002
3.398102e+003;4.119276e-002
3.400030e+003;4.108788e-002
3.401959e+003;4.093574e-002
3.403887e+003;4.091826e-002
3.405816e+003;4.055696e-002
3.407744e+003;4.025063e-002
3.409673e+003;4.034352e-002
3.411601e+003;4.053768e-002
3.413530e+003;4.084386e-002
3.415458e+003;4.084342e-002
3.417387e+003;4.086213e-002
3.419316e+003;4.094809e-002
3.421244e+003;4.082951e-002
3.423173e+003;4.071400e-002
3.425101e+003;4.059727e-002
3.427030e+003;4.070002e-002
3.428958e+003;4.061717e-002
3.430887e+003;3.979734e-002
3.432815e+003;3.949528e-002
3.434744e+003;4.027171e-002
3.436673e+003;4.062994e-002
3.438601e+003;4.052372e-002
3.440530e+003;4.023572e-002
3.442458e+003;3.998999e-002
3.444387e+003;3.983405e-002
3.446315e+003;3.995017e-002
3.448244e+003;3.987549e-002
3.450172e+003;3.961192e-002
3.452101e+003;3.966663e-002
3.454030e+003;3.999133e-002
3.455958e+003;3.976397e-002
3.457886e+003;3.912580e-002
3.459815e+003;3.896695e-002
3.461744e+003;3.902454e-002
3.463672e+003;3.860668e-002
3.465601e+003;3.872342e-002
3.467529e+003;3.862609e-002
3.469458e+003;3.800938e-002
3.471386e+003;3.791959e-002
3.473315e+003;3.801990e-002
3.475243e+003;3.793481e-002
3.477172e+003;3.752020e-002
3.479101e+003;3.738028e-002
3.481029e+003;3.744055e-002
3.482958e+003;3.745341e-002
3.484886e+003;3.766562e-002
3.486815e+003;3.775221e-002
3.488743e+003;3.724430e-002
3.490672e+003;3.691598e-002
3.492600e+003;3.705488e-002
3.494529e+003;3.708931e-002
3.496458e+003;3.689271e-002
3.498386e+003;3.707679e-002
3.500315e+003;3.691068e-002
3.502243e+003;3.682292e-002
3.504172e+003;3.685707e-002
3.506100e+003;3.679262e-002
3.508029e+003;3.701869e-002
3.509957e+003;3.742018e-002
3.511886e+003;3.765120e-002
3.513814e+003;3.717780e-002
3.515743e+003;3.692849e-002
3.517672e+003;3.690912e-002
3.519600e+003;3.702959e-002
3.521529e+003;3.717784e-002
3.523457e+003;3.742766e-002
3.525386e+003;3.772648e-002
3.527314e+003;3.766317e-002
3.529243e+003;3.714778e-002
3.531171e+003;3.696959e-002
3.533100e+003;3.738244e-002
3.535029e+003;3.710562e-002
3.536957e+003;3.674015e-002
3.538885e+003;3.682623e-002
3.540814e+003;3.678750e-002
3.542743e+003;3.634538e-002
3.544671e+003;3.611984e-002
3.546600e+003;3.662352e-002
3.548528e+003;3.667706e-002
3.550457e+003;3.637914e-002
3.552385e+003;3.622341e-002
3.554314e+003;3.617349e-002
3.556242e+003;3.644998e-002
3.558171e+003;3.665672e-002
3.560100e+003;3.657287e-002
3.562028e+003;3.621135e-002
3.563957e+003;3.555935e-002
3.565885e+003;3.484804e-002
3.567814e+003;3.519456e-002
3.569742e+003;3.558650e-002
3.571671e+003;3.499476e-002
3.573599e+003;3.504824e-002
3.575528e+003;3.546014e-002
3.577457e+003;3.498112e-002
3.579385e+003;3.455034e-002
3.581314e+003;3.459999e-002
3.583242e+003;3.461191e-002
3.585171e+003;3.451148e-002
3.587099e+003;3.445746e-002
3.589028e+003;3.510640e-002
3.590956e+003;3.507996e-002
3.592885e+003;3.417772e-002
3.594813e+003;3.441234e-002
3.596742e+003;3.539424e-002
3.598671e+003;3.553249e-002
3.600599e+003;3.514915e-002
3.602528e+003;3.520121e-002
3.604456e+003;3.533623e-002
3.606385e+003;3.520089e-002
3.608313e+003;3.503061e-002
3.610242e+003;3.503086e-002
3.612170e+003;3.500712e-002
3.614099e+003;3.477883e-002
3.616028e+003;3.462134e-002
3.617956e+003;3.526410e-002
3.619885e+003;3.572818e-002
3.621813e+003;3.557262e-002
3.623742e+003;3.535736e-002
3.625670e+003;3.506085e-002
3.627599e+003;3.439107e-002
3.629527e+003;3.407647e-002
3.631456e+003;3.416711e-002
3.633385e+003;3.383624e-002
3.635313e+003;3.347179e-002
3.637241e+003;3.340841e-002
3.639170e+003;3.356428e-002
3.641099e+003;3.364125e-002
3.643027e+003;3.348926e-002
3.644956e+003;3.329067e-002
3.646884e+003;3.263936e-002
3.648813e+003;3.183073e-002
3.650741e+003;3.167352e-002
3.652670e+003;3.159341e-002
3.654598e+003;3.085402e-002
3.656527e+003;3.040009e-002
3.658456e+003;3.031662e-002
3.660384e+003;3.021129e-002
3.662313e+003;2.993392e-002
3.664241e+003;2.950702e-002
3.666170e+003;2.900058e-002
3.668098e+003;2.816768e-002
3.670027e+003;2.773943e-002
3.671955e+003;2.781456e-002
3.673884e+003;2.795606e-002
3.675813e+003;2.801653e-002
3.677741e+003;2.756940e-002
3.679669e+003;2.706849e-002
3.681598e+003;2.671740e-002
3.683527e+003;2.656738e-002
3.685455e+003;2.663368e-002
3.687384e+003;2.605475e-002
3.689312e+003;2.563252e-002
3.691241e+003;2.591988e-002
3.693169e+003;2.593772e-002
3.695098e+003;2.589660e-002
3.697026e+003;2.621240e-002
3.698955e+003;2.615940e-002
3.700884e+003;2.543650e-002
3.702812e+003;2.511221e-002
3.704741e+003;2.573109e-002
3.706669e+003;2.591253e-002
3.708598e+003;2.559101e-002
3.710526e+003;2.552951e-002
3.712455e+003;2.610697e-002
3.714383e+003;2.634750e-002
3.716312e+003;2.572156e-002
3.718240e+003;2.570071e-002
3.720169e+003;2.592270e-002
3.722098e+003;2.559583e-002
3.724026e+003;2.507384e-002
3.725955e+003;2.482201e-002
3.727883e+003;2.522629e-002
3.729812e+003;2.550207e-002
3.731740e+003;2.535040e-002
3.733669e+003;2.528918e-002
3.735597e+003;2.527622e-002
3.737526e+003;2.544522e-002
3.739455e+003;2.539315e-002
3.741383e+003;2.544603e-002
3.743312e+003;2.566837e-002
3.745240e+003;2.577546e-002
3.747169e+003;2.544922e-002
3.749097e+003;2.519985e-002
3.751026e+003;2.531840e-002
3.752954e+003;2.493506e-002
3.754883e+003;2.508413e-002
3.756812e+003;2.552649e-002
3.758740e+003;2.597451e-002
3.760668e+003;2.589590e-002
3.762597e+003;2.529087e-002
3.764526e+003;2.519015e-002
3.766454e+003;2.552505e-002
3.768383e+003;2.569192e-002
3.770311e+003;2.543443e-002
3.772240e+003;2.503976e-002
3.774168e+003;2.558746e-002
3.776097e+003;2.569308e-002
3.778025e+003;2.530934e-002
3.779954e+003;2.524637e-002
3.781883e+003;2.533358e-002
3.783811e+003;2.591812e-002
3.785740e+003;2.622539e-002
3.787668e+003;2.614441e-002
3.789597e+003;2.649987e-002
3.791525e+003;2.649265e-002
3.793454e+003;2.612864e-002
3.795382e+003;2.623038e-002
3.797311e+003;2.609497e-002
3.799240e+003;2.591341e-002
3.801168e+003;2.580569e-002
3.803097e+003;2.582866e-002
3.805025e+003;2.593845e-002
3.806954e+003;2.589565e-002
3.808882e+003;2.610901e-002
3.810811e+003;2.639074e-002
3.812739e+003;2.658436e-002
3.814668e+003;2.623405e-002
3.816596e+003;2.614159e-002
3.818525e+003;2.660148e-002
3.820454e+003;2.650874e-002
3.822382e+003;2.656918e-002
3.824311e+003;2.684917e-002
3.826239e+003;2.660835e-002
3.828168e+003;2.615338e-002
3.830096e+003;2.628927e-002
3.832025e+003;2.677261e-002
3.833953e+003;2.659490e-002
3.835882e+003;2.637686e-002
3.837811e+003;2.653988e-002
3.839739e+003;2.677991e-002
3.841667e+003;2.653530e-002
3.843596e+003;2.649036e-002
3.845525e+003;2.661938e-002
3.847453e+003;2.671895e-002
3.849382e+003;2.647313e-002
3.851310e+003;2.625516e-002
3.853239e+003;2.587325e-002
3.855167e+003;2.604304e-002
3.857096e+003;2.674439e-002
3.859024e+003;2.671666e-002
3.860953e+003;2.646771e-002
3.862882e+003;2.677920e-002
3.864810e+003;2.703351e-002
3.866739e+003;2.713663e-002
3.868667e+003;2.689562e-002
3.870596e+003;2.694952e-002
3.872524e+003;2.686337e-002
3.874453e+003;2.700767e-002
3.876381e+003;2.736037e-002
3.878310e+003;2.730917e-002
3.880239e+003;2.722711e-002
3.882167e+003;2.702681e-002
3.884096e+003;2.646715e-002
3.886024e+003;2.703527e-002
3.887953e+003;2.734456e-002
3.889881e+003;2.709501e-002
3.891810e+003;2.699014e-002
3.893738e+003;2.708591e-002
3.895667e+003;2.727752e-002
3.897595e+003;2.715557e-002
3.899524e+003;2.700178e-002
3.901453e+003;2.699730e-002
3.903381e+003;2.730952e-002
3.905310e+003;2.701771e-002
3.907238e+003;2.663992e-002
3.909167e+003;2.705276e-002
3.911095e+003;2.783862e-002
3.913024e+003;2.786798e-002
3.914952e+003;2.770288e-002
3.916881e+003;2.782343e-002
3.918810e+003;2.771531e-002
3.920738e+003;2.780545e-002
3.922667e+003;2.783456e-002
3.924595e+003;2.764535e-002
3.926524e+003;2.772643e-002
3.928452e+003;2.754059e-002
3.930381e+003;2.763938e-002
3.932309e+003;2.791660e-002
3.934238e+003;2.809747e-002
3.936167e+003;2.819084e-002
3.938095e+003;2.814452e-002
3.940023e+003;2.810267e-002
3.941952e+003;2.818193e-002
3.943881e+003;2.797893e-002
3.945809e+003;2.785752e-002
3.947738e+003;2.823783e-002
3.949666e+003;2.872837e-002
3.951595e+003;2.863266e-002
3.953523e+003;2.847820e-002
3.955452e+003;2.891093e-002
3.957380e+003;2.932130e-002
3.959309e+003;2.930719e-002
3.961238e+003;2.920891e-002
3.963166e+003;2.938905e-002
3.965095e+003;2.929369e-002
3.967023e+003;2.889507e-002
3.968952e+003;2.877319e-002
3.970880e+003;2.893831e-002
3.972809e+003;2.884308e-002
3.974737e+003;2.859111e-002
3.976666e+003;2.864420e-002
3.978594e+003;2.866455e-002
3.980523e+003;2.853120e-002
3.982452e+003;2.890654e-002
3.984380e+003;2.900649e-002
3.986309e+003;2.858959e-002
3.988237e+003;2.852052e-002
3.990166e+003;2.874742e-002
3.992094e+003;2.910289e-002
3.994023e+003;2.938752e-002
3.995951e+003;2.926083e-002
3.997880e+003;2.952159e-002
3.999809e+003;2.980963e-002
4.001737e+003;0.000000e+000
