3.992094e+002;0.000000e+000
4.011380e+002;0.000000e+000
4.030665e+002;0.000000e+000
4.049951e+002;0.000000e+000
4.069236e+002;0.000000e+000
4.088522e+002;0.000000e+000
4.107807e+002;0.000000e+000
4.127093e+002;0.000000e+000
4.146378e+002;0.000000e+000
4.165664e+002;0.000000e+000
4.184949e+002;0.000000e+000
4.204235e+002;0.000000e+000
4.223520e+002;0.000000e+000
4.242806e+002;0.000000e+000
4.262091e+002;0.000000e+000
4.281377e+002;0.000000e+000
4.300662e+002;0.000000e+000
4.319948e+002;0.000000e+000
4.339233e+002;0.000000e+000
4.358519e+002;0.000000e+000
4.377804e+002;0.000000e+000
4.397090e+002;0.000000e+000
4.416375e+002;0.000000e+000
4.435660e+002;0.000000e+000
4.454946e+002;0.000000e+000
4.474232e+002;0.000000e+000
4.493517e+002;0.000000e+000
4.512802e+002;0.000000e+000
4.532088e+002;0.000000e+000
4.551373e+002;0.000000e+000
4.570659e+002;0.000000e+000
4.589944e+002;0.000000e+000
4.609230e+002;0.000000e+000
4.628515e+002;0.000000e+000
4.647801e+002;0.000000e+000
4.667086e+002;0.000000e+000
4.686372e+002;0.000000e+000
4.705657e+002;0.000000e+000
4.724943e+002;0.000000e+000
4.744228e+002;0.000000e+000
4.763513e+002;0.000000e+000
4.782799e+002;0.000000e+000
4.802085e+002;0.000000e+000
4.821370e+002;0.000000e+000
4.840656e+002;0.000000e+000
4.859941e+002;0.000000e+000
4.879226e+002;0.000000e+000
4.898512e+002;0.000000e+000
4.917798e+002;0.000000e+000
4.937083e+002;0.000000e+000
4.956368e+002;0.000000e+000
4.975654e+002;0.000000e+000
4.994939e+002;0.000000e+000
5.014225e+002;0.000000e+000
5.033510e+002;0.000000e+000
5.052796e+002;0.000000e+000
5.072081e+002;0.000000e+000
5.091367e+002;0.000000e+000
5.110652e+002;0.000000e+000
5.129938e+002;0.000000e+000
5.149223e+002;0.000000e+000
5.168509e+002;0.000000e+000
5.187794e+002;0.000000e+000
5.207079e+002;0.000000e+000
5.226365e+002;0.000000e+000
5.245651e+002;0.000000e+000
5.264936e+002;0.000000e+000
5.284222e+002;0.000000e+000
5.303507e+002;0.000000e+000
5.322792e+002;0.000000e+000
5.342078e+002;0.000000e+000
5.361364e+002;0.000000e+000
5.380649e+002;0.000000e+000
5.399935e+002;0.000000e+000
5.419220e+002;0.000000e+000
5.438505e+002;0.000000e+000
5.457791e+002;0.000000e+000
5.477076e+002;0.000000e+000
5.496362e+002;0.000000e+000
5.515648e+002;0.000000e+000
5.534933e+002;0.000000e+000
5.554218e+002;0.000000e+000
5.573504e+002;0.000000e+000
5.592789e+002;0.000000e+000
5.612075e+002;0.000000e+000
5.631360e+002;0.000000e+000
5.650646e+002;0.000000e+000
5.669931e+002;0.000000e+000
5.689217e+002;0.000000e+000
5.708502e+002;0.000000e+000
5.727787e+002;0.000000e+000
5.747073e+002;0.000000e+000
5.766359e+002;0.000000e+000
5.785644e+002;0.000000e+000
5.804930e+002;0.000000e+000
5.824215e+002;0.000000e+000
5.843500e+002;0.000000e+000
5.862786e+002;0.000000e+000
5.882072e+002;0.000000e+000
5.901357e+002;0.000000e+000
5.920643e+002;0.000000e+000
5.939928e+002;0.000000e+000
5.959213e+002;0.000000e+000
5.978499e+002;0.000000e+000
5.997784e+002;4.318355e-002
6.017070e+002;4.335625e-002
6.036355e+002;4.641349e-002
6.055641e+002;4.603237e-002
6.074926e+002;4.020694e-002
6.094211e+002;3.515989e-002
6.113497e+002;2.887736e-002
6.132783e+002;2.798554e-002
6.152068e+002;3.428306e-002
6.171354e+002;3.596568e-002
6.190639e+002;3.544788e-002
6.209924e+002;3.449509e-002
6.229210e+002;3.254832e-002
6.248495e+002;2.980995e-002
6.267781e+002;2.675676e-002
6.287067e+002;2.929159e-002
6.306352e+002;3.248968e-002
6.325637e+002;3.227406e-002
6.344923e+002;3.325704e-002
6.364208e+002;3.110517e-002
6.383494e+002;2.971981e-002
6.402780e+002;3.237043e-002
6.422065e+002;3.180641e-002
6.441350e+002;2.942528e-002
6.460636e+002;3.318168e-002
6.479921e+002;3.361347e-002
6.499207e+002;2.972237e-002
6.518492e+002;2.750571e-002
6.537778e+002;2.669664e-002
6.557063e+002;2.540004e-002
6.576349e+002;2.563118e-002
6.595634e+002;2.866961e-002
6.614919e+002;3.142525e-002
6.634205e+002;2.961225e-002
6.653491e+002;2.747303e-002
6.672776e+002;2.814403e-002
6.692062e+002;2.869782e-002
6.711347e+002;2.835952e-002
6.730632e+002;2.835991e-002
6.749918e+002;2.782947e-002
6.769203e+002;2.816047e-002
6.788489e+002;2.897323e-002
6.807775e+002;2.983979e-002
6.827060e+002;2.989474e-002
6.846345e+002;2.848811e-002
6.865631e+002;2.781870e-002
6.884916e+002;2.656576e-002
6.904202e+002;2.465936e-002
6.923488e+002;2.480731e-002
6.942773e+002;2.420961e-002
6.962058e+002;2.278176e-002
6.981344e+002;2.243135e-002
7.000629e+002;2.339305e-002
7.019915e+002;2.419017e-002
7.039200e+002;2.432090e-002
7.058486e+002;2.410740e-002
7.077771e+002;2.299792e-002
7.097057e+002;2.207833e-002
7.116342e+002;2.268263e-002
7.135627e+002;2.320647e-002
7.154913e+002;2.246610e-002
7.174199e+002;2.238673e-002
7.193484e+002;2.375981e-002
7.212770e+002;2.446733e-002
7.232055e+002;2.380086e-002
7.251340e+002;2.363562e-002
7.270626e+002;2.507879e-002
7.289911e+002;2.652121e-002
7.309197e+002;2.769151e-002
7.328483e+002;2.880042e-002
7.347768e+002;2.924655e-002
7.367053e+002;2.902243e-002
7.386339e+002;2.933636e-002
7.405624e+002;3.114348e-002
7.424910e+002;3.184642e-002
7.444196e+002;3.164690e-002
7.463481e+002;3.256867e-002
7.482766e+002;3.346986e-002
7.502052e+002;3.366860e-002
7.521337e+002;3.432877e-002
7.540623e+002;3.564329e-002
7.559908e+002;3.628428e-002
7.579194e+002;3.604088e-002
7.598479e+002;3.634531e-002
7.617765e+002;3.783575e-002
7.637050e+002;3.884022e-002
7.656335e+002;3.899750e-002
7.675621e+002;3.906674e-002
7.694907e+002;3.887239e-002
7.714192e+002;3.961621e-002
7.733478e+002;4.060269e-002
7.752763e+002;4.015936e-002
7.772048e+002;3.952729e-002
7.791334e+002;3.996521e-002
7.810620e+002;4.088648e-002
7.829905e+002;4.179702e-002
7.849191e+002;4.248122e-002
7.868476e+002;4.320225e-002
7.887761e+002;4.298831e-002
7.907047e+002;4.264388e-002
7.926332e+002;4.290473e-002
7.945618e+002;4.375606e-002
7.964903e+002;4.399789e-002
7.984189e+002;4.314168e-002
8.003474e+002;4.297225e-002
8.022759e+002;4.299950e-002
8.042045e+002;4.333140e-002
8.061331e+002;4.366713e-002
8.080616e+002;4.313656e-002
8.099902e+002;4.237640e-002
8.119187e+002;4.229385e-002
8.138472e+002;4.208845e-002
8.157758e+002;4.113079e-002
8.177043e+002;4.103406e-002
8.196329e+002;4.090006e-002
8.215615e+002;3.953008e-002
8.234900e+002;3.869596e-002
8.254185e+002;3.838380e-002
8.273471e+002;3.756564e-002
8.292756e+002;3.613377e-002
8.312042e+002;3.448938e-002
8.331328e+002;3.350243e-002
8.350613e+002;3.286174e-002
8.369898e+002;3.223534e-002
8.389184e+002;3.139451e-002
8.408469e+002;3.113048e-002
8.427755e+002;3.144202e-002
8.447040e+002;3.135034e-002
8.466326e+002;3.052726e-002
8.485611e+002;3.010840e-002
8.504897e+002;3.046580e-002
8.524182e+002;3.052754e-002
8.543467e+002;3.031630e-002
8.562753e+002;3.016043e-002
8.582039e+002;3.037060e-002
8.601324e+002;3.114031e-002
8.620610e+002;3.183700e-002
8.639895e+002;3.147676e-002
8.659180e+002;3.195817e-002
8.678466e+002;3.269226e-002
8.697751e+002;3.265600e-002
8.717037e+002;3.246054e-002
8.736323e+002;3.290859e-002
8.755608e+002;3.311563e-002
8.774893e+002;3.294048e-002
8.794179e+002;3.274918e-002
8.813464e+002;3.239146e-002
8.832750e+002;3.201042e-002
8.852036e+002;3.212372e-002
8.871321e+002;3.280367e-002
8.890606e+002;3.238003e-002
8.909892e+002;3.160306e-002
8.929177e+002;3.141289e-002
8.948463e+002;3.136975e-002
8.967748e+002;3.149482e-002
8.987034e+002;3.141816e-002
9.006319e+002;3.176506e-002
9.025605e+002;3.222277e-002
9.044890e+002;3.220004e-002
9.064175e+002;3.260539e-002
9.083461e+002;3.279788e-002
9.102747e+002;3.273474e-002
9.122032e+002;3.304994e-002
9.141318e+002;3.337424e-002
9.160603e+002;3.381672e-002
9.179888e+002;3.451693e-002
9.199174e+002;3.545539e-002
9.218459e+002;3.664861e-002
9.237745e+002;3.777694e-002
9.257031e+002;3.880337e-002
9.276316e+002;3.997800e-002
9.295601e+002;4.100984e-002
9.314887e+002;4.223560e-002
9.334172e+002;4.365171e-002
9.353458e+002;4.447408e-002
9.372744e+002;4.546778e-002
9.392029e+002;4.627941e-002
9.411314e+002;4.592069e-002
9.430600e+002;4.538107e-002
9.449885e+002;4.480655e-002
9.469171e+002;4.431554e-002
9.488456e+002;4.396771e-002
9.507742e+002;4.324529e-002
9.527027e+002;4.219506e-002
9.546313e+002;4.146006e-002
9.565598e+002;4.093684e-002
9.584883e+002;4.014526e-002
9.604169e+002;3.935236e-002
9.623455e+002;3.899768e-002
9.642740e+002;3.830374e-002
9.662026e+002;3.780292e-002
9.681311e+002;3.761366e-002
9.700596e+002;3.725726e-002
9.719882e+002;3.698052e-002
9.739167e+002;3.694967e-002
9.758453e+002;3.693560e-002
9.777739e+002;3.679699e-002
9.797024e+002;3.672223e-002
9.816309e+002;3.662550e-002
9.835595e+002;3.682432e-002
9.854880e+002;3.726383e-002
9.874166e+002;3.766262e-002
9.893452e+002;3.807845e-002
9.912737e+002;3.869842e-002
9.932022e+002;3.941770e-002
9.951307e+002;4.025888e-002
9.970593e+002;4.184222e-002
9.989879e+002;4.362632e-002
1.000916e+003;4.512498e-002
1.002845e+003;4.723982e-002
1.004773e+003;4.965641e-002
1.006702e+003;5.269327e-002
1.008631e+003;5.598145e-002
1.010559e+003;5.952640e-002
1.012488e+003;6.333625e-002
1.014416e+003;6.732118e-002
1.016345e+003;7.170609e-002
1.018273e+003;7.596732e-002
1.020202e+003;7.970699e-002
1.022130e+003;8.244991e-002
1.024059e+003;8.425534e-002
1.025988e+003;8.528148e-002
1.027916e+003;8.608207e-002
1.029845e+003;8.692316e-002
1.031773e+003;8.729570e-002
1.033702e+003;8.747523e-002
1.035630e+003;8.816373e-002
1.037559e+003;8.971394e-002
1.039487e+003;9.142610e-002
1.041416e+003;9.169795e-002
1.043344e+003;9.093764e-002
1.045273e+003;9.013985e-002
1.047202e+003;8.984077e-002
1.049130e+003;8.971687e-002
1.051059e+003;8.969699e-002
1.052987e+003;8.987125e-002
1.054916e+003;9.040894e-002
1.056844e+003;9.189250e-002
1.058773e+003;9.371862e-002
1.060701e+003;9.483244e-002
1.062630e+003;9.602623e-002
1.064558e+003;9.772210e-002
1.066487e+003;9.928704e-002
1.068416e+003;1.000646e-001
1.070344e+003;1.004708e-001
1.072273e+003;1.003608e-001
1.074201e+003;9.972799e-002
1.076130e+003;9.864327e-002
1.078058e+003;9.709308e-002
1.079987e+003;9.563358e-002
1.081915e+003;9.422372e-002
1.083844e+003;9.263533e-002
1.085773e+003;9.047831e-002
1.087701e+003;8.790804e-002
1.089630e+003;8.568478e-002
1.091558e+003;8.407632e-002
1.093487e+003;8.274467e-002
1.095415e+003;8.106437e-002
1.097344e+003;7.949179e-002
1.099272e+003;7.807435e-002
1.101201e+003;7.651216e-002
1.103129e+003;7.544133e-002
1.105058e+003;7.399298e-002
1.106987e+003;7.219931e-002
1.108915e+003;7.018704e-002
1.110844e+003;6.786840e-002
1.112772e+003;6.618086e-002
1.114701e+003;6.462719e-002
1.116629e+003;6.270179e-002
1.118558e+003;6.019391e-002
1.120486e+003;5.742779e-002
1.122415e+003;5.438652e-002
1.124344e+003;5.155168e-002
1.126272e+003;4.875855e-002
1.128201e+003;4.590857e-002
1.130129e+003;4.301864e-002
1.132058e+003;3.989794e-002
1.133986e+003;3.719203e-002
1.135915e+003;3.518034e-002
1.137843e+003;3.347147e-002
1.139772e+003;3.220400e-002
1.141700e+003;3.129426e-002
1.143629e+003;3.054290e-002
1.145557e+003;3.020891e-002
1.147486e+003;2.974121e-002
1.149415e+003;2.985821e-002
1.151343e+003;2.980601e-002
1.153272e+003;2.955298e-002
1.155200e+003;3.018064e-002
1.157129e+003;3.085374e-002
1.159057e+003;3.133161e-002
1.160986e+003;3.221660e-002
1.162914e+003;3.366764e-002
1.164843e+003;3.533264e-002
1.166771e+003;3.651358e-002
1.168700e+003;3.829307e-002
1.170629e+003;4.072098e-002
1.172557e+003;4.290370e-002
1.174486e+003;4.538526e-002
1.176414e+003;4.768708e-002
1.178343e+003;4.975650e-002
1.180271e+003;5.137181e-002
1.182200e+003;5.229890e-002
1.184128e+003;5.348982e-002
1.186057e+003;5.484556e-002
1.187986e+003;5.615102e-002
1.189914e+003;5.784630e-002
1.191843e+003;5.993187e-002
1.193771e+003;6.169442e-002
1.195700e+003;6.359732e-002
1.197628e+003;6.562601e-002
1.199557e+003;6.787871e-002
1.201485e+003;7.100899e-002
1.203414e+003;7.411035e-002
1.205343e+003;7.730643e-002
1.207271e+003;8.190755e-002
1.209200e+003;8.708140e-002
1.211128e+003;9.212229e-002
1.213057e+003;9.781826e-002
1.214985e+003;1.044563e-001
1.216914e+003;1.110180e-001
1.218842e+003;1.171482e-001
1.220771e+003;1.230057e-001
1.222699e+003;1.282475e-001
1.224628e+003;1.328462e-001
1.226557e+003;1.367605e-001
1.228485e+003;1.401198e-001
1.230414e+003;1.426399e-001
1.232342e+003;1.438075e-001
1.234271e+003;1.435149e-001
1.236199e+003;1.426285e-001
1.238128e+003;1.410639e-001
1.240056e+003;1.384077e-001
1.241985e+003;1.350452e-001
1.243913e+003;1.308814e-001
1.245842e+003;1.264820e-001
1.247771e+003;1.219119e-001
1.249699e+003;1.171756e-001
1.251628e+003;1.126584e-001
1.253556e+003;1.082147e-001
1.255485e+003;1.033932e-001
1.257413e+003;9.895397e-002
1.259342e+003;9.439082e-002
1.261270e+003;8.943921e-002
1.263199e+003;8.456045e-002
1.265127e+003;7.993802e-002
1.267056e+003;7.526686e-002
1.268985e+003;7.050281e-002
1.270913e+003;6.604895e-002
1.272842e+003;6.255853e-002
1.274770e+003;5.985135e-002
1.276699e+003;5.730750e-002
1.278627e+003;5.495701e-002
1.280556e+003;5.288072e-002
1.282484e+003;5.096873e-002
1.284413e+003;4.967836e-002
1.286342e+003;4.890300e-002
1.288270e+003;4.802424e-002
1.290199e+003;4.699515e-002
1.292127e+003;4.627963e-002
1.294056e+003;4.593929e-002
1.295984e+003;4.541561e-002
1.297913e+003;4.513781e-002
1.299841e+003;4.537319e-002
1.301770e+003;4.562895e-002
1.303698e+003;4.562608e-002
1.305627e+003;4.576662e-002
1.307556e+003;4.593734e-002
1.309484e+003;4.616486e-002
1.311413e+003;4.675343e-002
1.313341e+003;4.700191e-002
1.315270e+003;4.691696e-002
1.317198e+003;4.665447e-002
1.319127e+003;4.650682e-002
1.321055e+003;4.656262e-002
1.322984e+003;4.648650e-002
1.324912e+003;4.645921e-002
1.326841e+003;4.677239e-002
1.328770e+003;4.704681e-002
1.330698e+003;4.757297e-002
1.332627e+003;4.849806e-002
1.334555e+003;4.972963e-002
1.336484e+003;5.119895e-002
1.338412e+003;5.285108e-002
1.340341e+003;5.460999e-002
1.342269e+003;5.655759e-002
1.344198e+003;5.863298e-002
1.346126e+003;6.086741e-002
1.348055e+003;6.331129e-002
1.349984e+003;6.542839e-002
1.351912e+003;6.759167e-002
1.353841e+003;6.985616e-002
1.355769e+003;7.196602e-002
1.357698e+003;7.405762e-002
1.359626e+003;7.621789e-002
1.361555e+003;7.843362e-002
1.363483e+003;8.004311e-002
1.365412e+003;8.101278e-002
1.367341e+003;8.159725e-002
1.369269e+003;8.143655e-002
1.371198e+003;8.073740e-002
1.373126e+003;7.980967e-002
1.375055e+003;7.800817e-002
1.376983e+003;7.513393e-002
1.378912e+003;7.119976e-002
1.380840e+003;6.647570e-002
1.382769e+003;6.087545e-002
1.384698e+003;5.490952e-002
1.386626e+003;4.962394e-002
1.388555e+003;4.499123e-002
1.390483e+003;4.098632e-002
1.392412e+003;3.752699e-002
1.394340e+003;3.433699e-002
1.396269e+003;3.170228e-002
1.398197e+003;2.982301e-002
1.400126e+003;2.852151e-002
1.402054e+003;2.747680e-002
1.403983e+003;2.651670e-002
1.405911e+003;2.606823e-002
1.407840e+003;2.613828e-002
1.409769e+003;2.665862e-002
1.411697e+003;2.774724e-002
1.413626e+003;2.942085e-002
1.415554e+003;3.139629e-002
1.417483e+003;3.374688e-002
1.419411e+003;3.685660e-002
1.421340e+003;4.044268e-002
1.423268e+003;4.432831e-002
1.425197e+003;4.872704e-002
1.427125e+003;5.345058e-002
1.429054e+003;5.844921e-002
1.430983e+003;6.394362e-002
1.432911e+003;7.011382e-002
1.434840e+003;7.675711e-002
1.436768e+003;8.350971e-002
1.438697e+003;9.039106e-002
1.440625e+003;9.711619e-002
1.442554e+003;1.033589e-001
1.444482e+003;1.087486e-001
1.446411e+003;1.128124e-001
1.448340e+003;1.158340e-001
1.450268e+003;1.173467e-001
1.452197e+003;1.164108e-001
1.454125e+003;1.130480e-001
1.456054e+003;1.070607e-001
1.457982e+003;9.859051e-002
1.459911e+003;8.878804e-002
1.461839e+003;7.843338e-002
1.463768e+003;6.806811e-002
1.465697e+003;5.806235e-002
1.467625e+003;4.899884e-002
1.469554e+003;4.153173e-002
1.471482e+003;3.582468e-002
1.473411e+003;3.142286e-002
1.475339e+003;2.776854e-002
1.477268e+003;2.486678e-002
1.479196e+003;2.288691e-002
1.481125e+003;2.149113e-002
1.483053e+003;2.046739e-002
1.484982e+003;1.933833e-002
1.486911e+003;1.813053e-002
1.488839e+003;1.689328e-002
1.490768e+003;1.606882e-002
1.492696e+003;1.527592e-002
1.494625e+003;1.430214e-002
1.496553e+003;1.352237e-002
1.498482e+003;1.309739e-002
1.500410e+003;1.296764e-002
1.502339e+003;1.262629e-002
1.504267e+003;1.189934e-002
1.506196e+003;1.140579e-002
1.508125e+003;1.134409e-002
1.510053e+003;1.137977e-002
1.511982e+003;1.109099e-002
1.513910e+003;1.062386e-002
1.515839e+003;1.039395e-002
1.517767e+003;1.039426e-002
1.519696e+003;1.008676e-002
1.521624e+003;9.551783e-003
1.523553e+003;9.265296e-003
1.525481e+003;9.262892e-003
1.527410e+003;9.324671e-003
1.529339e+003;9.396513e-003
1.531267e+003;9.370611e-003
1.533196e+003;9.155675e-003
1.535124e+003;8.810644e-003
1.537053e+003;8.455210e-003
1.538981e+003;8.238869e-003
1.540910e+003;8.011362e-003
1.542838e+003;7.591635e-003
1.544767e+003;7.551142e-003
1.546695e+003;7.827323e-003
1.548624e+003;7.707473e-003
1.550553e+003;7.589882e-003
1.552481e+003;7.586848e-003
1.554410e+003;7.540825e-003
1.556338e+003;7.563886e-003
1.558267e+003;7.355739e-003
1.560195e+003;7.312470e-003
1.562124e+003;7.562774e-003
1.564052e+003;7.620533e-003
1.565981e+003;7.562807e-003
1.567910e+003;7.673444e-003
1.569838e+003;7.967488e-003
1.571767e+003;8.054869e-003
1.573695e+003;8.256834e-003
1.575624e+003;8.234547e-003
1.577552e+003;8.211517e-003
1.579481e+003;8.362344e-003
1.581409e+003;8.730379e-003
1.583338e+003;9.110500e-003
1.585266e+003;8.918487e-003
1.587195e+003;8.718445e-003
1.589124e+003;9.056704e-003
1.591052e+003;9.448862e-003
1.592981e+003;9.508939e-003
1.594909e+003;9.662182e-003
1.596838e+003;1.013275e-002
1.598766e+003;1.095399e-002
1.600695e+003;1.135556e-002
1.602623e+003;1.171497e-002
1.604552e+003;1.245931e-002
1.606480e+003;1.286654e-002
1.608409e+003;1.314315e-002
1.610338e+003;1.395865e-002
1.612266e+003;1.488625e-002
1.614195e+003;1.521771e-002
1.616123e+003;1.550833e-002
1.618052e+003;1.620108e-002
1.619980e+003;1.669029e-002
1.621909e+003;1.686938e-002
1.623837e+003;1.703540e-002
1.625766e+003;1.749654e-002
1.627694e+003;1.774533e-002
1.629623e+003;1.740800e-002
1.631552e+003;1.714396e-002
1.633480e+003;1.727248e-002
1.635409e+003;1.691120e-002
1.637337e+003;1.649177e-002
1.639266e+003;1.618536e-002
1.641194e+003;1.598139e-002
1.643123e+003;1.551866e-002
1.645051e+003;1.491934e-002
1.646980e+003;1.482896e-002
1.648909e+003;1.469091e-002
1.650837e+003;1.435002e-002
1.652766e+003;1.376038e-002
1.654694e+003;1.367423e-002
1.656623e+003;1.355337e-002
1.658551e+003;1.308277e-002
1.660480e+003;1.298946e-002
1.662408e+003;1.267258e-002
1.664337e+003;1.255112e-002
1.666266e+003;1.297058e-002
1.668194e+003;1.321337e-002
1.670123e+003;1.341922e-002
1.672051e+003;1.394178e-002
1.673980e+003;1.426489e-002
1.675908e+003;1.445784e-002
1.677837e+003;1.522351e-002
1.679765e+003;1.594073e-002
1.681694e+003;1.635054e-002
1.683622e+003;1.657585e-002
1.685551e+003;1.705763e-002
1.687479e+003;1.786433e-002
1.689408e+003;1.848523e-002
1.691337e+003;1.939938e-002
1.693265e+003;2.063810e-002
1.695194e+003;2.162038e-002
1.697122e+003;2.253589e-002
1.699051e+003;2.322734e-002
1.700979e+003;2.425383e-002
1.702908e+003;2.611664e-002
1.704836e+003;2.845549e-002
1.706765e+003;3.113938e-002
1.708693e+003;3.477402e-002
1.710622e+003;3.945242e-002
1.712551e+003;4.467326e-002
1.714479e+003;5.068059e-002
1.716408e+003;5.735991e-002
1.718336e+003;6.467541e-002
1.720265e+003;7.232524e-002
1.722193e+003;8.001136e-002
1.724122e+003;8.747609e-002
1.726050e+003;9.428402e-002
1.727979e+003;1.005283e-001
1.729908e+003;1.059877e-001
1.731836e+003;1.103561e-001
1.733765e+003;1.131827e-001
1.735693e+003;1.146612e-001
1.737622e+003;1.143394e-001
1.739550e+003;1.122082e-001
1.741479e+003;1.085078e-001
1.743407e+003;1.035505e-001
1.745336e+003;9.762418e-002
1.747265e+003;9.071257e-002
1.749193e+003;8.324177e-002
1.751122e+003;7.543188e-002
1.753050e+003;6.731367e-002
1.754979e+003;5.912676e-002
1.756907e+003;5.089049e-002
1.758836e+003;4.335212e-002
1.760764e+003;3.636090e-002
1.762693e+003;3.003685e-002
1.764621e+003;2.493945e-002
1.766550e+003;2.052328e-002
1.768479e+003;1.682976e-002
1.770407e+003;1.419970e-002
1.772336e+003;1.219718e-002
1.774264e+003;1.074615e-002
1.776193e+003;9.619055e-003
1.778121e+003;8.608185e-003
1.780050e+003;7.708418e-003
1.781978e+003;7.009104e-003
1.783907e+003;6.540492e-003
1.785835e+003;6.210438e-003
1.787764e+003;5.842585e-003
1.789693e+003;5.474908e-003
1.791621e+003;5.184357e-003
1.793550e+003;4.933812e-003
1.795478e+003;4.772244e-003
1.797407e+003;4.716771e-003
1.799335e+003;4.398644e-003
1.801264e+003;4.032187e-003
1.803192e+003;3.927823e-003
1.805121e+003;3.923544e-003
1.807049e+003;3.945845e-003
1.808978e+003;3.771777e-003
1.810907e+003;3.466364e-003
1.812835e+003;3.325975e-003
1.814764e+003;3.232162e-003
1.816692e+003;3.255697e-003
1.818621e+003;3.282571e-003
1.820549e+003;3.137202e-003
1.822478e+003;2.736929e-003
1.824406e+003;2.608209e-003
1.826335e+003;3.013134e-003
1.828264e+003;3.006762e-003
1.830192e+003;2.728393e-003
1.832121e+003;2.537414e-003
1.834049e+003;2.486525e-003
1.835978e+003;2.609842e-003
1.837906e+003;2.481893e-003
1.839835e+003;2.135828e-003
1.841763e+003;2.137027e-003
1.843692e+003;2.276533e-003
1.845620e+003;2.415017e-003
1.847549e+003;2.530448e-003
1.849478e+003;2.406787e-003
1.851406e+003;2.307444e-003
1.853335e+003;2.229904e-003
1.855263e+003;2.172524e-003
1.857192e+003;2.222843e-003
1.859120e+003;2.251053e-003
1.861049e+003;2.128636e-003
1.862977e+003;2.070803e-003
1.864906e+003;2.067707e-003
1.866834e+003;1.945941e-003
1.868763e+003;1.846936e-003
1.870692e+003;1.881877e-003
1.872620e+003;1.830233e-003
1.874549e+003;1.670514e-003
1.876477e+003;1.624582e-003
1.878406e+003;1.816291e-003
1.880334e+003;1.860247e-003
1.882263e+003;1.654582e-003
1.884191e+003;1.710795e-003
1.886120e+003;1.746656e-003
1.888048e+003;1.235468e-003
1.889977e+003;9.553767e-004
1.891906e+003;1.103140e-003
1.893834e+003;1.035778e-003
1.895763e+003;7.973069e-004
1.897691e+003;6.274153e-004
1.899620e+003;6.190867e-004
1.901548e+003;7.458578e-004
1.903477e+003;6.018659e-004
1.905405e+003;5.510371e-004
1.907334e+003;5.814939e-004
1.909262e+003;4.846900e-004
1.911191e+003;4.740754e-004
1.913120e+003;5.438048e-004
1.915048e+003;6.041222e-004
1.916977e+003;4.726159e-004
1.918905e+003;4.135771e-004
1.920834e+003;4.001784e-004
1.922762e+003;3.512966e-004
1.924691e+003;3.032160e-004
1.926619e+003;3.068302e-004
1.928548e+003;3.118038e-004
1.930477e+003;1.093437e-005
1.932405e+003;-2.235310e-004
1.934334e+003;-1.064135e-004
1.936262e+003;-1.277461e-004
1.938191e+003;-1.740845e-004
1.940119e+003;-6.394399e-005
1.942048e+003;-1.355633e-004
1.943976e+003;-4.510182e-004
1.945905e+003;-5.668846e-004
1.947833e+003;-4.384402e-004
1.949762e+003;-2.566467e-004
1.951691e+003;-7.013910e-005
1.953619e+003;-1.285411e-004
1.955548e+003;-2.564149e-004
1.957476e+003;-8.826011e-005
1.959405e+003;8.774780e-005
1.961333e+003;-3.763864e-005
1.963262e+003;-1.182724e-004
1.965190e+003;-2.124035e-004
1.967119e+003;-2.163114e-004
1.969047e+003;-7.868621e-005
1.970976e+003;-3.624713e-005
1.972905e+003;-1.314228e-004
1.974833e+003;-9.012365e-006
1.976762e+003;-1.106663e-005
1.978690e+003;-1.881937e-004
1.980619e+003;2.261656e-004
1.982547e+003;7.372946e-004
1.984476e+003;7.945849e-004
1.986404e+003;6.262539e-004
1.988333e+003;5.723368e-004
1.990261e+003;4.885047e-004
1.992190e+003;4.591159e-004
1.994119e+003;6.067103e-004
1.996047e+003;8.000289e-004
1.997976e+003;9.097194e-004
1.999904e+003;6.959414e-004
2.001833e+003;5.386627e-004
2.003761e+003;6.866491e-004
2.005690e+003;7.530935e-004
2.007618e+003;6.751335e-004
2.009547e+003;8.459401e-004
2.011476e+003;1.103771e-003
2.013404e+003;1.277372e-003
2.015333e+003;1.324563e-003
2.017261e+003;1.160844e-003
2.019190e+003;1.081914e-003
2.021118e+003;1.040926e-003
2.023047e+003;1.132539e-003
2.024975e+003;1.459586e-003
2.026904e+003;1.539682e-003
2.028833e+003;1.257931e-003
2.030761e+003;1.354110e-003
2.032690e+003;1.578189e-003
2.034618e+003;1.414873e-003
2.036547e+003;1.193702e-003
2.038475e+003;9.845998e-004
2.040404e+003;8.526795e-004
2.042332e+003;8.965379e-004
2.044261e+003;1.037007e-003
2.046189e+003;1.303659e-003
2.048118e+003;1.332573e-003
2.050047e+003;1.265608e-003
2.051975e+003;1.088624e-003
2.053904e+003;9.627155e-004
2.055832e+003;1.318780e-003
2.057761e+003;1.505400e-003
2.059689e+003;1.133702e-003
2.061618e+003;9.311694e-004
2.063546e+003;8.541403e-004
2.065475e+003;8.378398e-004
2.067404e+003;9.352205e-004
2.069332e+003;1.010936e-003
2.071260e+003;1.107691e-003
2.073189e+003;1.339719e-003
2.075118e+003;1.401243e-003
2.077046e+003;1.223938e-003
2.078975e+003;9.056354e-004
2.080903e+003;7.002226e-004
2.082832e+003;5.820247e-004
2.084760e+003;6.377350e-004
2.086689e+003;6.869810e-004
2.088617e+003;5.695167e-004
2.090546e+003;9.543652e-005
2.092475e+003;-2.143243e-004
2.094403e+003;1.935071e-005
2.096332e+003;3.013592e-004
2.098260e+003;1.463777e-004
2.100189e+003;3.760876e-005
2.102117e+003;1.469080e-004
2.104046e+003;2.275248e-004
2.105974e+003;-8.938644e-005
2.107903e+003;-3.084346e-004
2.109832e+003;2.952343e-005
2.111760e+003;4.458485e-004
2.113688e+003;4.158987e-004
2.115617e+003;8.493085e-005
2.117546e+003;-2.386652e-004
2.119474e+003;-1.188024e-004
2.121403e+003;5.235494e-005
2.123331e+003;-3.137680e-005
2.125260e+003;-4.943317e-005
2.127188e+003;1.106155e-004
2.129117e+003;1.720660e-004
2.131045e+003;2.283867e-004
2.132974e+003;3.707956e-004
2.134903e+003;3.072281e-004
2.136831e+003;1.442233e-004
2.138760e+003;1.920211e-004
2.140688e+003;5.546993e-005
2.142617e+003;-1.852460e-004
2.144545e+003;-2.768461e-004
2.146474e+003;-1.826627e-004
2.148402e+003;1.797231e-004
2.150331e+003;4.662805e-004
2.152260e+003;2.982425e-004
2.154188e+003;7.343124e-005
2.156117e+003;2.220548e-004
2.158045e+003;4.086355e-004
2.159974e+003;3.223150e-004
2.161902e+003;3.990509e-004
2.163831e+003;6.065775e-004
2.165759e+003;8.440810e-004
2.167688e+003;1.073610e-003
2.169616e+003;9.463445e-004
2.171545e+003;7.434348e-004
2.173474e+003;8.451766e-004
2.175402e+003;1.003496e-003
2.177331e+003;1.307879e-003
2.179259e+003;1.760995e-003
2.181188e+003;2.259113e-003
2.183116e+003;2.731794e-003
2.185045e+003;3.535139e-003
2.186973e+003;4.598949e-003
2.188902e+003;5.552493e-003
2.190831e+003;6.185903e-003
2.192759e+003;6.587452e-003
2.194688e+003;6.575812e-003
2.196616e+003;6.194036e-003
2.198545e+003;5.947342e-003
2.200473e+003;5.807391e-003
2.202402e+003;5.747589e-003
2.204330e+003;5.555312e-003
2.206259e+003;5.391030e-003
2.208188e+003;5.688870e-003
2.210116e+003;6.179652e-003
2.212044e+003;6.533899e-003
2.213973e+003;6.997487e-003
2.215902e+003;7.487458e-003
2.217830e+003;8.048928e-003
2.219759e+003;8.953629e-003
2.221687e+003;1.027085e-002
2.223616e+003;1.194504e-002
2.225544e+003;1.423726e-002
2.227473e+003;1.885911e-002
2.229401e+003;2.702350e-002
2.231330e+003;3.845751e-002
2.233259e+003;5.285516e-002
2.235187e+003;6.838955e-002
2.237116e+003;8.205353e-002
2.239044e+003;9.272483e-002
2.240973e+003;9.968376e-002
2.242901e+003;1.025765e-001
2.244830e+003;1.012181e-001
2.246758e+003;9.656030e-002
2.248687e+003;8.999043e-002
2.250615e+003;8.210168e-002
2.252544e+003;7.360051e-002
2.254473e+003;6.512915e-002
2.256401e+003;5.705702e-002
2.258330e+003;4.898393e-002
2.260258e+003;4.142557e-002
2.262187e+003;3.462299e-002
2.264115e+003;2.889585e-002
2.266044e+003;2.448822e-002
2.267972e+003;2.093184e-002
2.269901e+003;1.811533e-002
2.271830e+003;1.624889e-002
2.273758e+003;1.490672e-002
2.275687e+003;1.344608e-002
2.277615e+003;1.228153e-002
2.279544e+003;1.168447e-002
2.281472e+003;1.116384e-002
2.283401e+003;1.056333e-002
2.285329e+003;1.027332e-002
2.287258e+003;9.987784e-003
2.289187e+003;9.323485e-003
2.291115e+003;8.988706e-003
2.293043e+003;8.896267e-003
2.294972e+003;8.878782e-003
2.296901e+003;8.863835e-003
2.298829e+003;8.861772e-003
2.300758e+003;9.023177e-003
2.302686e+003;9.038942e-003
2.304615e+003;8.769360e-003
2.306543e+003;8.429805e-003
2.308472e+003;8.310126e-003
2.310400e+003;8.414400e-003
2.312329e+003;8.396901e-003
2.314258e+003;8.517144e-003
2.316186e+003;8.518090e-003
2.318115e+003;8.409907e-003
2.320043e+003;8.540832e-003
2.321972e+003;8.574186e-003
2.323900e+003;8.278042e-003
2.325829e+003;8.338025e-003
2.327757e+003;8.481395e-003
2.329686e+003;8.297596e-003
2.331615e+003;7.970153e-003
2.333543e+003;7.913022e-003
2.335472e+003;8.081367e-003
2.337400e+003;8.212699e-003
2.339329e+003;8.166509e-003
2.341257e+003;8.299421e-003
2.343186e+003;8.574321e-003
2.345114e+003;8.436595e-003
2.347043e+003;7.763464e-003
2.348971e+003;7.493392e-003
2.350900e+003;7.970727e-003
2.352829e+003;8.011497e-003
2.354757e+003;7.839637e-003
2.356686e+003;7.963809e-003
2.358614e+003;8.064860e-003
2.360543e+003;8.128662e-003
2.362471e+003;8.114652e-003
2.364400e+003;7.874321e-003
2.366328e+003;7.740426e-003
2.368257e+003;7.920749e-003
2.370186e+003;7.935935e-003
2.372114e+003;7.668284e-003
2.374042e+003;7.704067e-003
2.375971e+003;7.978928e-003
2.377900e+003;8.066311e-003
2.379828e+003;7.936982e-003
2.381757e+003;7.704539e-003
2.383685e+003;7.496931e-003
2.385614e+003;7.731623e-003
2.387542e+003;7.829483e-003
2.389471e+003;7.719278e-003
2.391399e+003;7.679245e-003
2.393328e+003;7.817978e-003
2.395257e+003;7.931582e-003
2.397185e+003;7.860319e-003
2.399114e+003;7.813525e-003
2.401042e+003;7.833092e-003
2.402971e+003;7.668959e-003
2.404899e+003;7.520698e-003
2.406828e+003;7.678199e-003
2.408756e+003;7.636652e-003
2.410685e+003;7.758540e-003
2.412614e+003;7.748488e-003
2.414542e+003;7.617026e-003
2.416471e+003;7.632268e-003
2.418399e+003;7.417987e-003
2.420328e+003;7.345899e-003
2.422256e+003;7.469929e-003
2.424185e+003;7.478323e-003
2.426113e+003;7.639181e-003
2.428042e+003;7.725552e-003
2.429970e+003;7.818046e-003
2.431899e+003;7.847330e-003
2.433828e+003;8.101520e-003
2.435756e+003;8.074750e-003
2.437685e+003;7.767512e-003
2.439613e+003;7.855933e-003
2.441542e+003;8.005422e-003
2.443470e+003;8.100170e-003
2.445399e+003;8.335120e-003
2.447327e+003;8.535189e-003
2.449256e+003;8.507142e-003
2.451185e+003;8.374100e-003
2.453113e+003;8.326102e-003
2.455042e+003;8.157933e-003
2.456970e+003;8.301278e-003
2.458899e+003;8.505790e-003
2.460827e+003;8.345354e-003
2.462756e+003;8.490011e-003
2.464684e+003;8.798572e-003
2.466613e+003;8.964148e-003
2.468542e+003;8.892784e-003
2.470470e+003;8.659526e-003
2.472398e+003;9.242517e-003
2.474327e+003;9.819174e-003
2.476256e+003;9.632844e-003
2.478184e+003;9.386728e-003
2.480113e+003;9.401388e-003
2.482041e+003;9.600627e-003
2.483970e+003;9.631013e-003
2.485898e+003;9.714326e-003
2.487827e+003;1.009524e-002
2.489755e+003;1.035224e-002
2.491684e+003;1.045786e-002
2.493613e+003;1.037590e-002
2.495541e+003;1.041893e-002
2.497470e+003;1.069388e-002
2.499398e+003;1.071779e-002
2.501327e+003;1.050843e-002
2.503255e+003;1.044119e-002
2.505184e+003;1.049917e-002
2.507112e+003;1.095015e-002
2.509041e+003;1.130301e-002
2.510969e+003;1.102611e-002
2.512898e+003;1.075193e-002
2.514827e+003;1.076439e-002
2.516755e+003;1.099076e-002
2.518684e+003;1.107648e-002
2.520612e+003;1.117261e-002
2.522541e+003;1.119182e-002
2.524469e+003;1.097683e-002
2.526398e+003;1.110370e-002
2.528326e+003;1.133491e-002
2.530255e+003;1.117652e-002
2.532184e+003;1.089419e-002
2.534112e+003;1.091298e-002
2.536041e+003;1.114898e-002
2.537969e+003;1.109640e-002
2.539898e+003;1.087153e-002
2.541826e+003;1.082818e-002
2.543755e+003;1.084106e-002
2.545683e+003;1.092814e-002
2.547612e+003;1.095546e-002
2.549541e+003;1.075512e-002
2.551469e+003;1.053817e-002
2.553397e+003;1.036422e-002
2.555326e+003;1.054581e-002
2.557255e+003;1.061032e-002
2.559183e+003;1.034800e-002
2.561112e+003;1.017830e-002
2.563040e+003;1.016779e-002
2.564969e+003;1.013998e-002
2.566897e+003;1.000433e-002
2.568826e+003;9.747533e-003
2.570754e+003;9.578169e-003
2.572683e+003;9.696706e-003
2.574612e+003;9.616345e-003
2.576540e+003;9.386660e-003
2.578469e+003;9.449810e-003
2.580397e+003;9.433657e-003
2.582326e+003;9.353379e-003
2.584254e+003;9.499218e-003
2.586183e+003;9.551038e-003
2.588111e+003;9.315767e-003
2.590040e+003;9.170801e-003
2.591969e+003;9.202715e-003
2.593897e+003;9.155472e-003
2.595826e+003;9.064655e-003
2.597754e+003;8.956031e-003
2.599683e+003;8.824170e-003
2.601611e+003;8.950653e-003
2.603540e+003;9.232193e-003
2.605468e+003;9.160480e-003
2.607397e+003;8.896775e-003
2.609325e+003;8.841448e-003
2.611254e+003;9.064553e-003
2.613183e+003;9.402811e-003
2.615111e+003;9.540199e-003
2.617040e+003;9.253449e-003
2.618968e+003;8.848922e-003
2.620897e+003;8.895253e-003
2.622825e+003;8.950078e-003
2.624754e+003;9.146165e-003
2.626682e+003;9.613771e-003
2.628611e+003;9.705956e-003
2.630540e+003;9.494680e-003
2.632468e+003;9.682680e-003
2.634396e+003;1.001905e-002
2.636325e+003;9.915641e-003
2.638254e+003;9.653509e-003
2.640182e+003;9.723373e-003
2.642111e+003;9.792637e-003
2.644039e+003;9.868083e-003
2.645968e+003;1.019594e-002
2.647896e+003;1.010145e-002
2.649825e+003;9.647513e-003
2.651753e+003;9.734995e-003
2.653682e+003;9.963407e-003
2.655611e+003;9.876489e-003
2.657539e+003;9.855779e-003
2.659468e+003;9.731911e-003
2.661396e+003;9.562858e-003
2.663325e+003;9.620512e-003
2.665253e+003;1.000447e-002
2.667182e+003;9.940353e-003
2.669110e+003;9.968595e-003
2.671039e+003;1.016429e-002
2.672968e+003;1.036327e-002
2.674896e+003;1.053586e-002
2.676825e+003;1.049628e-002
2.678753e+003;1.044425e-002
2.680682e+003;1.046034e-002
2.682610e+003;1.037868e-002
2.684539e+003;1.020988e-002
2.686467e+003;1.013163e-002
2.688396e+003;1.035048e-002
2.690324e+003;1.053831e-002
2.692253e+003;1.048671e-002
2.694182e+003;1.062434e-002
2.696110e+003;1.067558e-002
2.698039e+003;1.052381e-002
2.699967e+003;1.055667e-002
2.701896e+003;1.040020e-002
2.703824e+003;1.014635e-002
2.705753e+003;1.028832e-002
2.707681e+003;1.030667e-002
2.709610e+003;1.021894e-002
2.711539e+003;1.016338e-002
2.713467e+003;1.000748e-002
2.715396e+003;9.988802e-003
2.717324e+003;1.005109e-002
2.719253e+003;1.025446e-002
2.721181e+003;1.038228e-002
2.723110e+003;1.036280e-002
2.725038e+003;1.009205e-002
2.726967e+003;9.799924e-003
2.728896e+003;9.494443e-003
2.730824e+003;9.471889e-003
2.732752e+003;9.694064e-003
2.734681e+003;9.572207e-003
2.736610e+003;9.425260e-003
2.738538e+003;9.136691e-003
2.740467e+003;9.077477e-003
2.742395e+003;9.405620e-003
2.744324e+003;9.513883e-003
2.746252e+003;9.422348e-003
2.748181e+003;9.341733e-003
2.750109e+003;9.606386e-003
2.752038e+003;9.636874e-003
2.753967e+003;9.319830e-003
2.755895e+003;9.465996e-003
2.757824e+003;9.483030e-003
2.759752e+003;9.534136e-003
2.761681e+003;9.654694e-003
2.763609e+003;9.833714e-003
2.765538e+003;9.525669e-003
2.767466e+003;9.389369e-003
2.769395e+003;9.727675e-003
2.771323e+003;1.028408e-002
2.773252e+003;1.059942e-002
2.775181e+003;1.069613e-002
2.777109e+003;1.078953e-002
2.779038e+003;1.092865e-002
2.780966e+003;1.104976e-002
2.782895e+003;1.113097e-002
2.784823e+003;1.145355e-002
2.786752e+003;1.159476e-002
2.788680e+003;1.146747e-002
2.790609e+003;1.164288e-002
2.792538e+003;1.198462e-002
2.794466e+003;1.259174e-002
2.796395e+003;1.286958e-002
2.798323e+003;1.280419e-002
2.800252e+003;1.281695e-002
2.802180e+003;1.299994e-002
2.804109e+003;1.320364e-002
2.806037e+003;1.358763e-002
2.807966e+003;1.377710e-002
2.809895e+003;1.357488e-002
2.811823e+003;1.370381e-002
2.813751e+003;1.404457e-002
2.815680e+003;1.417420e-002
2.817609e+003;1.442462e-002
2.819537e+003;1.469835e-002
2.821466e+003;1.446394e-002
2.823394e+003;1.422086e-002
2.825323e+003;1.445181e-002
2.827251e+003;1.479028e-002
2.829180e+003;1.507941e-002
2.831108e+003;1.522351e-002
2.833037e+003;1.544134e-002
2.834966e+003;1.596018e-002
2.836894e+003;1.649005e-002
2.838823e+003;1.721611e-002
2.840751e+003;1.804086e-002
2.842680e+003;1.900350e-002
2.844608e+003;2.025525e-002
2.846537e+003;2.148601e-002
2.848465e+003;2.299659e-002
2.850394e+003;2.504474e-002
2.852323e+003;2.688417e-002
2.854251e+003;2.866643e-002
2.856180e+003;3.037877e-002
2.858108e+003;3.159548e-002
2.860037e+003;3.296603e-002
2.861965e+003;3.458223e-002
2.863894e+003;3.556510e-002
2.865822e+003;3.620695e-002
2.867751e+003;3.705860e-002
2.869679e+003;3.760412e-002
2.871608e+003;3.781944e-002
2.873536e+003;3.767086e-002
2.875465e+003;3.733633e-002
2.877394e+003;3.715218e-002
2.879322e+003;3.680049e-002
2.881251e+003;3.660135e-002
2.883179e+003;3.667229e-002
2.885108e+003;3.653023e-002
2.887036e+003;3.638602e-002
2.888965e+003;3.651045e-002
2.890893e+003;3.720697e-002
2.892822e+003;3.818115e-002
2.894750e+003;3.914871e-002
2.896679e+003;4.020475e-002
2.898608e+003;4.177086e-002
2.900536e+003;4.337559e-002
2.902465e+003;4.501423e-002
2.904393e+003;4.713747e-002
2.906322e+003;4.942660e-002
2.908250e+003;5.158747e-002
2.910179e+003;5.416884e-002
2.912107e+003;5.711533e-002
2.914036e+003;5.968204e-002
2.915965e+003;6.188145e-002
2.917893e+003;6.390807e-002
2.919822e+003;6.603345e-002
2.921750e+003;6.760731e-002
2.923679e+003;6.826275e-002
2.925607e+003;6.911898e-002
2.927536e+003;7.003459e-002
2.929464e+003;7.069109e-002
2.931393e+003;7.110323e-002
2.933322e+003;7.143873e-002
2.935250e+003;7.145791e-002
2.937178e+003;7.100840e-002
2.939107e+003;7.034530e-002
2.941036e+003;6.973542e-002
2.942964e+003;6.888151e-002
2.944893e+003;6.766108e-002
2.946821e+003;6.585218e-002
2.948750e+003;6.372147e-002
2.950678e+003;6.177089e-002
2.952607e+003;5.975834e-002
2.954535e+003;5.744976e-002
2.956464e+003;5.523364e-002
2.958393e+003;5.349687e-002
2.960321e+003;5.205693e-002
2.962250e+003;5.075651e-002
2.964178e+003;4.996094e-002
2.966107e+003;4.915472e-002
2.968035e+003;4.817563e-002
2.969964e+003;4.747805e-002
2.971892e+003;4.672811e-002
2.973821e+003;4.557603e-002
2.975750e+003;4.484506e-002
2.977678e+003;4.438794e-002
2.979607e+003;4.369172e-002
2.981535e+003;4.319460e-002
2.983464e+003;4.265635e-002
2.985392e+003;4.212332e-002
2.987321e+003;4.151631e-002
2.989249e+003;4.079675e-002
2.991178e+003;4.026615e-002
2.993106e+003;3.998716e-002
2.995035e+003;3.974000e-002
2.996964e+003;3.883892e-002
2.998892e+003;3.765283e-002
3.000821e+003;3.661796e-002
3.002749e+003;3.575146e-002
3.004678e+003;3.491719e-002
3.006606e+003;3.368669e-002
3.008535e+003;3.249428e-002
3.010463e+003;3.141150e-002
3.012392e+003;3.012619e-002
3.014321e+003;2.915618e-002
3.016249e+003;2.846819e-002
3.018177e+003;2.758607e-002
3.020106e+003;2.684962e-002
3.022035e+003;2.628994e-002
3.023963e+003;2.548935e-002
3.025892e+003;2.448938e-002
3.027820e+003;2.378459e-002
3.029749e+003;2.316956e-002
3.031677e+003;2.249168e-002
3.033606e+003;2.208119e-002
3.035534e+003;2.187583e-002
3.037463e+003;2.193431e-002
3.039392e+003;2.178249e-002
3.041320e+003;2.110726e-002
3.043249e+003;2.034504e-002
3.045177e+003;1.963810e-002
3.047106e+003;1.949432e-002
3.049034e+003;1.964517e-002
3.050963e+003;1.939418e-002
3.052891e+003;1.912613e-002
3.054820e+003;1.871500e-002
3.056749e+003;1.818038e-002
3.058677e+003;1.818305e-002
3.060606e+003;1.834930e-002
3.062534e+003;1.771034e-002
3.064463e+003;1.690214e-002
3.066391e+003;1.658866e-002
3.068320e+003;1.671154e-002
3.070248e+003;1.662728e-002
3.072177e+003;1.624517e-002
3.074105e+003;1.628755e-002
3.076034e+003;1.622313e-002
3.077963e+003;1.568459e-002
3.079891e+003;1.533478e-002
3.081820e+003;1.524194e-002
3.083748e+003;1.493944e-002
3.085677e+003;1.464917e-002
3.087605e+003;1.436440e-002
3.089534e+003;1.410680e-002
3.091462e+003;1.413165e-002
3.093391e+003;1.387192e-002
3.095320e+003;1.353061e-002
3.097248e+003;1.366965e-002
3.099177e+003;1.364767e-002
3.101105e+003;1.327261e-002
3.103034e+003;1.303336e-002
3.104962e+003;1.280896e-002
3.106891e+003;1.238782e-002
3.108819e+003;1.227325e-002
3.110748e+003;1.224663e-002
3.112677e+003;1.216787e-002
3.114605e+003;1.222298e-002
3.116533e+003;1.216746e-002
3.118462e+003;1.165166e-002
3.120391e+003;1.148645e-002
3.122319e+003;1.132896e-002
3.124248e+003;1.090656e-002
3.126176e+003;1.086599e-002
3.128105e+003;1.062763e-002
3.130033e+003;1.052775e-002
3.131962e+003;1.063799e-002
3.133890e+003;1.069596e-002
3.135819e+003;1.059504e-002
3.137748e+003;1.028089e-002
3.139676e+003;1.028981e-002
3.141605e+003;9.914861e-003
3.143533e+003;9.495899e-003
3.145462e+003;9.607368e-003
3.147390e+003;9.510226e-003
3.149319e+003;9.437484e-003
3.151247e+003;9.325009e-003
3.153176e+003;9.254566e-003
3.155104e+003;9.445441e-003
3.157033e+003;9.399831e-003
3.158962e+003;9.253517e-003
3.160890e+003;9.244276e-003
3.162819e+003;9.443410e-003
3.164747e+003;9.397731e-003
3.166676e+003;9.325280e-003
3.168604e+003;9.331712e-003
3.170533e+003;9.101060e-003
3.172461e+003;9.364043e-003
3.174390e+003;9.714800e-003
3.176319e+003;9.624341e-003
3.178247e+003;9.099504e-003
3.180176e+003;8.657126e-003
3.182104e+003;8.397982e-003
3.184033e+003;8.674533e-003
3.185961e+003;8.837797e-003
3.187890e+003;8.779165e-003
3.189818e+003;8.944733e-003
3.191747e+003;9.225559e-003
3.193676e+003;9.257680e-003
3.195604e+003;9.325178e-003
3.197532e+003;9.364010e-003
3.199461e+003;9.331407e-003
3.201390e+003;9.269290e-003
3.203318e+003;8.968715e-003
3.205247e+003;8.869482e-003
3.207175e+003;9.104782e-003
3.209104e+003;9.503316e-003
3.211032e+003;9.891369e-003
3.212961e+003;9.873200e-003
3.214889e+003;9.558490e-003
3.216818e+003;9.541689e-003
3.218747e+003;9.672786e-003
3.220675e+003;9.703110e-003
3.222604e+003;9.864862e-003
3.224532e+003;9.815242e-003
3.226461e+003;9.526380e-003
3.228389e+003;9.240384e-003
3.230318e+003;9.107218e-003
3.232246e+003;9.607572e-003
3.234175e+003;1.009341e-002
3.236104e+003;9.989310e-003
3.238032e+003;9.639652e-003
3.239961e+003;9.635181e-003
3.241889e+003;9.644700e-003
3.243818e+003;9.209822e-003
3.245746e+003;9.140210e-003
3.247675e+003;9.632234e-003
3.249603e+003;1.003837e-002
3.251532e+003;1.002810e-002
3.253460e+003;9.790774e-003
3.255389e+003;9.334454e-003
3.257318e+003;9.240824e-003
3.259246e+003;9.155607e-003
3.261175e+003;8.870835e-003
3.263103e+003;9.189109e-003
3.265032e+003;9.228166e-003
3.266960e+003;8.878208e-003
3.268889e+003;8.937834e-003
3.270817e+003;8.649791e-003
3.272746e+003;8.604771e-003
3.274675e+003;8.894238e-003
3.276603e+003;8.882740e-003
3.278531e+003;8.620385e-003
3.280460e+003;8.223572e-003
3.282389e+003;7.873612e-003
3.284317e+003;7.717794e-003
3.286246e+003;7.539847e-003
3.288174e+003;7.469323e-003
3.290103e+003;7.410269e-003
3.292031e+003;7.407269e-003
3.293960e+003;7.421189e-003
3.295888e+003;7.898143e-003
3.297817e+003;7.998233e-003
3.299746e+003;7.842978e-003
3.301674e+003;7.463761e-003
3.303603e+003;6.646831e-003
3.305531e+003;6.477630e-003
3.307460e+003;6.951291e-003
3.309388e+003;7.436255e-003
3.311317e+003;7.446031e-003
3.313245e+003;7.072212e-003
3.315174e+003;6.783283e-003
3.317103e+003;6.848008e-003
3.319031e+003;7.215670e-003
3.320960e+003;7.114379e-003
3.322888e+003;6.616720e-003
3.324817e+003;6.408656e-003
3.326745e+003;6.195247e-003
3.328674e+003;6.169334e-003
3.330602e+003;6.385656e-003
3.332531e+003;6.742427e-003
3.334459e+003;6.462663e-003
3.336388e+003;6.224555e-003
3.338317e+003;6.484020e-003
3.340245e+003;7.088041e-003
3.342174e+003;7.204115e-003
3.344102e+003;6.861237e-003
3.346031e+003;6.710290e-003
3.347959e+003;6.811690e-003
3.349888e+003;6.730582e-003
3.351816e+003;6.595896e-003
3.353745e+003;6.473728e-003
3.355674e+003;6.425436e-003
3.357602e+003;6.395138e-003
3.359531e+003;6.311250e-003
3.361459e+003;6.147725e-003
3.363388e+003;5.624721e-003
3.365316e+003;5.343227e-003
3.367245e+003;5.745239e-003
3.369173e+003;5.801616e-003
3.371102e+003;5.828951e-003
3.373031e+003;5.719320e-003
3.374959e+003;5.184525e-003
3.376887e+003;5.270274e-003
3.378816e+003;5.701023e-003
3.380745e+003;5.629286e-003
3.382673e+003;5.619216e-003
3.384602e+003;5.326220e-003
3.386530e+003;5.062586e-003
3.388459e+003;4.844175e-003
3.390387e+003;4.413438e-003
3.392316e+003;4.625538e-003
3.394244e+003;4.825178e-003
3.396173e+003;4.288938e-003
3.398102e+003;4.146878e-003
3.400030e+003;4.515474e-003
3.401959e+003;4.720456e-003
3.403887e+003;4.441489e-003
3.405816e+003;4.010717e-003
3.407744e+003;4.239751e-003
3.409673e+003;4.670851e-003
3.411601e+003;4.641043e-003
3.413530e+003;4.492240e-003
3.415458e+003;4.758609e-003
3.417387e+003;5.399786e-003
3.419316e+003;5.683734e-003
3.421244e+003;5.536485e-003
3.423173e+003;5.459675e-003
3.425101e+003;5.690683e-003
3.427030e+003;5.935317e-003
3.428958e+003;5.938676e-003
3.430887e+003;6.089724e-003
3.432815e+003;6.411581e-003
3.434744e+003;6.203481e-003
3.436673e+003;6.214775e-003
3.438601e+003;6.412422e-003
3.440530e+003;6.536187e-003
3.442458e+003;6.635359e-003
3.444387e+003;6.755216e-003
3.446315e+003;6.781331e-003
3.448244e+003;6.791967e-003
3.450172e+003;6.953379e-003
3.452101e+003;6.876553e-003
3.454030e+003;6.928835e-003
3.455958e+003;7.025840e-003
3.457886e+003;7.608798e-003
3.459815e+003;8.117859e-003
3.461744e+003;8.188084e-003
3.463672e+003;8.250114e-003
3.465601e+003;8.090076e-003
3.467529e+003;7.788696e-003
3.469458e+003;7.808499e-003
3.471386e+003;7.910660e-003
3.473315e+003;8.081131e-003
3.475243e+003;8.424737e-003
3.477172e+003;8.514509e-003
3.479101e+003;8.219925e-003
3.481029e+003;8.165800e-003
3.482958e+003;8.079240e-003
3.484886e+003;7.931211e-003
3.486815e+003;8.016289e-003
3.488743e+003;7.977983e-003
3.490672e+003;8.233432e-003
3.492600e+003;8.725038e-003
3.494529e+003;9.089590e-003
3.496458e+003;8.930156e-003
3.498386e+003;8.597572e-003
3.500315e+003;8.296448e-003
3.502243e+003;8.575031e-003
3.504172e+003;9.336011e-003
3.506100e+003;9.786706e-003
3.508029e+003;9.648326e-003
3.509957e+003;9.543925e-003
3.511886e+003;9.564518e-003
3.513814e+003;9.969035e-003
3.515743e+003;1.019252e-002
3.517672e+003;1.040009e-002
3.519600e+003;1.114980e-002
3.521529e+003;1.122545e-002
3.523457e+003;1.091944e-002
3.525386e+003;1.133399e-002
3.527314e+003;1.160146e-002
3.529243e+003;1.153565e-002
3.531171e+003;1.145658e-002
3.533100e+003;1.152174e-002
3.535029e+003;1.183232e-002
3.536957e+003;1.147472e-002
3.538885e+003;1.138998e-002
3.540814e+003;1.158639e-002
3.542743e+003;1.130828e-002
3.544671e+003;1.133926e-002
3.546600e+003;1.156410e-002
3.548528e+003;1.204392e-002
3.550457e+003;1.255780e-002
3.552385e+003;1.231292e-002
3.554314e+003;1.162603e-002
3.556242e+003;1.150853e-002
3.558171e+003;1.127081e-002
3.560100e+003;1.135188e-002
3.562028e+003;1.125836e-002
3.563957e+003;1.136147e-002
3.565885e+003;1.149840e-002
3.567814e+003;1.083681e-002
3.569742e+003;1.059908e-002
3.571671e+003;1.080325e-002
3.573599e+003;1.064346e-002
3.575528e+003;1.018461e-002
3.577457e+003;9.932523e-003
3.579385e+003;9.859540e-003
3.581314e+003;1.026379e-002
3.583242e+003;1.043678e-002
3.585171e+003;1.026884e-002
3.587099e+003;1.028404e-002
3.589028e+003;1.055311e-002
3.590956e+003;1.125445e-002
3.592885e+003;1.162961e-002
3.594813e+003;1.158877e-002
3.596742e+003;1.160024e-002
3.598671e+003;1.192682e-002
3.600599e+003;1.217857e-002
3.602528e+003;1.217234e-002
3.604456e+003;1.175286e-002
3.606385e+003;1.183300e-002
3.608313e+003;1.214674e-002
3.610242e+003;1.273618e-002
3.612170e+003;1.333062e-002
3.614099e+003;1.315565e-002
3.616028e+003;1.259160e-002
3.617956e+003;1.265935e-002
3.619885e+003;1.309763e-002
3.621813e+003;1.326752e-002
3.623742e+003;1.340022e-002
3.625670e+003;1.342903e-002
3.627599e+003;1.280576e-002
3.629527e+003;1.229019e-002
3.631456e+003;1.227740e-002
3.633385e+003;1.217353e-002
3.635313e+003;1.186144e-002
3.637241e+003;1.175075e-002
3.639170e+003;1.160351e-002
3.641099e+003;1.099178e-002
3.643027e+003;1.074846e-002
3.644956e+003;1.054228e-002
3.646884e+003;1.015778e-002
3.648813e+003;9.893470e-003
3.650741e+003;9.471280e-003
3.652670e+003;9.022061e-003
3.654598e+003;8.370249e-003
3.656527e+003;7.732871e-003
3.658456e+003;7.388193e-003
3.660384e+003;7.214761e-003
3.662313e+003;7.024863e-003
3.664241e+003;6.027128e-003
3.666170e+003;4.853288e-003
3.668098e+003;4.536032e-003
3.670027e+003;4.425790e-003
3.671955e+003;4.244134e-003
3.673884e+003;4.207799e-003
3.675813e+003;3.471440e-003
3.677741e+003;2.900777e-003
3.679669e+003;2.668313e-003
3.681598e+003;2.749833e-003
3.683527e+003;2.698386e-003
3.685455e+003;2.320368e-003
3.687384e+003;1.858583e-003
3.689312e+003;2.000196e-003
3.691241e+003;2.543080e-003
3.693169e+003;2.212353e-003
3.695098e+003;1.543173e-003
3.697026e+003;1.793400e-003
3.698955e+003;2.387896e-003
3.700884e+003;2.363709e-003
3.702812e+003;2.051528e-003
3.704741e+003;1.784217e-003
3.706669e+003;1.680293e-003
3.708598e+003;1.458854e-003
3.710526e+003;1.225334e-003
3.712455e+003;1.356769e-003
3.714383e+003;1.671345e-003
3.716312e+003;1.789341e-003
3.718240e+003;2.356146e-003
3.720169e+003;2.289423e-003
3.722098e+003;1.938087e-003
3.724026e+003;2.020368e-003
3.725955e+003;2.240295e-003
3.727883e+003;2.102898e-003
3.729812e+003;2.124674e-003
3.731740e+003;2.238097e-003
3.733669e+003;2.092011e-003
3.735597e+003;1.818653e-003
3.737526e+003;1.841945e-003
3.739455e+003;1.235169e-003
3.741383e+003;8.634030e-004
3.743312e+003;1.125330e-003
3.745240e+003;1.626444e-003
3.747169e+003;2.421281e-003
3.749097e+003;2.195868e-003
3.751026e+003;1.825375e-003
3.752954e+003;2.031786e-003
3.754883e+003;1.839250e-003
3.756812e+003;1.426474e-003
3.758740e+003;1.401410e-003
3.760668e+003;1.601567e-003
3.762597e+003;1.862410e-003
3.764526e+003;1.777297e-003
3.766454e+003;2.263043e-003
3.768383e+003;2.620776e-003
3.770311e+003;2.497622e-003
3.772240e+003;2.316604e-003
3.774168e+003;2.143354e-003
3.776097e+003;2.065310e-003
3.778025e+003;2.036280e-003
3.779954e+003;2.114419e-003
3.781883e+003;2.528449e-003
3.783811e+003;2.941807e-003
3.785740e+003;3.125655e-003
3.787668e+003;2.711789e-003
3.789597e+003;2.410519e-003
3.791525e+003;2.531015e-003
3.793454e+003;2.449037e-003
3.795382e+003;2.539580e-003
3.797311e+003;2.579710e-003
3.799240e+003;2.299949e-003
3.801168e+003;2.261844e-003
3.803097e+003;2.563444e-003
3.805025e+003;2.950580e-003
3.806954e+003;2.931899e-003
3.808882e+003;2.683183e-003
3.810811e+003;2.544813e-003
3.812739e+003;2.503754e-003
3.814668e+003;2.551412e-003
3.816596e+003;2.885600e-003
3.818525e+003;3.071360e-003
3.820454e+003;3.161299e-003
3.822382e+003;3.260938e-003
3.824311e+003;3.257333e-003
3.826239e+003;3.433834e-003
3.828168e+003;3.569013e-003
3.830096e+003;3.517468e-003
3.832025e+003;3.059981e-003
3.833953e+003;2.874660e-003
3.835882e+003;2.961789e-003
3.837811e+003;3.081204e-003
3.839739e+003;3.360767e-003
3.841667e+003;3.368113e-003
3.843596e+003;3.288948e-003
3.845525e+003;3.196913e-003
3.847453e+003;3.213636e-003
3.849382e+003;3.466063e-003
3.851310e+003;3.504174e-003
3.853239e+003;2.911150e-003
3.855167e+003;2.961656e-003
3.857096e+003;3.300800e-003
3.859024e+003;3.508316e-003
3.860953e+003;3.717100e-003
3.862882e+003;4.031685e-003
3.864810e+003;3.848188e-003
3.866739e+003;3.743702e-003
3.868667e+003;3.631656e-003
3.870596e+003;3.249855e-003
3.872524e+003;3.597711e-003
3.874453e+003;3.539348e-003
3.876381e+003;3.393258e-003
3.878310e+003;3.665203e-003
3.880239e+003;4.009011e-003
3.882167e+003;4.180332e-003
3.884096e+003;4.050781e-003
3.886024e+003;3.987342e-003
3.887953e+003;3.577532e-003
3.889881e+003;3.348713e-003
3.891810e+003;3.591129e-003
3.893738e+003;3.558991e-003
3.895667e+003;3.701560e-003
3.897595e+003;3.869583e-003
3.899524e+003;3.694309e-003
3.901453e+003;3.459450e-003
3.903381e+003;3.208095e-003
3.905310e+003;3.699087e-003
3.907238e+003;3.921671e-003
3.909167e+003;3.745741e-003
3.911095e+003;3.560093e-003
3.913024e+003;3.675829e-003
3.914952e+003;4.530306e-003
3.916881e+003;5.062217e-003
3.918810e+003;5.096747e-003
3.920738e+003;4.575911e-003
3.922667e+003;4.391381e-003
3.924595e+003;4.803132e-003
3.926524e+003;4.856036e-003
3.928452e+003;4.630662e-003
3.930381e+003;5.163635e-003
3.932309e+003;5.634320e-003
3.934238e+003;5.073179e-003
3.936167e+003;4.668473e-003
3.938095e+003;4.894570e-003
3.940023e+003;4.950635e-003
3.941952e+003;4.776029e-003
3.943881e+003;4.917793e-003
3.945809e+003;5.096412e-003
3.947738e+003;5.144355e-003
3.949666e+003;5.014752e-003
3.951595e+003;4.868299e-003
3.953523e+003;4.986731e-003
3.955452e+003;5.586054e-003
3.957380e+003;5.753364e-003
3.959309e+003;5.516316e-003
3.961238e+003;5.780831e-003
3.963166e+003;5.793557e-003
3.965095e+003;5.828077e-003
3.967023e+003;5.931521e-003
3.968952e+003;6.004618e-003
3.970880e+003;5.979187e-003
3.972809e+003;6.093117e-003
3.974737e+003;6.283179e-003
3.976666e+003;6.377384e-003
3.978594e+003;6.018695e-003
3.980523e+003;5.739565e-003
3.982452e+003;6.105248e-003
3.984380e+003;6.315655e-003
3.986309e+003;6.340164e-003
3.988237e+003;6.442149e-003
3.990166e+003;6.524885e-003
3.992094e+003;6.202338e-003
3.994023e+003;5.999277e-003
3.995951e+003;6.418912e-003
3.997880e+003;6.652988e-003
3.999809e+003;6.416457e-003
4.001737e+003;0.000000e+000
