3.992094e+002;0.000000e+000
4.011380e+002;0.000000e+000
4.030665e+002;0.000000e+000
4.049951e+002;0.000000e+000
4.069236e+002;0.000000e+000
4.088522e+002;0.000000e+000
4.107807e+002;0.000000e+000
4.127093e+002;0.000000e+000
4.146378e+002;0.000000e+000
4.165664e+002;0.000000e+000
4.184949e+002;0.000000e+000
4.204235e+002;0.000000e+000
4.223520e+002;0.000000e+000
4.242806e+002;0.000000e+000
4.262091e+002;0.000000e+000
4.281377e+002;0.000000e+000
4.300662e+002;0.000000e+000
4.319948e+002;0.000000e+000
4.339233e+002;0.000000e+000
4.358519e+002;0.000000e+000
4.377804e+002;0.000000e+000
4.397090e+002;0.000000e+000
4.416375e+002;0.000000e+000
4.435660e+002;0.000000e+000
4.454946e+002;0.000000e+000
4.474232e+002;0.000000e+000
4.493517e+002;0.000000e+000
4.512802e+002;0.000000e+000
4.532088e+002;0.000000e+000
4.551373e+002;0.000000e+000
4.570659e+002;0.000000e+000
4.589944e+002;0.000000e+000
4.609230e+002;0.000000e+000
4.628515e+002;0.000000e+000
4.647801e+002;0.000000e+000
4.667086e+002;0.000000e+000
4.686372e+002;0.000000e+000
4.705657e+002;0.000000e+000
4.724943e+002;0.000000e+000
4.744228e+002;0.000000e+000
4.763513e+002;0.000000e+000
4.782799e+002;0.000000e+000
4.802085e+002;0.000000e+000
4.821370e+002;0.000000e+000
4.840656e+002;0.000000e+000
4.859941e+002;0.000000e+000
4.879226e+002;0.000000e+000
4.898512e+002;0.000000e+000
4.917798e+002;0.000000e+000
4.937083e+002;0.000000e+000
4.956368e+002;0.000000e+000
4.975654e+002;0.000000e+000
4.994939e+002;0.000000e+000
5.014225e+002;0.000000e+000
5.033510e+002;0.000000e+000
5.052796e+002;0.000000e+000
5.072081e+002;0.000000e+000
5.091367e+002;0.000000e+000
5.110652e+002;0.000000e+000
5.129938e+002;0.000000e+000
5.149223e+002;0.000000e+000
5.168509e+002;0.000000e+000
5.187794e+002;0.000000e+000
5.207079e+002;0.000000e+000
5.226365e+002;0.000000e+000
5.245651e+002;0.000000e+000
5.264936e+002;0.000000e+000
5.284222e+002;0.000000e+000
5.303507e+002;0.000000e+000
5.322792e+002;0.000000e+000
5.342078e+002;0.000000e+000
5.361364e+002;0.000000e+000
5.380649e+002;0.000000e+000
5.399935e+002;0.000000e+000
5.419220e+002;0.000000e+000
5.438505e+002;0.000000e+000
5.457791e+002;0.000000e+000
5.477076e+002;0.000000e+000
5.496362e+002;0.000000e+000
5.515648e+002;0.000000e+000
5.534933e+002;0.000000e+000
5.554218e+002;0.000000e+000
5.573504e+002;0.000000e+000
5.592789e+002;0.000000e+000
5.612075e+002;0.000000e+000
5.631360e+002;0.000000e+000
5.650646e+002;0.000000e+000
5.669931e+002;0.000000e+000
5.689217e+002;0.000000e+000
5.708502e+002;0.000000e+000
5.727787e+002;0.000000e+000
5.747073e+002;0.000000e+000
5.766359e+002;0.000000e+000
5.785644e+002;0.000000e+000
5.804930e+002;0.000000e+000
5.824215e+002;0.000000e+000
5.843500e+002;0.000000e+000
5.862786e+002;0.000000e+000
5.882072e+002;0.000000e+000
5.901357e+002;0.000000e+000
5.920643e+002;0.000000e+000
5.939928e+002;0.000000e+000
5.959213e+002;0.000000e+000
5.978499e+002;0.000000e+000
5.997784e+002;1.266571e-001
6.017070e+002;1.181005e-001
6.036355e+002;1.194390e-001
6.055641e+002;1.257007e-001
6.074926e+002;1.293700e-001
6.094211e+002;1.285386e-001
6.113497e+002;1.218233e-001
6.132783e+002;1.193077e-001
6.152068e+002;1.225307e-001
6.171354e+002;1.220006e-001
6.190639e+002;1.196934e-001
6.209924e+002;1.170303e-001
6.229210e+002;1.196070e-001
6.248495e+002;1.236727e-001
6.267781e+002;1.202695e-001
6.287067e+002;1.153096e-001
6.306352e+002;1.159374e-001
6.325637e+002;1.216210e-001
6.344923e+002;1.259649e-001
6.364208e+002;1.244328e-001
6.383494e+002;1.237079e-001
6.402780e+002;1.255970e-001
6.422065e+002;1.255603e-001
6.441350e+002;1.253282e-001
6.460636e+002;1.307634e-001
6.479921e+002;1.334709e-001
6.499207e+002;1.323052e-001
6.518492e+002;1.310364e-001
6.537778e+002;1.316965e-001
6.557063e+002;1.346853e-001
6.576349e+002;1.379408e-001
6.595634e+002;1.397611e-001
6.614919e+002;1.412125e-001
6.634205e+002;1.433533e-001
6.653491e+002;1.463257e-001
6.672776e+002;1.491103e-001
6.692062e+002;1.506459e-001
6.711347e+002;1.508103e-001
6.730632e+002;1.499872e-001
6.749918e+002;1.508325e-001
6.769203e+002;1.519317e-001
6.788489e+002;1.508494e-001
6.807775e+002;1.502145e-001
6.827060e+002;1.509781e-001
6.846345e+002;1.511322e-001
6.865631e+002;1.509234e-001
6.884916e+002;1.501286e-001
6.904202e+002;1.492951e-001
6.923488e+002;1.486281e-001
6.942773e+002;1.465597e-001
6.962058e+002;1.442048e-001
6.981344e+002;1.428006e-001
7.000629e+002;1.417604e-001
7.019915e+002;1.399791e-001
7.039200e+002;1.383824e-001
7.058486e+002;1.372647e-001
7.077771e+002;1.364420e-001
7.097057e+002;1.355072e-001
7.116342e+002;1.347411e-001
7.135627e+002;1.345927e-001
7.154913e+002;1.342130e-001
7.174199e+002;1.340866e-001
7.193484e+002;1.341124e-001
7.212770e+002;1.340980e-001
7.232055e+002;1.341541e-001
7.251340e+002;1.339571e-001
7.270626e+002;1.334299e-001
7.289911e+002;1.311966e-001
7.309197e+002;1.271510e-001
7.328483e+002;1.226254e-001
7.347768e+002;1.177648e-001
7.367053e+002;1.119674e-001
7.386339e+002;1.070845e-001
7.405624e+002;1.035859e-001
7.424910e+002;1.005145e-001
7.444196e+002;9.788371e-002
7.463481e+002;9.611750e-002
7.482766e+002;9.523658e-002
7.502052e+002;9.321661e-002
7.521337e+002;9.070702e-002
7.540623e+002;8.936297e-002
7.559908e+002;8.786626e-002
7.579194e+002;8.553563e-002
7.598479e+002;8.408476e-002
7.617765e+002;8.309843e-002
7.637050e+002;8.193392e-002
7.656335e+002;8.075359e-002
7.675621e+002;7.948038e-002
7.694907e+002;7.810961e-002
7.714192e+002;7.714865e-002
7.733478e+002;7.577724e-002
7.752763e+002;7.465538e-002
7.772048e+002;7.399801e-002
7.791334e+002;7.301642e-002
7.810620e+002;7.271566e-002
7.829905e+002;7.223793e-002
7.849191e+002;7.113531e-002
7.868476e+002;6.995074e-002
7.887761e+002;6.919148e-002
7.907047e+002;6.814427e-002
7.926332e+002;6.629124e-002
7.945618e+002;6.493051e-002
7.964903e+002;6.388704e-002
7.984189e+002;6.292027e-002
8.003474e+002;6.205808e-002
8.022759e+002;6.148415e-002
8.042045e+002;6.215473e-002
8.061331e+002;6.353181e-002
8.080616e+002;6.461881e-002
8.099902e+002;6.642003e-002
8.119187e+002;6.889172e-002
8.138472e+002;6.997203e-002
8.157758e+002;6.859761e-002
8.177043e+002;6.605856e-002
8.196329e+002;6.356227e-002
8.215615e+002;6.084812e-002
8.234900e+002;5.864884e-002
8.254185e+002;5.747843e-002
8.273471e+002;5.689695e-002
8.292756e+002;5.627042e-002
8.312042e+002;5.580983e-002
8.331328e+002;5.539155e-002
8.350613e+002;5.398472e-002
8.369898e+002;5.280136e-002
8.389184e+002;5.218231e-002
8.408469e+002;5.107076e-002
8.427755e+002;4.992945e-002
8.447040e+002;4.894216e-002
8.466326e+002;4.791523e-002
8.485611e+002;4.724961e-002
8.504897e+002;4.661408e-002
8.524182e+002;4.626279e-002
8.543467e+002;4.633175e-002
8.562753e+002;4.662448e-002
8.582039e+002;4.664444e-002
8.601324e+002;4.634565e-002
8.620610e+002;4.660493e-002
8.639895e+002;4.720753e-002
8.659180e+002;4.736038e-002
8.678466e+002;4.745524e-002
8.697751e+002;4.770805e-002
8.717037e+002;4.784860e-002
8.736323e+002;4.807946e-002
8.755608e+002;4.857272e-002
8.774893e+002;4.878676e-002
8.794179e+002;4.893627e-002
8.813464e+002;4.962758e-002
8.832750e+002;5.033016e-002
8.852036e+002;5.038280e-002
8.871321e+002;5.053711e-002
8.890606e+002;5.058803e-002
8.909892e+002;5.049054e-002
8.929177e+002;5.071592e-002
8.948463e+002;5.111083e-002
8.967748e+002;5.150703e-002
8.987034e+002;5.205208e-002
9.006319e+002;5.227921e-002
9.025605e+002;5.252231e-002
9.044890e+002;5.285842e-002
9.064175e+002;5.323097e-002
9.083461e+002;5.348225e-002
9.102747e+002;5.385699e-002
9.122032e+002;5.429970e-002
9.141318e+002;5.459766e-002
9.160603e+002;5.476527e-002
9.179888e+002;5.494001e-002
9.199174e+002;5.541293e-002
9.218459e+002;5.617761e-002
9.237745e+002;5.698727e-002
9.257031e+002;5.799865e-002
9.276316e+002;5.849254e-002
9.295601e+002;5.855593e-002
9.314887e+002;5.814026e-002
9.334172e+002;5.767999e-002
9.353458e+002;5.764794e-002
9.372744e+002;5.768926e-002
9.392029e+002;5.798634e-002
9.411314e+002;5.842488e-002
9.430600e+002;5.905205e-002
9.449885e+002;5.990334e-002
9.469171e+002;6.073832e-002
9.488456e+002;6.192241e-002
9.507742e+002;6.304496e-002
9.527027e+002;6.402179e-002
9.546313e+002;6.487827e-002
9.565598e+002;6.561869e-002
9.584883e+002;6.595360e-002
9.604169e+002;6.607692e-002
9.623455e+002;6.655541e-002
9.642740e+002;6.696831e-002
9.662026e+002;6.731000e-002
9.681311e+002;6.779791e-002
9.700596e+002;6.775960e-002
9.719882e+002;6.714197e-002
9.739167e+002;6.657781e-002
9.758453e+002;6.627654e-002
9.777739e+002;6.584323e-002
9.797024e+002;6.522989e-002
9.816309e+002;6.479352e-002
9.835595e+002;6.454887e-002
9.854880e+002;6.407551e-002
9.874166e+002;6.316622e-002
9.893452e+002;6.208496e-002
9.912737e+002;6.116118e-002
9.932022e+002;6.067903e-002
9.951307e+002;6.028073e-002
9.970593e+002;5.987478e-002
9.989879e+002;5.983317e-002
1.000916e+003;5.977096e-002
1.002845e+003;5.975180e-002
1.004773e+003;6.001366e-002
1.006702e+003;6.040614e-002
1.008631e+003;6.048623e-002
1.010559e+003;6.044613e-002
1.012488e+003;6.056081e-002
1.014416e+003;6.046380e-002
1.016345e+003;6.047816e-002
1.018273e+003;6.070688e-002
1.020202e+003;6.087141e-002
1.022130e+003;6.123472e-002
1.024059e+003;6.183744e-002
1.025988e+003;6.212391e-002
1.027916e+003;6.255398e-002
1.029845e+003;6.289955e-002
1.031773e+003;6.266382e-002
1.033702e+003;6.240771e-002
1.035630e+003;6.245916e-002
1.037559e+003;6.243816e-002
1.039487e+003;6.258433e-002
1.041416e+003;6.278685e-002
1.043344e+003;6.261536e-002
1.045273e+003;6.277946e-002
1.047202e+003;6.385215e-002
1.049130e+003;6.547381e-002
1.051059e+003;6.695776e-002
1.052987e+003;6.826232e-002
1.054916e+003;6.904936e-002
1.056844e+003;7.016309e-002
1.058773e+003;7.189310e-002
1.060701e+003;7.324533e-002
1.062630e+003;7.475936e-002
1.064558e+003;7.634301e-002
1.066487e+003;7.701922e-002
1.068416e+003;7.769264e-002
1.070344e+003;7.846422e-002
1.072273e+003;7.880943e-002
1.074201e+003;7.800527e-002
1.076130e+003;7.739001e-002
1.078058e+003;7.758392e-002
1.079987e+003;7.721221e-002
1.081915e+003;7.634566e-002
1.083844e+003;7.543794e-002
1.085773e+003;7.475995e-002
1.087701e+003;7.466912e-002
1.089630e+003;7.477459e-002
1.091558e+003;7.467419e-002
1.093487e+003;7.526528e-002
1.095415e+003;7.583614e-002
1.097344e+003;7.610019e-002
1.099272e+003;7.722346e-002
1.101201e+003;7.890034e-002
1.103129e+003;8.041222e-002
1.105058e+003;8.169238e-002
1.106987e+003;8.346397e-002
1.108915e+003;8.525378e-002
1.110844e+003;8.628932e-002
1.112772e+003;8.710174e-002
1.114701e+003;8.721217e-002
1.116629e+003;8.669440e-002
1.118558e+003;8.619896e-002
1.120486e+003;8.537339e-002
1.122415e+003;8.334850e-002
1.124344e+003;8.010554e-002
1.126272e+003;7.700565e-002
1.128201e+003;7.482324e-002
1.130129e+003;7.317031e-002
1.132058e+003;7.151611e-002
1.133986e+003;7.093646e-002
1.135915e+003;7.114687e-002
1.137843e+003;7.133586e-002
1.139772e+003;7.220737e-002
1.141700e+003;7.369951e-002
1.143629e+003;7.545280e-002
1.145557e+003;7.741380e-002
1.147486e+003;7.907978e-002
1.149415e+003;8.100491e-002
1.151343e+003;8.361072e-002
1.153272e+003;8.645866e-002
1.155200e+003;8.942688e-002
1.157129e+003;9.354786e-002
1.159057e+003;9.823283e-002
1.160986e+003;1.035961e-001
1.162914e+003;1.091057e-001
1.164843e+003;1.136945e-001
1.166771e+003;1.169221e-001
1.168700e+003;1.183230e-001
1.170629e+003;1.177176e-001
1.172557e+003;1.146849e-001
1.174486e+003;1.095497e-001
1.176414e+003;1.043065e-001
1.178343e+003;1.000279e-001
1.180271e+003;9.723319e-002
1.182200e+003;9.535554e-002
1.184128e+003;9.493475e-002
1.186057e+003;9.616799e-002
1.187986e+003;9.832706e-002
1.189914e+003;1.011866e-001
1.191843e+003;1.040261e-001
1.193771e+003;1.067418e-001
1.195700e+003;1.098584e-001
1.197628e+003;1.124663e-001
1.199557e+003;1.139955e-001
1.201485e+003;1.143494e-001
1.203414e+003;1.133633e-001
1.205343e+003;1.116352e-001
1.207271e+003;1.100550e-001
1.209200e+003;1.086167e-001
1.211128e+003;1.070509e-001
1.213057e+003;1.050348e-001
1.214985e+003;1.028134e-001
1.216914e+003;1.005882e-001
1.218842e+003;9.881359e-002
1.220771e+003;9.822531e-002
1.222699e+003;9.915875e-002
1.224628e+003;1.013556e-001
1.226557e+003;1.044306e-001
1.228485e+003;1.084226e-001
1.230414e+003;1.127392e-001
1.232342e+003;1.163807e-001
1.234271e+003;1.189722e-001
1.236199e+003;1.210801e-001
1.238128e+003;1.223490e-001
1.240056e+003;1.222472e-001
1.241985e+003;1.221245e-001
1.243913e+003;1.224323e-001
1.245842e+003;1.229971e-001
1.247771e+003;1.240284e-001
1.249699e+003;1.257800e-001
1.251628e+003;1.279771e-001
1.253556e+003;1.303796e-001
1.255485e+003;1.326480e-001
1.257413e+003;1.341761e-001
1.259342e+003;1.352026e-001
1.261270e+003;1.347050e-001
1.263199e+003;1.321056e-001
1.265127e+003;1.282485e-001
1.267056e+003;1.237813e-001
1.268985e+003;1.198237e-001
1.270913e+003;1.174103e-001
1.272842e+003;1.166713e-001
1.274770e+003;1.165130e-001
1.276699e+003;1.164463e-001
1.278627e+003;1.165271e-001
1.280556e+003;1.162723e-001
1.282484e+003;1.152775e-001
1.284413e+003;1.138263e-001
1.286342e+003;1.123963e-001
1.288270e+003;1.111483e-001
1.290199e+003;1.102831e-001
1.292127e+003;1.094669e-001
1.294056e+003;1.091494e-001
1.295984e+003;1.095944e-001
1.297913e+003;1.099800e-001
1.299841e+003;1.097902e-001
1.301770e+003;1.095199e-001
1.303698e+003;1.094938e-001
1.305627e+003;1.093033e-001
1.307556e+003;1.089774e-001
1.309484e+003;1.085994e-001
1.311413e+003;1.082535e-001
1.313341e+003;1.081341e-001
1.315270e+003;1.077137e-001
1.317198e+003;1.071291e-001
1.319127e+003;1.068752e-001
1.321055e+003;1.069430e-001
1.322984e+003;1.070433e-001
1.324912e+003;1.074350e-001
1.326841e+003;1.084336e-001
1.328770e+003;1.094412e-001
1.330698e+003;1.099992e-001
1.332627e+003;1.103813e-001
1.334555e+003;1.109425e-001
1.336484e+003;1.114805e-001
1.338412e+003;1.116521e-001
1.340341e+003;1.118660e-001
1.342269e+003;1.124458e-001
1.344198e+003;1.132011e-001
1.346126e+003;1.139727e-001
1.348055e+003;1.147605e-001
1.349984e+003;1.155695e-001
1.351912e+003;1.164278e-001
1.353841e+003;1.171582e-001
1.355769e+003;1.178717e-001
1.357698e+003;1.189854e-001
1.359626e+003;1.198162e-001
1.361555e+003;1.205218e-001
1.363483e+003;1.215573e-001
1.365412e+003;1.224055e-001
1.367341e+003;1.229253e-001
1.369269e+003;1.233323e-001
1.371198e+003;1.232638e-001
1.373126e+003;1.227260e-001
1.375055e+003;1.213870e-001
1.376983e+003;1.187807e-001
1.378912e+003;1.157253e-001
1.380840e+003;1.126166e-001
1.382769e+003;1.093754e-001
1.384698e+003;1.062165e-001
1.386626e+003;1.032234e-001
1.388555e+003;1.005743e-001
1.390483e+003;9.835582e-002
1.392412e+003;9.657934e-002
1.394340e+003;9.517498e-002
1.396269e+003;9.427134e-002
1.398197e+003;9.438056e-002
1.400126e+003;9.540168e-002
1.402054e+003;9.672400e-002
1.403983e+003;9.890466e-002
1.405911e+003;1.020329e-001
1.407840e+003;1.062285e-001
1.409769e+003;1.114188e-001
1.411697e+003;1.172799e-001
1.413626e+003;1.231041e-001
1.415554e+003;1.277017e-001
1.417483e+003;1.300868e-001
1.419411e+003;1.303628e-001
1.421340e+003;1.294475e-001
1.423268e+003;1.282850e-001
1.425197e+003;1.280292e-001
1.427125e+003;1.294005e-001
1.429054e+003;1.319428e-001
1.430983e+003;1.350917e-001
1.432911e+003;1.378460e-001
1.434840e+003;1.396226e-001
1.436768e+003;1.405087e-001
1.438697e+003;1.403411e-001
1.440625e+003;1.394590e-001
1.442554e+003;1.389678e-001
1.444482e+003;1.389861e-001
1.446411e+003;1.395002e-001
1.448340e+003;1.407998e-001
1.450268e+003;1.430576e-001
1.452197e+003;1.462971e-001
1.454125e+003;1.498352e-001
1.456054e+003;1.529738e-001
1.457982e+003;1.565565e-001
1.459911e+003;1.605550e-001
1.461839e+003;1.633560e-001
1.463768e+003;1.632541e-001
1.465697e+003;1.597263e-001
1.467625e+003;1.544797e-001
1.469554e+003;1.499961e-001
1.471482e+003;1.476334e-001
1.473411e+003;1.466455e-001
1.475339e+003;1.454642e-001
1.477268e+003;1.434647e-001
1.479196e+003;1.402762e-001
1.481125e+003;1.362363e-001
1.483053e+003;1.325357e-001
1.484982e+003;1.301760e-001
1.486911e+003;1.294757e-001
1.488839e+003;1.302406e-001
1.490768e+003;1.322563e-001
1.492696e+003;1.351324e-001
1.494625e+003;1.387176e-001
1.496553e+003;1.429490e-001
1.498482e+003;1.472985e-001
1.500410e+003;1.517457e-001
1.502339e+003;1.569081e-001
1.504267e+003;1.626352e-001
1.506196e+003;1.685941e-001
1.508125e+003;1.746390e-001
1.510053e+003;1.810386e-001
1.511982e+003;1.876287e-001
1.513910e+003;1.941746e-001
1.515839e+003;2.007458e-001
1.517767e+003;2.075680e-001
1.519696e+003;2.146121e-001
1.521624e+003;2.217827e-001
1.523553e+003;2.287266e-001
1.525481e+003;2.357902e-001
1.527410e+003;2.426911e-001
1.529339e+003;2.491551e-001
1.531267e+003;2.553683e-001
1.533196e+003;2.604276e-001
1.535124e+003;2.640227e-001
1.537053e+003;2.658991e-001
1.538981e+003;2.659093e-001
1.540910e+003;2.644351e-001
1.542838e+003;2.615463e-001
1.544767e+003;2.571163e-001
1.546695e+003;2.510745e-001
1.548624e+003;2.438803e-001
1.550553e+003;2.360580e-001
1.552481e+003;2.279839e-001
1.554410e+003;2.193610e-001
1.556338e+003;2.108721e-001
1.558267e+003;2.021980e-001
1.560195e+003;1.931167e-001
1.562124e+003;1.847643e-001
1.564052e+003;1.770438e-001
1.565981e+003;1.694624e-001
1.567910e+003;1.620511e-001
1.569838e+003;1.549794e-001
1.571767e+003;1.484909e-001
1.573695e+003;1.427504e-001
1.575624e+003;1.377435e-001
1.577552e+003;1.332739e-001
1.579481e+003;1.296823e-001
1.581409e+003;1.268707e-001
1.583338e+003;1.246221e-001
1.585266e+003;1.231003e-001
1.587195e+003;1.223549e-001
1.589124e+003;1.218993e-001
1.591052e+003;1.217384e-001
1.592981e+003;1.225818e-001
1.594909e+003;1.240089e-001
1.596838e+003;1.256419e-001
1.598766e+003;1.282296e-001
1.600695e+003;1.317202e-001
1.602623e+003;1.358778e-001
1.604552e+003;1.408214e-001
1.606480e+003;1.465495e-001
1.608409e+003;1.532749e-001
1.610338e+003;1.609721e-001
1.612266e+003;1.696097e-001
1.614195e+003;1.794948e-001
1.616123e+003;1.909141e-001
1.618052e+003;2.034418e-001
1.619980e+003;2.163039e-001
1.621909e+003;2.290207e-001
1.623837e+003;2.413441e-001
1.625766e+003;2.530561e-001
1.627694e+003;2.639351e-001
1.629623e+003;2.737001e-001
1.631552e+003;2.828623e-001
1.633480e+003;2.905866e-001
1.635409e+003;2.953148e-001
1.637337e+003;2.957668e-001
1.639266e+003;2.909699e-001
1.641194e+003;2.811337e-001
1.643123e+003;2.678537e-001
1.645051e+003;2.528257e-001
1.646980e+003;2.376368e-001
1.648909e+003;2.234582e-001
1.650837e+003;2.104173e-001
1.652766e+003;1.981244e-001
1.654694e+003;1.870422e-001
1.656623e+003;1.773099e-001
1.658551e+003;1.678354e-001
1.660480e+003;1.590062e-001
1.662408e+003;1.505480e-001
1.664337e+003;1.421599e-001
1.666266e+003;1.344289e-001
1.668194e+003;1.270840e-001
1.670123e+003;1.201045e-001
1.672051e+003;1.134892e-001
1.673980e+003;1.066736e-001
1.675908e+003;9.954269e-002
1.677837e+003;9.228941e-002
1.679765e+003;8.506830e-002
1.681694e+003;7.785215e-002
1.683622e+003;7.092959e-002
1.685551e+003;6.449264e-002
1.687479e+003;5.919720e-002
1.689408e+003;5.469277e-002
1.691337e+003;5.098248e-002
1.693265e+003;4.805936e-002
1.695194e+003;4.568460e-002
1.697122e+003;4.404622e-002
1.699051e+003;4.275670e-002
1.700979e+003;4.139918e-002
1.702908e+003;4.051800e-002
1.704836e+003;3.977000e-002
1.706765e+003;3.898572e-002
1.708693e+003;3.831066e-002
1.710622e+003;3.793166e-002
1.712551e+003;3.762822e-002
1.714479e+003;3.718062e-002
1.716408e+003;3.663455e-002
1.718336e+003;3.638497e-002
1.720265e+003;3.609326e-002
1.722193e+003;3.572717e-002
1.724122e+003;3.554439e-002
1.726050e+003;3.533346e-002
1.727979e+003;3.494208e-002
1.729908e+003;3.452085e-002
1.731836e+003;3.397714e-002
1.733765e+003;3.343071e-002
1.735693e+003;3.313830e-002
1.737622e+003;3.263136e-002
1.739550e+003;3.192850e-002
1.741479e+003;3.134956e-002
1.743407e+003;3.065514e-002
1.745336e+003;2.982336e-002
1.747265e+003;2.918648e-002
1.749193e+003;2.829306e-002
1.751122e+003;2.719815e-002
1.753050e+003;2.646563e-002
1.754979e+003;2.587599e-002
1.756907e+003;2.513507e-002
1.758836e+003;2.459081e-002
1.760764e+003;2.422458e-002
1.762693e+003;2.361599e-002
1.764621e+003;2.290088e-002
1.766550e+003;2.218607e-002
1.768479e+003;2.162728e-002
1.770407e+003;2.129444e-002
1.772336e+003;2.077120e-002
1.774264e+003;2.023515e-002
1.776193e+003;1.993272e-002
1.778121e+003;1.951120e-002
1.780050e+003;1.910636e-002
1.781978e+003;1.885357e-002
1.783907e+003;1.853208e-002
1.785835e+003;1.828906e-002
1.787764e+003;1.818114e-002
1.789693e+003;1.782891e-002
1.791621e+003;1.749292e-002
1.793550e+003;1.720039e-002
1.795478e+003;1.690096e-002
1.797407e+003;1.670458e-002
1.799335e+003;1.664464e-002
1.801264e+003;1.657716e-002
1.803192e+003;1.647552e-002
1.805121e+003;1.613240e-002
1.807049e+003;1.575797e-002
1.808978e+003;1.561864e-002
1.810907e+003;1.553450e-002
1.812835e+003;1.540004e-002
1.814764e+003;1.532095e-002
1.816692e+003;1.530087e-002
1.818621e+003;1.515249e-002
1.820549e+003;1.493227e-002
1.822478e+003;1.479724e-002
1.824406e+003;1.464889e-002
1.826335e+003;1.455432e-002
1.828264e+003;1.446127e-002
1.830192e+003;1.432492e-002
1.832121e+003;1.424911e-002
1.834049e+003;1.429636e-002
1.835978e+003;1.425284e-002
1.837906e+003;1.400950e-002
1.839835e+003;1.375343e-002
1.841763e+003;1.358062e-002
1.843692e+003;1.355143e-002
1.845620e+003;1.351075e-002
1.847549e+003;1.339325e-002
1.849478e+003;1.344738e-002
1.851406e+003;1.337592e-002
1.853335e+003;1.318314e-002
1.855263e+003;1.305385e-002
1.857192e+003;1.307721e-002
1.859120e+003;1.293743e-002
1.861049e+003;1.272195e-002
1.862977e+003;1.276276e-002
1.864906e+003;1.276549e-002
1.866834e+003;1.270752e-002
1.868763e+003;1.272758e-002
1.870692e+003;1.273652e-002
1.872620e+003;1.265635e-002
1.874549e+003;1.249454e-002
1.876477e+003;1.239211e-002
1.878406e+003;1.230593e-002
1.880334e+003;1.222069e-002
1.882263e+003;1.222955e-002
1.884191e+003;1.241877e-002
1.886120e+003;1.252417e-002
1.888048e+003;1.237803e-002
1.889977e+003;1.211380e-002
1.891906e+003;1.222945e-002
1.893834e+003;1.226442e-002
1.895763e+003;1.214153e-002
1.897691e+003;1.228967e-002
1.899620e+003;1.234776e-002
1.901548e+003;1.220573e-002
1.903477e+003;1.211128e-002
1.905405e+003;1.199780e-002
1.907334e+003;1.187897e-002
1.909262e+003;1.170221e-002
1.911191e+003;1.161497e-002
1.913120e+003;1.170810e-002
1.915048e+003;1.161868e-002
1.916977e+003;1.144107e-002
1.918905e+003;1.145430e-002
1.920834e+003;1.164111e-002
1.922762e+003;1.169918e-002
1.924691e+003;1.153633e-002
1.926619e+003;1.150643e-002
1.928548e+003;1.156920e-002
1.930477e+003;1.148560e-002
1.932405e+003;1.142818e-002
1.934334e+003;1.152987e-002
1.936262e+003;1.162797e-002
1.938191e+003;1.167453e-002
1.940119e+003;1.163008e-002
1.942048e+003;1.152208e-002
1.943976e+003;1.140076e-002
1.945905e+003;1.137117e-002
1.947833e+003;1.144474e-002
1.949762e+003;1.129907e-002
1.951691e+003;1.116421e-002
1.953619e+003;1.136501e-002
1.955548e+003;1.147427e-002
1.957476e+003;1.138647e-002
1.959405e+003;1.142209e-002
1.961333e+003;1.157938e-002
1.963262e+003;1.159061e-002
1.965190e+003;1.144542e-002
1.967119e+003;1.143393e-002
1.969047e+003;1.160902e-002
1.970976e+003;1.146563e-002
1.972905e+003;1.144542e-002
1.974833e+003;1.163019e-002
1.976762e+003;1.166395e-002
1.978690e+003;1.165918e-002
1.980619e+003;1.169700e-002
1.982547e+003;1.172147e-002
1.984476e+003;1.175381e-002
1.986404e+003;1.186283e-002
1.988333e+003;1.180107e-002
1.990261e+003;1.166953e-002
1.992190e+003;1.163175e-002
1.994119e+003;1.164843e-002
1.996047e+003;1.176062e-002
1.997976e+003;1.166017e-002
1.999904e+003;1.158948e-002
2.001833e+003;1.173458e-002
2.003761e+003;1.195018e-002
2.005690e+003;1.201671e-002
2.007618e+003;1.190700e-002
2.009547e+003;1.190983e-002
2.011476e+003;1.202730e-002
2.013404e+003;1.218092e-002
2.015333e+003;1.216504e-002
2.017261e+003;1.204113e-002
2.019190e+003;1.209870e-002
2.021118e+003;1.223282e-002
2.023047e+003;1.234005e-002
2.024975e+003;1.235942e-002
2.026904e+003;1.232151e-002
2.028833e+003;1.234098e-002
2.030761e+003;1.255429e-002
2.032690e+003;1.254798e-002
2.034618e+003;1.254890e-002
2.036547e+003;1.280678e-002
2.038475e+003;1.302343e-002
2.040404e+003;1.300062e-002
2.042332e+003;1.296986e-002
2.044261e+003;1.297232e-002
2.046189e+003;1.299127e-002
2.048118e+003;1.305027e-002
2.050047e+003;1.297481e-002
2.051975e+003;1.278822e-002
2.053904e+003;1.272448e-002
2.055832e+003;1.282063e-002
2.057761e+003;1.300387e-002
2.059689e+003;1.314421e-002
2.061618e+003;1.312874e-002
2.063546e+003;1.301981e-002
2.065475e+003;1.297553e-002
2.067404e+003;1.290896e-002
2.069332e+003;1.285609e-002
2.071260e+003;1.301056e-002
2.073189e+003;1.313051e-002
2.075118e+003;1.297570e-002
2.077046e+003;1.299837e-002
2.078975e+003;1.312717e-002
2.080903e+003;1.306952e-002
2.082832e+003;1.288548e-002
2.084760e+003;1.291596e-002
2.086689e+003;1.298581e-002
2.088617e+003;1.276805e-002
2.090546e+003;1.265597e-002
2.092475e+003;1.247797e-002
2.094403e+003;1.225900e-002
2.096332e+003;1.220116e-002
2.098260e+003;1.240667e-002
2.100189e+003;1.257131e-002
2.102117e+003;1.255975e-002
2.104046e+003;1.267692e-002
2.105974e+003;1.286159e-002
2.107903e+003;1.283763e-002
2.109832e+003;1.263370e-002
2.111760e+003;1.267637e-002
2.113688e+003;1.288927e-002
2.115617e+003;1.278712e-002
2.117546e+003;1.244029e-002
2.119474e+003;1.253407e-002
2.121403e+003;1.289750e-002
2.123331e+003;1.294225e-002
2.125260e+003;1.284452e-002
2.127188e+003;1.291559e-002
2.129117e+003;1.300120e-002
2.131045e+003;1.295778e-002
2.132974e+003;1.279040e-002
2.134903e+003;1.279709e-002
2.136831e+003;1.292989e-002
2.138760e+003;1.309056e-002
2.140688e+003;1.318461e-002
2.142617e+003;1.311484e-002
2.144545e+003;1.307434e-002
2.146474e+003;1.319086e-002
2.148402e+003;1.317894e-002
2.150331e+003;1.308264e-002
2.152260e+003;1.318004e-002
2.154188e+003;1.320982e-002
2.156117e+003;1.298092e-002
2.158045e+003;1.298485e-002
2.159974e+003;1.332508e-002
2.161902e+003;1.358941e-002
2.163831e+003;1.357481e-002
2.165759e+003;1.346194e-002
2.167688e+003;1.357710e-002
2.169616e+003;1.361652e-002
2.171545e+003;1.349410e-002
2.173474e+003;1.357088e-002
2.175402e+003;1.373657e-002
2.177331e+003;1.380409e-002
2.179259e+003;1.387226e-002
2.181188e+003;1.390822e-002
2.183116e+003;1.379567e-002
2.185045e+003;1.374222e-002
2.186973e+003;1.383532e-002
2.188902e+003;1.387558e-002
2.190831e+003;1.365785e-002
2.192759e+003;1.359891e-002
2.194688e+003;1.356257e-002
2.196616e+003;1.366774e-002
2.198545e+003;1.384270e-002
2.200473e+003;1.379311e-002
2.202402e+003;1.370651e-002
2.204330e+003;1.360859e-002
2.206259e+003;1.333947e-002
2.208188e+003;1.334999e-002
2.210116e+003;1.356985e-002
2.212044e+003;1.366664e-002
2.213973e+003;1.350829e-002
2.215902e+003;1.353666e-002
2.217830e+003;1.348894e-002
2.219759e+003;1.324893e-002
2.221687e+003;1.319148e-002
2.223616e+003;1.336889e-002
2.225544e+003;1.337910e-002
2.227473e+003;1.324043e-002
2.229401e+003;1.293497e-002
2.231330e+003;1.274754e-002
2.233259e+003;1.287821e-002
2.235187e+003;1.311894e-002
2.237116e+003;1.298137e-002
2.239044e+003;1.284647e-002
2.240973e+003;1.307758e-002
2.242901e+003;1.297297e-002
2.244830e+003;1.276665e-002
2.246758e+003;1.303835e-002
2.248687e+003;1.335433e-002
2.250615e+003;1.360113e-002
2.252544e+003;1.361628e-002
2.254473e+003;1.339076e-002
2.256401e+003;1.338819e-002
2.258330e+003;1.343193e-002
2.260258e+003;1.345005e-002
2.262187e+003;1.334159e-002
2.264115e+003;1.343952e-002
2.266044e+003;1.364028e-002
2.267972e+003;1.351902e-002
2.269901e+003;1.333246e-002
2.271830e+003;1.352193e-002
2.273758e+003;1.398773e-002
2.275687e+003;1.389877e-002
2.277615e+003;1.359457e-002
2.279544e+003;1.375248e-002
2.281472e+003;1.389727e-002
2.283401e+003;1.392378e-002
2.285329e+003;1.397391e-002
2.287258e+003;1.416139e-002
2.289187e+003;1.427571e-002
2.291115e+003;1.393299e-002
2.293043e+003;1.366705e-002
2.294972e+003;1.394240e-002
2.296901e+003;1.404211e-002
2.298829e+003;1.408345e-002
2.300758e+003;1.436841e-002
2.302686e+003;1.439108e-002
2.304615e+003;1.420545e-002
2.306543e+003;1.431396e-002
2.308472e+003;1.452643e-002
2.310400e+003;1.445332e-002
2.312329e+003;1.440985e-002
2.314258e+003;1.440677e-002
2.316186e+003;1.445918e-002
2.318115e+003;1.454390e-002
2.320043e+003;1.461370e-002
2.321972e+003;1.452400e-002
2.323900e+003;1.427239e-002
2.325829e+003;1.424007e-002
2.327757e+003;1.444407e-002
2.329686e+003;1.445497e-002
2.331615e+003;1.441376e-002
2.333543e+003;1.440026e-002
2.335472e+003;1.428704e-002
2.337400e+003;1.418173e-002
2.339329e+003;1.410827e-002
2.341257e+003;1.413582e-002
2.343186e+003;1.422017e-002
2.345114e+003;1.413692e-002
2.347043e+003;1.425376e-002
2.348971e+003;1.453791e-002
2.350900e+003;1.444664e-002
2.352829e+003;1.409817e-002
2.354757e+003;1.421535e-002
2.356686e+003;1.433207e-002
2.358614e+003;1.429999e-002
2.360543e+003;1.438338e-002
2.362471e+003;1.413757e-002
2.364400e+003;1.399810e-002
2.366328e+003;1.426571e-002
2.368257e+003;1.461953e-002
2.370186e+003;1.475038e-002
2.372114e+003;1.484294e-002
2.374042e+003;1.467909e-002
2.375971e+003;1.463937e-002
2.377900e+003;1.477242e-002
2.379828e+003;1.479015e-002
2.381757e+003;1.489290e-002
2.383685e+003;1.501660e-002
2.385614e+003;1.510631e-002
2.387542e+003;1.494461e-002
2.389471e+003;1.500487e-002
2.391399e+003;1.520015e-002
2.393328e+003;1.510840e-002
2.395257e+003;1.507931e-002
2.397185e+003;1.525018e-002
2.399114e+003;1.539177e-002
2.401042e+003;1.529075e-002
2.402971e+003;1.539067e-002
2.404899e+003;1.564461e-002
2.406828e+003;1.578591e-002
2.408756e+003;1.580780e-002
2.410685e+003;1.582625e-002
2.412614e+003;1.556764e-002
2.414542e+003;1.541099e-002
2.416471e+003;1.549329e-002
2.418399e+003;1.572114e-002
2.420328e+003;1.595843e-002
2.422256e+003;1.581130e-002
2.424185e+003;1.590388e-002
2.426113e+003;1.623303e-002
2.428042e+003;1.629801e-002
2.429970e+003;1.617965e-002
2.431899e+003;1.618079e-002
2.433828e+003;1.632567e-002
2.435756e+003;1.631635e-002
2.437685e+003;1.620056e-002
2.439613e+003;1.642831e-002
2.441542e+003;1.675217e-002
2.443470e+003;1.690399e-002
2.445399e+003;1.678547e-002
2.447327e+003;1.675248e-002
2.449256e+003;1.685208e-002
2.451185e+003;1.688718e-002
2.453113e+003;1.701197e-002
2.455042e+003;1.717261e-002
2.456970e+003;1.717295e-002
2.458899e+003;1.709682e-002
2.460827e+003;1.719464e-002
2.462756e+003;1.736034e-002
2.464684e+003;1.770009e-002
2.466613e+003;1.775993e-002
2.468542e+003;1.767434e-002
2.470470e+003;1.775010e-002
2.472398e+003;1.772697e-002
2.474327e+003;1.762451e-002
2.476256e+003;1.773356e-002
2.478184e+003;1.796612e-002
2.480113e+003;1.794157e-002
2.482041e+003;1.778116e-002
2.483970e+003;1.778372e-002
2.485898e+003;1.792451e-002
2.487827e+003;1.788156e-002
2.489755e+003;1.779425e-002
2.491684e+003;1.782521e-002
2.493613e+003;1.793711e-002
2.495541e+003;1.819189e-002
2.497470e+003;1.831654e-002
2.499398e+003;1.805761e-002
2.501327e+003;1.788238e-002
2.503255e+003;1.813751e-002
2.505184e+003;1.862337e-002
2.507112e+003;1.892213e-002
2.509041e+003;1.910286e-002
2.510969e+003;1.910348e-002
2.512898e+003;1.913686e-002
2.514827e+003;1.937932e-002
2.516755e+003;1.941833e-002
2.518684e+003;1.951844e-002
2.520612e+003;1.988225e-002
2.522541e+003;1.999434e-002
2.524469e+003;1.990910e-002
2.526398e+003;2.002383e-002
2.528326e+003;2.045012e-002
2.530255e+003;2.085588e-002
2.532184e+003;2.110159e-002
2.534112e+003;2.108416e-002
2.536041e+003;2.083432e-002
2.537969e+003;2.091915e-002
2.539898e+003;2.115425e-002
2.541826e+003;2.122488e-002
2.543755e+003;2.132384e-002
2.545683e+003;2.147633e-002
2.547612e+003;2.144841e-002
2.549541e+003;2.126503e-002
2.551469e+003;2.142902e-002
2.553397e+003;2.182266e-002
2.555326e+003;2.185325e-002
2.557255e+003;2.156355e-002
2.559183e+003;2.136080e-002
2.561112e+003;2.143561e-002
2.563040e+003;2.183047e-002
2.564969e+003;2.201363e-002
2.566897e+003;2.202754e-002
2.568826e+003;2.207471e-002
2.570754e+003;2.203615e-002
2.572683e+003;2.208956e-002
2.574612e+003;2.233953e-002
2.576540e+003;2.250180e-002
2.578469e+003;2.255073e-002
2.580397e+003;2.231574e-002
2.582326e+003;2.218147e-002
2.584254e+003;2.254469e-002
2.586183e+003;2.288100e-002
2.588111e+003;2.288565e-002
2.590040e+003;2.264922e-002
2.591969e+003;2.284451e-002
2.593897e+003;2.323796e-002
2.595826e+003;2.334218e-002
2.597754e+003;2.342431e-002
2.599683e+003;2.342414e-002
2.601611e+003;2.321444e-002
2.603540e+003;2.311868e-002
2.605468e+003;2.325261e-002
2.607397e+003;2.355900e-002
2.609325e+003;2.364885e-002
2.611254e+003;2.365945e-002
2.613183e+003;2.375365e-002
2.615111e+003;2.406670e-002
2.617040e+003;2.428035e-002
2.618968e+003;2.425898e-002
2.620897e+003;2.427958e-002
2.622825e+003;2.437150e-002
2.624754e+003;2.429475e-002
2.626682e+003;2.436299e-002
2.628611e+003;2.464236e-002
2.630540e+003;2.479945e-002
2.632468e+003;2.495212e-002
2.634396e+003;2.498676e-002
2.636325e+003;2.504983e-002
2.638254e+003;2.520522e-002
2.640182e+003;2.519114e-002
2.642111e+003;2.529259e-002
2.644039e+003;2.542249e-002
2.645968e+003;2.544452e-002
2.647896e+003;2.544947e-002
2.649825e+003;2.562117e-002
2.651753e+003;2.576645e-002
2.653682e+003;2.587982e-002
2.655611e+003;2.620395e-002
2.657539e+003;2.621514e-002
2.659468e+003;2.594236e-002
2.661396e+003;2.576867e-002
2.663325e+003;2.607593e-002
2.665253e+003;2.637718e-002
2.667182e+003;2.649814e-002
2.669110e+003;2.683570e-002
2.671039e+003;2.689999e-002
2.672968e+003;2.704437e-002
2.674896e+003;2.715307e-002
2.676825e+003;2.715945e-002
2.678753e+003;2.739069e-002
2.680682e+003;2.753223e-002
2.682610e+003;2.768013e-002
2.684539e+003;2.797313e-002
2.686467e+003;2.843157e-002
2.688396e+003;2.863259e-002
2.690324e+003;2.850541e-002
2.692253e+003;2.870186e-002
2.694182e+003;2.895262e-002
2.696110e+003;2.886440e-002
2.698039e+003;2.900391e-002
2.699967e+003;2.940057e-002
2.701896e+003;2.977329e-002
2.703824e+003;2.982325e-002
2.705753e+003;2.974675e-002
2.707681e+003;3.006362e-002
2.709610e+003;3.036068e-002
2.711539e+003;3.038687e-002
2.713467e+003;3.096328e-002
2.715396e+003;3.132819e-002
2.717324e+003;3.144737e-002
2.719253e+003;3.183707e-002
2.721181e+003;3.216125e-002
2.723110e+003;3.232845e-002
2.725038e+003;3.269001e-002
2.726967e+003;3.290230e-002
2.728896e+003;3.289426e-002
2.730824e+003;3.292632e-002
2.732752e+003;3.311073e-002
2.734681e+003;3.343951e-002
2.736610e+003;3.403493e-002
2.738538e+003;3.456103e-002
2.740467e+003;3.456763e-002
2.742395e+003;3.468397e-002
2.744324e+003;3.497167e-002
2.746252e+003;3.490492e-002
2.748181e+003;3.480722e-002
2.750109e+003;3.502849e-002
2.752038e+003;3.548218e-002
2.753967e+003;3.582648e-002
2.755895e+003;3.589172e-002
2.757824e+003;3.603746e-002
2.759752e+003;3.610364e-002
2.761681e+003;3.602007e-002
2.763609e+003;3.615920e-002
2.765538e+003;3.640093e-002
2.767466e+003;3.661198e-002
2.769395e+003;3.692196e-002
2.771323e+003;3.735038e-002
2.773252e+003;3.756420e-002
2.775181e+003;3.795126e-002
2.777109e+003;3.833936e-002
2.779038e+003;3.848846e-002
2.780966e+003;3.878468e-002
2.782895e+003;3.906040e-002
2.784823e+003;3.928315e-002
2.786752e+003;3.973271e-002
2.788680e+003;4.019254e-002
2.790609e+003;4.045599e-002
2.792538e+003;4.066145e-002
2.794466e+003;4.093381e-002
2.796395e+003;4.142186e-002
2.798323e+003;4.196738e-002
2.800252e+003;4.231470e-002
2.802180e+003;4.276562e-002
2.804109e+003;4.347017e-002
2.806037e+003;4.406594e-002
2.807966e+003;4.454130e-002
2.809895e+003;4.524447e-002
2.811823e+003;4.598223e-002
2.813751e+003;4.662846e-002
2.815680e+003;4.720277e-002
2.817609e+003;4.792940e-002
2.819537e+003;4.862460e-002
2.821466e+003;4.911409e-002
2.823394e+003;4.970173e-002
2.825323e+003;5.033499e-002
2.827251e+003;5.110312e-002
2.829180e+003;5.178120e-002
2.831108e+003;5.258177e-002
2.833037e+003;5.383869e-002
2.834966e+003;5.541142e-002
2.836894e+003;5.735896e-002
2.838823e+003;5.998935e-002
2.840751e+003;6.297646e-002
2.842680e+003;6.635374e-002
2.844608e+003;7.047272e-002
2.846537e+003;7.486138e-002
2.848465e+003;7.923117e-002
2.850394e+003;8.332887e-002
2.852323e+003;8.671200e-002
2.854251e+003;8.949976e-002
2.856180e+003;9.192330e-002
2.858108e+003;9.370238e-002
2.860037e+003;9.451973e-002
2.861965e+003;9.430011e-002
2.863894e+003;9.330943e-002
2.865822e+003;9.184591e-002
2.867751e+003;8.999022e-002
2.869679e+003;8.752103e-002
2.871608e+003;8.487179e-002
2.873536e+003;8.217162e-002
2.875465e+003;7.960899e-002
2.877394e+003;7.767017e-002
2.879322e+003;7.612675e-002
2.881251e+003;7.519822e-002
2.883179e+003;7.482831e-002
2.885108e+003;7.488737e-002
2.887036e+003;7.510383e-002
2.888965e+003;7.595492e-002
2.890893e+003;7.720058e-002
2.892822e+003;7.830194e-002
2.894750e+003;7.966838e-002
2.896679e+003;8.136697e-002
2.898608e+003;8.334465e-002
2.900536e+003;8.503098e-002
2.902465e+003;8.642914e-002
2.904393e+003;8.766121e-002
2.906322e+003;8.915644e-002
2.908250e+003;9.112573e-002
2.910179e+003;9.356529e-002
2.912107e+003;9.615678e-002
2.914036e+003;9.851671e-002
2.915965e+003;1.012453e-001
2.917893e+003;1.040521e-001
2.919822e+003;1.067580e-001
2.921750e+003;1.094518e-001
2.923679e+003;1.123062e-001
2.925607e+003;1.149163e-001
2.927536e+003;1.170247e-001
2.929464e+003;1.184797e-001
2.931393e+003;1.190056e-001
2.933322e+003;1.184006e-001
2.935250e+003;1.173877e-001
2.937178e+003;1.157068e-001
2.939107e+003;1.130836e-001
2.941036e+003;1.100715e-001
2.942964e+003;1.067459e-001
2.944893e+003;1.030808e-001
2.946821e+003;9.927842e-002
2.948750e+003;9.521941e-002
2.950678e+003;9.053198e-002
2.952607e+003;8.577055e-002
2.954535e+003;8.161364e-002
2.956464e+003;7.813872e-002
2.958393e+003;7.467636e-002
2.960321e+003;7.105472e-002
2.962250e+003;6.818257e-002
2.964178e+003;6.568667e-002
2.966107e+003;6.305718e-002
2.968035e+003;6.040862e-002
2.969964e+003;5.787423e-002
2.971892e+003;5.568578e-002
2.973821e+003;5.396822e-002
2.975750e+003;5.228616e-002
2.977678e+003;5.070404e-002
2.979607e+003;4.936657e-002
2.981535e+003;4.797539e-002
2.983464e+003;4.675682e-002
2.985392e+003;4.597030e-002
2.987321e+003;4.526746e-002
2.989249e+003;4.461565e-002
2.991178e+003;4.390264e-002
2.993106e+003;4.308314e-002
2.995035e+003;4.268208e-002
2.996964e+003;4.271052e-002
2.998892e+003;4.235901e-002
3.000821e+003;4.201424e-002
3.002749e+003;4.186874e-002
3.004678e+003;4.154970e-002
3.006606e+003;4.145568e-002
3.008535e+003;4.186506e-002
3.010463e+003;4.198023e-002
3.012392e+003;4.190480e-002
3.014321e+003;4.216848e-002
3.016249e+003;4.255075e-002
3.018177e+003;4.269806e-002
3.020106e+003;4.276606e-002
3.022035e+003;4.306433e-002
3.023963e+003;4.364127e-002
3.025892e+003;4.396104e-002
3.027820e+003;4.415881e-002
3.029749e+003;4.458066e-002
3.031677e+003;4.505315e-002
3.033606e+003;4.558111e-002
3.035534e+003;4.591513e-002
3.037463e+003;4.652755e-002
3.039392e+003;4.759109e-002
3.041320e+003;4.842189e-002
3.043249e+003;4.881605e-002
3.045177e+003;4.904175e-002
3.047106e+003;4.966202e-002
3.049034e+003;5.052173e-002
3.050963e+003;5.110461e-002
3.052891e+003;5.142369e-002
3.054820e+003;5.200348e-002
3.056749e+003;5.260080e-002
3.058677e+003;5.319910e-002
3.060606e+003;5.389202e-002
3.062534e+003;5.423757e-002
3.064463e+003;5.453733e-002
3.066391e+003;5.509323e-002
3.068320e+003;5.551115e-002
3.070248e+003;5.588614e-002
3.072177e+003;5.593479e-002
3.074105e+003;5.586568e-002
3.076034e+003;5.616645e-002
3.077963e+003;5.650785e-002
3.079891e+003;5.646702e-002
3.081820e+003;5.575396e-002
3.083748e+003;5.531526e-002
3.085677e+003;5.536761e-002
3.087605e+003;5.518992e-002
3.089534e+003;5.464787e-002
3.091462e+003;5.397801e-002
3.093391e+003;5.354949e-002
3.095320e+003;5.313573e-002
3.097248e+003;5.260757e-002
3.099177e+003;5.213549e-002
3.101105e+003;5.166994e-002
3.103034e+003;5.102757e-002
3.104962e+003;5.046851e-002
3.106891e+003;4.989552e-002
3.108819e+003;4.931831e-002
3.110748e+003;4.918344e-002
3.112677e+003;4.912493e-002
3.114605e+003;4.849291e-002
3.116533e+003;4.783584e-002
3.118462e+003;4.735738e-002
3.120391e+003;4.704297e-002
3.122319e+003;4.719206e-002
3.124248e+003;4.726376e-002
3.126176e+003;4.717366e-002
3.128105e+003;4.703134e-002
3.130033e+003;4.689552e-002
3.131962e+003;4.672313e-002
3.133890e+003;4.675999e-002
3.135819e+003;4.701705e-002
3.137748e+003;4.713935e-002
3.139676e+003;4.711900e-002
3.141605e+003;4.730773e-002
3.143533e+003;4.774044e-002
3.145462e+003;4.779677e-002
3.147390e+003;4.796174e-002
3.149319e+003;4.833289e-002
3.151247e+003;4.873468e-002
3.153176e+003;4.908352e-002
3.155104e+003;4.936660e-002
3.157033e+003;4.945092e-002
3.158962e+003;4.984720e-002
3.160890e+003;5.024366e-002
3.162819e+003;5.053364e-002
3.164747e+003;5.102448e-002
3.166676e+003;5.174052e-002
3.168604e+003;5.233785e-002
3.170533e+003;5.271238e-002
3.172461e+003;5.328907e-002
3.174390e+003;5.377335e-002
3.176319e+003;5.405114e-002
3.178247e+003;5.432809e-002
3.180176e+003;5.502752e-002
3.182104e+003;5.577366e-002
3.184033e+003;5.640423e-002
3.185961e+003;5.676251e-002
3.187890e+003;5.701512e-002
3.189818e+003;5.724701e-002
3.191747e+003;5.776681e-002
3.193676e+003;5.843439e-002
3.195604e+003;5.897550e-002
3.197532e+003;5.946924e-002
3.199461e+003;5.989882e-002
3.201390e+003;6.029623e-002
3.203318e+003;6.042682e-002
3.205247e+003;6.075852e-002
3.207175e+003;6.122145e-002
3.209104e+003;6.139213e-002
3.211032e+003;6.169595e-002
3.212961e+003;6.251674e-002
3.214889e+003;6.308200e-002
3.216818e+003;6.343218e-002
3.218747e+003;6.412885e-002
3.220675e+003;6.450040e-002
3.222604e+003;6.484472e-002
3.224532e+003;6.567858e-002
3.226461e+003;6.667585e-002
3.228389e+003;6.772467e-002
3.230318e+003;6.853274e-002
3.232246e+003;6.927044e-002
3.234175e+003;7.006360e-002
3.236104e+003;7.136086e-002
3.238032e+003;7.321137e-002
3.239961e+003;7.467750e-002
3.241889e+003;7.566774e-002
3.243818e+003;7.691692e-002
3.245746e+003;7.844739e-002
3.247675e+003;8.000666e-002
3.249603e+003;8.155295e-002
3.251532e+003;8.306292e-002
3.253460e+003;8.474664e-002
3.255389e+003;8.610009e-002
3.257318e+003;8.724004e-002
3.259246e+003;8.896372e-002
3.261175e+003;9.045235e-002
3.263103e+003;9.185857e-002
3.265032e+003;9.322011e-002
3.266960e+003;9.442475e-002
3.268889e+003;9.584432e-002
3.270817e+003;9.678495e-002
3.272746e+003;9.765442e-002
3.274675e+003;9.901027e-002
3.276603e+003;1.003401e-001
3.278531e+003;1.014728e-001
3.280460e+003;1.025363e-001
3.282389e+003;1.034182e-001
3.284317e+003;1.039006e-001
3.286246e+003;1.042834e-001
3.288174e+003;1.048267e-001
3.290103e+003;1.050895e-001
3.292031e+003;1.053464e-001
3.293960e+003;1.057303e-001
3.295888e+003;1.054127e-001
3.297817e+003;1.046885e-001
3.299746e+003;1.036991e-001
3.301674e+003;1.027615e-001
3.303603e+003;1.016512e-001
3.305531e+003;1.004768e-001
3.307460e+003;9.947948e-002
3.309388e+003;9.842739e-002
3.311317e+003;9.694572e-002
3.313245e+003;9.477007e-002
3.315174e+003;9.273681e-002
3.317103e+003;9.112266e-002
3.319031e+003;8.955147e-002
3.320960e+003;8.806750e-002
3.322888e+003;8.634914e-002
3.324817e+003;8.463719e-002
3.326745e+003;8.305221e-002
3.328674e+003;8.145921e-002
3.330602e+003;7.978152e-002
3.332531e+003;7.792652e-002
3.334459e+003;7.601184e-002
3.336388e+003;7.453708e-002
3.338317e+003;7.355713e-002
3.340245e+003;7.220913e-002
3.342174e+003;7.045954e-002
3.344102e+003;6.931852e-002
3.346031e+003;6.819753e-002
3.347959e+003;6.682499e-002
3.349888e+003;6.524441e-002
3.351816e+003;6.377823e-002
3.353745e+003;6.249539e-002
3.355674e+003;6.125307e-002
3.357602e+003;6.004904e-002
3.359531e+003;5.946544e-002
3.361459e+003;5.882526e-002
3.363388e+003;5.786689e-002
3.365316e+003;5.718540e-002
3.367245e+003;5.634217e-002
3.369173e+003;5.510613e-002
3.371102e+003;5.421125e-002
3.373031e+003;5.356099e-002
3.374959e+003;5.273625e-002
3.376887e+003;5.219595e-002
3.378816e+003;5.158485e-002
3.380745e+003;5.086971e-002
3.382673e+003;5.063605e-002
3.384602e+003;5.027811e-002
3.386530e+003;4.925202e-002
3.388459e+003;4.850272e-002
3.390387e+003;4.817345e-002
3.392316e+003;4.799649e-002
3.394244e+003;4.764751e-002
3.396173e+003;4.708108e-002
3.398102e+003;4.657239e-002
3.400030e+003;4.619648e-002
3.401959e+003;4.596831e-002
3.403887e+003;4.592168e-002
3.405816e+003;4.542087e-002
3.407744e+003;4.503467e-002
3.409673e+003;4.448484e-002
3.411601e+003;4.401303e-002
3.413530e+003;4.386840e-002
3.415458e+003;4.364354e-002
3.417387e+003;4.330071e-002
3.419316e+003;4.302606e-002
3.421244e+003;4.264856e-002
3.423173e+003;4.202308e-002
3.425101e+003;4.169853e-002
3.427030e+003;4.134867e-002
3.428958e+003;4.088852e-002
3.430887e+003;4.061626e-002
3.432815e+003;4.063456e-002
3.434744e+003;4.025063e-002
3.436673e+003;3.973122e-002
3.438601e+003;3.959047e-002
3.440530e+003;3.935533e-002
3.442458e+003;3.911934e-002
3.444387e+003;3.883674e-002
3.446315e+003;3.879105e-002
3.448244e+003;3.868169e-002
3.450172e+003;3.815294e-002
3.452101e+003;3.744579e-002
3.454030e+003;3.685733e-002
3.455958e+003;3.625186e-002
3.457886e+003;3.572235e-002
3.459815e+003;3.522838e-002
3.461744e+003;3.485731e-002
3.463672e+003;3.480931e-002
3.465601e+003;3.447058e-002
3.467529e+003;3.390283e-002
3.469458e+003;3.374874e-002
3.471386e+003;3.375497e-002
3.473315e+003;3.351567e-002
3.475243e+003;3.309303e-002
3.477172e+003;3.290749e-002
3.479101e+003;3.284051e-002
3.481029e+003;3.259353e-002
3.482958e+003;3.236679e-002
3.484886e+003;3.219687e-002
3.486815e+003;3.205366e-002
3.488743e+003;3.181657e-002
3.490672e+003;3.152193e-002
3.492600e+003;3.128140e-002
3.494529e+003;3.148595e-002
3.496458e+003;3.144623e-002
3.498386e+003;3.095506e-002
3.500315e+003;3.093475e-002
3.502243e+003;3.076762e-002
3.504172e+003;3.005133e-002
3.506100e+003;2.955312e-002
3.508029e+003;2.930631e-002
3.509957e+003;2.934580e-002
3.511886e+003;2.916075e-002
3.513814e+003;2.868299e-002
3.515743e+003;2.829869e-002
3.517672e+003;2.851744e-002
3.519600e+003;2.835481e-002
3.521529e+003;2.743494e-002
3.523457e+003;2.648895e-002
3.525386e+003;2.598502e-002
3.527314e+003;2.627477e-002
3.529243e+003;2.629406e-002
3.531171e+003;2.562718e-002
3.533100e+003;2.495300e-002
3.535029e+003;2.446726e-002
3.536957e+003;2.424787e-002
3.538885e+003;2.452233e-002
3.540814e+003;2.428897e-002
3.542743e+003;2.391382e-002
3.544671e+003;2.357156e-002
3.546600e+003;2.304229e-002
3.548528e+003;2.291426e-002
3.550457e+003;2.270124e-002
3.552385e+003;2.217174e-002
3.554314e+003;2.168126e-002
3.556242e+003;2.183796e-002
3.558171e+003;2.177988e-002
3.560100e+003;2.145886e-002
3.562028e+003;2.109877e-002
3.563957e+003;2.051935e-002
3.565885e+003;1.992624e-002
3.567814e+003;1.978469e-002
3.569742e+003;1.977356e-002
3.571671e+003;1.959161e-002
3.573599e+003;1.893438e-002
3.575528e+003;1.815838e-002
3.577457e+003;1.777882e-002
3.579385e+003;1.755192e-002
3.581314e+003;1.738928e-002
3.583242e+003;1.732920e-002
3.585171e+003;1.682246e-002
3.587099e+003;1.643054e-002
3.589028e+003;1.641107e-002
3.590956e+003;1.577886e-002
3.592885e+003;1.561022e-002
3.594813e+003;1.582580e-002
3.596742e+003;1.523134e-002
3.598671e+003;1.475494e-002
3.600599e+003;1.441434e-002
3.602528e+003;1.401703e-002
3.604456e+003;1.373876e-002
3.606385e+003;1.339513e-002
3.608313e+003;1.310128e-002
3.610242e+003;1.244346e-002
3.612170e+003;1.228650e-002
3.614099e+003;1.243579e-002
3.616028e+003;1.224908e-002
3.617956e+003;1.187860e-002
3.619885e+003;1.161640e-002
3.621813e+003;1.108633e-002
3.623742e+003;1.082879e-002
3.625670e+003;1.084792e-002
3.627599e+003;1.065181e-002
3.629527e+003;1.030810e-002
3.631456e+003;9.895674e-003
3.633385e+003;9.491429e-003
3.635313e+003;8.908713e-003
3.637241e+003;8.819503e-003
3.639170e+003;8.633161e-003
3.641099e+003;7.930738e-003
3.643027e+003;7.113907e-003
3.644956e+003;7.015704e-003
3.646884e+003;7.446064e-003
3.648813e+003;7.688317e-003
3.650741e+003;7.353919e-003
3.652670e+003;6.968799e-003
3.654598e+003;6.805934e-003
3.656527e+003;6.349813e-003
3.658456e+003;5.983992e-003
3.660384e+003;5.780729e-003
3.662313e+003;5.394821e-003
3.664241e+003;5.257631e-003
3.666170e+003;5.362784e-003
3.668098e+003;5.297006e-003
3.670027e+003;5.261890e-003
3.671955e+003;5.195691e-003
3.673884e+003;5.356041e-003
3.675813e+003;5.326523e-003
3.677741e+003;5.215811e-003
3.679669e+003;5.096613e-003
3.681598e+003;4.469207e-003
3.683527e+003;3.856312e-003
3.685455e+003;3.364440e-003
3.687384e+003;3.166773e-003
3.689312e+003;2.885867e-003
3.691241e+003;2.694952e-003
3.693169e+003;2.833002e-003
3.695098e+003;3.065687e-003
3.697026e+003;2.915920e-003
3.698955e+003;2.542413e-003
3.700884e+003;2.295752e-003
3.702812e+003;2.196234e-003
3.704741e+003;2.245690e-003
3.706669e+003;2.330962e-003
3.708598e+003;2.050462e-003
3.710526e+003;1.956525e-003
3.712455e+003;2.027392e-003
3.714383e+003;1.882842e-003
3.716312e+003;1.803115e-003
3.718240e+003;1.928934e-003
3.720169e+003;1.988712e-003
3.722098e+003;1.977694e-003
3.724026e+003;1.724800e-003
3.725955e+003;1.759132e-003
3.727883e+003;2.078594e-003
3.729812e+003;2.220179e-003
3.731740e+003;2.180482e-003
3.733669e+003;1.917952e-003
3.735597e+003;1.906370e-003
3.737526e+003;1.776399e-003
3.739455e+003;1.659205e-003
3.741383e+003;2.024896e-003
3.743312e+003;1.823578e-003
3.745240e+003;1.469194e-003
3.747169e+003;1.812365e-003
3.749097e+003;2.170426e-003
3.751026e+003;2.422147e-003
3.752954e+003;2.459900e-003
3.754883e+003;2.311608e-003
3.756812e+003;2.186776e-003
3.758740e+003;2.144153e-003
3.760668e+003;2.027892e-003
3.762597e+003;2.168927e-003
3.764526e+003;2.171491e-003
3.766454e+003;2.008019e-003
3.768383e+003;1.794431e-003
3.770311e+003;1.754374e-003
3.772240e+003;1.827704e-003
3.774168e+003;1.996501e-003
3.776097e+003;2.448104e-003
3.778025e+003;2.513218e-003
3.779954e+003;1.909631e-003
3.781883e+003;1.876020e-003
3.783811e+003;2.321368e-003
3.785740e+003;2.149447e-003
3.787668e+003;2.020535e-003
3.789597e+003;2.306011e-003
3.791525e+003;2.335026e-003
3.793454e+003;2.327997e-003
3.795382e+003;2.305812e-003
3.797311e+003;2.552479e-003
3.799240e+003;2.629676e-003
3.801168e+003;2.308043e-003
3.803097e+003;2.070637e-003
3.805025e+003;1.996235e-003
3.806954e+003;1.982987e-003
3.808882e+003;1.782121e-003
3.810811e+003;2.064611e-003
3.812739e+003;2.615142e-003
3.814668e+003;2.799353e-003
3.816596e+003;2.657479e-003
3.818525e+003;2.312474e-003
3.820454e+003;2.327264e-003
3.822382e+003;2.598709e-003
3.824311e+003;2.887735e-003
3.826239e+003;2.990481e-003
3.828168e+003;2.771074e-003
3.830096e+003;2.453302e-003
3.832025e+003;2.385664e-003
3.833953e+003;2.346119e-003
3.835882e+003;2.467597e-003
3.837811e+003;2.740830e-003
3.839739e+003;2.774275e-003
3.841667e+003;2.829934e-003
3.843596e+003;2.802521e-003
3.845525e+003;2.744998e-003
3.847453e+003;2.852180e-003
3.849382e+003;3.232763e-003
3.851310e+003;3.493385e-003
3.853239e+003;3.231461e-003
3.855167e+003;3.297261e-003
3.857096e+003;3.350750e-003
3.859024e+003;2.814426e-003
3.860953e+003;2.293653e-003
3.862882e+003;2.222044e-003
3.864810e+003;2.832535e-003
3.866739e+003;3.722246e-003
3.868667e+003;3.662096e-003
3.870596e+003;3.475816e-003
3.872524e+003;3.613681e-003
3.874453e+003;3.644787e-003
3.876381e+003;3.719506e-003
3.878310e+003;3.624907e-003
3.880239e+003;3.485536e-003
3.882167e+003;3.346776e-003
3.884096e+003;3.371352e-003
3.886024e+003;3.395896e-003
3.887953e+003;3.639842e-003
3.889881e+003;3.744738e-003
3.891810e+003;3.647527e-003
3.893738e+003;3.841369e-003
3.895667e+003;4.317952e-003
3.897595e+003;4.618204e-003
3.899524e+003;4.300550e-003
3.901453e+003;4.208769e-003
3.903381e+003;4.371231e-003
3.905310e+003;4.168422e-003
3.907238e+003;4.094763e-003
3.909167e+003;4.407781e-003
3.911095e+003;4.224126e-003
3.913024e+003;4.383984e-003
3.914952e+003;4.828595e-003
3.916881e+003;4.965985e-003
3.918810e+003;5.078509e-003
3.920738e+003;4.707962e-003
3.922667e+003;5.121724e-003
3.924595e+003;5.635831e-003
3.926524e+003;5.184391e-003
3.928452e+003;4.810201e-003
3.930381e+003;4.829968e-003
3.932309e+003;5.248006e-003
3.934238e+003;5.967128e-003
3.936167e+003;6.292054e-003
3.938095e+003;6.125074e-003
3.940023e+003;5.822537e-003
3.941952e+003;5.415689e-003
3.943881e+003;5.517961e-003
3.945809e+003;5.880199e-003
3.947738e+003;5.732917e-003
3.949666e+003;5.599882e-003
3.951595e+003;6.169099e-003
3.953523e+003;6.655444e-003
3.955452e+003;6.521757e-003
3.957380e+003;6.035695e-003
3.959309e+003;6.039693e-003
3.961238e+003;6.502182e-003
3.963166e+003;6.337878e-003
3.965095e+003;6.354588e-003
3.967023e+003;6.905841e-003
3.968952e+003;7.070595e-003
3.970880e+003;7.231336e-003
3.972809e+003;7.215603e-003
3.974737e+003;7.030487e-003
3.976666e+003;6.940719e-003
3.978594e+003;6.774533e-003
3.980523e+003;6.853057e-003
3.982452e+003;7.051130e-003
3.984380e+003;7.017152e-003
3.986309e+003;7.172112e-003
3.988237e+003;6.971257e-003
3.990166e+003;6.987991e-003
3.992094e+003;7.444682e-003
3.994023e+003;7.343540e-003
3.995951e+003;7.239119e-003
3.997880e+003;7.426885e-003
3.999809e+003;7.676918e-003
4.001737e+003;0.000000e+000
