3.992094e+002;0.000000e+000
4.011380e+002;0.000000e+000
4.030665e+002;0.000000e+000
4.049951e+002;0.000000e+000
4.069236e+002;0.000000e+000
4.088522e+002;0.000000e+000
4.107807e+002;0.000000e+000
4.127093e+002;0.000000e+000
4.146378e+002;0.000000e+000
4.165664e+002;0.000000e+000
4.184949e+002;0.000000e+000
4.204235e+002;0.000000e+000
4.223520e+002;0.000000e+000
4.242806e+002;0.000000e+000
4.262091e+002;0.000000e+000
4.281377e+002;0.000000e+000
4.300662e+002;0.000000e+000
4.319948e+002;0.000000e+000
4.339233e+002;0.000000e+000
4.358519e+002;0.000000e+000
4.377804e+002;0.000000e+000
4.397090e+002;0.000000e+000
4.416375e+002;0.000000e+000
4.435660e+002;0.000000e+000
4.454946e+002;0.000000e+000
4.474232e+002;0.000000e+000
4.493517e+002;0.000000e+000
4.512802e+002;0.000000e+000
4.532088e+002;0.000000e+000
4.551373e+002;0.000000e+000
4.570659e+002;0.000000e+000
4.589944e+002;0.000000e+000
4.609230e+002;0.000000e+000
4.628515e+002;0.000000e+000
4.647801e+002;0.000000e+000
4.667086e+002;0.000000e+000
4.686372e+002;0.000000e+000
4.705657e+002;0.000000e+000
4.724943e+002;0.000000e+000
4.744228e+002;0.000000e+000
4.763513e+002;0.000000e+000
4.782799e+002;0.000000e+000
4.802085e+002;0.000000e+000
4.821370e+002;0.000000e+000
4.840656e+002;0.000000e+000
4.859941e+002;0.000000e+000
4.879226e+002;0.000000e+000
4.898512e+002;0.000000e+000
4.917798e+002;0.000000e+000
4.937083e+002;0.000000e+000
4.956368e+002;0.000000e+000
4.975654e+002;0.000000e+000
4.994939e+002;0.000000e+000
5.014225e+002;0.000000e+000
5.033510e+002;0.000000e+000
5.052796e+002;0.000000e+000
5.072081e+002;0.000000e+000
5.091367e+002;0.000000e+000
5.110652e+002;0.000000e+000
5.129938e+002;0.000000e+000
5.149223e+002;0.000000e+000
5.168509e+002;0.000000e+000
5.187794e+002;0.000000e+000
5.207079e+002;0.000000e+000
5.226365e+002;0.000000e+000
5.245651e+002;0.000000e+000
5.264936e+002;0.000000e+000
5.284222e+002;0.000000e+000
5.303507e+002;0.000000e+000
5.322792e+002;0.000000e+000
5.342078e+002;0.000000e+000
5.361364e+002;0.000000e+000
5.380649e+002;0.000000e+000
5.399935e+002;0.000000e+000
5.419220e+002;0.000000e+000
5.438505e+002;0.000000e+000
5.457791e+002;0.000000e+000
5.477076e+002;0.000000e+000
5.496362e+002;0.000000e+000
5.515648e+002;0.000000e+000
5.534933e+002;0.000000e+000
5.554218e+002;0.000000e+000
5.573504e+002;0.000000e+000
5.592789e+002;0.000000e+000
5.612075e+002;0.000000e+000
5.631360e+002;0.000000e+000
5.650646e+002;0.000000e+000
5.669931e+002;0.000000e+000
5.689217e+002;0.000000e+000
5.708502e+002;0.000000e+000
5.727787e+002;0.000000e+000
5.747073e+002;0.000000e+000
5.766359e+002;0.000000e+000
5.785644e+002;0.000000e+000
5.804930e+002;0.000000e+000
5.824215e+002;0.000000e+000
5.843500e+002;0.000000e+000
5.862786e+002;0.000000e+000
5.882072e+002;0.000000e+000
5.901357e+002;0.000000e+000
5.920643e+002;0.000000e+000
5.939928e+002;0.000000e+000
5.959213e+002;0.000000e+000
5.978499e+002;0.000000e+000
5.997784e+002;5.518728e-002
6.017070e+002;4.790916e-002
6.036355e+002;4.820914e-002
6.055641e+002;5.309279e-002
6.074926e+002;5.262512e-002
6.094211e+002;4.598448e-002
6.113497e+002;3.959327e-002
6.132783e+002;4.011822e-002
6.152068e+002;4.381565e-002
6.171354e+002;4.325822e-002
6.190639e+002;4.262656e-002
6.209924e+002;3.878671e-002
6.229210e+002;3.429848e-002
6.248495e+002;3.689830e-002
6.267781e+002;3.991189e-002
6.287067e+002;3.745272e-002
6.306352e+002;3.895861e-002
6.325637e+002;4.334553e-002
6.344923e+002;4.172548e-002
6.364208e+002;3.665189e-002
6.383494e+002;3.505658e-002
6.402780e+002;3.660964e-002
6.422065e+002;3.619438e-002
6.441350e+002;3.485400e-002
6.460636e+002;3.752323e-002
6.479921e+002;3.993415e-002
6.499207e+002;3.849049e-002
6.518492e+002;3.818191e-002
6.537778e+002;3.937053e-002
6.557063e+002;3.672638e-002
6.576349e+002;3.342355e-002
6.595634e+002;3.290841e-002
6.614919e+002;3.447884e-002
6.634205e+002;3.586322e-002
6.653491e+002;3.510626e-002
6.672776e+002;3.126029e-002
6.692062e+002;3.090956e-002
6.711347e+002;3.378627e-002
6.730632e+002;3.581950e-002
6.749918e+002;3.655301e-002
6.769203e+002;3.487299e-002
6.788489e+002;3.307668e-002
6.807775e+002;3.101278e-002
6.827060e+002;3.015478e-002
6.846345e+002;3.160192e-002
6.865631e+002;3.253510e-002
6.884916e+002;3.132221e-002
6.904202e+002;2.973227e-002
6.923488e+002;2.834194e-002
6.942773e+002;2.671940e-002
6.962058e+002;2.656196e-002
6.981344e+002;2.673547e-002
7.000629e+002;2.685241e-002
7.019915e+002;2.681378e-002
7.039200e+002;2.617383e-002
7.058486e+002;2.594679e-002
7.077771e+002;2.624059e-002
7.097057e+002;2.655168e-002
7.116342e+002;2.614469e-002
7.135627e+002;2.494749e-002
7.154913e+002;2.513847e-002
7.174199e+002;2.579268e-002
7.193484e+002;2.599305e-002
7.212770e+002;2.667448e-002
7.232055e+002;2.651103e-002
7.251340e+002;2.711674e-002
7.270626e+002;2.911568e-002
7.289911e+002;2.912928e-002
7.309197e+002;2.846663e-002
7.328483e+002;2.931251e-002
7.347768e+002;3.105812e-002
7.367053e+002;3.173832e-002
7.386339e+002;3.213275e-002
7.405624e+002;3.216593e-002
7.424910e+002;3.304804e-002
7.444196e+002;3.365557e-002
7.463481e+002;3.381572e-002
7.482766e+002;3.564527e-002
7.502052e+002;3.699704e-002
7.521337e+002;3.869172e-002
7.540623e+002;3.958136e-002
7.559908e+002;3.895314e-002
7.579194e+002;3.934496e-002
7.598479e+002;4.143458e-002
7.617765e+002;4.320979e-002
7.637050e+002;4.341466e-002
7.656335e+002;4.278887e-002
7.675621e+002;4.249945e-002
7.694907e+002;4.258182e-002
7.714192e+002;4.228691e-002
7.733478e+002;4.311680e-002
7.752763e+002;4.339268e-002
7.772048e+002;4.310736e-002
7.791334e+002;4.304088e-002
7.810620e+002;4.332550e-002
7.829905e+002;4.363709e-002
7.849191e+002;4.441646e-002
7.868476e+002;4.572215e-002
7.887761e+002;4.634576e-002
7.907047e+002;4.577516e-002
7.926332e+002;4.521366e-002
7.945618e+002;4.563661e-002
7.964903e+002;4.702262e-002
7.984189e+002;4.774954e-002
8.003474e+002;4.728973e-002
8.022759e+002;4.615432e-002
8.042045e+002;4.578422e-002
8.061331e+002;4.549563e-002
8.080616e+002;4.506539e-002
8.099902e+002;4.486471e-002
8.119187e+002;4.504279e-002
8.138472e+002;4.460078e-002
8.157758e+002;4.351064e-002
8.177043e+002;4.266654e-002
8.196329e+002;4.183131e-002
8.215615e+002;4.201844e-002
8.234900e+002;4.180643e-002
8.254185e+002;4.097601e-002
8.273471e+002;4.030228e-002
8.292756e+002;3.896238e-002
8.312042e+002;3.780675e-002
8.331328e+002;3.769261e-002
8.350613e+002;3.705914e-002
8.369898e+002;3.591619e-002
8.389184e+002;3.552278e-002
8.408469e+002;3.498528e-002
8.427755e+002;3.508147e-002
8.447040e+002;3.552759e-002
8.466326e+002;3.525601e-002
8.485611e+002;3.471680e-002
8.504897e+002;3.441237e-002
8.524182e+002;3.501366e-002
8.543467e+002;3.510306e-002
8.562753e+002;3.484564e-002
8.582039e+002;3.518134e-002
8.601324e+002;3.636163e-002
8.620610e+002;3.722119e-002
8.639895e+002;3.753313e-002
8.659180e+002;3.822200e-002
8.678466e+002;3.866836e-002
8.697751e+002;3.879797e-002
8.717037e+002;3.888142e-002
8.736323e+002;3.899975e-002
8.755608e+002;3.912120e-002
8.774893e+002;3.931699e-002
8.794179e+002;3.927499e-002
8.813464e+002;3.985377e-002
8.832750e+002;3.990891e-002
8.852036e+002;3.910952e-002
8.871321e+002;3.886812e-002
8.890606e+002;3.868274e-002
8.909892e+002;3.871447e-002
8.929177e+002;3.902056e-002
8.948463e+002;3.895644e-002
8.967748e+002;3.866220e-002
8.987034e+002;3.852253e-002
9.006319e+002;3.908331e-002
9.025605e+002;3.981161e-002
9.044890e+002;4.003152e-002
9.064175e+002;4.054670e-002
9.083461e+002;4.118274e-002
9.102747e+002;4.177257e-002
9.122032e+002;4.193965e-002
9.141318e+002;4.229195e-002
9.160603e+002;4.326806e-002
9.179888e+002;4.428721e-002
9.199174e+002;4.486614e-002
9.218459e+002;4.577711e-002
9.237745e+002;4.673737e-002
9.257031e+002;4.765702e-002
9.276316e+002;4.881854e-002
9.295601e+002;5.030166e-002
9.314887e+002;5.196330e-002
9.334172e+002;5.332166e-002
9.353458e+002;5.405782e-002
9.372744e+002;5.470288e-002
9.392029e+002;5.469172e-002
9.411314e+002;5.412132e-002
9.430600e+002;5.386333e-002
9.449885e+002;5.321850e-002
9.469171e+002;5.254774e-002
9.488456e+002;5.193200e-002
9.507742e+002;5.098274e-002
9.527027e+002;5.009497e-002
9.546313e+002;4.942723e-002
9.565598e+002;4.869861e-002
9.584883e+002;4.818515e-002
9.604169e+002;4.792570e-002
9.623455e+002;4.789618e-002
9.642740e+002;4.775746e-002
9.662026e+002;4.720406e-002
9.681311e+002;4.657678e-002
9.700596e+002;4.624266e-002
9.719882e+002;4.628276e-002
9.739167e+002;4.626706e-002
9.758453e+002;4.605094e-002
9.777739e+002;4.601325e-002
9.797024e+002;4.582682e-002
9.816309e+002;4.611121e-002
9.835595e+002;4.674350e-002
9.854880e+002;4.715841e-002
9.874166e+002;4.751146e-002
9.893452e+002;4.797458e-002
9.912737e+002;4.867259e-002
9.932022e+002;4.964950e-002
9.951307e+002;5.066435e-002
9.970593e+002;5.170562e-002
9.989879e+002;5.306646e-002
1.000916e+003;5.490989e-002
1.002845e+003;5.683924e-002
1.004773e+003;5.880971e-002
1.006702e+003;6.120959e-002
1.008631e+003;6.387011e-002
1.010559e+003;6.707139e-002
1.012488e+003;7.084709e-002
1.014416e+003;7.437170e-002
1.016345e+003;7.773468e-002
1.018273e+003;8.095452e-002
1.020202e+003;8.405923e-002
1.022130e+003;8.597054e-002
1.024059e+003;8.689293e-002
1.025988e+003;8.805139e-002
1.027916e+003;8.826945e-002
1.029845e+003;8.789502e-002
1.031773e+003;8.799490e-002
1.033702e+003;8.816158e-002
1.035630e+003;8.881239e-002
1.037559e+003;8.974482e-002
1.039487e+003;9.012476e-002
1.041416e+003;9.079224e-002
1.043344e+003;9.078979e-002
1.045273e+003;9.000787e-002
1.047202e+003;8.956340e-002
1.049130e+003;8.920027e-002
1.051059e+003;8.906084e-002
1.052987e+003;8.956955e-002
1.054916e+003;9.039808e-002
1.056844e+003;9.143338e-002
1.058773e+003;9.211545e-002
1.060701e+003;9.330410e-002
1.062630e+003;9.530957e-002
1.064558e+003;9.680917e-002
1.066487e+003;9.735975e-002
1.068416e+003;9.785187e-002
1.070344e+003;9.757739e-002
1.072273e+003;9.665301e-002
1.074201e+003;9.597924e-002
1.076130e+003;9.531102e-002
1.078058e+003;9.413378e-002
1.079987e+003;9.265112e-002
1.081915e+003;9.125988e-002
1.083844e+003;8.965797e-002
1.085773e+003;8.740999e-002
1.087701e+003;8.559596e-002
1.089630e+003;8.357730e-002
1.091558e+003;8.144718e-002
1.093487e+003;7.973167e-002
1.095415e+003;7.816899e-002
1.097344e+003;7.663697e-002
1.099272e+003;7.619929e-002
1.101201e+003;7.527281e-002
1.103129e+003;7.337396e-002
1.105058e+003;7.174904e-002
1.106987e+003;7.018330e-002
1.108915e+003;6.881834e-002
1.110844e+003;6.812567e-002
1.112772e+003;6.677024e-002
1.114701e+003;6.459682e-002
1.116629e+003;6.276473e-002
1.118558e+003;6.166177e-002
1.120486e+003;5.962624e-002
1.122415e+003;5.672380e-002
1.124344e+003;5.477538e-002
1.126272e+003;5.288495e-002
1.128201e+003;5.048723e-002
1.130129e+003;4.771796e-002
1.132058e+003;4.472850e-002
1.133986e+003;4.252207e-002
1.135915e+003;4.131631e-002
1.137843e+003;4.035119e-002
1.139772e+003;3.972591e-002
1.141700e+003;3.922370e-002
1.143629e+003;3.916601e-002
1.145557e+003;3.926056e-002
1.147486e+003;3.898989e-002
1.149415e+003;3.841472e-002
1.151343e+003;3.800207e-002
1.153272e+003;3.808551e-002
1.155200e+003;3.862185e-002
1.157129e+003;3.927488e-002
1.159057e+003;3.983849e-002
1.160986e+003;4.095333e-002
1.162914e+003;4.231839e-002
1.164843e+003;4.348193e-002
1.166771e+003;4.522877e-002
1.168700e+003;4.752821e-002
1.170629e+003;4.949860e-002
1.172557e+003;5.110576e-002
1.174486e+003;5.232282e-002
1.176414e+003;5.392773e-002
1.178343e+003;5.552381e-002
1.180271e+003;5.718956e-002
1.182200e+003;5.872439e-002
1.184128e+003;5.993624e-002
1.186057e+003;6.128940e-002
1.187986e+003;6.243575e-002
1.189914e+003;6.377754e-002
1.191843e+003;6.514338e-002
1.193771e+003;6.637011e-002
1.195700e+003;6.802621e-002
1.197628e+003;6.995954e-002
1.199557e+003;7.196262e-002
1.201485e+003;7.452574e-002
1.203414e+003;7.726125e-002
1.205343e+003;7.984260e-002
1.207271e+003;8.303159e-002
1.209200e+003;8.737227e-002
1.211128e+003;9.226880e-002
1.213057e+003;9.740511e-002
1.214985e+003;1.026206e-001
1.216914e+003;1.077018e-001
1.218842e+003;1.130530e-001
1.220771e+003;1.182776e-001
1.222699e+003;1.228839e-001
1.224628e+003;1.273486e-001
1.226557e+003;1.315487e-001
1.228485e+003;1.343594e-001
1.230414e+003;1.353895e-001
1.232342e+003;1.359824e-001
1.234271e+003;1.359822e-001
1.236199e+003;1.347485e-001
1.238128e+003;1.327700e-001
1.240056e+003;1.302962e-001
1.241985e+003;1.274043e-001
1.243913e+003;1.243424e-001
1.245842e+003;1.202832e-001
1.247771e+003;1.150005e-001
1.249699e+003;1.101372e-001
1.251628e+003;1.064414e-001
1.253556e+003;1.027510e-001
1.255485e+003;9.870270e-002
1.257413e+003;9.457221e-002
1.259342e+003;9.042232e-002
1.261270e+003;8.688637e-002
1.263199e+003;8.347465e-002
1.265127e+003;7.956907e-002
1.267056e+003;7.569322e-002
1.268985e+003;7.215964e-002
1.270913e+003;6.903961e-002
1.272842e+003;6.649937e-002
1.274770e+003;6.465453e-002
1.276699e+003;6.308407e-002
1.278627e+003;6.110023e-002
1.280556e+003;5.934703e-002
1.282484e+003;5.833782e-002
1.284413e+003;5.731771e-002
1.286342e+003;5.662821e-002
1.288270e+003;5.631192e-002
1.290199e+003;5.573863e-002
1.292127e+003;5.549202e-002
1.294056e+003;5.538372e-002
1.295984e+003;5.519191e-002
1.297913e+003;5.509297e-002
1.299841e+003;5.524688e-002
1.301770e+003;5.559542e-002
1.303698e+003;5.576150e-002
1.305627e+003;5.600147e-002
1.307556e+003;5.608538e-002
1.309484e+003;5.612467e-002
1.311413e+003;5.629702e-002
1.313341e+003;5.648135e-002
1.315270e+003;5.673343e-002
1.317198e+003;5.658065e-002
1.319127e+003;5.631286e-002
1.321055e+003;5.625760e-002
1.322984e+003;5.633161e-002
1.324912e+003;5.648603e-002
1.326841e+003;5.672803e-002
1.328770e+003;5.706137e-002
1.330698e+003;5.775814e-002
1.332627e+003;5.876980e-002
1.334555e+003;5.979568e-002
1.336484e+003;6.088590e-002
1.338412e+003;6.200305e-002
1.340341e+003;6.358010e-002
1.342269e+003;6.562894e-002
1.344198e+003;6.749091e-002
1.346126e+003;6.909745e-002
1.348055e+003;7.084915e-002
1.349984e+003;7.273975e-002
1.351912e+003;7.444755e-002
1.353841e+003;7.596688e-002
1.355769e+003;7.785299e-002
1.357698e+003;7.984634e-002
1.359626e+003;8.139423e-002
1.361555e+003;8.273885e-002
1.363483e+003;8.380932e-002
1.365412e+003;8.479070e-002
1.367341e+003;8.543490e-002
1.369269e+003;8.561561e-002
1.371198e+003;8.566961e-002
1.373126e+003;8.508116e-002
1.375055e+003;8.364707e-002
1.376983e+003;8.098463e-002
1.378912e+003;7.746889e-002
1.380840e+003;7.369720e-002
1.382769e+003;6.954580e-002
1.384698e+003;6.477794e-002
1.386626e+003;5.987695e-002
1.388555e+003;5.598914e-002
1.390483e+003;5.310963e-002
1.392412e+003;5.023846e-002
1.394340e+003;4.748429e-002
1.396269e+003;4.561368e-002
1.398197e+003;4.428897e-002
1.400126e+003;4.343868e-002
1.402054e+003;4.275399e-002
1.403983e+003;4.177159e-002
1.405911e+003;4.142138e-002
1.407840e+003;4.197512e-002
1.409769e+003;4.285916e-002
1.411697e+003;4.388339e-002
1.413626e+003;4.501541e-002
1.415554e+003;4.639391e-002
1.417483e+003;4.770520e-002
1.419411e+003;4.957874e-002
1.421340e+003;5.291849e-002
1.423268e+003;5.643532e-002
1.425197e+003;5.989832e-002
1.427125e+003;6.331497e-002
1.429054e+003;6.722759e-002
1.430983e+003;7.196058e-002
1.432911e+003;7.700755e-002
1.434840e+003;8.165279e-002
1.436768e+003;8.681566e-002
1.438697e+003;9.312500e-002
1.440625e+003;9.874146e-002
1.442554e+003;1.038586e-001
1.444482e+003;1.088496e-001
1.446411e+003;1.127901e-001
1.448340e+003;1.154410e-001
1.450268e+003;1.171883e-001
1.452197e+003;1.169127e-001
1.454125e+003;1.132504e-001
1.456054e+003;1.066508e-001
1.457982e+003;9.914089e-002
1.459911e+003;9.114645e-002
1.461839e+003;8.266678e-002
1.463768e+003;7.355337e-002
1.465697e+003;6.489824e-002
1.467625e+003;5.835282e-002
1.469554e+003;5.303191e-002
1.471482e+003;4.815016e-002
1.473411e+003;4.442512e-002
1.475339e+003;4.223381e-002
1.477268e+003;4.033784e-002
1.479196e+003;3.881402e-002
1.481125e+003;3.767838e-002
1.483053e+003;3.679731e-002
1.484982e+003;3.575772e-002
1.486911e+003;3.438931e-002
1.488839e+003;3.285162e-002
1.490768e+003;3.192126e-002
1.492696e+003;3.188614e-002
1.494625e+003;3.128963e-002
1.496553e+003;3.026614e-002
1.498482e+003;3.004888e-002
1.500410e+003;3.011419e-002
1.502339e+003;2.992068e-002
1.504267e+003;2.870678e-002
1.506196e+003;2.740371e-002
1.508125e+003;2.788971e-002
1.510053e+003;2.890442e-002
1.511982e+003;2.899802e-002
1.513910e+003;2.877393e-002
1.515839e+003;2.870136e-002
1.517767e+003;2.855038e-002
1.519696e+003;2.772728e-002
1.521624e+003;2.722217e-002
1.523553e+003;2.804219e-002
1.525481e+003;2.795200e-002
1.527410e+003;2.771019e-002
1.529339e+003;2.798942e-002
1.531267e+003;2.798398e-002
1.533196e+003;2.760506e-002
1.535124e+003;2.781142e-002
1.537053e+003;2.738328e-002
1.538981e+003;2.571836e-002
1.540910e+003;2.539379e-002
1.542838e+003;2.638644e-002
1.544767e+003;2.700770e-002
1.546695e+003;2.746572e-002
1.548624e+003;2.746456e-002
1.550553e+003;2.728864e-002
1.552481e+003;2.715053e-002
1.554410e+003;2.683669e-002
1.556338e+003;2.583175e-002
1.558267e+003;2.398854e-002
1.560195e+003;2.440550e-002
1.562124e+003;2.629420e-002
1.564052e+003;2.691632e-002
1.565981e+003;2.668273e-002
1.567910e+003;2.597423e-002
1.569838e+003;2.599656e-002
1.571767e+003;2.691864e-002
1.573695e+003;2.699716e-002
1.575624e+003;2.627523e-002
1.577552e+003;2.693666e-002
1.579481e+003;2.775148e-002
1.581409e+003;2.774777e-002
1.583338e+003;2.784289e-002
1.585266e+003;2.765298e-002
1.587195e+003;2.755267e-002
1.589124e+003;2.789999e-002
1.591052e+003;2.834965e-002
1.592981e+003;2.867081e-002
1.594909e+003;2.903735e-002
1.596838e+003;2.957501e-002
1.598766e+003;3.010470e-002
1.600695e+003;3.054816e-002
1.602623e+003;3.137937e-002
1.604552e+003;3.223844e-002
1.606480e+003;3.277258e-002
1.608409e+003;3.339006e-002
1.610338e+003;3.433412e-002
1.612266e+003;3.528775e-002
1.614195e+003;3.537260e-002
1.616123e+003;3.489486e-002
1.618052e+003;3.623158e-002
1.619980e+003;3.779902e-002
1.621909e+003;3.799871e-002
1.623837e+003;3.824932e-002
1.625766e+003;3.873790e-002
1.627694e+003;3.895310e-002
1.629623e+003;3.920405e-002
1.631552e+003;3.926534e-002
1.633480e+003;3.853404e-002
1.635409e+003;3.751189e-002
1.637337e+003;3.803957e-002
1.639266e+003;3.882069e-002
1.641194e+003;3.884837e-002
1.643123e+003;3.810924e-002
1.645051e+003;3.666833e-002
1.646980e+003;3.589899e-002
1.648909e+003;3.615704e-002
1.650837e+003;3.502425e-002
1.652766e+003;3.304157e-002
1.654694e+003;3.422128e-002
1.656623e+003;3.577675e-002
1.658551e+003;3.566336e-002
1.660480e+003;3.505690e-002
1.662408e+003;3.424111e-002
1.664337e+003;3.414116e-002
1.666266e+003;3.437468e-002
1.668194e+003;3.394185e-002
1.670123e+003;3.375017e-002
1.672051e+003;3.415711e-002
1.673980e+003;3.427571e-002
1.675908e+003;3.470209e-002
1.677837e+003;3.552569e-002
1.679765e+003;3.571843e-002
1.681694e+003;3.523452e-002
1.683622e+003;3.419508e-002
1.685551e+003;3.527164e-002
1.687479e+003;3.732156e-002
1.689408e+003;3.804228e-002
1.691337e+003;3.845142e-002
1.693265e+003;3.843908e-002
1.695194e+003;3.768586e-002
1.697122e+003;3.836133e-002
1.699051e+003;3.872921e-002
1.700979e+003;3.973528e-002
1.702908e+003;4.240405e-002
1.704836e+003;4.429154e-002
1.706765e+003;4.636530e-002
1.708693e+003;4.908352e-002
1.710622e+003;5.270217e-002
1.712551e+003;5.672153e-002
1.714479e+003;6.063449e-002
1.716408e+003;6.488796e-002
1.718336e+003;7.106124e-002
1.720265e+003;7.829765e-002
1.722193e+003;8.497150e-002
1.724122e+003;9.114894e-002
1.726050e+003;9.705297e-002
1.727979e+003;1.023612e-001
1.729908e+003;1.070449e-001
1.731836e+003;1.099065e-001
1.733765e+003;1.111904e-001
1.735693e+003;1.130864e-001
1.737622e+003;1.134848e-001
1.739550e+003;1.112729e-001
1.741479e+003;1.078655e-001
1.743407e+003;1.026684e-001
1.745336e+003;9.666667e-002
1.747265e+003;9.044289e-002
1.749193e+003;8.386876e-002
1.751122e+003;7.726058e-002
1.753050e+003;7.112633e-002
1.754979e+003;6.485518e-002
1.756907e+003;5.857300e-002
1.758836e+003;5.314618e-002
1.760764e+003;4.760592e-002
1.762693e+003;4.245652e-002
1.764621e+003;3.872276e-002
1.766550e+003;3.553791e-002
1.768479e+003;3.271052e-002
1.770407e+003;3.001923e-002
1.772336e+003;2.803607e-002
1.774264e+003;2.767134e-002
1.776193e+003;2.730321e-002
1.778121e+003;2.654238e-002
1.780050e+003;2.595256e-002
1.781978e+003;2.582236e-002
1.783907e+003;2.545955e-002
1.785835e+003;2.509382e-002
1.787764e+003;2.489085e-002
1.789693e+003;2.428284e-002
1.791621e+003;2.376467e-002
1.793550e+003;2.382851e-002
1.795478e+003;2.378336e-002
1.797407e+003;2.321828e-002
1.799335e+003;2.301462e-002
1.801264e+003;2.303024e-002
1.803192e+003;2.305466e-002
1.805121e+003;2.304942e-002
1.807049e+003;2.300190e-002
1.808978e+003;2.285705e-002
1.810907e+003;2.281926e-002
1.812835e+003;2.277952e-002
1.814764e+003;2.293218e-002
1.816692e+003;2.290849e-002
1.818621e+003;2.268700e-002
1.820549e+003;2.264472e-002
1.822478e+003;2.286082e-002
1.824406e+003;2.267789e-002
1.826335e+003;2.251510e-002
1.828264e+003;2.234539e-002
1.830192e+003;2.237759e-002
1.832121e+003;2.261854e-002
1.834049e+003;2.258064e-002
1.835978e+003;2.250316e-002
1.837906e+003;2.255401e-002
1.839835e+003;2.253296e-002
1.841763e+003;2.245951e-002
1.843692e+003;2.213481e-002
1.845620e+003;2.213795e-002
1.847549e+003;2.242688e-002
1.849478e+003;2.259830e-002
1.851406e+003;2.252138e-002
1.853335e+003;2.231923e-002
1.855263e+003;2.234797e-002
1.857192e+003;2.235484e-002
1.859120e+003;2.222433e-002
1.861049e+003;2.212020e-002
1.862977e+003;2.189667e-002
1.864906e+003;2.188514e-002
1.866834e+003;2.185367e-002
1.868763e+003;2.163013e-002
1.870692e+003;2.178604e-002
1.872620e+003;2.183684e-002
1.874549e+003;2.172045e-002
1.876477e+003;2.180813e-002
1.878406e+003;2.201635e-002
1.880334e+003;2.195898e-002
1.882263e+003;2.162063e-002
1.884191e+003;2.146116e-002
1.886120e+003;2.133651e-002
1.888048e+003;2.096536e-002
1.889977e+003;2.086526e-002
1.891906e+003;2.108628e-002
1.893834e+003;2.096668e-002
1.895763e+003;2.080140e-002
1.897691e+003;2.048208e-002
1.899620e+003;2.027116e-002
1.901548e+003;2.048885e-002
1.903477e+003;2.069255e-002
1.905405e+003;2.043891e-002
1.907334e+003;2.018732e-002
1.909262e+003;2.043495e-002
1.911191e+003;2.045617e-002
1.913120e+003;2.024609e-002
1.915048e+003;2.020495e-002
1.916977e+003;2.006193e-002
1.918905e+003;2.009333e-002
1.920834e+003;2.023328e-002
1.922762e+003;2.005246e-002
1.924691e+003;1.997030e-002
1.926619e+003;2.019583e-002
1.928548e+003;2.025914e-002
1.930477e+003;2.008594e-002
1.932405e+003;1.987799e-002
1.934334e+003;1.964073e-002
1.936262e+003;1.964999e-002
1.938191e+003;1.986210e-002
1.940119e+003;1.997717e-002
1.942048e+003;1.987355e-002
1.943976e+003;1.981400e-002
1.945905e+003;1.971968e-002
1.947833e+003;1.975036e-002
1.949762e+003;2.010503e-002
1.951691e+003;2.019107e-002
1.953619e+003;2.012898e-002
1.955548e+003;2.014185e-002
1.957476e+003;2.023658e-002
1.959405e+003;2.032587e-002
1.961333e+003;2.024054e-002
1.963262e+003;2.025522e-002
1.965190e+003;2.037546e-002
1.967119e+003;2.015126e-002
1.969047e+003;2.014793e-002
1.970976e+003;2.066034e-002
1.972905e+003;2.115272e-002
1.974833e+003;2.089773e-002
1.976762e+003;2.067966e-002
1.978690e+003;2.105561e-002
1.980619e+003;2.129096e-002
1.982547e+003;2.145204e-002
1.984476e+003;2.139011e-002
1.986404e+003;2.123222e-002
1.988333e+003;2.140877e-002
1.990261e+003;2.146982e-002
1.992190e+003;2.142363e-002
1.994119e+003;2.149444e-002
1.996047e+003;2.158497e-002
1.997976e+003;2.180998e-002
1.999904e+003;2.166221e-002
2.001833e+003;2.157689e-002
2.003761e+003;2.173661e-002
2.005690e+003;2.167464e-002
2.007618e+003;2.163682e-002
2.009547e+003;2.183785e-002
2.011476e+003;2.197836e-002
2.013404e+003;2.205337e-002
2.015333e+003;2.198307e-002
2.017261e+003;2.209008e-002
2.019190e+003;2.233914e-002
2.021118e+003;2.240347e-002
2.023047e+003;2.235847e-002
2.024975e+003;2.236806e-002
2.026904e+003;2.249259e-002
2.028833e+003;2.244042e-002
2.030761e+003;2.242273e-002
2.032690e+003;2.218502e-002
2.034618e+003;2.201949e-002
2.036547e+003;2.225369e-002
2.038475e+003;2.237679e-002
2.040404e+003;2.226614e-002
2.042332e+003;2.228138e-002
2.044261e+003;2.249444e-002
2.046189e+003;2.244709e-002
2.048118e+003;2.216633e-002
2.050047e+003;2.211986e-002
2.051975e+003;2.222914e-002
2.053904e+003;2.232209e-002
2.055832e+003;2.221986e-002
2.057761e+003;2.233318e-002
2.059689e+003;2.220183e-002
2.061618e+003;2.191911e-002
2.063546e+003;2.192873e-002
2.065475e+003;2.220483e-002
2.067404e+003;2.204870e-002
2.069332e+003;2.186984e-002
2.071260e+003;2.194396e-002
2.073189e+003;2.195947e-002
2.075118e+003;2.218087e-002
2.077046e+003;2.213098e-002
2.078975e+003;2.200548e-002
2.080903e+003;2.203758e-002
2.082832e+003;2.203755e-002
2.084760e+003;2.199969e-002
2.086689e+003;2.182705e-002
2.088617e+003;2.146746e-002
2.090546e+003;2.137507e-002
2.092475e+003;2.143038e-002
2.094403e+003;2.143125e-002
2.096332e+003;2.151811e-002
2.098260e+003;2.149538e-002
2.100189e+003;2.155231e-002
2.102117e+003;2.161373e-002
2.104046e+003;2.155554e-002
2.105974e+003;2.134521e-002
2.107903e+003;2.130829e-002
2.109832e+003;2.140104e-002
2.111760e+003;2.122805e-002
2.113688e+003;2.124134e-002
2.115617e+003;2.119228e-002
2.117546e+003;2.108701e-002
2.119474e+003;2.125957e-002
2.121403e+003;2.136975e-002
2.123331e+003;2.129461e-002
2.125260e+003;2.137584e-002
2.127188e+003;2.158556e-002
2.129117e+003;2.158138e-002
2.131045e+003;2.133411e-002
2.132974e+003;2.152452e-002
2.134903e+003;2.174058e-002
2.136831e+003;2.180862e-002
2.138760e+003;2.182391e-002
2.140688e+003;2.150749e-002
2.142617e+003;2.135847e-002
2.144545e+003;2.147745e-002
2.146474e+003;2.146384e-002
2.148402e+003;2.154781e-002
2.150331e+003;2.185137e-002
2.152260e+003;2.193173e-002
2.154188e+003;2.176688e-002
2.156117e+003;2.190817e-002
2.158045e+003;2.198955e-002
2.159974e+003;2.209632e-002
2.161902e+003;2.227779e-002
2.163831e+003;2.199920e-002
2.165759e+003;2.203455e-002
2.167688e+003;2.238756e-002
2.169616e+003;2.271255e-002
2.171545e+003;2.270285e-002
2.173474e+003;2.254312e-002
2.175402e+003;2.261495e-002
2.177331e+003;2.286159e-002
2.179259e+003;2.312769e-002
2.181188e+003;2.356166e-002
2.183116e+003;2.411553e-002
2.185045e+003;2.470478e-002
2.186973e+003;2.538929e-002
2.188902e+003;2.627400e-002
2.190831e+003;2.705731e-002
2.192759e+003;2.719384e-002
2.194688e+003;2.708930e-002
2.196616e+003;2.676673e-002
2.198545e+003;2.646007e-002
2.200473e+003;2.644366e-002
2.202402e+003;2.612347e-002
2.204330e+003;2.567596e-002
2.206259e+003;2.566377e-002
2.208188e+003;2.593339e-002
2.210116e+003;2.642627e-002
2.212044e+003;2.690377e-002
2.213973e+003;2.714975e-002
2.215902e+003;2.765171e-002
2.217830e+003;2.846171e-002
2.219759e+003;2.947117e-002
2.221687e+003;3.055385e-002
2.223616e+003;3.197879e-002
2.225544e+003;3.431124e-002
2.227473e+003;3.803371e-002
2.229401e+003;4.399444e-002
2.231330e+003;5.309762e-002
2.233259e+003;6.481718e-002
2.235187e+003;7.680480e-002
2.237116e+003;8.790885e-002
2.239044e+003;9.689887e-002
2.240973e+003;1.020336e-001
2.242901e+003;1.032127e-001
2.244830e+003;1.012061e-001
2.246758e+003;9.654606e-002
2.248687e+003;9.017410e-002
2.250615e+003;8.339197e-002
2.252544e+003;7.660393e-002
2.254473e+003;6.974511e-002
2.256401e+003;6.304618e-002
2.258330e+003;5.672546e-002
2.260258e+003;5.088833e-002
2.262187e+003;4.611792e-002
2.264115e+003;4.241253e-002
2.266044e+003;3.928953e-002
2.267972e+003;3.668610e-002
2.269901e+003;3.448999e-002
2.271830e+003;3.294037e-002
2.273758e+003;3.206935e-002
2.275687e+003;3.122828e-002
2.277615e+003;3.030863e-002
2.279544e+003;2.962311e-002
2.281472e+003;2.923053e-002
2.283401e+003;2.882517e-002
2.285329e+003;2.846702e-002
2.287258e+003;2.855250e-002
2.289187e+003;2.839008e-002
2.291115e+003;2.789045e-002
2.293043e+003;2.771549e-002
2.294972e+003;2.774197e-002
2.296901e+003;2.759172e-002
2.298829e+003;2.754730e-002
2.300758e+003;2.745478e-002
2.302686e+003;2.703817e-002
2.304615e+003;2.678107e-002
2.306543e+003;2.653487e-002
2.308472e+003;2.641362e-002
2.310400e+003;2.629374e-002
2.312329e+003;2.590107e-002
2.314258e+003;2.557832e-002
2.316186e+003;2.519890e-002
2.318115e+003;2.467837e-002
2.320043e+003;2.414292e-002
2.321972e+003;2.368457e-002
2.323900e+003;2.329323e-002
2.325829e+003;2.270693e-002
2.327757e+003;2.196320e-002
2.329686e+003;2.152842e-002
2.331615e+003;2.144009e-002
2.333543e+003;2.139902e-002
2.335472e+003;2.135033e-002
2.337400e+003;2.118156e-002
2.339329e+003;2.085692e-002
2.341257e+003;2.129012e-002
2.343186e+003;2.244381e-002
2.345114e+003;2.359623e-002
2.347043e+003;2.484040e-002
2.348971e+003;2.553081e-002
2.350900e+003;2.465835e-002
2.352829e+003;2.270885e-002
2.354757e+003;2.104517e-002
2.356686e+003;1.980904e-002
2.358614e+003;1.906052e-002
2.360543e+003;1.888828e-002
2.362471e+003;1.887527e-002
2.364400e+003;1.928755e-002
2.366328e+003;2.055913e-002
2.368257e+003;2.147846e-002
2.370186e+003;2.216295e-002
2.372114e+003;2.331756e-002
2.374042e+003;2.444493e-002
2.375971e+003;2.532817e-002
2.377900e+003;2.576027e-002
2.379828e+003;2.647718e-002
2.381757e+003;2.722848e-002
2.383685e+003;2.718344e-002
2.385614e+003;2.689002e-002
2.387542e+003;2.706860e-002
2.389471e+003;2.718329e-002
2.391399e+003;2.725057e-002
2.393328e+003;2.755450e-002
2.395257e+003;2.761866e-002
2.397185e+003;2.755246e-002
2.399114e+003;2.739676e-002
2.401042e+003;2.736923e-002
2.402971e+003;2.746018e-002
2.404899e+003;2.751189e-002
2.406828e+003;2.747501e-002
2.408756e+003;2.746569e-002
2.410685e+003;2.759433e-002
2.412614e+003;2.762872e-002
2.414542e+003;2.779506e-002
2.416471e+003;2.767957e-002
2.418399e+003;2.750444e-002
2.420328e+003;2.778796e-002
2.422256e+003;2.801066e-002
2.424185e+003;2.787794e-002
2.426113e+003;2.767551e-002
2.428042e+003;2.785148e-002
2.429970e+003;2.805046e-002
2.431899e+003;2.772244e-002
2.433828e+003;2.763988e-002
2.435756e+003;2.783103e-002
2.437685e+003;2.782555e-002
2.439613e+003;2.777532e-002
2.441542e+003;2.797603e-002
2.443470e+003;2.773488e-002
2.445399e+003;2.737777e-002
2.447327e+003;2.765266e-002
2.449256e+003;2.817196e-002
2.451185e+003;2.823698e-002
2.453113e+003;2.834781e-002
2.455042e+003;2.855229e-002
2.456970e+003;2.856680e-002
2.458899e+003;2.854430e-002
2.460827e+003;2.848931e-002
2.462756e+003;2.851581e-002
2.464684e+003;2.835471e-002
2.466613e+003;2.867251e-002
2.468542e+003;2.897543e-002
2.470470e+003;2.888823e-002
2.472398e+003;2.898460e-002
2.474327e+003;2.954177e-002
2.476256e+003;2.972219e-002
2.478184e+003;2.960484e-002
2.480113e+003;2.960143e-002
2.482041e+003;2.975618e-002
2.483970e+003;3.005307e-002
2.485898e+003;3.010922e-002
2.487827e+003;3.008059e-002
2.489755e+003;3.014008e-002
2.491684e+003;3.005954e-002
2.493613e+003;3.005144e-002
2.495541e+003;3.042177e-002
2.497470e+003;3.066023e-002
2.499398e+003;3.046467e-002
2.501327e+003;3.024170e-002
2.503255e+003;3.046836e-002
2.505184e+003;3.084477e-002
2.507112e+003;3.090792e-002
2.509041e+003;3.081631e-002
2.510969e+003;3.094065e-002
2.512898e+003;3.114376e-002
2.514827e+003;3.135013e-002
2.516755e+003;3.122956e-002
2.518684e+003;3.097645e-002
2.520612e+003;3.089725e-002
2.522541e+003;3.091553e-002
2.524469e+003;3.080081e-002
2.526398e+003;3.072477e-002
2.528326e+003;3.097769e-002
2.530255e+003;3.110845e-002
2.532184e+003;3.098097e-002
2.534112e+003;3.072854e-002
2.536041e+003;3.081059e-002
2.537969e+003;3.102061e-002
2.539898e+003;3.077943e-002
2.541826e+003;3.076279e-002
2.543755e+003;3.083670e-002
2.545683e+003;3.073810e-002
2.547612e+003;3.048087e-002
2.549541e+003;3.061617e-002
2.551469e+003;3.091546e-002
2.553397e+003;3.078594e-002
2.555326e+003;3.057219e-002
2.557255e+003;3.038854e-002
2.559183e+003;3.021264e-002
2.561112e+003;3.025658e-002
2.563040e+003;3.041637e-002
2.564969e+003;3.053284e-002
2.566897e+003;3.043374e-002
2.568826e+003;3.034817e-002
2.570754e+003;3.015006e-002
2.572683e+003;3.003518e-002
2.574612e+003;3.013173e-002
2.576540e+003;3.031453e-002
2.578469e+003;3.020884e-002
2.580397e+003;2.975682e-002
2.582326e+003;2.973245e-002
2.584254e+003;2.996580e-002
2.586183e+003;2.984515e-002
2.588111e+003;2.988586e-002
2.590040e+003;2.986716e-002
2.591969e+003;2.961147e-002
2.593897e+003;2.971304e-002
2.595826e+003;2.992913e-002
2.597754e+003;2.988600e-002
2.599683e+003;2.979834e-002
2.601611e+003;2.952649e-002
2.603540e+003;2.974245e-002
2.605468e+003;3.013184e-002
2.607397e+003;3.002062e-002
2.609325e+003;2.993630e-002
2.611254e+003;2.978361e-002
2.613183e+003;2.948074e-002
2.615111e+003;2.970151e-002
2.617040e+003;3.006951e-002
2.618968e+003;3.015613e-002
2.620897e+003;3.006927e-002
2.622825e+003;3.026571e-002
2.624754e+003;3.075976e-002
2.626682e+003;3.080689e-002
2.628611e+003;3.058296e-002
2.630540e+003;3.044871e-002
2.632468e+003;3.064966e-002
2.634396e+003;3.063836e-002
2.636325e+003;3.031364e-002
2.638254e+003;3.017961e-002
2.640182e+003;3.041754e-002
2.642111e+003;3.063085e-002
2.644039e+003;3.076222e-002
2.645968e+003;3.092770e-002
2.647896e+003;3.103011e-002
2.649825e+003;3.082901e-002
2.651753e+003;3.086726e-002
2.653682e+003;3.108318e-002
2.655611e+003;3.102285e-002
2.657539e+003;3.109026e-002
2.659468e+003;3.113379e-002
2.661396e+003;3.085516e-002
2.663325e+003;3.067587e-002
2.665253e+003;3.068508e-002
2.667182e+003;3.082706e-002
2.669110e+003;3.116515e-002
2.671039e+003;3.131851e-002
2.672968e+003;3.133343e-002
2.674896e+003;3.124832e-002
2.676825e+003;3.121791e-002
2.678753e+003;3.136434e-002
2.680682e+003;3.129970e-002
2.682610e+003;3.106841e-002
2.684539e+003;3.119086e-002
2.686467e+003;3.129440e-002
2.688396e+003;3.109642e-002
2.690324e+003;3.118203e-002
2.692253e+003;3.131516e-002
2.694182e+003;3.115526e-002
2.696110e+003;3.108805e-002
2.698039e+003;3.110183e-002
2.699967e+003;3.095062e-002
2.701896e+003;3.075763e-002
2.703824e+003;3.052058e-002
2.705753e+003;3.055698e-002
2.707681e+003;3.077843e-002
2.709610e+003;3.080700e-002
2.711539e+003;3.090312e-002
2.713467e+003;3.085135e-002
2.715396e+003;3.079736e-002
2.717324e+003;3.085480e-002
2.719253e+003;3.092646e-002
2.721181e+003;3.086028e-002
2.723110e+003;3.071442e-002
2.725038e+003;3.050419e-002
2.726967e+003;3.019165e-002
2.728896e+003;3.020277e-002
2.730824e+003;3.048645e-002
2.732752e+003;3.017019e-002
2.734681e+003;2.987419e-002
2.736610e+003;2.997088e-002
2.738538e+003;2.995558e-002
2.740467e+003;2.990883e-002
2.742395e+003;3.007967e-002
2.744324e+003;3.001966e-002
2.746252e+003;2.978773e-002
2.748181e+003;2.978138e-002
2.750109e+003;3.013198e-002
2.752038e+003;2.999300e-002
2.753967e+003;2.986066e-002
2.755895e+003;2.976477e-002
2.757824e+003;2.977513e-002
2.759752e+003;3.032636e-002
2.761681e+003;3.051155e-002
2.763609e+003;3.034711e-002
2.765538e+003;3.040564e-002
2.767466e+003;3.053323e-002
2.769395e+003;3.053970e-002
2.771323e+003;3.065841e-002
2.773252e+003;3.051425e-002
2.775181e+003;3.075823e-002
2.777109e+003;3.130163e-002
2.779038e+003;3.127011e-002
2.780966e+003;3.108492e-002
2.782895e+003;3.117950e-002
2.784823e+003;3.144527e-002
2.786752e+003;3.198057e-002
2.788680e+003;3.247672e-002
2.790609e+003;3.241955e-002
2.792538e+003;3.204306e-002
2.794466e+003;3.240463e-002
2.796395e+003;3.293461e-002
2.798323e+003;3.322767e-002
2.800252e+003;3.324123e-002
2.802180e+003;3.328544e-002
2.804109e+003;3.342649e-002
2.806037e+003;3.371819e-002
2.807966e+003;3.370724e-002
2.809895e+003;3.391902e-002
2.811823e+003;3.422114e-002
2.813751e+003;3.422874e-002
2.815680e+003;3.399251e-002
2.817609e+003;3.408754e-002
2.819537e+003;3.443604e-002
2.821466e+003;3.455328e-002
2.823394e+003;3.423365e-002
2.825323e+003;3.412206e-002
2.827251e+003;3.459615e-002
2.829180e+003;3.531082e-002
2.831108e+003;3.577024e-002
2.833037e+003;3.604416e-002
2.834966e+003;3.618019e-002
2.836894e+003;3.633824e-002
2.838823e+003;3.666018e-002
2.840751e+003;3.735511e-002
2.842680e+003;3.836958e-002
2.844608e+003;3.967690e-002
2.846537e+003;4.114332e-002
2.848465e+003;4.298959e-002
2.850394e+003;4.462648e-002
2.852323e+003;4.566016e-002
2.854251e+003;4.641463e-002
2.856180e+003;4.756022e-002
2.858108e+003;4.916470e-002
2.860037e+003;5.014807e-002
2.861965e+003;5.101796e-002
2.863894e+003;5.201697e-002
2.865822e+003;5.230014e-002
2.867751e+003;5.252108e-002
2.869679e+003;5.326120e-002
2.871608e+003;5.336875e-002
2.873536e+003;5.333728e-002
2.875465e+003;5.323771e-002
2.877394e+003;5.298223e-002
2.879322e+003;5.244914e-002
2.881251e+003;5.186244e-002
2.883179e+003;5.160112e-002
2.885108e+003;5.156792e-002
2.887036e+003;5.173574e-002
2.888965e+003;5.230058e-002
2.890893e+003;5.285288e-002
2.892822e+003;5.362135e-002
2.894750e+003;5.457944e-002
2.896679e+003;5.517009e-002
2.898608e+003;5.610182e-002
2.900536e+003;5.767080e-002
2.902465e+003;5.922553e-002
2.904393e+003;6.088632e-002
2.906322e+003;6.253469e-002
2.908250e+003;6.412040e-002
2.910179e+003;6.604124e-002
2.912107e+003;6.804245e-002
2.914036e+003;6.992672e-002
2.915965e+003;7.188809e-002
2.917893e+003;7.330107e-002
2.919822e+003;7.422563e-002
2.921750e+003;7.491989e-002
2.923679e+003;7.548431e-002
2.925607e+003;7.591151e-002
2.927536e+003;7.623432e-002
2.929464e+003;7.667591e-002
2.931393e+003;7.707758e-002
2.933322e+003;7.740518e-002
2.935250e+003;7.827317e-002
2.937178e+003;7.898323e-002
2.939107e+003;7.835598e-002
2.941036e+003;7.758653e-002
2.942964e+003;7.690316e-002
2.944893e+003;7.547586e-002
2.946821e+003;7.393205e-002
2.948750e+003;7.211981e-002
2.950678e+003;7.048188e-002
2.952607e+003;6.919190e-002
2.954535e+003;6.775293e-002
2.956464e+003;6.593509e-002
2.958393e+003;6.459685e-002
2.960321e+003;6.372466e-002
2.962250e+003;6.286899e-002
2.964178e+003;6.200675e-002
2.966107e+003;6.143617e-002
2.968035e+003;6.094331e-002
2.969964e+003;6.022455e-002
2.971892e+003;5.969553e-002
2.973821e+003;5.939348e-002
2.975750e+003;5.876642e-002
2.977678e+003;5.804220e-002
2.979607e+003;5.784936e-002
2.981535e+003;5.758291e-002
2.983464e+003;5.709224e-002
2.985392e+003;5.668325e-002
2.987321e+003;5.603750e-002
2.989249e+003;5.561373e-002
2.991178e+003;5.544493e-002
2.993106e+003;5.488914e-002
2.995035e+003;5.424819e-002
2.996964e+003;5.336448e-002
2.998892e+003;5.231826e-002
3.000821e+003;5.162691e-002
3.002749e+003;5.078650e-002
3.004678e+003;4.997113e-002
3.006606e+003;4.940748e-002
3.008535e+003;4.883429e-002
3.010463e+003;4.861022e-002
3.012392e+003;4.773501e-002
3.014321e+003;4.625445e-002
3.016249e+003;4.509131e-002
3.018177e+003;4.506422e-002
3.020106e+003;4.503584e-002
3.022035e+003;4.440071e-002
3.023963e+003;4.357573e-002
3.025892e+003;4.305917e-002
3.027820e+003;4.294426e-002
3.029749e+003;4.270851e-002
3.031677e+003;4.240577e-002
3.033606e+003;4.227069e-002
3.035534e+003;4.219079e-002
3.037463e+003;4.186907e-002
3.039392e+003;4.112187e-002
3.041320e+003;4.085725e-002
3.043249e+003;4.086934e-002
3.045177e+003;4.054452e-002
3.047106e+003;4.034501e-002
3.049034e+003;4.053048e-002
3.050963e+003;4.057348e-002
3.052891e+003;3.983874e-002
3.054820e+003;3.918635e-002
3.056749e+003;3.918936e-002
3.058677e+003;3.907337e-002
3.060606e+003;3.894745e-002
3.062534e+003;3.887116e-002
3.064463e+003;3.860704e-002
3.066391e+003;3.813297e-002
3.068320e+003;3.788021e-002
3.070248e+003;3.774520e-002
3.072177e+003;3.750871e-002
3.074105e+003;3.755036e-002
3.076034e+003;3.805140e-002
3.077963e+003;3.811607e-002
3.079891e+003;3.738530e-002
3.081820e+003;3.699820e-002
3.083748e+003;3.694469e-002
3.085677e+003;3.627819e-002
3.087605e+003;3.571908e-002
3.089534e+003;3.574836e-002
3.091462e+003;3.571671e-002
3.093391e+003;3.537264e-002
3.095320e+003;3.528297e-002
3.097248e+003;3.547862e-002
3.099177e+003;3.556668e-002
3.101105e+003;3.526942e-002
3.103034e+003;3.483027e-002
3.104962e+003;3.467445e-002
3.106891e+003;3.444519e-002
3.108819e+003;3.472937e-002
3.110748e+003;3.516614e-002
3.112677e+003;3.513457e-002
3.114605e+003;3.456408e-002
3.116533e+003;3.412829e-002
3.118462e+003;3.386841e-002
3.120391e+003;3.363685e-002
3.122319e+003;3.383133e-002
3.124248e+003;3.397613e-002
3.126176e+003;3.382270e-002
3.128105e+003;3.376138e-002
3.130033e+003;3.382051e-002
3.131962e+003;3.365085e-002
3.133890e+003;3.332537e-002
3.135819e+003;3.289272e-002
3.137748e+003;3.296446e-002
3.139676e+003;3.302516e-002
3.141605e+003;3.289029e-002
3.143533e+003;3.291399e-002
3.145462e+003;3.300042e-002
3.147390e+003;3.304000e-002
3.149319e+003;3.257710e-002
3.151247e+003;3.256400e-002
3.153176e+003;3.295306e-002
3.155104e+003;3.294862e-002
3.157033e+003;3.293683e-002
3.158962e+003;3.313461e-002
3.160890e+003;3.292768e-002
3.162819e+003;3.255564e-002
3.164747e+003;3.260257e-002
3.166676e+003;3.275836e-002
3.168604e+003;3.263543e-002
3.170533e+003;3.251018e-002
3.172461e+003;3.269862e-002
3.174390e+003;3.272056e-002
3.176319e+003;3.261871e-002
3.178247e+003;3.240810e-002
3.180176e+003;3.251253e-002
3.182104e+003;3.276122e-002
3.184033e+003;3.291231e-002
3.185961e+003;3.278619e-002
3.187890e+003;3.204702e-002
3.189818e+003;3.228494e-002
3.191747e+003;3.257857e-002
3.193676e+003;3.234612e-002
3.195604e+003;3.249364e-002
3.197532e+003;3.313372e-002
3.199461e+003;3.348650e-002
3.201390e+003;3.348654e-002
3.203318e+003;3.313576e-002
3.205247e+003;3.243134e-002
3.207175e+003;3.194608e-002
3.209104e+003;3.220086e-002
3.211032e+003;3.295431e-002
3.212961e+003;3.334641e-002
3.214889e+003;3.344538e-002
3.216818e+003;3.329664e-002
3.218747e+003;3.307071e-002
3.220675e+003;3.284694e-002
3.222604e+003;3.291227e-002
3.224532e+003;3.309381e-002
3.226461e+003;3.289101e-002
3.228389e+003;3.303199e-002
3.230318e+003;3.323980e-002
3.232246e+003;3.346381e-002
3.234175e+003;3.396316e-002
3.236104e+003;3.438594e-002
3.238032e+003;3.417346e-002
3.239961e+003;3.380580e-002
3.241889e+003;3.384673e-002
3.243818e+003;3.366810e-002
3.245746e+003;3.317363e-002
3.247675e+003;3.302667e-002
3.249603e+003;3.342627e-002
3.251532e+003;3.380336e-002
3.253460e+003;3.391286e-002
3.255389e+003;3.346728e-002
3.257318e+003;3.348668e-002
3.259246e+003;3.398230e-002
3.261175e+003;3.359088e-002
3.263103e+003;3.353375e-002
3.265032e+003;3.398140e-002
3.266960e+003;3.393113e-002
3.268889e+003;3.335682e-002
3.270817e+003;3.272248e-002
3.272746e+003;3.256692e-002
3.274675e+003;3.309574e-002
3.276603e+003;3.324849e-002
3.278531e+003;3.269987e-002
3.280460e+003;3.298083e-002
3.282389e+003;3.332551e-002
3.284317e+003;3.278187e-002
3.286246e+003;3.250061e-002
3.288174e+003;3.213189e-002
3.290103e+003;3.185447e-002
3.292031e+003;3.204146e-002
3.293960e+003;3.227866e-002
3.295888e+003;3.220486e-002
3.297817e+003;3.219972e-002
3.299746e+003;3.247450e-002
3.301674e+003;3.259389e-002
3.303603e+003;3.237882e-002
3.305531e+003;3.217228e-002
3.307460e+003;3.231649e-002
3.309388e+003;3.261421e-002
3.311317e+003;3.211519e-002
3.313245e+003;3.166575e-002
3.315174e+003;3.207745e-002
3.317103e+003;3.233705e-002
3.319031e+003;3.186278e-002
3.320960e+003;3.145268e-002
3.322888e+003;3.142532e-002
3.324817e+003;3.119976e-002
3.326745e+003;3.119150e-002
3.328674e+003;3.138094e-002
3.330602e+003;3.141367e-002
3.332531e+003;3.154039e-002
3.334459e+003;3.215105e-002
3.336388e+003;3.217635e-002
3.338317e+003;3.181180e-002
3.340245e+003;3.135487e-002
3.342174e+003;3.115116e-002
3.344102e+003;3.132082e-002
3.346031e+003;3.169722e-002
3.347959e+003;3.160670e-002
3.349888e+003;3.161062e-002
3.351816e+003;3.180720e-002
3.353745e+003;3.174919e-002
3.355674e+003;3.128289e-002
3.357602e+003;3.116619e-002
3.359531e+003;3.156697e-002
3.361459e+003;3.111617e-002
3.363388e+003;3.073195e-002
3.365316e+003;3.095275e-002
3.367245e+003;3.076314e-002
3.369173e+003;3.057816e-002
3.371102e+003;3.061190e-002
3.373031e+003;3.047330e-002
3.374959e+003;3.042593e-002
3.376887e+003;3.034679e-002
3.378816e+003;3.068352e-002
3.380745e+003;3.102791e-002
3.382673e+003;3.094905e-002
3.384602e+003;3.046204e-002
3.386530e+003;2.973372e-002
3.388459e+003;2.944989e-002
3.390387e+003;2.995277e-002
3.392316e+003;3.048930e-002
3.394244e+003;3.068704e-002
3.396173e+003;3.034427e-002
3.398102e+003;3.004814e-002
3.400030e+003;2.960629e-002
3.401959e+003;3.005581e-002
3.403887e+003;3.058833e-002
3.405816e+003;3.018994e-002
3.407744e+003;3.022191e-002
3.409673e+003;3.057792e-002
3.411601e+003;3.036953e-002
3.413530e+003;3.080411e-002
3.415458e+003;3.108581e-002
3.417387e+003;3.020518e-002
3.419316e+003;2.980601e-002
3.421244e+003;3.033201e-002
3.423173e+003;3.067430e-002
3.425101e+003;3.086121e-002
3.427030e+003;3.115230e-002
3.428958e+003;3.111308e-002
3.430887e+003;3.110457e-002
3.432815e+003;3.136733e-002
3.434744e+003;3.120567e-002
3.436673e+003;3.090152e-002
3.438601e+003;3.113557e-002
3.440530e+003;3.161949e-002
3.442458e+003;3.176923e-002
3.444387e+003;3.191121e-002
3.446315e+003;3.212825e-002
3.448244e+003;3.239546e-002
3.450172e+003;3.307261e-002
3.452101e+003;3.343969e-002
3.454030e+003;3.309896e-002
3.455958e+003;3.303199e-002
3.457886e+003;3.290537e-002
3.459815e+003;3.246104e-002
3.461744e+003;3.201841e-002
3.463672e+003;3.218384e-002
3.465601e+003;3.267026e-002
3.467529e+003;3.296539e-002
3.469458e+003;3.343579e-002
3.471386e+003;3.409192e-002
3.473315e+003;3.404973e-002
3.475243e+003;3.322506e-002
3.477172e+003;3.248050e-002
3.479101e+003;3.234362e-002
3.481029e+003;3.287167e-002
3.482958e+003;3.318940e-002
3.484886e+003;3.343468e-002
3.486815e+003;3.335467e-002
3.488743e+003;3.323375e-002
3.490672e+003;3.347033e-002
3.492600e+003;3.378592e-002
3.494529e+003;3.399552e-002
3.496458e+003;3.420784e-002
3.498386e+003;3.426115e-002
3.500315e+003;3.411363e-002
3.502243e+003;3.389223e-002
3.504172e+003;3.413435e-002
3.506100e+003;3.432314e-002
3.508029e+003;3.436879e-002
3.509957e+003;3.506200e-002
3.511886e+003;3.510500e-002
3.513814e+003;3.534838e-002
3.515743e+003;3.579647e-002
3.517672e+003;3.594380e-002
3.519600e+003;3.603397e-002
3.521529e+003;3.596928e-002
3.523457e+003;3.592821e-002
3.525386e+003;3.613939e-002
3.527314e+003;3.675346e-002
3.529243e+003;3.716817e-002
3.531171e+003;3.697525e-002
3.533100e+003;3.658606e-002
3.535029e+003;3.677517e-002
3.536957e+003;3.725668e-002
3.538885e+003;3.721195e-002
3.540814e+003;3.692885e-002
3.542743e+003;3.668499e-002
3.544671e+003;3.600787e-002
3.546600e+003;3.611412e-002
3.548528e+003;3.668517e-002
3.550457e+003;3.650093e-002
3.552385e+003;3.636051e-002
3.554314e+003;3.640879e-002
3.556242e+003;3.632502e-002
3.558171e+003;3.553266e-002
3.560100e+003;3.510044e-002
3.562028e+003;3.578521e-002
3.563957e+003;3.570440e-002
3.565885e+003;3.491106e-002
3.567814e+003;3.488937e-002
3.569742e+003;3.496180e-002
3.571671e+003;3.502170e-002
3.573599e+003;3.511732e-002
3.575528e+003;3.486010e-002
3.577457e+003;3.494829e-002
3.579385e+003;3.517204e-002
3.581314e+003;3.501165e-002
3.583242e+003;3.510090e-002
3.585171e+003;3.484919e-002
3.587099e+003;3.405439e-002
3.589028e+003;3.393199e-002
3.590956e+003;3.432720e-002
3.592885e+003;3.421784e-002
3.594813e+003;3.408916e-002
3.596742e+003;3.459529e-002
3.598671e+003;3.548563e-002
3.600599e+003;3.612232e-002
3.602528e+003;3.624513e-002
3.604456e+003;3.597562e-002
3.606385e+003;3.546945e-002
3.608313e+003;3.537429e-002
3.610242e+003;3.630103e-002
3.612170e+003;3.718708e-002
3.614099e+003;3.743726e-002
3.616028e+003;3.711378e-002
3.617956e+003;3.651091e-002
3.619885e+003;3.613129e-002
3.621813e+003;3.675047e-002
3.623742e+003;3.724686e-002
3.625670e+003;3.663264e-002
3.627599e+003;3.518530e-002
3.629527e+003;3.484190e-002
3.631456e+003;3.602349e-002
3.633385e+003;3.636375e-002
3.635313e+003;3.648032e-002
3.637241e+003;3.666945e-002
3.639170e+003;3.602137e-002
3.641099e+003;3.537422e-002
3.643027e+003;3.546363e-002
3.644956e+003;3.526945e-002
3.646884e+003;3.371401e-002
3.648813e+003;3.234512e-002
3.650741e+003;3.286310e-002
3.652670e+003;3.339582e-002
3.654598e+003;3.259571e-002
3.656527e+003;3.180374e-002
3.658456e+003;3.176007e-002
3.660384e+003;3.138119e-002
3.662313e+003;3.045230e-002
3.664241e+003;2.962367e-002
3.666170e+003;2.880534e-002
3.668098e+003;2.765432e-002
3.670027e+003;2.662442e-002
3.671955e+003;2.658841e-002
3.673884e+003;2.608540e-002
3.675813e+003;2.589062e-002
3.677741e+003;2.649497e-002
3.679669e+003;2.625619e-002
3.681598e+003;2.617946e-002
3.683527e+003;2.630980e-002
3.685455e+003;2.599980e-002
3.687384e+003;2.472604e-002
3.689312e+003;2.442491e-002
3.691241e+003;2.517393e-002
3.693169e+003;2.553946e-002
3.695098e+003;2.560475e-002
3.697026e+003;2.575503e-002
3.698955e+003;2.560053e-002
3.700884e+003;2.528423e-002
3.702812e+003;2.553682e-002
3.704741e+003;2.587293e-002
3.706669e+003;2.558099e-002
3.708598e+003;2.487411e-002
3.710526e+003;2.411948e-002
3.712455e+003;2.396995e-002
3.714383e+003;2.466403e-002
3.716312e+003;2.508030e-002
3.718240e+003;2.509178e-002
3.720169e+003;2.488882e-002
3.722098e+003;2.462678e-002
3.724026e+003;2.421379e-002
3.725955e+003;2.413034e-002
3.727883e+003;2.442348e-002
3.729812e+003;2.429272e-002
3.731740e+003;2.399761e-002
3.733669e+003;2.372971e-002
3.735597e+003;2.343194e-002
3.737526e+003;2.436183e-002
3.739455e+003;2.508286e-002
3.741383e+003;2.418716e-002
3.743312e+003;2.280658e-002
3.745240e+003;2.338927e-002
3.747169e+003;2.428477e-002
3.749097e+003;2.318218e-002
3.751026e+003;2.260922e-002
3.752954e+003;2.344921e-002
3.754883e+003;2.434077e-002
3.756812e+003;2.410968e-002
3.758740e+003;2.392051e-002
3.760668e+003;2.414796e-002
3.762597e+003;2.474463e-002
3.764526e+003;2.507918e-002
3.766454e+003;2.507465e-002
3.768383e+003;2.446824e-002
3.770311e+003;2.411952e-002
3.772240e+003;2.446435e-002
3.774168e+003;2.455385e-002
3.776097e+003;2.435163e-002
3.778025e+003;2.398507e-002
3.779954e+003;2.436463e-002
3.781883e+003;2.529354e-002
3.783811e+003;2.555864e-002
3.785740e+003;2.556381e-002
3.787668e+003;2.562366e-002
3.789597e+003;2.530597e-002
3.791525e+003;2.463240e-002
3.793454e+003;2.479482e-002
3.795382e+003;2.503326e-002
3.797311e+003;2.484710e-002
3.799240e+003;2.456114e-002
3.801168e+003;2.403168e-002
3.803097e+003;2.439719e-002
3.805025e+003;2.440416e-002
3.806954e+003;2.409286e-002
3.808882e+003;2.486776e-002
3.810811e+003;2.524244e-002
3.812739e+003;2.519865e-002
3.814668e+003;2.427384e-002
3.816596e+003;2.427019e-002
3.818525e+003;2.469896e-002
3.820454e+003;2.389765e-002
3.822382e+003;2.391463e-002
3.824311e+003;2.488001e-002
3.826239e+003;2.542200e-002
3.828168e+003;2.533389e-002
3.830096e+003;2.522151e-002
3.832025e+003;2.528869e-002
3.833953e+003;2.494268e-002
3.835882e+003;2.424574e-002
3.837811e+003;2.426021e-002
3.839739e+003;2.508648e-002
3.841667e+003;2.525399e-002
3.843596e+003;2.550119e-002
3.845525e+003;2.600578e-002
3.847453e+003;2.606840e-002
3.849382e+003;2.589498e-002
3.851310e+003;2.460964e-002
3.853239e+003;2.293106e-002
3.855167e+003;2.395276e-002
3.857096e+003;2.607182e-002
3.859024e+003;2.659497e-002
3.860953e+003;2.639338e-002
3.862882e+003;2.601032e-002
3.864810e+003;2.557685e-002
3.866739e+003;2.564640e-002
3.868667e+003;2.522074e-002
3.870596e+003;2.548162e-002
3.872524e+003;2.566324e-002
3.874453e+003;2.558676e-002
3.876381e+003;2.602731e-002
3.878310e+003;2.597475e-002
3.880239e+003;2.528774e-002
3.882167e+003;2.512671e-002
3.884096e+003;2.504815e-002
3.886024e+003;2.490787e-002
3.887953e+003;2.587859e-002
3.889881e+003;2.611312e-002
3.891810e+003;2.627037e-002
3.893738e+003;2.686785e-002
3.895667e+003;2.656915e-002
3.897595e+003;2.618263e-002
3.899524e+003;2.569442e-002
3.901453e+003;2.500031e-002
3.903381e+003;2.521477e-002
3.905310e+003;2.589280e-002
3.907238e+003;2.587923e-002
3.909167e+003;2.629315e-002
3.911095e+003;2.712654e-002
3.913024e+003;2.733101e-002
3.914952e+003;2.642214e-002
3.916881e+003;2.565997e-002
3.918810e+003;2.609490e-002
3.920738e+003;2.665070e-002
3.922667e+003;2.670143e-002
3.924595e+003;2.647430e-002
3.926524e+003;2.636141e-002
3.928452e+003;2.630050e-002
3.930381e+003;2.626270e-002
3.932309e+003;2.672205e-002
3.934238e+003;2.716816e-002
3.936167e+003;2.726355e-002
3.938095e+003;2.699070e-002
3.940023e+003;2.708888e-002
3.941952e+003;2.742884e-002
3.943881e+003;2.724464e-002
3.945809e+003;2.709410e-002
3.947738e+003;2.762208e-002
3.949666e+003;2.803003e-002
3.951595e+003;2.772128e-002
3.953523e+003;2.754893e-002
3.955452e+003;2.761682e-002
3.957380e+003;2.753953e-002
3.959309e+003;2.732967e-002
3.961238e+003;2.763885e-002
3.963166e+003;2.805491e-002
3.965095e+003;2.778150e-002
3.967023e+003;2.723480e-002
3.968952e+003;2.728419e-002
3.970880e+003;2.769935e-002
3.972809e+003;2.787893e-002
3.974737e+003;2.822294e-002
3.976666e+003;2.829533e-002
3.978594e+003;2.812137e-002
3.980523e+003;2.802240e-002
3.982452e+003;2.798571e-002
3.984380e+003;2.790833e-002
3.986309e+003;2.784025e-002
3.988237e+003;2.790614e-002
3.990166e+003;2.825692e-002
3.992094e+003;2.862689e-002
3.994023e+003;2.823889e-002
3.995951e+003;2.822701e-002
3.997880e+003;2.883250e-002
3.999809e+003;2.844611e-002
4.001737e+003;0.000000e+000
