3.992094e+002;0.000000e+000
4.011380e+002;0.000000e+000
4.030665e+002;0.000000e+000
4.049951e+002;0.000000e+000
4.069236e+002;0.000000e+000
4.088522e+002;0.000000e+000
4.107807e+002;0.000000e+000
4.127093e+002;0.000000e+000
4.146378e+002;0.000000e+000
4.165664e+002;0.000000e+000
4.184949e+002;0.000000e+000
4.204235e+002;0.000000e+000
4.223520e+002;0.000000e+000
4.242806e+002;0.000000e+000
4.262091e+002;0.000000e+000
4.281377e+002;0.000000e+000
4.300662e+002;0.000000e+000
4.319948e+002;0.000000e+000
4.339233e+002;0.000000e+000
4.358519e+002;0.000000e+000
4.377804e+002;0.000000e+000
4.397090e+002;0.000000e+000
4.416375e+002;0.000000e+000
4.435660e+002;0.000000e+000
4.454946e+002;0.000000e+000
4.474232e+002;0.000000e+000
4.493517e+002;0.000000e+000
4.512802e+002;0.000000e+000
4.532088e+002;0.000000e+000
4.551373e+002;0.000000e+000
4.570659e+002;0.000000e+000
4.589944e+002;0.000000e+000
4.609230e+002;0.000000e+000
4.628515e+002;0.000000e+000
4.647801e+002;0.000000e+000
4.667086e+002;0.000000e+000
4.686372e+002;0.000000e+000
4.705657e+002;0.000000e+000
4.724943e+002;0.000000e+000
4.744228e+002;0.000000e+000
4.763513e+002;0.000000e+000
4.782799e+002;0.000000e+000
4.802085e+002;0.000000e+000
4.821370e+002;0.000000e+000
4.840656e+002;0.000000e+000
4.859941e+002;0.000000e+000
4.879226e+002;0.000000e+000
4.898512e+002;0.000000e+000
4.917798e+002;0.000000e+000
4.937083e+002;0.000000e+000
4.956368e+002;0.000000e+000
4.975654e+002;0.000000e+000
4.994939e+002;0.000000e+000
5.014225e+002;0.000000e+000
5.033510e+002;0.000000e+000
5.052796e+002;0.000000e+000
5.072081e+002;0.000000e+000
5.091367e+002;0.000000e+000
5.110652e+002;0.000000e+000
5.129938e+002;0.000000e+000
5.149223e+002;0.000000e+000
5.168509e+002;0.000000e+000
5.187794e+002;0.000000e+000
5.207079e+002;0.000000e+000
5.226365e+002;0.000000e+000
5.245651e+002;0.000000e+000
5.264936e+002;0.000000e+000
5.284222e+002;0.000000e+000
5.303507e+002;0.000000e+000
5.322792e+002;0.000000e+000
5.342078e+002;0.000000e+000
5.361364e+002;0.000000e+000
5.380649e+002;0.000000e+000
5.399935e+002;0.000000e+000
5.419220e+002;0.000000e+000
5.438505e+002;0.000000e+000
5.457791e+002;0.000000e+000
5.477076e+002;0.000000e+000
5.496362e+002;0.000000e+000
5.515648e+002;0.000000e+000
5.534933e+002;0.000000e+000
5.554218e+002;0.000000e+000
5.573504e+002;0.000000e+000
5.592789e+002;0.000000e+000
5.612075e+002;0.000000e+000
5.631360e+002;0.000000e+000
5.650646e+002;0.000000e+000
5.669931e+002;0.000000e+000
5.689217e+002;0.000000e+000
5.708502e+002;0.000000e+000
5.727787e+002;0.000000e+000
5.747073e+002;0.000000e+000
5.766359e+002;0.000000e+000
5.785644e+002;0.000000e+000
5.804930e+002;0.000000e+000
5.824215e+002;0.000000e+000
5.843500e+002;0.000000e+000
5.862786e+002;0.000000e+000
5.882072e+002;0.000000e+000
5.901357e+002;0.000000e+000
5.920643e+002;0.000000e+000
5.939928e+002;0.000000e+000
5.959213e+002;0.000000e+000
5.978499e+002;0.000000e+000
5.997784e+002;3.313562e-002
6.017070e+002;3.848038e-002
6.036355e+002;4.786506e-002
6.055641e+002;5.384270e-002
6.074926e+002;4.786817e-002
6.094211e+002;4.062532e-002
6.113497e+002;3.623962e-002
6.132783e+002;3.450893e-002
6.152068e+002;3.719113e-002
6.171354e+002;3.826788e-002
6.190639e+002;3.642025e-002
6.209924e+002;3.541071e-002
6.229210e+002;3.353690e-002
6.248495e+002;3.184809e-002
6.267781e+002;3.135280e-002
6.287067e+002;3.533493e-002
6.306352e+002;3.670464e-002
6.325637e+002;3.308949e-002
6.344923e+002;3.475284e-002
6.364208e+002;3.424555e-002
6.383494e+002;2.994858e-002
6.402780e+002;2.908113e-002
6.422065e+002;2.840112e-002
6.441350e+002;3.116668e-002
6.460636e+002;3.446603e-002
6.479921e+002;3.179083e-002
6.499207e+002;2.955997e-002
6.518492e+002;3.044195e-002
6.537778e+002;2.920079e-002
6.557063e+002;2.560486e-002
6.576349e+002;2.514556e-002
6.595634e+002;2.767293e-002
6.614919e+002;2.958792e-002
6.634205e+002;2.906916e-002
6.653491e+002;2.781492e-002
6.672776e+002;2.672948e-002
6.692062e+002;2.599080e-002
6.711347e+002;2.621469e-002
6.730632e+002;2.529716e-002
6.749918e+002;2.474557e-002
6.769203e+002;2.655122e-002
6.788489e+002;2.658503e-002
6.807775e+002;2.542997e-002
6.827060e+002;2.502242e-002
6.846345e+002;2.477679e-002
6.865631e+002;2.451041e-002
6.884916e+002;2.284158e-002
6.904202e+002;2.162627e-002
6.923488e+002;2.090305e-002
6.942773e+002;2.023151e-002
6.962058e+002;1.951068e-002
6.981344e+002;1.847634e-002
7.000629e+002;1.869622e-002
7.019915e+002;1.918177e-002
7.039200e+002;1.806023e-002
7.058486e+002;1.710846e-002
7.077771e+002;1.685036e-002
7.097057e+002;1.669601e-002
7.116342e+002;1.576148e-002
7.135627e+002;1.448621e-002
7.154913e+002;1.404088e-002
7.174199e+002;1.516889e-002
7.193484e+002;1.700777e-002
7.212770e+002;1.712318e-002
7.232055e+002;1.609691e-002
7.251340e+002;1.623056e-002
7.270626e+002;1.795918e-002
7.289911e+002;1.925073e-002
7.309197e+002;2.002157e-002
7.328483e+002;2.055614e-002
7.347768e+002;2.074471e-002
7.367053e+002;2.101352e-002
7.386339e+002;2.218844e-002
7.405624e+002;2.332092e-002
7.424910e+002;2.269782e-002
7.444196e+002;2.295380e-002
7.463481e+002;2.489713e-002
7.482766e+002;2.584909e-002
7.502052e+002;2.629656e-002
7.521337e+002;2.715388e-002
7.540623e+002;2.866434e-002
7.559908e+002;2.963098e-002
7.579194e+002;2.947943e-002
7.598479e+002;3.009604e-002
7.617765e+002;3.096890e-002
7.637050e+002;3.188061e-002
7.656335e+002;3.269962e-002
7.675621e+002;3.250832e-002
7.694907e+002;3.197693e-002
7.714192e+002;3.271148e-002
7.733478e+002;3.380676e-002
7.752763e+002;3.414127e-002
7.772048e+002;3.402368e-002
7.791334e+002;3.398362e-002
7.810620e+002;3.464381e-002
7.829905e+002;3.604635e-002
7.849191e+002;3.686847e-002
7.868476e+002;3.706553e-002
7.887761e+002;3.723870e-002
7.907047e+002;3.741083e-002
7.926332e+002;3.805082e-002
7.945618e+002;3.841428e-002
7.964903e+002;3.830219e-002
7.984189e+002;3.829947e-002
8.003474e+002;3.819653e-002
8.022759e+002;3.852564e-002
8.042045e+002;3.899051e-002
8.061331e+002;3.890961e-002
8.080616e+002;3.805888e-002
8.099902e+002;3.738078e-002
8.119187e+002;3.727849e-002
8.138472e+002;3.738107e-002
8.157758e+002;3.650839e-002
8.177043e+002;3.577179e-002
8.196329e+002;3.554662e-002
8.215615e+002;3.509063e-002
8.234900e+002;3.476382e-002
8.254185e+002;3.426388e-002
8.273471e+002;3.286474e-002
8.292756e+002;3.053529e-002
8.312042e+002;2.859115e-002
8.331328e+002;2.763878e-002
8.350613e+002;2.722637e-002
8.369898e+002;2.685977e-002
8.389184e+002;2.582816e-002
8.408469e+002;2.550407e-002
8.427755e+002;2.535659e-002
8.447040e+002;2.428123e-002
8.466326e+002;2.330428e-002
8.485611e+002;2.249252e-002
8.504897e+002;2.282516e-002
8.524182e+002;2.302119e-002
8.543467e+002;2.283906e-002
8.562753e+002;2.333969e-002
8.582039e+002;2.431063e-002
8.601324e+002;2.499673e-002
8.620610e+002;2.534823e-002
8.639895e+002;2.552983e-002
8.659180e+002;2.634916e-002
8.678466e+002;2.731333e-002
8.697751e+002;2.742563e-002
8.717037e+002;2.661970e-002
8.736323e+002;2.645003e-002
8.755608e+002;2.680437e-002
8.774893e+002;2.676758e-002
8.794179e+002;2.663280e-002
8.813464e+002;2.648641e-002
8.832750e+002;2.583776e-002
8.852036e+002;2.567814e-002
8.871321e+002;2.613772e-002
8.890606e+002;2.606844e-002
8.909892e+002;2.599568e-002
8.929177e+002;2.599618e-002
8.948463e+002;2.561867e-002
8.967748e+002;2.566008e-002
8.987034e+002;2.596937e-002
9.006319e+002;2.652734e-002
9.025605e+002;2.703376e-002
9.044890e+002;2.723550e-002
9.064175e+002;2.736570e-002
9.083461e+002;2.737720e-002
9.102747e+002;2.760764e-002
9.122032e+002;2.833709e-002
9.141318e+002;2.907419e-002
9.160603e+002;2.988466e-002
9.179888e+002;3.081649e-002
9.199174e+002;3.159077e-002
9.218459e+002;3.268505e-002
9.237745e+002;3.415901e-002
9.257031e+002;3.526424e-002
9.276316e+002;3.642118e-002
9.295601e+002;3.783824e-002
9.314887e+002;3.984041e-002
9.334172e+002;4.103570e-002
9.353458e+002;4.143651e-002
9.372744e+002;4.201403e-002
9.392029e+002;4.267444e-002
9.411314e+002;4.244873e-002
9.430600e+002;4.209875e-002
9.449885e+002;4.215676e-002
9.469171e+002;4.184813e-002
9.488456e+002;4.099389e-002
9.507742e+002;4.012741e-002
9.527027e+002;3.912217e-002
9.546313e+002;3.827765e-002
9.565598e+002;3.786980e-002
9.584883e+002;3.738454e-002
9.604169e+002;3.672497e-002
9.623455e+002;3.670723e-002
9.642740e+002;3.667042e-002
9.662026e+002;3.621037e-002
9.681311e+002;3.590266e-002
9.700596e+002;3.587117e-002
9.719882e+002;3.562595e-002
9.739167e+002;3.526388e-002
9.758453e+002;3.516776e-002
9.777739e+002;3.534352e-002
9.797024e+002;3.550933e-002
9.816309e+002;3.570041e-002
9.835595e+002;3.622777e-002
9.854880e+002;3.680149e-002
9.874166e+002;3.723267e-002
9.893452e+002;3.795683e-002
9.912737e+002;3.898279e-002
9.932022e+002;3.978659e-002
9.951307e+002;4.070431e-002
9.970593e+002;4.207396e-002
9.989879e+002;4.348621e-002
1.000916e+003;4.525738e-002
1.002845e+003;4.758155e-002
1.004773e+003;5.005965e-002
1.006702e+003;5.291321e-002
1.008631e+003;5.584910e-002
1.010559e+003;5.906200e-002
1.012488e+003;6.267484e-002
1.014416e+003;6.657731e-002
1.016345e+003;7.045986e-002
1.018273e+003;7.423531e-002
1.020202e+003;7.740113e-002
1.022130e+003;7.950898e-002
1.024059e+003;8.125322e-002
1.025988e+003;8.205786e-002
1.027916e+003;8.216261e-002
1.029845e+003;8.224481e-002
1.031773e+003;8.253794e-002
1.033702e+003;8.321793e-002
1.035630e+003;8.392262e-002
1.037559e+003;8.530568e-002
1.039487e+003;8.650848e-002
1.041416e+003;8.640703e-002
1.043344e+003;8.538718e-002
1.045273e+003;8.441512e-002
1.047202e+003;8.441693e-002
1.049130e+003;8.475284e-002
1.051059e+003;8.505686e-002
1.052987e+003;8.506653e-002
1.054916e+003;8.571739e-002
1.056844e+003;8.725256e-002
1.058773e+003;8.830412e-002
1.060701e+003;8.946527e-002
1.062630e+003;9.127620e-002
1.064558e+003;9.329859e-002
1.066487e+003;9.470043e-002
1.068416e+003;9.559600e-002
1.070344e+003;9.596895e-002
1.072273e+003;9.546756e-002
1.074201e+003;9.428085e-002
1.076130e+003;9.304947e-002
1.078058e+003;9.185042e-002
1.079987e+003;9.067660e-002
1.081915e+003;8.924328e-002
1.083844e+003;8.779824e-002
1.085773e+003;8.563849e-002
1.087701e+003;8.319790e-002
1.089630e+003;8.157989e-002
1.091558e+003;8.008024e-002
1.093487e+003;7.844830e-002
1.095415e+003;7.661895e-002
1.097344e+003;7.518443e-002
1.099272e+003;7.456820e-002
1.101201e+003;7.365162e-002
1.103129e+003;7.215545e-002
1.105058e+003;7.090556e-002
1.106987e+003;6.942180e-002
1.108915e+003;6.723177e-002
1.110844e+003;6.484534e-002
1.112772e+003;6.306204e-002
1.114701e+003;6.149274e-002
1.116629e+003;5.950500e-002
1.118558e+003;5.679623e-002
1.120486e+003;5.404337e-002
1.122415e+003;5.125506e-002
1.124344e+003;4.815327e-002
1.126272e+003;4.501534e-002
1.128201e+003;4.200373e-002
1.130129e+003;3.928794e-002
1.132058e+003;3.684582e-002
1.133986e+003;3.460487e-002
1.135915e+003;3.294001e-002
1.137843e+003;3.127154e-002
1.139772e+003;2.976924e-002
1.141700e+003;2.895184e-002
1.143629e+003;2.858587e-002
1.145557e+003;2.831287e-002
1.147486e+003;2.755482e-002
1.149415e+003;2.751782e-002
1.151343e+003;2.742873e-002
1.153272e+003;2.736030e-002
1.155200e+003;2.839386e-002
1.157129e+003;2.904638e-002
1.159057e+003;2.924286e-002
1.160986e+003;3.011046e-002
1.162914e+003;3.159002e-002
1.164843e+003;3.350279e-002
1.166771e+003;3.497595e-002
1.168700e+003;3.607843e-002
1.170629e+003;3.814411e-002
1.172557e+003;4.058086e-002
1.174486e+003;4.308877e-002
1.176414e+003;4.544688e-002
1.178343e+003;4.727240e-002
1.180271e+003;4.839163e-002
1.182200e+003;4.941190e-002
1.184128e+003;5.117669e-002
1.186057e+003;5.241934e-002
1.187986e+003;5.351141e-002
1.189914e+003;5.537284e-002
1.191843e+003;5.748353e-002
1.193771e+003;5.937020e-002
1.195700e+003;6.130531e-002
1.197628e+003;6.330255e-002
1.199557e+003;6.541368e-002
1.201485e+003;6.804477e-002
1.203414e+003;7.116837e-002
1.205343e+003;7.452819e-002
1.207271e+003;7.827349e-002
1.209200e+003;8.267620e-002
1.211128e+003;8.765319e-002
1.213057e+003;9.284319e-002
1.214985e+003;9.844176e-002
1.216914e+003;1.045485e-001
1.218842e+003;1.106283e-001
1.220771e+003;1.165548e-001
1.222699e+003;1.216900e-001
1.224628e+003;1.263915e-001
1.226557e+003;1.304823e-001
1.228485e+003;1.335054e-001
1.230414e+003;1.358010e-001
1.232342e+003;1.368771e-001
1.234271e+003;1.363789e-001
1.236199e+003;1.351466e-001
1.238128e+003;1.335707e-001
1.240056e+003;1.307185e-001
1.241985e+003;1.270773e-001
1.243913e+003;1.233829e-001
1.245842e+003;1.189926e-001
1.247771e+003;1.141011e-001
1.249699e+003;1.097651e-001
1.251628e+003;1.057071e-001
1.253556e+003;1.012151e-001
1.255485e+003;9.694087e-002
1.257413e+003;9.355785e-002
1.259342e+003;8.993352e-002
1.261270e+003;8.549335e-002
1.263199e+003;8.088438e-002
1.265127e+003;7.639880e-002
1.267056e+003;7.159866e-002
1.268985e+003;6.694659e-002
1.270913e+003;6.271002e-002
1.272842e+003;5.907927e-002
1.274770e+003;5.625821e-002
1.276699e+003;5.396086e-002
1.278627e+003;5.205645e-002
1.280556e+003;5.030895e-002
1.282484e+003;4.859239e-002
1.284413e+003;4.715715e-002
1.286342e+003;4.634104e-002
1.288270e+003;4.543981e-002
1.290199e+003;4.448223e-002
1.292127e+003;4.405260e-002
1.294056e+003;4.389076e-002
1.295984e+003;4.340726e-002
1.297913e+003;4.309024e-002
1.299841e+003;4.333908e-002
1.301770e+003;4.349907e-002
1.303698e+003;4.323743e-002
1.305627e+003;4.335666e-002
1.307556e+003;4.389989e-002
1.309484e+003;4.428505e-002
1.311413e+003;4.455481e-002
1.313341e+003;4.490355e-002
1.315270e+003;4.520506e-002
1.317198e+003;4.509866e-002
1.319127e+003;4.491747e-002
1.321055e+003;4.483661e-002
1.322984e+003;4.466889e-002
1.324912e+003;4.444905e-002
1.326841e+003;4.481118e-002
1.328770e+003;4.536301e-002
1.330698e+003;4.610211e-002
1.332627e+003;4.706246e-002
1.334555e+003;4.805381e-002
1.336484e+003;4.924000e-002
1.338412e+003;5.077283e-002
1.340341e+003;5.275724e-002
1.342269e+003;5.492621e-002
1.344198e+003;5.677787e-002
1.346126e+003;5.848594e-002
1.348055e+003;6.039925e-002
1.349984e+003;6.245809e-002
1.351912e+003;6.462677e-002
1.353841e+003;6.668238e-002
1.355769e+003;6.837920e-002
1.357698e+003;7.010833e-002
1.359626e+003;7.211801e-002
1.361555e+003;7.391928e-002
1.363483e+003;7.523360e-002
1.365412e+003;7.628092e-002
1.367341e+003;7.693994e-002
1.369269e+003;7.687535e-002
1.371198e+003;7.627863e-002
1.373126e+003;7.534311e-002
1.375055e+003;7.357287e-002
1.376983e+003;7.096810e-002
1.378912e+003;6.737395e-002
1.380840e+003;6.283663e-002
1.382769e+003;5.756176e-002
1.384698e+003;5.235060e-002
1.386626e+003;4.769503e-002
1.388555e+003;4.344388e-002
1.390483e+003;3.935530e-002
1.392412e+003;3.565080e-002
1.394340e+003;3.266929e-002
1.396269e+003;3.037450e-002
1.398197e+003;2.863273e-002
1.400126e+003;2.728123e-002
1.402054e+003;2.613568e-002
1.403983e+003;2.529803e-002
1.405911e+003;2.499988e-002
1.407840e+003;2.506987e-002
1.409769e+003;2.563298e-002
1.411697e+003;2.680694e-002
1.413626e+003;2.845057e-002
1.415554e+003;3.021140e-002
1.417483e+003;3.235287e-002
1.419411e+003;3.518095e-002
1.421340e+003;3.878815e-002
1.423268e+003;4.266899e-002
1.425197e+003;4.677062e-002
1.427125e+003;5.121781e-002
1.429054e+003;5.575170e-002
1.430983e+003;6.090343e-002
1.432911e+003;6.654266e-002
1.434840e+003;7.240395e-002
1.436768e+003;7.859734e-002
1.438697e+003;8.536399e-002
1.440625e+003;9.150717e-002
1.442554e+003;9.690347e-002
1.444482e+003;1.020712e-001
1.446411e+003;1.064385e-001
1.448340e+003;1.092889e-001
1.450268e+003;1.104448e-001
1.452197e+003;1.099997e-001
1.454125e+003;1.072322e-001
1.456054e+003;1.010306e-001
1.457982e+003;9.216506e-002
1.459911e+003;8.263985e-002
1.461839e+003;7.290029e-002
1.463768e+003;6.322168e-002
1.465697e+003;5.393843e-002
1.467625e+003;4.562284e-002
1.469554e+003;3.871892e-002
1.471482e+003;3.324688e-002
1.473411e+003;2.886121e-002
1.475339e+003;2.547986e-002
1.477268e+003;2.293850e-002
1.479196e+003;2.088042e-002
1.481125e+003;1.951966e-002
1.483053e+003;1.879641e-002
1.484982e+003;1.781807e-002
1.486911e+003;1.648172e-002
1.488839e+003;1.509735e-002
1.490768e+003;1.420501e-002
1.492696e+003;1.332187e-002
1.494625e+003;1.244721e-002
1.496553e+003;1.173815e-002
1.498482e+003;1.133165e-002
1.500410e+003;1.103253e-002
1.502339e+003;1.066417e-002
1.504267e+003;9.926217e-003
1.506196e+003;8.992765e-003
1.508125e+003;8.691469e-003
1.510053e+003;9.008766e-003
1.511982e+003;9.067057e-003
1.513910e+003;8.899041e-003
1.515839e+003;8.797761e-003
1.517767e+003;8.752625e-003
1.519696e+003;8.400381e-003
1.521624e+003;7.974912e-003
1.523553e+003;8.020846e-003
1.525481e+003;8.040625e-003
1.527410e+003;7.883633e-003
1.529339e+003;7.834914e-003
1.531267e+003;7.662888e-003
1.533196e+003;7.510483e-003
1.535124e+003;7.410977e-003
1.537053e+003;7.103803e-003
1.538981e+003;6.678156e-003
1.540910e+003;6.436836e-003
1.542838e+003;6.294307e-003
1.544767e+003;6.124873e-003
1.546695e+003;6.514122e-003
1.548624e+003;6.667052e-003
1.550553e+003;6.296929e-003
1.552481e+003;6.021316e-003
1.554410e+003;6.122655e-003
1.556338e+003;6.035998e-003
1.558267e+003;5.580785e-003
1.560195e+003;5.694879e-003
1.562124e+003;6.028539e-003
1.564052e+003;5.921444e-003
1.565981e+003;5.972637e-003
1.567910e+003;6.007676e-003
1.569838e+003;6.126049e-003
1.571767e+003;6.382798e-003
1.573695e+003;6.659583e-003
1.575624e+003;6.625265e-003
1.577552e+003;6.576687e-003
1.579481e+003;6.854437e-003
1.581409e+003;7.225541e-003
1.583338e+003;7.425470e-003
1.585266e+003;7.173359e-003
1.587195e+003;7.038636e-003
1.589124e+003;7.164197e-003
1.591052e+003;7.408954e-003
1.592981e+003;7.524238e-003
1.594909e+003;7.615981e-003
1.596838e+003;7.988479e-003
1.598766e+003;8.646918e-003
1.600695e+003;8.936176e-003
1.602623e+003;9.315598e-003
1.604552e+003;1.008836e-002
1.606480e+003;1.074948e-002
1.608409e+003;1.115449e-002
1.610338e+003;1.179382e-002
1.612266e+003;1.239044e-002
1.614195e+003;1.247415e-002
1.616123e+003;1.260361e-002
1.618052e+003;1.330882e-002
1.619980e+003;1.396087e-002
1.621909e+003;1.419179e-002
1.623837e+003;1.425523e-002
1.625766e+003;1.461538e-002
1.627694e+003;1.513996e-002
1.629623e+003;1.530646e-002
1.631552e+003;1.510579e-002
1.633480e+003;1.480177e-002
1.635409e+003;1.465736e-002
1.637337e+003;1.443955e-002
1.639266e+003;1.390623e-002
1.641194e+003;1.371681e-002
1.643123e+003;1.349725e-002
1.645051e+003;1.306819e-002
1.646980e+003;1.276255e-002
1.648909e+003;1.247398e-002
1.650837e+003;1.188446e-002
1.652766e+003;1.099491e-002
1.654694e+003;1.085869e-002
1.656623e+003;1.117047e-002
1.658551e+003;1.101251e-002
1.660480e+003;1.094679e-002
1.662408e+003;1.071735e-002
1.664337e+003;1.071667e-002
1.666266e+003;1.111825e-002
1.668194e+003;1.139494e-002
1.670123e+003;1.151200e-002
1.672051e+003;1.186923e-002
1.673980e+003;1.229857e-002
1.675908e+003;1.258952e-002
1.677837e+003;1.339995e-002
1.679765e+003;1.429632e-002
1.681694e+003;1.476430e-002
1.683622e+003;1.500868e-002
1.685551e+003;1.576907e-002
1.687479e+003;1.678224e-002
1.689408e+003;1.737924e-002
1.691337e+003;1.831405e-002
1.693265e+003;1.948389e-002
1.695194e+003;2.023658e-002
1.697122e+003;2.119176e-002
1.699051e+003;2.201911e-002
1.700979e+003;2.320409e-002
1.702908e+003;2.516161e-002
1.704836e+003;2.742040e-002
1.706765e+003;3.028731e-002
1.708693e+003;3.413188e-002
1.710622e+003;3.838308e-002
1.712551e+003;4.326400e-002
1.714479e+003;4.926713e-002
1.716408e+003;5.577287e-002
1.718336e+003;6.262542e-002
1.720265e+003;6.995393e-002
1.722193e+003;7.722349e-002
1.724122e+003;8.415808e-002
1.726050e+003;9.057585e-002
1.727979e+003;9.627579e-002
1.729908e+003;1.013623e-001
1.731836e+003;1.056551e-001
1.733765e+003;1.082265e-001
1.735693e+003;1.096541e-001
1.737622e+003;1.095750e-001
1.739550e+003;1.074746e-001
1.741479e+003;1.038719e-001
1.743407e+003;9.893303e-002
1.745336e+003;9.277857e-002
1.747265e+003;8.601243e-002
1.749193e+003;7.891496e-002
1.751122e+003;7.142463e-002
1.753050e+003;6.398101e-002
1.754979e+003;5.661545e-002
1.756907e+003;4.906390e-002
1.758836e+003;4.177301e-002
1.760764e+003;3.493730e-002
1.762693e+003;2.889131e-002
1.764621e+003;2.386894e-002
1.766550e+003;1.932538e-002
1.768479e+003;1.561661e-002
1.770407e+003;1.310350e-002
1.772336e+003;1.118250e-002
1.774264e+003;9.628371e-003
1.776193e+003;8.463421e-003
1.778121e+003;7.656413e-003
1.780050e+003;6.782139e-003
1.781978e+003;5.994170e-003
1.783907e+003;5.628144e-003
1.785835e+003;5.356913e-003
1.787764e+003;4.905796e-003
1.789693e+003;4.293155e-003
1.791621e+003;3.810148e-003
1.793550e+003;3.605094e-003
1.795478e+003;3.461087e-003
1.797407e+003;3.253460e-003
1.799335e+003;3.034455e-003
1.801264e+003;2.854514e-003
1.803192e+003;2.732995e-003
1.805121e+003;2.781945e-003
1.807049e+003;2.897274e-003
1.808978e+003;2.583543e-003
1.810907e+003;2.216449e-003
1.812835e+003;2.073500e-003
1.814764e+003;2.121877e-003
1.816692e+003;2.052227e-003
1.818621e+003;1.848400e-003
1.820549e+003;1.704542e-003
1.822478e+003;1.477738e-003
1.824406e+003;1.406762e-003
1.826335e+003;1.573799e-003
1.828264e+003;1.574398e-003
1.830192e+003;1.375150e-003
1.832121e+003;1.228225e-003
1.834049e+003;1.327222e-003
1.835978e+003;1.506165e-003
1.837906e+003;1.374585e-003
1.839835e+003;1.121676e-003
1.841763e+003;1.040926e-003
1.843692e+003;1.074573e-003
1.845620e+003;1.259294e-003
1.847549e+003;1.302662e-003
1.849478e+003;1.139017e-003
1.851406e+003;1.033022e-003
1.853335e+003;1.143336e-003
1.855263e+003;1.200846e-003
1.857192e+003;9.880536e-004
1.859120e+003;9.490010e-004
1.861049e+003;1.025283e-003
1.862977e+003;9.417620e-004
1.864906e+003;8.860127e-004
1.866834e+003;6.882420e-004
1.868763e+003;4.993519e-004
1.870692e+003;5.737634e-004
1.872620e+003;6.610299e-004
1.874549e+003;4.876754e-004
1.876477e+003;3.882725e-004
1.878406e+003;5.585350e-004
1.880334e+003;6.495150e-004
1.882263e+003;4.203430e-004
1.884191e+003;2.697286e-004
1.886120e+003;2.275248e-004
1.888048e+003;-6.119426e-005
1.889977e+003;-2.893625e-004
1.891906e+003;-2.417118e-004
1.893834e+003;-3.236652e-004
1.895763e+003;-7.294294e-004
1.897691e+003;-1.044751e-003
1.899620e+003;-7.435206e-004
1.901548e+003;-3.030707e-004
1.903477e+003;-5.386572e-004
1.905405e+003;-9.310949e-004
1.907334e+003;-1.031099e-003
1.909262e+003;-1.108409e-003
1.911191e+003;-1.115911e-003
1.913120e+003;-1.143341e-003
1.915048e+003;-1.106922e-003
1.916977e+003;-1.197700e-003
1.918905e+003;-1.292324e-003
1.920834e+003;-1.216137e-003
1.922762e+003;-1.215906e-003
1.924691e+003;-1.389768e-003
1.926619e+003;-1.411170e-003
1.928548e+003;-1.210190e-003
1.930477e+003;-1.326713e-003
1.932405e+003;-1.714974e-003
1.934334e+003;-1.604035e-003
1.936262e+003;-1.492507e-003
1.938191e+003;-1.410575e-003
1.940119e+003;-1.339860e-003
1.942048e+003;-1.770878e-003
1.943976e+003;-2.204041e-003
1.945905e+003;-2.153995e-003
1.947833e+003;-2.034429e-003
1.949762e+003;-2.080630e-003
1.951691e+003;-1.845714e-003
1.953619e+003;-1.523875e-003
1.955548e+003;-1.501884e-003
1.957476e+003;-1.660911e-003
1.959405e+003;-1.652659e-003
1.961333e+003;-1.708406e-003
1.963262e+003;-1.635197e-003
1.965190e+003;-1.520936e-003
1.967119e+003;-1.631467e-003
1.969047e+003;-1.586869e-003
1.970976e+003;-1.539030e-003
1.972905e+003;-1.570659e-003
1.974833e+003;-1.459485e-003
1.976762e+003;-1.420979e-003
1.978690e+003;-1.452352e-003
1.980619e+003;-1.033116e-003
1.982547e+003;-4.610473e-004
1.984476e+003;-4.284106e-004
1.986404e+003;-6.175106e-004
1.988333e+003;-6.166173e-004
1.990261e+003;-6.633006e-004
1.992190e+003;-5.989484e-004
1.994119e+003;-5.070523e-004
1.996047e+003;-5.521590e-004
1.997976e+003;-4.803766e-004
1.999904e+003;-5.046033e-004
2.001833e+003;-6.342192e-004
2.003761e+003;-5.349839e-004
2.005690e+003;-4.077217e-004
2.007618e+003;-3.454837e-004
2.009547e+003;-2.327705e-004
2.011476e+003;-2.516795e-004
2.013404e+003;-1.566295e-004
2.015333e+003;-1.418237e-004
2.017261e+003;-3.443580e-004
2.019190e+003;-3.141296e-004
2.021118e+003;-2.933028e-004
2.023047e+003;-2.402216e-004
2.024975e+003;1.901936e-005
2.026904e+003;1.077653e-004
2.028833e+003;-2.513483e-004
2.030761e+003;-2.465798e-004
2.032690e+003;-1.360271e-004
2.034618e+003;-3.071433e-004
2.036547e+003;-3.963010e-004
2.038475e+003;-4.466159e-004
2.040404e+003;-4.328130e-004
2.042332e+003;-2.997596e-004
2.044261e+003;-1.900153e-004
2.046189e+003;-1.868027e-004
2.048118e+003;-4.585509e-005
2.050047e+003;-2.584378e-005
2.051975e+003;-2.066410e-004
2.053904e+003;-2.123704e-004
2.055832e+003;6.054011e-005
2.057761e+003;1.916233e-004
2.059689e+003;-9.614434e-005
2.061618e+003;-3.677977e-004
2.063546e+003;-4.349315e-004
2.065475e+003;-4.317869e-004
2.067404e+003;-2.633358e-004
2.069332e+003;-1.325159e-004
2.071260e+003;-7.636724e-005
2.073189e+003;-6.536854e-005
2.075118e+003;-1.833251e-004
2.077046e+003;-3.172419e-004
2.078975e+003;-4.292381e-004
2.080903e+003;-4.459539e-004
2.082832e+003;-4.493632e-004
2.084760e+003;-6.043749e-004
2.086689e+003;-6.426229e-004
2.088617e+003;-5.598031e-004
2.090546e+003;-7.599266e-004
2.092475e+003;-8.649637e-004
2.094403e+003;-7.315464e-004
2.096332e+003;-5.570565e-004
2.098260e+003;-7.594966e-004
2.100189e+003;-9.182331e-004
2.102117e+003;-8.753469e-004
2.104046e+003;-9.172412e-004
2.105974e+003;-1.013646e-003
2.107903e+003;-1.094098e-003
2.109832e+003;-9.684876e-004
2.111760e+003;-7.399813e-004
2.113688e+003;-7.561559e-004
2.115617e+003;-9.439562e-004
2.117546e+003;-1.162210e-003
2.119474e+003;-9.933482e-004
2.121403e+003;-6.083124e-004
2.123331e+003;-7.424621e-004
2.125260e+003;-1.111350e-003
2.127188e+003;-1.056683e-003
2.129117e+003;-9.253088e-004
2.131045e+003;-8.321588e-004
2.132974e+003;-6.591651e-004
2.134903e+003;-3.830593e-004
2.136831e+003;-2.792302e-004
2.138760e+003;-3.985190e-004
2.140688e+003;-5.769772e-004
2.142617e+003;-6.376270e-004
2.144545e+003;-6.166173e-004
2.146474e+003;-5.401133e-004
2.148402e+003;-4.036500e-004
2.150331e+003;-5.235004e-004
2.152260e+003;-6.598599e-004
2.154188e+003;-6.007683e-004
2.156117e+003;-3.773984e-004
2.158045e+003;-7.500899e-005
2.159974e+003;-2.021172e-006
2.161902e+003;-4.012347e-005
2.163831e+003;5.507227e-005
2.165759e+003;2.418796e-004
2.167688e+003;4.631294e-004
2.169616e+003;6.075730e-004
2.171545e+003;5.984152e-004
2.173474e+003;4.689672e-004
2.175402e+003;2.298122e-004
2.177331e+003;3.053381e-004
2.179259e+003;6.616604e-004
2.181188e+003;1.451839e-003
2.183116e+003;2.234400e-003
2.185045e+003;3.020842e-003
2.186973e+003;3.958752e-003
2.188902e+003;4.983380e-003
2.190831e+003;5.764646e-003
2.192759e+003;6.096377e-003
2.194688e+003;6.139558e-003
2.196616e+003;5.926819e-003
2.198545e+003;5.525209e-003
2.200473e+003;4.874699e-003
2.202402e+003;4.673229e-003
2.204330e+003;4.807822e-003
2.206259e+003;5.054943e-003
2.208188e+003;5.413340e-003
2.210116e+003;5.708509e-003
2.212044e+003;6.155219e-003
2.213973e+003;6.629101e-003
2.215902e+003;7.213144e-003
2.217830e+003;7.993440e-003
2.219759e+003;9.032176e-003
2.221687e+003;1.031631e-002
2.223616e+003;1.194637e-002
2.225544e+003;1.442927e-002
2.227473e+003;1.917250e-002
2.229401e+003;2.729527e-002
2.231330e+003;3.882243e-002
2.233259e+003;5.264898e-002
2.235187e+003;6.692297e-002
2.237116e+003;7.942746e-002
2.239044e+003;8.923672e-002
2.240973e+003;9.558217e-002
2.242901e+003;9.770824e-002
2.244830e+003;9.559803e-002
2.246758e+003;9.053352e-002
2.248687e+003;8.406297e-002
2.250615e+003;7.653468e-002
2.252544e+003;6.868209e-002
2.254473e+003;6.113157e-002
2.256401e+003;5.356257e-002
2.258330e+003;4.587904e-002
2.260258e+003;3.886236e-002
2.262187e+003;3.275221e-002
2.264115e+003;2.762699e-002
2.266044e+003;2.326138e-002
2.267972e+003;1.970241e-002
2.269901e+003;1.703320e-002
2.271830e+003;1.519857e-002
2.273758e+003;1.389392e-002
2.275687e+003;1.241837e-002
2.277615e+003;1.098074e-002
2.279544e+003;1.039466e-002
2.281472e+003;1.011596e-002
2.283401e+003;9.670720e-003
2.285329e+003;9.521842e-003
2.287258e+003;9.149618e-003
2.289187e+003;8.297022e-003
2.291115e+003;8.018450e-003
2.293043e+003;8.108575e-003
2.294972e+003;8.002148e-003
2.296901e+003;7.795106e-003
2.298829e+003;7.620162e-003
2.300758e+003;7.744676e-003
2.302686e+003;7.908366e-003
2.304615e+003;7.700189e-003
2.306543e+003;7.434200e-003
2.308472e+003;7.319749e-003
2.310400e+003;7.182522e-003
2.312329e+003;7.151868e-003
2.314258e+003;7.348392e-003
2.316186e+003;7.337103e-003
2.318115e+003;7.322983e-003
2.320043e+003;7.467132e-003
2.321972e+003;7.435918e-003
2.323900e+003;7.160558e-003
2.325829e+003;7.233728e-003
2.327757e+003;7.283560e-003
2.329686e+003;7.094474e-003
2.331615e+003;6.939743e-003
2.333543e+003;7.150183e-003
2.335472e+003;7.237198e-003
2.337400e+003;7.057158e-003
2.339329e+003;6.950517e-003
2.341257e+003;7.055306e-003
2.343186e+003;7.458974e-003
2.345114e+003;7.534183e-003
2.347043e+003;6.942066e-003
2.348971e+003;6.593877e-003
2.350900e+003;6.912338e-003
2.352829e+003;6.897930e-003
2.354757e+003;6.832120e-003
2.356686e+003;7.082181e-003
2.358614e+003;7.087064e-003
2.360543e+003;6.909173e-003
2.362471e+003;6.919711e-003
2.364400e+003;7.086795e-003
2.366328e+003;7.257548e-003
2.368257e+003;7.307753e-003
2.370186e+003;7.186396e-003
2.372114e+003;6.988429e-003
2.374042e+003;6.974523e-003
2.375971e+003;7.141325e-003
2.377900e+003;7.178041e-003
2.379828e+003;7.065274e-003
2.381757e+003;6.868104e-003
2.383685e+003;6.963917e-003
2.385614e+003;7.165072e-003
2.387542e+003;7.199096e-003
2.389471e+003;7.025537e-003
2.391399e+003;7.047358e-003
2.393328e+003;7.329083e-003
2.395257e+003;7.090432e-003
2.397185e+003;6.716381e-003
2.399114e+003;6.710896e-003
2.401042e+003;6.768441e-003
2.402971e+003;6.740004e-003
2.404899e+003;6.663890e-003
2.406828e+003;6.765345e-003
2.408756e+003;6.777865e-003
2.410685e+003;6.726140e-003
2.412614e+003;6.721294e-003
2.414542e+003;6.652786e-003
2.416471e+003;6.571843e-003
2.418399e+003;6.368171e-003
2.420328e+003;6.546345e-003
2.422256e+003;6.881569e-003
2.424185e+003;6.907659e-003
2.426113e+003;6.666918e-003
2.428042e+003;6.437273e-003
2.429970e+003;6.554250e-003
2.431899e+003;6.769417e-003
2.433828e+003;7.124315e-003
2.435756e+003;7.027759e-003
2.437685e+003;6.772312e-003
2.439613e+003;6.707363e-003
2.441542e+003;6.746701e-003
2.443470e+003;6.985668e-003
2.445399e+003;7.319277e-003
2.447327e+003;7.392642e-003
2.449256e+003;7.219578e-003
2.451185e+003;7.058438e-003
2.453113e+003;6.930989e-003
2.455042e+003;6.828048e-003
2.456970e+003;6.926511e-003
2.458899e+003;7.271160e-003
2.460827e+003;7.295285e-003
2.462756e+003;7.390047e-003
2.464684e+003;7.687271e-003
2.466613e+003;7.806947e-003
2.468542e+003;7.719143e-003
2.470470e+003;7.393956e-003
2.472398e+003;7.650141e-003
2.474327e+003;7.873713e-003
2.476256e+003;7.854853e-003
2.478184e+003;7.916161e-003
2.480113e+003;8.125050e-003
2.482041e+003;8.230258e-003
2.483970e+003;8.327082e-003
2.485898e+003;8.596626e-003
2.487827e+003;8.640395e-003
2.489755e+003;8.634818e-003
2.491684e+003;9.058159e-003
2.493613e+003;9.182273e-003
2.495541e+003;9.138958e-003
2.497470e+003;9.400136e-003
2.499398e+003;9.425192e-003
2.501327e+003;9.314853e-003
2.503255e+003;9.314074e-003
2.505184e+003;9.334251e-003
2.507112e+003;9.412934e-003
2.509041e+003;9.627287e-003
2.510969e+003;9.720357e-003
2.512898e+003;9.535796e-003
2.514827e+003;9.470263e-003
2.516755e+003;9.692166e-003
2.518684e+003;9.726761e-003
2.520612e+003;9.975647e-003
2.522541e+003;1.006086e-002
2.524469e+003;9.798127e-003
2.526398e+003;9.633080e-003
2.528326e+003;9.715037e-003
2.530255e+003;9.754073e-003
2.532184e+003;9.869133e-003
2.534112e+003;9.898861e-003
2.536041e+003;9.718561e-003
2.537969e+003;9.466234e-003
2.539898e+003;9.360590e-003
2.541826e+003;9.362791e-003
2.543755e+003;9.298333e-003
2.545683e+003;9.307101e-003
2.547612e+003;9.348165e-003
2.549541e+003;9.367869e-003
2.551469e+003;9.226508e-003
2.553397e+003;9.146977e-003
2.555326e+003;9.374979e-003
2.557255e+003;9.260693e-003
2.559183e+003;9.163626e-003
2.561112e+003;9.041886e-003
2.563040e+003;8.952986e-003
2.564969e+003;8.879256e-003
2.566897e+003;8.682950e-003
2.568826e+003;8.432304e-003
2.570754e+003;8.381801e-003
2.572683e+003;8.501634e-003
2.574612e+003;8.325021e-003
2.576540e+003;8.021150e-003
2.578469e+003;8.054430e-003
2.580397e+003;8.195985e-003
2.582326e+003;8.277502e-003
2.584254e+003;8.290166e-003
2.586183e+003;8.272031e-003
2.588111e+003;8.163436e-003
2.590040e+003;8.026786e-003
2.591969e+003;7.820103e-003
2.593897e+003;7.867876e-003
2.595826e+003;8.136055e-003
2.597754e+003;8.068574e-003
2.599683e+003;7.845338e-003
2.601611e+003;7.887378e-003
2.603540e+003;8.138149e-003
2.605468e+003;8.205135e-003
2.607397e+003;7.961312e-003
2.609325e+003;7.771864e-003
2.611254e+003;8.094363e-003
2.613183e+003;8.255922e-003
2.615111e+003;8.213780e-003
2.617040e+003;8.160229e-003
2.618968e+003;7.987737e-003
2.620897e+003;7.731454e-003
2.622825e+003;7.700222e-003
2.624754e+003;8.023276e-003
2.626682e+003;8.515319e-003
2.628611e+003;8.679368e-003
2.630540e+003;8.711617e-003
2.632468e+003;8.758643e-003
2.634396e+003;8.845506e-003
2.636325e+003;8.996081e-003
2.638254e+003;8.913921e-003
2.640182e+003;8.560634e-003
2.642111e+003;8.573543e-003
2.644039e+003;8.948116e-003
2.645968e+003;9.253382e-003
2.647896e+003;8.954813e-003
2.649825e+003;8.562763e-003
2.651753e+003;8.680990e-003
2.653682e+003;8.665339e-003
2.655611e+003;8.385348e-003
2.657539e+003;8.271018e-003
2.659468e+003;8.322454e-003
2.661396e+003;8.553436e-003
2.663325e+003;8.949164e-003
2.665253e+003;9.261200e-003
2.667182e+003;9.277989e-003
2.669110e+003;9.091078e-003
2.671039e+003;8.926570e-003
2.672968e+003;9.041716e-003
2.674896e+003;9.048144e-003
2.676825e+003;8.906887e-003
2.678753e+003;8.738797e-003
2.680682e+003;8.685317e-003
2.682610e+003;8.810543e-003
2.684539e+003;8.930426e-003
2.686467e+003;8.819807e-003
2.688396e+003;8.860826e-003
2.690324e+003;8.924033e-003
2.692253e+003;9.108064e-003
2.694182e+003;9.427833e-003
2.696110e+003;9.391400e-003
2.698039e+003;9.084752e-003
2.699967e+003;8.899615e-003
2.701896e+003;8.641611e-003
2.703824e+003;8.524915e-003
2.705753e+003;8.715369e-003
2.707681e+003;8.801616e-003
2.709610e+003;8.683052e-003
2.711539e+003;8.683085e-003
2.713467e+003;8.683322e-003
2.715396e+003;8.595105e-003
2.717324e+003;8.540595e-003
2.719253e+003;8.620656e-003
2.721181e+003;8.627145e-003
2.723110e+003;8.611801e-003
2.725038e+003;8.485653e-003
2.726967e+003;8.516097e-003
2.728896e+003;8.316409e-003
2.730824e+003;8.182783e-003
2.732752e+003;8.230866e-003
2.734681e+003;8.058818e-003
2.736610e+003;8.051426e-003
2.738538e+003;7.975857e-003
2.740467e+003;7.794195e-003
2.742395e+003;7.632437e-003
2.744324e+003;7.570528e-003
2.746252e+003;7.669330e-003
2.748181e+003;7.542106e-003
2.750109e+003;7.392608e-003
2.752038e+003;7.460019e-003
2.753967e+003;7.408921e-003
2.755895e+003;7.544399e-003
2.757824e+003;7.424796e-003
2.759752e+003;7.408112e-003
2.761681e+003;7.703831e-003
2.763609e+003;8.163740e-003
2.765538e+003;8.066109e-003
2.767466e+003;7.815886e-003
2.769395e+003;8.211045e-003
2.771323e+003;8.735112e-003
2.773252e+003;8.922546e-003
2.775181e+003;9.250809e-003
2.777109e+003;9.397766e-003
2.779038e+003;9.300128e-003
2.780966e+003;9.597172e-003
2.782895e+003;9.815616e-003
2.784823e+003;9.973307e-003
2.786752e+003;1.008595e-002
2.788680e+003;1.023282e-002
2.790609e+003;1.053759e-002
2.792538e+003;1.078688e-002
2.794466e+003;1.146403e-002
2.796395e+003;1.178456e-002
2.798323e+003;1.178585e-002
2.800252e+003;1.184519e-002
2.802180e+003;1.188139e-002
2.804109e+003;1.178721e-002
2.806037e+003;1.180369e-002
2.807966e+003;1.193983e-002
2.809895e+003;1.217220e-002
2.811823e+003;1.241588e-002
2.813751e+003;1.239610e-002
2.815680e+003;1.245147e-002
2.817609e+003;1.291081e-002
2.819537e+003;1.316084e-002
2.821466e+003;1.282500e-002
2.823394e+003;1.284626e-002
2.825323e+003;1.315056e-002
2.827251e+003;1.332631e-002
2.829180e+003;1.367382e-002
2.831108e+003;1.368210e-002
2.833037e+003;1.397702e-002
2.834966e+003;1.455243e-002
2.836894e+003;1.502576e-002
2.838823e+003;1.564859e-002
2.840751e+003;1.662928e-002
2.842680e+003;1.789982e-002
2.844608e+003;1.932392e-002
2.846537e+003;2.067319e-002
2.848465e+003;2.207286e-002
2.850394e+003;2.381297e-002
2.852323e+003;2.585507e-002
2.854251e+003;2.766693e-002
2.856180e+003;2.907500e-002
2.858108e+003;3.064401e-002
2.860037e+003;3.222374e-002
2.861965e+003;3.359703e-002
2.863894e+003;3.477797e-002
2.865822e+003;3.539942e-002
2.867751e+003;3.573228e-002
2.869679e+003;3.614573e-002
2.871608e+003;3.628461e-002
2.873536e+003;3.614890e-002
2.875465e+003;3.598782e-002
2.877394e+003;3.602947e-002
2.879322e+003;3.570545e-002
2.881251e+003;3.492811e-002
2.883179e+003;3.461725e-002
2.885108e+003;3.479757e-002
2.887036e+003;3.501822e-002
2.888965e+003;3.534410e-002
2.890893e+003;3.609518e-002
2.892822e+003;3.681660e-002
2.894750e+003;3.763415e-002
2.896679e+003;3.888011e-002
2.898608e+003;4.028334e-002
2.900536e+003;4.130531e-002
2.902465e+003;4.288194e-002
2.904393e+003;4.524194e-002
2.906322e+003;4.764507e-002
2.908250e+003;4.974988e-002
2.910179e+003;5.180188e-002
2.912107e+003;5.403163e-002
2.914036e+003;5.655348e-002
2.915965e+003;5.871931e-002
2.917893e+003;6.016285e-002
2.919822e+003;6.129020e-002
2.921750e+003;6.259531e-002
2.923679e+003;6.352295e-002
2.925607e+003;6.401027e-002
2.927536e+003;6.476321e-002
2.929464e+003;6.538910e-002
2.931393e+003;6.603587e-002
2.933322e+003;6.652984e-002
2.935250e+003;6.652069e-002
2.937178e+003;6.617041e-002
2.939107e+003;6.578790e-002
2.941036e+003;6.520440e-002
2.942964e+003;6.437111e-002
2.944893e+003;6.307270e-002
2.946821e+003;6.121935e-002
2.948750e+003;5.924846e-002
2.950678e+003;5.737790e-002
2.952607e+003;5.587868e-002
2.954535e+003;5.392942e-002
2.956464e+003;5.160112e-002
2.958393e+003;5.006857e-002
2.960321e+003;4.868849e-002
2.962250e+003;4.730285e-002
2.964178e+003;4.649480e-002
2.966107e+003;4.584100e-002
2.968035e+003;4.511708e-002
2.969964e+003;4.446821e-002
2.971892e+003;4.370161e-002
2.973821e+003;4.285038e-002
2.975750e+003;4.257901e-002
2.977678e+003;4.246813e-002
2.979607e+003;4.194917e-002
2.981535e+003;4.139412e-002
2.983464e+003;4.063471e-002
2.985392e+003;3.991890e-002
2.987321e+003;3.944223e-002
2.989249e+003;3.882895e-002
2.991178e+003;3.851156e-002
2.993106e+003;3.822522e-002
2.995035e+003;3.739627e-002
2.996964e+003;3.616388e-002
2.998892e+003;3.522292e-002
3.000821e+003;3.451238e-002
3.002749e+003;3.374677e-002
3.004678e+003;3.287961e-002
3.006606e+003;3.197468e-002
3.008535e+003;3.104937e-002
3.010463e+003;2.959551e-002
3.012392e+003;2.819529e-002
3.014321e+003;2.728320e-002
3.016249e+003;2.666380e-002
3.018177e+003;2.562141e-002
3.020106e+003;2.477749e-002
3.022035e+003;2.433383e-002
3.023963e+003;2.393185e-002
3.025892e+003;2.342078e-002
3.027820e+003;2.279523e-002
3.029749e+003;2.222070e-002
3.031677e+003;2.172613e-002
3.033606e+003;2.120456e-002
3.035534e+003;2.089012e-002
3.037463e+003;2.077040e-002
3.039392e+003;2.037171e-002
3.041320e+003;1.968899e-002
3.043249e+003;1.921862e-002
3.045177e+003;1.879873e-002
3.047106e+003;1.839983e-002
3.049034e+003;1.816418e-002
3.050963e+003;1.816059e-002
3.052891e+003;1.806956e-002
3.054820e+003;1.765032e-002
3.056749e+003;1.729379e-002
3.058677e+003;1.731672e-002
3.060606e+003;1.718940e-002
3.062534e+003;1.664026e-002
3.064463e+003;1.618890e-002
3.066391e+003;1.585855e-002
3.068320e+003;1.593437e-002
3.070248e+003;1.590687e-002
3.072177e+003;1.543227e-002
3.074105e+003;1.536389e-002
3.076034e+003;1.509234e-002
3.077963e+003;1.468491e-002
3.079891e+003;1.428718e-002
3.081820e+003;1.418946e-002
3.083748e+003;1.421213e-002
3.085677e+003;1.375730e-002
3.087605e+003;1.327746e-002
3.089534e+003;1.299810e-002
3.091462e+003;1.275621e-002
3.093391e+003;1.249280e-002
3.095320e+003;1.231060e-002
3.097248e+003;1.225712e-002
3.099177e+003;1.247203e-002
3.101105e+003;1.212940e-002
3.103034e+003;1.147349e-002
3.104962e+003;1.149326e-002
3.106891e+003;1.151187e-002
3.108819e+003;1.144563e-002
3.110748e+003;1.131495e-002
3.112677e+003;1.090136e-002
3.114605e+003;1.086983e-002
3.116533e+003;1.097262e-002
3.118462e+003;1.041818e-002
3.120391e+003;9.948693e-003
3.122319e+003;9.942964e-003
3.124248e+003;9.993921e-003
3.126176e+003;1.027838e-002
3.128105e+003;9.909708e-003
3.130033e+003;9.431287e-003
3.131962e+003;9.579219e-003
3.133890e+003;9.599069e-003
3.135819e+003;9.274266e-003
3.137748e+003;9.112530e-003
3.139676e+003;9.192494e-003
3.141605e+003;8.529106e-003
3.143533e+003;7.987298e-003
3.145462e+003;8.097435e-003
3.147390e+003;8.128797e-003
3.149319e+003;8.226139e-003
3.151247e+003;8.098043e-003
3.153176e+003;8.166272e-003
3.155104e+003;8.657396e-003
3.157033e+003;8.530086e-003
3.158962e+003;8.469773e-003
3.160890e+003;8.455210e-003
3.162819e+003;8.193283e-003
3.164747e+003;8.057873e-003
3.166676e+003;7.920412e-003
3.168604e+003;7.708654e-003
3.170533e+003;7.732399e-003
3.172461e+003;7.861196e-003
3.174390e+003;8.109757e-003
3.176319e+003;8.020036e-003
3.178247e+003;7.668655e-003
3.180176e+003;7.558424e-003
3.182104e+003;7.597267e-003
3.184033e+003;7.875198e-003
3.185961e+003;8.226374e-003
3.187890e+003;7.956588e-003
3.189818e+003;7.625321e-003
3.191747e+003;7.677963e-003
3.193676e+003;7.731420e-003
3.195604e+003;7.892170e-003
3.197532e+003;8.126265e-003
3.199461e+003;8.036001e-003
3.201390e+003;7.651220e-003
3.203318e+003;7.407033e-003
3.205247e+003;7.438817e-003
3.207175e+003;7.315975e-003
3.209104e+003;7.482705e-003
3.211032e+003;8.076506e-003
3.212961e+003;8.208411e-003
3.214889e+003;8.105030e-003
3.216818e+003;8.203886e-003
3.218747e+003;8.203210e-003
3.220675e+003;8.333600e-003
3.222604e+003;8.348496e-003
3.224532e+003;8.171573e-003
3.226461e+003;8.055814e-003
3.228389e+003;7.934315e-003
3.230318e+003;8.020880e-003
3.232246e+003;8.545968e-003
3.234175e+003;8.807939e-003
3.236104e+003;8.266121e-003
3.238032e+003;7.962055e-003
3.239961e+003;8.146623e-003
3.241889e+003;8.073771e-003
3.243818e+003;7.655705e-003
3.245746e+003;7.934889e-003
3.247675e+003;8.386260e-003
3.249603e+003;8.191123e-003
3.251532e+003;8.224990e-003
3.253460e+003;8.521131e-003
3.255389e+003;8.229583e-003
3.257318e+003;7.908097e-003
3.259246e+003;7.672668e-003
3.261175e+003;7.565774e-003
3.263103e+003;7.464334e-003
3.265032e+003;7.360423e-003
3.266960e+003;7.037626e-003
3.268889e+003;6.940854e-003
3.270817e+003;6.886181e-003
3.272746e+003;6.969607e-003
3.274675e+003;7.202970e-003
3.276603e+003;7.034764e-003
3.278531e+003;6.544831e-003
3.280460e+003;6.213733e-003
3.282389e+003;5.976131e-003
3.284317e+003;5.717541e-003
3.286246e+003;5.520008e-003
3.288174e+003;5.575247e-003
3.290103e+003;5.365803e-003
3.292031e+003;5.169570e-003
3.293960e+003;5.482726e-003
3.295888e+003;5.922821e-003
3.297817e+003;5.949526e-003
3.299746e+003;5.925374e-003
3.301674e+003;5.564977e-003
3.303603e+003;5.255316e-003
3.305531e+003;5.233820e-003
3.307460e+003;5.195993e-003
3.309388e+003;5.017702e-003
3.311317e+003;4.664320e-003
3.313245e+003;4.528398e-003
3.315174e+003;4.828092e-003
3.317103e+003;5.066006e-003
3.319031e+003;5.310791e-003
3.320960e+003;5.394586e-003
3.322888e+003;5.157063e-003
3.324817e+003;4.783098e-003
3.326745e+003;4.441021e-003
3.328674e+003;4.176852e-003
3.330602e+003;4.380235e-003
3.332531e+003;4.819314e-003
3.334459e+003;4.557695e-003
3.336388e+003;4.301119e-003
3.338317e+003;4.682506e-003
3.340245e+003;5.060575e-003
3.342174e+003;4.996954e-003
3.344102e+003;4.899396e-003
3.346031e+003;4.797571e-003
3.347959e+003;4.711580e-003
3.349888e+003;4.445171e-003
3.351816e+003;4.461674e-003
3.353745e+003;4.806114e-003
3.355674e+003;4.957104e-003
3.357602e+003;4.780954e-003
3.359531e+003;4.554648e-003
3.361459e+003;4.397439e-003
3.363388e+003;4.403497e-003
3.365316e+003;4.462277e-003
3.367245e+003;4.232490e-003
3.369173e+003;3.890578e-003
3.371102e+003;3.940863e-003
3.373031e+003;3.591797e-003
3.374959e+003;2.818795e-003
3.376887e+003;3.065754e-003
3.378816e+003;3.074130e-003
3.380745e+003;2.408620e-003
3.382673e+003;2.397292e-003
3.384602e+003;2.670447e-003
3.386530e+003;2.911951e-003
3.388459e+003;3.028082e-003
3.390387e+003;2.454601e-003
3.392316e+003;2.283228e-003
3.394244e+003;2.276300e-003
3.396173e+003;2.131666e-003
3.398102e+003;2.305445e-003
3.400030e+003;2.763105e-003
3.401959e+003;2.962023e-003
3.403887e+003;2.389195e-003
3.405816e+003;2.010548e-003
3.407744e+003;2.439407e-003
3.409673e+003;2.724392e-003
3.411601e+003;2.668814e-003
3.413530e+003;3.015270e-003
3.415458e+003;3.342903e-003
3.417387e+003;3.383775e-003
3.419316e+003;3.582008e-003
3.421244e+003;3.484066e-003
3.423173e+003;3.351551e-003
3.425101e+003;3.411024e-003
3.427030e+003;3.388516e-003
3.428958e+003;3.645322e-003
3.430887e+003;4.132427e-003
3.432815e+003;4.444000e-003
3.434744e+003;4.046166e-003
3.436673e+003;3.858251e-003
3.438601e+003;4.213286e-003
3.440530e+003;4.665324e-003
3.442458e+003;4.744440e-003
3.444387e+003;4.925199e-003
3.446315e+003;5.084879e-003
3.448244e+003;4.906902e-003
3.450172e+003;4.665827e-003
3.452101e+003;4.694765e-003
3.454030e+003;5.028763e-003
3.455958e+003;5.274768e-003
3.457886e+003;5.526048e-003
3.459815e+003;5.885506e-003
3.461744e+003;5.968807e-003
3.463672e+003;5.783718e-003
3.465601e+003;5.413642e-003
3.467529e+003;5.345441e-003
3.469458e+003;5.724859e-003
3.471386e+003;5.880401e-003
3.473315e+003;6.210203e-003
3.475243e+003;6.875779e-003
3.477172e+003;6.895001e-003
3.479101e+003;6.355428e-003
3.481029e+003;6.321672e-003
3.482958e+003;6.169704e-003
3.484886e+003;5.878822e-003
3.486815e+003;6.077997e-003
3.488743e+003;6.064086e-003
3.490672e+003;6.017788e-003
3.492600e+003;6.636805e-003
3.494529e+003;7.225676e-003
3.496458e+003;7.299295e-003
3.498386e+003;7.454963e-003
3.500315e+003;7.302226e-003
3.502243e+003;7.275844e-003
3.504172e+003;7.669161e-003
3.506100e+003;7.997727e-003
3.508029e+003;7.904992e-003
3.509957e+003;8.007278e-003
3.511886e+003;8.125624e-003
3.513814e+003;8.548029e-003
3.515743e+003;8.829850e-003
3.517672e+003;8.950450e-003
3.519600e+003;8.998008e-003
3.521529e+003;9.075312e-003
3.523457e+003;9.317290e-003
3.525386e+003;9.857202e-003
3.527314e+003;1.037104e-002
3.529243e+003;1.091869e-002
3.531171e+003;1.084595e-002
3.533100e+003;1.036453e-002
3.535029e+003;1.014520e-002
3.536957e+003;1.004848e-002
3.538885e+003;1.034274e-002
3.540814e+003;1.040074e-002
3.542743e+003;1.019062e-002
3.544671e+003;1.037053e-002
3.546600e+003;1.029639e-002
3.548528e+003;1.048742e-002
3.550457e+003;1.045273e-002
3.552385e+003;9.970019e-003
3.554314e+003;9.559303e-003
3.556242e+003;9.796942e-003
3.558171e+003;9.696741e-003
3.560100e+003;9.706668e-003
3.562028e+003;9.974765e-003
3.563957e+003;9.895030e-003
3.565885e+003;9.589347e-003
3.567814e+003;9.360963e-003
3.569742e+003;9.576713e-003
3.571671e+003;9.858897e-003
3.573599e+003;9.848390e-003
3.575528e+003;9.480728e-003
3.577457e+003;9.002644e-003
3.579385e+003;8.632924e-003
3.581314e+003;8.930900e-003
3.583242e+003;9.564078e-003
3.585171e+003;9.672176e-003
3.587099e+003;9.085970e-003
3.589028e+003;8.820077e-003
3.590956e+003;9.262521e-003
3.592885e+003;9.749362e-003
3.594813e+003;1.024387e-002
3.596742e+003;1.053746e-002
3.598671e+003;1.064719e-002
3.600599e+003;1.081616e-002
3.602528e+003;1.104697e-002
3.604456e+003;1.105941e-002
3.606385e+003;1.080913e-002
3.608313e+003;1.082879e-002
3.610242e+003;1.147730e-002
3.612170e+003;1.208014e-002
3.614099e+003;1.209761e-002
3.616028e+003;1.194157e-002
3.617956e+003;1.166810e-002
3.619885e+003;1.134233e-002
3.621813e+003;1.137685e-002
3.623742e+003;1.163325e-002
3.625670e+003;1.180205e-002
3.627599e+003;1.144631e-002
3.629527e+003;1.095413e-002
3.631456e+003;1.112872e-002
3.633385e+003;1.131022e-002
3.635313e+003;1.093649e-002
3.637241e+003;1.060193e-002
3.639170e+003;1.009636e-002
3.641099e+003;9.395632e-003
3.643027e+003;9.363265e-003
3.644956e+003;9.112159e-003
3.646884e+003;8.438961e-003
3.648813e+003;8.361669e-003
3.650741e+003;8.520962e-003
3.652670e+003;8.092304e-003
3.654598e+003;7.198456e-003
3.656527e+003;6.356000e-003
3.658456e+003;5.836104e-003
3.660384e+003;5.368587e-003
3.662313e+003;4.818276e-003
3.664241e+003;3.894256e-003
3.666170e+003;3.235133e-003
3.668098e+003;2.825765e-003
3.670027e+003;2.522883e-003
3.671955e+003;2.363009e-003
3.673884e+003;2.183779e-003
3.675813e+003;1.693099e-003
3.677741e+003;8.668226e-004
3.679669e+003;6.100615e-004
3.681598e+003;1.184565e-003
3.683527e+003;1.083375e-003
3.685455e+003;5.412172e-004
3.687384e+003;3.869128e-004
3.689312e+003;7.252467e-004
3.691241e+003;1.126958e-003
3.693169e+003;7.514671e-004
3.695098e+003;8.257788e-005
3.697026e+003;1.438587e-004
3.698955e+003;4.354338e-004
3.700884e+003;3.503681e-004
3.702812e+003;7.343124e-005
3.704741e+003;-2.717797e-004
3.706669e+003;-6.119426e-005
3.708598e+003;1.321587e-004
3.710526e+003;-8.809448e-005
3.712455e+003;-3.542903e-004
3.714383e+003;-9.339482e-005
3.716312e+003;2.252373e-004
3.718240e+003;5.225067e-004
3.720169e+003;2.607106e-004
3.722098e+003;-2.026005e-004
3.724026e+003;-3.311478e-004
3.725955e+003;-1.240361e-004
3.727883e+003;-1.617634e-004
3.729812e+003;-4.270203e-004
3.731740e+003;-1.774297e-004
3.733669e+003;-1.252449e-005
3.735597e+003;-2.718791e-004
3.737526e+003;-7.941503e-005
3.739455e+003;6.107033e-005
3.741383e+003;-1.815366e-004
3.743312e+003;-5.288285e-004
3.745240e+003;-5.516295e-004
3.747169e+003;-2.799736e-005
3.749097e+003;3.485774e-004
3.751026e+003;2.192702e-004
3.752954e+003;1.628512e-004
3.754883e+003;3.657550e-004
3.756812e+003;2.220880e-004
3.758740e+003;-1.360933e-004
3.760668e+003;-1.272823e-004
3.762597e+003;2.618047e-004
3.764526e+003;3.009613e-004
3.766454e+003;5.029345e-004
3.768383e+003;7.178787e-004
3.770311e+003;7.569105e-004
3.772240e+003;7.063291e-004
3.774168e+003;8.353831e-004
3.776097e+003;5.657676e-004
3.778025e+003;1.966619e-004
3.779954e+003;8.032434e-005
3.781883e+003;6.849898e-004
3.783811e+003;1.370962e-003
3.785740e+003;1.609283e-003
3.787668e+003;1.183004e-003
3.789597e+003;6.073407e-004
3.791525e+003;4.124495e-004
3.793454e+003;4.277723e-004
3.795382e+003;4.633947e-004
3.797311e+003;7.757307e-004
3.799240e+003;5.565445e-004
3.801168e+003;2.098223e-004
3.803097e+003;6.724787e-004
3.805025e+003;1.140379e-003
3.806954e+003;7.153895e-004
3.808882e+003;4.148706e-004
3.810811e+003;2.810676e-004
3.812739e+003;4.892676e-004
3.814668e+003;7.956472e-004
3.816596e+003;9.022487e-004
3.818525e+003;8.669222e-004
3.820454e+003;1.082246e-003
3.822382e+003;1.479068e-003
3.824311e+003;1.489142e-003
3.826239e+003;1.247231e-003
3.828168e+003;1.183934e-003
3.830096e+003;1.283785e-003
3.832025e+003;1.339087e-003
3.833953e+003;1.172904e-003
3.835882e+003;6.430442e-004
3.837811e+003;4.644230e-004
3.839739e+003;1.059427e-003
3.841667e+003;1.212973e-003
3.843596e+003;9.426586e-004
3.845525e+003;8.967703e-004
3.847453e+003;1.191975e-003
3.849382e+003;1.344538e-003
3.851310e+003;9.999428e-004
3.853239e+003;4.844246e-004
3.855167e+003;6.940498e-004
3.857096e+003;1.092942e-003
3.859024e+003;1.570840e-003
3.860953e+003;1.930266e-003
3.862882e+003;1.941581e-003
3.864810e+003;1.848234e-003
3.866739e+003;2.023364e-003
3.868667e+003;1.753776e-003
3.870596e+003;8.208759e-004
3.872524e+003;6.422478e-004
3.874453e+003;9.871237e-004
3.876381e+003;1.351684e-003
3.878310e+003;1.695294e-003
3.880239e+003;1.840647e-003
3.882167e+003;1.899115e-003
3.884096e+003;1.933727e-003
3.886024e+003;2.009616e-003
3.887953e+003;1.951633e-003
3.889881e+003;2.029889e-003
3.891810e+003;2.056554e-003
3.893738e+003;1.556108e-003
3.895667e+003;1.269296e-003
3.897595e+003;1.387615e-003
3.899524e+003;1.494129e-003
3.901453e+003;1.869997e-003
3.903381e+003;2.179650e-003
3.905310e+003;2.328397e-003
3.907238e+003;2.311741e-003
3.909167e+003;2.334093e-003
3.911095e+003;2.170326e-003
3.913024e+003;2.047400e-003
3.914952e+003;2.338157e-003
3.916881e+003;2.431710e-003
3.918810e+003;2.774209e-003
3.920738e+003;2.741664e-003
3.922667e+003;2.746332e-003
3.924595e+003;3.297462e-003
3.926524e+003;3.327978e-003
3.928452e+003;2.987311e-003
3.930381e+003;2.747399e-003
3.932309e+003;3.054108e-003
3.934238e+003;3.155358e-003
3.936167e+003;2.757869e-003
3.938095e+003;2.981272e-003
3.940023e+003;3.454006e-003
3.941952e+003;3.222883e-003
3.943881e+003;3.171045e-003
3.945809e+003;3.398802e-003
3.947738e+003;3.025313e-003
3.949666e+003;2.817728e-003
3.951595e+003;3.165037e-003
3.953523e+003;3.427822e-003
3.955452e+003;3.684484e-003
3.957380e+003;4.212516e-003
3.959309e+003;3.964470e-003
3.961238e+003;3.533569e-003
3.963166e+003;3.362671e-003
3.965095e+003;3.723082e-003
3.967023e+003;4.218773e-003
3.968952e+003;4.012723e-003
3.970880e+003;4.016302e-003
3.972809e+003;4.210441e-003
3.974737e+003;4.789698e-003
3.976666e+003;5.139360e-003
3.978594e+003;4.607656e-003
3.980523e+003;4.360789e-003
3.982452e+003;4.521735e-003
3.984380e+003;3.973799e-003
3.986309e+003;3.976541e-003
3.988237e+003;4.837507e-003
3.990166e+003;4.894135e-003
3.992094e+003;4.489327e-003
3.994023e+003;4.346365e-003
3.995951e+003;4.972721e-003
3.997880e+003;5.110727e-003
3.999809e+003;4.958511e-003
4.001737e+003;0.000000e+000
