3.992094e+002;0.000000e+000
4.011380e+002;0.000000e+000
4.030665e+002;0.000000e+000
4.049951e+002;0.000000e+000
4.069236e+002;0.000000e+000
4.088522e+002;0.000000e+000
4.107807e+002;0.000000e+000
4.127093e+002;0.000000e+000
4.146378e+002;0.000000e+000
4.165664e+002;0.000000e+000
4.184949e+002;0.000000e+000
4.204235e+002;0.000000e+000
4.223520e+002;0.000000e+000
4.242806e+002;0.000000e+000
4.262091e+002;0.000000e+000
4.281377e+002;0.000000e+000
4.300662e+002;0.000000e+000
4.319948e+002;0.000000e+000
4.339233e+002;0.000000e+000
4.358519e+002;0.000000e+000
4.377804e+002;0.000000e+000
4.397090e+002;0.000000e+000
4.416375e+002;0.000000e+000
4.435660e+002;0.000000e+000
4.454946e+002;0.000000e+000
4.474232e+002;0.000000e+000
4.493517e+002;0.000000e+000
4.512802e+002;0.000000e+000
4.532088e+002;0.000000e+000
4.551373e+002;0.000000e+000
4.570659e+002;0.000000e+000
4.589944e+002;0.000000e+000
4.609230e+002;0.000000e+000
4.628515e+002;0.000000e+000
4.647801e+002;0.000000e+000
4.667086e+002;0.000000e+000
4.686372e+002;0.000000e+000
4.705657e+002;0.000000e+000
4.724943e+002;0.000000e+000
4.744228e+002;0.000000e+000
4.763513e+002;0.000000e+000
4.782799e+002;0.000000e+000
4.802085e+002;0.000000e+000
4.821370e+002;0.000000e+000
4.840656e+002;0.000000e+000
4.859941e+002;0.000000e+000
4.879226e+002;0.000000e+000
4.898512e+002;0.000000e+000
4.917798e+002;0.000000e+000
4.937083e+002;0.000000e+000
4.956368e+002;0.000000e+000
4.975654e+002;0.000000e+000
4.994939e+002;0.000000e+000
5.014225e+002;0.000000e+000
5.033510e+002;0.000000e+000
5.052796e+002;0.000000e+000
5.072081e+002;0.000000e+000
5.091367e+002;0.000000e+000
5.110652e+002;0.000000e+000
5.129938e+002;0.000000e+000
5.149223e+002;0.000000e+000
5.168509e+002;0.000000e+000
5.187794e+002;0.000000e+000
5.207079e+002;0.000000e+000
5.226365e+002;0.000000e+000
5.245651e+002;0.000000e+000
5.264936e+002;0.000000e+000
5.284222e+002;0.000000e+000
5.303507e+002;0.000000e+000
5.322792e+002;0.000000e+000
5.342078e+002;0.000000e+000
5.361364e+002;0.000000e+000
5.380649e+002;0.000000e+000
5.399935e+002;0.000000e+000
5.419220e+002;0.000000e+000
5.438505e+002;0.000000e+000
5.457791e+002;0.000000e+000
5.477076e+002;0.000000e+000
5.496362e+002;0.000000e+000
5.515648e+002;0.000000e+000
5.534933e+002;0.000000e+000
5.554218e+002;0.000000e+000
5.573504e+002;0.000000e+000
5.592789e+002;0.000000e+000
5.612075e+002;0.000000e+000
5.631360e+002;0.000000e+000
5.650646e+002;0.000000e+000
5.669931e+002;0.000000e+000
5.689217e+002;0.000000e+000
5.708502e+002;0.000000e+000
5.727787e+002;0.000000e+000
5.747073e+002;0.000000e+000
5.766359e+002;0.000000e+000
5.785644e+002;0.000000e+000
5.804930e+002;0.000000e+000
5.824215e+002;0.000000e+000
5.843500e+002;0.000000e+000
5.862786e+002;0.000000e+000
5.882072e+002;0.000000e+000
5.901357e+002;0.000000e+000
5.920643e+002;0.000000e+000
5.939928e+002;0.000000e+000
5.959213e+002;0.000000e+000
5.978499e+002;0.000000e+000
5.997784e+002;6.174801e-002
6.017070e+002;6.458247e-002
6.036355e+002;6.644717e-002
6.055641e+002;6.791779e-002
6.074926e+002;6.456771e-002
6.094211e+002;6.490620e-002
6.113497e+002;6.436473e-002
6.132783e+002;6.303990e-002
6.152068e+002;6.316335e-002
6.171354e+002;6.223582e-002
6.190639e+002;6.444079e-002
6.209924e+002;6.641952e-002
6.229210e+002;6.564914e-002
6.248495e+002;6.229074e-002
6.267781e+002;6.046605e-002
6.287067e+002;6.198122e-002
6.306352e+002;6.329612e-002
6.325637e+002;6.137125e-002
6.344923e+002;6.124407e-002
6.364208e+002;6.306905e-002
6.383494e+002;6.513942e-002
6.402780e+002;6.475163e-002
6.422065e+002;6.116075e-002
6.441350e+002;6.281986e-002
6.460636e+002;6.620687e-002
6.479921e+002;6.256362e-002
6.499207e+002;6.082563e-002
6.518492e+002;6.168610e-002
6.537778e+002;6.145190e-002
6.557063e+002;6.309472e-002
6.576349e+002;6.414848e-002
6.595634e+002;6.361493e-002
6.614919e+002;6.332164e-002
6.634205e+002;6.322636e-002
6.653491e+002;6.200580e-002
6.672776e+002;6.149946e-002
6.692062e+002;6.331176e-002
6.711347e+002;6.464603e-002
6.730632e+002;6.492002e-002
6.749918e+002;6.447199e-002
6.769203e+002;6.615636e-002
6.788489e+002;6.868869e-002
6.807775e+002;6.796173e-002
6.827060e+002;6.588742e-002
6.846345e+002;6.563681e-002
6.865631e+002;6.479987e-002
6.884916e+002;6.327323e-002
6.904202e+002;6.314664e-002
6.923488e+002;6.347567e-002
6.942773e+002;6.361984e-002
6.962058e+002;6.333511e-002
6.981344e+002;6.263993e-002
7.000629e+002;6.219238e-002
7.019915e+002;6.293514e-002
7.039200e+002;6.406809e-002
7.058486e+002;6.396757e-002
7.077771e+002;6.335044e-002
7.097057e+002;6.245637e-002
7.116342e+002;6.127318e-002
7.135627e+002;6.018276e-002
7.154913e+002;5.920882e-002
7.174199e+002;6.025412e-002
7.193484e+002;6.114100e-002
7.212770e+002;6.041544e-002
7.232055e+002;5.966402e-002
7.251340e+002;6.019497e-002
7.270626e+002;6.127200e-002
7.289911e+002;6.235591e-002
7.309197e+002;6.362917e-002
7.328483e+002;6.440266e-002
7.347768e+002;6.416718e-002
7.367053e+002;6.386903e-002
7.386339e+002;6.452093e-002
7.405624e+002;6.627974e-002
7.424910e+002;6.704371e-002
7.444196e+002;6.727661e-002
7.463481e+002;6.784543e-002
7.482766e+002;6.875813e-002
7.502052e+002;7.008217e-002
7.521337e+002;7.049131e-002
7.540623e+002;6.971679e-002
7.559908e+002;6.952480e-002
7.579194e+002;6.957959e-002
7.598479e+002;6.932668e-002
7.617765e+002;6.924953e-002
7.637050e+002;6.981861e-002
7.656335e+002;6.972814e-002
7.675621e+002;6.931047e-002
7.694907e+002;6.909139e-002
7.714192e+002;6.915798e-002
7.733478e+002;6.860121e-002
7.752763e+002;6.758721e-002
7.772048e+002;6.749942e-002
7.791334e+002;6.682403e-002
7.810620e+002;6.571339e-002
7.829905e+002;6.496215e-002
7.849191e+002;6.463077e-002
7.868476e+002;6.523452e-002
7.887761e+002;6.516834e-002
7.907047e+002;6.380820e-002
7.926332e+002;6.295015e-002
7.945618e+002;6.308319e-002
7.964903e+002;6.288906e-002
7.984189e+002;6.266776e-002
8.003474e+002;6.277097e-002
8.022759e+002;6.159433e-002
8.042045e+002;6.048151e-002
8.061331e+002;6.048421e-002
8.080616e+002;6.050825e-002
8.099902e+002;5.998699e-002
8.119187e+002;5.884435e-002
8.138472e+002;5.828912e-002
8.157758e+002;5.903083e-002
8.177043e+002;5.947509e-002
8.196329e+002;5.955687e-002
8.215615e+002;5.885884e-002
8.234900e+002;5.850456e-002
8.254185e+002;5.946070e-002
8.273471e+002;6.060096e-002
8.292756e+002;6.195356e-002
8.312042e+002;6.279532e-002
8.331328e+002;6.282997e-002
8.350613e+002;6.292897e-002
8.369898e+002;6.297956e-002
8.389184e+002;6.237477e-002
8.408469e+002;6.162905e-002
8.427755e+002;6.022177e-002
8.447040e+002;5.822679e-002
8.466326e+002;5.721420e-002
8.485611e+002;5.682429e-002
8.504897e+002;5.608052e-002
8.524182e+002;5.454458e-002
8.543467e+002;5.293806e-002
8.562753e+002;5.262018e-002
8.582039e+002;5.276019e-002
8.601324e+002;5.193484e-002
8.620610e+002;5.148606e-002
8.639895e+002;5.144149e-002
8.659180e+002;5.158732e-002
8.678466e+002;5.187304e-002
8.697751e+002;5.199086e-002
8.717037e+002;5.186240e-002
8.736323e+002;5.167012e-002
8.755608e+002;5.169629e-002
8.774893e+002;5.184265e-002
8.794179e+002;5.144160e-002
8.813464e+002;5.122829e-002
8.832750e+002;5.168688e-002
8.852036e+002;5.189067e-002
8.871321e+002;5.157433e-002
8.890606e+002;5.114072e-002
8.909892e+002;5.118296e-002
8.929177e+002;5.113957e-002
8.948463e+002;5.078813e-002
8.967748e+002;5.017470e-002
8.987034e+002;4.992481e-002
9.006319e+002;5.049061e-002
9.025605e+002;5.092440e-002
9.044890e+002;5.099690e-002
9.064175e+002;5.137890e-002
9.083461e+002;5.130599e-002
9.102747e+002;5.122967e-002
9.122032e+002;5.133441e-002
9.141318e+002;5.134440e-002
9.160603e+002;5.138543e-002
9.179888e+002;5.148103e-002
9.199174e+002;5.154620e-002
9.218459e+002;5.201073e-002
9.237745e+002;5.201390e-002
9.257031e+002;5.169244e-002
9.276316e+002;5.218227e-002
9.295601e+002;5.250959e-002
9.314887e+002;5.232750e-002
9.334172e+002;5.250717e-002
9.353458e+002;5.329034e-002
9.372744e+002;5.384056e-002
9.392029e+002;5.422514e-002
9.411314e+002;5.472896e-002
9.430600e+002;5.488933e-002
9.449885e+002;5.506393e-002
9.469171e+002;5.590901e-002
9.488456e+002;5.693220e-002
9.507742e+002;5.779758e-002
9.527027e+002;5.824918e-002
9.546313e+002;5.861793e-002
9.565598e+002;5.894718e-002
9.584883e+002;5.887223e-002
9.604169e+002;5.884958e-002
9.623455e+002;5.909396e-002
9.642740e+002;5.903083e-002
9.662026e+002;5.869533e-002
9.681311e+002;5.875956e-002
9.700596e+002;5.836639e-002
9.719882e+002;5.747298e-002
9.739167e+002;5.729245e-002
9.758453e+002;5.719549e-002
9.777739e+002;5.710388e-002
9.797024e+002;5.719746e-002
9.816309e+002;5.722989e-002
9.835595e+002;5.726822e-002
9.854880e+002;5.718888e-002
9.874166e+002;5.721462e-002
9.893452e+002;5.805788e-002
9.912737e+002;5.894392e-002
9.932022e+002;5.887660e-002
9.951307e+002;5.909707e-002
9.970593e+002;5.993198e-002
9.989879e+002;6.082677e-002
1.000916e+003;6.138892e-002
1.002845e+003;6.215339e-002
1.004773e+003;6.303389e-002
1.006702e+003;6.373414e-002
1.008631e+003;6.456698e-002
1.010559e+003;6.550941e-002
1.012488e+003;6.656139e-002
1.014416e+003;6.747987e-002
1.016345e+003;6.881714e-002
1.018273e+003;7.011803e-002
1.020202e+003;7.125570e-002
1.022130e+003;7.210863e-002
1.024059e+003;7.313306e-002
1.025988e+003;7.513546e-002
1.027916e+003;7.673272e-002
1.029845e+003;7.853286e-002
1.031773e+003;8.146413e-002
1.033702e+003;8.547802e-002
1.035630e+003;8.951075e-002
1.037559e+003;9.192051e-002
1.039487e+003;9.187818e-002
1.041416e+003;9.025918e-002
1.043344e+003;8.904901e-002
1.045273e+003;8.867826e-002
1.047202e+003;8.899663e-002
1.049130e+003;8.967919e-002
1.051059e+003;9.070089e-002
1.052987e+003;9.170049e-002
1.054916e+003;9.282661e-002
1.056844e+003;9.433240e-002
1.058773e+003;9.627683e-002
1.060701e+003;9.877191e-002
1.062630e+003;1.006401e-001
1.064558e+003;1.017335e-001
1.066487e+003;1.020075e-001
1.068416e+003;1.018556e-001
1.070344e+003;1.018093e-001
1.072273e+003;1.010223e-001
1.074201e+003;9.947665e-002
1.076130e+003;9.811785e-002
1.078058e+003;9.679095e-002
1.079987e+003;9.512618e-002
1.081915e+003;9.299914e-002
1.083844e+003;9.133335e-002
1.085773e+003;8.968306e-002
1.087701e+003;8.732851e-002
1.089630e+003;8.573915e-002
1.091558e+003;8.469763e-002
1.093487e+003;8.350786e-002
1.095415e+003;8.200914e-002
1.097344e+003;8.109452e-002
1.099272e+003;8.108569e-002
1.101201e+003;8.050155e-002
1.103129e+003;7.997356e-002
1.105058e+003;7.965811e-002
1.106987e+003;7.889600e-002
1.108915e+003;7.760166e-002
1.110844e+003;7.632496e-002
1.112772e+003;7.508485e-002
1.114701e+003;7.387022e-002
1.116629e+003;7.287943e-002
1.118558e+003;7.165524e-002
1.120486e+003;6.982896e-002
1.122415e+003;6.785918e-002
1.124344e+003;6.611916e-002
1.126272e+003;6.407274e-002
1.128201e+003;6.235522e-002
1.130129e+003;6.115229e-002
1.132058e+003;6.011452e-002
1.133986e+003;5.992894e-002
1.135915e+003;6.029817e-002
1.137843e+003;6.080219e-002
1.139772e+003;6.210464e-002
1.141700e+003;6.399990e-002
1.143629e+003;6.537065e-002
1.145557e+003;6.722334e-002
1.147486e+003;7.026934e-002
1.149415e+003;7.405011e-002
1.151343e+003;7.786206e-002
1.153272e+003;8.198670e-002
1.155200e+003;8.700886e-002
1.157129e+003;9.224876e-002
1.159057e+003;9.689378e-002
1.160986e+003;1.008199e-001
1.162914e+003;1.044541e-001
1.164843e+003;1.076724e-001
1.166771e+003;1.092784e-001
1.168700e+003;1.096920e-001
1.170629e+003;1.093822e-001
1.172557e+003;1.085565e-001
1.174486e+003;1.067332e-001
1.176414e+003;1.043416e-001
1.178343e+003;1.021506e-001
1.180271e+003;1.003642e-001
1.182200e+003;9.913702e-002
1.184128e+003;9.828751e-002
1.186057e+003;9.839904e-002
1.187986e+003;9.915317e-002
1.189914e+003;1.001018e-001
1.191843e+003;1.010144e-001
1.193771e+003;1.016892e-001
1.195700e+003;1.024568e-001
1.197628e+003;1.032626e-001
1.199557e+003;1.033671e-001
1.201485e+003;1.031099e-001
1.203414e+003;1.028369e-001
1.205343e+003;1.023519e-001
1.207271e+003;1.018865e-001
1.209200e+003;1.013954e-001
1.211128e+003;1.008917e-001
1.213057e+003;1.003972e-001
1.214985e+003;1.001720e-001
1.216914e+003;9.990904e-002
1.218842e+003;9.954923e-002
1.220771e+003;9.943007e-002
1.222699e+003;9.939287e-002
1.224628e+003;9.973508e-002
1.226557e+003;9.950631e-002
1.228485e+003;9.906734e-002
1.230414e+003;9.919681e-002
1.232342e+003;9.907212e-002
1.234271e+003;9.811656e-002
1.236199e+003;9.698076e-002
1.238128e+003;9.658447e-002
1.240056e+003;9.625495e-002
1.241985e+003;9.611209e-002
1.243913e+003;9.619412e-002
1.245842e+003;9.613115e-002
1.247771e+003;9.608840e-002
1.249699e+003;9.589196e-002
1.251628e+003;9.596135e-002
1.253556e+003;9.595387e-002
1.255485e+003;9.528213e-002
1.257413e+003;9.472498e-002
1.259342e+003;9.431773e-002
1.261270e+003;9.390450e-002
1.263199e+003;9.348708e-002
1.265127e+003;9.305324e-002
1.267056e+003;9.240478e-002
1.268985e+003;9.205090e-002
1.270913e+003;9.166714e-002
1.272842e+003;9.083692e-002
1.274770e+003;8.984582e-002
1.276699e+003;8.906951e-002
1.278627e+003;8.784756e-002
1.280556e+003;8.611556e-002
1.282484e+003;8.450744e-002
1.284413e+003;8.299870e-002
1.286342e+003;8.191635e-002
1.288270e+003;8.099186e-002
1.290199e+003;7.969027e-002
1.292127e+003;7.872780e-002
1.294056e+003;7.791150e-002
1.295984e+003;7.691392e-002
1.297913e+003;7.623803e-002
1.299841e+003;7.615463e-002
1.301770e+003;7.615613e-002
1.303698e+003;7.589727e-002
1.305627e+003;7.551561e-002
1.307556e+003;7.520141e-002
1.309484e+003;7.515347e-002
1.311413e+003;7.509623e-002
1.313341e+003;7.510899e-002
1.315270e+003;7.536727e-002
1.317198e+003;7.578750e-002
1.319127e+003;7.612115e-002
1.321055e+003;7.623392e-002
1.322984e+003;7.635336e-002
1.324912e+003;7.631785e-002
1.326841e+003;7.631595e-002
1.328770e+003;7.671690e-002
1.330698e+003;7.727828e-002
1.332627e+003;7.804714e-002
1.334555e+003;7.880609e-002
1.336484e+003;7.934783e-002
1.338412e+003;8.000968e-002
1.340341e+003;8.092315e-002
1.342269e+003;8.201579e-002
1.344198e+003;8.340932e-002
1.346126e+003;8.421507e-002
1.348055e+003;8.448704e-002
1.349984e+003;8.491691e-002
1.351912e+003;8.547734e-002
1.353841e+003;8.546253e-002
1.355769e+003;8.522540e-002
1.357698e+003;8.512304e-002
1.359626e+003;8.489911e-002
1.361555e+003;8.479199e-002
1.363483e+003;8.439580e-002
1.365412e+003;8.375672e-002
1.367341e+003;8.299939e-002
1.369269e+003;8.219709e-002
1.371198e+003;8.145194e-002
1.373126e+003;8.044707e-002
1.375055e+003;7.949120e-002
1.376983e+003;7.864229e-002
1.378912e+003;7.773960e-002
1.380840e+003;7.707623e-002
1.382769e+003;7.626959e-002
1.384698e+003;7.493749e-002
1.386626e+003;7.335266e-002
1.388555e+003;7.165302e-002
1.390483e+003;7.000551e-002
1.392412e+003;6.804451e-002
1.394340e+003;6.533006e-002
1.396269e+003;6.296455e-002
1.398197e+003;6.111079e-002
1.400126e+003;5.942897e-002
1.402054e+003;5.836195e-002
1.403983e+003;5.790354e-002
1.405911e+003;5.767969e-002
1.407840e+003;5.760973e-002
1.409769e+003;5.766425e-002
1.411697e+003;5.822209e-002
1.413626e+003;5.894445e-002
1.415554e+003;5.980233e-002
1.417483e+003;6.084751e-002
1.419411e+003;6.249945e-002
1.421340e+003;6.523005e-002
1.423268e+003;6.875413e-002
1.425197e+003;7.327648e-002
1.427125e+003;7.857749e-002
1.429054e+003;8.456818e-002
1.430983e+003;9.098344e-002
1.432911e+003;9.653328e-002
1.434840e+003;1.012964e-001
1.436768e+003;1.062408e-001
1.438697e+003;1.114370e-001
1.440625e+003;1.164679e-001
1.442554e+003;1.214597e-001
1.444482e+003;1.265680e-001
1.446411e+003;1.308785e-001
1.448340e+003;1.341199e-001
1.450268e+003;1.360102e-001
1.452197e+003;1.353168e-001
1.454125e+003;1.312788e-001
1.456054e+003;1.242450e-001
1.457982e+003;1.155735e-001
1.459911e+003;1.066442e-001
1.461839e+003;9.749079e-002
1.463768e+003;8.870947e-002
1.465697e+003;8.135466e-002
1.467625e+003;7.531481e-002
1.469554e+003;7.042868e-002
1.471482e+003;6.658121e-002
1.473411e+003;6.335791e-002
1.475339e+003;6.053262e-002
1.477268e+003;5.819288e-002
1.479196e+003;5.661326e-002
1.481125e+003;5.548958e-002
1.483053e+003;5.490557e-002
1.484982e+003;5.444376e-002
1.486911e+003;5.377347e-002
1.488839e+003;5.307728e-002
1.490768e+003;5.203120e-002
1.492696e+003;5.071283e-002
1.494625e+003;4.971094e-002
1.496553e+003;4.927203e-002
1.498482e+003;4.904806e-002
1.500410e+003;4.875759e-002
1.502339e+003;4.846553e-002
1.504267e+003;4.788952e-002
1.506196e+003;4.732742e-002
1.508125e+003;4.717263e-002
1.510053e+003;4.706512e-002
1.511982e+003;4.716823e-002
1.513910e+003;4.747642e-002
1.515839e+003;4.761608e-002
1.517767e+003;4.768775e-002
1.519696e+003;4.727687e-002
1.521624e+003;4.684207e-002
1.523553e+003;4.689326e-002
1.525481e+003;4.683398e-002
1.527410e+003;4.690186e-002
1.529339e+003;4.679693e-002
1.531267e+003;4.670480e-002
1.533196e+003;4.676601e-002
1.535124e+003;4.695476e-002
1.537053e+003;4.664824e-002
1.538981e+003;4.605237e-002
1.540910e+003;4.613962e-002
1.542838e+003;4.644520e-002
1.544767e+003;4.643333e-002
1.546695e+003;4.634786e-002
1.548624e+003;4.637345e-002
1.550553e+003;4.635604e-002
1.552481e+003;4.596437e-002
1.554410e+003;4.560308e-002
1.556338e+003;4.545626e-002
1.558267e+003;4.486364e-002
1.560195e+003;4.446428e-002
1.562124e+003;4.458844e-002
1.564052e+003;4.451725e-002
1.565981e+003;4.418181e-002
1.567910e+003;4.383600e-002
1.569838e+003;4.350251e-002
1.571767e+003;4.327568e-002
1.573695e+003;4.305204e-002
1.575624e+003;4.277805e-002
1.577552e+003;4.298747e-002
1.579481e+003;4.342795e-002
1.581409e+003;4.363445e-002
1.583338e+003;4.380653e-002
1.585266e+003;4.397101e-002
1.587195e+003;4.387126e-002
1.589124e+003;4.388966e-002
1.591052e+003;4.397538e-002
1.592981e+003;4.418852e-002
1.594909e+003;4.441161e-002
1.596838e+003;4.475429e-002
1.598766e+003;4.546288e-002
1.600695e+003;4.627078e-002
1.602623e+003;4.710390e-002
1.604552e+003;4.770146e-002
1.606480e+003;4.831626e-002
1.608409e+003;4.909380e-002
1.610338e+003;4.990076e-002
1.612266e+003;5.039348e-002
1.614195e+003;5.064030e-002
1.616123e+003;5.093837e-002
1.618052e+003;5.151811e-002
1.619980e+003;5.228272e-002
1.621909e+003;5.289891e-002
1.623837e+003;5.367346e-002
1.625766e+003;5.431138e-002
1.627694e+003;5.505769e-002
1.629623e+003;5.577453e-002
1.631552e+003;5.627982e-002
1.633480e+003;5.667121e-002
1.635409e+003;5.693439e-002
1.637337e+003;5.752824e-002
1.639266e+003;5.788222e-002
1.641194e+003;5.773808e-002
1.643123e+003;5.755370e-002
1.645051e+003;5.748906e-002
1.646980e+003;5.762728e-002
1.648909e+003;5.777578e-002
1.650837e+003;5.737790e-002
1.652766e+003;5.683425e-002
1.654694e+003;5.713044e-002
1.656623e+003;5.740952e-002
1.658551e+003;5.730671e-002
1.660480e+003;5.722925e-002
1.662408e+003;5.743868e-002
1.664337e+003;5.773418e-002
1.666266e+003;5.768945e-002
1.668194e+003;5.755661e-002
1.670123e+003;5.758620e-002
1.672051e+003;5.750021e-002
1.673980e+003;5.720139e-002
1.675908e+003;5.669794e-002
1.677837e+003;5.630716e-002
1.679765e+003;5.591599e-002
1.681694e+003;5.534168e-002
1.683622e+003;5.476072e-002
1.685551e+003;5.488786e-002
1.687479e+003;5.533468e-002
1.689408e+003;5.543612e-002
1.691337e+003;5.570699e-002
1.693265e+003;5.608806e-002
1.695194e+003;5.628121e-002
1.697122e+003;5.663908e-002
1.699051e+003;5.732550e-002
1.700979e+003;5.881384e-002
1.702908e+003;6.112505e-002
1.704836e+003;6.350009e-002
1.706765e+003;6.676185e-002
1.708693e+003;7.125714e-002
1.710622e+003;7.651034e-002
1.712551e+003;8.207338e-002
1.714479e+003;8.808751e-002
1.716408e+003;9.461233e-002
1.718336e+003;1.014315e-001
1.720265e+003;1.083862e-001
1.722193e+003;1.149012e-001
1.724122e+003;1.203778e-001
1.726050e+003;1.246983e-001
1.727979e+003;1.274822e-001
1.729908e+003;1.280836e-001
1.731836e+003;1.266744e-001
1.733765e+003;1.235502e-001
1.735693e+003;1.195198e-001
1.737622e+003;1.144718e-001
1.739550e+003;1.079180e-001
1.741479e+003;1.009007e-001
1.743407e+003;9.386756e-002
1.745336e+003;8.719026e-002
1.747265e+003;8.088750e-002
1.749193e+003;7.451379e-002
1.751122e+003;6.840444e-002
1.753050e+003;6.300243e-002
1.754979e+003;5.792466e-002
1.756907e+003;5.319786e-002
1.758836e+003;4.903089e-002
1.760764e+003;4.525713e-002
1.762693e+003;4.224805e-002
1.764621e+003;4.013090e-002
1.766550e+003;3.815605e-002
1.768479e+003;3.648122e-002
1.770407e+003;3.532969e-002
1.772336e+003;3.455582e-002
1.774264e+003;3.400573e-002
1.776193e+003;3.369270e-002
1.778121e+003;3.346317e-002
1.780050e+003;3.283801e-002
1.781978e+003;3.194023e-002
1.783907e+003;3.133186e-002
1.785835e+003;3.116797e-002
1.787764e+003;3.086651e-002
1.789693e+003;3.025694e-002
1.791621e+003;2.987883e-002
1.793550e+003;2.975480e-002
1.795478e+003;2.944642e-002
1.797407e+003;2.926735e-002
1.799335e+003;2.909006e-002
1.801264e+003;2.881805e-002
1.803192e+003;2.867489e-002
1.805121e+003;2.844908e-002
1.807049e+003;2.798999e-002
1.808978e+003;2.760097e-002
1.810907e+003;2.761728e-002
1.812835e+003;2.736771e-002
1.814764e+003;2.718686e-002
1.816692e+003;2.718957e-002
1.818621e+003;2.716319e-002
1.820549e+003;2.712495e-002
1.822478e+003;2.687105e-002
1.824406e+003;2.671197e-002
1.826335e+003;2.659655e-002
1.828264e+003;2.637996e-002
1.830192e+003;2.626622e-002
1.832121e+003;2.627840e-002
1.834049e+003;2.607284e-002
1.835978e+003;2.596118e-002
1.837906e+003;2.593047e-002
1.839835e+003;2.590761e-002
1.841763e+003;2.580193e-002
1.843692e+003;2.561568e-002
1.845620e+003;2.554571e-002
1.847549e+003;2.565530e-002
1.849478e+003;2.570933e-002
1.851406e+003;2.549567e-002
1.853335e+003;2.534959e-002
1.855263e+003;2.534348e-002
1.857192e+003;2.545889e-002
1.859120e+003;2.538433e-002
1.861049e+003;2.526144e-002
1.862977e+003;2.494100e-002
1.864906e+003;2.479335e-002
1.866834e+003;2.483257e-002
1.868763e+003;2.478170e-002
1.870692e+003;2.486615e-002
1.872620e+003;2.485766e-002
1.874549e+003;2.486078e-002
1.876477e+003;2.487801e-002
1.878406e+003;2.486555e-002
1.880334e+003;2.506833e-002
1.882263e+003;2.499034e-002
1.884191e+003;2.482036e-002
1.886120e+003;2.473235e-002
1.888048e+003;2.467511e-002
1.889977e+003;2.466031e-002
1.891906e+003;2.473523e-002
1.893834e+003;2.482531e-002
1.895763e+003;2.500343e-002
1.897691e+003;2.509290e-002
1.899620e+003;2.503902e-002
1.901548e+003;2.502347e-002
1.903477e+003;2.505432e-002
1.905405e+003;2.485696e-002
1.907334e+003;2.462728e-002
1.909262e+003;2.458741e-002
1.911191e+003;2.479002e-002
1.913120e+003;2.470169e-002
1.915048e+003;2.455266e-002
1.916977e+003;2.440245e-002
1.918905e+003;2.436607e-002
1.920834e+003;2.452857e-002
1.922762e+003;2.467518e-002
1.924691e+003;2.481240e-002
1.926619e+003;2.473330e-002
1.928548e+003;2.469286e-002
1.930477e+003;2.448040e-002
1.932405e+003;2.419308e-002
1.934334e+003;2.424682e-002
1.936262e+003;2.445057e-002
1.938191e+003;2.443259e-002
1.940119e+003;2.419101e-002
1.942048e+003;2.399068e-002
1.943976e+003;2.407266e-002
1.945905e+003;2.417199e-002
1.947833e+003;2.410772e-002
1.949762e+003;2.417392e-002
1.951691e+003;2.426760e-002
1.953619e+003;2.428635e-002
1.955548e+003;2.437469e-002
1.957476e+003;2.444500e-002
1.959405e+003;2.445997e-002
1.961333e+003;2.442015e-002
1.963262e+003;2.430169e-002
1.965190e+003;2.430376e-002
1.967119e+003;2.446873e-002
1.969047e+003;2.452752e-002
1.970976e+003;2.461080e-002
1.972905e+003;2.490752e-002
1.974833e+003;2.510845e-002
1.976762e+003;2.535778e-002
1.978690e+003;2.552582e-002
1.980619e+003;2.539589e-002
1.982547e+003;2.547557e-002
1.984476e+003;2.568141e-002
1.986404e+003;2.563744e-002
1.988333e+003;2.549581e-002
1.990261e+003;2.559203e-002
1.992190e+003;2.588046e-002
1.994119e+003;2.604466e-002
1.996047e+003;2.604504e-002
1.997976e+003;2.583611e-002
1.999904e+003;2.549557e-002
2.001833e+003;2.555625e-002
2.003761e+003;2.599829e-002
2.005690e+003;2.622739e-002
2.007618e+003;2.634884e-002
2.009547e+003;2.644743e-002
2.011476e+003;2.644429e-002
2.013404e+003;2.633215e-002
2.015333e+003;2.618150e-002
2.017261e+003;2.605887e-002
2.019190e+003;2.620188e-002
2.021118e+003;2.625580e-002
2.023047e+003;2.624957e-002
2.024975e+003;2.612572e-002
2.026904e+003;2.617851e-002
2.028833e+003;2.651099e-002
2.030761e+003;2.652765e-002
2.032690e+003;2.627642e-002
2.034618e+003;2.619558e-002
2.036547e+003;2.607583e-002
2.038475e+003;2.602801e-002
2.040404e+003;2.598404e-002
2.042332e+003;2.608547e-002
2.044261e+003;2.616302e-002
2.046189e+003;2.619836e-002
2.048118e+003;2.620388e-002
2.050047e+003;2.608761e-002
2.051975e+003;2.605584e-002
2.053904e+003;2.624288e-002
2.055832e+003;2.623873e-002
2.057761e+003;2.600237e-002
2.059689e+003;2.594897e-002
2.061618e+003;2.582943e-002
2.063546e+003;2.574698e-002
2.065475e+003;2.587205e-002
2.067404e+003;2.594313e-002
2.069332e+003;2.592945e-002
2.071260e+003;2.585447e-002
2.073189e+003;2.594004e-002
2.075118e+003;2.599780e-002
2.077046e+003;2.598654e-002
2.078975e+003;2.590455e-002
2.080903e+003;2.573411e-002
2.082832e+003;2.563498e-002
2.084760e+003;2.576435e-002
2.086689e+003;2.587240e-002
2.088617e+003;2.587912e-002
2.090546e+003;2.586829e-002
2.092475e+003;2.581051e-002
2.094403e+003;2.565305e-002
2.096332e+003;2.545446e-002
2.098260e+003;2.553791e-002
2.100189e+003;2.568162e-002
2.102117e+003;2.576420e-002
2.104046e+003;2.592031e-002
2.105974e+003;2.595126e-002
2.107903e+003;2.589365e-002
2.109832e+003;2.581994e-002
2.111760e+003;2.563941e-002
2.113688e+003;2.560205e-002
2.115617e+003;2.579392e-002
2.117546e+003;2.578864e-002
2.119474e+003;2.553756e-002
2.121403e+003;2.538806e-002
2.123331e+003;2.538866e-002
2.125260e+003;2.553886e-002
2.127188e+003;2.552919e-002
2.129117e+003;2.542702e-002
2.131045e+003;2.528939e-002
2.132974e+003;2.518815e-002
2.134903e+003;2.507454e-002
2.136831e+003;2.512608e-002
2.138760e+003;2.518601e-002
2.140688e+003;2.524037e-002
2.142617e+003;2.523619e-002
2.144545e+003;2.511509e-002
2.146474e+003;2.506296e-002
2.148402e+003;2.508079e-002
2.150331e+003;2.509673e-002
2.152260e+003;2.502252e-002
2.154188e+003;2.512443e-002
2.156117e+003;2.537208e-002
2.158045e+003;2.534408e-002
2.159974e+003;2.522678e-002
2.161902e+003;2.548559e-002
2.163831e+003;2.587560e-002
2.165759e+003;2.601609e-002
2.167688e+003;2.593420e-002
2.169616e+003;2.583217e-002
2.171545e+003;2.579691e-002
2.173474e+003;2.616904e-002
2.175402e+003;2.648388e-002
2.177331e+003;2.657270e-002
2.179259e+003;2.711554e-002
2.181188e+003;2.773918e-002
2.183116e+003;2.830834e-002
2.185045e+003;2.922939e-002
2.186973e+003;3.036083e-002
2.188902e+003;3.124629e-002
2.190831e+003;3.156647e-002
2.192759e+003;3.163628e-002
2.194688e+003;3.152767e-002
2.196616e+003;3.113141e-002
2.198545e+003;3.076993e-002
2.200473e+003;3.046221e-002
2.202402e+003;3.017343e-002
2.204330e+003;3.020753e-002
2.206259e+003;3.051976e-002
2.208188e+003;3.089696e-002
2.210116e+003;3.133945e-002
2.212044e+003;3.168329e-002
2.213973e+003;3.200625e-002
2.215902e+003;3.246129e-002
2.217830e+003;3.306056e-002
2.219759e+003;3.391214e-002
2.221687e+003;3.496240e-002
2.223616e+003;3.660798e-002
2.225544e+003;3.953578e-002
2.227473e+003;4.421035e-002
2.229401e+003;5.121666e-002
2.231330e+003;6.054793e-002
2.233259e+003;7.116814e-002
2.235187e+003;8.195224e-002
2.237116e+003;9.192055e-002
2.239044e+003;9.996196e-002
2.240973e+003;1.042774e-001
2.242901e+003;1.043570e-001
2.244830e+003;1.011787e-001
2.246758e+003;9.565431e-002
2.248687e+003;8.875893e-002
2.250615e+003;8.164607e-002
2.252544e+003;7.503195e-002
2.254473e+003;6.903075e-002
2.256401e+003;6.339039e-002
2.258330e+003;5.803095e-002
2.260258e+003;5.290382e-002
2.262187e+003;4.826064e-002
2.264115e+003;4.466526e-002
2.266044e+003;4.186805e-002
2.267972e+003;3.944901e-002
2.269901e+003;3.781236e-002
2.271830e+003;3.670384e-002
2.273758e+003;3.588665e-002
2.275687e+003;3.519432e-002
2.277615e+003;3.443192e-002
2.279544e+003;3.374548e-002
2.281472e+003;3.317460e-002
2.283401e+003;3.288718e-002
2.285329e+003;3.260743e-002
2.287258e+003;3.242895e-002
2.289187e+003;3.231453e-002
2.291115e+003;3.222502e-002
2.293043e+003;3.197301e-002
2.294972e+003;3.171048e-002
2.296901e+003;3.158129e-002
2.298829e+003;3.163991e-002
2.300758e+003;3.180367e-002
2.302686e+003;3.177622e-002
2.304615e+003;3.153861e-002
2.306543e+003;3.133831e-002
2.308472e+003;3.117890e-002
2.310400e+003;3.117776e-002
2.312329e+003;3.111475e-002
2.314258e+003;3.086573e-002
2.316186e+003;3.087807e-002
2.318115e+003;3.090614e-002
2.320043e+003;3.099566e-002
2.321972e+003;3.093983e-002
2.323900e+003;3.079526e-002
2.325829e+003;3.060572e-002
2.327757e+003;3.056256e-002
2.329686e+003;3.059594e-002
2.331615e+003;3.041413e-002
2.333543e+003;3.022813e-002
2.335472e+003;3.034128e-002
2.337400e+003;3.028586e-002
2.339329e+003;3.006277e-002
2.341257e+003;3.016995e-002
2.343186e+003;3.061791e-002
2.345114e+003;3.103627e-002
2.347043e+003;3.113045e-002
2.348971e+003;3.117074e-002
2.350900e+003;3.110058e-002
2.352829e+003;3.068149e-002
2.354757e+003;3.030675e-002
2.356686e+003;3.009284e-002
2.358614e+003;3.009455e-002
2.360543e+003;3.001103e-002
2.362471e+003;2.953791e-002
2.364400e+003;2.955209e-002
2.366328e+003;3.026671e-002
2.368257e+003;3.054340e-002
2.370186e+003;3.063238e-002
2.372114e+003;3.084488e-002
2.374042e+003;3.104250e-002
2.375971e+003;3.120759e-002
2.377900e+003;3.141225e-002
2.379828e+003;3.150195e-002
2.381757e+003;3.147102e-002
2.383685e+003;3.144787e-002
2.385614e+003;3.139447e-002
2.387542e+003;3.152771e-002
2.389471e+003;3.153853e-002
2.391399e+003;3.130604e-002
2.393328e+003;3.094723e-002
2.395257e+003;3.106467e-002
2.397185e+003;3.144990e-002
2.399114e+003;3.155881e-002
2.401042e+003;3.146012e-002
2.402971e+003;3.142090e-002
2.404899e+003;3.127656e-002
2.406828e+003;3.132381e-002
2.408756e+003;3.143568e-002
2.410685e+003;3.141966e-002
2.412614e+003;3.162463e-002
2.414542e+003;3.180998e-002
2.416471e+003;3.168436e-002
2.418399e+003;3.142126e-002
2.420328e+003;3.135822e-002
2.422256e+003;3.155828e-002
2.424185e+003;3.173789e-002
2.426113e+003;3.166155e-002
2.428042e+003;3.150109e-002
2.429970e+003;3.150683e-002
2.431899e+003;3.147637e-002
2.433828e+003;3.138671e-002
2.435756e+003;3.149183e-002
2.437685e+003;3.178306e-002
2.439613e+003;3.177996e-002
2.441542e+003;3.151545e-002
2.443470e+003;3.146696e-002
2.445399e+003;3.149104e-002
2.447327e+003;3.141000e-002
2.449256e+003;3.142742e-002
2.451185e+003;3.151402e-002
2.453113e+003;3.153098e-002
2.455042e+003;3.160809e-002
2.456970e+003;3.180805e-002
2.458899e+003;3.215173e-002
2.460827e+003;3.231553e-002
2.462756e+003;3.235912e-002
2.464684e+003;3.239338e-002
2.466613e+003;3.225115e-002
2.468542e+003;3.233863e-002
2.470470e+003;3.241441e-002
2.472398e+003;3.250054e-002
2.474327e+003;3.284498e-002
2.476256e+003;3.292997e-002
2.478184e+003;3.291192e-002
2.480113e+003;3.309170e-002
2.482041e+003;3.330280e-002
2.483970e+003;3.330262e-002
2.485898e+003;3.351864e-002
2.487827e+003;3.397728e-002
2.489755e+003;3.418737e-002
2.491684e+003;3.434280e-002
2.493613e+003;3.471795e-002
2.495541e+003;3.495630e-002
2.497470e+003;3.489813e-002
2.499398e+003;3.475988e-002
2.501327e+003;3.452095e-002
2.503255e+003;3.460430e-002
2.505184e+003;3.474333e-002
2.507112e+003;3.465292e-002
2.509041e+003;3.460746e-002
2.510969e+003;3.494442e-002
2.512898e+003;3.538306e-002
2.514827e+003;3.513022e-002
2.516755e+003;3.480729e-002
2.518684e+003;3.490517e-002
2.520612e+003;3.484768e-002
2.522541e+003;3.490886e-002
2.524469e+003;3.516855e-002
2.526398e+003;3.527290e-002
2.528326e+003;3.520445e-002
2.530255e+003;3.503434e-002
2.532184e+003;3.493960e-002
2.534112e+003;3.517258e-002
2.536041e+003;3.532552e-002
2.537969e+003;3.541477e-002
2.539898e+003;3.559002e-002
2.541826e+003;3.537473e-002
2.543755e+003;3.500985e-002
2.545683e+003;3.526090e-002
2.547612e+003;3.541679e-002
2.549541e+003;3.516845e-002
2.551469e+003;3.503474e-002
2.553397e+003;3.505917e-002
2.555326e+003;3.497562e-002
2.557255e+003;3.468468e-002
2.559183e+003;3.446165e-002
2.561112e+003;3.434947e-002
2.563040e+003;3.428370e-002
2.564969e+003;3.436862e-002
2.566897e+003;3.442536e-002
2.568826e+003;3.449498e-002
2.570754e+003;3.425609e-002
2.572683e+003;3.402436e-002
2.574612e+003;3.395299e-002
2.576540e+003;3.386819e-002
2.578469e+003;3.384243e-002
2.580397e+003;3.389051e-002
2.582326e+003;3.404153e-002
2.584254e+003;3.409349e-002
2.586183e+003;3.390172e-002
2.588111e+003;3.385784e-002
2.590040e+003;3.355773e-002
2.591969e+003;3.339138e-002
2.593897e+003;3.366581e-002
2.595826e+003;3.376915e-002
2.597754e+003;3.364762e-002
2.599683e+003;3.381378e-002
2.601611e+003;3.406160e-002
2.603540e+003;3.414267e-002
2.605468e+003;3.400981e-002
2.607397e+003;3.381704e-002
2.609325e+003;3.402784e-002
2.611254e+003;3.410199e-002
2.613183e+003;3.373649e-002
2.615111e+003;3.366312e-002
2.617040e+003;3.393443e-002
2.618968e+003;3.437263e-002
2.620897e+003;3.434373e-002
2.622825e+003;3.420400e-002
2.624754e+003;3.443475e-002
2.626682e+003;3.470686e-002
2.628611e+003;3.503190e-002
2.630540e+003;3.530780e-002
2.632468e+003;3.503567e-002
2.634396e+003;3.468673e-002
2.636325e+003;3.473461e-002
2.638254e+003;3.480640e-002
2.640182e+003;3.484453e-002
2.642111e+003;3.475015e-002
2.644039e+003;3.454908e-002
2.645968e+003;3.419016e-002
2.647896e+003;3.395575e-002
2.649825e+003;3.424215e-002
2.651753e+003;3.463075e-002
2.653682e+003;3.467481e-002
2.655611e+003;3.461711e-002
2.657539e+003;3.463121e-002
2.659468e+003;3.484822e-002
2.661396e+003;3.494865e-002
2.663325e+003;3.473514e-002
2.665253e+003;3.465192e-002
2.667182e+003;3.476935e-002
2.669110e+003;3.492739e-002
2.671039e+003;3.521009e-002
2.672968e+003;3.548060e-002
2.674896e+003;3.526514e-002
2.676825e+003;3.516234e-002
2.678753e+003;3.524157e-002
2.680682e+003;3.504232e-002
2.682610e+003;3.492714e-002
2.684539e+003;3.495993e-002
2.686467e+003;3.485081e-002
2.688396e+003;3.469290e-002
2.690324e+003;3.476199e-002
2.692253e+003;3.508919e-002
2.694182e+003;3.530823e-002
2.696110e+003;3.498198e-002
2.698039e+003;3.466638e-002
2.699967e+003;3.480345e-002
2.701896e+003;3.507996e-002
2.703824e+003;3.511689e-002
2.705753e+003;3.504533e-002
2.707681e+003;3.542998e-002
2.709610e+003;3.564832e-002
2.711539e+003;3.522680e-002
2.713467e+003;3.480424e-002
2.715396e+003;3.476860e-002
2.717324e+003;3.482722e-002
2.719253e+003;3.485210e-002
2.721181e+003;3.462037e-002
2.723110e+003;3.461804e-002
2.725038e+003;3.466351e-002
2.726967e+003;3.454112e-002
2.728896e+003;3.461747e-002
2.730824e+003;3.454596e-002
2.732752e+003;3.437396e-002
2.734681e+003;3.428797e-002
2.736610e+003;3.419744e-002
2.738538e+003;3.394363e-002
2.740467e+003;3.397610e-002
2.742395e+003;3.407231e-002
2.744324e+003;3.409070e-002
2.746252e+003;3.393171e-002
2.748181e+003;3.360341e-002
2.750109e+003;3.348868e-002
2.752038e+003;3.349602e-002
2.753967e+003;3.365124e-002
2.755895e+003;3.381843e-002
2.757824e+003;3.392236e-002
2.759752e+003;3.389810e-002
2.761681e+003;3.380114e-002
2.763609e+003;3.395474e-002
2.765538e+003;3.408242e-002
2.767466e+003;3.423892e-002
2.769395e+003;3.453175e-002
2.771323e+003;3.475453e-002
2.773252e+003;3.499753e-002
2.775181e+003;3.543566e-002
2.777109e+003;3.562178e-002
2.779038e+003;3.576689e-002
2.780966e+003;3.595013e-002
2.782895e+003;3.628219e-002
2.784823e+003;3.653528e-002
2.786752e+003;3.674015e-002
2.788680e+003;3.699329e-002
2.790609e+003;3.730770e-002
2.792538e+003;3.757973e-002
2.794466e+003;3.767534e-002
2.796395e+003;3.794204e-002
2.798323e+003;3.856935e-002
2.800252e+003;3.871400e-002
2.802180e+003;3.870842e-002
2.804109e+003;3.916325e-002
2.806037e+003;3.992656e-002
2.807966e+003;4.027411e-002
2.809895e+003;4.008057e-002
2.811823e+003;4.002738e-002
2.813751e+003;4.030360e-002
2.815680e+003;4.046956e-002
2.817609e+003;4.039235e-002
2.819537e+003;4.031606e-002
2.821466e+003;4.061535e-002
2.823394e+003;4.104298e-002
2.825323e+003;4.099822e-002
2.827251e+003;4.105303e-002
2.829180e+003;4.152254e-002
2.831108e+003;4.201311e-002
2.833037e+003;4.244621e-002
2.834966e+003;4.344080e-002
2.836894e+003;4.474841e-002
2.838823e+003;4.623702e-002
2.840751e+003;4.812251e-002
2.842680e+003;5.028090e-002
2.844608e+003;5.263316e-002
2.846537e+003;5.539859e-002
2.848465e+003;5.852556e-002
2.850394e+003;6.115355e-002
2.852323e+003;6.249283e-002
2.854251e+003;6.244822e-002
2.856180e+003;6.196579e-002
2.858108e+003;6.177948e-002
2.860037e+003;6.195619e-002
2.861965e+003;6.196437e-002
2.863894e+003;6.189169e-002
2.865822e+003;6.202357e-002
2.867751e+003;6.216925e-002
2.869679e+003;6.224420e-002
2.871608e+003;6.214371e-002
2.873536e+003;6.214261e-002
2.875465e+003;6.184917e-002
2.877394e+003;6.117926e-002
2.879322e+003;6.098429e-002
2.881251e+003;6.108291e-002
2.883179e+003;6.122752e-002
2.885108e+003;6.134633e-002
2.887036e+003;6.147278e-002
2.888965e+003;6.179320e-002
2.890893e+003;6.222397e-002
2.892822e+003;6.295647e-002
2.894750e+003;6.401721e-002
2.896679e+003;6.521161e-002
2.898608e+003;6.628885e-002
2.900536e+003;6.721371e-002
2.902465e+003;6.827329e-002
2.904393e+003;7.009019e-002
2.906322e+003;7.217497e-002
2.908250e+003;7.394651e-002
2.910179e+003;7.579441e-002
2.912107e+003;7.812694e-002
2.914036e+003;8.044851e-002
2.915965e+003;8.275465e-002
2.917893e+003;8.514070e-002
2.919822e+003;8.677293e-002
2.921750e+003;8.760527e-002
2.923679e+003;8.772857e-002
2.925607e+003;8.736879e-002
2.927536e+003;8.673215e-002
2.929464e+003;8.605634e-002
2.931393e+003;8.596962e-002
2.933322e+003;8.586660e-002
2.935250e+003;8.545487e-002
2.937178e+003;8.471023e-002
2.939107e+003;8.358605e-002
2.941036e+003;8.258262e-002
2.942964e+003;8.160677e-002
2.944893e+003;8.028716e-002
2.946821e+003;7.904062e-002
2.948750e+003;7.800476e-002
2.950678e+003;7.680508e-002
2.952607e+003;7.579330e-002
2.954535e+003;7.502908e-002
2.956464e+003;7.400422e-002
2.958393e+003;7.284315e-002
2.960321e+003;7.139166e-002
2.962250e+003;6.996062e-002
2.964178e+003;6.913199e-002
2.966107e+003;6.832963e-002
2.968035e+003;6.724067e-002
2.969964e+003;6.612302e-002
2.971892e+003;6.498812e-002
2.973821e+003;6.414944e-002
2.975750e+003;6.346577e-002
2.977678e+003;6.279287e-002
2.979607e+003;6.244883e-002
2.981535e+003;6.213343e-002
2.983464e+003;6.172678e-002
2.985392e+003;6.132618e-002
2.987321e+003;6.069209e-002
2.989249e+003;6.012388e-002
2.991178e+003;5.965988e-002
2.993106e+003;5.920905e-002
2.995035e+003;5.874446e-002
2.996964e+003;5.822402e-002
2.998892e+003;5.758707e-002
3.000821e+003;5.681039e-002
3.002749e+003;5.653441e-002
3.004678e+003;5.627333e-002
3.006606e+003;5.588354e-002
3.008535e+003;5.539761e-002
3.010463e+003;5.447944e-002
3.012392e+003;5.364868e-002
3.014321e+003;5.328982e-002
3.016249e+003;5.282459e-002
3.018177e+003;5.210927e-002
3.020106e+003;5.167150e-002
3.022035e+003;5.109338e-002
3.023963e+003;5.036755e-002
3.025892e+003;4.998488e-002
3.027820e+003;4.979005e-002
3.029749e+003;4.975364e-002
3.031677e+003;4.951731e-002
3.033606e+003;4.914856e-002
3.035534e+003;4.881427e-002
3.037463e+003;4.841189e-002
3.039392e+003;4.787875e-002
3.041320e+003;4.740820e-002
3.043249e+003;4.696676e-002
3.045177e+003;4.667679e-002
3.047106e+003;4.661980e-002
3.049034e+003;4.645858e-002
3.050963e+003;4.639859e-002
3.052891e+003;4.638340e-002
3.054820e+003;4.600592e-002
3.056749e+003;4.591819e-002
3.058677e+003;4.578543e-002
3.060606e+003;4.547315e-002
3.062534e+003;4.534245e-002
3.064463e+003;4.511403e-002
3.066391e+003;4.476159e-002
3.068320e+003;4.416369e-002
3.070248e+003;4.374862e-002
3.072177e+003;4.353525e-002
3.074105e+003;4.324826e-002
3.076034e+003;4.292963e-002
3.077963e+003;4.275940e-002
3.079891e+003;4.278291e-002
3.081820e+003;4.243302e-002
3.083748e+003;4.206130e-002
3.085677e+003;4.189447e-002
3.087605e+003;4.174988e-002
3.089534e+003;4.184663e-002
3.091462e+003;4.185878e-002
3.093391e+003;4.161964e-002
3.095320e+003;4.140786e-002
3.097248e+003;4.149020e-002
3.099177e+003;4.143170e-002
3.101105e+003;4.078685e-002
3.103034e+003;4.043890e-002
3.104962e+003;4.022129e-002
3.106891e+003;3.968075e-002
3.108819e+003;3.939027e-002
3.110748e+003;3.924224e-002
3.112677e+003;3.937228e-002
3.114605e+003;3.955704e-002
3.116533e+003;3.924663e-002
3.118462e+003;3.873222e-002
3.120391e+003;3.857938e-002
3.122319e+003;3.876156e-002
3.124248e+003;3.862921e-002
3.126176e+003;3.828478e-002
3.128105e+003;3.846565e-002
3.130033e+003;3.869987e-002
3.131962e+003;3.873957e-002
3.133890e+003;3.871874e-002
3.135819e+003;3.862446e-002
3.137748e+003;3.827754e-002
3.139676e+003;3.816296e-002
3.141605e+003;3.837356e-002
3.143533e+003;3.837888e-002
3.145462e+003;3.787711e-002
3.147390e+003;3.783423e-002
3.149319e+003;3.804008e-002
3.151247e+003;3.749997e-002
3.153176e+003;3.711562e-002
3.155104e+003;3.741906e-002
3.157033e+003;3.816408e-002
3.158962e+003;3.843376e-002
3.160890e+003;3.816096e-002
3.162819e+003;3.789652e-002
3.164747e+003;3.785447e-002
3.166676e+003;3.789059e-002
3.168604e+003;3.787071e-002
3.170533e+003;3.801682e-002
3.172461e+003;3.827291e-002
3.174390e+003;3.830233e-002
3.176319e+003;3.824632e-002
3.178247e+003;3.813279e-002
3.180176e+003;3.803505e-002
3.182104e+003;3.812342e-002
3.184033e+003;3.819896e-002
3.185961e+003;3.826517e-002
3.187890e+003;3.839039e-002
3.189818e+003;3.812417e-002
3.191747e+003;3.802153e-002
3.193676e+003;3.834359e-002
3.195604e+003;3.866890e-002
3.197532e+003;3.878620e-002
3.199461e+003;3.857825e-002
3.201390e+003;3.859708e-002
3.203318e+003;3.863939e-002
3.205247e+003;3.885051e-002
3.207175e+003;3.907344e-002
3.209104e+003;3.906311e-002
3.211032e+003;3.923208e-002
3.212961e+003;3.945895e-002
3.214889e+003;3.944607e-002
3.216818e+003;3.953019e-002
3.218747e+003;3.941298e-002
3.220675e+003;3.922138e-002
3.222604e+003;3.963073e-002
3.224532e+003;4.011458e-002
3.226461e+003;4.025528e-002
3.228389e+003;3.968761e-002
3.230318e+003;3.918711e-002
3.232246e+003;3.920430e-002
3.234175e+003;3.937013e-002
3.236104e+003;3.941599e-002
3.238032e+003;3.983329e-002
3.239961e+003;4.024579e-002
3.241889e+003;4.017371e-002
3.243818e+003;4.003115e-002
3.245746e+003;3.982178e-002
3.247675e+003;3.968224e-002
3.249603e+003;4.008435e-002
3.251532e+003;4.036907e-002
3.253460e+003;4.042638e-002
3.255389e+003;4.028672e-002
3.257318e+003;4.023900e-002
3.259246e+003;4.032472e-002
3.261175e+003;4.009489e-002
3.263103e+003;3.950845e-002
3.265032e+003;3.988254e-002
3.266960e+003;4.057755e-002
3.268889e+003;4.049280e-002
3.270817e+003;4.029138e-002
3.272746e+003;4.041864e-002
3.274675e+003;4.026975e-002
3.276603e+003;4.005012e-002
3.278531e+003;4.019894e-002
3.280460e+003;4.027455e-002
3.282389e+003;4.012458e-002
3.284317e+003;4.001401e-002
3.286246e+003;3.990571e-002
3.288174e+003;3.956448e-002
3.290103e+003;3.934615e-002
3.292031e+003;3.927669e-002
3.293960e+003;3.974868e-002
3.295888e+003;3.999268e-002
3.297817e+003;3.953999e-002
3.299746e+003;3.937043e-002
3.301674e+003;3.961715e-002
3.303603e+003;3.949306e-002
3.305531e+003;3.916822e-002
3.307460e+003;3.928917e-002
3.309388e+003;3.931757e-002
3.311317e+003;3.912892e-002
3.313245e+003;3.871436e-002
3.315174e+003;3.878076e-002
3.317103e+003;3.942590e-002
3.319031e+003;3.914951e-002
3.320960e+003;3.865869e-002
3.322888e+003;3.899467e-002
3.324817e+003;3.957563e-002
3.326745e+003;3.909871e-002
3.328674e+003;3.857489e-002
3.330602e+003;3.896695e-002
3.332531e+003;3.910136e-002
3.334459e+003;3.869770e-002
3.336388e+003;3.794873e-002
3.338317e+003;3.791843e-002
3.340245e+003;3.873269e-002
3.342174e+003;3.873418e-002
3.344102e+003;3.828308e-002
3.346031e+003;3.829810e-002
3.347959e+003;3.838746e-002
3.349888e+003;3.832947e-002
3.351816e+003;3.778123e-002
3.353745e+003;3.771491e-002
3.355674e+003;3.804485e-002
3.357602e+003;3.788752e-002
3.359531e+003;3.745204e-002
3.361459e+003;3.751900e-002
3.363388e+003;3.772575e-002
3.365316e+003;3.749896e-002
3.367245e+003;3.685055e-002
3.369173e+003;3.645913e-002
3.371102e+003;3.636465e-002
3.373031e+003;3.634894e-002
3.374959e+003;3.613122e-002
3.376887e+003;3.627571e-002
3.378816e+003;3.613957e-002
3.380745e+003;3.555349e-002
3.382673e+003;3.570904e-002
3.384602e+003;3.561451e-002
3.386530e+003;3.535895e-002
3.388459e+003;3.531100e-002
3.390387e+003;3.496356e-002
3.392316e+003;3.447234e-002
3.394244e+003;3.458169e-002
3.396173e+003;3.491942e-002
3.398102e+003;3.499160e-002
3.400030e+003;3.490711e-002
3.401959e+003;3.478676e-002
3.403887e+003;3.457341e-002
3.405816e+003;3.423931e-002
3.407744e+003;3.407407e-002
3.409673e+003;3.429016e-002
3.411601e+003;3.469028e-002
3.413530e+003;3.516413e-002
3.415458e+003;3.525242e-002
3.417387e+003;3.497164e-002
3.419316e+003;3.487368e-002
3.421244e+003;3.519748e-002
3.423173e+003;3.562066e-002
3.425101e+003;3.580895e-002
3.427030e+003;3.562555e-002
3.428958e+003;3.566588e-002
3.430887e+003;3.531423e-002
3.432815e+003;3.495964e-002
3.434744e+003;3.559337e-002
3.436673e+003;3.584505e-002
3.438601e+003;3.545593e-002
3.440530e+003;3.508176e-002
3.442458e+003;3.482112e-002
3.444387e+003;3.498622e-002
3.446315e+003;3.501868e-002
3.448244e+003;3.470399e-002
3.450172e+003;3.459967e-002
3.452101e+003;3.478978e-002
3.454030e+003;3.504142e-002
3.455958e+003;3.519820e-002
3.457886e+003;3.483609e-002
3.459815e+003;3.466947e-002
3.461744e+003;3.473647e-002
3.463672e+003;3.446868e-002
3.465601e+003;3.444716e-002
3.467529e+003;3.469251e-002
3.469458e+003;3.441743e-002
3.471386e+003;3.396130e-002
3.473315e+003;3.390262e-002
3.475243e+003;3.398040e-002
3.477172e+003;3.342259e-002
3.479101e+003;3.338458e-002
3.481029e+003;3.395761e-002
3.482958e+003;3.419464e-002
3.484886e+003;3.429324e-002
3.486815e+003;3.433491e-002
3.488743e+003;3.414514e-002
3.490672e+003;3.400659e-002
3.492600e+003;3.393608e-002
3.494529e+003;3.399613e-002
3.496458e+003;3.409539e-002
3.498386e+003;3.420138e-002
3.500315e+003;3.409697e-002
3.502243e+003;3.417317e-002
3.504172e+003;3.418758e-002
3.506100e+003;3.442593e-002
3.508029e+003;3.504293e-002
3.509957e+003;3.520340e-002
3.511886e+003;3.487360e-002
3.513814e+003;3.465235e-002
3.515743e+003;3.512875e-002
3.517672e+003;3.521663e-002
3.519600e+003;3.487483e-002
3.521529e+003;3.502285e-002
3.523457e+003;3.535823e-002
3.525386e+003;3.563710e-002
3.527314e+003;3.569300e-002
3.529243e+003;3.567911e-002
3.531171e+003;3.557291e-002
3.533100e+003;3.548121e-002
3.535029e+003;3.522996e-002
3.536957e+003;3.510363e-002
3.538885e+003;3.527251e-002
3.540814e+003;3.546169e-002
3.542743e+003;3.539751e-002
3.544671e+003;3.537171e-002
3.546600e+003;3.559042e-002
3.548528e+003;3.555985e-002
3.550457e+003;3.492273e-002
3.552385e+003;3.467973e-002
3.554314e+003;3.497663e-002
3.556242e+003;3.511815e-002
3.558171e+003;3.504752e-002
3.560100e+003;3.482711e-002
3.562028e+003;3.455443e-002
3.563957e+003;3.422143e-002
3.565885e+003;3.387539e-002
3.567814e+003;3.411400e-002
3.569742e+003;3.446176e-002
3.571671e+003;3.432300e-002
3.573599e+003;3.446937e-002
3.575528e+003;3.431633e-002
3.577457e+003;3.388657e-002
3.579385e+003;3.381231e-002
3.581314e+003;3.376593e-002
3.583242e+003;3.331779e-002
3.585171e+003;3.304887e-002
3.587099e+003;3.343404e-002
3.589028e+003;3.412195e-002
3.590956e+003;3.453272e-002
3.592885e+003;3.415998e-002
3.594813e+003;3.369524e-002
3.596742e+003;3.393124e-002
3.598671e+003;3.452917e-002
3.600599e+003;3.483684e-002
3.602528e+003;3.503402e-002
3.604456e+003;3.521117e-002
3.606385e+003;3.520200e-002
3.608313e+003;3.495325e-002
3.610242e+003;3.490783e-002
3.612170e+003;3.497508e-002
3.614099e+003;3.513356e-002
3.616028e+003;3.533163e-002
3.617956e+003;3.579945e-002
3.619885e+003;3.588985e-002
3.621813e+003;3.574426e-002
3.623742e+003;3.560574e-002
3.625670e+003;3.517879e-002
3.627599e+003;3.444910e-002
3.629527e+003;3.406099e-002
3.631456e+003;3.399656e-002
3.633385e+003;3.386883e-002
3.635313e+003;3.336905e-002
3.637241e+003;3.330075e-002
3.639170e+003;3.361962e-002
3.641099e+003;3.346682e-002
3.643027e+003;3.324155e-002
3.644956e+003;3.312485e-002
3.646884e+003;3.197030e-002
3.648813e+003;3.097083e-002
3.650741e+003;3.130301e-002
3.652670e+003;3.139903e-002
3.654598e+003;3.081642e-002
3.656527e+003;2.990677e-002
3.658456e+003;2.908638e-002
3.660384e+003;2.875510e-002
3.662313e+003;2.873609e-002
3.664241e+003;2.840105e-002
3.666170e+003;2.767177e-002
3.668098e+003;2.686933e-002
3.670027e+003;2.630466e-002
3.671955e+003;2.591260e-002
3.673884e+003;2.582458e-002
3.675813e+003;2.617742e-002
3.677741e+003;2.611981e-002
3.679669e+003;2.545593e-002
3.681598e+003;2.492619e-002
3.683527e+003;2.452826e-002
3.685455e+003;2.408411e-002
3.687384e+003;2.355103e-002
3.689312e+003;2.340686e-002
3.691241e+003;2.392209e-002
3.693169e+003;2.455694e-002
3.695098e+003;2.477844e-002
3.697026e+003;2.463061e-002
3.698955e+003;2.404877e-002
3.700884e+003;2.347195e-002
3.702812e+003;2.331047e-002
3.704741e+003;2.356691e-002
3.706669e+003;2.388046e-002
3.708598e+003;2.375834e-002
3.710526e+003;2.329487e-002
3.712455e+003;2.313636e-002
3.714383e+003;2.345684e-002
3.716312e+003;2.362799e-002
3.718240e+003;2.397520e-002
3.720169e+003;2.393556e-002
3.722098e+003;2.318176e-002
3.724026e+003;2.254396e-002
3.725955e+003;2.249252e-002
3.727883e+003;2.291744e-002
3.729812e+003;2.325457e-002
3.731740e+003;2.329124e-002
3.733669e+003;2.306448e-002
3.735597e+003;2.290336e-002
3.737526e+003;2.310082e-002
3.739455e+003;2.317753e-002
3.741383e+003;2.315722e-002
3.743312e+003;2.301728e-002
3.745240e+003;2.324093e-002
3.747169e+003;2.299806e-002
3.749097e+003;2.256392e-002
3.751026e+003;2.336693e-002
3.752954e+003;2.391246e-002
3.754883e+003;2.388879e-002
3.756812e+003;2.404814e-002
3.758740e+003;2.414449e-002
3.760668e+003;2.353679e-002
3.762597e+003;2.307129e-002
3.764526e+003;2.303401e-002
3.766454e+003;2.339351e-002
3.768383e+003;2.384906e-002
3.770311e+003;2.381714e-002
3.772240e+003;2.335829e-002
3.774168e+003;2.331088e-002
3.776097e+003;2.342823e-002
3.778025e+003;2.333218e-002
3.779954e+003;2.339893e-002
3.781883e+003;2.342057e-002
3.783811e+003;2.351916e-002
3.785740e+003;2.369346e-002
3.787668e+003;2.385305e-002
3.789597e+003;2.424658e-002
3.791525e+003;2.402415e-002
3.793454e+003;2.347663e-002
3.795382e+003;2.357870e-002
3.797311e+003;2.359297e-002
3.799240e+003;2.349961e-002
3.801168e+003;2.361298e-002
3.803097e+003;2.382186e-002
3.805025e+003;2.387524e-002
3.806954e+003;2.392223e-002
3.808882e+003;2.419974e-002
3.810811e+003;2.433712e-002
3.812739e+003;2.431277e-002
3.814668e+003;2.381395e-002
3.816596e+003;2.372632e-002
3.818525e+003;2.398724e-002
3.820454e+003;2.415307e-002
3.822382e+003;2.456349e-002
3.824311e+003;2.490071e-002
3.826239e+003;2.445005e-002
3.828168e+003;2.404891e-002
3.830096e+003;2.417977e-002
3.832025e+003;2.394680e-002
3.833953e+003;2.381227e-002
3.835882e+003;2.384483e-002
3.837811e+003;2.368377e-002
3.839739e+003;2.410684e-002
3.841667e+003;2.445240e-002
3.843596e+003;2.429500e-002
3.845525e+003;2.422528e-002
3.847453e+003;2.425846e-002
3.849382e+003;2.410582e-002
3.851310e+003;2.393476e-002
3.853239e+003;2.370357e-002
3.855167e+003;2.419578e-002
3.857096e+003;2.485619e-002
3.859024e+003;2.452163e-002
3.860953e+003;2.417542e-002
3.862882e+003;2.441966e-002
3.864810e+003;2.465228e-002
3.866739e+003;2.472207e-002
3.868667e+003;2.442968e-002
3.870596e+003;2.464509e-002
3.872524e+003;2.480009e-002
3.874453e+003;2.474754e-002
3.876381e+003;2.454551e-002
3.878310e+003;2.412922e-002
3.880239e+003;2.445415e-002
3.882167e+003;2.500210e-002
3.884096e+003;2.481700e-002
3.886024e+003;2.513503e-002
3.887953e+003;2.594879e-002
3.889881e+003;2.599185e-002
3.891810e+003;2.513963e-002
3.893738e+003;2.452738e-002
3.895667e+003;2.466634e-002
3.897595e+003;2.502484e-002
3.899524e+003;2.496486e-002
3.901453e+003;2.494963e-002
3.903381e+003;2.509501e-002
3.905310e+003;2.517653e-002
3.907238e+003;2.514149e-002
3.909167e+003;2.519472e-002
3.911095e+003;2.528335e-002
3.913024e+003;2.556627e-002
3.914952e+003;2.538110e-002
3.916881e+003;2.525410e-002
3.918810e+003;2.531925e-002
3.920738e+003;2.552558e-002
3.922667e+003;2.581375e-002
3.924595e+003;2.563322e-002
3.926524e+003;2.503393e-002
3.928452e+003;2.483433e-002
3.930381e+003;2.540482e-002
3.932309e+003;2.617900e-002
3.934238e+003;2.643915e-002
3.936167e+003;2.612428e-002
3.938095e+003;2.551721e-002
3.940023e+003;2.534780e-002
3.941952e+003;2.553577e-002
3.943881e+003;2.561365e-002
3.945809e+003;2.570029e-002
3.947738e+003;2.548200e-002
3.949666e+003;2.597257e-002
3.951595e+003;2.671525e-002
3.953523e+003;2.651420e-002
3.955452e+003;2.639084e-002
3.957380e+003;2.651512e-002
3.959309e+003;2.660258e-002
3.961238e+003;2.678266e-002
3.963166e+003;2.646792e-002
3.965095e+003;2.643778e-002
3.967023e+003;2.658986e-002
3.968952e+003;2.650307e-002
3.970880e+003;2.690468e-002
3.972809e+003;2.715176e-002
3.974737e+003;2.704804e-002
3.976666e+003;2.720552e-002
3.978594e+003;2.685068e-002
3.980523e+003;2.651082e-002
3.982452e+003;2.630610e-002
3.984380e+003;2.631511e-002
3.986309e+003;2.666430e-002
3.988237e+003;2.658863e-002
3.990166e+003;2.647687e-002
3.992094e+003;2.716894e-002
3.994023e+003;2.736824e-002
3.995951e+003;2.697953e-002
3.997880e+003;2.713102e-002
3.999809e+003;2.749163e-002
4.001737e+003;0.000000e+000
