3.992094e+002;0.000000e+000
4.011380e+002;0.000000e+000
4.030665e+002;0.000000e+000
4.049951e+002;0.000000e+000
4.069236e+002;0.000000e+000
4.088522e+002;0.000000e+000
4.107807e+002;0.000000e+000
4.127093e+002;0.000000e+000
4.146378e+002;0.000000e+000
4.165664e+002;0.000000e+000
4.184949e+002;0.000000e+000
4.204235e+002;0.000000e+000
4.223520e+002;0.000000e+000
4.242806e+002;0.000000e+000
4.262091e+002;0.000000e+000
4.281377e+002;0.000000e+000
4.300662e+002;0.000000e+000
4.319948e+002;0.000000e+000
4.339233e+002;0.000000e+000
4.358519e+002;0.000000e+000
4.377804e+002;0.000000e+000
4.397090e+002;0.000000e+000
4.416375e+002;0.000000e+000
4.435660e+002;0.000000e+000
4.454946e+002;0.000000e+000
4.474232e+002;0.000000e+000
4.493517e+002;0.000000e+000
4.512802e+002;0.000000e+000
4.532088e+002;0.000000e+000
4.551373e+002;0.000000e+000
4.570659e+002;0.000000e+000
4.589944e+002;0.000000e+000
4.609230e+002;0.000000e+000
4.628515e+002;0.000000e+000
4.647801e+002;0.000000e+000
4.667086e+002;0.000000e+000
4.686372e+002;0.000000e+000
4.705657e+002;0.000000e+000
4.724943e+002;0.000000e+000
4.744228e+002;0.000000e+000
4.763513e+002;0.000000e+000
4.782799e+002;0.000000e+000
4.802085e+002;0.000000e+000
4.821370e+002;0.000000e+000
4.840656e+002;0.000000e+000
4.859941e+002;0.000000e+000
4.879226e+002;0.000000e+000
4.898512e+002;0.000000e+000
4.917798e+002;0.000000e+000
4.937083e+002;0.000000e+000
4.956368e+002;0.000000e+000
4.975654e+002;0.000000e+000
4.994939e+002;0.000000e+000
5.014225e+002;0.000000e+000
5.033510e+002;0.000000e+000
5.052796e+002;0.000000e+000
5.072081e+002;0.000000e+000
5.091367e+002;0.000000e+000
5.110652e+002;0.000000e+000
5.129938e+002;0.000000e+000
5.149223e+002;0.000000e+000
5.168509e+002;0.000000e+000
5.187794e+002;0.000000e+000
5.207079e+002;0.000000e+000
5.226365e+002;0.000000e+000
5.245651e+002;0.000000e+000
5.264936e+002;0.000000e+000
5.284222e+002;0.000000e+000
5.303507e+002;0.000000e+000
5.322792e+002;0.000000e+000
5.342078e+002;0.000000e+000
5.361364e+002;0.000000e+000
5.380649e+002;0.000000e+000
5.399935e+002;0.000000e+000
5.419220e+002;0.000000e+000
5.438505e+002;0.000000e+000
5.457791e+002;0.000000e+000
5.477076e+002;0.000000e+000
5.496362e+002;0.000000e+000
5.515648e+002;0.000000e+000
5.534933e+002;0.000000e+000
5.554218e+002;0.000000e+000
5.573504e+002;0.000000e+000
5.592789e+002;0.000000e+000
5.612075e+002;0.000000e+000
5.631360e+002;0.000000e+000
5.650646e+002;0.000000e+000
5.669931e+002;0.000000e+000
5.689217e+002;0.000000e+000
5.708502e+002;0.000000e+000
5.727787e+002;0.000000e+000
5.747073e+002;0.000000e+000
5.766359e+002;0.000000e+000
5.785644e+002;0.000000e+000
5.804930e+002;0.000000e+000
5.824215e+002;0.000000e+000
5.843500e+002;0.000000e+000
5.862786e+002;0.000000e+000
5.882072e+002;0.000000e+000
5.901357e+002;0.000000e+000
5.920643e+002;0.000000e+000
5.939928e+002;0.000000e+000
5.959213e+002;0.000000e+000
5.978499e+002;0.000000e+000
5.997784e+002;7.925547e-002
6.017070e+002;7.807051e-002
6.036355e+002;7.942098e-002
6.055641e+002;7.761569e-002
6.074926e+002;7.774395e-002
6.094211e+002;8.499467e-002
6.113497e+002;8.326970e-002
6.132783e+002;7.661175e-002
6.152068e+002;7.847061e-002
6.171354e+002;8.218111e-002
6.190639e+002;8.114289e-002
6.209924e+002;8.133344e-002
6.229210e+002;8.545910e-002
6.248495e+002;8.530696e-002
6.267781e+002;8.095381e-002
6.287067e+002;7.826488e-002
6.306352e+002;7.834467e-002
6.325637e+002;7.770342e-002
6.344923e+002;7.733062e-002
6.364208e+002;7.779456e-002
6.383494e+002;7.875819e-002
6.402780e+002;7.915714e-002
6.422065e+002;7.943522e-002
6.441350e+002;8.182765e-002
6.460636e+002;8.376523e-002
6.479921e+002;8.016244e-002
6.499207e+002;7.889076e-002
6.518492e+002;8.082220e-002
6.537778e+002;8.130671e-002
6.557063e+002;8.020505e-002
6.576349e+002;8.312254e-002
6.595634e+002;8.556456e-002
6.614919e+002;8.385292e-002
6.634205e+002;8.326501e-002
6.653491e+002;8.221350e-002
6.672776e+002;8.358397e-002
6.692062e+002;8.492279e-002
6.711347e+002;8.448812e-002
6.730632e+002;8.480661e-002
6.749918e+002;8.372003e-002
6.769203e+002;8.380566e-002
6.788489e+002;8.712542e-002
6.807775e+002;8.813289e-002
6.827060e+002;8.636620e-002
6.846345e+002;8.499927e-002
6.865631e+002;8.382045e-002
6.884916e+002;8.316451e-002
6.904202e+002;8.377930e-002
6.923488e+002;8.430590e-002
6.942773e+002;8.461943e-002
6.962058e+002;8.479167e-002
6.981344e+002;8.504541e-002
7.000629e+002;8.481842e-002
7.019915e+002;8.381744e-002
7.039200e+002;8.336821e-002
7.058486e+002;8.359461e-002
7.077771e+002;8.364474e-002
7.097057e+002;8.314485e-002
7.116342e+002;8.342249e-002
7.135627e+002;8.368982e-002
7.154913e+002;8.280376e-002
7.174199e+002;8.267592e-002
7.193484e+002;8.295342e-002
7.212770e+002;8.251341e-002
7.232055e+002;8.220541e-002
7.251340e+002;8.303396e-002
7.270626e+002;8.406361e-002
7.289911e+002;8.380196e-002
7.309197e+002;8.388495e-002
7.328483e+002;8.436739e-002
7.347768e+002;8.386160e-002
7.367053e+002;8.275180e-002
7.386339e+002;8.238554e-002
7.405624e+002;8.376941e-002
7.424910e+002;8.471676e-002
7.444196e+002;8.459987e-002
7.463481e+002;8.511502e-002
7.482766e+002;8.613653e-002
7.502052e+002;8.695270e-002
7.521337e+002;8.661840e-002
7.540623e+002;8.595310e-002
7.559908e+002;8.550735e-002
7.579194e+002;8.552554e-002
7.598479e+002;8.580588e-002
7.617765e+002;8.586680e-002
7.637050e+002;8.646379e-002
7.656335e+002;8.633043e-002
7.675621e+002;8.591990e-002
7.694907e+002;8.603287e-002
7.714192e+002;8.647887e-002
7.733478e+002;8.591869e-002
7.752763e+002;8.472779e-002
7.772048e+002;8.475904e-002
7.791334e+002;8.480842e-002
7.810620e+002;8.446240e-002
7.829905e+002;8.431295e-002
7.849191e+002;8.462765e-002
7.868476e+002;8.504239e-002
7.887761e+002;8.451400e-002
7.907047e+002;8.359987e-002
7.926332e+002;8.298691e-002
7.945618e+002;8.272230e-002
7.964903e+002;8.322603e-002
7.984189e+002;8.351231e-002
8.003474e+002;8.297785e-002
8.022759e+002;8.244406e-002
8.042045e+002;8.205201e-002
8.061331e+002;8.211097e-002
8.080616e+002;8.243810e-002
8.099902e+002;8.221610e-002
8.119187e+002;8.158197e-002
8.138472e+002;8.132210e-002
8.157758e+002;8.175745e-002
8.177043e+002;8.174989e-002
8.196329e+002;8.124734e-002
8.215615e+002;8.058822e-002
8.234900e+002;7.981274e-002
8.254185e+002;7.973076e-002
8.273471e+002;8.031267e-002
8.292756e+002;8.125290e-002
8.312042e+002;8.171774e-002
8.331328e+002;8.173629e-002
8.350613e+002;8.233484e-002
8.369898e+002;8.223276e-002
8.389184e+002;8.111425e-002
8.408469e+002;8.001009e-002
8.427755e+002;7.976125e-002
8.447040e+002;7.928240e-002
8.466326e+002;7.881285e-002
8.485611e+002;7.892187e-002
8.504897e+002;7.892187e-002
8.524182e+002;7.847474e-002
8.543467e+002;7.779322e-002
8.562753e+002;7.821806e-002
8.582039e+002;7.900767e-002
8.601324e+002;7.837273e-002
8.620610e+002;7.719353e-002
8.639895e+002;7.705566e-002
8.659180e+002;7.764160e-002
8.678466e+002;7.827797e-002
8.697751e+002;7.861648e-002
8.717037e+002;7.867148e-002
8.736323e+002;7.860195e-002
8.755608e+002;7.836222e-002
8.774893e+002;7.838599e-002
8.794179e+002;7.835253e-002
8.813464e+002;7.866469e-002
8.832750e+002;7.888198e-002
8.852036e+002;7.819787e-002
8.871321e+002;7.767782e-002
8.890606e+002;7.808427e-002
8.909892e+002;7.848161e-002
8.929177e+002;7.832190e-002
8.948463e+002;7.793822e-002
8.967748e+002;7.774158e-002
8.987034e+002;7.823834e-002
9.006319e+002;7.840195e-002
9.025605e+002;7.836277e-002
9.044890e+002;7.843564e-002
9.064175e+002;7.865583e-002
9.083461e+002;7.872216e-002
9.102747e+002;7.860449e-002
9.122032e+002;7.863800e-002
9.141318e+002;7.857681e-002
9.160603e+002;7.858598e-002
9.179888e+002;7.895572e-002
9.199174e+002;7.894261e-002
9.218459e+002;7.870639e-002
9.237745e+002;7.863086e-002
9.257031e+002;7.843437e-002
9.276316e+002;7.856426e-002
9.295601e+002;7.888357e-002
9.314887e+002;7.893097e-002
9.334172e+002;7.844085e-002
9.353458e+002;7.829559e-002
9.372744e+002;7.860794e-002
9.392029e+002;7.883823e-002
9.411314e+002;7.896280e-002
9.430600e+002;7.862752e-002
9.449885e+002;7.872045e-002
9.469171e+002;7.949263e-002
9.488456e+002;7.963789e-002
9.507742e+002;7.955124e-002
9.527027e+002;7.969015e-002
9.546313e+002;7.986279e-002
9.565598e+002;8.015136e-002
9.584883e+002;8.038774e-002
9.604169e+002;8.040234e-002
9.623455e+002;8.033348e-002
9.642740e+002;8.012471e-002
9.662026e+002;7.979108e-002
9.681311e+002;7.981282e-002
9.700596e+002;7.953441e-002
9.719882e+002;7.953346e-002
9.739167e+002;8.010901e-002
9.758453e+002;8.013643e-002
9.777739e+002;8.015822e-002
9.797024e+002;8.033918e-002
9.816309e+002;8.056680e-002
9.835595e+002;8.091919e-002
9.854880e+002;8.107714e-002
9.874166e+002;8.141085e-002
9.893452e+002;8.203908e-002
9.912737e+002;8.240882e-002
9.932022e+002;8.235646e-002
9.951307e+002;8.238894e-002
9.970593e+002;8.286222e-002
9.989879e+002;8.336761e-002
1.000916e+003;8.363032e-002
1.002845e+003;8.411967e-002
1.004773e+003;8.477781e-002
1.006702e+003;8.599054e-002
1.008631e+003;8.751240e-002
1.010559e+003;8.890577e-002
1.012488e+003;9.052940e-002
1.014416e+003;9.192678e-002
1.016345e+003;9.335712e-002
1.018273e+003;9.424932e-002
1.020202e+003;9.445185e-002
1.022130e+003;9.405448e-002
1.024059e+003;9.392893e-002
1.025988e+003;9.383886e-002
1.027916e+003;9.335914e-002
1.029845e+003;9.379029e-002
1.031773e+003;9.465440e-002
1.033702e+003;9.549052e-002
1.035630e+003;9.631612e-002
1.037559e+003;9.691850e-002
1.039487e+003;9.680905e-002
1.041416e+003;9.669933e-002
1.043344e+003;9.657487e-002
1.045273e+003;9.601115e-002
1.047202e+003;9.583627e-002
1.049130e+003;9.543689e-002
1.051059e+003;9.447046e-002
1.052987e+003;9.392411e-002
1.054916e+003;9.391864e-002
1.056844e+003;9.417173e-002
1.058773e+003;9.485259e-002
1.060701e+003;9.558349e-002
1.062630e+003;9.564242e-002
1.064558e+003;9.599531e-002
1.066487e+003;9.609208e-002
1.068416e+003;9.598953e-002
1.070344e+003;9.593014e-002
1.072273e+003;9.548189e-002
1.074201e+003;9.530985e-002
1.076130e+003;9.495343e-002
1.078058e+003;9.396817e-002
1.079987e+003;9.267926e-002
1.081915e+003;9.187240e-002
1.083844e+003;9.188121e-002
1.085773e+003;9.149674e-002
1.087701e+003;8.993907e-002
1.089630e+003;8.899370e-002
1.091558e+003;8.893851e-002
1.093487e+003;8.868037e-002
1.095415e+003;8.806328e-002
1.097344e+003;8.826441e-002
1.099272e+003;8.848745e-002
1.101201e+003;8.807947e-002
1.103129e+003;8.786565e-002
1.105058e+003;8.786281e-002
1.106987e+003;8.771604e-002
1.108915e+003;8.736246e-002
1.110844e+003;8.703719e-002
1.112772e+003;8.664157e-002
1.114701e+003;8.598965e-002
1.116629e+003;8.522528e-002
1.118558e+003;8.458473e-002
1.120486e+003;8.410439e-002
1.122415e+003;8.347417e-002
1.124344e+003;8.238851e-002
1.126272e+003;8.167718e-002
1.128201e+003;8.137041e-002
1.130129e+003;8.048284e-002
1.132058e+003;7.984570e-002
1.133986e+003;7.990437e-002
1.135915e+003;8.007833e-002
1.137843e+003;8.021210e-002
1.139772e+003;8.089065e-002
1.141700e+003;8.163955e-002
1.143629e+003;8.212562e-002
1.145557e+003;8.312394e-002
1.147486e+003;8.464137e-002
1.149415e+003;8.609693e-002
1.151343e+003;8.758131e-002
1.153272e+003;8.905816e-002
1.155200e+003;9.082062e-002
1.157129e+003;9.312977e-002
1.159057e+003;9.533152e-002
1.160986e+003;9.690413e-002
1.162914e+003;9.830259e-002
1.164843e+003;9.986174e-002
1.166771e+003;1.005791e-001
1.168700e+003;1.003839e-001
1.170629e+003;1.001703e-001
1.172557e+003;1.001513e-001
1.174486e+003;9.940478e-002
1.176414e+003;9.820113e-002
1.178343e+003;9.717993e-002
1.180271e+003;9.649161e-002
1.182200e+003;9.609977e-002
1.184128e+003;9.527919e-002
1.186057e+003;9.513843e-002
1.187986e+003;9.590989e-002
1.189914e+003;9.653514e-002
1.191843e+003;9.660512e-002
1.193771e+003;9.691258e-002
1.195700e+003;9.736365e-002
1.197628e+003;9.735481e-002
1.199557e+003;9.737919e-002
1.201485e+003;9.734516e-002
1.203414e+003;9.720774e-002
1.205343e+003;9.683845e-002
1.207271e+003;9.651292e-002
1.209200e+003;9.666692e-002
1.211128e+003;9.656730e-002
1.213057e+003;9.610593e-002
1.214985e+003;9.631616e-002
1.216914e+003;9.683952e-002
1.218842e+003;9.705027e-002
1.220771e+003;9.724455e-002
1.222699e+003;9.725051e-002
1.224628e+003;9.729495e-002
1.226557e+003;9.738313e-002
1.228485e+003;9.745976e-002
1.230414e+003;9.767235e-002
1.232342e+003;9.760572e-002
1.234271e+003;9.738019e-002
1.236199e+003;9.711500e-002
1.238128e+003;9.693797e-002
1.240056e+003;9.683389e-002
1.241985e+003;9.677509e-002
1.243913e+003;9.687766e-002
1.245842e+003;9.718052e-002
1.247771e+003;9.718826e-002
1.249699e+003;9.647112e-002
1.251628e+003;9.628832e-002
1.253556e+003;9.684433e-002
1.255485e+003;9.673560e-002
1.257413e+003;9.642686e-002
1.259342e+003;9.629887e-002
1.261270e+003;9.607171e-002
1.263199e+003;9.541538e-002
1.265127e+003;9.468831e-002
1.267056e+003;9.405440e-002
1.268985e+003;9.358568e-002
1.270913e+003;9.293015e-002
1.272842e+003;9.225556e-002
1.274770e+003;9.193275e-002
1.276699e+003;9.157863e-002
1.278627e+003;9.093830e-002
1.280556e+003;9.010242e-002
1.282484e+003;8.914769e-002
1.284413e+003;8.844001e-002
1.286342e+003;8.785599e-002
1.288270e+003;8.707841e-002
1.290199e+003;8.639005e-002
1.292127e+003;8.584698e-002
1.294056e+003;8.532931e-002
1.295984e+003;8.519298e-002
1.297913e+003;8.491582e-002
1.299841e+003;8.461581e-002
1.301770e+003;8.469863e-002
1.303698e+003;8.466123e-002
1.305627e+003;8.439387e-002
1.307556e+003;8.418402e-002
1.309484e+003;8.394492e-002
1.311413e+003;8.376274e-002
1.313341e+003;8.377456e-002
1.315270e+003;8.358786e-002
1.317198e+003;8.360915e-002
1.319127e+003;8.392949e-002
1.321055e+003;8.404809e-002
1.322984e+003;8.392756e-002
1.324912e+003;8.359148e-002
1.326841e+003;8.351023e-002
1.328770e+003;8.351172e-002
1.330698e+003;8.353031e-002
1.332627e+003;8.390891e-002
1.334555e+003;8.414887e-002
1.336484e+003;8.413612e-002
1.338412e+003;8.432530e-002
1.340341e+003;8.477201e-002
1.342269e+003;8.520878e-002
1.344198e+003;8.572683e-002
1.346126e+003;8.591995e-002
1.348055e+003;8.593117e-002
1.349984e+003;8.598606e-002
1.351912e+003;8.617096e-002
1.353841e+003;8.624773e-002
1.355769e+003;8.624450e-002
1.357698e+003;8.639818e-002
1.359626e+003;8.623395e-002
1.361555e+003;8.581900e-002
1.363483e+003;8.576640e-002
1.365412e+003;8.570105e-002
1.367341e+003;8.531350e-002
1.369269e+003;8.491469e-002
1.371198e+003;8.445177e-002
1.373126e+003;8.383122e-002
1.375055e+003;8.342630e-002
1.376983e+003;8.331931e-002
1.378912e+003;8.308683e-002
1.380840e+003;8.282698e-002
1.382769e+003;8.238970e-002
1.384698e+003;8.163927e-002
1.386626e+003;8.096702e-002
1.388555e+003;8.057761e-002
1.390483e+003;8.007610e-002
1.392412e+003;7.928323e-002
1.394340e+003;7.829880e-002
1.396269e+003;7.754565e-002
1.398197e+003;7.685095e-002
1.400126e+003;7.625233e-002
1.402054e+003;7.604902e-002
1.403983e+003;7.626923e-002
1.405911e+003;7.659009e-002
1.407840e+003;7.659167e-002
1.409769e+003;7.658471e-002
1.411697e+003;7.705360e-002
1.413626e+003;7.747194e-002
1.415554e+003;7.757933e-002
1.417483e+003;7.763142e-002
1.419411e+003;7.796019e-002
1.421340e+003;7.869852e-002
1.423268e+003;7.963124e-002
1.425197e+003;8.094658e-002
1.427125e+003;8.273464e-002
1.429054e+003;8.475010e-002
1.430983e+003;8.699529e-002
1.432911e+003;8.913033e-002
1.434840e+003;9.120568e-002
1.436768e+003;9.347998e-002
1.438697e+003;9.525353e-002
1.440625e+003;9.682942e-002
1.442554e+003;9.883534e-002
1.444482e+003;1.010289e-001
1.446411e+003;1.031442e-001
1.448340e+003;1.047289e-001
1.450268e+003;1.058046e-001
1.452197e+003;1.060169e-001
1.454125e+003;1.044538e-001
1.456054e+003;1.012822e-001
1.457982e+003;9.709225e-002
1.459911e+003;9.230810e-002
1.461839e+003;8.778283e-002
1.463768e+003;8.403712e-002
1.465697e+003;8.102196e-002
1.467625e+003;7.871135e-002
1.469554e+003;7.689615e-002
1.471482e+003;7.525504e-002
1.473411e+003;7.364722e-002
1.475339e+003;7.245132e-002
1.477268e+003;7.163211e-002
1.479196e+003;7.123255e-002
1.481125e+003;7.099272e-002
1.483053e+003;7.070349e-002
1.484982e+003;7.034323e-002
1.486911e+003;7.041407e-002
1.488839e+003;7.077836e-002
1.490768e+003;7.064961e-002
1.492696e+003;7.053153e-002
1.494625e+003;7.070708e-002
1.496553e+003;7.061772e-002
1.498482e+003;7.053586e-002
1.500410e+003;7.067577e-002
1.502339e+003;7.100473e-002
1.504267e+003;7.144736e-002
1.506196e+003;7.182800e-002
1.508125e+003;7.213343e-002
1.510053e+003;7.237491e-002
1.511982e+003;7.264280e-002
1.513910e+003;7.280969e-002
1.515839e+003;7.285929e-002
1.517767e+003;7.298196e-002
1.519696e+003;7.276126e-002
1.521624e+003;7.261755e-002
1.523553e+003;7.283265e-002
1.525481e+003;7.290103e-002
1.527410e+003;7.275452e-002
1.529339e+003;7.286200e-002
1.531267e+003;7.330495e-002
1.533196e+003;7.353182e-002
1.535124e+003;7.368012e-002
1.537053e+003;7.364836e-002
1.538981e+003;7.366253e-002
1.540910e+003;7.377800e-002
1.542838e+003;7.368597e-002
1.544767e+003;7.339448e-002
1.546695e+003;7.296871e-002
1.548624e+003;7.282168e-002
1.550553e+003;7.274018e-002
1.552481e+003;7.236066e-002
1.554410e+003;7.185185e-002
1.556338e+003;7.142556e-002
1.558267e+003;7.085887e-002
1.560195e+003;7.060365e-002
1.562124e+003;7.068162e-002
1.564052e+003;7.035450e-002
1.565981e+003;6.973504e-002
1.567910e+003;6.924868e-002
1.569838e+003;6.914535e-002
1.571767e+003;6.910103e-002
1.573695e+003;6.899172e-002
1.575624e+003;6.903021e-002
1.577552e+003;6.930798e-002
1.579481e+003;6.945112e-002
1.581409e+003;6.915352e-002
1.583338e+003;6.880502e-002
1.585266e+003;6.872715e-002
1.587195e+003;6.869257e-002
1.589124e+003;6.869424e-002
1.591052e+003;6.876151e-002
1.592981e+003;6.871632e-002
1.594909e+003;6.862640e-002
1.596838e+003;6.890718e-002
1.598766e+003;6.944940e-002
1.600695e+003;6.975838e-002
1.602623e+003;7.011417e-002
1.604552e+003;7.033685e-002
1.606480e+003;7.082751e-002
1.608409e+003;7.156963e-002
1.610338e+003;7.192203e-002
1.612266e+003;7.205234e-002
1.614195e+003;7.235193e-002
1.616123e+003;7.259557e-002
1.618052e+003;7.274786e-002
1.619980e+003;7.307719e-002
1.621909e+003;7.363591e-002
1.623837e+003;7.439485e-002
1.625766e+003;7.502180e-002
1.627694e+003;7.565339e-002
1.629623e+003;7.605735e-002
1.631552e+003;7.630134e-002
1.633480e+003;7.682347e-002
1.635409e+003;7.729843e-002
1.637337e+003;7.756851e-002
1.639266e+003;7.783757e-002
1.641194e+003;7.821362e-002
1.643123e+003;7.868046e-002
1.645051e+003;7.901785e-002
1.646980e+003;7.915273e-002
1.648909e+003;7.890320e-002
1.650837e+003;7.846573e-002
1.652766e+003;7.819057e-002
1.654694e+003;7.801867e-002
1.656623e+003;7.759719e-002
1.658551e+003;7.699972e-002
1.660480e+003;7.656776e-002
1.662408e+003;7.631224e-002
1.664337e+003;7.605664e-002
1.666266e+003;7.561225e-002
1.668194e+003;7.519948e-002
1.670123e+003;7.460974e-002
1.672051e+003;7.386916e-002
1.673980e+003;7.333908e-002
1.675908e+003;7.282638e-002
1.677837e+003;7.223864e-002
1.679765e+003;7.155889e-002
1.681694e+003;7.086292e-002
1.683622e+003;7.031873e-002
1.685551e+003;7.011620e-002
1.687479e+003;6.982880e-002
1.689408e+003;6.944505e-002
1.691337e+003;6.900399e-002
1.693265e+003;6.838257e-002
1.695194e+003;6.804830e-002
1.697122e+003;6.785733e-002
1.699051e+003;6.760835e-002
1.700979e+003;6.767499e-002
1.702908e+003;6.804187e-002
1.704836e+003;6.829248e-002
1.706765e+003;6.899673e-002
1.708693e+003;7.000224e-002
1.710622e+003;7.134636e-002
1.712551e+003;7.315282e-002
1.714479e+003;7.517458e-002
1.716408e+003;7.754391e-002
1.718336e+003;8.029449e-002
1.720265e+003;8.351380e-002
1.722193e+003;8.636418e-002
1.724122e+003;8.845735e-002
1.726050e+003;9.057218e-002
1.727979e+003;9.216129e-002
1.729908e+003;9.259715e-002
1.731836e+003;9.188575e-002
1.733765e+003;9.043807e-002
1.735693e+003;8.853173e-002
1.737622e+003;8.622058e-002
1.739550e+003;8.305715e-002
1.741479e+003;7.920088e-002
1.743407e+003;7.549183e-002
1.745336e+003;7.234121e-002
1.747265e+003;6.946130e-002
1.749193e+003;6.664973e-002
1.751122e+003;6.404705e-002
1.753050e+003;6.191007e-002
1.754979e+003;6.014181e-002
1.756907e+003;5.864952e-002
1.758836e+003;5.745532e-002
1.760764e+003;5.633263e-002
1.762693e+003;5.536076e-002
1.764621e+003;5.469044e-002
1.766550e+003;5.407260e-002
1.768479e+003;5.340240e-002
1.770407e+003;5.285445e-002
1.772336e+003;5.244551e-002
1.774264e+003;5.208435e-002
1.776193e+003;5.195844e-002
1.778121e+003;5.193215e-002
1.780050e+003;5.181730e-002
1.781978e+003;5.165822e-002
1.783907e+003;5.146961e-002
1.785835e+003;5.118672e-002
1.787764e+003;5.068982e-002
1.789693e+003;5.054656e-002
1.791621e+003;5.044983e-002
1.793550e+003;5.023329e-002
1.795478e+003;5.002206e-002
1.797407e+003;4.986895e-002
1.799335e+003;4.967194e-002
1.801264e+003;4.937214e-002
1.803192e+003;4.941520e-002
1.805121e+003;4.938045e-002
1.807049e+003;4.906757e-002
1.808978e+003;4.883137e-002
1.810907e+003;4.874939e-002
1.812835e+003;4.845605e-002
1.814764e+003;4.838033e-002
1.816692e+003;4.833996e-002
1.818621e+003;4.820458e-002
1.820549e+003;4.825760e-002
1.822478e+003;4.820381e-002
1.824406e+003;4.833659e-002
1.826335e+003;4.839937e-002
1.828264e+003;4.814084e-002
1.830192e+003;4.788655e-002
1.832121e+003;4.787834e-002
1.834049e+003;4.778830e-002
1.835978e+003;4.777835e-002
1.837906e+003;4.773175e-002
1.839835e+003;4.776293e-002
1.841763e+003;4.758288e-002
1.843692e+003;4.726738e-002
1.845620e+003;4.735705e-002
1.847549e+003;4.761930e-002
1.849478e+003;4.745735e-002
1.851406e+003;4.700316e-002
1.853335e+003;4.687794e-002
1.855263e+003;4.705150e-002
1.857192e+003;4.721784e-002
1.859120e+003;4.717178e-002
1.861049e+003;4.695731e-002
1.862977e+003;4.677014e-002
1.864906e+003;4.665030e-002
1.866834e+003;4.671726e-002
1.868763e+003;4.688957e-002
1.870692e+003;4.695546e-002
1.872620e+003;4.660283e-002
1.874549e+003;4.636349e-002
1.876477e+003;4.640357e-002
1.878406e+003;4.645715e-002
1.880334e+003;4.657785e-002
1.882263e+003;4.628729e-002
1.884191e+003;4.617223e-002
1.886120e+003;4.631358e-002
1.888048e+003;4.638790e-002
1.889977e+003;4.626713e-002
1.891906e+003;4.605193e-002
1.893834e+003;4.611276e-002
1.895763e+003;4.630687e-002
1.897691e+003;4.649870e-002
1.899620e+003;4.654377e-002
1.901548e+003;4.657096e-002
1.903477e+003;4.657288e-002
1.905405e+003;4.638303e-002
1.907334e+003;4.622689e-002
1.909262e+003;4.603900e-002
1.911191e+003;4.619386e-002
1.913120e+003;4.632692e-002
1.915048e+003;4.618410e-002
1.916977e+003;4.610605e-002
1.918905e+003;4.616932e-002
1.920834e+003;4.627978e-002
1.922762e+003;4.642341e-002
1.924691e+003;4.650527e-002
1.926619e+003;4.643218e-002
1.928548e+003;4.637522e-002
1.930477e+003;4.616184e-002
1.932405e+003;4.608030e-002
1.934334e+003;4.619696e-002
1.936262e+003;4.615281e-002
1.938191e+003;4.619807e-002
1.940119e+003;4.602920e-002
1.942048e+003;4.557827e-002
1.943976e+003;4.549927e-002
1.945905e+003;4.571004e-002
1.947833e+003;4.574041e-002
1.949762e+003;4.576117e-002
1.951691e+003;4.574685e-002
1.953619e+003;4.576187e-002
1.955548e+003;4.590242e-002
1.957476e+003;4.600853e-002
1.959405e+003;4.584269e-002
1.961333e+003;4.568144e-002
1.963262e+003;4.572668e-002
1.965190e+003;4.581511e-002
1.967119e+003;4.593597e-002
1.969047e+003;4.584309e-002
1.970976e+003;4.577082e-002
1.972905e+003;4.589428e-002
1.974833e+003;4.618277e-002
1.976762e+003;4.657059e-002
1.978690e+003;4.643889e-002
1.980619e+003;4.607131e-002
1.982547e+003;4.617105e-002
1.984476e+003;4.642222e-002
1.986404e+003;4.632659e-002
1.988333e+003;4.618778e-002
1.990261e+003;4.632699e-002
1.992190e+003;4.647072e-002
1.994119e+003;4.633975e-002
1.996047e+003;4.626212e-002
1.997976e+003;4.637872e-002
1.999904e+003;4.643506e-002
2.001833e+003;4.635476e-002
2.003761e+003;4.652227e-002
2.005690e+003;4.677250e-002
2.007618e+003;4.690426e-002
2.009547e+003;4.681406e-002
2.011476e+003;4.668885e-002
2.013404e+003;4.674239e-002
2.015333e+003;4.671457e-002
2.017261e+003;4.658556e-002
2.019190e+003;4.649284e-002
2.021118e+003;4.637946e-002
2.023047e+003;4.627528e-002
2.024975e+003;4.619854e-002
2.026904e+003;4.637618e-002
2.028833e+003;4.643911e-002
2.030761e+003;4.627532e-002
2.032690e+003;4.631034e-002
2.034618e+003;4.642090e-002
2.036547e+003;4.637868e-002
2.038475e+003;4.630967e-002
2.040404e+003;4.623017e-002
2.042332e+003;4.614843e-002
2.044261e+003;4.612790e-002
2.046189e+003;4.621841e-002
2.048118e+003;4.633282e-002
2.050047e+003;4.630492e-002
2.051975e+003;4.612691e-002
2.053904e+003;4.611209e-002
2.055832e+003;4.624015e-002
2.057761e+003;4.626739e-002
2.059689e+003;4.637223e-002
2.061618e+003;4.638362e-002
2.063546e+003;4.625169e-002
2.065475e+003;4.600264e-002
2.067404e+003;4.599137e-002
2.069332e+003;4.612908e-002
2.071260e+003;4.598842e-002
2.073189e+003;4.586766e-002
2.075118e+003;4.583665e-002
2.077046e+003;4.577119e-002
2.078975e+003;4.561316e-002
2.080903e+003;4.557515e-002
2.082832e+003;4.569399e-002
2.084760e+003;4.565350e-002
2.086689e+003;4.594238e-002
2.088617e+003;4.609703e-002
2.090546e+003;4.596426e-002
2.092475e+003;4.583385e-002
2.094403e+003;4.573868e-002
2.096332e+003;4.581482e-002
2.098260e+003;4.572270e-002
2.100189e+003;4.555936e-002
2.102117e+003;4.560076e-002
2.104046e+003;4.557073e-002
2.105974e+003;4.556977e-002
2.107903e+003;4.550152e-002
2.109832e+003;4.539217e-002
2.111760e+003;4.553058e-002
2.113688e+003;4.574641e-002
2.115617e+003;4.568324e-002
2.117546e+003;4.554872e-002
2.119474e+003;4.559590e-002
2.121403e+003;4.581993e-002
2.123331e+003;4.569605e-002
2.125260e+003;4.553437e-002
2.127188e+003;4.560827e-002
2.129117e+003;4.545420e-002
2.131045e+003;4.514494e-002
2.132974e+003;4.535583e-002
2.134903e+003;4.553463e-002
2.136831e+003;4.544651e-002
2.138760e+003;4.542271e-002
2.140688e+003;4.538791e-002
2.142617e+003;4.542006e-002
2.144545e+003;4.522109e-002
2.146474e+003;4.519403e-002
2.148402e+003;4.540354e-002
2.150331e+003;4.543378e-002
2.152260e+003;4.524650e-002
2.154188e+003;4.516671e-002
2.156117e+003;4.520954e-002
2.158045e+003;4.545170e-002
2.159974e+003;4.550740e-002
2.161902e+003;4.554055e-002
2.163831e+003;4.550799e-002
2.165759e+003;4.548135e-002
2.167688e+003;4.574255e-002
2.169616e+003;4.595159e-002
2.171545e+003;4.582284e-002
2.173474e+003;4.584181e-002
2.175402e+003;4.588486e-002
2.177331e+003;4.590824e-002
2.179259e+003;4.632007e-002
2.181188e+003;4.682509e-002
2.183116e+003;4.704415e-002
2.185045e+003;4.734537e-002
2.186973e+003;4.793562e-002
2.188902e+003;4.840256e-002
2.190831e+003;4.858243e-002
2.192759e+003;4.867874e-002
2.194688e+003;4.851544e-002
2.196616e+003;4.827434e-002
2.198545e+003;4.816823e-002
2.200473e+003;4.782293e-002
2.202402e+003;4.763209e-002
2.204330e+003;4.789647e-002
2.206259e+003;4.806259e-002
2.208188e+003;4.805988e-002
2.210116e+003;4.830230e-002
2.212044e+003;4.849146e-002
2.213973e+003;4.836659e-002
2.215902e+003;4.854044e-002
2.217830e+003;4.903841e-002
2.219759e+003;4.964679e-002
2.221687e+003;5.026773e-002
2.223616e+003;5.098327e-002
2.225544e+003;5.200737e-002
2.227473e+003;5.363005e-002
2.229401e+003;5.599495e-002
2.231330e+003;5.919545e-002
2.233259e+003;6.301749e-002
2.235187e+003;6.726477e-002
2.237116e+003;7.172207e-002
2.239044e+003;7.532053e-002
2.240973e+003;7.679879e-002
2.242901e+003;7.602143e-002
2.244830e+003;7.382502e-002
2.246758e+003;7.101078e-002
2.248687e+003;6.751289e-002
2.250615e+003;6.402908e-002
2.252544e+003;6.137228e-002
2.254473e+003;5.896612e-002
2.256401e+003;5.682240e-002
2.258330e+003;5.513051e-002
2.260258e+003;5.370915e-002
2.262187e+003;5.254288e-002
2.264115e+003;5.185266e-002
2.266044e+003;5.088748e-002
2.267972e+003;4.990068e-002
2.269901e+003;4.966908e-002
2.271830e+003;4.952381e-002
2.273758e+003;4.926212e-002
2.275687e+003;4.912593e-002
2.277615e+003;4.887946e-002
2.279544e+003;4.874005e-002
2.281472e+003;4.874776e-002
2.283401e+003;4.880178e-002
2.285329e+003;4.862085e-002
2.287258e+003;4.837800e-002
2.289187e+003;4.810793e-002
2.291115e+003;4.810067e-002
2.293043e+003;4.814216e-002
2.294972e+003;4.820181e-002
2.296901e+003;4.833852e-002
2.298829e+003;4.840915e-002
2.300758e+003;4.818914e-002
2.302686e+003;4.788060e-002
2.304615e+003;4.772029e-002
2.306543e+003;4.767946e-002
2.308472e+003;4.751046e-002
2.310400e+003;4.731910e-002
2.312329e+003;4.747882e-002
2.314258e+003;4.760932e-002
2.316186e+003;4.759239e-002
2.318115e+003;4.728766e-002
2.320043e+003;4.712931e-002
2.321972e+003;4.707775e-002
2.323900e+003;4.690548e-002
2.325829e+003;4.678007e-002
2.327757e+003;4.685990e-002
2.329686e+003;4.693560e-002
2.331615e+003;4.678546e-002
2.333543e+003;4.676487e-002
2.335472e+003;4.687163e-002
2.337400e+003;4.664945e-002
2.339329e+003;4.654263e-002
2.341257e+003;4.671232e-002
2.343186e+003;4.705165e-002
2.345114e+003;4.733148e-002
2.347043e+003;4.746278e-002
2.348971e+003;4.772221e-002
2.350900e+003;4.772136e-002
2.352829e+003;4.732184e-002
2.354757e+003;4.704596e-002
2.356686e+003;4.671686e-002
2.358614e+003;4.645504e-002
2.360543e+003;4.637725e-002
2.362471e+003;4.607632e-002
2.364400e+003;4.616803e-002
2.366328e+003;4.683336e-002
2.368257e+003;4.723362e-002
2.370186e+003;4.728024e-002
2.372114e+003;4.720772e-002
2.374042e+003;4.723406e-002
2.375971e+003;4.753220e-002
2.377900e+003;4.787586e-002
2.379828e+003;4.795660e-002
2.381757e+003;4.772583e-002
2.383685e+003;4.773711e-002
2.385614e+003;4.789721e-002
2.387542e+003;4.810759e-002
2.389471e+003;4.813769e-002
2.391399e+003;4.802276e-002
2.393328e+003;4.784771e-002
2.395257e+003;4.763646e-002
2.397185e+003;4.750980e-002
2.399114e+003;4.762570e-002
2.401042e+003;4.793070e-002
2.402971e+003;4.824650e-002
2.404899e+003;4.820836e-002
2.406828e+003;4.800196e-002
2.408756e+003;4.798879e-002
2.410685e+003;4.815201e-002
2.412614e+003;4.835548e-002
2.414542e+003;4.836467e-002
2.416471e+003;4.815486e-002
2.418399e+003;4.802557e-002
2.420328e+003;4.789595e-002
2.422256e+003;4.820558e-002
2.424185e+003;4.856175e-002
2.426113e+003;4.839411e-002
2.428042e+003;4.820232e-002
2.429970e+003;4.831015e-002
2.431899e+003;4.851747e-002
2.433828e+003;4.840560e-002
2.435756e+003;4.823757e-002
2.437685e+003;4.832689e-002
2.439613e+003;4.833630e-002
2.441542e+003;4.804408e-002
2.443470e+003;4.802357e-002
2.445399e+003;4.815349e-002
2.447327e+003;4.796359e-002
2.449256e+003;4.794046e-002
2.451185e+003;4.836970e-002
2.453113e+003;4.848098e-002
2.455042e+003;4.849054e-002
2.456970e+003;4.840308e-002
2.458899e+003;4.826068e-002
2.460827e+003;4.837241e-002
2.462756e+003;4.868345e-002
2.464684e+003;4.892262e-002
2.466613e+003;4.914882e-002
2.468542e+003;4.915988e-002
2.470470e+003;4.882117e-002
2.472398e+003;4.870050e-002
2.474327e+003;4.911001e-002
2.476256e+003;4.946221e-002
2.478184e+003;4.926965e-002
2.480113e+003;4.905778e-002
2.482041e+003;4.910664e-002
2.483970e+003;4.921517e-002
2.485898e+003;4.912293e-002
2.487827e+003;4.929122e-002
2.489755e+003;4.958390e-002
2.491684e+003;4.967209e-002
2.493613e+003;4.978065e-002
2.495541e+003;4.976902e-002
2.497470e+003;4.982033e-002
2.499398e+003;4.991537e-002
2.501327e+003;4.973643e-002
2.503255e+003;4.983814e-002
2.505184e+003;4.994938e-002
2.507112e+003;4.965700e-002
2.509041e+003;4.957046e-002
2.510969e+003;4.975661e-002
2.512898e+003;4.979324e-002
2.514827e+003;4.955965e-002
2.516755e+003;4.942860e-002
2.518684e+003;4.949585e-002
2.520612e+003;4.955378e-002
2.522541e+003;4.962402e-002
2.524469e+003;4.959724e-002
2.526398e+003;4.954765e-002
2.528326e+003;4.964902e-002
2.530255e+003;4.984516e-002
2.532184e+003;4.972038e-002
2.534112e+003;4.938587e-002
2.536041e+003;4.948827e-002
2.537969e+003;5.013242e-002
2.539898e+003;5.049337e-002
2.541826e+003;5.006526e-002
2.543755e+003;4.964671e-002
2.545683e+003;4.958524e-002
2.547612e+003;4.954457e-002
2.549541e+003;4.965206e-002
2.551469e+003;4.967714e-002
2.553397e+003;4.961484e-002
2.555326e+003;4.960686e-002
2.557255e+003;4.963271e-002
2.559183e+003;4.971273e-002
2.561112e+003;4.974201e-002
2.563040e+003;4.970946e-002
2.564969e+003;4.981004e-002
2.566897e+003;4.955419e-002
2.568826e+003;4.918522e-002
2.570754e+003;4.917420e-002
2.572683e+003;4.917480e-002
2.574612e+003;4.891027e-002
2.576540e+003;4.876930e-002
2.578469e+003;4.888331e-002
2.580397e+003;4.918541e-002
2.582326e+003;4.932339e-002
2.584254e+003;4.934192e-002
2.586183e+003;4.911532e-002
2.588111e+003;4.889811e-002
2.590040e+003;4.889696e-002
2.591969e+003;4.914971e-002
2.593897e+003;4.910912e-002
2.595826e+003;4.892770e-002
2.597754e+003;4.891995e-002
2.599683e+003;4.905919e-002
2.601611e+003;4.914827e-002
2.603540e+003;4.919235e-002
2.605468e+003;4.915328e-002
2.607397e+003;4.914348e-002
2.609325e+003;4.923992e-002
2.611254e+003;4.925904e-002
2.613183e+003;4.892381e-002
2.615111e+003;4.884126e-002
2.617040e+003;4.908901e-002
2.618968e+003;4.936683e-002
2.620897e+003;4.952559e-002
2.622825e+003;4.953737e-002
2.624754e+003;4.949210e-002
2.626682e+003;4.948872e-002
2.628611e+003;4.950023e-002
2.630540e+003;4.957339e-002
2.632468e+003;4.956678e-002
2.634396e+003;4.945259e-002
2.636325e+003;4.956919e-002
2.638254e+003;4.976032e-002
2.640182e+003;4.970333e-002
2.642111e+003;4.961124e-002
2.644039e+003;4.974962e-002
2.645968e+003;4.971667e-002
2.647896e+003;4.938788e-002
2.649825e+003;4.936449e-002
2.651753e+003;4.949793e-002
2.653682e+003;4.942942e-002
2.655611e+003;4.938127e-002
2.657539e+003;4.932043e-002
2.659468e+003;4.955995e-002
2.661396e+003;4.967405e-002
2.663325e+003;4.952552e-002
2.665253e+003;4.962847e-002
2.667182e+003;4.976200e-002
2.669110e+003;4.972740e-002
2.671039e+003;4.984739e-002
2.672968e+003;4.985947e-002
2.674896e+003;4.972484e-002
2.676825e+003;4.947992e-002
2.678753e+003;4.945790e-002
2.680682e+003;4.958880e-002
2.682610e+003;4.970838e-002
2.684539e+003;4.971470e-002
2.686467e+003;4.982921e-002
2.688396e+003;4.989370e-002
2.690324e+003;4.976943e-002
2.692253e+003;4.982832e-002
2.694182e+003;4.985062e-002
2.696110e+003;4.954962e-002
2.698039e+003;4.948664e-002
2.699967e+003;4.971949e-002
2.701896e+003;5.003158e-002
2.703824e+003;5.037320e-002
2.705753e+003;5.029076e-002
2.707681e+003;5.009211e-002
2.709610e+003;4.999410e-002
2.711539e+003;4.983379e-002
2.713467e+003;4.979964e-002
2.715396e+003;4.986467e-002
2.717324e+003;5.006630e-002
2.719253e+003;5.011751e-002
2.721181e+003;4.988630e-002
2.723110e+003;4.984215e-002
2.725038e+003;4.986976e-002
2.726967e+003;4.962651e-002
2.728896e+003;4.938918e-002
2.730824e+003;4.949187e-002
2.732752e+003;4.956782e-002
2.734681e+003;4.962416e-002
2.736610e+003;4.997514e-002
2.738538e+003;4.994440e-002
2.740467e+003;4.958932e-002
2.742395e+003;4.948226e-002
2.744324e+003;4.956619e-002
2.746252e+003;4.953117e-002
2.748181e+003;4.948178e-002
2.750109e+003;4.950636e-002
2.752038e+003;4.973569e-002
2.753967e+003;4.977511e-002
2.755895e+003;4.973565e-002
2.757824e+003;4.989095e-002
2.759752e+003;4.966317e-002
2.761681e+003;4.936946e-002
2.763609e+003;4.939463e-002
2.765538e+003;4.936204e-002
2.767466e+003;4.965700e-002
2.769395e+003;4.999659e-002
2.771323e+003;4.989871e-002
2.773252e+003;4.976913e-002
2.775181e+003;4.999198e-002
2.777109e+003;5.015548e-002
2.779038e+003;5.039103e-002
2.780966e+003;5.080385e-002
2.782895e+003;5.081801e-002
2.784823e+003;5.068803e-002
2.786752e+003;5.074125e-002
2.788680e+003;5.082911e-002
2.790609e+003;5.122050e-002
2.792538e+003;5.179894e-002
2.794466e+003;5.169259e-002
2.796395e+003;5.159127e-002
2.798323e+003;5.197099e-002
2.800252e+003;5.210127e-002
2.802180e+003;5.218806e-002
2.804109e+003;5.233165e-002
2.806037e+003;5.256225e-002
2.807966e+003;5.264995e-002
2.809895e+003;5.274486e-002
2.811823e+003;5.307444e-002
2.813751e+003;5.318633e-002
2.815680e+003;5.310997e-002
2.817609e+003;5.298234e-002
2.819537e+003;5.310810e-002
2.821466e+003;5.336261e-002
2.823394e+003;5.332994e-002
2.825323e+003;5.337733e-002
2.827251e+003;5.361048e-002
2.829180e+003;5.359829e-002
2.831108e+003;5.374155e-002
2.833037e+003;5.394976e-002
2.834966e+003;5.436328e-002
2.836894e+003;5.515635e-002
2.838823e+003;5.620676e-002
2.840751e+003;5.729563e-002
2.842680e+003;5.832322e-002
2.844608e+003;5.984493e-002
2.846537e+003;6.172127e-002
2.848465e+003;6.312791e-002
2.850394e+003;6.394592e-002
2.852323e+003;6.419906e-002
2.854251e+003;6.367520e-002
2.856180e+003;6.299224e-002
2.858108e+003;6.272346e-002
2.860037e+003;6.251923e-002
2.861965e+003;6.213362e-002
2.863894e+003;6.191244e-002
2.865822e+003;6.186346e-002
2.867751e+003;6.199005e-002
2.869679e+003;6.204960e-002
2.871608e+003;6.179144e-002
2.873536e+003;6.153523e-002
2.875465e+003;6.152588e-002
2.877394e+003;6.118227e-002
2.879322e+003;6.106110e-002
2.881251e+003;6.128051e-002
2.883179e+003;6.148633e-002
2.885108e+003;6.170791e-002
2.887036e+003;6.194916e-002
2.888965e+003;6.199353e-002
2.890893e+003;6.211363e-002
2.892822e+003;6.241218e-002
2.894750e+003;6.273904e-002
2.896679e+003;6.322245e-002
2.898608e+003;6.363016e-002
2.900536e+003;6.385183e-002
2.902465e+003;6.467222e-002
2.904393e+003;6.601030e-002
2.906322e+003;6.702720e-002
2.908250e+003;6.776626e-002
2.910179e+003;6.854697e-002
2.912107e+003;6.979550e-002
2.914036e+003;7.154901e-002
2.915965e+003;7.318517e-002
2.917893e+003;7.444232e-002
2.919822e+003;7.511608e-002
2.921750e+003;7.536963e-002
2.923679e+003;7.537685e-002
2.925607e+003;7.482119e-002
2.927536e+003;7.427733e-002
2.929464e+003;7.379772e-002
2.931393e+003;7.351227e-002
2.933322e+003;7.297220e-002
2.935250e+003;7.221939e-002
2.937178e+003;7.164520e-002
2.939107e+003;7.107212e-002
2.941036e+003;7.059655e-002
2.942964e+003;7.018743e-002
2.944893e+003;6.964062e-002
2.946821e+003;6.888764e-002
2.948750e+003;6.835705e-002
2.950678e+003;6.797735e-002
2.952607e+003;6.761834e-002
2.954535e+003;6.722683e-002
2.956464e+003;6.677205e-002
2.958393e+003;6.612113e-002
2.960321e+003;6.533791e-002
2.962250e+003;6.454149e-002
2.964178e+003;6.397671e-002
2.966107e+003;6.341949e-002
2.968035e+003;6.292663e-002
2.969964e+003;6.264628e-002
2.971892e+003;6.235170e-002
2.973821e+003;6.171562e-002
2.975750e+003;6.126395e-002
2.977678e+003;6.101953e-002
2.979607e+003;6.070543e-002
2.981535e+003;6.046715e-002
2.983464e+003;6.027636e-002
2.985392e+003;5.994237e-002
2.987321e+003;5.946939e-002
2.989249e+003;5.896559e-002
2.991178e+003;5.891109e-002
2.993106e+003;5.875629e-002
2.995035e+003;5.870368e-002
2.996964e+003;5.854638e-002
2.998892e+003;5.804057e-002
3.000821e+003;5.763474e-002
3.002749e+003;5.786556e-002
3.004678e+003;5.789547e-002
3.006606e+003;5.746175e-002
3.008535e+003;5.734055e-002
3.010463e+003;5.744677e-002
3.012392e+003;5.752733e-002
3.014321e+003;5.748614e-002
3.016249e+003;5.704927e-002
3.018177e+003;5.652638e-002
3.020106e+003;5.643887e-002
3.022035e+003;5.626680e-002
3.023963e+003;5.606306e-002
3.025892e+003;5.586421e-002
3.027820e+003;5.592639e-002
3.029749e+003;5.626032e-002
3.031677e+003;5.631814e-002
3.033606e+003;5.611924e-002
3.035534e+003;5.588855e-002
3.037463e+003;5.563143e-002
3.039392e+003;5.535357e-002
3.041320e+003;5.545807e-002
3.043249e+003;5.560273e-002
3.045177e+003;5.555216e-002
3.047106e+003;5.576662e-002
3.049034e+003;5.594885e-002
3.050963e+003;5.560401e-002
3.052891e+003;5.530893e-002
3.054820e+003;5.508943e-002
3.056749e+003;5.533076e-002
3.058677e+003;5.549940e-002
3.060606e+003;5.522445e-002
3.062534e+003;5.477305e-002
3.064463e+003;5.450202e-002
3.066391e+003;5.479722e-002
3.068320e+003;5.498563e-002
3.070248e+003;5.497175e-002
3.072177e+003;5.475384e-002
3.074105e+003;5.452824e-002
3.076034e+003;5.407448e-002
3.077963e+003;5.383959e-002
3.079891e+003;5.400619e-002
3.081820e+003;5.403718e-002
3.083748e+003;5.406397e-002
3.085677e+003;5.391284e-002
3.087605e+003;5.363372e-002
3.089534e+003;5.371096e-002
3.091462e+003;5.362086e-002
3.093391e+003;5.358461e-002
3.095320e+003;5.372288e-002
3.097248e+003;5.375449e-002
3.099177e+003;5.355762e-002
3.101105e+003;5.324337e-002
3.103034e+003;5.314641e-002
3.104962e+003;5.310009e-002
3.106891e+003;5.293735e-002
3.108819e+003;5.306669e-002
3.110748e+003;5.307927e-002
3.112677e+003;5.294723e-002
3.114605e+003;5.294038e-002
3.116533e+003;5.309391e-002
3.118462e+003;5.299414e-002
3.120391e+003;5.298631e-002
3.122319e+003;5.300948e-002
3.124248e+003;5.308226e-002
3.126176e+003;5.318588e-002
3.128105e+003;5.296497e-002
3.130033e+003;5.229961e-002
3.131962e+003;5.231920e-002
3.133890e+003;5.275806e-002
3.135819e+003;5.268608e-002
3.137748e+003;5.270516e-002
3.139676e+003;5.275268e-002
3.141605e+003;5.278395e-002
3.143533e+003;5.300787e-002
3.145462e+003;5.299032e-002
3.147390e+003;5.306324e-002
3.149319e+003;5.315097e-002
3.151247e+003;5.273404e-002
3.153176e+003;5.253569e-002
3.155104e+003;5.265279e-002
3.157033e+003;5.317760e-002
3.158962e+003;5.366409e-002
3.160890e+003;5.365228e-002
3.162819e+003;5.363852e-002
3.164747e+003;5.362974e-002
3.166676e+003;5.346381e-002
3.168604e+003;5.335804e-002
3.170533e+003;5.351954e-002
3.172461e+003;5.391423e-002
3.174390e+003;5.405245e-002
3.176319e+003;5.363383e-002
3.178247e+003;5.349106e-002
3.180176e+003;5.372543e-002
3.182104e+003;5.377920e-002
3.184033e+003;5.373244e-002
3.185961e+003;5.365067e-002
3.187890e+003;5.376627e-002
3.189818e+003;5.378239e-002
3.191747e+003;5.365903e-002
3.193676e+003;5.363263e-002
3.195604e+003;5.380587e-002
3.197532e+003;5.377309e-002
3.199461e+003;5.322812e-002
3.201390e+003;5.349956e-002
3.203318e+003;5.427860e-002
3.205247e+003;5.455728e-002
3.207175e+003;5.432967e-002
3.209104e+003;5.404108e-002
3.211032e+003;5.385755e-002
3.212961e+003;5.420262e-002
3.214889e+003;5.446212e-002
3.216818e+003;5.454586e-002
3.218747e+003;5.465373e-002
3.220675e+003;5.467334e-002
3.222604e+003;5.489169e-002
3.224532e+003;5.513352e-002
3.226461e+003;5.531330e-002
3.228389e+003;5.493005e-002
3.230318e+003;5.449071e-002
3.232246e+003;5.447685e-002
3.234175e+003;5.463269e-002
3.236104e+003;5.489162e-002
3.238032e+003;5.500417e-002
3.239961e+003;5.478895e-002
3.241889e+003;5.450112e-002
3.243818e+003;5.456573e-002
3.245746e+003;5.461953e-002
3.247675e+003;5.416793e-002
3.249603e+003;5.439839e-002
3.251532e+003;5.501560e-002
3.253460e+003;5.479027e-002
3.255389e+003;5.429719e-002
3.257318e+003;5.439805e-002
3.259246e+003;5.480110e-002
3.261175e+003;5.490034e-002
3.263103e+003;5.480636e-002
3.265032e+003;5.495878e-002
3.266960e+003;5.518916e-002
3.268889e+003;5.532674e-002
3.270817e+003;5.499977e-002
3.272746e+003;5.470735e-002
3.274675e+003;5.478177e-002
3.276603e+003;5.487583e-002
3.278531e+003;5.488207e-002
3.280460e+003;5.507318e-002
3.282389e+003;5.543593e-002
3.284317e+003;5.537901e-002
3.286246e+003;5.480959e-002
3.288174e+003;5.444620e-002
3.290103e+003;5.437161e-002
3.292031e+003;5.458087e-002
3.293960e+003;5.529479e-002
3.295888e+003;5.566375e-002
3.297817e+003;5.522905e-002
3.299746e+003;5.470814e-002
3.301674e+003;5.450359e-002
3.303603e+003;5.445356e-002
3.305531e+003;5.425709e-002
3.307460e+003;5.448350e-002
3.309388e+003;5.482286e-002
3.311317e+003;5.469642e-002
3.313245e+003;5.424125e-002
3.315174e+003;5.396746e-002
3.317103e+003;5.410038e-002
3.319031e+003;5.415052e-002
3.320960e+003;5.413483e-002
3.322888e+003;5.411569e-002
3.324817e+003;5.367942e-002
3.326745e+003;5.335137e-002
3.328674e+003;5.357423e-002
3.330602e+003;5.388797e-002
3.332531e+003;5.395591e-002
3.334459e+003;5.396154e-002
3.336388e+003;5.367616e-002
3.338317e+003;5.370743e-002
3.340245e+003;5.389619e-002
3.342174e+003;5.396052e-002
3.344102e+003;5.380444e-002
3.346031e+003;5.353277e-002
3.347959e+003;5.334372e-002
3.349888e+003;5.296894e-002
3.351816e+003;5.236446e-002
3.353745e+003;5.240065e-002
3.355674e+003;5.285295e-002
3.357602e+003;5.307635e-002
3.359531e+003;5.291841e-002
3.361459e+003;5.266162e-002
3.363388e+003;5.256299e-002
3.365316e+003;5.244835e-002
3.367245e+003;5.225806e-002
3.369173e+003;5.195676e-002
3.371102e+003;5.154344e-002
3.373031e+003;5.131218e-002
3.374959e+003;5.139095e-002
3.376887e+003;5.171364e-002
3.378816e+003;5.186087e-002
3.380745e+003;5.153042e-002
3.382673e+003;5.141097e-002
3.384602e+003;5.158859e-002
3.386530e+003;5.186707e-002
3.388459e+003;5.153870e-002
3.390387e+003;5.099567e-002
3.392316e+003;5.100872e-002
3.394244e+003;5.127232e-002
3.396173e+003;5.126240e-002
3.398102e+003;5.119541e-002
3.400030e+003;5.089545e-002
3.401959e+003;5.096005e-002
3.403887e+003;5.120559e-002
3.405816e+003;5.073075e-002
3.407744e+003;5.020877e-002
3.409673e+003;5.015183e-002
3.411601e+003;5.040312e-002
3.413530e+003;5.101747e-002
3.415458e+003;5.119231e-002
3.417387e+003;5.109428e-002
3.419316e+003;5.116368e-002
3.421244e+003;5.136331e-002
3.423173e+003;5.143175e-002
3.425101e+003;5.118743e-002
3.427030e+003;5.113312e-002
3.428958e+003;5.136779e-002
3.430887e+003;5.120324e-002
3.432815e+003;5.071887e-002
3.434744e+003;5.090804e-002
3.436673e+003;5.106812e-002
3.438601e+003;5.088546e-002
3.440530e+003;5.066204e-002
3.442458e+003;5.083726e-002
3.444387e+003;5.088461e-002
3.446315e+003;5.061509e-002
3.448244e+003;5.041358e-002
3.450172e+003;5.016901e-002
3.452101e+003;5.016277e-002
3.454030e+003;5.047978e-002
3.455958e+003;5.054905e-002
3.457886e+003;5.057686e-002
3.459815e+003;5.046665e-002
3.461744e+003;5.028138e-002
3.463672e+003;5.029961e-002
3.465601e+003;5.026684e-002
3.467529e+003;4.987746e-002
3.469458e+003;4.981688e-002
3.471386e+003;5.005920e-002
3.473315e+003;4.986017e-002
3.475243e+003;4.974899e-002
3.477172e+003;4.943332e-002
3.479101e+003;4.897603e-002
3.481029e+003;4.885576e-002
3.482958e+003;4.904239e-002
3.484886e+003;4.944520e-002
3.486815e+003;4.975672e-002
3.488743e+003;4.973666e-002
3.490672e+003;4.972573e-002
3.492600e+003;4.973324e-002
3.494529e+003;4.938583e-002
3.496458e+003;4.912786e-002
3.498386e+003;4.925610e-002
3.500315e+003;4.903155e-002
3.502243e+003;4.898062e-002
3.504172e+003;4.945081e-002
3.506100e+003;4.985166e-002
3.508029e+003;4.977935e-002
3.509957e+003;4.955326e-002
3.511886e+003;4.955048e-002
3.513814e+003;4.937232e-002
3.515743e+003;4.948787e-002
3.517672e+003;4.937585e-002
3.519600e+003;4.887534e-002
3.521529e+003;4.887163e-002
3.523457e+003;4.901664e-002
3.525386e+003;4.935139e-002
3.527314e+003;4.980205e-002
3.529243e+003;4.982353e-002
3.531171e+003;4.937217e-002
3.533100e+003;4.957622e-002
3.535029e+003;4.933264e-002
3.536957e+003;4.910794e-002
3.538885e+003;4.935658e-002
3.540814e+003;4.961473e-002
3.542743e+003;4.954702e-002
3.544671e+003;4.924074e-002
3.546600e+003;4.923996e-002
3.548528e+003;4.922972e-002
3.550457e+003;4.908089e-002
3.552385e+003;4.888153e-002
3.554314e+003;4.864061e-002
3.556242e+003;4.878435e-002
3.558171e+003;4.876989e-002
3.560100e+003;4.880886e-002
3.562028e+003;4.867285e-002
3.563957e+003;4.830993e-002
3.565885e+003;4.803779e-002
3.567814e+003;4.850232e-002
3.569742e+003;4.896846e-002
3.571671e+003;4.842078e-002
3.573599e+003;4.834918e-002
3.575528e+003;4.903934e-002
3.577457e+003;4.899242e-002
3.579385e+003;4.841959e-002
3.581314e+003;4.823872e-002
3.583242e+003;4.810504e-002
3.585171e+003;4.809638e-002
3.587099e+003;4.806307e-002
3.589028e+003;4.838748e-002
3.590956e+003;4.884460e-002
3.592885e+003;4.840041e-002
3.594813e+003;4.822624e-002
3.596742e+003;4.850910e-002
3.598671e+003;4.880901e-002
3.600599e+003;4.868182e-002
3.602528e+003;4.852147e-002
3.604456e+003;4.850228e-002
3.606385e+003;4.825990e-002
3.608313e+003;4.816053e-002
3.610242e+003;4.827978e-002
3.612170e+003;4.824161e-002
3.614099e+003;4.836552e-002
3.616028e+003;4.846283e-002
3.617956e+003;4.838748e-002
3.619885e+003;4.846831e-002
3.621813e+003;4.856041e-002
3.623742e+003;4.838163e-002
3.625670e+003;4.790664e-002
3.627599e+003;4.759379e-002
3.629527e+003;4.748511e-002
3.631456e+003;4.734456e-002
3.633385e+003;4.752906e-002
3.635313e+003;4.767876e-002
3.637241e+003;4.751582e-002
3.639170e+003;4.728958e-002
3.641099e+003;4.720373e-002
3.643027e+003;4.709134e-002
3.644956e+003;4.713592e-002
3.646884e+003;4.678775e-002
3.648813e+003;4.648915e-002
3.650741e+003;4.674948e-002
3.652670e+003;4.678335e-002
3.654598e+003;4.652367e-002
3.656527e+003;4.635207e-002
3.658456e+003;4.616685e-002
3.660384e+003;4.562313e-002
3.662313e+003;4.549301e-002
3.664241e+003;4.539103e-002
3.666170e+003;4.481905e-002
3.668098e+003;4.471117e-002
3.670027e+003;4.484792e-002
3.671955e+003;4.477867e-002
3.673884e+003;4.501875e-002
3.675813e+003;4.592437e-002
3.677741e+003;4.573875e-002
3.679669e+003;4.465204e-002
3.681598e+003;4.406631e-002
3.683527e+003;4.378091e-002
3.685455e+003;4.343197e-002
3.687384e+003;4.295045e-002
3.689312e+003;4.283418e-002
3.691241e+003;4.328970e-002
3.693169e+003;4.367875e-002
3.695098e+003;4.369454e-002
3.697026e+003;4.370824e-002
3.698955e+003;4.365207e-002
3.700884e+003;4.343856e-002
3.702812e+003;4.318842e-002
3.704741e+003;4.326213e-002
3.706669e+003;4.345237e-002
3.708598e+003;4.361394e-002
3.710526e+003;4.344974e-002
3.712455e+003;4.350431e-002
3.714383e+003;4.364167e-002
3.716312e+003;4.344809e-002
3.718240e+003;4.351511e-002
3.720169e+003;4.346607e-002
3.722098e+003;4.321217e-002
3.724026e+003;4.295323e-002
3.725955e+003;4.259486e-002
3.727883e+003;4.281249e-002
3.729812e+003;4.347182e-002
3.731740e+003;4.358778e-002
3.733669e+003;4.355701e-002
3.735597e+003;4.364350e-002
3.737526e+003;4.347475e-002
3.739455e+003;4.311991e-002
3.741383e+003;4.335959e-002
3.743312e+003;4.344963e-002
3.745240e+003;4.335614e-002
3.747169e+003;4.353943e-002
3.749097e+003;4.364379e-002
3.751026e+003;4.384465e-002
3.752954e+003;4.377325e-002
3.754883e+003;4.359533e-002
3.756812e+003;4.383079e-002
3.758740e+003;4.422143e-002
3.760668e+003;4.403503e-002
3.762597e+003;4.331389e-002
3.764526e+003;4.270273e-002
3.766454e+003;4.297748e-002
3.768383e+003;4.358803e-002
3.770311e+003;4.346142e-002
3.772240e+003;4.298940e-002
3.774168e+003;4.330412e-002
3.776097e+003;4.364881e-002
3.778025e+003;4.327399e-002
3.779954e+003;4.257619e-002
3.781883e+003;4.255591e-002
3.783811e+003;4.296969e-002
3.785740e+003;4.290250e-002
3.787668e+003;4.302474e-002
3.789597e+003;4.337038e-002
3.791525e+003;4.332363e-002
3.793454e+003;4.357837e-002
3.795382e+003;4.388970e-002
3.797311e+003;4.341956e-002
3.799240e+003;4.325602e-002
3.801168e+003;4.394088e-002
3.803097e+003;4.415228e-002
3.805025e+003;4.365105e-002
3.806954e+003;4.335684e-002
3.808882e+003;4.336812e-002
3.810811e+003;4.349679e-002
3.812739e+003;4.369234e-002
3.814668e+003;4.353786e-002
3.816596e+003;4.347365e-002
3.818525e+003;4.402598e-002
3.820454e+003;4.415331e-002
3.822382e+003;4.402664e-002
3.824311e+003;4.372781e-002
3.826239e+003;4.323713e-002
3.828168e+003;4.327780e-002
3.830096e+003;4.350265e-002
3.832025e+003;4.364288e-002
3.833953e+003;4.375621e-002
3.835882e+003;4.381093e-002
3.837811e+003;4.375145e-002
3.839739e+003;4.366413e-002
3.841667e+003;4.358390e-002
3.843596e+003;4.355295e-002
3.845525e+003;4.332653e-002
3.847453e+003;4.328812e-002
3.849382e+003;4.347676e-002
3.851310e+003;4.394883e-002
3.853239e+003;4.436019e-002
3.855167e+003;4.412697e-002
3.857096e+003;4.420478e-002
3.859024e+003;4.431337e-002
3.860953e+003;4.392654e-002
3.862882e+003;4.410625e-002
3.864810e+003;4.446340e-002
3.866739e+003;4.444666e-002
3.868667e+003;4.411780e-002
3.870596e+003;4.397725e-002
3.872524e+003;4.424814e-002
3.874453e+003;4.459164e-002
3.876381e+003;4.455672e-002
3.878310e+003;4.417257e-002
3.880239e+003;4.432387e-002
3.882167e+003;4.461796e-002
3.884096e+003;4.445250e-002
3.886024e+003;4.465854e-002
3.887953e+003;4.484190e-002
3.889881e+003;4.476192e-002
3.891810e+003;4.426035e-002
3.893738e+003;4.399858e-002
3.895667e+003;4.389450e-002
3.897595e+003;4.386895e-002
3.899524e+003;4.401454e-002
3.901453e+003;4.417722e-002
3.903381e+003;4.470914e-002
3.905310e+003;4.473419e-002
3.907238e+003;4.453990e-002
3.909167e+003;4.459222e-002
3.911095e+003;4.423500e-002
3.913024e+003;4.447764e-002
3.914952e+003;4.485457e-002
3.916881e+003;4.478624e-002
3.918810e+003;4.473882e-002
3.920738e+003;4.479737e-002
3.922667e+003;4.453913e-002
3.924595e+003;4.459916e-002
3.926524e+003;4.455532e-002
3.928452e+003;4.458209e-002
3.930381e+003;4.500049e-002
3.932309e+003;4.559343e-002
3.934238e+003;4.590290e-002
3.936167e+003;4.557231e-002
3.938095e+003;4.498884e-002
3.940023e+003;4.509465e-002
3.941952e+003;4.543400e-002
3.943881e+003;4.508256e-002
3.945809e+003;4.463001e-002
3.947738e+003;4.479554e-002
3.949666e+003;4.554096e-002
3.951595e+003;4.607540e-002
3.953523e+003;4.584729e-002
3.955452e+003;4.586740e-002
3.957380e+003;4.567827e-002
3.959309e+003;4.563130e-002
3.961238e+003;4.573776e-002
3.963166e+003;4.561644e-002
3.965095e+003;4.555376e-002
3.967023e+003;4.553397e-002
3.968952e+003;4.541123e-002
3.970880e+003;4.563182e-002
3.972809e+003;4.561964e-002
3.974737e+003;4.521366e-002
3.976666e+003;4.496480e-002
3.978594e+003;4.519487e-002
3.980523e+003;4.546439e-002
3.982452e+003;4.532321e-002
3.984380e+003;4.524940e-002
3.986309e+003;4.522197e-002
3.988237e+003;4.525481e-002
3.990166e+003;4.567739e-002
3.992094e+003;4.665222e-002
3.994023e+003;4.660283e-002
3.995951e+003;4.584155e-002
3.997880e+003;4.527334e-002
3.999809e+003;4.524153e-002
4.001737e+003;0.000000e+000
