3.992094e+002;0.000000e+000
4.011380e+002;0.000000e+000
4.030665e+002;0.000000e+000
4.049951e+002;0.000000e+000
4.069236e+002;0.000000e+000
4.088522e+002;0.000000e+000
4.107807e+002;0.000000e+000
4.127093e+002;0.000000e+000
4.146378e+002;0.000000e+000
4.165664e+002;0.000000e+000
4.184949e+002;0.000000e+000
4.204235e+002;0.000000e+000
4.223520e+002;0.000000e+000
4.242806e+002;0.000000e+000
4.262091e+002;0.000000e+000
4.281377e+002;0.000000e+000
4.300662e+002;0.000000e+000
4.319948e+002;0.000000e+000
4.339233e+002;0.000000e+000
4.358519e+002;0.000000e+000
4.377804e+002;0.000000e+000
4.397090e+002;0.000000e+000
4.416375e+002;0.000000e+000
4.435660e+002;0.000000e+000
4.454946e+002;0.000000e+000
4.474232e+002;0.000000e+000
4.493517e+002;0.000000e+000
4.512802e+002;0.000000e+000
4.532088e+002;0.000000e+000
4.551373e+002;0.000000e+000
4.570659e+002;0.000000e+000
4.589944e+002;0.000000e+000
4.609230e+002;0.000000e+000
4.628515e+002;0.000000e+000
4.647801e+002;0.000000e+000
4.667086e+002;0.000000e+000
4.686372e+002;0.000000e+000
4.705657e+002;0.000000e+000
4.724943e+002;0.000000e+000
4.744228e+002;0.000000e+000
4.763513e+002;0.000000e+000
4.782799e+002;0.000000e+000
4.802085e+002;0.000000e+000
4.821370e+002;0.000000e+000
4.840656e+002;0.000000e+000
4.859941e+002;0.000000e+000
4.879226e+002;0.000000e+000
4.898512e+002;0.000000e+000
4.917798e+002;0.000000e+000
4.937083e+002;0.000000e+000
4.956368e+002;0.000000e+000
4.975654e+002;0.000000e+000
4.994939e+002;0.000000e+000
5.014225e+002;0.000000e+000
5.033510e+002;0.000000e+000
5.052796e+002;0.000000e+000
5.072081e+002;0.000000e+000
5.091367e+002;0.000000e+000
5.110652e+002;0.000000e+000
5.129938e+002;0.000000e+000
5.149223e+002;0.000000e+000
5.168509e+002;0.000000e+000
5.187794e+002;0.000000e+000
5.207079e+002;0.000000e+000
5.226365e+002;0.000000e+000
5.245651e+002;0.000000e+000
5.264936e+002;0.000000e+000
5.284222e+002;0.000000e+000
5.303507e+002;0.000000e+000
5.322792e+002;0.000000e+000
5.342078e+002;0.000000e+000
5.361364e+002;0.000000e+000
5.380649e+002;0.000000e+000
5.399935e+002;0.000000e+000
5.419220e+002;0.000000e+000
5.438505e+002;0.000000e+000
5.457791e+002;0.000000e+000
5.477076e+002;0.000000e+000
5.496362e+002;0.000000e+000
5.515648e+002;0.000000e+000
5.534933e+002;0.000000e+000
5.554218e+002;0.000000e+000
5.573504e+002;0.000000e+000
5.592789e+002;0.000000e+000
5.612075e+002;0.000000e+000
5.631360e+002;0.000000e+000
5.650646e+002;0.000000e+000
5.669931e+002;0.000000e+000
5.689217e+002;0.000000e+000
5.708502e+002;0.000000e+000
5.727787e+002;0.000000e+000
5.747073e+002;0.000000e+000
5.766359e+002;0.000000e+000
5.785644e+002;0.000000e+000
5.804930e+002;0.000000e+000
5.824215e+002;0.000000e+000
5.843500e+002;0.000000e+000
5.862786e+002;0.000000e+000
5.882072e+002;0.000000e+000
5.901357e+002;0.000000e+000
5.920643e+002;0.000000e+000
5.939928e+002;0.000000e+000
5.959213e+002;0.000000e+000
5.978499e+002;0.000000e+000
5.997784e+002;3.315647e-002
6.017070e+002;3.138368e-002
6.036355e+002;3.351685e-002
6.055641e+002;3.942104e-002
6.074926e+002;3.907258e-002
6.094211e+002;3.855396e-002
6.113497e+002;3.438877e-002
6.132783e+002;3.222146e-002
6.152068e+002;3.452605e-002
6.171354e+002;3.495077e-002
6.190639e+002;3.832835e-002
6.209924e+002;3.942144e-002
6.229210e+002;3.863649e-002
6.248495e+002;3.872508e-002
6.267781e+002;3.525670e-002
6.287067e+002;3.500827e-002
6.306352e+002;3.784793e-002
6.325637e+002;3.566210e-002
6.344923e+002;3.413038e-002
6.364208e+002;3.579809e-002
6.383494e+002;3.971045e-002
6.402780e+002;3.997429e-002
6.422065e+002;3.843781e-002
6.441350e+002;3.812002e-002
6.460636e+002;3.860219e-002
6.479921e+002;3.608437e-002
6.499207e+002;3.279427e-002
6.518492e+002;3.327454e-002
6.537778e+002;3.439795e-002
6.557063e+002;3.259650e-002
6.576349e+002;3.112066e-002
6.595634e+002;3.221282e-002
6.614919e+002;3.443823e-002
6.634205e+002;3.678469e-002
6.653491e+002;3.654065e-002
6.672776e+002;3.558441e-002
6.692062e+002;3.592426e-002
6.711347e+002;3.552328e-002
6.730632e+002;3.599678e-002
6.749918e+002;3.544065e-002
6.769203e+002;3.619586e-002
6.788489e+002;3.851156e-002
6.807775e+002;3.886363e-002
6.827060e+002;3.765250e-002
6.846345e+002;3.743264e-002
6.865631e+002;3.687006e-002
6.884916e+002;3.558265e-002
6.904202e+002;3.481997e-002
6.923488e+002;3.420533e-002
6.942773e+002;3.388825e-002
6.962058e+002;3.399659e-002
6.981344e+002;3.393024e-002
7.000629e+002;3.384200e-002
7.019915e+002;3.386300e-002
7.039200e+002;3.377299e-002
7.058486e+002;3.395098e-002
7.077771e+002;3.353665e-002
7.097057e+002;3.192504e-002
7.116342e+002;3.155909e-002
7.135627e+002;3.237914e-002
7.154913e+002;3.248707e-002
7.174199e+002;3.277890e-002
7.193484e+002;3.289022e-002
7.212770e+002;3.153579e-002
7.232055e+002;3.127033e-002
7.251340e+002;3.276758e-002
7.270626e+002;3.433247e-002
7.289911e+002;3.481871e-002
7.309197e+002;3.578020e-002
7.328483e+002;3.672212e-002
7.347768e+002;3.722690e-002
7.367053e+002;3.773761e-002
7.386339e+002;3.842793e-002
7.405624e+002;4.019625e-002
7.424910e+002;4.139744e-002
7.444196e+002;4.185010e-002
7.463481e+002;4.257692e-002
7.482766e+002;4.407695e-002
7.502052e+002;4.570801e-002
7.521337e+002;4.560867e-002
7.540623e+002;4.455154e-002
7.559908e+002;4.429305e-002
7.579194e+002;4.419795e-002
7.598479e+002;4.382357e-002
7.617765e+002;4.428329e-002
7.637050e+002;4.409950e-002
7.656335e+002;4.308006e-002
7.675621e+002;4.274478e-002
7.694907e+002;4.326762e-002
7.714192e+002;4.331166e-002
7.733478e+002;4.253595e-002
7.752763e+002;4.157071e-002
7.772048e+002;4.156768e-002
7.791334e+002;4.082431e-002
7.810620e+002;3.963105e-002
7.829905e+002;3.968177e-002
7.849191e+002;3.999962e-002
7.868476e+002;3.928159e-002
7.887761e+002;3.810175e-002
7.907047e+002;3.685401e-002
7.926332e+002;3.545672e-002
7.945618e+002;3.505913e-002
7.964903e+002;3.487296e-002
7.984189e+002;3.448153e-002
8.003474e+002;3.434330e-002
8.022759e+002;3.407944e-002
8.042045e+002;3.341364e-002
8.061331e+002;3.297333e-002
8.080616e+002;3.230672e-002
8.099902e+002;3.154648e-002
8.119187e+002;3.097634e-002
8.138472e+002;3.101033e-002
8.157758e+002;3.143707e-002
8.177043e+002;3.165467e-002
8.196329e+002;3.175401e-002
8.215615e+002;3.198735e-002
8.234900e+002;3.210624e-002
8.254185e+002;3.276997e-002
8.273471e+002;3.429324e-002
8.292756e+002;3.584857e-002
8.312042e+002;3.688968e-002
8.331328e+002;3.736378e-002
8.350613e+002;3.722759e-002
8.369898e+002;3.718694e-002
8.389184e+002;3.734612e-002
8.408469e+002;3.686378e-002
8.427755e+002;3.625111e-002
8.447040e+002;3.488528e-002
8.466326e+002;3.276908e-002
8.485611e+002;3.120510e-002
8.504897e+002;3.041335e-002
8.524182e+002;2.973184e-002
8.543467e+002;2.870172e-002
8.562753e+002;2.785678e-002
8.582039e+002;2.763748e-002
8.601324e+002;2.659521e-002
8.620610e+002;2.576790e-002
8.639895e+002;2.574170e-002
8.659180e+002;2.594936e-002
8.678466e+002;2.616767e-002
8.697751e+002;2.616411e-002
8.717037e+002;2.610982e-002
8.736323e+002;2.642468e-002
8.755608e+002;2.632810e-002
8.774893e+002;2.584849e-002
8.794179e+002;2.562335e-002
8.813464e+002;2.575172e-002
8.832750e+002;2.623802e-002
8.852036e+002;2.597500e-002
8.871321e+002;2.571245e-002
8.890606e+002;2.573657e-002
8.909892e+002;2.595769e-002
8.929177e+002;2.607217e-002
8.948463e+002;2.569765e-002
8.967748e+002;2.561365e-002
8.987034e+002;2.608874e-002
9.006319e+002;2.658003e-002
9.025605e+002;2.686767e-002
9.044890e+002;2.701711e-002
9.064175e+002;2.735995e-002
9.083461e+002;2.735303e-002
9.102747e+002;2.716905e-002
9.122032e+002;2.709053e-002
9.141318e+002;2.713063e-002
9.160603e+002;2.704197e-002
9.179888e+002;2.720527e-002
9.199174e+002;2.754472e-002
9.218459e+002;2.832380e-002
9.237745e+002;2.867566e-002
9.257031e+002;2.815714e-002
9.276316e+002;2.802561e-002
9.295601e+002;2.870448e-002
9.314887e+002;2.911529e-002
9.334172e+002;2.876583e-002
9.353458e+002;2.887520e-002
9.372744e+002;2.930344e-002
9.392029e+002;2.988536e-002
9.411314e+002;3.038943e-002
9.430600e+002;3.071957e-002
9.449885e+002;3.103734e-002
9.469171e+002;3.154256e-002
9.488456e+002;3.225521e-002
9.507742e+002;3.303796e-002
9.527027e+002;3.368052e-002
9.546313e+002;3.388907e-002
9.565598e+002;3.402247e-002
9.584883e+002;3.410912e-002
9.604169e+002;3.411966e-002
9.623455e+002;3.443963e-002
9.642740e+002;3.477143e-002
9.662026e+002;3.456096e-002
9.681311e+002;3.404931e-002
9.700596e+002;3.328888e-002
9.719882e+002;3.288221e-002
9.739167e+002;3.274957e-002
9.758453e+002;3.218006e-002
9.777739e+002;3.184256e-002
9.797024e+002;3.220322e-002
9.816309e+002;3.212893e-002
9.835595e+002;3.191802e-002
9.854880e+002;3.211109e-002
9.874166e+002;3.222745e-002
9.893452e+002;3.242777e-002
9.912737e+002;3.273213e-002
9.932022e+002;3.283465e-002
9.951307e+002;3.304097e-002
9.970593e+002;3.338144e-002
9.989879e+002;3.379967e-002
1.000916e+003;3.429693e-002
1.002845e+003;3.472750e-002
1.004773e+003;3.503233e-002
1.006702e+003;3.504149e-002
1.008631e+003;3.499868e-002
1.010559e+003;3.544766e-002
1.012488e+003;3.640248e-002
1.014416e+003;3.687731e-002
1.016345e+003;3.736092e-002
1.018273e+003;3.813799e-002
1.020202e+003;3.934554e-002
1.022130e+003;4.072695e-002
1.024059e+003;4.241779e-002
1.025988e+003;4.470738e-002
1.027916e+003;4.673180e-002
1.029845e+003;4.952415e-002
1.031773e+003;5.340648e-002
1.033702e+003;5.830011e-002
1.035630e+003;6.325357e-002
1.037559e+003;6.678693e-002
1.039487e+003;6.797533e-002
1.041416e+003;6.725224e-002
1.043344e+003;6.562994e-002
1.045273e+003;6.416000e-002
1.047202e+003;6.396373e-002
1.049130e+003;6.475709e-002
1.051059e+003;6.613761e-002
1.052987e+003;6.798115e-002
1.054916e+003;6.958944e-002
1.056844e+003;7.163281e-002
1.058773e+003;7.440638e-002
1.060701e+003;7.719931e-002
1.062630e+003;7.918875e-002
1.064558e+003;8.082335e-002
1.066487e+003;8.206958e-002
1.068416e+003;8.294608e-002
1.070344e+003;8.311400e-002
1.072273e+003;8.226984e-002
1.074201e+003;8.124011e-002
1.076130e+003;8.007367e-002
1.078058e+003;7.860175e-002
1.079987e+003;7.708997e-002
1.081915e+003;7.558114e-002
1.083844e+003;7.432282e-002
1.085773e+003;7.258339e-002
1.087701e+003;6.989769e-002
1.089630e+003;6.783246e-002
1.091558e+003;6.638945e-002
1.093487e+003;6.457309e-002
1.095415e+003;6.280175e-002
1.097344e+003;6.170313e-002
1.099272e+003;6.075741e-002
1.101201e+003;5.986820e-002
1.103129e+003;5.913815e-002
1.105058e+003;5.814420e-002
1.106987e+003;5.693397e-002
1.108915e+003;5.587672e-002
1.110844e+003;5.478636e-002
1.112772e+003;5.325573e-002
1.114701e+003;5.150169e-002
1.116629e+003;4.945857e-002
1.118558e+003;4.716764e-002
1.120486e+003;4.516425e-002
1.122415e+003;4.314501e-002
1.124344e+003;4.095580e-002
1.126272e+003;3.838446e-002
1.128201e+003;3.564832e-002
1.130129e+003;3.342226e-002
1.132058e+003;3.199173e-002
1.133986e+003;3.128713e-002
1.135915e+003;3.088679e-002
1.137843e+003;3.080429e-002
1.139772e+003;3.159722e-002
1.141700e+003;3.283608e-002
1.143629e+003;3.445147e-002
1.145557e+003;3.709422e-002
1.147486e+003;4.084615e-002
1.149415e+003;4.514980e-002
1.151343e+003;4.994797e-002
1.153272e+003;5.539791e-002
1.155200e+003;6.191977e-002
1.157129e+003;6.874710e-002
1.159057e+003;7.493874e-002
1.160986e+003;8.068927e-002
1.162914e+003;8.611568e-002
1.164843e+003;9.053018e-002
1.166771e+003;9.352419e-002
1.168700e+003;9.527610e-002
1.170629e+003;9.619201e-002
1.172557e+003;9.659643e-002
1.174486e+003;9.565150e-002
1.176414e+003;9.355177e-002
1.178343e+003;9.109160e-002
1.180271e+003;8.908123e-002
1.182200e+003;8.751731e-002
1.184128e+003;8.622765e-002
1.186057e+003;8.611266e-002
1.187986e+003;8.672875e-002
1.189914e+003;8.730035e-002
1.191843e+003;8.824550e-002
1.193771e+003;8.937278e-002
1.195700e+003;9.044558e-002
1.197628e+003;9.143052e-002
1.199557e+003;9.222533e-002
1.201485e+003;9.260872e-002
1.203414e+003;9.283257e-002
1.205343e+003;9.283031e-002
1.207271e+003;9.280828e-002
1.209200e+003;9.269559e-002
1.211128e+003;9.217092e-002
1.213057e+003;9.103578e-002
1.214985e+003;9.011550e-002
1.216914e+003;8.998603e-002
1.218842e+003;8.968396e-002
1.220771e+003;8.938019e-002
1.222699e+003;8.914754e-002
1.224628e+003;8.887943e-002
1.226557e+003;8.856655e-002
1.228485e+003;8.819941e-002
1.230414e+003;8.805383e-002
1.232342e+003;8.748987e-002
1.234271e+003;8.668320e-002
1.236199e+003;8.591401e-002
1.238128e+003;8.521624e-002
1.240056e+003;8.464879e-002
1.241985e+003;8.434409e-002
1.243913e+003;8.426085e-002
1.245842e+003;8.431958e-002
1.247771e+003;8.432011e-002
1.249699e+003;8.380289e-002
1.251628e+003;8.320504e-002
1.253556e+003;8.257200e-002
1.255485e+003;8.149742e-002
1.257413e+003;8.054957e-002
1.259342e+003;7.996152e-002
1.261270e+003;7.950966e-002
1.263199e+003;7.863860e-002
1.265127e+003;7.789334e-002
1.267056e+003;7.720113e-002
1.268985e+003;7.667346e-002
1.270913e+003;7.593219e-002
1.272842e+003;7.460557e-002
1.274770e+003;7.326561e-002
1.276699e+003;7.203556e-002
1.278627e+003;7.041392e-002
1.280556e+003;6.858608e-002
1.282484e+003;6.695583e-002
1.284413e+003;6.503646e-002
1.286342e+003;6.319999e-002
1.288270e+003;6.138926e-002
1.290199e+003;5.982207e-002
1.292127e+003;5.863507e-002
1.294056e+003;5.729166e-002
1.295984e+003;5.595680e-002
1.297913e+003;5.483876e-002
1.299841e+003;5.427725e-002
1.301770e+003;5.407895e-002
1.303698e+003;5.365273e-002
1.305627e+003;5.337651e-002
1.307556e+003;5.315183e-002
1.309484e+003;5.302225e-002
1.311413e+003;5.295955e-002
1.313341e+003;5.307418e-002
1.315270e+003;5.325771e-002
1.317198e+003;5.339985e-002
1.319127e+003;5.358697e-002
1.321055e+003;5.391550e-002
1.322984e+003;5.433049e-002
1.324912e+003;5.455498e-002
1.326841e+003;5.492238e-002
1.328770e+003;5.554546e-002
1.330698e+003;5.628246e-002
1.332627e+003;5.712062e-002
1.334555e+003;5.804542e-002
1.336484e+003;5.890149e-002
1.338412e+003;6.007312e-002
1.340341e+003;6.152065e-002
1.342269e+003;6.282419e-002
1.344198e+003;6.419346e-002
1.346126e+003;6.505339e-002
1.348055e+003;6.553137e-002
1.349984e+003;6.603853e-002
1.351912e+003;6.669100e-002
1.353841e+003;6.706490e-002
1.355769e+003;6.697798e-002
1.357698e+003;6.683060e-002
1.359626e+003;6.654745e-002
1.361555e+003;6.600907e-002
1.363483e+003;6.524476e-002
1.365412e+003;6.434721e-002
1.367341e+003;6.312495e-002
1.369269e+003;6.175336e-002
1.371198e+003;6.015521e-002
1.373126e+003;5.871646e-002
1.375055e+003;5.755688e-002
1.376983e+003;5.636661e-002
1.378912e+003;5.513581e-002
1.380840e+003;5.412357e-002
1.382769e+003;5.305883e-002
1.384698e+003;5.119917e-002
1.386626e+003;4.895144e-002
1.388555e+003;4.693095e-002
1.390483e+003;4.459762e-002
1.392412e+003;4.151489e-002
1.394340e+003;3.789840e-002
1.396269e+003;3.462902e-002
1.398197e+003;3.227388e-002
1.400126e+003;3.029357e-002
1.402054e+003;2.871888e-002
1.403983e+003;2.769479e-002
1.405911e+003;2.699268e-002
1.407840e+003;2.662611e-002
1.409769e+003;2.678840e-002
1.411697e+003;2.737925e-002
1.413626e+003;2.811313e-002
1.415554e+003;2.917375e-002
1.417483e+003;3.058744e-002
1.419411e+003;3.285198e-002
1.421340e+003;3.665665e-002
1.423268e+003;4.175036e-002
1.425197e+003;4.844486e-002
1.427125e+003;5.713234e-002
1.429054e+003;6.669493e-002
1.430983e+003;7.626966e-002
1.432911e+003;8.546463e-002
1.434840e+003;9.360211e-002
1.436768e+003;1.010213e-001
1.438697e+003;1.081513e-001
1.440625e+003;1.151559e-001
1.442554e+003;1.218344e-001
1.444482e+003;1.277626e-001
1.446411e+003;1.325983e-001
1.448340e+003;1.357221e-001
1.450268e+003;1.365869e-001
1.452197e+003;1.347432e-001
1.454125e+003;1.299249e-001
1.456054e+003;1.222943e-001
1.457982e+003;1.128512e-001
1.459911e+003;1.024188e-001
1.461839e+003;9.091007e-002
1.463768e+003;7.894150e-002
1.465697e+003;6.776541e-002
1.467625e+003;5.818682e-002
1.469554e+003;5.015853e-002
1.471482e+003;4.340623e-002
1.473411e+003;3.818195e-002
1.475339e+003;3.409977e-002
1.477268e+003;3.080248e-002
1.479196e+003;2.847877e-002
1.481125e+003;2.674890e-002
1.483053e+003;2.568704e-002
1.484982e+003;2.475048e-002
1.486911e+003;2.375106e-002
1.488839e+003;2.303450e-002
1.490768e+003;2.207973e-002
1.492696e+003;2.093886e-002
1.494625e+003;1.997085e-002
1.496553e+003;1.918212e-002
1.498482e+003;1.868902e-002
1.500410e+003;1.832445e-002
1.502339e+003;1.793539e-002
1.504267e+003;1.719184e-002
1.506196e+003;1.656243e-002
1.508125e+003;1.670482e-002
1.510053e+003;1.686011e-002
1.511982e+003;1.675761e-002
1.513910e+003;1.671811e-002
1.515839e+003;1.646131e-002
1.517767e+003;1.631163e-002
1.519696e+003;1.602148e-002
1.521624e+003;1.570218e-002
1.523553e+003;1.567958e-002
1.525481e+003;1.569215e-002
1.527410e+003;1.562853e-002
1.529339e+003;1.541957e-002
1.531267e+003;1.527602e-002
1.533196e+003;1.529981e-002
1.535124e+003;1.541803e-002
1.537053e+003;1.513516e-002
1.538981e+003;1.451759e-002
1.540910e+003;1.438280e-002
1.542838e+003;1.479964e-002
1.544767e+003;1.480149e-002
1.546695e+003;1.459509e-002
1.548624e+003;1.455781e-002
1.550553e+003;1.471203e-002
1.552481e+003;1.444681e-002
1.554410e+003;1.400169e-002
1.556338e+003;1.346587e-002
1.558267e+003;1.270131e-002
1.560195e+003;1.300086e-002
1.562124e+003;1.373801e-002
1.564052e+003;1.358178e-002
1.565981e+003;1.309647e-002
1.567910e+003;1.255760e-002
1.569838e+003;1.210903e-002
1.571767e+003;1.216003e-002
1.573695e+003;1.219568e-002
1.575624e+003;1.185207e-002
1.577552e+003;1.189893e-002
1.579481e+003;1.211731e-002
1.581409e+003;1.230958e-002
1.583338e+003;1.279613e-002
1.585266e+003;1.315200e-002
1.587195e+003;1.301510e-002
1.589124e+003;1.291316e-002
1.591052e+003;1.294511e-002
1.592981e+003;1.312604e-002
1.594909e+003;1.338057e-002
1.596838e+003;1.358233e-002
1.598766e+003;1.395916e-002
1.600695e+003;1.458344e-002
1.602623e+003;1.506384e-002
1.604552e+003;1.548955e-002
1.606480e+003;1.630293e-002
1.608409e+003;1.724966e-002
1.610338e+003;1.802048e-002
1.612266e+003;1.847804e-002
1.614195e+003;1.871950e-002
1.616123e+003;1.883578e-002
1.618052e+003;1.948680e-002
1.619980e+003;2.038549e-002
1.621909e+003;2.079438e-002
1.623837e+003;2.117854e-002
1.625766e+003;2.174891e-002
1.627694e+003;2.259121e-002
1.629623e+003;2.327498e-002
1.631552e+003;2.381633e-002
1.633480e+003;2.433905e-002
1.635409e+003;2.479174e-002
1.637337e+003;2.537569e-002
1.639266e+003;2.557498e-002
1.641194e+003;2.527299e-002
1.643123e+003;2.499764e-002
1.645051e+003;2.467125e-002
1.646980e+003;2.468223e-002
1.648909e+003;2.488931e-002
1.650837e+003;2.455564e-002
1.652766e+003;2.407991e-002
1.654694e+003;2.463141e-002
1.656623e+003;2.542853e-002
1.658551e+003;2.553120e-002
1.660480e+003;2.523117e-002
1.662408e+003;2.539403e-002
1.664337e+003;2.591084e-002
1.666266e+003;2.617446e-002
1.668194e+003;2.622356e-002
1.670123e+003;2.615950e-002
1.672051e+003;2.587321e-002
1.673980e+003;2.560869e-002
1.675908e+003;2.546057e-002
1.677837e+003;2.546809e-002
1.679765e+003;2.539649e-002
1.681694e+003;2.487313e-002
1.683622e+003;2.425733e-002
1.685551e+003;2.451592e-002
1.687479e+003;2.506163e-002
1.689408e+003;2.537492e-002
1.691337e+003;2.583087e-002
1.693265e+003;2.615859e-002
1.695194e+003;2.670654e-002
1.697122e+003;2.791508e-002
1.699051e+003;2.915455e-002
1.700979e+003;3.140448e-002
1.702908e+003;3.498898e-002
1.704836e+003;3.880518e-002
1.706765e+003;4.404845e-002
1.708693e+003;5.079730e-002
1.710622e+003;5.855309e-002
1.712551e+003;6.732149e-002
1.714479e+003;7.659104e-002
1.716408e+003;8.610748e-002
1.718336e+003;9.607972e-002
1.720265e+003;1.055097e-001
1.722193e+003;1.132042e-001
1.724122e+003;1.194379e-001
1.726050e+003;1.243261e-001
1.727979e+003;1.272107e-001
1.729908e+003;1.279485e-001
1.731836e+003;1.265907e-001
1.733765e+003;1.238258e-001
1.735693e+003;1.201470e-001
1.737622e+003;1.149072e-001
1.739550e+003;1.083647e-001
1.741479e+003;1.008223e-001
1.743407e+003;9.250772e-002
1.745336e+003;8.405191e-002
1.747265e+003;7.509533e-002
1.749193e+003;6.569909e-002
1.751122e+003;5.659061e-002
1.753050e+003;4.835904e-002
1.754979e+003;4.082445e-002
1.756907e+003;3.407367e-002
1.758836e+003;2.833469e-002
1.760764e+003;2.324632e-002
1.762693e+003;1.908555e-002
1.764621e+003;1.598930e-002
1.766550e+003;1.355327e-002
1.768479e+003;1.166490e-002
1.770407e+003;1.011308e-002
1.772336e+003;8.863903e-003
1.774264e+003;8.327047e-003
1.776193e+003;7.874827e-003
1.778121e+003;7.251180e-003
1.780050e+003;6.756662e-003
1.781978e+003;6.101149e-003
1.783907e+003;5.624821e-003
1.785835e+003;5.408408e-003
1.787764e+003;5.150760e-003
1.789693e+003;4.744674e-003
1.791621e+003;4.435899e-003
1.793550e+003;4.294795e-003
1.795478e+003;3.898101e-003
1.797407e+003;3.661194e-003
1.799335e+003;3.714460e-003
1.801264e+003;3.468568e-003
1.803192e+003;3.316926e-003
1.805121e+003;3.366477e-003
1.807049e+003;3.157728e-003
1.808978e+003;2.781345e-003
1.810907e+003;2.779511e-003
1.812835e+003;2.662213e-003
1.814764e+003;2.491157e-003
1.816692e+003;2.415150e-003
1.818621e+003;2.330062e-003
1.820549e+003;2.374436e-003
1.822478e+003;2.259113e-003
1.824406e+003;2.062813e-003
1.826335e+003;1.760928e-003
1.828264e+003;1.623484e-003
1.830192e+003;1.713856e-003
1.832121e+003;1.879514e-003
1.834049e+003;1.775400e-003
1.835978e+003;1.518235e-003
1.837906e+003;1.445157e-003
1.839835e+003;1.533763e-003
1.841763e+003;1.291495e-003
1.843692e+003;9.193154e-004
1.845620e+003;1.071816e-003
1.847549e+003;1.491004e-003
1.849478e+003;1.579985e-003
1.851406e+003;1.183735e-003
1.853335e+003;8.706739e-004
1.855263e+003;8.758864e-004
1.857192e+003;9.454479e-004
1.859120e+003;8.697442e-004
1.861049e+003;9.392384e-004
1.862977e+003;8.321629e-004
1.864906e+003;5.876983e-004
1.866834e+003;5.033325e-004
1.868763e+003;4.965986e-004
1.870692e+003;5.573407e-004
1.872620e+003;4.167611e-004
1.874549e+003;3.163796e-004
1.876477e+003;3.603496e-004
1.878406e+003;2.704248e-004
1.880334e+003;2.774868e-004
1.882263e+003;1.847947e-004
1.884191e+003;1.627849e-004
1.886120e+003;3.562708e-004
1.888048e+003;3.122680e-004
1.889977e+003;7.114461e-005
1.891906e+003;-1.994211e-004
1.893834e+003;-2.443611e-004
1.895763e+003;1.107149e-004
1.897691e+003;3.062997e-004
1.899620e+003;4.174909e-006
1.901548e+003;-1.769329e-004
1.903477e+003;-2.754884e-004
1.905405e+003;-2.598257e-004
1.907334e+003;-2.289621e-004
1.909262e+003;-2.014414e-004
1.911191e+003;-2.068397e-004
1.913120e+003;-2.500238e-004
1.915048e+003;-1.627239e-004
1.916977e+003;-3.815034e-004
1.918905e+003;-6.334251e-004
1.920834e+003;-5.807164e-004
1.922762e+003;-3.892168e-004
1.924691e+003;-2.354860e-004
1.926619e+003;-2.941306e-004
1.928548e+003;-2.453876e-004
1.930477e+003;-4.548247e-004
1.932405e+003;-6.845727e-004
1.934334e+003;-6.959858e-004
1.936262e+003;-8.482308e-004
1.938191e+003;-9.573461e-004
1.940119e+003;-1.055791e-003
1.942048e+003;-1.187060e-003
1.943976e+003;-1.113466e-003
1.945905e+003;-9.943399e-004
1.947833e+003;-9.171420e-004
1.949762e+003;-8.506118e-004
1.951691e+003;-8.852670e-004
1.953619e+003;-9.296070e-004
1.955548e+003;-7.542375e-004
1.957476e+003;-7.269816e-004
1.959405e+003;-9.558584e-004
1.961333e+003;-1.042768e-003
1.963262e+003;-1.052089e-003
1.965190e+003;-1.028157e-003
1.967119e+003;-1.042668e-003
1.969047e+003;-1.108012e-003
1.970976e+003;-9.627681e-004
1.972905e+003;-5.326674e-004
1.974833e+003;-3.928251e-004
1.976762e+003;-3.766700e-004
1.978690e+003;-3.890844e-004
1.980619e+003;-3.878926e-004
1.982547e+003;-1.952481e-004
1.984476e+003;-1.646450e-004
1.986404e+003;-3.443580e-004
1.988333e+003;-4.190428e-004
1.990261e+003;-3.725981e-004
1.992190e+003;-2.043558e-004
1.994119e+003;-1.420887e-004
1.996047e+003;-1.828283e-004
1.997976e+003;-1.579875e-004
1.999904e+003;-1.688845e-004
2.001833e+003;-1.191999e-004
2.003761e+003;3.495782e-005
2.005690e+003;8.148425e-005
2.007618e+003;2.263313e-004
2.009547e+003;4.506579e-004
2.011476e+003;5.151089e-004
2.013404e+003;3.852878e-004
2.015333e+003;1.184041e-004
2.017261e+003;8.628961e-005
2.019190e+003;2.881961e-004
2.021118e+003;3.730838e-004
2.023047e+003;3.160480e-004
2.024975e+003;1.955348e-004
2.026904e+003;2.593181e-004
2.028833e+003;5.631466e-004
2.030761e+003;6.976340e-004
2.032690e+003;4.567609e-004
2.034618e+003;3.560386e-004
2.036547e+003;4.352348e-004
2.038475e+003;3.684743e-004
2.040404e+003;3.414479e-004
2.042332e+003;4.354670e-004
2.044261e+003;3.555412e-004
2.046189e+003;2.767242e-004
2.048118e+003;3.081233e-004
2.050047e+003;2.297459e-004
2.051975e+003;2.349176e-004
2.053904e+003;4.563961e-004
2.055832e+003;4.859505e-004
2.057761e+003;3.362750e-004
2.059689e+003;3.078249e-004
2.061618e+003;2.636281e-004
2.063546e+003;1.985846e-004
2.065475e+003;2.170334e-005
2.067404e+003;-2.942203e-005
2.069332e+003;1.312638e-004
2.071260e+003;1.433947e-004
2.073189e+003;1.705744e-004
2.075118e+003;9.808783e-005
2.077046e+003;-1.075729e-004
2.078975e+003;-4.148057e-004
2.080903e+003;-4.358914e-004
2.082832e+003;-2.208154e-004
2.084760e+003;-2.615145e-004
2.086689e+003;-3.851118e-004
2.088617e+003;-4.229157e-004
2.090546e+003;-3.357168e-004
2.092475e+003;-2.791639e-004
2.094403e+003;-3.902761e-004
2.096332e+003;-5.038090e-004
2.098260e+003;-4.450271e-004
2.100189e+003;-3.932224e-004
2.102117e+003;-3.778618e-004
2.104046e+003;-3.723994e-004
2.105974e+003;-5.040737e-004
2.107903e+003;-8.336140e-004
2.109832e+003;-9.262015e-004
2.111760e+003;-8.034196e-004
2.113688e+003;-7.510952e-004
2.115617e+003;-5.798229e-004
2.117546e+003;-5.410399e-004
2.119474e+003;-7.611174e-004
2.121403e+003;-9.258708e-004
2.123331e+003;-1.049478e-003
2.125260e+003;-1.102493e-003
2.127188e+003;-1.126685e-003
2.129117e+003;-1.228197e-003
2.131045e+003;-1.415298e-003
2.132974e+003;-1.438020e-003
2.134903e+003;-1.326250e-003
2.136831e+003;-1.247459e-003
2.138760e+003;-1.223935e-003
2.140688e+003;-1.281422e-003
2.142617e+003;-1.296751e-003
2.144545e+003;-1.649358e-003
2.146474e+003;-1.709495e-003
2.148402e+003;-1.510469e-003
2.150331e+003;-1.374278e-003
2.152260e+003;-1.307652e-003
2.154188e+003;-1.291663e-003
2.156117e+003;-1.243759e-003
2.158045e+003;-1.193371e-003
2.159974e+003;-1.213593e-003
2.161902e+003;-1.201863e-003
2.163831e+003;-1.226248e-003
2.165759e+003;-1.088215e-003
2.167688e+003;-7.975326e-004
2.169616e+003;-5.834297e-004
2.171545e+003;-6.270726e-004
2.173474e+003;-7.816571e-004
2.175402e+003;-7.739838e-004
2.177331e+003;-6.744165e-004
2.179259e+003;-3.554159e-004
2.181188e+003;1.068373e-004
2.183116e+003;3.511971e-004
2.185045e+003;8.043111e-004
2.186973e+003;1.696292e-003
2.188902e+003;2.381533e-003
2.190831e+003;2.490724e-003
2.192759e+003;2.515918e-003
2.194688e+003;2.666313e-003
2.196616e+003;2.707088e-003
2.198545e+003;2.596509e-003
2.200473e+003;2.475561e-003
2.202402e+003;2.413118e-003
2.204330e+003;2.342887e-003
2.206259e+003;2.263676e-003
2.208188e+003;2.415350e-003
2.210116e+003;2.807156e-003
2.212044e+003;2.872792e-003
2.213973e+003;2.768673e-003
2.215902e+003;3.184496e-003
2.217830e+003;3.745473e-003
2.219759e+003;4.734558e-003
2.221687e+003;5.804940e-003
2.223616e+003;6.945635e-003
2.225544e+003;9.363603e-003
2.227473e+003;1.359566e-002
2.229401e+003;2.034664e-002
2.231330e+003;3.080995e-002
2.233259e+003;4.512550e-002
2.235187e+003;6.153611e-002
2.237116e+003;7.741796e-002
2.239044e+003;9.018528e-002
2.240973e+003;9.820483e-002
2.242901e+003;1.014731e-001
2.244830e+003;1.006477e-001
2.246758e+003;9.670910e-002
2.248687e+003;9.029205e-002
2.250615e+003;8.215917e-002
2.252544e+003;7.329542e-002
2.254473e+003;6.397464e-002
2.256401e+003;5.468556e-002
2.258330e+003;4.596662e-002
2.260258e+003;3.804377e-002
2.262187e+003;3.108357e-002
2.264115e+003;2.524156e-002
2.266044e+003;2.052484e-002
2.267972e+003;1.663145e-002
2.269901e+003;1.376752e-002
2.271830e+003;1.156560e-002
2.273758e+003;9.835408e-003
2.275687e+003;8.804997e-003
2.277615e+003;8.003903e-003
2.279544e+003;7.280561e-003
2.281472e+003;6.590412e-003
2.283401e+003;6.150379e-003
2.285329e+003;5.746549e-003
2.287258e+003;5.501451e-003
2.289187e+003;5.452024e-003
2.291115e+003;5.403980e-003
2.293043e+003;5.085784e-003
2.294972e+003;4.617501e-003
2.296901e+003;4.477710e-003
2.298829e+003;4.553644e-003
2.300758e+003;4.243833e-003
2.302686e+003;3.869416e-003
2.304615e+003;3.901344e-003
2.306543e+003;3.818571e-003
2.308472e+003;3.717100e-003
2.310400e+003;3.565973e-003
2.312329e+003;3.353221e-003
2.314258e+003;3.165104e-003
2.316186e+003;3.015637e-003
2.318115e+003;2.997754e-003
2.320043e+003;2.925361e-003
2.321972e+003;2.793650e-003
2.323900e+003;2.820463e-003
2.325829e+003;2.560911e-003
2.327757e+003;2.297617e-003
2.329686e+003;2.276499e-003
2.331615e+003;2.215883e-003
2.333543e+003;2.178984e-003
2.335472e+003;1.946940e-003
2.337400e+003;1.731221e-003
2.339329e+003;1.954995e-003
2.341257e+003;2.335425e-003
2.343186e+003;2.484025e-003
2.345114e+003;2.441673e-003
2.347043e+003;2.538214e-003
2.348971e+003;2.572410e-003
2.350900e+003;2.336658e-003
2.352829e+003;1.973767e-003
2.354757e+003;1.859182e-003
2.356686e+003;1.713523e-003
2.358614e+003;1.482127e-003
2.360543e+003;1.392202e-003
2.362471e+003;1.170811e-003
2.364400e+003;1.252349e-003
2.366328e+003;1.734414e-003
2.368257e+003;1.890263e-003
2.370186e+003;2.086584e-003
2.372114e+003;2.275167e-003
2.374042e+003;2.416716e-003
2.375971e+003;2.610476e-003
2.377900e+003;2.859984e-003
2.379828e+003;2.950013e-003
2.381757e+003;2.716290e-003
2.383685e+003;2.575210e-003
2.385614e+003;2.714589e-003
2.387542e+003;2.824331e-003
2.389471e+003;2.793517e-003
2.391399e+003;2.856582e-003
2.393328e+003;2.809557e-003
2.395257e+003;2.860251e-003
2.397185e+003;3.065687e-003
2.399114e+003;3.110570e-003
2.401042e+003;2.808490e-003
2.402971e+003;2.613442e-003
2.404899e+003;2.803421e-003
2.406828e+003;2.883165e-003
2.408756e+003;2.760370e-003
2.410685e+003;2.797585e-003
2.412614e+003;3.152254e-003
2.414542e+003;3.073362e-003
2.416471e+003;2.796585e-003
2.418399e+003;2.733761e-003
2.420328e+003;2.520150e-003
2.422256e+003;2.551612e-003
2.424185e+003;2.880997e-003
2.426113e+003;2.876894e-003
2.428042e+003;2.671914e-003
2.429970e+003;2.619709e-003
2.431899e+003;2.627109e-003
2.433828e+003;2.712822e-003
2.435756e+003;2.913619e-003
2.437685e+003;2.910083e-003
2.439613e+003;2.738129e-003
2.441542e+003;2.633476e-003
2.443470e+003;2.740630e-003
2.445399e+003;2.844208e-003
2.447327e+003;2.661146e-003
2.449256e+003;2.548212e-003
2.451185e+003;2.647711e-003
2.453113e+003;2.830134e-003
2.455042e+003;2.758870e-003
2.456970e+003;2.493623e-003
2.458899e+003;2.683149e-003
2.460827e+003;3.033554e-003
2.462756e+003;3.222916e-003
2.464684e+003;3.381637e-003
2.466613e+003;3.462523e-003
2.468542e+003;3.338062e-003
2.470470e+003;3.313154e-003
2.472398e+003;3.450065e-003
2.474327e+003;3.737653e-003
2.476256e+003;3.923978e-003
2.478184e+003;3.895827e-003
2.480113e+003;3.791831e-003
2.482041e+003;3.811585e-003
2.483970e+003;3.832477e-003
2.485898e+003;3.853370e-003
2.487827e+003;4.176150e-003
2.489755e+003;4.633509e-003
2.491684e+003;4.648378e-003
2.493613e+003;4.625840e-003
2.495541e+003;4.764673e-003
2.497470e+003;4.800418e-003
2.499398e+003;4.783534e-003
2.501327e+003;4.863240e-003
2.503255e+003;4.912465e-003
2.505184e+003;4.784137e-003
2.507112e+003;4.676846e-003
2.509041e+003;4.831376e-003
2.510969e+003;5.112806e-003
2.512898e+003;5.328166e-003
2.514827e+003;5.190762e-003
2.516755e+003;5.008015e-003
2.518684e+003;5.102782e-003
2.520612e+003;5.219165e-003
2.522541e+003;5.160148e-003
2.524469e+003;5.121757e-003
2.526398e+003;5.126585e-003
2.528326e+003;5.210747e-003
2.530255e+003;5.280101e-003
2.532184e+003;5.325717e-003
2.534112e+003;5.336686e-003
2.536041e+003;5.218762e-003
2.537969e+003;5.221646e-003
2.539898e+003;5.454675e-003
2.541826e+003;5.470680e-003
2.543755e+003;5.398948e-003
2.545683e+003;5.378550e-003
2.547612e+003;5.286306e-003
2.549541e+003;5.303378e-003
2.551469e+003;5.317768e-003
2.553397e+003;5.490612e-003
2.555326e+003;5.672555e-003
2.557255e+003;5.603876e-003
2.559183e+003;5.306799e-003
2.561112e+003;5.165848e-003
2.563040e+003;5.066106e-003
2.564969e+003;5.187744e-003
2.566897e+003;5.283489e-003
2.568826e+003;5.246999e-003
2.570754e+003;4.794991e-003
2.572683e+003;4.532717e-003
2.574612e+003;4.545507e-003
2.576540e+003;4.552907e-003
2.578469e+003;4.759581e-003
2.580397e+003;4.846151e-003
2.582326e+003;4.596337e-003
2.584254e+003;4.583177e-003
2.586183e+003;4.624935e-003
2.588111e+003;4.429405e-003
2.590040e+003;4.320730e-003
2.591969e+003;4.503388e-003
2.593897e+003;4.756600e-003
2.595826e+003;4.735429e-003
2.597754e+003;4.336692e-003
2.599683e+003;4.208735e-003
2.601611e+003;4.479953e-003
2.603540e+003;4.525418e-003
2.605468e+003;4.480857e-003
2.607397e+003;4.642986e-003
2.609325e+003;4.792445e-003
2.611254e+003;4.600021e-003
2.613183e+003;4.321499e-003
2.615111e+003;4.422643e-003
2.617040e+003;4.550797e-003
2.618968e+003;4.794891e-003
2.620897e+003;4.906768e-003
2.622825e+003;4.839048e-003
2.624754e+003;4.801256e-003
2.626682e+003;4.871047e-003
2.628611e+003;5.140131e-003
2.630540e+003;5.330916e-003
2.632468e+003;5.191935e-003
2.634396e+003;4.825714e-003
2.636325e+003;4.895575e-003
2.638254e+003;5.155252e-003
2.640182e+003;5.214604e-003
2.642111e+003;5.238884e-003
2.644039e+003;5.278793e-003
2.645968e+003;5.120651e-003
2.647896e+003;4.910354e-003
2.649825e+003;4.826484e-003
2.651753e+003;4.946714e-003
2.653682e+003;5.050887e-003
2.655611e+003;4.913637e-003
2.657539e+003;5.004797e-003
2.659468e+003;5.288118e-003
2.661396e+003;5.233820e-003
2.663325e+003;5.063458e-003
2.665253e+003;5.091551e-003
2.667182e+003;5.058195e-003
2.669110e+003;5.084041e-003
2.671039e+003;5.400256e-003
2.672968e+003;5.567797e-003
2.674896e+003;5.292813e-003
2.676825e+003;5.125144e-003
2.678753e+003;5.253975e-003
2.680682e+003;5.257932e-003
2.682610e+003;5.087729e-003
2.684539e+003;5.061212e-003
2.686467e+003;5.231002e-003
2.688396e+003;5.286139e-003
2.690324e+003;5.228186e-003
2.692253e+003;5.357115e-003
2.694182e+003;5.435315e-003
2.696110e+003;5.092925e-003
2.698039e+003;4.789966e-003
2.699967e+003;4.844677e-003
2.701896e+003;5.109420e-003
2.703824e+003;5.298682e-003
2.705753e+003;5.104190e-003
2.707681e+003;5.105631e-003
2.709610e+003;5.289727e-003
2.711539e+003;5.177852e-003
2.713467e+003;4.896312e-003
2.715396e+003;4.670952e-003
2.717324e+003;4.627916e-003
2.719253e+003;4.966018e-003
2.721181e+003;5.097351e-003
2.723110e+003;4.972721e-003
2.725038e+003;4.673899e-003
2.726967e+003;4.439916e-003
2.728896e+003;4.420200e-003
2.730824e+003;4.324745e-003
2.732752e+003;4.362362e-003
2.734681e+003;4.601561e-003
2.736610e+003;4.840254e-003
2.738538e+003;4.587999e-003
2.740467e+003;4.302725e-003
2.742395e+003;4.289507e-003
2.744324e+003;4.414409e-003
2.746252e+003;4.500777e-003
2.748181e+003;4.440819e-003
2.750109e+003;4.120686e-003
2.752038e+003;4.100717e-003
2.753967e+003;4.412936e-003
2.755895e+003;4.451967e-003
2.757824e+003;4.295899e-003
2.759752e+003;4.248584e-003
2.761681e+003;4.327590e-003
2.763609e+003;4.244368e-003
2.765538e+003;4.184748e-003
2.767466e+003;4.598346e-003
2.769395e+003;4.944335e-003
2.771323e+003;5.001043e-003
2.773252e+003;5.156996e-003
2.775181e+003;5.300058e-003
2.777109e+003;5.553432e-003
2.779038e+003;5.701929e-003
2.780966e+003;5.689306e-003
2.782895e+003;5.819581e-003
2.784823e+003;6.030555e-003
2.786752e+003;6.270439e-003
2.788680e+003;6.495320e-003
2.790609e+003;6.853293e-003
2.792538e+003;6.913887e-003
2.794466e+003;6.681016e-003
2.796395e+003;6.905302e-003
2.798323e+003;7.519990e-003
2.800252e+003;7.613755e-003
2.802180e+003;7.463929e-003
2.804109e+003;7.575788e-003
2.806037e+003;8.059290e-003
2.807966e+003;8.471192e-003
2.809895e+003;8.573848e-003
2.811823e+003;8.624847e-003
2.813751e+003;8.737512e-003
2.815680e+003;8.910472e-003
2.817609e+003;8.729601e-003
2.819537e+003;8.630254e-003
2.821466e+003;9.001933e-003
2.823394e+003;9.277753e-003
2.825323e+003;9.317493e-003
2.827251e+003;9.455295e-003
2.829180e+003;9.683019e-003
2.831108e+003;9.872726e-003
2.833037e+003;1.021033e-002
2.834966e+003;1.102648e-002
2.836894e+003;1.197018e-002
2.838823e+003;1.306860e-002
2.840751e+003;1.416947e-002
2.842680e+003;1.523861e-002
2.844608e+003;1.667903e-002
2.846537e+003;1.803803e-002
2.848465e+003;1.976520e-002
2.850394e+003;2.238847e-002
2.852323e+003;2.502810e-002
2.854251e+003;2.664101e-002
2.856180e+003;2.746318e-002
2.858108e+003;2.815212e-002
2.860037e+003;2.893519e-002
2.861965e+003;2.977105e-002
2.863894e+003;3.040805e-002
2.865822e+003;3.096620e-002
2.867751e+003;3.139715e-002
2.869679e+003;3.175632e-002
2.871608e+003;3.219052e-002
2.873536e+003;3.232524e-002
2.875465e+003;3.205772e-002
2.877394e+003;3.166223e-002
2.879322e+003;3.139080e-002
2.881251e+003;3.137221e-002
2.883179e+003;3.159302e-002
2.885108e+003;3.194141e-002
2.887036e+003;3.213717e-002
2.888965e+003;3.239824e-002
2.890893e+003;3.272799e-002
2.892822e+003;3.343597e-002
2.894750e+003;3.462439e-002
2.896679e+003;3.604383e-002
2.898608e+003;3.769403e-002
2.900536e+003;3.931627e-002
2.902465e+003;4.124836e-002
2.904393e+003;4.396889e-002
2.906322e+003;4.667642e-002
2.908250e+003;4.926995e-002
2.910179e+003;5.209134e-002
2.912107e+003;5.494520e-002
2.914036e+003;5.763992e-002
2.915965e+003;6.058732e-002
2.917893e+003;6.388788e-002
2.919822e+003;6.658801e-002
2.921750e+003;6.889976e-002
2.923679e+003;7.077922e-002
2.925607e+003;7.168006e-002
2.927536e+003;7.269607e-002
2.929464e+003;7.372374e-002
2.931393e+003;7.420751e-002
2.933322e+003;7.451379e-002
2.935250e+003;7.469457e-002
2.937178e+003;7.455561e-002
2.939107e+003;7.360463e-002
2.941036e+003;7.244126e-002
2.942964e+003;7.165970e-002
2.944893e+003;7.030451e-002
2.946821e+003;6.858411e-002
2.948750e+003;6.728098e-002
2.950678e+003;6.571794e-002
2.952607e+003;6.348322e-002
2.954535e+003;6.155501e-002
2.956464e+003;6.000856e-002
2.958393e+003;5.810784e-002
2.960321e+003;5.574345e-002
2.962250e+003;5.382312e-002
2.964178e+003;5.214480e-002
2.966107e+003;5.024102e-002
2.968035e+003;4.847164e-002
2.969964e+003;4.710187e-002
2.971892e+003;4.564168e-002
2.973821e+003;4.412477e-002
2.975750e+003;4.260316e-002
2.977678e+003;4.124824e-002
2.979607e+003;4.015173e-002
2.981535e+003;3.912598e-002
2.983464e+003;3.829875e-002
2.985392e+003;3.774657e-002
2.987321e+003;3.720343e-002
2.989249e+003;3.653117e-002
2.991178e+003;3.609028e-002
2.993106e+003;3.556582e-002
2.995035e+003;3.480880e-002
2.996964e+003;3.407411e-002
2.998892e+003;3.324692e-002
3.000821e+003;3.237554e-002
3.002749e+003;3.172267e-002
3.004678e+003;3.114294e-002
3.006606e+003;3.058201e-002
3.008535e+003;2.962704e-002
3.010463e+003;2.857593e-002
3.012392e+003;2.779672e-002
3.014321e+003;2.711727e-002
3.016249e+003;2.623306e-002
3.018177e+003;2.495858e-002
3.020106e+003;2.397968e-002
3.022035e+003;2.336997e-002
3.023963e+003;2.256123e-002
3.025892e+003;2.191131e-002
3.027820e+003;2.142934e-002
3.029749e+003;2.115050e-002
3.031677e+003;2.070002e-002
3.033606e+003;2.010510e-002
3.035534e+003;1.953120e-002
3.037463e+003;1.885018e-002
3.039392e+003;1.812075e-002
3.041320e+003;1.782597e-002
3.043249e+003;1.768842e-002
3.045177e+003;1.726379e-002
3.047106e+003;1.679236e-002
3.049034e+003;1.631445e-002
3.050963e+003;1.572733e-002
3.052891e+003;1.564536e-002
3.054820e+003;1.543245e-002
3.056749e+003;1.498066e-002
3.058677e+003;1.477952e-002
3.060606e+003;1.464749e-002
3.062534e+003;1.410727e-002
3.064463e+003;1.376482e-002
3.066391e+003;1.386508e-002
3.068320e+003;1.373866e-002
3.070248e+003;1.339834e-002
3.072177e+003;1.310473e-002
3.074105e+003;1.263840e-002
3.076034e+003;1.209179e-002
3.077963e+003;1.193983e-002
3.079891e+003;1.169366e-002
3.081820e+003;1.120953e-002
3.083748e+003;1.122303e-002
3.085677e+003;1.155746e-002
3.087605e+003;1.117686e-002
3.089534e+003;1.091770e-002
3.091462e+003;1.083583e-002
3.093391e+003;1.050969e-002
3.095320e+003;1.032530e-002
3.097248e+003;1.021724e-002
3.099177e+003;9.992632e-003
3.101105e+003;9.536067e-003
3.103034e+003;9.433691e-003
3.104962e+003;9.382225e-003
3.106891e+003;8.889368e-003
3.108819e+003;8.968038e-003
3.110748e+003;9.002880e-003
3.112677e+003;8.752320e-003
3.114605e+003;8.629511e-003
3.116533e+003;8.609739e-003
3.118462e+003;8.348799e-003
3.120391e+003;8.338363e-003
3.122319e+003;8.330425e-003
3.124248e+003;8.017741e-003
3.126176e+003;7.715298e-003
3.128105e+003;7.835488e-003
3.130033e+003;7.816021e-003
3.131962e+003;7.876244e-003
3.133890e+003;7.869968e-003
3.135819e+003;7.714691e-003
3.137748e+003;7.729026e-003
3.139676e+003;7.545377e-003
3.141605e+003;7.394765e-003
3.143533e+003;7.243701e-003
3.145462e+003;7.058708e-003
3.147390e+003;7.251551e-003
3.149319e+003;7.458671e-003
3.151247e+003;7.314762e-003
3.153176e+003;7.147253e-003
3.155104e+003;7.412965e-003
3.157033e+003;7.748454e-003
3.158962e+003;7.699649e-003
3.160890e+003;7.303136e-003
3.162819e+003;7.111988e-003
3.164747e+003;7.135026e-003
3.166676e+003;7.094137e-003
3.168604e+003;6.943985e-003
3.170533e+003;7.024291e-003
3.172461e+003;7.211527e-003
3.174390e+003;7.192594e-003
3.176319e+003;6.755956e-003
3.178247e+003;6.577932e-003
3.180176e+003;6.608949e-003
3.182104e+003;6.637310e-003
3.184033e+003;6.911429e-003
3.185961e+003;6.958732e-003
3.187890e+003;7.059414e-003
3.189818e+003;7.030420e-003
3.191747e+003;6.737077e-003
3.193676e+003;6.536052e-003
3.195604e+003;6.575644e-003
3.197532e+003;6.823436e-003
3.199461e+003;6.643568e-003
3.201390e+003;6.566696e-003
3.203318e+003;7.016748e-003
3.205247e+003;7.237232e-003
3.207175e+003;7.198826e-003
3.209104e+003;7.153855e-003
3.211032e+003;6.952133e-003
3.212961e+003;7.045102e-003
3.214889e+003;7.268869e-003
3.216818e+003;7.287974e-003
3.218747e+003;7.161434e-003
3.220675e+003;6.979675e-003
3.222604e+003;7.331307e-003
3.224532e+003;7.654558e-003
3.226461e+003;7.904823e-003
3.228389e+003;7.700189e-003
3.230318e+003;7.335283e-003
3.232246e+003;7.435918e-003
3.234175e+003;7.459278e-003
3.236104e+003;7.484121e-003
3.238032e+003;7.706900e-003
3.239961e+003;7.464806e-003
3.241889e+003;7.119633e-003
3.243818e+003;7.076085e-003
3.245746e+003;7.052545e-003
3.247675e+003;6.903922e-003
3.249603e+003;6.985567e-003
3.251532e+003;7.241174e-003
3.253460e+003;7.334845e-003
3.255389e+003;7.070899e-003
3.257318e+003;7.026446e-003
3.259246e+003;7.233593e-003
3.261175e+003;7.012101e-003
3.263103e+003;7.001393e-003
3.265032e+003;7.276551e-003
3.266960e+003;7.288479e-003
3.268889e+003;7.280998e-003
3.270817e+003;7.365546e-003
3.272746e+003;7.354964e-003
3.274675e+003;7.346236e-003
3.276603e+003;7.215805e-003
3.278531e+003;6.891937e-003
3.280460e+003;6.975702e-003
3.282389e+003;7.105824e-003
3.284317e+003;6.968462e-003
3.286246e+003;6.558858e-003
3.288174e+003;6.174274e-003
3.290103e+003;6.384412e-003
3.292031e+003;6.610227e-003
3.293960e+003;6.504805e-003
3.295888e+003;6.733476e-003
3.297817e+003;6.728327e-003
3.299746e+003;6.533159e-003
3.301674e+003;6.659751e-003
3.303603e+003;6.635997e-003
3.305531e+003;6.454357e-003
3.307460e+003;6.260422e-003
3.309388e+003;6.034990e-003
3.311317e+003;5.967396e-003
3.313245e+003;5.860485e-003
3.315174e+003;5.734932e-003
3.317103e+003;6.194608e-003
3.319031e+003;6.216825e-003
3.320960e+003;5.578838e-003
3.322888e+003;5.421761e-003
3.324817e+003;5.420688e-003
3.326745e+003;4.983380e-003
3.328674e+003;4.934046e-003
3.330602e+003;5.251795e-003
3.332531e+003;5.262728e-003
3.334459e+003;5.289157e-003
3.336388e+003;4.986061e-003
3.338317e+003;4.782395e-003
3.340245e+003;5.263097e-003
3.342174e+003;5.237509e-003
3.344102e+003;5.145227e-003
3.346031e+003;5.245691e-003
3.347959e+003;5.225838e-003
3.349888e+003;4.897921e-003
3.351816e+003;4.200137e-003
3.353745e+003;4.455884e-003
3.355674e+003;5.278324e-003
3.357602e+003;5.156258e-003
3.359531e+003;4.521267e-003
3.361459e+003;4.239115e-003
3.363388e+003;4.298041e-003
3.365316e+003;4.398677e-003
3.367245e+003;4.162601e-003
3.369173e+003;3.873896e-003
3.371102e+003;3.379200e-003
3.373031e+003;3.065587e-003
3.374959e+003;3.052006e-003
3.376887e+003;3.203822e-003
3.378816e+003;3.335357e-003
3.380745e+003;3.140206e-003
3.382673e+003;3.297929e-003
3.384602e+003;3.409388e-003
3.386530e+003;3.297261e-003
3.388459e+003;2.844575e-003
3.390387e+003;2.047133e-003
3.392316e+003;1.858383e-003
3.394244e+003;2.440873e-003
3.396173e+003;2.870757e-003
3.398102e+003;3.111071e-003
3.400030e+003;2.845643e-003
3.401959e+003;2.576043e-003
3.403887e+003;2.440506e-003
3.405816e+003;2.056255e-003
3.407744e+003;1.852826e-003
3.409673e+003;1.841845e-003
3.411601e+003;1.980624e-003
3.413530e+003;2.440906e-003
3.415458e+003;2.485059e-003
3.417387e+003;2.285792e-003
3.419316e+003;2.473928e-003
3.421244e+003;2.839506e-003
3.423173e+003;2.935268e-003
3.425101e+003;2.954450e-003
3.427030e+003;3.234833e-003
3.428958e+003;3.338429e-003
3.430887e+003;2.917755e-003
3.432815e+003;2.628210e-003
3.434744e+003;2.913652e-003
3.436673e+003;2.995018e-003
3.438601e+003;2.900910e-003
3.440530e+003;3.037058e-003
3.442458e+003;3.243479e-003
3.444387e+003;3.042096e-003
3.446315e+003;2.500455e-003
3.448244e+003;2.239362e-003
3.450172e+003;2.273535e-003
3.452101e+003;2.267440e-003
3.454030e+003;2.735695e-003
3.455958e+003;3.051906e-003
3.457886e+003;2.886434e-003
3.459815e+003;2.587843e-003
3.461744e+003;2.609976e-003
3.463672e+003;2.525283e-003
3.465601e+003;2.349250e-003
3.467529e+003;2.213185e-003
3.469458e+003;2.442772e-003
3.471386e+003;2.627476e-003
3.473315e+003;2.633476e-003
3.475243e+003;2.710889e-003
3.477172e+003;2.295652e-003
3.479101e+003;1.699352e-003
3.481029e+003;1.298075e-003
3.482958e+003;1.369898e-003
3.484886e+003;2.200363e-003
3.486815e+003;2.638310e-003
3.488743e+003;2.399124e-003
3.490672e+003;2.333094e-003
3.492600e+003;2.455734e-003
3.494529e+003;2.266873e-003
3.496458e+003;1.942147e-003
3.498386e+003;2.294020e-003
3.500315e+003;2.276832e-003
3.502243e+003;2.368473e-003
3.504172e+003;2.697019e-003
3.506100e+003;2.627643e-003
3.508029e+003;2.955818e-003
3.509957e+003;3.354823e-003
3.511886e+003;3.374491e-003
3.513814e+003;3.049437e-003
3.515743e+003;3.330515e-003
3.517672e+003;3.476450e-003
3.519600e+003;3.348312e-003
3.521529e+003;3.423514e-003
3.523457e+003;3.674827e-003
3.525386e+003;3.982292e-003
3.527314e+003;3.971793e-003
3.529243e+003;3.818471e-003
3.531171e+003;3.875066e-003
3.533100e+003;4.416886e-003
3.535029e+003;4.281410e-003
3.536957e+003;3.941666e-003
3.538885e+003;3.901444e-003
3.540814e+003;4.075799e-003
3.542743e+003;3.829903e-003
3.544671e+003;3.597043e-003
3.546600e+003;4.098376e-003
3.548528e+003;4.372235e-003
3.550457e+003;3.930732e-003
3.552385e+003;3.535439e-003
3.554314e+003;3.532233e-003
3.556242e+003;3.728964e-003
3.558171e+003;3.602321e-003
3.560100e+003;3.512357e-003
3.562028e+003;3.480325e-003
3.563957e+003;2.915720e-003
3.565885e+003;2.414817e-003
3.567814e+003;3.163936e-003
3.569742e+003;3.611442e-003
3.571671e+003;2.944942e-003
3.573599e+003;2.877861e-003
3.575528e+003;3.115710e-003
3.577457e+003;2.873592e-003
3.579385e+003;2.628309e-003
3.581314e+003;2.772075e-003
3.583242e+003;2.804288e-003
3.585171e+003;2.327364e-003
3.587099e+003;2.080725e-003
3.589028e+003;2.618442e-003
3.590956e+003;3.191940e-003
3.592885e+003;3.063084e-003
3.594813e+003;2.871257e-003
3.596742e+003;3.264877e-003
3.598671e+003;3.497827e-003
3.600599e+003;3.791129e-003
3.602528e+003;4.045063e-003
3.604456e+003;3.933240e-003
3.606385e+003;4.131290e-003
3.608313e+003;4.225498e-003
3.610242e+003;4.018007e-003
3.612170e+003;3.850395e-003
3.614099e+003;3.918395e-003
3.616028e+003;4.100684e-003
3.617956e+003;4.450326e-003
3.619885e+003;4.474965e-003
3.621813e+003;4.402125e-003
3.623742e+003;4.301989e-003
3.625670e+003;3.679539e-003
3.627599e+003;2.818095e-003
3.629527e+003;2.717490e-003
3.631456e+003;2.905213e-003
3.633385e+003;2.868923e-003
3.635313e+003;2.763338e-003
3.637241e+003;2.617909e-003
3.639170e+003;2.567344e-003
3.641099e+003;2.417449e-003
3.643027e+003;2.285826e-003
3.644956e+003;2.123309e-003
3.646884e+003;1.464905e-003
3.648813e+003;7.658060e-004
3.650741e+003;7.826682e-004
3.652670e+003;8.597842e-004
3.654598e+003;4.809749e-004
3.656527e+003;-1.943539e-004
3.658456e+003;-5.513317e-004
3.660384e+003;-7.359789e-004
3.662313e+003;-7.780520e-004
3.664241e+003;-9.469979e-004
3.666170e+003;-1.918722e-003
3.668098e+003;-2.760485e-003
3.670027e+003;-2.674413e-003
3.671955e+003;-2.310805e-003
3.673884e+003;-2.298281e-003
3.675813e+003;-2.553541e-003
3.677741e+003;-2.600214e-003
3.679669e+003;-2.925272e-003
3.681598e+003;-3.241010e-003
3.683527e+003;-3.409066e-003
3.685455e+003;-3.651156e-003
3.687384e+003;-4.206702e-003
3.689312e+003;-4.169259e-003
3.691241e+003;-3.533579e-003
3.693169e+003;-3.433590e-003
3.695098e+003;-3.570452e-003
3.697026e+003;-3.711838e-003
3.698955e+003;-3.891435e-003
3.700884e+003;-3.827462e-003
3.702812e+003;-3.611167e-003
3.704741e+003;-3.491607e-003
3.706669e+003;-3.590925e-003
3.708598e+003;-3.960982e-003
3.710526e+003;-3.883390e-003
3.712455e+003;-3.271791e-003
3.714383e+003;-2.896341e-003
3.716312e+003;-3.286195e-003
3.718240e+003;-3.597695e-003
3.720169e+003;-3.489504e-003
3.722098e+003;-3.779080e-003
3.724026e+003;-4.337153e-003
3.725955e+003;-4.400658e-003
3.727883e+003;-3.955696e-003
3.729812e+003;-3.704840e-003
3.731740e+003;-3.985278e-003
3.733669e+003;-4.431818e-003
3.735597e+003;-4.227899e-003
3.737526e+003;-3.575053e-003
3.739455e+003;-3.572753e-003
3.741383e+003;-3.926341e-003
3.743312e+003;-4.077885e-003
3.745240e+003;-3.890976e-003
3.747169e+003;-3.869072e-003
3.749097e+003;-4.103159e-003
3.751026e+003;-3.707008e-003
3.752954e+003;-3.441808e-003
3.754883e+003;-3.357121e-003
3.756812e+003;-3.167631e-003
3.758740e+003;-2.655477e-003
3.760668e+003;-2.811416e-003
3.762597e+003;-3.427246e-003
3.764526e+003;-3.994996e-003
3.766454e+003;-4.013709e-003
3.768383e+003;-3.693999e-003
3.770311e+003;-3.495354e-003
3.772240e+003;-3.580410e-003
3.774168e+003;-3.470505e-003
3.776097e+003;-3.333875e-003
3.778025e+003;-3.672512e-003
3.779954e+003;-4.109757e-003
3.781883e+003;-3.895540e-003
3.783811e+003;-3.424418e-003
3.785740e+003;-3.173552e-003
3.787668e+003;-2.953772e-003
3.789597e+003;-2.606505e-003
3.791525e+003;-2.555122e-003
3.793454e+003;-2.630942e-003
3.795382e+003;-2.640658e-003
3.797311e+003;-2.958182e-003
3.799240e+003;-3.161710e-003
3.801168e+003;-3.279520e-003
3.803097e+003;-3.280079e-003
3.805025e+003;-3.170460e-003
3.806954e+003;-3.109998e-003
3.808882e+003;-2.549785e-003
3.810811e+003;-2.604496e-003
3.812739e+003;-3.116347e-003
3.814668e+003;-3.419750e-003
3.816596e+003;-3.361954e-003
3.818525e+003;-3.082034e-003
3.820454e+003;-3.368957e-003
3.822382e+003;-3.122598e-003
3.824311e+003;-2.540628e-003
3.826239e+003;-2.758444e-003
3.828168e+003;-2.952061e-003
3.830096e+003;-2.689692e-003
3.832025e+003;-2.718801e-003
3.833953e+003;-3.072296e-003
3.835882e+003;-3.175328e-003
3.837811e+003;-3.076178e-003
3.839739e+003;-2.862966e-003
3.841667e+003;-2.728482e-003
3.843596e+003;-3.067032e-003
3.845525e+003;-3.476718e-003
3.847453e+003;-3.409691e-003
3.849382e+003;-3.185360e-003
3.851310e+003;-3.026167e-003
3.853239e+003;-2.927049e-003
3.855167e+003;-2.667431e-003
3.857096e+003;-2.163029e-003
3.859024e+003;-2.342971e-003
3.860953e+003;-3.028273e-003
3.862882e+003;-2.791861e-003
3.864810e+003;-2.531405e-003
3.866739e+003;-2.543790e-003
3.868667e+003;-2.436687e-003
3.870596e+003;-2.241225e-003
3.872524e+003;-2.401563e-003
3.874453e+003;-2.431844e-003
3.876381e+003;-2.073277e-003
3.878310e+003;-2.300951e-003
3.880239e+003;-2.041783e-003
3.882167e+003;-1.750517e-003
3.884096e+003;-1.828920e-003
3.886024e+003;-1.173281e-003
3.887953e+003;-1.143374e-003
3.889881e+003;-1.631335e-003
3.891810e+003;-2.210930e-003
3.893738e+003;-2.464429e-003
3.895667e+003;-2.087951e-003
3.897595e+003;-1.756325e-003
3.899524e+003;-1.873098e-003
3.901453e+003;-1.989113e-003
3.903381e+003;-1.583138e-003
3.905310e+003;-1.668866e-003
3.907238e+003;-1.866202e-003
3.909167e+003;-1.854919e-003
3.911095e+003;-1.704545e-003
3.913024e+003;-1.169778e-003
3.914952e+003;-1.158774e-003
3.916881e+003;-1.783550e-003
3.918810e+003;-1.888504e-003
3.920738e+003;-1.491417e-003
3.922667e+003;-1.407966e-003
3.924595e+003;-1.284329e-003
3.926524e+003;-1.155039e-003
3.928452e+003;-1.290573e-003
3.930381e+003;-1.062864e-003
3.932309e+003;-8.205509e-004
3.934238e+003;-7.294625e-004
3.936167e+003;-9.149928e-004
3.938095e+003;-1.432438e-003
3.940023e+003;-1.958702e-003
3.941952e+003;-1.495478e-003
3.943881e+003;-1.099585e-003
3.945809e+003;-8.804723e-004
3.947738e+003;-1.046404e-003
3.949666e+003;-1.100312e-003
3.951595e+003;-6.124483e-004
3.953523e+003;-3.783253e-004
3.955452e+003;-1.613990e-004
3.957380e+003;-4.416543e-005
3.959309e+003;-3.252213e-004
3.961238e+003;-8.091080e-004
3.963166e+003;-1.212106e-003
3.965095e+003;-9.857116e-004
3.967023e+003;-4.798801e-004
3.968952e+003;-2.952564e-004
3.970880e+003;-1.199287e-004
3.972809e+003;-1.946851e-004
3.974737e+003;-8.289179e-004
3.976666e+003;-1.315614e-003
3.978594e+003;-1.100113e-003
3.980523e+003;-9.812156e-004
3.982452e+003;-8.404264e-004
3.984380e+003;-9.271603e-004
3.986309e+003;-1.063955e-003
3.988237e+003;-8.498844e-004
3.990166e+003;-4.891804e-004
3.992094e+003;1.410745e-004
3.994023e+003;1.296397e-004
3.995951e+003;-4.147395e-004
3.997880e+003;-7.071340e-004
3.999809e+003;-4.831899e-004
4.001737e+003;0.000000e+000
