3.992094e+002;0.000000e+000
4.011380e+002;0.000000e+000
4.030665e+002;0.000000e+000
4.049951e+002;0.000000e+000
4.069236e+002;0.000000e+000
4.088522e+002;0.000000e+000
4.107807e+002;0.000000e+000
4.127093e+002;0.000000e+000
4.146378e+002;0.000000e+000
4.165664e+002;0.000000e+000
4.184949e+002;0.000000e+000
4.204235e+002;0.000000e+000
4.223520e+002;0.000000e+000
4.242806e+002;0.000000e+000
4.262091e+002;0.000000e+000
4.281377e+002;0.000000e+000
4.300662e+002;0.000000e+000
4.319948e+002;0.000000e+000
4.339233e+002;0.000000e+000
4.358519e+002;0.000000e+000
4.377804e+002;0.000000e+000
4.397090e+002;0.000000e+000
4.416375e+002;0.000000e+000
4.435660e+002;0.000000e+000
4.454946e+002;0.000000e+000
4.474232e+002;0.000000e+000
4.493517e+002;0.000000e+000
4.512802e+002;0.000000e+000
4.532088e+002;0.000000e+000
4.551373e+002;0.000000e+000
4.570659e+002;0.000000e+000
4.589944e+002;0.000000e+000
4.609230e+002;0.000000e+000
4.628515e+002;0.000000e+000
4.647801e+002;0.000000e+000
4.667086e+002;0.000000e+000
4.686372e+002;0.000000e+000
4.705657e+002;0.000000e+000
4.724943e+002;0.000000e+000
4.744228e+002;0.000000e+000
4.763513e+002;0.000000e+000
4.782799e+002;0.000000e+000
4.802085e+002;0.000000e+000
4.821370e+002;0.000000e+000
4.840656e+002;0.000000e+000
4.859941e+002;0.000000e+000
4.879226e+002;0.000000e+000
4.898512e+002;0.000000e+000
4.917798e+002;0.000000e+000
4.937083e+002;0.000000e+000
4.956368e+002;0.000000e+000
4.975654e+002;0.000000e+000
4.994939e+002;0.000000e+000
5.014225e+002;0.000000e+000
5.033510e+002;0.000000e+000
5.052796e+002;0.000000e+000
5.072081e+002;0.000000e+000
5.091367e+002;0.000000e+000
5.110652e+002;0.000000e+000
5.129938e+002;0.000000e+000
5.149223e+002;0.000000e+000
5.168509e+002;0.000000e+000
5.187794e+002;0.000000e+000
5.207079e+002;0.000000e+000
5.226365e+002;0.000000e+000
5.245651e+002;0.000000e+000
5.264936e+002;0.000000e+000
5.284222e+002;0.000000e+000
5.303507e+002;0.000000e+000
5.322792e+002;0.000000e+000
5.342078e+002;0.000000e+000
5.361364e+002;0.000000e+000
5.380649e+002;0.000000e+000
5.399935e+002;0.000000e+000
5.419220e+002;0.000000e+000
5.438505e+002;0.000000e+000
5.457791e+002;0.000000e+000
5.477076e+002;0.000000e+000
5.496362e+002;0.000000e+000
5.515648e+002;0.000000e+000
5.534933e+002;0.000000e+000
5.554218e+002;0.000000e+000
5.573504e+002;0.000000e+000
5.592789e+002;0.000000e+000
5.612075e+002;0.000000e+000
5.631360e+002;0.000000e+000
5.650646e+002;0.000000e+000
5.669931e+002;0.000000e+000
5.689217e+002;0.000000e+000
5.708502e+002;0.000000e+000
5.727787e+002;0.000000e+000
5.747073e+002;0.000000e+000
5.766359e+002;0.000000e+000
5.785644e+002;0.000000e+000
5.804930e+002;0.000000e+000
5.824215e+002;0.000000e+000
5.843500e+002;0.000000e+000
5.862786e+002;0.000000e+000
5.882072e+002;0.000000e+000
5.901357e+002;0.000000e+000
5.920643e+002;0.000000e+000
5.939928e+002;0.000000e+000
5.959213e+002;0.000000e+000
5.978499e+002;0.000000e+000
5.997784e+002;3.760719e-002
6.017070e+002;3.701216e-002
6.036355e+002;4.223344e-002
6.055641e+002;4.962220e-002
6.074926e+002;5.255099e-002
6.094211e+002;4.965704e-002
6.113497e+002;4.655738e-002
6.132783e+002;4.590562e-002
6.152068e+002;4.192341e-002
6.171354e+002;3.543304e-002
6.190639e+002;3.690552e-002
6.209924e+002;3.832991e-002
6.229210e+002;3.968975e-002
6.248495e+002;3.988984e-002
6.267781e+002;4.049116e-002
6.287067e+002;3.943497e-002
6.306352e+002;3.672894e-002
6.325637e+002;3.509074e-002
6.344923e+002;3.413962e-002
6.364208e+002;3.676951e-002
6.383494e+002;4.000743e-002
6.402780e+002;3.935573e-002
6.422065e+002;3.622716e-002
6.441350e+002;3.380504e-002
6.460636e+002;3.248364e-002
6.479921e+002;3.199045e-002
6.499207e+002;3.219740e-002
6.518492e+002;3.255475e-002
6.537778e+002;3.266815e-002
6.557063e+002;3.084812e-002
6.576349e+002;3.056092e-002
6.595634e+002;3.256560e-002
6.614919e+002;3.296435e-002
6.634205e+002;3.194027e-002
6.653491e+002;3.091436e-002
6.672776e+002;2.975817e-002
6.692062e+002;3.281717e-002
6.711347e+002;3.463914e-002
6.730632e+002;3.459120e-002
6.749918e+002;3.489486e-002
6.769203e+002;3.474448e-002
6.788489e+002;3.447256e-002
6.807775e+002;3.332047e-002
6.827060e+002;3.287707e-002
6.846345e+002;3.317188e-002
6.865631e+002;3.197329e-002
6.884916e+002;3.051887e-002
6.904202e+002;3.001618e-002
6.923488e+002;3.014583e-002
6.942773e+002;2.915720e-002
6.962058e+002;2.717091e-002
6.981344e+002;2.747899e-002
7.000629e+002;2.816517e-002
7.019915e+002;2.779913e-002
7.039200e+002;2.768646e-002
7.058486e+002;2.716552e-002
7.077771e+002;2.638711e-002
7.097057e+002;2.492120e-002
7.116342e+002;2.383947e-002
7.135627e+002;2.340630e-002
7.154913e+002;2.458471e-002
7.174199e+002;2.560222e-002
7.193484e+002;2.592505e-002
7.212770e+002;2.596775e-002
7.232055e+002;2.533695e-002
7.251340e+002;2.683538e-002
7.270626e+002;2.920232e-002
7.289911e+002;3.078722e-002
7.309197e+002;3.171914e-002
7.328483e+002;3.140320e-002
7.347768e+002;3.106933e-002
7.367053e+002;3.200518e-002
7.386339e+002;3.224076e-002
7.405624e+002;3.162602e-002
7.424910e+002;3.114753e-002
7.444196e+002;3.169220e-002
7.463481e+002;3.325572e-002
7.482766e+002;3.362389e-002
7.502052e+002;3.389627e-002
7.521337e+002;3.394998e-002
7.540623e+002;3.450036e-002
7.559908e+002;3.547823e-002
7.579194e+002;3.678007e-002
7.598479e+002;3.765283e-002
7.617765e+002;3.802283e-002
7.637050e+002;3.887739e-002
7.656335e+002;3.929004e-002
7.675621e+002;4.009144e-002
7.694907e+002;4.073845e-002
7.714192e+002;4.067506e-002
7.733478e+002;4.084178e-002
7.752763e+002;4.151204e-002
7.772048e+002;4.200614e-002
7.791334e+002;4.198103e-002
7.810620e+002;4.255682e-002
7.829905e+002;4.330720e-002
7.849191e+002;4.320302e-002
7.868476e+002;4.301007e-002
7.887761e+002;4.274295e-002
7.907047e+002;4.166924e-002
7.926332e+002;4.051968e-002
7.945618e+002;4.040206e-002
7.964903e+002;4.021922e-002
7.984189e+002;3.911137e-002
8.003474e+002;3.768311e-002
8.022759e+002;3.672782e-002
8.042045e+002;3.635291e-002
8.061331e+002;3.583562e-002
8.080616e+002;3.625799e-002
8.099902e+002;3.635474e-002
8.119187e+002;3.602202e-002
8.138472e+002;3.566178e-002
8.157758e+002;3.514635e-002
8.177043e+002;3.463049e-002
8.196329e+002;3.458058e-002
8.215615e+002;3.452415e-002
8.234900e+002;3.400824e-002
8.254185e+002;3.352576e-002
8.273471e+002;3.304808e-002
8.292756e+002;3.266322e-002
8.312042e+002;3.283093e-002
8.331328e+002;3.289862e-002
8.350613e+002;3.244487e-002
8.369898e+002;3.184199e-002
8.389184e+002;3.150476e-002
8.408469e+002;3.121507e-002
8.427755e+002;3.016774e-002
8.447040e+002;2.889347e-002
8.466326e+002;2.830445e-002
8.485611e+002;2.823419e-002
8.504897e+002;2.831375e-002
8.524182e+002;2.849936e-002
8.543467e+002;2.886270e-002
8.562753e+002;2.881068e-002
8.582039e+002;2.842344e-002
8.601324e+002;2.863245e-002
8.620610e+002;2.921096e-002
8.639895e+002;2.978436e-002
8.659180e+002;3.027712e-002
8.678466e+002;3.026351e-002
8.697751e+002;3.000067e-002
8.717037e+002;3.017854e-002
8.736323e+002;3.034380e-002
8.755608e+002;3.026870e-002
8.774893e+002;3.013244e-002
8.794179e+002;3.015418e-002
8.813464e+002;3.074785e-002
8.832750e+002;3.142226e-002
8.852036e+002;3.182705e-002
8.871321e+002;3.189551e-002
8.890606e+002;3.210321e-002
8.909892e+002;3.292578e-002
8.929177e+002;3.362392e-002
8.948463e+002;3.331710e-002
8.967748e+002;3.296904e-002
8.987034e+002;3.300007e-002
9.006319e+002;3.267718e-002
9.025605e+002;3.216611e-002
9.044890e+002;3.249975e-002
9.064175e+002;3.326613e-002
9.083461e+002;3.370738e-002
9.102747e+002;3.402057e-002
9.122032e+002;3.426022e-002
9.141318e+002;3.466649e-002
9.160603e+002;3.526891e-002
9.179888e+002;3.570872e-002
9.199174e+002;3.670730e-002
9.218459e+002;3.820188e-002
9.237745e+002;3.933081e-002
9.257031e+002;4.037406e-002
9.276316e+002;4.158011e-002
9.295601e+002;4.287492e-002
9.314887e+002;4.442651e-002
9.334172e+002;4.566999e-002
9.353458e+002;4.593465e-002
9.372744e+002;4.617190e-002
9.392029e+002;4.681332e-002
9.411314e+002;4.653732e-002
9.430600e+002;4.555376e-002
9.449885e+002;4.483018e-002
9.469171e+002;4.437932e-002
9.488456e+002;4.385546e-002
9.507742e+002;4.333315e-002
9.527027e+002;4.265931e-002
9.546313e+002;4.167176e-002
9.565598e+002;4.088790e-002
9.584883e+002;4.075326e-002
9.604169e+002;4.071669e-002
9.623455e+002;4.052146e-002
9.642740e+002;4.056307e-002
9.662026e+002;4.067120e-002
9.681311e+002;4.030872e-002
9.700596e+002;3.985559e-002
9.719882e+002;3.983147e-002
9.739167e+002;3.990982e-002
9.758453e+002;3.971742e-002
9.777739e+002;3.950293e-002
9.797024e+002;3.924525e-002
9.816309e+002;3.958191e-002
9.835595e+002;4.031508e-002
9.854880e+002;4.115294e-002
9.874166e+002;4.170597e-002
9.893452e+002;4.213679e-002
9.912737e+002;4.264710e-002
9.932022e+002;4.359049e-002
9.951307e+002;4.487625e-002
9.970593e+002;4.621679e-002
9.989879e+002;4.782348e-002
1.000916e+003;4.944918e-002
1.002845e+003;5.135839e-002
1.004773e+003;5.417901e-002
1.006702e+003;5.790115e-002
1.008631e+003;6.219017e-002
1.010559e+003;6.705202e-002
1.012488e+003;7.251757e-002
1.014416e+003;7.810267e-002
1.016345e+003;8.304792e-002
1.018273e+003;8.757503e-002
1.020202e+003;9.129202e-002
1.022130e+003;9.359352e-002
1.024059e+003;9.466556e-002
1.025988e+003;9.485972e-002
1.027916e+003;9.456850e-002
1.029845e+003;9.411765e-002
1.031773e+003;9.401063e-002
1.033702e+003;9.422623e-002
1.035630e+003;9.519429e-002
1.037559e+003;9.637213e-002
1.039487e+003;9.689511e-002
1.041416e+003;9.704994e-002
1.043344e+003;9.661026e-002
1.045273e+003;9.609452e-002
1.047202e+003;9.546001e-002
1.049130e+003;9.443699e-002
1.051059e+003;9.312221e-002
1.052987e+003;9.185082e-002
1.054916e+003;9.113558e-002
1.056844e+003;9.095783e-002
1.058773e+003;9.219538e-002
1.060701e+003;9.373248e-002
1.062630e+003;9.500122e-002
1.064558e+003;9.660313e-002
1.066487e+003;9.812126e-002
1.068416e+003;9.878692e-002
1.070344e+003;9.913357e-002
1.072273e+003;9.963558e-002
1.074201e+003;9.924015e-002
1.076130e+003;9.785710e-002
1.078058e+003;9.640203e-002
1.079987e+003;9.458107e-002
1.081915e+003;9.237142e-002
1.083844e+003;8.963096e-002
1.085773e+003;8.700865e-002
1.087701e+003;8.499020e-002
1.089630e+003;8.300684e-002
1.091558e+003;8.075188e-002
1.093487e+003;7.848097e-002
1.095415e+003;7.665618e-002
1.097344e+003;7.488921e-002
1.099272e+003;7.316753e-002
1.101201e+003;7.168256e-002
1.103129e+003;7.035749e-002
1.105058e+003;6.890783e-002
1.106987e+003;6.751718e-002
1.108915e+003;6.581921e-002
1.110844e+003;6.443825e-002
1.112772e+003;6.362797e-002
1.114701e+003;6.214777e-002
1.116629e+003;6.057963e-002
1.118558e+003;5.874563e-002
1.120486e+003;5.656661e-002
1.122415e+003;5.404318e-002
1.124344e+003;5.102682e-002
1.126272e+003;4.775775e-002
1.128201e+003;4.453003e-002
1.130129e+003;4.169068e-002
1.132058e+003;3.925246e-002
1.133986e+003;3.694430e-002
1.135915e+003;3.497146e-002
1.137843e+003;3.303392e-002
1.139772e+003;3.168404e-002
1.141700e+003;3.143722e-002
1.143629e+003;3.163988e-002
1.145557e+003;3.159804e-002
1.147486e+003;3.129208e-002
1.149415e+003;3.140195e-002
1.151343e+003;3.218067e-002
1.153272e+003;3.223459e-002
1.155200e+003;3.182563e-002
1.157129e+003;3.225496e-002
1.159057e+003;3.317885e-002
1.160986e+003;3.385032e-002
1.162914e+003;3.512059e-002
1.164843e+003;3.680175e-002
1.166771e+003;3.832955e-002
1.168700e+003;4.017793e-002
1.170629e+003;4.207323e-002
1.172557e+003;4.412642e-002
1.174486e+003;4.621458e-002
1.176414e+003;4.835467e-002
1.178343e+003;5.025962e-002
1.180271e+003;5.130312e-002
1.182200e+003;5.235175e-002
1.184128e+003;5.397107e-002
1.186057e+003;5.573505e-002
1.187986e+003;5.749863e-002
1.189914e+003;5.930931e-002
1.191843e+003;6.149564e-002
1.193771e+003;6.381979e-002
1.195700e+003;6.611573e-002
1.197628e+003;6.855174e-002
1.199557e+003;7.111849e-002
1.201485e+003;7.399679e-002
1.203414e+003;7.758911e-002
1.205343e+003;8.141617e-002
1.207271e+003;8.549795e-002
1.209200e+003;9.019943e-002
1.211128e+003;9.577706e-002
1.213057e+003;1.019708e-001
1.214985e+003;1.078687e-001
1.216914e+003;1.136843e-001
1.218842e+003;1.200537e-001
1.220771e+003;1.260592e-001
1.222699e+003;1.312917e-001
1.224628e+003;1.361582e-001
1.226557e+003;1.402217e-001
1.228485e+003;1.432899e-001
1.230414e+003;1.454434e-001
1.232342e+003;1.463193e-001
1.234271e+003;1.459336e-001
1.236199e+003;1.449202e-001
1.238128e+003;1.432460e-001
1.240056e+003;1.402721e-001
1.241985e+003;1.366799e-001
1.243913e+003;1.327931e-001
1.245842e+003;1.284784e-001
1.247771e+003;1.238308e-001
1.249699e+003;1.190611e-001
1.251628e+003;1.141067e-001
1.253556e+003;1.089322e-001
1.255485e+003;1.036636e-001
1.257413e+003;9.845681e-002
1.259342e+003;9.370184e-002
1.261270e+003;8.896258e-002
1.263199e+003;8.406980e-002
1.265127e+003;7.985295e-002
1.267056e+003;7.634519e-002
1.268985e+003;7.309385e-002
1.270913e+003;7.033879e-002
1.272842e+003;6.770437e-002
1.274770e+003;6.468076e-002
1.276699e+003;6.200129e-002
1.278627e+003;6.002035e-002
1.280556e+003;5.800024e-002
1.282484e+003;5.612380e-002
1.284413e+003;5.491076e-002
1.286342e+003;5.383103e-002
1.288270e+003;5.285329e-002
1.290199e+003;5.215933e-002
1.292127e+003;5.165258e-002
1.294056e+003;5.134817e-002
1.295984e+003;5.120764e-002
1.297913e+003;5.114356e-002
1.299841e+003;5.128936e-002
1.301770e+003;5.145044e-002
1.303698e+003;5.153008e-002
1.305627e+003;5.189582e-002
1.307556e+003;5.236394e-002
1.309484e+003;5.303127e-002
1.311413e+003;5.352288e-002
1.313341e+003;5.377688e-002
1.315270e+003;5.430549e-002
1.317198e+003;5.455235e-002
1.319127e+003;5.453387e-002
1.321055e+003;5.461709e-002
1.322984e+003;5.459128e-002
1.324912e+003;5.469424e-002
1.326841e+003;5.529223e-002
1.328770e+003;5.607015e-002
1.330698e+003;5.696827e-002
1.332627e+003;5.817477e-002
1.334555e+003;5.942658e-002
1.336484e+003;6.063601e-002
1.338412e+003;6.213790e-002
1.340341e+003;6.391183e-002
1.342269e+003;6.596259e-002
1.344198e+003;6.809841e-002
1.346126e+003;7.016363e-002
1.348055e+003;7.223230e-002
1.349984e+003;7.442246e-002
1.351912e+003;7.658910e-002
1.353841e+003;7.873356e-002
1.355769e+003;8.086111e-002
1.357698e+003;8.307825e-002
1.359626e+003;8.486510e-002
1.361555e+003;8.641516e-002
1.363483e+003;8.823656e-002
1.365412e+003;8.994343e-002
1.367341e+003;9.052201e-002
1.369269e+003;9.037185e-002
1.371198e+003;8.992647e-002
1.373126e+003;8.885849e-002
1.375055e+003;8.720192e-002
1.376983e+003;8.490438e-002
1.378912e+003;8.146413e-002
1.380840e+003;7.727436e-002
1.382769e+003;7.234497e-002
1.384698e+003;6.669579e-002
1.386626e+003;6.088197e-002
1.388555e+003;5.655665e-002
1.390483e+003;5.331742e-002
1.392412e+003;5.004206e-002
1.394340e+003;4.702971e-002
1.396269e+003;4.520337e-002
1.398197e+003;4.387628e-002
1.400126e+003;4.339781e-002
1.402054e+003;4.321945e-002
1.403983e+003;4.224867e-002
1.405911e+003;4.156462e-002
1.407840e+003;4.177177e-002
1.409769e+003;4.202651e-002
1.411697e+003;4.256113e-002
1.413626e+003;4.370194e-002
1.415554e+003;4.507521e-002
1.417483e+003;4.621878e-002
1.419411e+003;4.810674e-002
1.421340e+003;5.222203e-002
1.423268e+003;5.640121e-002
1.425197e+003;6.044937e-002
1.427125e+003;6.478859e-002
1.429054e+003;6.926025e-002
1.430983e+003;7.438373e-002
1.432911e+003;8.006199e-002
1.434840e+003;8.513948e-002
1.436768e+003;9.085485e-002
1.438697e+003;9.851405e-002
1.440625e+003;1.054671e-001
1.442554e+003;1.112806e-001
1.444482e+003;1.159938e-001
1.446411e+003;1.199074e-001
1.448340e+003;1.232496e-001
1.450268e+003;1.254995e-001
1.452197e+003;1.252218e-001
1.454125e+003;1.212742e-001
1.456054e+003;1.130865e-001
1.457982e+003;1.049541e-001
1.459911e+003;9.749481e-002
1.461839e+003;8.803520e-002
1.463768e+003;7.730290e-002
1.465697e+003;6.735921e-002
1.467625e+003;5.940439e-002
1.469554e+003;5.211065e-002
1.471482e+003;4.535282e-002
1.473411e+003;4.111429e-002
1.475339e+003;3.879717e-002
1.477268e+003;3.646597e-002
1.479196e+003;3.470194e-002
1.481125e+003;3.313762e-002
1.483053e+003;3.167502e-002
1.484982e+003;3.033915e-002
1.486911e+003;2.918066e-002
1.488839e+003;2.811062e-002
1.490768e+003;2.742457e-002
1.492696e+003;2.711328e-002
1.494625e+003;2.565628e-002
1.496553e+003;2.425471e-002
1.498482e+003;2.447182e-002
1.500410e+003;2.497367e-002
1.502339e+003;2.490310e-002
1.504267e+003;2.269209e-002
1.506196e+003;2.007248e-002
1.508125e+003;2.140971e-002
1.510053e+003;2.361246e-002
1.511982e+003;2.421988e-002
1.513910e+003;2.446130e-002
1.515839e+003;2.389149e-002
1.517767e+003;2.347957e-002
1.519696e+003;2.258238e-002
1.521624e+003;2.213900e-002
1.523553e+003;2.347789e-002
1.525481e+003;2.405707e-002
1.527410e+003;2.455623e-002
1.529339e+003;2.529055e-002
1.531267e+003;2.521108e-002
1.533196e+003;2.443122e-002
1.535124e+003;2.475431e-002
1.537053e+003;2.352287e-002
1.538981e+003;2.066854e-002
1.540910e+003;2.093570e-002
1.542838e+003;2.316827e-002
1.544767e+003;2.445548e-002
1.546695e+003;2.498367e-002
1.548624e+003;2.497500e-002
1.550553e+003;2.488675e-002
1.552481e+003;2.404923e-002
1.554410e+003;2.288635e-002
1.556338e+003;2.115324e-002
1.558267e+003;1.773108e-002
1.560195e+003;1.854940e-002
1.562124e+003;2.187768e-002
1.564052e+003;2.275944e-002
1.565981e+003;2.259634e-002
1.567910e+003;2.192629e-002
1.569838e+003;2.140518e-002
1.571767e+003;2.203347e-002
1.573695e+003;2.133181e-002
1.575624e+003;1.964298e-002
1.577552e+003;2.098640e-002
1.579481e+003;2.295841e-002
1.581409e+003;2.339938e-002
1.583338e+003;2.374000e-002
1.585266e+003;2.425803e-002
1.587195e+003;2.500582e-002
1.589124e+003;2.583509e-002
1.591052e+003;2.662209e-002
1.592981e+003;2.769253e-002
1.594909e+003;2.898612e-002
1.596838e+003;2.970665e-002
1.598766e+003;2.986780e-002
1.600695e+003;2.965553e-002
1.602623e+003;2.948017e-002
1.604552e+003;2.952514e-002
1.606480e+003;2.935200e-002
1.608409e+003;2.920848e-002
1.610338e+003;2.939387e-002
1.612266e+003;2.987589e-002
1.614195e+003;2.948422e-002
1.616123e+003;2.816033e-002
1.618052e+003;2.952560e-002
1.619980e+003;3.145446e-002
1.621909e+003;3.155888e-002
1.623837e+003;3.169205e-002
1.625766e+003;3.248343e-002
1.627694e+003;3.300675e-002
1.629623e+003;3.358182e-002
1.631552e+003;3.407031e-002
1.633480e+003;3.299302e-002
1.635409e+003;3.166087e-002
1.637337e+003;3.318679e-002
1.639266e+003;3.457599e-002
1.641194e+003;3.488014e-002
1.643123e+003;3.453885e-002
1.645051e+003;3.326606e-002
1.646980e+003;3.329156e-002
1.648909e+003;3.452016e-002
1.650837e+003;3.244815e-002
1.652766e+003;2.911068e-002
1.654694e+003;3.144430e-002
1.656623e+003;3.407790e-002
1.658551e+003;3.427180e-002
1.660480e+003;3.365450e-002
1.662408e+003;3.275911e-002
1.664337e+003;3.298974e-002
1.666266e+003;3.301723e-002
1.668194e+003;3.192219e-002
1.670123e+003;3.164708e-002
1.672051e+003;3.228466e-002
1.673980e+003;3.191395e-002
1.675908e+003;3.197126e-002
1.677837e+003;3.323697e-002
1.679765e+003;3.326548e-002
1.681694e+003;3.204427e-002
1.683622e+003;2.971627e-002
1.685551e+003;3.045642e-002
1.687479e+003;3.271616e-002
1.689408e+003;3.320940e-002
1.691337e+003;3.329900e-002
1.693265e+003;3.236008e-002
1.695194e+003;2.998096e-002
1.697122e+003;3.006490e-002
1.699051e+003;2.969576e-002
1.700979e+003;3.036235e-002
1.702908e+003;3.373212e-002
1.704836e+003;3.561232e-002
1.706765e+003;3.823054e-002
1.708693e+003;4.160305e-002
1.710622e+003;4.550070e-002
1.712551e+003;4.990738e-002
1.714479e+003;5.463547e-002
1.716408e+003;5.941996e-002
1.718336e+003;6.645867e-002
1.720265e+003;7.543676e-002
1.722193e+003;8.311640e-002
1.724122e+003;8.986534e-002
1.726050e+003;9.657206e-002
1.727979e+003;1.025568e-001
1.729908e+003;1.072043e-001
1.731836e+003;1.094418e-001
1.733765e+003;1.102630e-001
1.735693e+003;1.131759e-001
1.737622e+003;1.140621e-001
1.739550e+003;1.113548e-001
1.741479e+003;1.079782e-001
1.743407e+003;1.033843e-001
1.745336e+003;9.740271e-002
1.747265e+003;9.032048e-002
1.749193e+003;8.239632e-002
1.751122e+003;7.443348e-002
1.753050e+003;6.761570e-002
1.754979e+003;6.011262e-002
1.756907e+003;5.205275e-002
1.758836e+003;4.461826e-002
1.760764e+003;3.721787e-002
1.762693e+003;3.094030e-002
1.764621e+003;2.606647e-002
1.766550e+003;2.136174e-002
1.768479e+003;1.746509e-002
1.770407e+003;1.429064e-002
1.772336e+003;1.160698e-002
1.774264e+003;1.086131e-002
1.776193e+003;1.057942e-002
1.778121e+003;9.826190e-003
1.780050e+003;9.016005e-003
1.781978e+003;8.419602e-003
1.783907e+003;7.653378e-003
1.785835e+003;7.156516e-003
1.787764e+003;7.056687e-003
1.789693e+003;6.330515e-003
1.791621e+003;5.333935e-003
1.793550e+003;5.245356e-003
1.795478e+003;5.527826e-003
1.797407e+003;5.362180e-003
1.799335e+003;4.974498e-003
1.801264e+003;4.795192e-003
1.803192e+003;5.107542e-003
1.805121e+003;5.212793e-003
1.807049e+003;5.037948e-003
1.808978e+003;4.692454e-003
1.810907e+003;4.401924e-003
1.812835e+003;4.481091e-003
1.814764e+003;4.498735e-003
1.816692e+003;4.529402e-003
1.818621e+003;4.583210e-003
1.820549e+003;4.503053e-003
1.822478e+003;4.313032e-003
1.824406e+003;3.811652e-003
1.826335e+003;3.843040e-003
1.828264e+003;3.670650e-003
1.830192e+003;3.304974e-003
1.832121e+003;3.641747e-003
1.834049e+003;3.784778e-003
1.835978e+003;3.611910e-003
1.837906e+003;3.654778e-003
1.839835e+003;3.819641e-003
1.841763e+003;3.307177e-003
1.843692e+003;2.546713e-003
1.845620e+003;3.167607e-003
1.847549e+003;3.798449e-003
1.849478e+003;3.702362e-003
1.851406e+003;3.639308e-003
1.853335e+003;3.666640e-003
1.855263e+003;3.555316e-003
1.857192e+003;3.345574e-003
1.859120e+003;3.396063e-003
1.861049e+003;3.406850e-003
1.862977e+003;3.384910e-003
1.864906e+003;3.496959e-003
1.866834e+003;3.201686e-003
1.868763e+003;2.714556e-003
1.870692e+003;2.996186e-003
1.872620e+003;3.320432e-003
1.874549e+003;3.301769e-003
1.876477e+003;3.271688e-003
1.878406e+003;3.217708e-003
1.880334e+003;3.252726e-003
1.882263e+003;3.117412e-003
1.884191e+003;2.785113e-003
1.886120e+003;2.587876e-003
1.888048e+003;2.411952e-003
1.889977e+003;2.315305e-003
1.891906e+003;2.444305e-003
1.893834e+003;2.373737e-003
1.895763e+003;2.225441e-003
1.897691e+003;2.226340e-003
1.899620e+003;2.276699e-003
1.901548e+003;2.086950e-003
1.903477e+003;1.925107e-003
1.905405e+003;1.957291e-003
1.907334e+003;2.028757e-003
1.909262e+003;1.864539e-003
1.911191e+003;1.669449e-003
1.913120e+003;1.584940e-003
1.915048e+003;1.487313e-003
1.916977e+003;1.351551e-003
1.918905e+003;1.477638e-003
1.920834e+003;1.707336e-003
1.922762e+003;1.650191e-003
1.924691e+003;1.441135e-003
1.926619e+003;1.326923e-003
1.928548e+003;1.220184e-003
1.930477e+003;1.204501e-003
1.932405e+003;1.206494e-003
1.934334e+003;1.180047e-003
1.936262e+003;1.100084e-003
1.938191e+003;1.055873e-003
1.940119e+003;1.057367e-003
1.942048e+003;7.544543e-004
1.943976e+003;7.387218e-004
1.945905e+003;8.022861e-004
1.947833e+003;1.068827e-003
1.949762e+003;1.220250e-003
1.951691e+003;1.126759e-003
1.953619e+003;1.208953e-003
1.955548e+003;1.192839e-003
1.957476e+003;1.128486e-003
1.959405e+003;1.199816e-003
1.961333e+003;1.141542e-003
1.963262e+003;8.065684e-004
1.965190e+003;7.712165e-004
1.967119e+003;1.111677e-003
1.969047e+003;1.548892e-003
1.970976e+003;1.578455e-003
1.972905e+003;1.605458e-003
1.974833e+003;1.628074e-003
1.976762e+003;1.699253e-003
1.978690e+003;1.791936e-003
1.980619e+003;1.685981e-003
1.982547e+003;1.539748e-003
1.984476e+003;1.757069e-003
1.986404e+003;1.924375e-003
1.988333e+003;1.907169e-003
1.990261e+003;1.936090e-003
1.992190e+003;1.949869e-003
1.994119e+003;2.076863e-003
1.996047e+003;2.045136e-003
1.997976e+003;1.900313e-003
1.999904e+003;1.878083e-003
2.001833e+003;1.896353e-003
2.003761e+003;1.981822e-003
2.005690e+003;2.086251e-003
2.007618e+003;2.198099e-003
2.009547e+003;2.219912e-003
2.011476e+003;2.199431e-003
2.013404e+003;2.066908e-003
2.015333e+003;2.102532e-003
2.017261e+003;2.419182e-003
2.019190e+003;2.623343e-003
2.021118e+003;2.594242e-003
2.023047e+003;2.539647e-003
2.024975e+003;2.482493e-003
2.026904e+003;2.407154e-003
2.028833e+003;2.395559e-003
2.030761e+003;2.412451e-003
2.032690e+003;2.294120e-003
2.034618e+003;2.200696e-003
2.036547e+003;1.850996e-003
2.038475e+003;1.709698e-003
2.040404e+003;1.933760e-003
2.042332e+003;2.168228e-003
2.044261e+003;2.320535e-003
2.046189e+003;2.357979e-003
2.048118e+003;2.216349e-003
2.050047e+003;2.069006e-003
2.051975e+003;2.045835e-003
2.053904e+003;2.012279e-003
2.055832e+003;1.857551e-003
2.057761e+003;1.916720e-003
2.059689e+003;1.926239e-003
2.061618e+003;1.881943e-003
2.063546e+003;1.688375e-003
2.065475e+003;1.628706e-003
2.067404e+003;1.874955e-003
2.069332e+003;1.932196e-003
2.071260e+003;1.918418e-003
2.073189e+003;1.918085e-003
2.075118e+003;1.897984e-003
2.077046e+003;1.927270e-003
2.078975e+003;1.978460e-003
2.080903e+003;1.893724e-003
2.082832e+003;1.761195e-003
2.084760e+003;1.746191e-003
2.086689e+003;1.595249e-003
2.088617e+003;1.596213e-003
2.090546e+003;1.617498e-003
2.092475e+003;1.505367e-003
2.094403e+003;1.574331e-003
2.096332e+003;1.632031e-003
2.098260e+003;1.687344e-003
2.100189e+003;1.811067e-003
2.102117e+003;1.981123e-003
2.104046e+003;1.741034e-003
2.105974e+003;1.391770e-003
2.107903e+003;1.463908e-003
2.109832e+003;1.664826e-003
2.111760e+003;1.618429e-003
2.113688e+003;1.370064e-003
2.115617e+003;1.290099e-003
2.117546e+003;1.385620e-003
2.119474e+003;1.523322e-003
2.121403e+003;1.614371e-003
2.123331e+003;1.670414e-003
2.125260e+003;1.456594e-003
2.127188e+003;1.343341e-003
2.129117e+003;1.602199e-003
2.131045e+003;1.807840e-003
2.132974e+003;1.653251e-003
2.134903e+003;1.466102e-003
2.136831e+003;1.277737e-003
2.138760e+003;1.274879e-003
2.140688e+003;1.462544e-003
2.142617e+003;1.522092e-003
2.144545e+003;1.667187e-003
2.146474e+003;1.935591e-003
2.148402e+003;1.947273e-003
2.150331e+003;1.891993e-003
2.152260e+003;1.861145e-003
2.154188e+003;1.680293e-003
2.156117e+003;1.685714e-003
2.158045e+003;2.034982e-003
2.159974e+003;2.385031e-003
2.161902e+003;2.398258e-003
2.163831e+003;2.393127e-003
2.165759e+003;2.521617e-003
2.167688e+003;2.613509e-003
2.169616e+003;2.712856e-003
2.171545e+003;2.988412e-003
2.173474e+003;3.179022e-003
2.175402e+003;3.323938e-003
2.177331e+003;3.610540e-003
2.179259e+003;3.824421e-003
2.181188e+003;4.363567e-003
2.183116e+003;5.086891e-003
2.185045e+003;5.704749e-003
2.186973e+003;6.540828e-003
2.188902e+003;7.432784e-003
2.190831e+003;8.161377e-003
2.192759e+003;8.584223e-003
2.194688e+003;8.576315e-003
2.196616e+003;8.253592e-003
2.198545e+003;7.797332e-003
2.200473e+003;7.272204e-003
2.202402e+003;6.818287e-003
2.204330e+003;6.811824e-003
2.206259e+003;6.986442e-003
2.208188e+003;7.141325e-003
2.210116e+003;7.410404e-003
2.212044e+003;7.788056e-003
2.213973e+003;8.327926e-003
2.215902e+003;9.103598e-003
2.217830e+003;9.840695e-003
2.219759e+003;1.065337e-002
2.221687e+003;1.189835e-002
2.223616e+003;1.383696e-002
2.225544e+003;1.685419e-002
2.227473e+003;2.162010e-002
2.229401e+003;2.944252e-002
2.231330e+003;4.117079e-002
2.233259e+003;5.554715e-002
2.235187e+003;7.054935e-002
2.237116e+003;8.422839e-002
2.239044e+003;9.461951e-002
2.240973e+003;1.009733e-001
2.242901e+003;1.031185e-001
2.244830e+003;1.010095e-001
2.246758e+003;9.593803e-002
2.248687e+003;8.933529e-002
2.250615e+003;8.182937e-002
2.252544e+003;7.365637e-002
2.254473e+003;6.536946e-002
2.256401e+003;5.723696e-002
2.258330e+003;4.916381e-002
2.260258e+003;4.163416e-002
2.262187e+003;3.508528e-002
2.264115e+003;2.950720e-002
2.266044e+003;2.491969e-002
2.267972e+003;2.140417e-002
2.269901e+003;1.876160e-002
2.271830e+003;1.685460e-002
2.273758e+003;1.516782e-002
2.275687e+003;1.377614e-002
2.277615e+003;1.309391e-002
2.279544e+003;1.245955e-002
2.281472e+003;1.202386e-002
2.283401e+003;1.158880e-002
2.285329e+003;1.100599e-002
2.287258e+003;1.073966e-002
2.289187e+003;1.055674e-002
2.291115e+003;1.016850e-002
2.293043e+003;9.776743e-003
2.294972e+003;9.752650e-003
2.296901e+003;9.551207e-003
2.298829e+003;9.363468e-003
2.300758e+003;9.327481e-003
2.302686e+003;9.207960e-003
2.304615e+003;9.060527e-003
2.306543e+003;8.673249e-003
2.308472e+003;8.134975e-003
2.310400e+003;7.705416e-003
2.312329e+003;7.504415e-003
2.314258e+003;7.273047e-003
2.316186e+003;6.795029e-003
2.318115e+003;5.998068e-003
2.320043e+003;5.273025e-003
2.321972e+003;4.912565e-003
2.323900e+003;4.557393e-003
2.325829e+003;3.928760e-003
2.327757e+003;3.221581e-003
2.329686e+003;2.472229e-003
2.331615e+003;1.714222e-003
2.333543e+003;1.285248e-003
2.335472e+003;1.370530e-003
2.337400e+003;1.450011e-003
2.339329e+003;1.796461e-003
2.341257e+003;2.392061e-003
2.343186e+003;2.908949e-003
2.345114e+003;4.096302e-003
2.347043e+003;5.867773e-003
2.348971e+003;6.624054e-003
2.350900e+003;5.532793e-003
2.352829e+003;3.449430e-003
2.354757e+003;1.553847e-003
2.356686e+003;6.474874e-005
2.358614e+003;-9.575114e-004
2.360543e+003;-1.507167e-003
2.362471e+003;-1.638861e-003
2.364400e+003;-1.315547e-003
2.366328e+003;-1.884255e-004
2.368257e+003;1.229720e-003
2.370186e+003;2.634243e-003
2.372114e+003;3.903015e-003
2.374042e+003;4.790870e-003
2.375971e+003;5.825458e-003
2.377900e+003;7.105117e-003
2.379828e+003;8.061214e-003
2.381757e+003;8.449332e-003
2.383685e+003;8.725646e-003
2.385614e+003;8.850951e-003
2.387542e+003;8.802901e-003
2.389471e+003;8.665880e-003
2.391399e+003;8.792859e-003
2.393328e+003;9.084988e-003
2.395257e+003;8.892513e-003
2.397185e+003;8.827280e-003
2.399114e+003;9.073789e-003
2.401042e+003;9.115238e-003
2.402971e+003;8.927484e-003
2.404899e+003;8.868400e-003
2.406828e+003;8.840198e-003
2.408756e+003;8.850072e-003
2.410685e+003;8.937293e-003
2.412614e+003;8.876956e-003
2.414542e+003;8.734504e-003
2.416471e+003;8.901137e-003
2.418399e+003;8.936549e-003
2.420328e+003;8.838676e-003
2.422256e+003;8.967328e-003
2.424185e+003;9.121532e-003
2.426113e+003;9.105662e-003
2.428042e+003;9.023482e-003
2.429970e+003;8.832217e-003
2.431899e+003;8.818455e-003
2.433828e+003;8.890180e-003
2.435756e+003;8.905940e-003
2.437685e+003;8.895421e-003
2.439613e+003;9.175912e-003
2.441542e+003;9.439887e-003
2.443470e+003;9.389030e-003
2.445399e+003;9.362249e-003
2.447327e+003;9.453501e-003
2.449256e+003;9.380498e-003
2.451185e+003;9.221329e-003
2.453113e+003;9.426208e-003
2.455042e+003;9.509582e-003
2.456970e+003;9.384154e-003
2.458899e+003;9.446966e-003
2.460827e+003;9.511614e-003
2.462756e+003;9.514391e-003
2.464684e+003;9.764306e-003
2.466613e+003;9.970968e-003
2.468542e+003;1.019730e-002
2.470470e+003;1.033412e-002
2.472398e+003;1.016986e-002
2.474327e+003;1.005536e-002
2.476256e+003;1.034478e-002
2.478184e+003;1.053624e-002
2.480113e+003;1.052962e-002
2.482041e+003;1.079917e-002
2.483970e+003;1.102240e-002
2.485898e+003;1.105224e-002
2.487827e+003;1.116302e-002
2.489755e+003;1.142818e-002
2.491684e+003;1.153552e-002
2.493613e+003;1.137069e-002
2.495541e+003;1.142634e-002
2.497470e+003;1.179194e-002
2.499398e+003;1.175871e-002
2.501327e+003;1.168716e-002
2.503255e+003;1.186225e-002
2.505184e+003;1.202239e-002
2.507112e+003;1.223340e-002
2.509041e+003;1.232192e-002
2.510969e+003;1.229959e-002
2.512898e+003;1.228971e-002
2.514827e+003;1.212065e-002
2.516755e+003;1.202209e-002
2.518684e+003;1.212024e-002
2.520612e+003;1.224329e-002
2.522541e+003;1.218968e-002
2.524469e+003;1.196807e-002
2.526398e+003;1.173172e-002
2.528326e+003;1.181002e-002
2.530255e+003;1.190172e-002
2.532184e+003;1.191967e-002
2.534112e+003;1.204178e-002
2.536041e+003;1.206481e-002
2.537969e+003;1.194824e-002
2.539898e+003;1.168458e-002
2.541826e+003;1.166490e-002
2.543755e+003;1.182252e-002
2.545683e+003;1.165343e-002
2.547612e+003;1.144161e-002
2.549541e+003;1.129876e-002
2.551469e+003;1.136909e-002
2.553397e+003;1.132410e-002
2.555326e+003;1.104371e-002
2.557255e+003;1.083688e-002
2.559183e+003;1.065229e-002
2.561112e+003;1.061015e-002
2.563040e+003;1.083569e-002
2.564969e+003;1.096004e-002
2.566897e+003;1.080688e-002
2.568826e+003;1.044886e-002
2.570754e+003;1.004885e-002
2.572683e+003;9.941744e-003
2.574612e+003;1.006123e-002
2.576540e+003;1.019214e-002
2.578469e+003;1.009517e-002
2.580397e+003;1.006245e-002
2.582326e+003;1.017233e-002
2.584254e+003;1.016460e-002
2.586183e+003;9.997481e-003
2.588111e+003;9.690980e-003
2.590040e+003;9.734860e-003
2.591969e+003;1.010101e-002
2.593897e+003;1.000755e-002
2.595826e+003;9.653916e-003
2.597754e+003;9.786774e-003
2.599683e+003;1.020636e-002
2.601611e+003;1.026586e-002
2.603540e+003;9.986733e-003
2.605468e+003;9.905776e-003
2.607397e+003;9.915878e-003
2.609325e+003;9.908997e-003
2.611254e+003;9.961814e-003
2.613183e+003;9.931235e-003
2.615111e+003;1.013262e-002
2.617040e+003;1.049669e-002
2.618968e+003;1.065344e-002
2.620897e+003;1.055161e-002
2.622825e+003;1.055766e-002
2.624754e+003;1.070937e-002
2.626682e+003;1.066030e-002
2.628611e+003;1.056740e-002
2.630540e+003;1.080529e-002
2.632468e+003;1.111074e-002
2.634396e+003;1.095841e-002
2.636325e+003;1.090425e-002
2.638254e+003;1.103382e-002
2.640182e+003;1.117227e-002
2.642111e+003;1.133814e-002
2.644039e+003;1.128002e-002
2.645968e+003;1.112706e-002
2.647896e+003;1.114079e-002
2.649825e+003;1.121769e-002
2.651753e+003;1.132144e-002
2.653682e+003;1.142457e-002
2.655611e+003;1.146645e-002
2.657539e+003;1.146512e-002
2.659468e+003;1.166623e-002
2.661396e+003;1.182878e-002
2.663325e+003;1.167937e-002
2.665253e+003;1.158019e-002
2.667182e+003;1.158700e-002
2.669110e+003;1.159622e-002
2.671039e+003;1.168206e-002
2.672968e+003;1.173577e-002
2.674896e+003;1.166228e-002
2.676825e+003;1.171324e-002
2.678753e+003;1.194559e-002
2.680682e+003;1.195921e-002
2.682610e+003;1.155855e-002
2.684539e+003;1.177550e-002
2.686467e+003;1.216869e-002
2.688396e+003;1.210245e-002
2.690324e+003;1.217993e-002
2.692253e+003;1.200686e-002
2.694182e+003;1.205101e-002
2.696110e+003;1.212507e-002
2.698039e+003;1.184506e-002
2.699967e+003;1.181258e-002
2.701896e+003;1.203690e-002
2.703824e+003;1.193322e-002
2.705753e+003;1.180076e-002
2.707681e+003;1.186831e-002
2.709610e+003;1.186917e-002
2.711539e+003;1.188057e-002
2.713467e+003;1.183185e-002
2.715396e+003;1.181765e-002
2.717324e+003;1.165912e-002
2.719253e+003;1.125207e-002
2.721181e+003;1.100867e-002
2.723110e+003;1.125734e-002
2.725038e+003;1.132614e-002
2.726967e+003;1.122755e-002
2.728896e+003;1.128536e-002
2.730824e+003;1.100881e-002
2.732752e+003;1.079089e-002
2.734681e+003;1.066566e-002
2.736610e+003;1.052266e-002
2.738538e+003;1.062712e-002
2.740467e+003;1.077200e-002
2.742395e+003;1.076341e-002
2.744324e+003;1.034217e-002
2.746252e+003;9.955372e-003
2.748181e+003;1.018142e-002
2.750109e+003;1.060319e-002
2.752038e+003;1.079894e-002
2.753967e+003;1.079646e-002
2.755895e+003;1.050389e-002
2.757824e+003;1.041781e-002
2.759752e+003;1.058933e-002
2.761681e+003;1.082635e-002
2.763609e+003;1.090415e-002
2.765538e+003;1.086810e-002
2.767466e+003;1.100640e-002
2.769395e+003;1.137212e-002
2.771323e+003;1.170799e-002
2.773252e+003;1.189910e-002
2.775181e+003;1.201258e-002
2.777109e+003;1.223242e-002
2.779038e+003;1.248912e-002
2.780966e+003;1.275576e-002
2.782895e+003;1.291907e-002
2.784823e+003;1.307707e-002
2.786752e+003;1.321166e-002
2.788680e+003;1.329884e-002
2.790609e+003;1.377590e-002
2.792538e+003;1.420836e-002
2.794466e+003;1.437362e-002
2.796395e+003;1.450036e-002
2.798323e+003;1.453421e-002
2.800252e+003;1.469664e-002
2.802180e+003;1.500559e-002
2.804109e+003;1.527952e-002
2.806037e+003;1.545514e-002
2.807966e+003;1.563901e-002
2.809895e+003;1.567958e-002
2.811823e+003;1.568864e-002
2.813751e+003;1.585298e-002
2.815680e+003;1.602536e-002
2.817609e+003;1.598239e-002
2.819537e+003;1.576302e-002
2.821466e+003;1.582292e-002
2.823394e+003;1.588037e-002
2.825323e+003;1.580175e-002
2.827251e+003;1.584212e-002
2.829180e+003;1.615854e-002
2.831108e+003;1.683872e-002
2.833037e+003;1.732413e-002
2.834966e+003;1.786695e-002
2.836894e+003;1.854121e-002
2.838823e+003;1.947353e-002
2.840751e+003;2.059786e-002
2.842680e+003;2.176932e-002
2.844608e+003;2.280250e-002
2.846537e+003;2.443613e-002
2.848465e+003;2.746018e-002
2.850394e+003;3.081617e-002
2.852323e+003;3.285777e-002
2.854251e+003;3.393704e-002
2.856180e+003;3.510356e-002
2.858108e+003;3.592267e-002
2.860037e+003;3.677203e-002
2.861965e+003;3.774567e-002
2.863894e+003;3.843245e-002
2.865822e+003;3.944763e-002
2.867751e+003;4.010601e-002
2.869679e+003;4.041377e-002
2.871608e+003;4.050364e-002
2.873536e+003;4.029774e-002
2.875465e+003;4.018803e-002
2.877394e+003;4.007857e-002
2.879322e+003;3.972809e-002
2.881251e+003;3.940126e-002
2.883179e+003;3.925014e-002
2.885108e+003;3.923818e-002
2.887036e+003;3.898637e-002
2.888965e+003;3.905724e-002
2.890893e+003;3.975406e-002
2.892822e+003;4.069071e-002
2.894750e+003;4.205122e-002
2.896679e+003;4.377538e-002
2.898608e+003;4.521208e-002
2.900536e+003;4.675214e-002
2.902465e+003;4.896475e-002
2.904393e+003;5.158351e-002
2.906322e+003;5.436320e-002
2.908250e+003;5.696385e-002
2.910179e+003;5.928086e-002
2.912107e+003;6.139026e-002
2.914036e+003;6.400270e-002
2.915965e+003;6.718516e-002
2.917893e+003;7.060423e-002
2.919822e+003;7.302587e-002
2.921750e+003;7.441361e-002
2.923679e+003;7.553859e-002
2.925607e+003;7.633958e-002
2.927536e+003;7.638939e-002
2.929464e+003;7.628614e-002
2.931393e+003;7.642946e-002
2.933322e+003;7.655140e-002
2.935250e+003;7.637770e-002
2.937178e+003;7.561533e-002
2.939107e+003;7.471830e-002
2.941036e+003;7.393216e-002
2.942964e+003;7.255105e-002
2.944893e+003;7.038161e-002
2.946821e+003;6.833126e-002
2.948750e+003;6.652483e-002
2.950678e+003;6.450289e-002
2.952607e+003;6.221445e-002
2.954535e+003;6.009824e-002
2.956464e+003;5.814250e-002
2.958393e+003;5.663772e-002
2.960321e+003;5.545675e-002
2.962250e+003;5.373379e-002
2.964178e+003;5.253042e-002
2.966107e+003;5.162060e-002
2.968035e+003;5.044502e-002
2.969964e+003;4.960114e-002
2.971892e+003;4.889388e-002
2.973821e+003;4.846249e-002
2.975750e+003;4.820703e-002
2.977678e+003;4.744327e-002
2.979607e+003;4.638248e-002
2.981535e+003;4.550284e-002
2.983464e+003;4.503213e-002
2.985392e+003;4.468377e-002
2.987321e+003;4.467143e-002
2.989249e+003;4.455822e-002
2.991178e+003;4.371656e-002
2.993106e+003;4.255923e-002
2.995035e+003;4.140957e-002
2.996964e+003;4.070628e-002
2.998892e+003;4.024336e-002
3.000821e+003;3.947637e-002
3.002749e+003;3.826955e-002
3.004678e+003;3.693409e-002
3.006606e+003;3.590579e-002
3.008535e+003;3.490258e-002
3.010463e+003;3.387790e-002
3.012392e+003;3.282800e-002
3.014321e+003;3.192640e-002
3.016249e+003;3.107965e-002
3.018177e+003;3.024028e-002
3.020106e+003;2.932584e-002
3.022035e+003;2.849341e-002
3.023963e+003;2.802261e-002
3.025892e+003;2.745291e-002
3.027820e+003;2.673248e-002
3.029749e+003;2.633036e-002
3.031677e+003;2.614114e-002
3.033606e+003;2.591925e-002
3.035534e+003;2.554107e-002
3.037463e+003;2.528651e-002
3.039392e+003;2.488018e-002
3.041320e+003;2.438429e-002
3.043249e+003;2.409658e-002
3.045177e+003;2.381864e-002
3.047106e+003;2.362733e-002
3.049034e+003;2.359528e-002
3.050963e+003;2.370626e-002
3.052891e+003;2.325373e-002
3.054820e+003;2.234424e-002
3.056749e+003;2.193396e-002
3.058677e+003;2.204961e-002
3.060606e+003;2.221871e-002
3.062534e+003;2.204811e-002
3.064463e+003;2.156961e-002
3.066391e+003;2.137003e-002
3.068320e+003;2.142283e-002
3.070248e+003;2.111074e-002
3.072177e+003;2.066423e-002
3.074105e+003;2.011742e-002
3.076034e+003;1.970116e-002
3.077963e+003;1.956932e-002
3.079891e+003;1.912810e-002
3.081820e+003;1.902922e-002
3.083748e+003;1.918884e-002
3.085677e+003;1.901527e-002
3.087605e+003;1.849059e-002
3.089534e+003;1.810804e-002
3.091462e+003;1.800431e-002
3.093391e+003;1.779024e-002
3.095320e+003;1.767458e-002
3.097248e+003;1.771151e-002
3.099177e+003;1.765574e-002
3.101105e+003;1.717157e-002
3.103034e+003;1.697586e-002
3.104962e+003;1.696149e-002
3.106891e+003;1.641640e-002
3.108819e+003;1.607642e-002
3.110748e+003;1.641317e-002
3.112677e+003;1.626863e-002
3.114605e+003;1.561084e-002
3.116533e+003;1.528951e-002
3.118462e+003;1.536042e-002
3.120391e+003;1.532939e-002
3.122319e+003;1.526782e-002
3.124248e+003;1.522173e-002
3.126176e+003;1.493124e-002
3.128105e+003;1.473276e-002
3.130033e+003;1.458639e-002
3.131962e+003;1.487480e-002
3.133890e+003;1.524953e-002
3.135819e+003;1.503200e-002
3.137748e+003;1.472039e-002
3.139676e+003;1.462048e-002
3.141605e+003;1.420473e-002
3.143533e+003;1.407175e-002
3.145462e+003;1.418536e-002
3.147390e+003;1.416352e-002
3.149319e+003;1.429345e-002
3.151247e+003;1.429143e-002
3.153176e+003;1.385995e-002
3.155104e+003;1.362158e-002
3.157033e+003;1.368959e-002
3.158962e+003;1.378425e-002
3.160890e+003;1.407329e-002
3.162819e+003;1.418169e-002
3.164747e+003;1.402733e-002
3.166676e+003;1.359576e-002
3.168604e+003;1.320640e-002
3.170533e+003;1.329150e-002
3.172461e+003;1.357501e-002
3.174390e+003;1.396577e-002
3.176319e+003;1.430098e-002
3.178247e+003;1.457357e-002
3.180176e+003;1.481823e-002
3.182104e+003;1.480228e-002
3.184033e+003;1.443897e-002
3.185961e+003;1.426890e-002
3.187890e+003;1.449727e-002
3.189818e+003;1.441708e-002
3.191747e+003;1.447110e-002
3.193676e+003;1.482272e-002
3.195604e+003;1.488032e-002
3.197532e+003;1.487017e-002
3.199461e+003;1.488646e-002
3.201390e+003;1.494050e-002
3.203318e+003;1.486904e-002
3.205247e+003;1.461185e-002
3.207175e+003;1.461833e-002
3.209104e+003;1.510977e-002
3.211032e+003;1.555884e-002
3.212961e+003;1.547341e-002
3.214889e+003;1.512559e-002
3.216818e+003;1.538850e-002
3.218747e+003;1.528004e-002
3.220675e+003;1.487435e-002
3.222604e+003;1.519599e-002
3.224532e+003;1.588357e-002
3.226461e+003;1.602994e-002
3.228389e+003;1.606060e-002
3.230318e+003;1.600828e-002
3.232246e+003;1.567003e-002
3.234175e+003;1.543458e-002
3.236104e+003;1.557059e-002
3.238032e+003;1.602774e-002
3.239961e+003;1.630080e-002
3.241889e+003;1.612260e-002
3.243818e+003;1.592970e-002
3.245746e+003;1.633486e-002
3.247675e+003;1.684244e-002
3.249603e+003;1.670727e-002
3.251532e+003;1.618481e-002
3.253460e+003;1.608196e-002
3.255389e+003;1.650815e-002
3.257318e+003;1.661104e-002
3.259246e+003;1.629629e-002
3.261175e+003;1.633031e-002
3.263103e+003;1.643739e-002
3.265032e+003;1.642242e-002
3.266960e+003;1.635870e-002
3.268889e+003;1.660907e-002
3.270817e+003;1.671798e-002
3.272746e+003;1.661303e-002
3.274675e+003;1.619042e-002
3.276603e+003;1.580158e-002
3.278531e+003;1.574296e-002
3.280460e+003;1.612920e-002
3.282389e+003;1.647704e-002
3.284317e+003;1.635674e-002
3.286246e+003;1.598225e-002
3.288174e+003;1.573798e-002
3.290103e+003;1.565484e-002
3.292031e+003;1.541041e-002
3.293960e+003;1.516034e-002
3.295888e+003;1.529298e-002
3.297817e+003;1.559868e-002
3.299746e+003;1.562716e-002
3.301674e+003;1.542077e-002
3.303603e+003;1.523021e-002
3.305531e+003;1.504387e-002
3.307460e+003;1.469348e-002
3.309388e+003;1.454349e-002
3.311317e+003;1.443363e-002
3.313245e+003;1.463227e-002
3.315174e+003;1.464365e-002
3.317103e+003;1.454966e-002
3.319031e+003;1.433300e-002
3.320960e+003;1.427698e-002
3.322888e+003;1.448521e-002
3.324817e+003;1.433005e-002
3.326745e+003;1.415444e-002
3.328674e+003;1.387845e-002
3.330602e+003;1.365389e-002
3.332531e+003;1.367882e-002
3.334459e+003;1.372433e-002
3.336388e+003;1.379225e-002
3.338317e+003;1.347975e-002
3.340245e+003;1.323950e-002
3.342174e+003;1.351970e-002
3.344102e+003;1.381209e-002
3.346031e+003;1.336957e-002
3.347959e+003;1.312659e-002
3.349888e+003;1.318256e-002
3.351816e+003;1.310029e-002
3.353745e+003;1.277453e-002
3.355674e+003;1.283121e-002
3.357602e+003;1.317765e-002
3.359531e+003;1.289193e-002
3.361459e+003;1.215390e-002
3.363388e+003;1.227458e-002
3.365316e+003;1.236723e-002
3.367245e+003;1.208453e-002
3.369173e+003;1.200155e-002
3.371102e+003;1.176229e-002
3.373031e+003;1.137522e-002
3.374959e+003;1.126445e-002
3.376887e+003;1.133753e-002
3.378816e+003;1.134906e-002
3.380745e+003;1.100854e-002
3.382673e+003;1.036833e-002
3.384602e+003;1.024316e-002
3.386530e+003;1.070010e-002
3.388459e+003;1.097812e-002
3.390387e+003;1.032764e-002
3.392316e+003;9.375250e-003
3.394244e+003;9.496137e-003
3.396173e+003;1.006435e-002
3.398102e+003;1.023797e-002
3.400030e+003;9.760037e-003
3.401959e+003;9.059681e-003
3.403887e+003;9.261200e-003
3.405816e+003;9.759665e-003
3.407744e+003;9.979613e-003
3.409673e+003;9.930828e-003
3.411601e+003;9.505280e-003
3.413530e+003;9.403285e-003
3.415458e+003;9.611501e-003
3.417387e+003;9.766814e-003
3.419316e+003;9.987614e-003
3.421244e+003;9.977646e-003
3.423173e+003;9.752276e-003
3.425101e+003;9.755394e-003
3.427030e+003;9.917946e-003
3.428958e+003;9.700433e-003
3.430887e+003;9.207689e-003
3.432815e+003;9.380701e-003
3.434744e+003;9.953372e-003
3.436673e+003;1.050385e-002
3.438601e+003;1.079544e-002
3.440530e+003;1.027044e-002
3.442458e+003;9.926251e-003
3.444387e+003;1.025029e-002
3.446315e+003;1.027807e-002
3.448244e+003;1.069280e-002
3.450172e+003;1.139100e-002
3.452101e+003;1.108746e-002
3.454030e+003;1.069473e-002
3.455958e+003;1.079839e-002
3.457886e+003;1.102617e-002
3.459815e+003;1.118016e-002
3.461744e+003;1.114558e-002
3.463672e+003;1.106567e-002
3.465601e+003;1.123405e-002
3.467529e+003;1.117149e-002
3.469458e+003;1.120134e-002
3.471386e+003;1.146829e-002
3.473315e+003;1.138202e-002
3.475243e+003;1.126734e-002
3.477172e+003;1.125557e-002
3.479101e+003;1.101561e-002
3.481029e+003;1.082231e-002
3.482958e+003;1.110506e-002
3.484886e+003;1.155086e-002
3.486815e+003;1.186345e-002
3.488743e+003;1.183447e-002
3.490672e+003;1.145294e-002
3.492600e+003;1.126044e-002
3.494529e+003;1.142063e-002
3.496458e+003;1.091356e-002
3.498386e+003;1.101013e-002
3.500315e+003;1.159929e-002
3.502243e+003;1.158816e-002
3.504172e+003;1.146196e-002
3.506100e+003;1.195069e-002
3.508029e+003;1.215022e-002
3.509957e+003;1.208528e-002
3.511886e+003;1.214456e-002
3.513814e+003;1.229469e-002
3.515743e+003;1.241932e-002
3.517672e+003;1.229162e-002
3.519600e+003;1.221991e-002
3.521529e+003;1.254904e-002
3.523457e+003;1.276409e-002
3.525386e+003;1.265730e-002
3.527314e+003;1.235822e-002
3.529243e+003;1.273229e-002
3.531171e+003;1.312392e-002
3.533100e+003;1.318605e-002
3.535029e+003;1.371445e-002
3.536957e+003;1.428653e-002
3.538885e+003;1.412946e-002
3.540814e+003;1.370159e-002
3.542743e+003;1.313994e-002
3.544671e+003;1.245829e-002
3.546600e+003;1.261749e-002
3.548528e+003;1.321723e-002
3.550457e+003;1.275164e-002
3.552385e+003;1.227123e-002
3.554314e+003;1.229346e-002
3.556242e+003;1.227519e-002
3.558171e+003;1.202314e-002
3.560100e+003;1.180025e-002
3.562028e+003;1.176168e-002
3.563957e+003;1.147125e-002
3.565885e+003;1.063161e-002
3.567814e+003;1.008859e-002
3.569742e+003;1.064261e-002
3.571671e+003;1.114851e-002
3.573599e+003;1.121429e-002
3.575528e+003;1.109191e-002
3.577457e+003;1.107821e-002
3.579385e+003;1.132797e-002
3.581314e+003;1.111703e-002
3.583242e+003;1.048912e-002
3.585171e+003;9.959067e-003
3.587099e+003;9.753260e-003
3.589028e+003;1.045518e-002
3.590956e+003;1.118097e-002
3.592885e+003;1.128543e-002
3.594813e+003;1.132553e-002
3.596742e+003;1.181894e-002
3.598671e+003;1.182061e-002
3.600599e+003;1.148819e-002
3.602528e+003;1.216917e-002
3.604456e+003;1.270445e-002
3.606385e+003;1.241468e-002
3.608313e+003;1.176658e-002
3.610242e+003;1.211124e-002
3.612170e+003;1.252383e-002
3.614099e+003;1.271516e-002
3.616028e+003;1.262564e-002
3.617956e+003;1.196844e-002
3.619885e+003;1.217424e-002
3.621813e+003;1.293931e-002
3.623742e+003;1.305556e-002
3.625670e+003;1.278125e-002
3.627599e+003;1.059918e-002
3.629527e+003;1.013404e-002
3.631456e+003;1.202689e-002
3.633385e+003;1.248329e-002
3.635313e+003;1.227025e-002
3.637241e+003;1.205605e-002
3.639170e+003;1.210538e-002
3.641099e+003;1.195505e-002
3.643027e+003;1.167719e-002
3.644956e+003;1.089341e-002
3.646884e+003;8.758473e-003
3.648813e+003;6.995669e-003
3.650741e+003;7.334913e-003
3.652670e+003;8.509338e-003
3.654598e+003;7.967893e-003
3.656527e+003;7.014660e-003
3.658456e+003;6.795972e-003
3.660384e+003;6.658203e-003
3.662313e+003;6.210035e-003
3.664241e+003;5.465278e-003
3.666170e+003;4.517282e-003
3.668098e+003;2.596076e-003
3.670027e+003;1.336960e-003
3.671955e+003;2.201829e-003
3.673884e+003;1.787411e-003
3.675813e+003;1.634393e-003
3.677741e+003;2.918022e-003
3.679669e+003;2.374536e-003
3.681598e+003;1.367904e-003
3.683527e+003;1.183835e-003
3.685455e+003;6.802441e-004
3.687384e+003;-1.293348e-003
3.689312e+003;-1.610340e-003
3.691241e+003;-3.821655e-004
3.693169e+003;4.423990e-004
3.695098e+003;5.932392e-004
3.697026e+003;5.973535e-004
3.698955e+003;2.262650e-004
3.700884e+003;-2.419105e-004
3.702812e+003;-4.638763e-007
3.704741e+003;8.857632e-005
3.706669e+003;7.356380e-005
3.708598e+003;-1.628564e-004
3.710526e+003;-9.616441e-004
3.712455e+003;-1.179559e-003
3.714383e+003;-1.291373e-004
3.716312e+003;3.811424e-004
3.718240e+003;1.194978e-004
3.720169e+003;-4.848778e-004
3.722098e+003;-7.716354e-004
3.724026e+003;-9.800255e-004
3.725955e+003;-1.147604e-003
3.727883e+003;-4.410220e-004
3.729812e+003;-4.323827e-004
3.731740e+003;-1.296520e-003
3.733669e+003;-1.780217e-003
3.735597e+003;-2.261860e-003
3.737526e+003;-1.150446e-003
3.739455e+003;-2.891639e-004
3.741383e+003;-1.297907e-003
3.743312e+003;-4.331380e-003
3.745240e+003;-3.924174e-003
3.747169e+003;-1.791139e-003
3.749097e+003;-2.831826e-003
3.751026e+003;-3.741962e-003
3.752954e+003;-2.533249e-003
3.754883e+003;-5.441837e-004
3.756812e+003;4.234737e-005
3.758740e+003;-2.407183e-004
3.760668e+003;-3.219104e-004
3.762597e+003;1.338822e-004
3.764526e+003;-8.713378e-005
3.766454e+003;-3.056533e-004
3.768383e+003;-6.372631e-004
3.770311e+003;-5.792604e-004
3.772240e+003;7.150914e-005
3.774168e+003;1.979879e-004
3.776097e+003;-5.420391e-005
3.778025e+003;-3.249565e-004
3.779954e+003;-1.410949e-004
3.781883e+003;3.567018e-004
3.783811e+003;3.640969e-004
3.785740e+003;6.910629e-004
3.787668e+003;7.325816e-004
3.789597e+003;6.359431e-004
3.791525e+003;5.690522e-004
3.793454e+003;4.010076e-004
3.795382e+003;3.701230e-005
3.797311e+003;2.704248e-004
3.799240e+003;-4.012666e-004
3.801168e+003;-1.376854e-003
3.803097e+003;-2.898261e-004
3.805025e+003;-2.037266e-004
3.806954e+003;-7.991862e-004
3.808882e+003;5.990457e-004
3.810811e+003;1.504270e-003
3.812739e+003;1.238127e-003
3.814668e+003;-6.082131e-004
3.816596e+003;-1.255554e-003
3.818525e+003;-8.796456e-004
3.820454e+003;-1.403739e-003
3.822382e+003;-4.306283e-004
3.824311e+003;4.150696e-004
3.826239e+003;1.746199e-005
3.828168e+003;2.017910e-005
3.830096e+003;1.612933e-004
3.832025e+003;2.288177e-004
3.833953e+003;-3.791198e-004
3.835882e+003;-1.973809e-003
3.837811e+003;-2.301412e-003
3.839739e+003;-3.115139e-004
3.841667e+003;4.995509e-004
3.843596e+003;5.730666e-004
3.845525e+003;7.407132e-004
3.847453e+003;7.991990e-004
3.849382e+003;2.246075e-004
3.851310e+003;-2.191612e-003
3.853239e+003;-4.346962e-003
3.855167e+003;-2.100118e-003
3.857096e+003;4.454836e-004
3.859024e+003;6.780207e-004
3.860953e+003;6.863836e-004
3.862882e+003;6.386973e-004
3.864810e+003;4.682707e-004
3.866739e+003;5.732989e-004
3.868667e+003;-2.232991e-004
3.870596e+003;-5.059273e-005
3.872524e+003;7.774900e-004
3.874453e+003;8.365783e-004
3.876381e+003;1.194965e-003
3.878310e+003;1.103871e-003
3.880239e+003;5.970549e-004
3.882167e+003;4.806100e-004
3.884096e+003;1.618900e-004
3.886024e+003;2.872346e-004
3.887953e+003;7.500731e-004
3.889881e+003;7.663703e-004
3.891810e+003;1.294818e-003
3.893738e+003;1.704841e-003
3.895667e+003;1.479168e-003
3.897595e+003;7.867178e-004
3.899524e+003;-1.382463e-004
3.901453e+003;-3.690888e-004
3.903381e+003;2.592518e-004
3.905310e+003;1.362652e-003
3.907238e+003;2.023697e-003
3.909167e+003;1.965912e-003
3.911095e+003;1.643140e-003
3.913024e+003;1.931630e-003
3.914952e+003;1.772506e-003
3.916881e+003;1.511219e-003
3.918810e+003;2.180949e-003
3.920738e+003;2.404388e-003
3.922667e+003;2.209022e-003
3.924595e+003;2.157772e-003
3.926524e+003;2.320835e-003
3.928452e+003;2.307011e-003
3.930381e+003;2.195202e-003
3.932309e+003;2.025628e-003
3.934238e+003;2.302913e-003
3.936167e+003;2.566044e-003
3.938095e+003;2.457134e-003
3.940023e+003;1.932429e-003
3.941952e+003;1.786579e-003
3.943881e+003;2.437441e-003
3.945809e+003;2.676715e-003
3.947738e+003;2.131100e-003
3.949666e+003;1.897218e-003
3.951595e+003;2.578943e-003
3.953523e+003;3.021009e-003
3.955452e+003;3.357194e-003
3.957380e+003;3.546062e-003
3.959309e+003;3.233231e-003
3.961238e+003;2.851746e-003
3.963166e+003;2.693718e-003
3.965095e+003;2.899342e-003
3.967023e+003;2.817828e-003
3.968952e+003;2.423213e-003
3.970880e+003;2.579143e-003
3.972809e+003;3.052774e-003
3.974737e+003;2.861351e-003
3.976666e+003;2.899843e-003
3.978594e+003;3.126623e-003
3.980523e+003;3.452436e-003
3.982452e+003;3.975036e-003
3.984380e+003;3.950159e-003
3.986309e+003;3.228724e-003
3.988237e+003;3.066488e-003
3.990166e+003;2.965626e-003
3.992094e+003;2.913452e-003
3.994023e+003;3.801825e-003
3.995951e+003;4.111822e-003
3.997880e+003;4.009446e-003
3.999809e+003;4.209906e-003
4.001737e+003;0.000000e+000
