3.992094e+002;0.000000e+000
4.011380e+002;0.000000e+000
4.030665e+002;0.000000e+000
4.049951e+002;0.000000e+000
4.069236e+002;0.000000e+000
4.088522e+002;0.000000e+000
4.107807e+002;0.000000e+000
4.127093e+002;0.000000e+000
4.146378e+002;0.000000e+000
4.165664e+002;0.000000e+000
4.184949e+002;0.000000e+000
4.204235e+002;0.000000e+000
4.223520e+002;0.000000e+000
4.242806e+002;0.000000e+000
4.262091e+002;0.000000e+000
4.281377e+002;0.000000e+000
4.300662e+002;0.000000e+000
4.319948e+002;0.000000e+000
4.339233e+002;0.000000e+000
4.358519e+002;0.000000e+000
4.377804e+002;0.000000e+000
4.397090e+002;0.000000e+000
4.416375e+002;0.000000e+000
4.435660e+002;0.000000e+000
4.454946e+002;0.000000e+000
4.474232e+002;0.000000e+000
4.493517e+002;0.000000e+000
4.512802e+002;0.000000e+000
4.532088e+002;0.000000e+000
4.551373e+002;0.000000e+000
4.570659e+002;0.000000e+000
4.589944e+002;0.000000e+000
4.609230e+002;0.000000e+000
4.628515e+002;0.000000e+000
4.647801e+002;0.000000e+000
4.667086e+002;0.000000e+000
4.686372e+002;0.000000e+000
4.705657e+002;0.000000e+000
4.724943e+002;0.000000e+000
4.744228e+002;0.000000e+000
4.763513e+002;0.000000e+000
4.782799e+002;0.000000e+000
4.802085e+002;0.000000e+000
4.821370e+002;0.000000e+000
4.840656e+002;0.000000e+000
4.859941e+002;0.000000e+000
4.879226e+002;0.000000e+000
4.898512e+002;0.000000e+000
4.917798e+002;0.000000e+000
4.937083e+002;0.000000e+000
4.956368e+002;0.000000e+000
4.975654e+002;0.000000e+000
4.994939e+002;0.000000e+000
5.014225e+002;0.000000e+000
5.033510e+002;0.000000e+000
5.052796e+002;0.000000e+000
5.072081e+002;0.000000e+000
5.091367e+002;0.000000e+000
5.110652e+002;0.000000e+000
5.129938e+002;0.000000e+000
5.149223e+002;0.000000e+000
5.168509e+002;0.000000e+000
5.187794e+002;0.000000e+000
5.207079e+002;0.000000e+000
5.226365e+002;0.000000e+000
5.245651e+002;0.000000e+000
5.264936e+002;0.000000e+000
5.284222e+002;0.000000e+000
5.303507e+002;0.000000e+000
5.322792e+002;0.000000e+000
5.342078e+002;0.000000e+000
5.361364e+002;0.000000e+000
5.380649e+002;0.000000e+000
5.399935e+002;0.000000e+000
5.419220e+002;0.000000e+000
5.438505e+002;0.000000e+000
5.457791e+002;0.000000e+000
5.477076e+002;0.000000e+000
5.496362e+002;0.000000e+000
5.515648e+002;0.000000e+000
5.534933e+002;0.000000e+000
5.554218e+002;0.000000e+000
5.573504e+002;0.000000e+000
5.592789e+002;0.000000e+000
5.612075e+002;0.000000e+000
5.631360e+002;0.000000e+000
5.650646e+002;0.000000e+000
5.669931e+002;0.000000e+000
5.689217e+002;0.000000e+000
5.708502e+002;0.000000e+000
5.727787e+002;0.000000e+000
5.747073e+002;0.000000e+000
5.766359e+002;0.000000e+000
5.785644e+002;0.000000e+000
5.804930e+002;0.000000e+000
5.824215e+002;0.000000e+000
5.843500e+002;0.000000e+000
5.862786e+002;0.000000e+000
5.882072e+002;0.000000e+000
5.901357e+002;0.000000e+000
5.920643e+002;0.000000e+000
5.939928e+002;0.000000e+000
5.959213e+002;0.000000e+000
5.978499e+002;0.000000e+000
5.997784e+002;4.769762e-002
6.017070e+002;4.571287e-002
6.036355e+002;5.247572e-002
6.055641e+002;5.686186e-002
6.074926e+002;5.345591e-002
6.094211e+002;5.045861e-002
6.113497e+002;4.859895e-002
6.132783e+002;4.579405e-002
6.152068e+002;4.511480e-002
6.171354e+002;4.556131e-002
6.190639e+002;4.721297e-002
6.209924e+002;4.667812e-002
6.229210e+002;4.509686e-002
6.248495e+002;4.571460e-002
6.267781e+002;4.399264e-002
6.287067e+002;4.067389e-002
6.306352e+002;4.134488e-002
6.325637e+002;3.965363e-002
6.344923e+002;3.841573e-002
6.364208e+002;4.012203e-002
6.383494e+002;4.284424e-002
6.402780e+002;4.218959e-002
6.422065e+002;4.033777e-002
6.441350e+002;3.749394e-002
6.460636e+002;3.763747e-002
6.479921e+002;3.952623e-002
6.499207e+002;4.067546e-002
6.518492e+002;3.879431e-002
6.537778e+002;3.701790e-002
6.557063e+002;3.645790e-002
6.576349e+002;3.692092e-002
6.595634e+002;3.692647e-002
6.614919e+002;3.776002e-002
6.634205e+002;3.947209e-002
6.653491e+002;4.021566e-002
6.672776e+002;3.689336e-002
6.692062e+002;3.767621e-002
6.711347e+002;4.053437e-002
6.730632e+002;4.106162e-002
6.749918e+002;4.005517e-002
6.769203e+002;3.862236e-002
6.788489e+002;3.798880e-002
6.807775e+002;3.765413e-002
6.827060e+002;3.700797e-002
6.846345e+002;3.697940e-002
6.865631e+002;3.718301e-002
6.884916e+002;3.570775e-002
6.904202e+002;3.352287e-002
6.923488e+002;3.277487e-002
6.942773e+002;3.404432e-002
6.962058e+002;3.473321e-002
6.981344e+002;3.368307e-002
7.000629e+002;3.312178e-002
7.019915e+002;3.306603e-002
7.039200e+002;3.339968e-002
7.058486e+002;3.312754e-002
7.077771e+002;3.224679e-002
7.097057e+002;3.177176e-002
7.116342e+002;3.114899e-002
7.135627e+002;3.097463e-002
7.154913e+002;3.104001e-002
7.174199e+002;3.077040e-002
7.193484e+002;3.010669e-002
7.212770e+002;2.973671e-002
7.232055e+002;3.136594e-002
7.251340e+002;3.338866e-002
7.270626e+002;3.342072e-002
7.289911e+002;3.319688e-002
7.309197e+002;3.482208e-002
7.328483e+002;3.649333e-002
7.347768e+002;3.742130e-002
7.367053e+002;3.689433e-002
7.386339e+002;3.689603e-002
7.405624e+002;3.745128e-002
7.424910e+002;3.823709e-002
7.444196e+002;3.895002e-002
7.463481e+002;3.892306e-002
7.482766e+002;3.929218e-002
7.502052e+002;4.009809e-002
7.521337e+002;4.061000e-002
7.540623e+002;4.134896e-002
7.559908e+002;4.144016e-002
7.579194e+002;4.178684e-002
7.598479e+002;4.217998e-002
7.617765e+002;4.259421e-002
7.637050e+002;4.318552e-002
7.656335e+002;4.376145e-002
7.675621e+002;4.401391e-002
7.694907e+002;4.378465e-002
7.714192e+002;4.367105e-002
7.733478e+002;4.383094e-002
7.752763e+002;4.482444e-002
7.772048e+002;4.528356e-002
7.791334e+002;4.510594e-002
7.810620e+002;4.466192e-002
7.829905e+002;4.445694e-002
7.849191e+002;4.446311e-002
7.868476e+002;4.427547e-002
7.887761e+002;4.364493e-002
7.907047e+002;4.201581e-002
7.926332e+002;4.050425e-002
7.945618e+002;3.985846e-002
7.964903e+002;3.969505e-002
7.984189e+002;3.977983e-002
8.003474e+002;3.965193e-002
8.022759e+002;3.879029e-002
8.042045e+002;3.799487e-002
8.061331e+002;3.776070e-002
8.080616e+002;3.835966e-002
8.099902e+002;3.824643e-002
8.119187e+002;3.719813e-002
8.138472e+002;3.701299e-002
8.157758e+002;3.724076e-002
8.177043e+002;3.678920e-002
8.196329e+002;3.655312e-002
8.215615e+002;3.649181e-002
8.234900e+002;3.654764e-002
8.254185e+002;3.665196e-002
8.273471e+002;3.648399e-002
8.292756e+002;3.573516e-002
8.312042e+002;3.540941e-002
8.331328e+002;3.542984e-002
8.350613e+002;3.552734e-002
8.369898e+002;3.509670e-002
8.389184e+002;3.442822e-002
8.408469e+002;3.395313e-002
8.427755e+002;3.275378e-002
8.447040e+002;3.189762e-002
8.466326e+002;3.211294e-002
8.485611e+002;3.206686e-002
8.504897e+002;3.151057e-002
8.524182e+002;3.125719e-002
8.543467e+002;3.083567e-002
8.562753e+002;3.099236e-002
8.582039e+002;3.164979e-002
8.601324e+002;3.145282e-002
8.620610e+002;3.152799e-002
8.639895e+002;3.189263e-002
8.659180e+002;3.170845e-002
8.678466e+002;3.152610e-002
8.697751e+002;3.134710e-002
8.717037e+002;3.123461e-002
8.736323e+002;3.142218e-002
8.755608e+002;3.146646e-002
8.774893e+002;3.117242e-002
8.794179e+002;3.089444e-002
8.813464e+002;3.116491e-002
8.832750e+002;3.139191e-002
8.852036e+002;3.147359e-002
8.871321e+002;3.181408e-002
8.890606e+002;3.224147e-002
8.909892e+002;3.202319e-002
8.929177e+002;3.177347e-002
8.948463e+002;3.158083e-002
8.967748e+002;3.159694e-002
8.987034e+002;3.199056e-002
9.006319e+002;3.219583e-002
9.025605e+002;3.204823e-002
9.044890e+002;3.165609e-002
9.064175e+002;3.157463e-002
9.083461e+002;3.182983e-002
9.102747e+002;3.202055e-002
9.122032e+002;3.282503e-002
9.141318e+002;3.398538e-002
9.160603e+002;3.429378e-002
9.179888e+002;3.419386e-002
9.199174e+002;3.496589e-002
9.218459e+002;3.636631e-002
9.237745e+002;3.754798e-002
9.257031e+002;3.877453e-002
9.276316e+002;4.003849e-002
9.295601e+002;4.107703e-002
9.314887e+002;4.221730e-002
9.334172e+002;4.329570e-002
9.353458e+002;4.394388e-002
9.372744e+002;4.463515e-002
9.392029e+002;4.533833e-002
9.411314e+002;4.505470e-002
9.430600e+002;4.439759e-002
9.449885e+002;4.388581e-002
9.469171e+002;4.337965e-002
9.488456e+002;4.267024e-002
9.507742e+002;4.190790e-002
9.527027e+002;4.101792e-002
9.546313e+002;4.030683e-002
9.565598e+002;4.000064e-002
9.584883e+002;3.995275e-002
9.604169e+002;3.972820e-002
9.623455e+002;3.940587e-002
9.642740e+002;3.935388e-002
9.662026e+002;3.929091e-002
9.681311e+002;3.935287e-002
9.700596e+002;3.974992e-002
9.719882e+002;3.987564e-002
9.739167e+002;3.993019e-002
9.758453e+002;4.021889e-002
9.777739e+002;4.040391e-002
9.797024e+002;4.040031e-002
9.816309e+002;4.103606e-002
9.835595e+002;4.161523e-002
9.854880e+002;4.212865e-002
9.874166e+002;4.308134e-002
9.893452e+002;4.435785e-002
9.912737e+002;4.523319e-002
9.932022e+002;4.581824e-002
9.951307e+002;4.680077e-002
9.970593e+002;4.808905e-002
9.989879e+002;4.952734e-002
1.000916e+003;5.107348e-002
1.002845e+003;5.273461e-002
1.004773e+003;5.528470e-002
1.006702e+003;5.820186e-002
1.008631e+003;6.097469e-002
1.010559e+003;6.464334e-002
1.012488e+003;6.863626e-002
1.014416e+003;7.287477e-002
1.016345e+003;7.740181e-002
1.018273e+003;8.158765e-002
1.020202e+003;8.566041e-002
1.022130e+003;8.883905e-002
1.024059e+003;9.018091e-002
1.025988e+003;9.049928e-002
1.027916e+003;9.089545e-002
1.029845e+003;9.076913e-002
1.031773e+003;9.058646e-002
1.033702e+003;9.079163e-002
1.035630e+003;9.116966e-002
1.037559e+003;9.222639e-002
1.039487e+003;9.314738e-002
1.041416e+003;9.306116e-002
1.043344e+003;9.206482e-002
1.045273e+003;9.071404e-002
1.047202e+003;8.991347e-002
1.049130e+003;8.899435e-002
1.051059e+003;8.805192e-002
1.052987e+003;8.772443e-002
1.054916e+003;8.727115e-002
1.056844e+003;8.693291e-002
1.058773e+003;8.717823e-002
1.060701e+003;8.780481e-002
1.062630e+003;8.935645e-002
1.064558e+003;9.083667e-002
1.066487e+003;9.182348e-002
1.068416e+003;9.264755e-002
1.070344e+003;9.283482e-002
1.072273e+003;9.227987e-002
1.074201e+003;9.122023e-002
1.076130e+003;8.987859e-002
1.078058e+003;8.838270e-002
1.079987e+003;8.657750e-002
1.081915e+003;8.435882e-002
1.083844e+003;8.180673e-002
1.085773e+003;7.944743e-002
1.087701e+003;7.725829e-002
1.089630e+003;7.512203e-002
1.091558e+003;7.274618e-002
1.093487e+003;7.072381e-002
1.095415e+003;6.887665e-002
1.097344e+003;6.701239e-002
1.099272e+003;6.545990e-002
1.101201e+003;6.421324e-002
1.103129e+003;6.328990e-002
1.105058e+003;6.250963e-002
1.106987e+003;6.089043e-002
1.108915e+003;5.939512e-002
1.110844e+003;5.807382e-002
1.112772e+003;5.661424e-002
1.114701e+003;5.561520e-002
1.116629e+003;5.437308e-002
1.118558e+003;5.254239e-002
1.120486e+003;5.124798e-002
1.122415e+003;4.953577e-002
1.124344e+003;4.765598e-002
1.126272e+003;4.555652e-002
1.128201e+003;4.328461e-002
1.130129e+003;4.148732e-002
1.132058e+003;3.961563e-002
1.133986e+003;3.743849e-002
1.135915e+003;3.499397e-002
1.137843e+003;3.268430e-002
1.139772e+003;3.103641e-002
1.141700e+003;3.000873e-002
1.143629e+003;2.946248e-002
1.145557e+003;2.978979e-002
1.147486e+003;2.980047e-002
1.149415e+003;2.931478e-002
1.151343e+003;2.898534e-002
1.153272e+003;2.869711e-002
1.155200e+003;2.852589e-002
1.157129e+003;2.862385e-002
1.159057e+003;2.920246e-002
1.160986e+003;3.020206e-002
1.162914e+003;3.080760e-002
1.164843e+003;3.137930e-002
1.166771e+003;3.231610e-002
1.168700e+003;3.366760e-002
1.170629e+003;3.558459e-002
1.172557e+003;3.793466e-002
1.174486e+003;3.996322e-002
1.176414e+003;4.150913e-002
1.178343e+003;4.288644e-002
1.180271e+003;4.426534e-002
1.182200e+003;4.578993e-002
1.184128e+003;4.700124e-002
1.186057e+003;4.870788e-002
1.187986e+003;5.049162e-002
1.189914e+003;5.184485e-002
1.191843e+003;5.343391e-002
1.193771e+003;5.522174e-002
1.195700e+003;5.703620e-002
1.197628e+003;5.918361e-002
1.199557e+003;6.183331e-002
1.201485e+003;6.483041e-002
1.203414e+003;6.781940e-002
1.205343e+003;7.103763e-002
1.207271e+003;7.483705e-002
1.209200e+003;7.959288e-002
1.211128e+003;8.497787e-002
1.213057e+003;9.103971e-002
1.214985e+003;9.728786e-002
1.216914e+003;1.033679e-001
1.218842e+003;1.099500e-001
1.220771e+003;1.166185e-001
1.222699e+003;1.226419e-001
1.224628e+003;1.279279e-001
1.226557e+003;1.319527e-001
1.228485e+003;1.351273e-001
1.230414e+003;1.374957e-001
1.232342e+003;1.386046e-001
1.234271e+003;1.388534e-001
1.236199e+003;1.381686e-001
1.238128e+003;1.357511e-001
1.240056e+003;1.332008e-001
1.241985e+003;1.303013e-001
1.243913e+003;1.261475e-001
1.245842e+003;1.217394e-001
1.247771e+003;1.169432e-001
1.249699e+003;1.117094e-001
1.251628e+003;1.062749e-001
1.253556e+003;1.003558e-001
1.255485e+003;9.433684e-002
1.257413e+003;8.823583e-002
1.259342e+003;8.240533e-002
1.261270e+003;7.732753e-002
1.263199e+003;7.291357e-002
1.265127e+003;6.934817e-002
1.267056e+003;6.647080e-002
1.268985e+003;6.353545e-002
1.270913e+003;6.073740e-002
1.272842e+003;5.828044e-002
1.274770e+003;5.607136e-002
1.276699e+003;5.373567e-002
1.278627e+003;5.152132e-002
1.280556e+003;4.963691e-002
1.282484e+003;4.830530e-002
1.284413e+003;4.702125e-002
1.286342e+003;4.594478e-002
1.288270e+003;4.546307e-002
1.290199e+003;4.516226e-002
1.292127e+003;4.481636e-002
1.294056e+003;4.432255e-002
1.295984e+003;4.421684e-002
1.297913e+003;4.432119e-002
1.299841e+003;4.434739e-002
1.301770e+003;4.471201e-002
1.303698e+003;4.518987e-002
1.305627e+003;4.545560e-002
1.307556e+003;4.547660e-002
1.309484e+003;4.557400e-002
1.311413e+003;4.589686e-002
1.313341e+003;4.628029e-002
1.315270e+003;4.669118e-002
1.317198e+003;4.675420e-002
1.319127e+003;4.673040e-002
1.321055e+003;4.690899e-002
1.322984e+003;4.699954e-002
1.324912e+003;4.686337e-002
1.326841e+003;4.718301e-002
1.328770e+003;4.787139e-002
1.330698e+003;4.868734e-002
1.332627e+003;4.950591e-002
1.334555e+003;5.044331e-002
1.336484e+003;5.130856e-002
1.338412e+003;5.240999e-002
1.340341e+003;5.411753e-002
1.342269e+003;5.632384e-002
1.344198e+003;5.847628e-002
1.346126e+003;6.041285e-002
1.348055e+003;6.246693e-002
1.349984e+003;6.458036e-002
1.351912e+003;6.663289e-002
1.353841e+003;6.880483e-002
1.355769e+003;7.095136e-002
1.357698e+003;7.310981e-002
1.359626e+003;7.487851e-002
1.361555e+003;7.639287e-002
1.363483e+003;7.824877e-002
1.365412e+003;7.997594e-002
1.367341e+003;8.074980e-002
1.369269e+003;8.071437e-002
1.371198e+003;8.011132e-002
1.373126e+003;7.870397e-002
1.375055e+003;7.703643e-002
1.376983e+003;7.486422e-002
1.378912e+003;7.133664e-002
1.380840e+003;6.699225e-002
1.382769e+003;6.227643e-002
1.384698e+003;5.716159e-002
1.386626e+003;5.204397e-002
1.388555e+003;4.887708e-002
1.390483e+003;4.657859e-002
1.392412e+003;4.346351e-002
1.394340e+003;4.054739e-002
1.396269e+003;3.938773e-002
1.398197e+003;3.880427e-002
1.400126e+003;3.864072e-002
1.402054e+003;3.881641e-002
1.403983e+003;3.832524e-002
1.405911e+003;3.806861e-002
1.407840e+003;3.838510e-002
1.409769e+003;3.873378e-002
1.411697e+003;3.912167e-002
1.413626e+003;3.998534e-002
1.415554e+003;4.087480e-002
1.417483e+003;4.056744e-002
1.419411e+003;4.151270e-002
1.421340e+003;4.604670e-002
1.423268e+003;5.028659e-002
1.425197e+003;5.385789e-002
1.427125e+003;5.769263e-002
1.429054e+003;6.129909e-002
1.430983e+003;6.575776e-002
1.432911e+003;7.107380e-002
1.434840e+003;7.538366e-002
1.436768e+003;8.049038e-002
1.438697e+003;8.919038e-002
1.440625e+003;9.678462e-002
1.442554e+003;1.025001e-001
1.444482e+003;1.076039e-001
1.446411e+003;1.117083e-001
1.448340e+003;1.147894e-001
1.450268e+003;1.168728e-001
1.452197e+003;1.160298e-001
1.454125e+003;1.109239e-001
1.456054e+003;1.009975e-001
1.457982e+003;9.298038e-002
1.459911e+003;8.658846e-002
1.461839e+003;7.691388e-002
1.463768e+003;6.504377e-002
1.465697e+003;5.561493e-002
1.467625e+003;4.949841e-002
1.469554e+003;4.371315e-002
1.471482e+003;3.781626e-002
1.473411e+003;3.519273e-002
1.475339e+003;3.499785e-002
1.477268e+003;3.412482e-002
1.479196e+003;3.298159e-002
1.481125e+003;3.140680e-002
1.483053e+003;3.022419e-002
1.484982e+003;2.926444e-002
1.486911e+003;2.817775e-002
1.488839e+003;2.696662e-002
1.490768e+003;2.670355e-002
1.492696e+003;2.730402e-002
1.494625e+003;2.589153e-002
1.496553e+003;2.450715e-002
1.498482e+003;2.573576e-002
1.500410e+003;2.712421e-002
1.502339e+003;2.737431e-002
1.504267e+003;2.411549e-002
1.506196e+003;2.035119e-002
1.508125e+003;2.305239e-002
1.510053e+003;2.708538e-002
1.511982e+003;2.837352e-002
1.513910e+003;2.873719e-002
1.515839e+003;2.819731e-002
1.517767e+003;2.824985e-002
1.519696e+003;2.669703e-002
1.521624e+003;2.539277e-002
1.523553e+003;2.779054e-002
1.525481e+003;2.896615e-002
1.527410e+003;2.992047e-002
1.529339e+003;3.105534e-002
1.531267e+003;3.079177e-002
1.533196e+003;2.952376e-002
1.535124e+003;3.077477e-002
1.537053e+003;2.965230e-002
1.538981e+003;2.511379e-002
1.540910e+003;2.533983e-002
1.542838e+003;2.823129e-002
1.544767e+003;2.992288e-002
1.546695e+003;3.142892e-002
1.548624e+003;3.149596e-002
1.550553e+003;3.105029e-002
1.552481e+003;3.013049e-002
1.554410e+003;2.867379e-002
1.556338e+003;2.582057e-002
1.558267e+003;2.068775e-002
1.560195e+003;2.264217e-002
1.562124e+003;2.854500e-002
1.564052e+003;3.004263e-002
1.565981e+003;2.991997e-002
1.567910e+003;2.906328e-002
1.569838e+003;2.840108e-002
1.571767e+003;2.991944e-002
1.573695e+003;2.921830e-002
1.575624e+003;2.634109e-002
1.577552e+003;2.800441e-002
1.579481e+003;3.060035e-002
1.581409e+003;3.108150e-002
1.583338e+003;3.114593e-002
1.585266e+003;3.126627e-002
1.587195e+003;3.175084e-002
1.589124e+003;3.209657e-002
1.591052e+003;3.254632e-002
1.592981e+003;3.321655e-002
1.594909e+003;3.427564e-002
1.596838e+003;3.488714e-002
1.598766e+003;3.491461e-002
1.600695e+003;3.457864e-002
1.602623e+003;3.424136e-002
1.604552e+003;3.393801e-002
1.606480e+003;3.383255e-002
1.608409e+003;3.379680e-002
1.610338e+003;3.397656e-002
1.612266e+003;3.415027e-002
1.614195e+003;3.262468e-002
1.616123e+003;3.016647e-002
1.618052e+003;3.214256e-002
1.619980e+003;3.464104e-002
1.621909e+003;3.407722e-002
1.623837e+003;3.409048e-002
1.625766e+003;3.512307e-002
1.627694e+003;3.546550e-002
1.629623e+003;3.627243e-002
1.631552e+003;3.693964e-002
1.633480e+003;3.496363e-002
1.635409e+003;3.261182e-002
1.637337e+003;3.492032e-002
1.639266e+003;3.754447e-002
1.641194e+003;3.813257e-002
1.643123e+003;3.755163e-002
1.645051e+003;3.520377e-002
1.646980e+003;3.489551e-002
1.648909e+003;3.676165e-002
1.650837e+003;3.333041e-002
1.652766e+003;2.812133e-002
1.654694e+003;3.276954e-002
1.656623e+003;3.809610e-002
1.658551e+003;3.901356e-002
1.660480e+003;3.850667e-002
1.662408e+003;3.777947e-002
1.664337e+003;3.839824e-002
1.666266e+003;3.845258e-002
1.668194e+003;3.667853e-002
1.670123e+003;3.640688e-002
1.672051e+003;3.751370e-002
1.673980e+003;3.655078e-002
1.675908e+003;3.633443e-002
1.677837e+003;3.793846e-002
1.679765e+003;3.779906e-002
1.681694e+003;3.576682e-002
1.683622e+003;3.129995e-002
1.685551e+003;3.214613e-002
1.687479e+003;3.570314e-002
1.689408e+003;3.597637e-002
1.691337e+003;3.558646e-002
1.693265e+003;3.343758e-002
1.695194e+003;2.896955e-002
1.697122e+003;2.860148e-002
1.699051e+003;2.711526e-002
1.700979e+003;2.687877e-002
1.702908e+003;3.054901e-002
1.704836e+003;3.096691e-002
1.706765e+003;3.160834e-002
1.708693e+003;3.373370e-002
1.710622e+003;3.648936e-002
1.712551e+003;3.901352e-002
1.714479e+003;4.147949e-002
1.716408e+003;4.425852e-002
1.718336e+003;5.138673e-002
1.720265e+003;6.144743e-002
1.722193e+003;6.945629e-002
1.724122e+003;7.654816e-002
1.726050e+003;8.345979e-002
1.727979e+003;8.874825e-002
1.729908e+003;9.258956e-002
1.731836e+003;9.364191e-002
1.733765e+003;9.302483e-002
1.735693e+003;9.632100e-002
1.737622e+003;9.745703e-002
1.739550e+003;9.405844e-002
1.741479e+003;9.059369e-002
1.743407e+003;8.610429e-002
1.745336e+003;8.052699e-002
1.747265e+003;7.360859e-002
1.749193e+003;6.567311e-002
1.751122e+003;5.822213e-002
1.753050e+003;5.304542e-002
1.754979e+003;4.658346e-002
1.756907e+003;3.933531e-002
1.758836e+003;3.300050e-002
1.760764e+003;2.628603e-002
1.762693e+003;2.146864e-002
1.764621e+003;1.839182e-002
1.766550e+003;1.463310e-002
1.768479e+003;1.159840e-002
1.770407e+003;8.729027e-003
1.772336e+003;6.127192e-003
1.774264e+003;6.475847e-003
1.776193e+003;7.138394e-003
1.778121e+003;6.606459e-003
1.780050e+003;5.611664e-003
1.781978e+003;5.249112e-003
1.783907e+003;4.813284e-003
1.785835e+003;4.467265e-003
1.787764e+003;4.598781e-003
1.789693e+003;3.539081e-003
1.791621e+003;1.967210e-003
1.793550e+003;2.529515e-003
1.795478e+003;3.876169e-003
1.797407e+003;3.606063e-003
1.799335e+003;2.771208e-003
1.801264e+003;2.490157e-003
1.803192e+003;2.923593e-003
1.805121e+003;3.191205e-003
1.807049e+003;3.377129e-003
1.808978e+003;3.207361e-003
1.810907e+003;3.034555e-003
1.812835e+003;3.032153e-003
1.814764e+003;2.993250e-003
1.816692e+003;2.807690e-003
1.818621e+003;2.765205e-003
1.820549e+003;2.739497e-003
1.822478e+003;2.565911e-003
1.824406e+003;1.921313e-003
1.826335e+003;2.015841e-003
1.828264e+003;1.833560e-003
1.830192e+003;1.547363e-003
1.832121e+003;2.052659e-003
1.834049e+003;2.474162e-003
1.835978e+003;2.701420e-003
1.837906e+003;2.731061e-003
1.839835e+003;2.575610e-003
1.841763e+003;1.620258e-003
1.843692e+003;2.537152e-004
1.845620e+003;1.021929e-003
1.847549e+003;1.977395e-003
1.849478e+003;2.085985e-003
1.851406e+003;2.323067e-003
1.853335e+003;2.385664e-003
1.855263e+003;2.354914e-003
1.857192e+003;2.338090e-003
1.859120e+003;2.149281e-003
1.861049e+003;2.127571e-003
1.862977e+003;2.054191e-003
1.864906e+003;1.725399e-003
1.866834e+003;9.916403e-004
1.868763e+003;4.481039e-004
1.870692e+003;7.793156e-004
1.872620e+003;1.257300e-003
1.874549e+003;1.379936e-003
1.876477e+003;1.267170e-003
1.878406e+003;1.131476e-003
1.880334e+003;1.083475e-003
1.882263e+003;8.173570e-004
1.884191e+003;7.587693e-004
1.886120e+003;7.518986e-004
1.888048e+003;2.519580e-004
1.889977e+003;-9.322918e-005
1.891906e+003;1.000763e-004
1.893834e+003;4.383855e-005
1.895763e+003;1.334513e-004
1.897691e+003;1.135983e-004
1.899620e+003;-1.428174e-004
1.901548e+003;-1.515618e-004
1.903477e+003;1.923857e-004
1.905405e+003;-2.716906e-005
1.907334e+003;-3.304857e-004
1.909262e+003;-3.573361e-004
1.911191e+003;-2.272069e-004
1.913120e+003;-1.027154e-006
1.915048e+003;-9.246726e-005
1.916977e+003;-9.013040e-004
1.918905e+003;-1.085505e-003
1.920834e+003;-7.396174e-004
1.922762e+003;-8.200218e-004
1.924691e+003;-6.329620e-004
1.926619e+003;-3.779611e-004
1.928548e+003;-2.650908e-004
1.930477e+003;-3.447553e-004
1.932405e+003;-5.447132e-004
1.934334e+003;-7.330349e-004
1.936262e+003;-7.471591e-004
1.938191e+003;-6.749458e-004
1.940119e+003;-8.389713e-004
1.942048e+003;-1.004654e-003
1.943976e+003;-8.460152e-004
1.945905e+003;-8.078182e-004
1.947833e+003;-7.610181e-004
1.949762e+003;-6.297526e-004
1.951691e+003;-5.464671e-004
1.953619e+003;-6.305467e-004
1.955548e+003;-6.451705e-004
1.957476e+003;-7.266839e-004
1.959405e+003;-7.852291e-004
1.961333e+003;-8.057015e-004
1.963262e+003;-8.531251e-004
1.965190e+003;-1.072846e-003
1.967119e+003;-1.323806e-003
1.969047e+003;-1.149587e-003
1.970976e+003;-6.981030e-004
1.972905e+003;-4.645557e-004
1.974833e+003;-5.830657e-004
1.976762e+003;-7.418336e-004
1.978690e+003;-8.057015e-004
1.980619e+003;-6.408694e-004
1.982547e+003;-3.235659e-004
1.984476e+003;-4.546260e-004
1.986404e+003;-6.452697e-004
1.988333e+003;-4.230150e-004
1.990261e+003;-4.451264e-004
1.992190e+003;-4.822963e-004
1.994119e+003;-4.949943e-005
1.996047e+003;2.688665e-004
1.997976e+003;3.568676e-004
1.999904e+003;1.857229e-004
2.001833e+003;8.267730e-005
2.003761e+003;1.818777e-004
2.005690e+003;1.809495e-004
2.007618e+003;3.216850e-004
2.009547e+003;2.074355e-004
2.011476e+003;-1.345365e-004
2.013404e+003;-1.199949e-004
2.015333e+003;9.411087e-005
2.017261e+003;1.656734e-005
2.019190e+003;1.850268e-004
2.021118e+003;5.720382e-004
2.023047e+003;4.379877e-004
2.024975e+003;2.341551e-004
2.026904e+003;2.502672e-004
2.028833e+003;5.202356e-005
2.030761e+003;-4.042165e-005
2.032690e+003;9.215554e-005
2.034618e+003;8.526225e-005
2.036547e+003;-3.982529e-005
2.038475e+003;5.165904e-005
2.040404e+003;1.798557e-004
2.042332e+003;3.079575e-004
2.044261e+003;2.196348e-004
2.046189e+003;1.236076e-004
2.048118e+003;-8.153522e-005
2.050047e+003;-6.387773e-005
2.051975e+003;1.180395e-004
2.053904e+003;2.623020e-004
2.055832e+003;3.363745e-004
2.057761e+003;2.391942e-004
2.059689e+003;2.667372e-005
2.061618e+003;-5.135472e-005
2.063546e+003;-1.695800e-004
2.065475e+003;-3.620372e-004
2.067404e+003;-2.996933e-004
2.069332e+003;-2.455863e-004
2.071260e+003;-1.697125e-004
2.073189e+003;-3.909641e-005
2.075118e+003;-2.272732e-004
2.077046e+003;-3.502512e-004
2.078975e+003;-2.985676e-004
2.080903e+003;-2.714155e-004
2.082832e+003;-2.764818e-004
2.084760e+003;-2.539644e-004
2.086689e+003;-2.312140e-004
2.088617e+003;-2.105158e-004
2.090546e+003;-2.643623e-004
2.092475e+003;-2.947929e-004
2.094403e+003;-3.506154e-004
2.096332e+003;-5.049011e-004
2.098260e+003;-5.656934e-004
2.100189e+003;-3.961355e-004
2.102117e+003;-2.979054e-004
2.104046e+003;-2.796937e-004
2.105974e+003;-4.204000e-004
2.107903e+003;-3.362466e-004
2.109832e+003;-1.888892e-004
2.111760e+003;-2.220076e-004
2.113688e+003;-2.259816e-004
2.115617e+003;-1.796487e-004
2.117546e+003;-3.925272e-004
2.119474e+003;-6.201576e-004
2.121403e+003;-5.895843e-004
2.123331e+003;-5.442499e-004
2.125260e+003;-6.037462e-004
2.127188e+003;-4.780598e-004
2.129117e+003;-2.617794e-004
2.131045e+003;-2.624417e-004
2.132974e+003;-2.581037e-004
2.134903e+003;-1.044591e-004
2.136831e+003;-1.057179e-004
2.138760e+003;-1.452353e-004
2.140688e+003;-1.800793e-004
2.142617e+003;-1.885580e-004
2.144545e+003;-3.280025e-004
2.146474e+003;-3.839200e-004
2.148402e+003;-3.988831e-004
2.150331e+003;-2.207491e-004
2.152260e+003;6.405282e-005
2.154188e+003;-5.062586e-005
2.156117e+003;-2.507523e-004
2.158045e+003;-1.300979e-004
2.159974e+003;1.739223e-004
2.161902e+003;1.802534e-004
2.163831e+003;6.004303e-005
2.165759e+003;5.745823e-005
2.167688e+003;2.481123e-004
2.169616e+003;4.209400e-004
2.171545e+003;6.414183e-004
2.173474e+003;9.744711e-004
2.175402e+003;1.011002e-003
2.177331e+003;7.169162e-004
2.179259e+003;8.563647e-004
2.181188e+003;1.346133e-003
2.183116e+003;1.994937e-003
2.185045e+003;2.935235e-003
2.186973e+003;3.486404e-003
2.188902e+003;3.744838e-003
2.190831e+003;4.124265e-003
2.192759e+003;4.640039e-003
2.194688e+003;4.924495e-003
2.196616e+003;4.710441e-003
2.198545e+003;4.358045e-003
2.200473e+003;4.182004e-003
2.202402e+003;4.175915e-003
2.204330e+003;3.919097e-003
2.206259e+003;3.565371e-003
2.208188e+003;3.726424e-003
2.210116e+003;4.373641e-003
2.212044e+003;4.683913e-003
2.213973e+003;4.740722e-003
2.215902e+003;5.314246e-003
2.217830e+003;6.126049e-003
2.219759e+003;6.849523e-003
2.221687e+003;7.539443e-003
2.223616e+003;8.730852e-003
2.225544e+003;1.094152e-002
2.227473e+003;1.470366e-002
2.229401e+003;2.137100e-002
2.231330e+003;3.195439e-002
2.233259e+003;4.624063e-002
2.235187e+003;6.256676e-002
2.237116e+003;7.838523e-002
2.239044e+003;9.088724e-002
2.240973e+003;9.863849e-002
2.242901e+003;1.013689e-001
2.244830e+003;1.000813e-001
2.246758e+003;9.520485e-002
2.248687e+003;8.749080e-002
2.250615e+003;7.875683e-002
2.252544e+003;6.968446e-002
2.254473e+003;6.010737e-002
2.256401e+003;5.054782e-002
2.258330e+003;4.190060e-002
2.260258e+003;3.449060e-002
2.262187e+003;2.813056e-002
2.264115e+003;2.271594e-002
2.266044e+003;1.853934e-002
2.267972e+003;1.531347e-002
2.269901e+003;1.290545e-002
2.271830e+003;1.129662e-002
2.273758e+003;1.018892e-002
2.275687e+003;9.333844e-003
2.277615e+003;8.469671e-003
2.279544e+003;7.736008e-003
2.281472e+003;7.437604e-003
2.283401e+003;7.205328e-003
2.285329e+003;6.782173e-003
2.287258e+003;6.462428e-003
2.289187e+003;6.209262e-003
2.291115e+003;5.978180e-003
2.293043e+003;5.954732e-003
2.294972e+003;5.857563e-003
2.296901e+003;5.712974e-003
2.298829e+003;5.529504e-003
2.300758e+003;5.321994e-003
2.302686e+003;5.160785e-003
2.304615e+003;5.098959e-003
2.306543e+003;4.821626e-003
2.308472e+003;4.160627e-003
2.310400e+003;3.548267e-003
2.312329e+003;3.295358e-003
2.314258e+003;2.848244e-003
2.316186e+003;2.323433e-003
2.318115e+003;1.502275e-003
2.320043e+003;6.577115e-004
2.321972e+003;2.935342e-004
2.323900e+003;-2.455201e-004
2.325829e+003;-1.262987e-003
2.327757e+003;-2.207832e-003
2.329686e+003;-2.779976e-003
2.331615e+003;-3.382732e-003
2.333543e+003;-3.823914e-003
2.335472e+003;-4.032782e-003
2.337400e+003;-4.199614e-003
2.339329e+003;-3.989020e-003
2.341257e+003;-3.294646e-003
2.343186e+003;-2.117265e-003
2.345114e+003;-3.047925e-004
2.347043e+003;1.994171e-003
2.348971e+003;2.982273e-003
2.350900e+003;1.306949e-003
2.352829e+003;-1.397596e-003
2.354757e+003;-3.619021e-003
2.356686e+003;-5.231245e-003
2.358614e+003;-6.608283e-003
2.360543e+003;-7.288522e-003
2.362471e+003;-7.432904e-003
2.364400e+003;-7.131217e-003
2.366328e+003;-5.845029e-003
2.368257e+003;-4.265895e-003
2.370186e+003;-2.525376e-003
2.372114e+003;-5.080451e-004
2.374042e+003;1.144465e-003
2.375971e+003;2.385231e-003
2.377900e+003;3.461053e-003
2.379828e+003;4.388636e-003
2.381757e+003;4.853020e-003
2.383685e+003;4.946882e-003
2.385614e+003;5.222921e-003
2.387542e+003;5.604783e-003
2.389471e+003;5.709516e-003
2.391399e+003;5.716097e-003
2.393328e+003;5.748899e-003
2.395257e+003;5.983488e-003
2.397185e+003;6.014361e-003
2.399114e+003;5.652581e-003
2.401042e+003;5.480176e-003
2.402971e+003;5.809272e-003
2.404899e+003;6.037610e-003
2.406828e+003;5.960241e-003
2.408756e+003;5.881946e-003
2.410685e+003;5.709752e-003
2.412614e+003;5.641974e-003
2.414542e+003;5.748932e-003
2.416471e+003;5.680880e-003
2.418399e+003;5.564508e-003
2.420328e+003;5.715123e-003
2.422256e+003;5.946435e-003
2.424185e+003;6.051218e-003
2.426113e+003;6.153976e-003
2.428042e+003;6.170477e-003
2.429970e+003;6.215447e-003
2.431899e+003;6.149808e-003
2.433828e+003;5.856052e-003
2.435756e+003;5.747254e-003
2.437685e+003;5.778581e-003
2.439613e+003;5.820421e-003
2.441542e+003;5.971159e-003
2.443470e+003;5.966758e-003
2.445399e+003;6.011841e-003
2.447327e+003;6.093218e-003
2.449256e+003;6.101821e-003
2.451185e+003;6.254068e-003
2.453113e+003;6.549103e-003
2.455042e+003;6.628596e-003
2.456970e+003;6.325841e-003
2.458899e+003;6.133644e-003
2.460827e+003;6.067379e-003
2.462756e+003;6.071747e-003
2.464684e+003;6.262842e-003
2.466613e+003;6.397458e-003
2.468542e+003;6.530200e-003
2.470470e+003;6.698109e-003
2.472398e+003;6.812868e-003
2.474327e+003;6.655848e-003
2.476256e+003;6.532184e-003
2.478184e+003;6.619344e-003
2.480113e+003;6.694610e-003
2.482041e+003;6.475141e-003
2.483970e+003;6.596636e-003
2.485898e+003;7.116434e-003
2.487827e+003;7.354525e-003
2.489755e+003;7.371645e-003
2.491684e+003;7.357693e-003
2.493613e+003;7.491739e-003
2.495541e+003;7.489919e-003
2.497470e+003;7.158841e-003
2.499398e+003;7.107845e-003
2.501327e+003;7.680526e-003
2.503255e+003;8.238092e-003
2.505184e+003;8.079308e-003
2.507112e+003;7.795544e-003
2.509041e+003;8.015648e-003
2.510969e+003;8.249405e-003
2.512898e+003;8.226172e-003
2.514827e+003;8.168467e-003
2.516755e+003;8.103579e-003
2.518684e+003;8.106617e-003
2.520612e+003;8.166947e-003
2.522541e+003;8.183761e-003
2.524469e+003;8.244913e-003
2.526398e+003;8.150640e-003
2.528326e+003;8.101013e-003
2.530255e+003;8.262575e-003
2.532184e+003;8.316239e-003
2.534112e+003;8.204021e-003
2.536041e+003;8.117184e-003
2.537969e+003;8.300298e-003
2.539898e+003;8.368222e-003
2.541826e+003;8.324514e-003
2.543755e+003;8.344881e-003
2.545683e+003;8.210538e-003
2.547612e+003;8.001844e-003
2.549541e+003;7.896522e-003
2.551469e+003;7.995196e-003
2.553397e+003;8.053282e-003
2.555326e+003;7.991010e-003
2.557255e+003;7.872837e-003
2.559183e+003;7.815077e-003
2.561112e+003;7.807284e-003
2.563040e+003;7.889268e-003
2.564969e+003;7.682246e-003
2.566897e+003;7.614464e-003
2.568826e+003;7.576530e-003
2.570754e+003;7.581352e-003
2.572683e+003;7.849388e-003
2.574612e+003;7.730881e-003
2.576540e+003;7.464199e-003
2.578469e+003;7.460053e-003
2.580397e+003;7.523934e-003
2.582326e+003;7.320759e-003
2.584254e+003;7.071673e-003
2.586183e+003;7.097134e-003
2.588111e+003;7.300946e-003
2.590040e+003;7.570832e-003
2.591969e+003;7.616554e-003
2.593897e+003;7.571304e-003
2.595826e+003;7.475188e-003
2.597754e+003;7.515742e-003
2.599683e+003;7.468514e-003
2.601611e+003;7.332284e-003
2.603540e+003;7.624445e-003
2.605468e+003;7.947544e-003
2.607397e+003;7.969850e-003
2.609325e+003;7.902124e-003
2.611254e+003;7.979603e-003
2.613183e+003;8.179609e-003
2.615111e+003;8.121134e-003
2.617040e+003;8.362344e-003
2.618968e+003;8.576247e-003
2.620897e+003;8.357007e-003
2.622825e+003;8.263048e-003
2.624754e+003;8.331439e-003
2.626682e+003;8.394604e-003
2.628611e+003;8.575740e-003
2.630540e+003;8.577936e-003
2.632468e+003;8.561445e-003
2.634396e+003;8.783189e-003
2.636325e+003;8.854366e-003
2.638254e+003;9.042968e-003
2.640182e+003;9.212935e-003
2.642111e+003;9.213477e-003
2.644039e+003;9.132055e-003
2.645968e+003;9.152054e-003
2.647896e+003;9.131582e-003
2.649825e+003;9.238421e-003
2.651753e+003;9.368749e-003
2.653682e+003;9.186030e-003
2.655611e+003;9.036913e-003
2.657539e+003;9.084752e-003
2.659468e+003;9.268478e-003
2.661396e+003;9.414865e-003
2.663325e+003;9.501352e-003
2.665253e+003;9.748820e-003
2.667182e+003;9.941201e-003
2.669110e+003;9.518760e-003
2.671039e+003;9.122885e-003
2.672968e+003;9.255514e-003
2.674896e+003;9.649681e-003
2.676825e+003;9.958424e-003
2.678753e+003;9.962797e-003
2.680682e+003;9.764916e-003
2.682610e+003;9.570175e-003
2.684539e+003;9.423973e-003
2.686467e+003;9.564823e-003
2.688396e+003;9.464913e-003
2.690324e+003;9.335943e-003
2.692253e+003;9.596291e-003
2.694182e+003;9.924658e-003
2.696110e+003;9.936896e-003
2.698039e+003;9.692403e-003
2.699967e+003;9.403724e-003
2.701896e+003;9.476765e-003
2.703824e+003;9.655542e-003
2.705753e+003;9.826122e-003
2.707681e+003;9.741908e-003
2.709610e+003;9.881742e-003
2.711539e+003;1.000091e-002
2.713467e+003;9.797992e-003
2.715396e+003;9.780573e-003
2.717324e+003;9.594869e-003
2.719253e+003;9.462001e-003
2.721181e+003;9.662894e-003
2.723110e+003;9.823715e-003
2.725038e+003;9.885437e-003
2.726967e+003;9.740857e-003
2.728896e+003;9.616210e-003
2.730824e+003;9.570412e-003
2.732752e+003;9.607639e-003
2.734681e+003;9.669737e-003
2.736610e+003;9.599578e-003
2.738538e+003;9.631725e-003
2.740467e+003;9.669398e-003
2.742395e+003;9.578101e-003
2.744324e+003;9.570683e-003
2.746252e+003;9.738891e-003
2.748181e+003;9.752276e-003
2.750109e+003;9.665604e-003
2.752038e+003;9.601678e-003
2.753967e+003;9.837476e-003
2.755895e+003;1.009043e-002
2.757824e+003;9.831070e-003
2.759752e+003;1.011515e-002
2.761681e+003;1.028269e-002
2.763609e+003;9.977714e-003
2.765538e+003;1.002335e-002
2.767466e+003;1.000843e-002
2.769395e+003;1.011891e-002
2.771323e+003;1.042585e-002
2.773252e+003;1.059117e-002
2.775181e+003;1.064889e-002
2.777109e+003;1.078161e-002
2.779038e+003;1.094516e-002
2.780966e+003;1.119393e-002
2.782895e+003;1.148547e-002
2.784823e+003;1.159918e-002
2.786752e+003;1.155825e-002
2.788680e+003;1.156723e-002
2.790609e+003;1.188326e-002
2.792538e+003;1.206940e-002
2.794466e+003;1.234179e-002
2.796395e+003;1.246706e-002
2.798323e+003;1.222931e-002
2.800252e+003;1.209714e-002
2.802180e+003;1.243541e-002
2.804109e+003;1.290047e-002
2.806037e+003;1.325163e-002
2.807966e+003;1.342090e-002
2.809895e+003;1.331258e-002
2.811823e+003;1.324217e-002
2.813751e+003;1.320507e-002
2.815680e+003;1.314783e-002
2.817609e+003;1.315019e-002
2.819537e+003;1.330875e-002
2.821466e+003;1.342264e-002
2.823394e+003;1.326817e-002
2.825323e+003;1.311013e-002
2.827251e+003;1.288057e-002
2.829180e+003;1.298796e-002
2.831108e+003;1.325669e-002
2.833037e+003;1.306324e-002
2.834966e+003;1.294423e-002
2.836894e+003;1.307123e-002
2.838823e+003;1.318400e-002
2.840751e+003;1.313960e-002
2.842680e+003;1.291330e-002
2.844608e+003;1.185936e-002
2.846537e+003;1.027468e-002
2.848465e+003;9.630133e-003
2.850394e+003;1.071402e-002
2.852323e+003;1.255674e-002
2.854251e+003;1.421963e-002
2.856180e+003;1.630661e-002
2.858108e+003;1.900322e-002
2.860037e+003;2.168335e-002
2.861965e+003;2.384612e-002
2.863894e+003;2.537685e-002
2.865822e+003;2.673910e-002
2.867751e+003;2.795896e-002
2.869679e+003;2.848167e-002
2.871608e+003;2.861695e-002
2.873536e+003;2.871549e-002
2.875465e+003;2.881309e-002
2.877394e+003;2.905329e-002
2.879322e+003;2.921249e-002
2.881251e+003;2.907862e-002
2.883179e+003;2.912918e-002
2.885108e+003;2.893388e-002
2.887036e+003;2.843967e-002
2.888965e+003;2.799851e-002
2.890893e+003;2.775561e-002
2.892822e+003;2.818171e-002
2.894750e+003;2.858506e-002
2.896679e+003;2.886635e-002
2.898608e+003;2.991227e-002
2.900536e+003;3.091265e-002
2.902465e+003;3.171594e-002
2.904393e+003;3.313647e-002
2.906322e+003;3.452906e-002
2.908250e+003;3.555014e-002
2.910179e+003;3.643499e-002
2.912107e+003;3.663574e-002
2.914036e+003;3.591677e-002
2.915965e+003;3.547977e-002
2.917893e+003;3.626757e-002
2.919822e+003;3.813691e-002
2.921750e+003;4.002680e-002
2.923679e+003;4.167037e-002
2.925607e+003;4.325997e-002
2.927536e+003;4.524473e-002
2.929464e+003;4.760026e-002
2.931393e+003;4.983423e-002
2.933322e+003;5.168423e-002
2.935250e+003;5.350834e-002
2.937178e+003;5.517742e-002
2.939107e+003;5.626563e-002
2.941036e+003;5.670466e-002
2.942964e+003;5.645702e-002
2.944893e+003;5.600463e-002
2.946821e+003;5.482703e-002
2.948750e+003;5.234873e-002
2.950678e+003;4.951828e-002
2.952607e+003;4.690950e-002
2.954535e+003;4.472762e-002
2.956464e+003;4.267996e-002
2.958393e+003;4.125717e-002
2.960321e+003;4.052841e-002
2.962250e+003;3.984110e-002
2.964178e+003;3.928239e-002
2.966107e+003;3.913853e-002
2.968035e+003;3.918965e-002
2.969964e+003;3.922040e-002
2.971892e+003;3.902041e-002
2.973821e+003;3.869744e-002
2.975750e+003;3.871077e-002
2.977678e+003;3.893052e-002
2.979607e+003;3.902393e-002
2.981535e+003;3.895745e-002
2.983464e+003;3.850261e-002
2.985392e+003;3.791478e-002
2.987321e+003;3.779588e-002
2.989249e+003;3.788144e-002
2.991178e+003;3.741632e-002
2.993106e+003;3.658289e-002
2.995035e+003;3.575671e-002
2.996964e+003;3.475794e-002
2.998892e+003;3.406941e-002
3.000821e+003;3.351481e-002
3.002749e+003;3.272149e-002
3.004678e+003;3.170624e-002
3.006606e+003;3.076257e-002
3.008535e+003;2.981594e-002
3.010463e+003;2.890912e-002
3.012392e+003;2.809196e-002
3.014321e+003;2.745785e-002
3.016249e+003;2.710767e-002
3.018177e+003;2.680543e-002
3.020106e+003;2.627438e-002
3.022035e+003;2.578488e-002
3.023963e+003;2.550495e-002
3.025892e+003;2.498872e-002
3.027820e+003;2.462226e-002
3.029749e+003;2.451202e-002
3.031677e+003;2.439376e-002
3.033606e+003;2.414691e-002
3.035534e+003;2.374136e-002
3.037463e+003;2.334232e-002
3.039392e+003;2.317921e-002
3.041320e+003;2.320025e-002
3.043249e+003;2.304802e-002
3.045177e+003;2.281273e-002
3.047106e+003;2.265492e-002
3.049034e+003;2.233116e-002
3.050963e+003;2.215629e-002
3.052891e+003;2.204400e-002
3.054820e+003;2.203894e-002
3.056749e+003;2.199070e-002
3.058677e+003;2.196121e-002
3.060606e+003;2.155502e-002
3.062534e+003;2.102726e-002
3.064463e+003;2.109647e-002
3.066391e+003;2.113348e-002
3.068320e+003;2.087044e-002
3.070248e+003;2.048976e-002
3.072177e+003;2.045207e-002
3.074105e+003;2.059043e-002
3.076034e+003;2.057469e-002
3.077963e+003;2.057160e-002
3.079891e+003;2.041078e-002
3.081820e+003;2.009257e-002
3.083748e+003;1.988000e-002
3.085677e+003;1.944546e-002
3.087605e+003;1.924862e-002
3.089534e+003;1.935191e-002
3.091462e+003;1.934419e-002
3.093391e+003;1.919933e-002
3.095320e+003;1.898865e-002
3.097248e+003;1.881239e-002
3.099177e+003;1.863257e-002
3.101105e+003;1.844906e-002
3.103034e+003;1.828318e-002
3.104962e+003;1.822382e-002
3.106891e+003;1.805260e-002
3.108819e+003;1.785425e-002
3.110748e+003;1.779045e-002
3.112677e+003;1.764408e-002
3.114605e+003;1.747526e-002
3.116533e+003;1.741614e-002
3.118462e+003;1.767724e-002
3.120391e+003;1.755989e-002
3.122319e+003;1.691729e-002
3.124248e+003;1.687561e-002
3.126176e+003;1.735500e-002
3.128105e+003;1.734920e-002
3.130033e+003;1.709851e-002
3.131962e+003;1.705332e-002
3.133890e+003;1.709433e-002
3.135819e+003;1.696446e-002
3.137748e+003;1.674325e-002
3.139676e+003;1.672972e-002
3.141605e+003;1.667838e-002
3.143533e+003;1.691695e-002
3.145462e+003;1.729751e-002
3.147390e+003;1.736896e-002
3.149319e+003;1.740880e-002
3.151247e+003;1.732731e-002
3.153176e+003;1.738065e-002
3.155104e+003;1.783360e-002
3.157033e+003;1.805174e-002
3.158962e+003;1.797303e-002
3.160890e+003;1.770430e-002
3.162819e+003;1.728245e-002
3.164747e+003;1.734341e-002
3.166676e+003;1.782514e-002
3.168604e+003;1.806607e-002
3.170533e+003;1.830983e-002
3.172461e+003;1.844457e-002
3.174390e+003;1.829196e-002
3.176319e+003;1.812400e-002
3.178247e+003;1.839963e-002
3.180176e+003;1.888375e-002
3.182104e+003;1.904660e-002
3.184033e+003;1.868536e-002
3.185961e+003;1.857105e-002
3.187890e+003;1.891718e-002
3.189818e+003;1.931952e-002
3.191747e+003;1.941525e-002
3.193676e+003;1.911034e-002
3.195604e+003;1.895452e-002
3.197532e+003;1.912641e-002
3.199461e+003;1.906059e-002
3.201390e+003;1.921003e-002
3.203318e+003;1.973299e-002
3.205247e+003;1.984247e-002
3.207175e+003;1.976413e-002
3.209104e+003;2.008324e-002
3.211032e+003;2.014508e-002
3.212961e+003;1.989099e-002
3.214889e+003;1.995052e-002
3.216818e+003;2.022464e-002
3.218747e+003;2.034056e-002
3.220675e+003;2.014275e-002
3.222604e+003;2.015435e-002
3.224532e+003;2.024977e-002
3.226461e+003;2.017965e-002
3.228389e+003;2.012509e-002
3.230318e+003;2.022165e-002
3.232246e+003;2.050181e-002
3.234175e+003;2.093549e-002
3.236104e+003;2.159858e-002
3.238032e+003;2.169056e-002
3.239961e+003;2.145005e-002
3.241889e+003;2.117673e-002
3.243818e+003;2.136599e-002
3.245746e+003;2.191287e-002
3.247675e+003;2.218283e-002
3.249603e+003;2.183935e-002
3.251532e+003;2.152863e-002
3.253460e+003;2.142311e-002
3.255389e+003;2.152351e-002
3.257318e+003;2.171999e-002
3.259246e+003;2.156108e-002
3.261175e+003;2.165159e-002
3.263103e+003;2.197021e-002
3.265032e+003;2.249032e-002
3.266960e+003;2.250749e-002
3.268889e+003;2.216490e-002
3.270817e+003;2.190678e-002
3.272746e+003;2.152257e-002
3.274675e+003;2.175852e-002
3.276603e+003;2.227273e-002
3.278531e+003;2.192737e-002
3.280460e+003;2.147202e-002
3.282389e+003;2.187649e-002
3.284317e+003;2.206801e-002
3.286246e+003;2.168258e-002
3.288174e+003;2.161345e-002
3.290103e+003;2.139620e-002
3.292031e+003;2.109599e-002
3.293960e+003;2.119562e-002
3.295888e+003;2.130453e-002
3.297817e+003;2.121187e-002
3.299746e+003;2.115526e-002
3.301674e+003;2.104486e-002
3.303603e+003;2.095378e-002
3.305531e+003;2.115512e-002
3.307460e+003;2.097600e-002
3.309388e+003;2.080790e-002
3.311317e+003;2.062090e-002
3.313245e+003;2.051549e-002
3.315174e+003;2.055805e-002
3.317103e+003;2.070054e-002
3.319031e+003;2.087468e-002
3.320960e+003;2.080043e-002
3.322888e+003;2.076101e-002
3.324817e+003;2.066986e-002
3.326745e+003;1.989498e-002
3.328674e+003;1.948219e-002
3.330602e+003;2.020225e-002
3.332531e+003;2.061510e-002
3.334459e+003;1.993258e-002
3.336388e+003;1.948379e-002
3.338317e+003;1.942575e-002
3.340245e+003;1.934318e-002
3.342174e+003;1.938077e-002
3.344102e+003;1.969509e-002
3.346031e+003;1.949380e-002
3.347959e+003;1.933899e-002
3.349888e+003;1.920158e-002
3.351816e+003;1.871400e-002
3.353745e+003;1.853799e-002
3.355674e+003;1.894258e-002
3.357602e+003;1.901046e-002
3.359531e+003;1.868176e-002
3.361459e+003;1.859183e-002
3.363388e+003;1.846652e-002
3.365316e+003;1.805384e-002
3.367245e+003;1.790476e-002
3.369173e+003;1.793860e-002
3.371102e+003;1.767193e-002
3.373031e+003;1.744787e-002
3.374959e+003;1.770009e-002
3.376887e+003;1.762934e-002
3.378816e+003;1.700491e-002
3.380745e+003;1.675995e-002
3.382673e+003;1.657417e-002
3.384602e+003;1.657544e-002
3.386530e+003;1.678819e-002
3.388459e+003;1.659265e-002
3.390387e+003;1.624046e-002
3.392316e+003;1.624985e-002
3.394244e+003;1.620589e-002
3.396173e+003;1.606459e-002
3.398102e+003;1.569022e-002
3.400030e+003;1.561500e-002
3.401959e+003;1.581285e-002
3.403887e+003;1.552945e-002
3.405816e+003;1.510250e-002
3.407744e+003;1.463210e-002
3.409673e+003;1.476382e-002
3.411601e+003;1.499602e-002
3.413530e+003;1.495868e-002
3.415458e+003;1.491526e-002
3.417387e+003;1.462504e-002
3.419316e+003;1.446038e-002
3.421244e+003;1.460434e-002
3.423173e+003;1.459663e-002
3.425101e+003;1.480204e-002
3.427030e+003;1.478188e-002
3.428958e+003;1.451577e-002
3.430887e+003;1.453102e-002
3.432815e+003;1.429804e-002
3.434744e+003;1.411398e-002
3.436673e+003;1.423736e-002
3.438601e+003;1.419789e-002
3.440530e+003;1.424120e-002
3.442458e+003;1.425732e-002
3.444387e+003;1.410888e-002
3.446315e+003;1.380768e-002
3.448244e+003;1.384643e-002
3.450172e+003;1.413599e-002
3.452101e+003;1.396881e-002
3.454030e+003;1.343094e-002
3.455958e+003;1.364332e-002
3.457886e+003;1.447309e-002
3.459815e+003;1.457940e-002
3.461744e+003;1.418046e-002
3.463672e+003;1.398852e-002
3.465601e+003;1.382717e-002
3.467529e+003;1.361371e-002
3.469458e+003;1.341105e-002
3.471386e+003;1.341498e-002
3.473315e+003;1.356978e-002
3.475243e+003;1.361638e-002
3.477172e+003;1.334422e-002
3.479101e+003;1.330752e-002
3.481029e+003;1.364753e-002
3.482958e+003;1.369256e-002
3.484886e+003;1.346023e-002
3.486815e+003;1.335040e-002
3.488743e+003;1.294583e-002
3.490672e+003;1.252298e-002
3.492600e+003;1.274665e-002
3.494529e+003;1.316118e-002
3.496458e+003;1.309380e-002
3.498386e+003;1.293808e-002
3.500315e+003;1.260177e-002
3.502243e+003;1.278470e-002
3.504172e+003;1.330537e-002
3.506100e+003;1.326164e-002
3.508029e+003;1.280347e-002
3.509957e+003;1.255876e-002
3.511886e+003;1.272704e-002
3.513814e+003;1.295570e-002
3.515743e+003;1.336868e-002
3.517672e+003;1.369526e-002
3.519600e+003;1.389925e-002
3.521529e+003;1.369434e-002
3.523457e+003;1.323865e-002
3.525386e+003;1.313915e-002
3.527314e+003;1.297061e-002
3.529243e+003;1.291224e-002
3.531171e+003;1.310859e-002
3.533100e+003;1.336253e-002
3.535029e+003;1.386039e-002
3.536957e+003;1.404652e-002
3.538885e+003;1.400686e-002
3.540814e+003;1.345107e-002
3.542743e+003;1.291559e-002
3.544671e+003;1.258492e-002
3.546600e+003;1.202842e-002
3.548528e+003;1.215884e-002
3.550457e+003;1.235635e-002
3.552385e+003;1.211318e-002
3.554314e+003;1.197610e-002
3.556242e+003;1.199542e-002
3.558171e+003;1.194542e-002
3.560100e+003;1.197181e-002
3.562028e+003;1.156811e-002
3.563957e+003;1.096793e-002
3.565885e+003;9.965611e-003
3.567814e+003;9.751430e-003
3.569742e+003;1.047867e-002
3.571671e+003;1.061314e-002
3.573599e+003;1.070771e-002
3.575528e+003;1.057528e-002
3.577457e+003;1.029796e-002
3.579385e+003;1.072723e-002
3.581314e+003;1.087405e-002
3.583242e+003;1.029561e-002
3.585171e+003;9.389470e-003
3.587099e+003;8.546644e-003
3.589028e+003;8.869280e-003
3.590956e+003;9.561335e-003
3.592885e+003;9.416828e-003
3.594813e+003;9.372575e-003
3.596742e+003;9.824867e-003
3.598671e+003;1.022098e-002
3.600599e+003;1.045915e-002
3.602528e+003;1.069100e-002
3.604456e+003;1.036860e-002
3.606385e+003;9.504908e-003
3.608313e+003;9.067090e-003
3.610242e+003;9.394582e-003
3.612170e+003;9.385610e-003
3.614099e+003;1.001986e-002
3.616028e+003;1.030060e-002
3.617956e+003;9.589144e-003
3.619885e+003;9.850321e-003
3.621813e+003;1.097068e-002
3.623742e+003;1.108314e-002
3.625670e+003;9.680410e-003
3.627599e+003;6.679973e-003
3.629527e+003;6.633138e-003
3.631456e+003;9.469620e-003
3.633385e+003;1.004804e-002
3.635313e+003;9.674989e-003
3.637241e+003;9.444391e-003
3.639170e+003;9.512325e-003
3.641099e+003;9.359269e-003
3.643027e+003;8.936346e-003
3.644956e+003;7.612137e-003
3.646884e+003;5.012171e-003
3.648813e+003;3.368681e-003
3.650741e+003;4.241457e-003
3.652670e+003;5.670742e-003
3.654598e+003;4.818812e-003
3.656527e+003;4.169024e-003
3.658456e+003;4.799614e-003
3.660384e+003;4.806918e-003
3.662313e+003;4.446008e-003
3.664241e+003;4.159322e-003
3.666170e+003;3.052006e-003
3.668098e+003;2.810013e-004
3.670027e+003;-1.640743e-003
3.671955e+003;-6.315061e-004
3.673884e+003;-1.189175e-003
3.675813e+003;-3.076731e-004
3.677741e+003;2.583009e-003
3.679669e+003;2.047965e-003
3.681598e+003;1.266306e-003
3.683527e+003;8.562318e-004
3.685455e+003;-5.047356e-004
3.687384e+003;-3.272416e-003
3.689312e+003;-3.406798e-003
3.691241e+003;-1.661406e-003
3.693169e+003;-3.487614e-004
3.695098e+003;-6.268508e-005
3.697026e+003;-1.699775e-004
3.698955e+003;-5.383925e-004
3.700884e+003;-1.251854e-003
3.702812e+003;-8.960796e-004
3.704741e+003;-1.285411e-004
3.706669e+003;-5.539790e-004
3.708598e+003;-2.136949e-003
3.710526e+003;-3.513957e-003
3.712455e+003;-2.990991e-003
3.714383e+003;-1.045676e-003
3.716312e+003;-5.964006e-004
3.718240e+003;-6.875501e-004
3.720169e+003;-1.508026e-003
3.722098e+003;-1.764377e-003
3.724026e+003;-1.093999e-003
3.725955e+003;-9.905051e-004
3.727883e+003;-9.709341e-004
3.729812e+003;-1.853830e-003
3.731740e+003;-3.142204e-003
3.733669e+003;-3.441019e-003
3.735597e+003;-4.166535e-003
3.737526e+003;-2.667827e-003
3.739455e+003;-1.130353e-003
3.741383e+003;-2.356351e-003
3.743312e+003;-6.852706e-003
3.745240e+003;-6.189326e-003
3.747169e+003;-3.848546e-003
3.749097e+003;-5.462342e-003
3.751026e+003;-5.920800e-003
3.752954e+003;-3.490884e-003
3.754883e+003;-1.065343e-003
3.756812e+003;-1.141920e-003
3.758740e+003;-1.038272e-003
3.760668e+003;-2.391619e-004
3.762597e+003;2.630977e-004
3.764526e+003;-7.179510e-004
3.766454e+003;-7.472583e-004
3.768383e+003;-1.015860e-003
3.770311e+003;-8.925747e-004
3.772240e+003;3.318316e-004
3.774168e+003;6.452344e-004
3.776097e+003;2.278563e-004
3.778025e+003;-2.703228e-004
3.779954e+003;-4.432066e-004
3.781883e+003;7.343124e-005
3.783811e+003;2.590529e-004
3.785740e+003;6.131141e-004
3.787668e+003;6.509419e-004
3.789597e+003;5.232033e-004
3.791525e+003;4.101611e-004
3.793454e+003;1.470075e-004
3.795382e+003;-4.050404e-004
3.797311e+003;-3.063818e-004
3.799240e+003;-2.132992e-003
3.801168e+003;-3.872323e-003
3.803097e+003;-1.604926e-003
3.805025e+003;-1.572673e-003
3.806954e+003;-2.322275e-003
3.808882e+003;-1.020409e-004
3.810811e+003;6.957091e-004
3.812739e+003;-1.921732e-005
3.814668e+003;-2.663150e-003
3.816596e+003;-3.339398e-003
3.818525e+003;-2.369961e-003
3.820454e+003;-3.264096e-003
3.822382e+003;-1.549034e-003
3.824311e+003;2.598818e-004
3.826239e+003;4.250857e-004
3.828168e+003;7.248816e-004
3.830096e+003;1.741543e-004
3.832025e+003;-8.442625e-004
3.833953e+003;-1.463646e-003
3.835882e+003;-2.577092e-003
3.837811e+003;-3.093418e-003
3.839739e+003;-1.318025e-003
3.841667e+003;-8.263053e-004
3.843596e+003;-4.864996e-004
3.845525e+003;7.405141e-004
3.847453e+003;1.178519e-003
3.849382e+003;-5.777052e-004
3.851310e+003;-5.361651e-003
3.853239e+003;-8.780001e-003
3.855167e+003;-4.179366e-003
3.857096e+003;1.691822e-004
3.859024e+003;5.073132e-004
3.860953e+003;-1.153049e-005
3.862882e+003;-7.706101e-004
3.864810e+003;-1.072317e-003
3.866739e+003;-4.972559e-004
3.868667e+003;-1.742729e-003
3.870596e+003;-1.718307e-003
3.872524e+003;-4.396318e-004
3.874453e+003;1.427318e-004
3.876381e+003;8.964382e-004
3.878310e+003;5.190234e-004
3.880239e+003;2.070927e-005
3.882167e+003;2.334258e-004
3.884096e+003;-7.489452e-004
3.886024e+003;-8.904584e-004
3.887953e+003;6.800782e-004
3.889881e+003;2.033581e-004
3.891810e+003;-1.478189e-004
3.893738e+003;3.378667e-004
3.895667e+003;3.711936e-004
3.897595e+003;-3.483972e-004
3.899524e+003;-1.355120e-003
3.901453e+003;-1.483789e-003
3.903381e+003;-8.127791e-004
3.905310e+003;3.377009e-004
3.907238e+003;1.371361e-003
3.909167e+003;1.748253e-003
3.911095e+003;1.891860e-003
3.913024e+003;1.878083e-003
3.914952e+003;1.359362e-003
3.916881e+003;5.278145e-004
3.918810e+003;5.192225e-004
3.920738e+003;1.270592e-003
3.922667e+003;1.166392e-003
3.924595e+003;8.830247e-004
3.926524e+003;8.330261e-004
3.928452e+003;6.399914e-004
3.930381e+003;6.187217e-004
3.932309e+003;9.445845e-004
3.934238e+003;1.531801e-003
3.936167e+003;1.833161e-003
3.938095e+003;2.315372e-003
3.940023e+003;1.843542e-003
3.941952e+003;9.538824e-004
3.943881e+003;1.218090e-003
3.945809e+003;1.548161e-003
3.947738e+003;1.095201e-003
3.949666e+003;1.089188e-003
3.951595e+003;1.311834e-003
3.953523e+003;1.631167e-003
3.955452e+003;2.301115e-003
3.957380e+003;3.292921e-003
3.959309e+003;3.306376e-003
3.961238e+003;2.088082e-003
3.963166e+003;1.470490e-003
3.965095e+003;2.022133e-003
3.967023e+003;2.475695e-003
3.968952e+003;2.353814e-003
3.970880e+003;2.321501e-003
3.972809e+003;2.620109e-003
3.974737e+003;2.780144e-003
3.976666e+003;2.814293e-003
3.978594e+003;2.653145e-003
3.980523e+003;2.868856e-003
3.982452e+003;2.769807e-003
3.984380e+003;2.541913e-003
3.986309e+003;2.442106e-003
3.988237e+003;2.776476e-003
3.990166e+003;2.944742e-003
3.992094e+003;2.401756e-003
3.994023e+003;1.974333e-003
3.995951e+003;2.021434e-003
3.997880e+003;2.700119e-003
3.999809e+003;3.253227e-003
4.001737e+003;0.000000e+000
