3.992094e+002;0.000000e+000
4.011380e+002;0.000000e+000
4.030665e+002;0.000000e+000
4.049951e+002;0.000000e+000
4.069236e+002;0.000000e+000
4.088522e+002;0.000000e+000
4.107807e+002;0.000000e+000
4.127093e+002;0.000000e+000
4.146378e+002;0.000000e+000
4.165664e+002;0.000000e+000
4.184949e+002;0.000000e+000
4.204235e+002;0.000000e+000
4.223520e+002;0.000000e+000
4.242806e+002;0.000000e+000
4.262091e+002;0.000000e+000
4.281377e+002;0.000000e+000
4.300662e+002;0.000000e+000
4.319948e+002;0.000000e+000
4.339233e+002;0.000000e+000
4.358519e+002;0.000000e+000
4.377804e+002;0.000000e+000
4.397090e+002;0.000000e+000
4.416375e+002;0.000000e+000
4.435660e+002;0.000000e+000
4.454946e+002;0.000000e+000
4.474232e+002;0.000000e+000
4.493517e+002;0.000000e+000
4.512802e+002;0.000000e+000
4.532088e+002;0.000000e+000
4.551373e+002;0.000000e+000
4.570659e+002;0.000000e+000
4.589944e+002;0.000000e+000
4.609230e+002;0.000000e+000
4.628515e+002;0.000000e+000
4.647801e+002;0.000000e+000
4.667086e+002;0.000000e+000
4.686372e+002;0.000000e+000
4.705657e+002;0.000000e+000
4.724943e+002;0.000000e+000
4.744228e+002;0.000000e+000
4.763513e+002;0.000000e+000
4.782799e+002;0.000000e+000
4.802085e+002;0.000000e+000
4.821370e+002;0.000000e+000
4.840656e+002;0.000000e+000
4.859941e+002;0.000000e+000
4.879226e+002;0.000000e+000
4.898512e+002;0.000000e+000
4.917798e+002;0.000000e+000
4.937083e+002;0.000000e+000
4.956368e+002;0.000000e+000
4.975654e+002;0.000000e+000
4.994939e+002;0.000000e+000
5.014225e+002;0.000000e+000
5.033510e+002;0.000000e+000
5.052796e+002;0.000000e+000
5.072081e+002;0.000000e+000
5.091367e+002;0.000000e+000
5.110652e+002;0.000000e+000
5.129938e+002;0.000000e+000
5.149223e+002;0.000000e+000
5.168509e+002;0.000000e+000
5.187794e+002;0.000000e+000
5.207079e+002;0.000000e+000
5.226365e+002;0.000000e+000
5.245651e+002;0.000000e+000
5.264936e+002;0.000000e+000
5.284222e+002;0.000000e+000
5.303507e+002;0.000000e+000
5.322792e+002;0.000000e+000
5.342078e+002;0.000000e+000
5.361364e+002;0.000000e+000
5.380649e+002;0.000000e+000
5.399935e+002;0.000000e+000
5.419220e+002;0.000000e+000
5.438505e+002;0.000000e+000
5.457791e+002;0.000000e+000
5.477076e+002;0.000000e+000
5.496362e+002;0.000000e+000
5.515648e+002;0.000000e+000
5.534933e+002;0.000000e+000
5.554218e+002;0.000000e+000
5.573504e+002;0.000000e+000
5.592789e+002;0.000000e+000
5.612075e+002;0.000000e+000
5.631360e+002;0.000000e+000
5.650646e+002;0.000000e+000
5.669931e+002;0.000000e+000
5.689217e+002;0.000000e+000
5.708502e+002;0.000000e+000
5.727787e+002;0.000000e+000
5.747073e+002;0.000000e+000
5.766359e+002;0.000000e+000
5.785644e+002;0.000000e+000
5.804930e+002;0.000000e+000
5.824215e+002;0.000000e+000
5.843500e+002;0.000000e+000
5.862786e+002;0.000000e+000
5.882072e+002;0.000000e+000
5.901357e+002;0.000000e+000
5.920643e+002;0.000000e+000
5.939928e+002;0.000000e+000
5.959213e+002;0.000000e+000
5.978499e+002;0.000000e+000
5.997784e+002;5.956094e-002
6.017070e+002;5.575731e-002
6.036355e+002;6.529289e-002
6.055641e+002;7.167576e-002
6.074926e+002;6.810237e-002
6.094211e+002;6.730907e-002
6.113497e+002;6.691153e-002
6.132783e+002;6.627742e-002
6.152068e+002;6.771196e-002
6.171354e+002;6.539322e-002
6.190639e+002;6.121286e-002
6.209924e+002;6.289966e-002
6.229210e+002;6.610019e-002
6.248495e+002;6.544199e-002
6.267781e+002;6.439889e-002
6.287067e+002;6.510539e-002
6.306352e+002;6.676827e-002
6.325637e+002;6.613761e-002
6.344923e+002;6.423379e-002
6.364208e+002;6.572553e-002
6.383494e+002;7.046644e-002
6.402780e+002;6.813985e-002
6.422065e+002;6.016266e-002
6.441350e+002;6.053319e-002
6.460636e+002;6.696236e-002
6.479921e+002;6.522616e-002
6.499207e+002;6.439628e-002
6.518492e+002;6.629220e-002
6.537778e+002;6.336907e-002
6.557063e+002;6.068809e-002
6.576349e+002;5.992499e-002
6.595634e+002;6.206172e-002
6.614919e+002;6.533857e-002
6.634205e+002;6.738529e-002
6.653491e+002;6.644408e-002
6.672776e+002;6.464492e-002
6.692062e+002;6.399610e-002
6.711347e+002;6.382555e-002
6.730632e+002;6.438675e-002
6.749918e+002;6.377968e-002
6.769203e+002;6.469091e-002
6.788489e+002;6.756178e-002
6.807775e+002;6.802296e-002
6.827060e+002;6.694710e-002
6.846345e+002;6.642585e-002
6.865631e+002;6.559838e-002
6.884916e+002;6.557965e-002
6.904202e+002;6.517060e-002
6.923488e+002;6.526247e-002
6.942773e+002;6.608927e-002
6.962058e+002;6.558570e-002
6.981344e+002;6.533730e-002
7.000629e+002;6.451473e-002
7.019915e+002;6.395080e-002
7.039200e+002;6.526247e-002
7.058486e+002;6.566845e-002
7.077771e+002;6.453753e-002
7.097057e+002;6.403630e-002
7.116342e+002;6.414222e-002
7.135627e+002;6.365053e-002
7.154913e+002;6.349771e-002
7.174199e+002;6.421666e-002
7.193484e+002;6.501217e-002
7.212770e+002;6.502645e-002
7.232055e+002;6.450243e-002
7.251340e+002;6.434463e-002
7.270626e+002;6.503057e-002
7.289911e+002;6.591978e-002
7.309197e+002;6.711358e-002
7.328483e+002;6.739470e-002
7.347768e+002;6.683450e-002
7.367053e+002;6.646543e-002
7.386339e+002;6.639393e-002
7.405624e+002;6.753685e-002
7.424910e+002;6.893712e-002
7.444196e+002;7.037733e-002
7.463481e+002;7.212231e-002
7.482766e+002;7.274289e-002
7.502052e+002;7.272980e-002
7.521337e+002;7.290197e-002
7.540623e+002;7.291149e-002
7.559908e+002;7.229401e-002
7.579194e+002;7.222933e-002
7.598479e+002;7.229589e-002
7.617765e+002;7.258492e-002
7.637050e+002;7.282709e-002
7.656335e+002;7.226380e-002
7.675621e+002;7.197423e-002
7.694907e+002;7.179134e-002
7.714192e+002;7.197756e-002
7.733478e+002;7.181662e-002
7.752763e+002;7.058720e-002
7.772048e+002;6.994692e-002
7.791334e+002;6.970632e-002
7.810620e+002;6.993205e-002
7.829905e+002;7.024355e-002
7.849191e+002;6.974176e-002
7.868476e+002;6.927133e-002
7.887761e+002;6.845146e-002
7.907047e+002;6.759658e-002
7.926332e+002;6.749246e-002
7.945618e+002;6.767657e-002
7.964903e+002;6.743440e-002
7.984189e+002;6.651092e-002
8.003474e+002;6.570151e-002
8.022759e+002;6.548190e-002
8.042045e+002;6.543205e-002
8.061331e+002;6.540874e-002
8.080616e+002;6.499813e-002
8.099902e+002;6.408806e-002
8.119187e+002;6.374626e-002
8.138472e+002;6.435693e-002
8.157758e+002;6.444228e-002
8.177043e+002;6.406345e-002
8.196329e+002;6.432284e-002
8.215615e+002;6.454510e-002
8.234900e+002;6.438971e-002
8.254185e+002;6.455049e-002
8.273471e+002;6.579654e-002
8.292756e+002;6.682356e-002
8.312042e+002;6.712592e-002
8.331328e+002;6.728284e-002
8.350613e+002;6.764954e-002
8.369898e+002;6.742817e-002
8.389184e+002;6.641771e-002
8.408469e+002;6.521919e-002
8.427755e+002;6.454038e-002
8.447040e+002;6.330700e-002
8.466326e+002;6.147598e-002
8.485611e+002;5.983724e-002
8.504897e+002;5.902893e-002
8.524182e+002;5.859252e-002
8.543467e+002;5.779591e-002
8.562753e+002;5.691252e-002
8.582039e+002;5.666989e-002
8.601324e+002;5.603430e-002
8.620610e+002;5.539949e-002
8.639895e+002;5.518961e-002
8.659180e+002;5.549993e-002
8.678466e+002;5.612094e-002
8.697751e+002;5.659480e-002
8.717037e+002;5.658710e-002
8.736323e+002;5.644472e-002
8.755608e+002;5.633440e-002
8.774893e+002;5.624214e-002
8.794179e+002;5.578011e-002
8.813464e+002;5.600452e-002
8.832750e+002;5.672259e-002
8.852036e+002;5.657087e-002
8.871321e+002;5.625477e-002
8.890606e+002;5.618436e-002
8.909892e+002;5.595703e-002
8.929177e+002;5.542140e-002
8.948463e+002;5.467207e-002
8.967748e+002;5.428416e-002
8.987034e+002;5.486963e-002
9.006319e+002;5.576929e-002
9.025605e+002;5.589292e-002
9.044890e+002;5.582867e-002
9.064175e+002;5.621114e-002
9.083461e+002;5.621970e-002
9.102747e+002;5.627257e-002
9.122032e+002;5.653264e-002
9.141318e+002;5.661587e-002
9.160603e+002;5.636447e-002
9.179888e+002;5.618447e-002
9.199174e+002;5.635801e-002
9.218459e+002;5.702596e-002
9.237745e+002;5.728826e-002
9.257031e+002;5.708310e-002
9.276316e+002;5.735715e-002
9.295601e+002;5.782581e-002
9.314887e+002;5.815356e-002
9.334172e+002;5.836908e-002
9.353458e+002;5.876654e-002
9.372744e+002;5.917897e-002
9.392029e+002;5.968261e-002
9.411314e+002;6.020137e-002
9.430600e+002;6.055868e-002
9.449885e+002;6.078451e-002
9.469171e+002;6.159017e-002
9.488456e+002;6.242595e-002
9.507742e+002;6.290744e-002
9.527027e+002;6.299926e-002
9.546313e+002;6.332809e-002
9.565598e+002;6.365237e-002
9.584883e+002;6.343234e-002
9.604169e+002;6.348322e-002
9.623455e+002;6.373414e-002
9.642740e+002;6.398750e-002
9.662026e+002;6.389548e-002
9.681311e+002;6.352982e-002
9.700596e+002;6.285693e-002
9.719882e+002;6.243774e-002
9.739167e+002;6.248135e-002
9.758453e+002;6.235358e-002
9.777739e+002;6.219491e-002
9.797024e+002;6.226967e-002
9.816309e+002;6.242825e-002
9.835595e+002;6.304906e-002
9.854880e+002;6.364804e-002
9.874166e+002;6.369768e-002
9.893452e+002;6.384692e-002
9.912737e+002;6.419457e-002
9.932022e+002;6.446134e-002
9.951307e+002;6.485280e-002
9.970593e+002;6.538471e-002
9.989879e+002;6.586336e-002
1.000916e+003;6.604336e-002
1.002845e+003;6.646366e-002
1.004773e+003;6.700288e-002
1.006702e+003;6.738119e-002
1.008631e+003;6.794410e-002
1.010559e+003;6.850725e-002
1.012488e+003;6.914722e-002
1.014416e+003;6.980331e-002
1.016345e+003;7.051817e-002
1.018273e+003;7.107130e-002
1.020202e+003;7.225077e-002
1.022130e+003;7.331009e-002
1.024059e+003;7.450769e-002
1.025988e+003;7.631825e-002
1.027916e+003;7.769141e-002
1.029845e+003;7.970572e-002
1.031773e+003;8.281583e-002
1.033702e+003;8.660165e-002
1.035630e+003;9.043974e-002
1.037559e+003;9.259978e-002
1.039487e+003;9.238651e-002
1.041416e+003;9.082965e-002
1.043344e+003;8.921711e-002
1.045273e+003;8.832435e-002
1.047202e+003;8.861888e-002
1.049130e+003;8.948372e-002
1.051059e+003;9.064141e-002
1.052987e+003;9.193239e-002
1.054916e+003;9.340359e-002
1.056844e+003;9.517135e-002
1.058773e+003;9.721914e-002
1.060701e+003;9.957740e-002
1.062630e+003;1.013976e-001
1.064558e+003;1.030451e-001
1.066487e+003;1.039616e-001
1.068416e+003;1.039800e-001
1.070344e+003;1.039547e-001
1.072273e+003;1.035130e-001
1.074201e+003;1.021319e-001
1.076130e+003;1.004167e-001
1.078058e+003;9.877162e-002
1.079987e+003;9.719858e-002
1.081915e+003;9.536689e-002
1.083844e+003;9.423828e-002
1.085773e+003;9.320487e-002
1.087701e+003;9.119472e-002
1.089630e+003;8.915213e-002
1.091558e+003;8.796655e-002
1.093487e+003;8.740967e-002
1.095415e+003;8.640744e-002
1.097344e+003;8.532495e-002
1.099272e+003;8.474036e-002
1.101201e+003;8.431251e-002
1.103129e+003;8.403080e-002
1.105058e+003;8.324478e-002
1.106987e+003;8.228377e-002
1.108915e+003;8.164467e-002
1.110844e+003;8.105023e-002
1.112772e+003;7.999060e-002
1.114701e+003;7.855513e-002
1.116629e+003;7.686396e-002
1.118558e+003;7.553378e-002
1.120486e+003;7.439937e-002
1.122415e+003;7.316415e-002
1.124344e+003;7.157166e-002
1.126272e+003;6.964245e-002
1.128201e+003;6.810310e-002
1.130129e+003;6.672809e-002
1.132058e+003;6.546760e-002
1.133986e+003;6.529967e-002
1.135915e+003;6.554378e-002
1.137843e+003;6.594720e-002
1.139772e+003;6.729785e-002
1.141700e+003;6.923892e-002
1.143629e+003;7.131415e-002
1.145557e+003;7.357091e-002
1.147486e+003;7.608586e-002
1.149415e+003;7.941373e-002
1.151343e+003;8.351139e-002
1.153272e+003;8.776774e-002
1.155200e+003;9.215637e-002
1.157129e+003;9.644713e-002
1.159057e+003;1.007848e-001
1.160986e+003;1.047338e-001
1.162914e+003;1.078340e-001
1.164843e+003;1.103940e-001
1.166771e+003;1.119196e-001
1.168700e+003;1.121474e-001
1.170629e+003;1.121140e-001
1.172557e+003;1.114583e-001
1.174486e+003;1.099470e-001
1.176414e+003;1.081571e-001
1.178343e+003;1.058399e-001
1.180271e+003;1.041071e-001
1.182200e+003;1.030852e-001
1.184128e+003;1.021674e-001
1.186057e+003;1.024134e-001
1.187986e+003;1.032943e-001
1.189914e+003;1.040425e-001
1.191843e+003;1.047210e-001
1.193771e+003;1.055330e-001
1.195700e+003;1.065028e-001
1.197628e+003;1.070919e-001
1.199557e+003;1.073869e-001
1.201485e+003;1.070630e-001
1.203414e+003;1.067674e-001
1.205343e+003;1.064342e-001
1.207271e+003;1.059817e-001
1.209200e+003;1.055747e-001
1.211128e+003;1.052346e-001
1.213057e+003;1.046107e-001
1.214985e+003;1.043378e-001
1.216914e+003;1.042671e-001
1.218842e+003;1.038267e-001
1.220771e+003;1.036547e-001
1.222699e+003;1.037576e-001
1.224628e+003;1.038460e-001
1.226557e+003;1.039023e-001
1.228485e+003;1.038123e-001
1.230414e+003;1.035953e-001
1.232342e+003;1.032134e-001
1.234271e+003;1.026082e-001
1.236199e+003;1.018018e-001
1.238128e+003;1.012868e-001
1.240056e+003;1.008495e-001
1.241985e+003;1.008324e-001
1.243913e+003;1.011273e-001
1.245842e+003;1.014870e-001
1.247771e+003;1.016736e-001
1.249699e+003;1.011007e-001
1.251628e+003;1.006325e-001
1.253556e+003;1.005526e-001
1.255485e+003;1.000880e-001
1.257413e+003;9.960386e-002
1.259342e+003;9.954961e-002
1.261270e+003;9.948406e-002
1.263199e+003;9.900270e-002
1.265127e+003;9.854261e-002
1.267056e+003;9.767102e-002
1.268985e+003;9.684048e-002
1.270913e+003;9.639314e-002
1.272842e+003;9.558713e-002
1.274770e+003;9.462832e-002
1.276699e+003;9.366492e-002
1.278627e+003;9.270596e-002
1.280556e+003;9.116055e-002
1.282484e+003;8.953131e-002
1.284413e+003;8.828520e-002
1.286342e+003;8.718909e-002
1.288270e+003;8.628839e-002
1.290199e+003;8.535709e-002
1.292127e+003;8.425847e-002
1.294056e+003;8.338403e-002
1.295984e+003;8.278905e-002
1.297913e+003;8.229419e-002
1.299841e+003;8.189734e-002
1.301770e+003;8.153672e-002
1.303698e+003;8.093544e-002
1.305627e+003;8.077873e-002
1.307556e+003;8.096015e-002
1.309484e+003;8.104152e-002
1.311413e+003;8.074626e-002
1.313341e+003;8.066713e-002
1.315270e+003;8.095396e-002
1.317198e+003;8.113330e-002
1.319127e+003;8.126488e-002
1.321055e+003;8.156798e-002
1.322984e+003;8.173849e-002
1.324912e+003;8.162232e-002
1.326841e+003;8.162936e-002
1.328770e+003;8.201799e-002
1.330698e+003;8.270350e-002
1.332627e+003;8.347975e-002
1.334555e+003;8.431383e-002
1.336484e+003;8.507910e-002
1.338412e+003;8.585679e-002
1.340341e+003;8.674898e-002
1.342269e+003;8.766636e-002
1.344198e+003;8.884914e-002
1.346126e+003;8.987260e-002
1.348055e+003;9.032314e-002
1.349984e+003;9.055785e-002
1.351912e+003;9.096036e-002
1.353841e+003;9.106606e-002
1.355769e+003;9.095930e-002
1.357698e+003;9.085710e-002
1.359626e+003;9.047116e-002
1.361555e+003;9.004521e-002
1.363483e+003;8.951116e-002
1.365412e+003;8.878341e-002
1.367341e+003;8.774471e-002
1.369269e+003;8.675970e-002
1.371198e+003;8.609685e-002
1.373126e+003;8.524402e-002
1.375055e+003;8.409357e-002
1.376983e+003;8.346015e-002
1.378912e+003;8.287553e-002
1.380840e+003;8.205157e-002
1.382769e+003;8.111081e-002
1.384698e+003;7.979195e-002
1.386626e+003;7.816443e-002
1.388555e+003;7.684451e-002
1.390483e+003;7.523100e-002
1.392412e+003;7.289319e-002
1.394340e+003;7.030806e-002
1.396269e+003;6.813675e-002
1.398197e+003;6.630155e-002
1.400126e+003;6.456429e-002
1.402054e+003;6.347387e-002
1.403983e+003;6.315991e-002
1.405911e+003;6.306916e-002
1.407840e+003;6.299964e-002
1.409769e+003;6.312507e-002
1.411697e+003;6.381910e-002
1.413626e+003;6.477521e-002
1.415554e+003;6.567299e-002
1.417483e+003;6.672341e-002
1.419411e+003;6.855659e-002
1.421340e+003;7.110339e-002
1.423268e+003;7.422505e-002
1.425197e+003;7.856454e-002
1.427125e+003;8.406128e-002
1.429054e+003;9.027252e-002
1.430983e+003;9.662089e-002
1.432911e+003;1.021613e-001
1.434840e+003;1.068355e-001
1.436768e+003;1.113233e-001
1.438697e+003;1.156016e-001
1.440625e+003;1.201130e-001
1.442554e+003;1.249399e-001
1.444482e+003;1.294207e-001
1.446411e+003;1.331819e-001
1.448340e+003;1.359251e-001
1.450268e+003;1.373354e-001
1.452197e+003;1.364513e-001
1.454125e+003;1.326824e-001
1.456054e+003;1.263438e-001
1.457982e+003;1.182580e-001
1.459911e+003;1.099700e-001
1.461839e+003;1.017512e-001
1.463768e+003;9.366164e-002
1.465697e+003;8.658648e-002
1.467625e+003;8.079590e-002
1.469554e+003;7.592829e-002
1.471482e+003;7.181549e-002
1.473411e+003;6.821176e-002
1.475339e+003;6.523082e-002
1.477268e+003;6.306323e-002
1.479196e+003;6.162649e-002
1.481125e+003;6.050802e-002
1.483053e+003;6.002751e-002
1.484982e+003;5.938676e-002
1.486911e+003;5.849542e-002
1.488839e+003;5.785398e-002
1.490768e+003;5.680427e-002
1.492696e+003;5.562714e-002
1.494625e+003;5.495144e-002
1.496553e+003;5.470626e-002
1.498482e+003;5.449480e-002
1.500410e+003;5.413843e-002
1.502339e+003;5.372625e-002
1.504267e+003;5.340363e-002
1.506196e+003;5.297736e-002
1.508125e+003;5.297063e-002
1.510053e+003;5.309237e-002
1.511982e+003;5.319446e-002
1.513910e+003;5.324483e-002
1.515839e+003;5.323985e-002
1.517767e+003;5.334575e-002
1.519696e+003;5.287949e-002
1.521624e+003;5.256917e-002
1.523553e+003;5.285677e-002
1.525481e+003;5.292578e-002
1.527410e+003;5.295273e-002
1.529339e+003;5.295678e-002
1.531267e+003;5.307294e-002
1.533196e+003;5.315300e-002
1.535124e+003;5.331473e-002
1.537053e+003;5.320138e-002
1.538981e+003;5.286568e-002
1.540910e+003;5.293260e-002
1.542838e+003;5.322251e-002
1.544767e+003;5.340918e-002
1.546695e+003;5.331162e-002
1.548624e+003;5.316281e-002
1.550553e+003;5.312768e-002
1.552481e+003;5.283129e-002
1.554410e+003;5.250544e-002
1.556338e+003;5.212560e-002
1.558267e+003;5.140046e-002
1.560195e+003;5.129887e-002
1.562124e+003;5.144037e-002
1.564052e+003;5.109503e-002
1.565981e+003;5.058781e-002
1.567910e+003;5.015008e-002
1.569838e+003;4.989853e-002
1.571767e+003;4.975081e-002
1.573695e+003;4.941487e-002
1.575624e+003;4.912237e-002
1.577552e+003;4.941193e-002
1.579481e+003;4.981112e-002
1.581409e+003;4.981108e-002
1.583338e+003;4.966057e-002
1.585266e+003;4.979384e-002
1.587195e+003;4.980889e-002
1.589124e+003;4.969081e-002
1.591052e+003;4.961284e-002
1.592981e+003;4.965719e-002
1.594909e+003;4.976593e-002
1.596838e+003;5.012729e-002
1.598766e+003;5.090905e-002
1.600695e+003;5.162952e-002
1.602623e+003;5.235257e-002
1.604552e+003;5.285648e-002
1.606480e+003;5.342330e-002
1.608409e+003;5.421643e-002
1.610338e+003;5.488703e-002
1.612266e+003;5.516531e-002
1.614195e+003;5.524974e-002
1.616123e+003;5.548950e-002
1.618052e+003;5.614748e-002
1.619980e+003;5.698179e-002
1.621909e+003;5.747170e-002
1.623837e+003;5.808716e-002
1.625766e+003;5.890589e-002
1.627694e+003;5.988546e-002
1.629623e+003;6.073946e-002
1.631552e+003;6.120905e-002
1.633480e+003;6.173262e-002
1.635409e+003;6.223261e-002
1.637337e+003;6.255960e-002
1.639266e+003;6.285180e-002
1.641194e+003;6.291227e-002
1.643123e+003;6.269524e-002
1.645051e+003;6.265903e-002
1.646980e+003;6.300706e-002
1.648909e+003;6.338130e-002
1.650837e+003;6.320509e-002
1.652766e+003;6.275003e-002
1.654694e+003;6.304898e-002
1.656623e+003;6.339054e-002
1.658551e+003;6.344138e-002
1.660480e+003;6.335580e-002
1.662408e+003;6.348767e-002
1.664337e+003;6.384742e-002
1.666266e+003;6.396992e-002
1.668194e+003;6.393924e-002
1.670123e+003;6.396800e-002
1.672051e+003;6.361712e-002
1.673980e+003;6.309611e-002
1.675908e+003;6.269830e-002
1.677837e+003;6.237519e-002
1.679765e+003;6.200813e-002
1.681694e+003;6.150908e-002
1.683622e+003;6.117487e-002
1.685551e+003;6.133084e-002
1.687479e+003;6.157005e-002
1.689408e+003;6.164169e-002
1.691337e+003;6.171466e-002
1.693265e+003;6.187358e-002
1.695194e+003;6.232424e-002
1.697122e+003;6.295750e-002
1.699051e+003;6.350911e-002
1.700979e+003;6.465972e-002
1.702908e+003;6.686299e-002
1.704836e+003;6.928272e-002
1.706765e+003;7.243516e-002
1.708693e+003;7.686281e-002
1.710622e+003;8.232606e-002
1.712551e+003;8.822978e-002
1.714479e+003;9.404869e-002
1.716408e+003;9.990670e-002
1.718336e+003;1.064505e-001
1.720265e+003;1.132278e-001
1.722193e+003;1.192935e-001
1.724122e+003;1.242238e-001
1.726050e+003;1.280623e-001
1.727979e+003;1.304028e-001
1.729908e+003;1.309903e-001
1.731836e+003;1.298504e-001
1.733765e+003;1.271306e-001
1.735693e+003;1.232930e-001
1.737622e+003;1.183441e-001
1.739550e+003;1.123574e-001
1.741479e+003;1.059414e-001
1.743407e+003;9.923844e-002
1.745336e+003;9.283157e-002
1.747265e+003;8.660105e-002
1.749193e+003;8.010750e-002
1.751122e+003;7.388362e-002
1.753050e+003;6.840220e-002
1.754979e+003;6.319263e-002
1.756907e+003;5.825718e-002
1.758836e+003;5.401617e-002
1.760764e+003;5.022499e-002
1.762693e+003;4.713130e-002
1.764621e+003;4.484902e-002
1.766550e+003;4.302847e-002
1.768479e+003;4.155171e-002
1.770407e+003;4.048072e-002
1.772336e+003;3.959301e-002
1.774264e+003;3.891929e-002
1.776193e+003;3.848748e-002
1.778121e+003;3.803158e-002
1.780050e+003;3.742860e-002
1.781978e+003;3.680304e-002
1.783907e+003;3.625799e-002
1.785835e+003;3.593934e-002
1.787764e+003;3.567372e-002
1.789693e+003;3.519008e-002
1.791621e+003;3.469017e-002
1.793550e+003;3.449225e-002
1.795478e+003;3.418780e-002
1.797407e+003;3.397208e-002
1.799335e+003;3.364988e-002
1.801264e+003;3.319255e-002
1.803192e+003;3.317671e-002
1.805121e+003;3.291102e-002
1.807049e+003;3.237225e-002
1.808978e+003;3.204181e-002
1.810907e+003;3.173073e-002
1.812835e+003;3.135216e-002
1.814764e+003;3.143960e-002
1.816692e+003;3.153362e-002
1.818621e+003;3.121026e-002
1.820549e+003;3.103367e-002
1.822478e+003;3.101588e-002
1.824406e+003;3.093190e-002
1.826335e+003;3.071854e-002
1.828264e+003;3.053654e-002
1.830192e+003;3.040965e-002
1.832121e+003;3.021925e-002
1.834049e+003;3.008286e-002
1.835978e+003;3.012956e-002
1.837906e+003;3.008098e-002
1.839835e+003;2.999719e-002
1.841763e+003;2.974593e-002
1.843692e+003;2.953975e-002
1.845620e+003;2.963378e-002
1.847549e+003;2.993694e-002
1.849478e+003;2.998870e-002
1.851406e+003;2.946698e-002
1.853335e+003;2.919023e-002
1.855263e+003;2.933739e-002
1.857192e+003;2.954550e-002
1.859120e+003;2.946471e-002
1.861049e+003;2.937859e-002
1.862977e+003;2.915394e-002
1.864906e+003;2.885802e-002
1.866834e+003;2.861068e-002
1.868763e+003;2.865920e-002
1.870692e+003;2.892000e-002
1.872620e+003;2.871156e-002
1.874549e+003;2.840105e-002
1.876477e+003;2.849603e-002
1.878406e+003;2.862257e-002
1.880334e+003;2.875428e-002
1.882263e+003;2.861256e-002
1.884191e+003;2.843232e-002
1.886120e+003;2.864742e-002
1.888048e+003;2.863783e-002
1.889977e+003;2.837979e-002
1.891906e+003;2.826580e-002
1.893834e+003;2.827128e-002
1.895763e+003;2.839645e-002
1.897691e+003;2.851623e-002
1.899620e+003;2.836320e-002
1.901548e+003;2.837254e-002
1.903477e+003;2.838523e-002
1.905405e+003;2.819819e-002
1.907334e+003;2.809037e-002
1.909262e+003;2.809305e-002
1.911191e+003;2.822460e-002
1.913120e+003;2.815856e-002
1.915048e+003;2.799635e-002
1.916977e+003;2.789292e-002
1.918905e+003;2.770810e-002
1.920834e+003;2.773590e-002
1.922762e+003;2.803314e-002
1.924691e+003;2.801632e-002
1.926619e+003;2.772686e-002
1.928548e+003;2.775525e-002
1.930477e+003;2.790260e-002
1.932405e+003;2.790207e-002
1.934334e+003;2.782456e-002
1.936262e+003;2.763398e-002
1.938191e+003;2.757103e-002
1.940119e+003;2.747225e-002
1.942048e+003;2.719889e-002
1.943976e+003;2.720220e-002
1.945905e+003;2.746456e-002
1.947833e+003;2.762286e-002
1.949762e+003;2.756912e-002
1.951691e+003;2.747882e-002
1.953619e+003;2.742231e-002
1.955548e+003;2.765125e-002
1.957476e+003;2.781689e-002
1.959405e+003;2.767473e-002
1.961333e+003;2.748863e-002
1.963262e+003;2.747448e-002
1.965190e+003;2.769370e-002
1.967119e+003;2.780064e-002
1.969047e+003;2.762943e-002
1.970976e+003;2.766068e-002
1.972905e+003;2.802448e-002
1.974833e+003;2.840508e-002
1.976762e+003;2.868126e-002
1.978690e+003;2.865528e-002
1.980619e+003;2.846967e-002
1.982547e+003;2.856744e-002
1.984476e+003;2.877503e-002
1.986404e+003;2.877921e-002
1.988333e+003;2.872851e-002
1.990261e+003;2.883951e-002
1.992190e+003;2.908670e-002
1.994119e+003;2.904532e-002
1.996047e+003;2.903770e-002
1.997976e+003;2.905254e-002
1.999904e+003;2.890654e-002
2.001833e+003;2.892758e-002
2.003761e+003;2.926402e-002
2.005690e+003;2.948500e-002
2.007618e+003;2.948163e-002
2.009547e+003;2.947177e-002
2.011476e+003;2.942113e-002
2.013404e+003;2.930985e-002
2.015333e+003;2.949219e-002
2.017261e+003;2.952479e-002
2.019190e+003;2.937504e-002
2.021118e+003;2.930783e-002
2.023047e+003;2.930815e-002
2.024975e+003;2.915097e-002
2.026904e+003;2.916840e-002
2.028833e+003;2.946567e-002
2.030761e+003;2.960622e-002
2.032690e+003;2.941060e-002
2.034618e+003;2.934268e-002
2.036547e+003;2.920001e-002
2.038475e+003;2.896547e-002
2.040404e+003;2.887431e-002
2.042332e+003;2.887077e-002
2.044261e+003;2.899045e-002
2.046189e+003;2.921986e-002
2.048118e+003;2.938593e-002
2.050047e+003;2.925881e-002
2.051975e+003;2.902257e-002
2.053904e+003;2.906824e-002
2.055832e+003;2.907405e-002
2.057761e+003;2.902980e-002
2.059689e+003;2.902243e-002
2.061618e+003;2.893739e-002
2.063546e+003;2.895687e-002
2.065475e+003;2.897702e-002
2.067404e+003;2.890456e-002
2.069332e+003;2.894121e-002
2.071260e+003;2.890048e-002
2.073189e+003;2.884425e-002
2.075118e+003;2.877376e-002
2.077046e+003;2.866681e-002
2.078975e+003;2.869789e-002
2.080903e+003;2.889556e-002
2.082832e+003;2.884769e-002
2.084760e+003;2.880629e-002
2.086689e+003;2.885516e-002
2.088617e+003;2.865241e-002
2.090546e+003;2.859699e-002
2.092475e+003;2.877340e-002
2.094403e+003;2.885381e-002
2.096332e+003;2.889606e-002
2.098260e+003;2.883200e-002
2.100189e+003;2.878211e-002
2.102117e+003;2.896119e-002
2.104046e+003;2.905308e-002
2.105974e+003;2.902874e-002
2.107903e+003;2.904482e-002
2.109832e+003;2.894603e-002
2.111760e+003;2.878204e-002
2.113688e+003;2.876618e-002
2.115617e+003;2.892163e-002
2.117546e+003;2.889117e-002
2.119474e+003;2.869233e-002
2.121403e+003;2.877174e-002
2.123331e+003;2.876165e-002
2.125260e+003;2.854030e-002
2.127188e+003;2.848482e-002
2.129117e+003;2.848542e-002
2.131045e+003;2.849044e-002
2.132974e+003;2.862247e-002
2.134903e+003;2.851471e-002
2.136831e+003;2.828977e-002
2.138760e+003;2.831340e-002
2.140688e+003;2.843546e-002
2.142617e+003;2.838209e-002
2.144545e+003;2.803035e-002
2.146474e+003;2.788391e-002
2.148402e+003;2.797472e-002
2.150331e+003;2.807828e-002
2.152260e+003;2.807828e-002
2.154188e+003;2.801957e-002
2.156117e+003;2.814671e-002
2.158045e+003;2.824182e-002
2.159974e+003;2.831421e-002
2.161902e+003;2.855059e-002
2.163831e+003;2.861826e-002
2.165759e+003;2.868943e-002
2.167688e+003;2.867212e-002
2.169616e+003;2.855979e-002
2.171545e+003;2.855098e-002
2.173474e+003;2.880052e-002
2.175402e+003;2.909835e-002
2.177331e+003;2.930507e-002
2.179259e+003;2.956504e-002
2.181188e+003;3.008890e-002
2.183116e+003;3.079739e-002
2.185045e+003;3.174577e-002
2.186973e+003;3.295785e-002
2.188902e+003;3.398717e-002
2.190831e+003;3.436460e-002
2.192759e+003;3.442668e-002
2.194688e+003;3.432218e-002
2.196616e+003;3.407572e-002
2.198545e+003;3.367748e-002
2.200473e+003;3.319216e-002
2.202402e+003;3.281739e-002
2.204330e+003;3.281692e-002
2.206259e+003;3.307926e-002
2.208188e+003;3.330490e-002
2.210116e+003;3.369882e-002
2.212044e+003;3.415611e-002
2.213973e+003;3.440548e-002
2.215902e+003;3.498223e-002
2.217830e+003;3.574434e-002
2.219759e+003;3.678786e-002
2.221687e+003;3.792237e-002
2.223616e+003;3.945376e-002
2.225544e+003;4.232906e-002
2.227473e+003;4.713315e-002
2.229401e+003;5.422492e-002
2.231330e+003;6.360300e-002
2.233259e+003;7.422162e-002
2.235187e+003;8.478696e-002
2.237116e+003;9.448171e-002
2.239044e+003;1.019008e-001
2.240973e+003;1.057713e-001
2.242901e+003;1.060676e-001
2.244830e+003;1.031358e-001
2.246758e+003;9.804268e-002
2.248687e+003;9.168044e-002
2.250615e+003;8.502550e-002
2.252544e+003;7.866636e-002
2.254473e+003;7.232270e-002
2.256401e+003;6.650575e-002
2.258330e+003;6.123972e-002
2.260258e+003;5.595955e-002
2.262187e+003;5.109618e-002
2.264115e+003;4.724289e-002
2.266044e+003;4.424128e-002
2.267972e+003;4.189169e-002
2.269901e+003;4.036235e-002
2.271830e+003;3.930821e-002
2.273758e+003;3.850341e-002
2.275687e+003;3.788780e-002
2.277615e+003;3.707401e-002
2.279544e+003;3.636926e-002
2.281472e+003;3.614324e-002
2.283401e+003;3.594286e-002
2.285329e+003;3.558085e-002
2.287258e+003;3.541121e-002
2.289187e+003;3.519780e-002
2.291115e+003;3.515055e-002
2.293043e+003;3.491127e-002
2.294972e+003;3.461395e-002
2.296901e+003;3.451650e-002
2.298829e+003;3.454075e-002
2.300758e+003;3.435836e-002
2.302686e+003;3.401576e-002
2.304615e+003;3.391354e-002
2.306543e+003;3.383574e-002
2.308472e+003;3.364025e-002
2.310400e+003;3.361522e-002
2.312329e+003;3.383366e-002
2.314258e+003;3.389101e-002
2.316186e+003;3.387073e-002
2.318115e+003;3.372528e-002
2.320043e+003;3.361891e-002
2.321972e+003;3.355565e-002
2.323900e+003;3.337141e-002
2.325829e+003;3.327747e-002
2.327757e+003;3.329739e-002
2.329686e+003;3.327636e-002
2.331615e+003;3.307293e-002
2.333543e+003;3.292722e-002
2.335472e+003;3.313354e-002
2.337400e+003;3.316051e-002
2.339329e+003;3.311942e-002
2.341257e+003;3.327346e-002
2.343186e+003;3.340351e-002
2.345114e+003;3.353307e-002
2.347043e+003;3.377249e-002
2.348971e+003;3.398792e-002
2.350900e+003;3.372962e-002
2.352829e+003;3.336526e-002
2.354757e+003;3.323393e-002
2.356686e+003;3.307543e-002
2.358614e+003;3.285841e-002
2.360543e+003;3.287918e-002
2.362471e+003;3.279148e-002
2.364400e+003;3.285595e-002
2.366328e+003;3.328648e-002
2.368257e+003;3.338441e-002
2.370186e+003;3.345561e-002
2.372114e+003;3.371000e-002
2.374042e+003;3.378871e-002
2.375971e+003;3.385128e-002
2.377900e+003;3.417303e-002
2.379828e+003;3.434832e-002
2.381757e+003;3.431554e-002
2.383685e+003;3.428356e-002
2.385614e+003;3.429883e-002
2.387542e+003;3.426491e-002
2.389471e+003;3.425326e-002
2.391399e+003;3.437346e-002
2.393328e+003;3.439121e-002
2.395257e+003;3.425061e-002
2.397185e+003;3.419400e-002
2.399114e+003;3.429507e-002
2.401042e+003;3.431160e-002
2.402971e+003;3.437292e-002
2.404899e+003;3.424900e-002
2.406828e+003;3.398946e-002
2.408756e+003;3.397775e-002
2.410685e+003;3.416055e-002
2.412614e+003;3.434272e-002
2.414542e+003;3.433717e-002
2.416471e+003;3.417934e-002
2.418399e+003;3.392945e-002
2.420328e+003;3.377761e-002
2.422256e+003;3.418812e-002
2.424185e+003;3.455468e-002
2.426113e+003;3.446972e-002
2.428042e+003;3.419364e-002
2.429970e+003;3.410529e-002
2.431899e+003;3.429080e-002
2.433828e+003;3.419791e-002
2.435756e+003;3.408393e-002
2.437685e+003;3.415647e-002
2.439613e+003;3.418321e-002
2.441542e+003;3.437629e-002
2.443470e+003;3.459902e-002
2.445399e+003;3.460154e-002
2.447327e+003;3.448920e-002
2.449256e+003;3.466275e-002
2.451185e+003;3.495619e-002
2.453113e+003;3.484460e-002
2.455042e+003;3.461445e-002
2.456970e+003;3.468587e-002
2.458899e+003;3.487590e-002
2.460827e+003;3.500658e-002
2.462756e+003;3.514502e-002
2.464684e+003;3.520348e-002
2.466613e+003;3.518652e-002
2.468542e+003;3.519054e-002
2.470470e+003;3.530579e-002
2.472398e+003;3.539237e-002
2.474327e+003;3.584087e-002
2.476256e+003;3.624887e-002
2.478184e+003;3.602205e-002
2.480113e+003;3.593728e-002
2.482041e+003;3.614263e-002
2.483970e+003;3.636530e-002
2.485898e+003;3.641354e-002
2.487827e+003;3.665250e-002
2.489755e+003;3.707873e-002
2.491684e+003;3.718737e-002
2.493613e+003;3.732087e-002
2.495541e+003;3.768799e-002
2.497470e+003;3.744900e-002
2.499398e+003;3.707505e-002
2.501327e+003;3.721127e-002
2.503255e+003;3.744561e-002
2.505184e+003;3.758086e-002
2.507112e+003;3.755846e-002
2.509041e+003;3.750810e-002
2.510969e+003;3.771979e-002
2.512898e+003;3.781500e-002
2.514827e+003;3.767314e-002
2.516755e+003;3.770429e-002
2.518684e+003;3.784522e-002
2.520612e+003;3.761149e-002
2.522541e+003;3.741065e-002
2.524469e+003;3.765337e-002
2.526398e+003;3.800265e-002
2.528326e+003;3.802659e-002
2.530255e+003;3.783864e-002
2.532184e+003;3.779743e-002
2.534112e+003;3.787942e-002
2.536041e+003;3.777209e-002
2.537969e+003;3.797057e-002
2.539898e+003;3.829814e-002
2.541826e+003;3.816900e-002
2.543755e+003;3.798529e-002
2.545683e+003;3.792161e-002
2.547612e+003;3.762569e-002
2.549541e+003;3.744214e-002
2.551469e+003;3.756449e-002
2.553397e+003;3.782982e-002
2.555326e+003;3.791568e-002
2.557255e+003;3.758667e-002
2.559183e+003;3.734785e-002
2.561112e+003;3.754476e-002
2.563040e+003;3.746876e-002
2.564969e+003;3.737768e-002
2.566897e+003;3.744821e-002
2.568826e+003;3.737963e-002
2.570754e+003;3.703233e-002
2.572683e+003;3.678036e-002
2.574612e+003;3.649902e-002
2.576540e+003;3.623108e-002
2.578469e+003;3.637571e-002
2.580397e+003;3.644082e-002
2.582326e+003;3.632157e-002
2.584254e+003;3.636523e-002
2.586183e+003;3.631786e-002
2.588111e+003;3.623216e-002
2.590040e+003;3.623198e-002
2.591969e+003;3.649722e-002
2.593897e+003;3.646774e-002
2.595826e+003;3.617202e-002
2.597754e+003;3.609049e-002
2.599683e+003;3.624502e-002
2.601611e+003;3.635756e-002
2.603540e+003;3.645296e-002
2.605468e+003;3.643596e-002
2.607397e+003;3.643697e-002
2.609325e+003;3.665258e-002
2.611254e+003;3.670103e-002
2.613183e+003;3.626984e-002
2.615111e+003;3.621336e-002
2.617040e+003;3.657190e-002
2.618968e+003;3.688748e-002
2.620897e+003;3.701025e-002
2.622825e+003;3.695101e-002
2.624754e+003;3.679670e-002
2.626682e+003;3.700325e-002
2.628611e+003;3.740072e-002
2.630540e+003;3.755083e-002
2.632468e+003;3.739244e-002
2.634396e+003;3.713738e-002
2.636325e+003;3.707498e-002
2.638254e+003;3.712248e-002
2.640182e+003;3.723091e-002
2.642111e+003;3.729221e-002
2.644039e+003;3.743961e-002
2.645968e+003;3.732932e-002
2.647896e+003;3.708252e-002
2.649825e+003;3.708065e-002
2.651753e+003;3.708148e-002
2.653682e+003;3.702670e-002
2.655611e+003;3.704532e-002
2.657539e+003;3.711515e-002
2.659468e+003;3.734355e-002
2.661396e+003;3.731925e-002
2.663325e+003;3.708061e-002
2.665253e+003;3.724047e-002
2.667182e+003;3.762876e-002
2.669110e+003;3.784507e-002
2.671039e+003;3.778774e-002
2.672968e+003;3.792794e-002
2.674896e+003;3.797636e-002
2.676825e+003;3.767267e-002
2.678753e+003;3.760708e-002
2.680682e+003;3.762425e-002
2.682610e+003;3.757861e-002
2.684539e+003;3.751669e-002
2.686467e+003;3.747732e-002
2.688396e+003;3.747017e-002
2.690324e+003;3.747891e-002
2.692253e+003;3.780122e-002
2.694182e+003;3.799447e-002
2.696110e+003;3.744116e-002
2.698039e+003;3.707235e-002
2.699967e+003;3.708119e-002
2.701896e+003;3.721704e-002
2.703824e+003;3.746266e-002
2.705753e+003;3.749423e-002
2.707681e+003;3.759856e-002
2.709610e+003;3.778286e-002
2.711539e+003;3.780715e-002
2.713467e+003;3.758541e-002
2.715396e+003;3.740895e-002
2.717324e+003;3.738501e-002
2.719253e+003;3.741935e-002
2.721181e+003;3.735778e-002
2.723110e+003;3.710598e-002
2.725038e+003;3.681819e-002
2.726967e+003;3.669981e-002
2.728896e+003;3.662208e-002
2.730824e+003;3.652818e-002
2.732752e+003;3.644961e-002
2.734681e+003;3.641552e-002
2.736610e+003;3.659378e-002
2.738538e+003;3.658585e-002
2.740467e+003;3.631011e-002
2.742395e+003;3.622841e-002
2.744324e+003;3.655204e-002
2.746252e+003;3.662074e-002
2.748181e+003;3.629642e-002
2.750109e+003;3.601089e-002
2.752038e+003;3.617241e-002
2.753967e+003;3.663628e-002
2.755895e+003;3.670979e-002
2.757824e+003;3.658224e-002
2.759752e+003;3.649520e-002
2.761681e+003;3.655330e-002
2.763609e+003;3.661872e-002
2.765538e+003;3.668812e-002
2.767466e+003;3.696699e-002
2.769395e+003;3.721935e-002
2.771323e+003;3.730845e-002
2.773252e+003;3.748325e-002
2.775181e+003;3.766891e-002
2.777109e+003;3.790603e-002
2.779038e+003;3.844708e-002
2.780966e+003;3.882188e-002
2.782895e+003;3.893588e-002
2.784823e+003;3.895506e-002
2.786752e+003;3.907972e-002
2.788680e+003;3.942692e-002
2.790609e+003;3.987230e-002
2.792538e+003;4.032097e-002
2.794466e+003;4.047203e-002
2.796395e+003;4.052917e-002
2.798323e+003;4.105438e-002
2.800252e+003;4.158759e-002
2.802180e+003;4.184433e-002
2.804109e+003;4.206257e-002
2.806037e+003;4.243843e-002
2.807966e+003;4.272920e-002
2.809895e+003;4.294613e-002
2.811823e+003;4.305324e-002
2.813751e+003;4.308771e-002
2.815680e+003;4.320613e-002
2.817609e+003;4.328549e-002
2.819537e+003;4.347145e-002
2.821466e+003;4.373419e-002
2.823394e+003;4.383013e-002
2.825323e+003;4.401039e-002
2.827251e+003;4.439590e-002
2.829180e+003;4.479532e-002
2.831108e+003;4.518965e-002
2.833037e+003;4.574163e-002
2.834966e+003;4.652891e-002
2.836894e+003;4.769130e-002
2.838823e+003;4.950517e-002
2.840751e+003;5.166882e-002
2.842680e+003;5.381674e-002
2.844608e+003;5.628808e-002
2.846537e+003;5.935306e-002
2.848465e+003;6.284311e-002
2.850394e+003;6.580907e-002
2.852323e+003;6.717651e-002
2.854251e+003;6.695552e-002
2.856180e+003;6.608892e-002
2.858108e+003;6.528904e-002
2.860037e+003;6.527872e-002
2.861965e+003;6.539191e-002
2.863894e+003;6.525111e-002
2.865822e+003;6.537843e-002
2.867751e+003;6.529027e-002
2.869679e+003;6.529536e-002
2.871608e+003;6.515921e-002
2.873536e+003;6.483514e-002
2.875465e+003;6.489396e-002
2.877394e+003;6.472018e-002
2.879322e+003;6.430421e-002
2.881251e+003;6.424627e-002
2.883179e+003;6.425964e-002
2.885108e+003;6.415531e-002
2.887036e+003;6.440658e-002
2.888965e+003;6.502753e-002
2.890893e+003;6.562354e-002
2.892822e+003;6.651351e-002
2.894750e+003;6.760309e-002
2.896679e+003;6.856226e-002
2.898608e+003;6.985752e-002
2.900536e+003;7.088750e-002
2.902465e+003;7.195503e-002
2.904393e+003;7.390986e-002
2.906322e+003;7.576296e-002
2.908250e+003;7.753730e-002
2.910179e+003;7.931910e-002
2.912107e+003;8.148155e-002
2.914036e+003;8.408520e-002
2.915965e+003;8.666358e-002
2.917893e+003;8.908863e-002
2.919822e+003;9.059748e-002
2.921750e+003;9.143031e-002
2.923679e+003;9.160421e-002
2.925607e+003;9.131210e-002
2.927536e+003;9.069403e-002
2.929464e+003;8.977550e-002
2.931393e+003;8.945765e-002
2.933322e+003;8.937697e-002
2.935250e+003;8.879686e-002
2.937178e+003;8.778283e-002
2.939107e+003;8.637182e-002
2.941036e+003;8.517811e-002
2.942964e+003;8.423153e-002
2.944893e+003;8.307183e-002
2.946821e+003;8.212778e-002
2.948750e+003;8.118938e-002
2.950678e+003;8.012845e-002
2.952607e+003;7.942297e-002
2.954535e+003;7.854529e-002
2.956464e+003;7.726193e-002
2.958393e+003;7.582131e-002
2.960321e+003;7.423090e-002
2.962250e+003;7.298592e-002
2.964178e+003;7.219607e-002
2.966107e+003;7.097235e-002
2.968035e+003;6.956528e-002
2.969964e+003;6.858864e-002
2.971892e+003;6.764552e-002
2.973821e+003;6.694203e-002
2.975750e+003;6.625635e-002
2.977678e+003;6.525635e-002
2.979607e+003;6.451143e-002
2.981535e+003;6.412240e-002
2.983464e+003;6.373057e-002
2.985392e+003;6.325514e-002
2.987321e+003;6.274298e-002
2.989249e+003;6.223204e-002
2.991178e+003;6.173193e-002
2.993106e+003;6.130233e-002
2.995035e+003;6.098796e-002
2.996964e+003;6.051598e-002
2.998892e+003;5.983888e-002
3.000821e+003;5.931318e-002
3.002749e+003;5.884492e-002
3.004678e+003;5.823327e-002
3.006606e+003;5.771768e-002
3.008535e+003;5.737307e-002
3.010463e+003;5.696389e-002
3.012392e+003;5.636122e-002
3.014321e+003;5.563847e-002
3.016249e+003;5.497547e-002
3.018177e+003;5.427417e-002
3.020106e+003;5.383689e-002
3.022035e+003;5.348559e-002
3.023963e+003;5.286938e-002
3.025892e+003;5.228593e-002
3.027820e+003;5.210475e-002
3.029749e+003;5.218437e-002
3.031677e+003;5.183839e-002
3.033606e+003;5.122229e-002
3.035534e+003;5.089683e-002
3.037463e+003;5.059804e-002
3.039392e+003;5.018936e-002
3.041320e+003;4.986203e-002
3.043249e+003;4.965700e-002
3.045177e+003;4.964441e-002
3.047106e+003;4.966960e-002
3.049034e+003;4.937607e-002
3.050963e+003;4.885669e-002
3.052891e+003;4.874176e-002
3.054820e+003;4.849828e-002
3.056749e+003;4.824572e-002
3.058677e+003;4.802687e-002
3.060606e+003;4.756780e-002
3.062534e+003;4.743240e-002
3.064463e+003;4.742553e-002
3.066391e+003;4.705242e-002
3.068320e+003;4.658899e-002
3.070248e+003;4.636224e-002
3.072177e+003;4.624100e-002
3.074105e+003;4.589395e-002
3.076034e+003;4.540332e-002
3.077963e+003;4.519200e-002
3.079891e+003;4.519413e-002
3.081820e+003;4.470238e-002
3.083748e+003;4.442670e-002
3.085677e+003;4.455558e-002
3.087605e+003;4.450888e-002
3.089534e+003;4.445944e-002
3.091462e+003;4.436203e-002
3.093391e+003;4.415856e-002
3.095320e+003;4.381448e-002
3.097248e+003;4.368472e-002
3.099177e+003;4.347145e-002
3.101105e+003;4.301351e-002
3.103034e+003;4.254633e-002
3.104962e+003;4.229038e-002
3.106891e+003;4.209962e-002
3.108819e+003;4.230028e-002
3.110748e+003;4.228264e-002
3.112677e+003;4.203563e-002
3.114605e+003;4.204293e-002
3.116533e+003;4.193844e-002
3.118462e+003;4.175426e-002
3.120391e+003;4.173581e-002
3.122319e+003;4.181894e-002
3.124248e+003;4.171279e-002
3.126176e+003;4.142463e-002
3.128105e+003;4.144198e-002
3.130033e+003;4.143447e-002
3.131962e+003;4.134346e-002
3.133890e+003;4.127065e-002
3.135819e+003;4.128989e-002
3.137748e+003;4.116369e-002
3.139676e+003;4.105904e-002
3.141605e+003;4.111666e-002
3.143533e+003;4.117217e-002
3.145462e+003;4.074180e-002
3.147390e+003;4.059978e-002
3.149319e+003;4.092333e-002
3.151247e+003;4.069951e-002
3.153176e+003;4.037344e-002
3.155104e+003;4.068579e-002
3.157033e+003;4.106094e-002
3.158962e+003;4.076272e-002
3.160890e+003;4.039362e-002
3.162819e+003;4.062830e-002
3.164747e+003;4.095395e-002
3.166676e+003;4.125542e-002
3.168604e+003;4.120394e-002
3.170533e+003;4.121239e-002
3.172461e+003;4.124879e-002
3.174390e+003;4.118066e-002
3.176319e+003;4.071556e-002
3.178247e+003;4.034748e-002
3.180176e+003;4.093086e-002
3.182104e+003;4.141111e-002
3.184033e+003;4.151398e-002
3.185961e+003;4.162387e-002
3.187890e+003;4.167602e-002
3.189818e+003;4.156991e-002
3.191747e+003;4.139047e-002
3.193676e+003;4.138847e-002
3.195604e+003;4.151708e-002
3.197532e+003;4.161724e-002
3.199461e+003;4.153082e-002
3.201390e+003;4.164692e-002
3.203318e+003;4.198103e-002
3.205247e+003;4.202910e-002
3.207175e+003;4.182711e-002
3.209104e+003;4.170899e-002
3.211032e+003;4.203669e-002
3.212961e+003;4.249937e-002
3.214889e+003;4.232519e-002
3.216818e+003;4.192961e-002
3.218747e+003;4.164003e-002
3.220675e+003;4.191344e-002
3.222604e+003;4.259392e-002
3.224532e+003;4.293962e-002
3.226461e+003;4.309192e-002
3.228389e+003;4.266475e-002
3.230318e+003;4.250307e-002
3.232246e+003;4.258745e-002
3.234175e+003;4.288706e-002
3.236104e+003;4.318263e-002
3.238032e+003;4.322008e-002
3.239961e+003;4.326199e-002
3.241889e+003;4.310831e-002
3.243818e+003;4.289832e-002
3.245746e+003;4.283733e-002
3.247675e+003;4.276160e-002
3.249603e+003;4.288534e-002
3.251532e+003;4.289496e-002
3.253460e+003;4.279776e-002
3.255389e+003;4.276459e-002
3.257318e+003;4.307399e-002
3.259246e+003;4.327593e-002
3.261175e+003;4.297093e-002
3.263103e+003;4.274226e-002
3.265032e+003;4.289522e-002
3.266960e+003;4.316265e-002
3.268889e+003;4.347654e-002
3.270817e+003;4.353764e-002
3.272746e+003;4.334458e-002
3.274675e+003;4.334974e-002
3.276603e+003;4.313480e-002
3.278531e+003;4.288037e-002
3.280460e+003;4.315797e-002
3.282389e+003;4.340711e-002
3.284317e+003;4.336501e-002
3.286246e+003;4.293278e-002
3.288174e+003;4.269487e-002
3.290103e+003;4.283210e-002
3.292031e+003;4.285466e-002
3.293960e+003;4.288783e-002
3.295888e+003;4.291255e-002
3.297817e+003;4.294010e-002
3.299746e+003;4.282112e-002
3.301674e+003;4.275337e-002
3.303603e+003;4.277333e-002
3.305531e+003;4.236409e-002
3.307460e+003;4.230075e-002
3.309388e+003;4.230279e-002
3.311317e+003;4.195381e-002
3.313245e+003;4.168737e-002
3.315174e+003;4.193552e-002
3.317103e+003;4.259812e-002
3.319031e+003;4.292645e-002
3.320960e+003;4.270083e-002
3.322888e+003;4.236562e-002
3.324817e+003;4.246781e-002
3.326745e+003;4.199592e-002
3.328674e+003;4.171975e-002
3.330602e+003;4.224465e-002
3.332531e+003;4.213851e-002
3.334459e+003;4.177516e-002
3.336388e+003;4.136963e-002
3.338317e+003;4.102703e-002
3.340245e+003;4.128752e-002
3.342174e+003;4.123433e-002
3.344102e+003;4.118518e-002
3.346031e+003;4.122529e-002
3.347959e+003;4.115709e-002
3.349888e+003;4.099994e-002
3.351816e+003;4.048356e-002
3.353745e+003;4.062958e-002
3.355674e+003;4.062077e-002
3.357602e+003;4.041246e-002
3.359531e+003;4.038704e-002
3.361459e+003;4.024230e-002
3.363388e+003;4.013039e-002
3.365316e+003;4.026342e-002
3.367245e+003;3.997913e-002
3.369173e+003;3.974952e-002
3.371102e+003;3.948276e-002
3.373031e+003;3.939800e-002
3.374959e+003;3.928493e-002
3.376887e+003;3.916946e-002
3.378816e+003;3.896350e-002
3.380745e+003;3.869498e-002
3.382673e+003;3.852289e-002
3.384602e+003;3.822580e-002
3.386530e+003;3.824910e-002
3.388459e+003;3.824161e-002
3.390387e+003;3.742528e-002
3.392316e+003;3.673024e-002
3.394244e+003;3.680131e-002
3.396173e+003;3.715951e-002
3.398102e+003;3.758324e-002
3.400030e+003;3.749852e-002
3.401959e+003;3.732181e-002
3.403887e+003;3.742361e-002
3.405816e+003;3.731304e-002
3.407744e+003;3.708271e-002
3.409673e+003;3.711417e-002
3.411601e+003;3.737591e-002
3.413530e+003;3.752789e-002
3.415458e+003;3.738724e-002
3.417387e+003;3.745807e-002
3.419316e+003;3.765514e-002
3.421244e+003;3.766916e-002
3.423173e+003;3.774386e-002
3.425101e+003;3.768268e-002
3.427030e+003;3.807719e-002
3.428958e+003;3.853028e-002
3.430887e+003;3.769793e-002
3.432815e+003;3.694101e-002
3.434744e+003;3.736579e-002
3.436673e+003;3.777253e-002
3.438601e+003;3.782855e-002
3.440530e+003;3.768929e-002
3.442458e+003;3.774285e-002
3.444387e+003;3.766381e-002
3.446315e+003;3.760134e-002
3.448244e+003;3.758306e-002
3.450172e+003;3.728683e-002
3.452101e+003;3.744554e-002
3.454030e+003;3.812736e-002
3.455958e+003;3.804793e-002
3.457886e+003;3.752645e-002
3.459815e+003;3.727632e-002
3.461744e+003;3.711407e-002
3.463672e+003;3.690569e-002
3.465601e+003;3.696028e-002
3.467529e+003;3.658934e-002
3.469458e+003;3.614285e-002
3.471386e+003;3.617616e-002
3.473315e+003;3.633039e-002
3.475243e+003;3.638969e-002
3.477172e+003;3.578668e-002
3.479101e+003;3.557147e-002
3.481029e+003;3.576678e-002
3.482958e+003;3.574545e-002
3.484886e+003;3.586980e-002
3.486815e+003;3.572336e-002
3.488743e+003;3.547542e-002
3.490672e+003;3.555543e-002
3.492600e+003;3.557650e-002
3.494529e+003;3.536250e-002
3.496458e+003;3.527323e-002
3.498386e+003;3.575254e-002
3.500315e+003;3.570545e-002
3.502243e+003;3.533213e-002
3.504172e+003;3.540877e-002
3.506100e+003;3.594743e-002
3.508029e+003;3.636411e-002
3.509957e+003;3.631702e-002
3.511886e+003;3.602047e-002
3.513814e+003;3.560610e-002
3.515743e+003;3.580705e-002
3.517672e+003;3.611188e-002
3.519600e+003;3.593329e-002
3.521529e+003;3.573735e-002
3.523457e+003;3.592944e-002
3.525386e+003;3.663076e-002
3.527314e+003;3.721300e-002
3.529243e+003;3.713764e-002
3.531171e+003;3.667226e-002
3.533100e+003;3.660683e-002
3.535029e+003;3.637452e-002
3.536957e+003;3.611818e-002
3.538885e+003;3.632585e-002
3.540814e+003;3.666526e-002
3.542743e+003;3.635284e-002
3.544671e+003;3.623033e-002
3.546600e+003;3.652140e-002
3.548528e+003;3.652202e-002
3.550457e+003;3.613453e-002
3.552385e+003;3.579510e-002
3.554314e+003;3.572156e-002
3.556242e+003;3.557895e-002
3.558171e+003;3.540859e-002
3.560100e+003;3.552788e-002
3.562028e+003;3.564656e-002
3.563957e+003;3.509397e-002
3.565885e+003;3.435635e-002
3.567814e+003;3.459824e-002
3.569742e+003;3.508858e-002
3.571671e+003;3.485630e-002
3.573599e+003;3.490455e-002
3.575528e+003;3.518037e-002
3.577457e+003;3.475614e-002
3.579385e+003;3.403386e-002
3.581314e+003;3.431633e-002
3.583242e+003;3.455084e-002
3.585171e+003;3.417020e-002
3.587099e+003;3.407070e-002
3.589028e+003;3.447317e-002
3.590956e+003;3.472843e-002
3.592885e+003;3.452590e-002
3.594813e+003;3.432203e-002
3.596742e+003;3.496797e-002
3.598671e+003;3.553691e-002
3.600599e+003;3.560182e-002
3.602528e+003;3.568523e-002
3.604456e+003;3.581525e-002
3.606385e+003;3.575621e-002
3.608313e+003;3.544781e-002
3.610242e+003;3.539575e-002
3.612170e+003;3.536333e-002
3.614099e+003;3.543907e-002
3.616028e+003;3.548585e-002
3.617956e+003;3.547952e-002
3.619885e+003;3.551731e-002
3.621813e+003;3.557420e-002
3.623742e+003;3.568746e-002
3.625670e+003;3.512195e-002
3.627599e+003;3.435922e-002
3.629527e+003;3.455270e-002
3.631456e+003;3.467650e-002
3.633385e+003;3.445749e-002
3.635313e+003;3.404884e-002
3.637241e+003;3.382990e-002
3.639170e+003;3.377420e-002
3.641099e+003;3.367344e-002
3.643027e+003;3.370094e-002
3.644956e+003;3.353808e-002
3.646884e+003;3.275336e-002
3.648813e+003;3.214994e-002
3.650741e+003;3.205665e-002
3.652670e+003;3.156590e-002
3.654598e+003;3.072544e-002
3.656527e+003;3.037532e-002
3.658456e+003;3.016867e-002
3.660384e+003;2.984345e-002
3.662313e+003;2.959388e-002
3.664241e+003;2.892340e-002
3.666170e+003;2.810496e-002
3.668098e+003;2.758028e-002
3.670027e+003;2.739700e-002
3.671955e+003;2.746519e-002
3.673884e+003;2.749625e-002
3.675813e+003;2.728116e-002
3.677741e+003;2.702808e-002
3.679669e+003;2.696867e-002
3.681598e+003;2.686203e-002
3.683527e+003;2.633880e-002
3.685455e+003;2.576653e-002
3.687384e+003;2.524033e-002
3.689312e+003;2.508034e-002
3.691241e+003;2.521635e-002
3.693169e+003;2.530485e-002
3.695098e+003;2.552948e-002
3.697026e+003;2.555541e-002
3.698955e+003;2.546644e-002
3.700884e+003;2.530871e-002
3.702812e+003;2.519497e-002
3.704741e+003;2.513563e-002
3.706669e+003;2.506756e-002
3.708598e+003;2.497367e-002
3.710526e+003;2.493598e-002
3.712455e+003;2.508272e-002
3.714383e+003;2.472197e-002
3.716312e+003;2.461742e-002
3.718240e+003;2.500038e-002
3.720169e+003;2.499669e-002
3.722098e+003;2.468679e-002
3.724026e+003;2.449502e-002
3.725955e+003;2.426494e-002
3.727883e+003;2.448349e-002
3.729812e+003;2.492320e-002
3.731740e+003;2.487254e-002
3.733669e+003;2.477606e-002
3.735597e+003;2.494900e-002
3.737526e+003;2.481889e-002
3.739455e+003;2.449323e-002
3.741383e+003;2.466904e-002
3.743312e+003;2.450386e-002
3.745240e+003;2.456391e-002
3.747169e+003;2.475501e-002
3.749097e+003;2.465691e-002
3.751026e+003;2.499223e-002
3.752954e+003;2.536252e-002
3.754883e+003;2.559442e-002
3.756812e+003;2.529817e-002
3.758740e+003;2.527138e-002
3.760668e+003;2.503386e-002
3.762597e+003;2.447413e-002
3.764526e+003;2.406320e-002
3.766454e+003;2.457303e-002
3.768383e+003;2.527039e-002
3.770311e+003;2.508700e-002
3.772240e+003;2.455164e-002
3.774168e+003;2.492299e-002
3.776097e+003;2.510080e-002
3.778025e+003;2.476816e-002
3.779954e+003;2.459817e-002
3.781883e+003;2.498427e-002
3.783811e+003;2.541279e-002
3.785740e+003;2.544086e-002
3.787668e+003;2.553450e-002
3.789597e+003;2.618966e-002
3.791525e+003;2.596958e-002
3.793454e+003;2.541416e-002
3.795382e+003;2.563266e-002
3.797311e+003;2.541785e-002
3.799240e+003;2.502410e-002
3.801168e+003;2.494271e-002
3.803097e+003;2.530608e-002
3.805025e+003;2.564208e-002
3.806954e+003;2.546756e-002
3.808882e+003;2.574986e-002
3.810811e+003;2.596825e-002
3.812739e+003;2.571847e-002
3.814668e+003;2.493615e-002
3.816596e+003;2.510958e-002
3.818525e+003;2.581266e-002
3.820454e+003;2.554859e-002
3.822382e+003;2.525891e-002
3.824311e+003;2.551148e-002
3.826239e+003;2.541522e-002
3.828168e+003;2.551858e-002
3.830096e+003;2.569924e-002
3.832025e+003;2.538047e-002
3.833953e+003;2.549739e-002
3.835882e+003;2.595604e-002
3.837811e+003;2.597493e-002
3.839739e+003;2.589825e-002
3.841667e+003;2.618917e-002
3.843596e+003;2.582363e-002
3.845525e+003;2.545843e-002
3.847453e+003;2.582757e-002
3.849382e+003;2.573306e-002
3.851310e+003;2.549588e-002
3.853239e+003;2.530460e-002
3.855167e+003;2.558602e-002
3.857096e+003;2.656425e-002
3.859024e+003;2.677896e-002
3.860953e+003;2.642123e-002
3.862882e+003;2.632032e-002
3.864810e+003;2.588844e-002
3.866739e+003;2.545105e-002
3.868667e+003;2.542259e-002
3.870596e+003;2.600691e-002
3.872524e+003;2.634637e-002
3.874453e+003;2.628389e-002
3.876381e+003;2.620413e-002
3.878310e+003;2.595006e-002
3.880239e+003;2.610285e-002
3.882167e+003;2.625844e-002
3.884096e+003;2.612959e-002
3.886024e+003;2.646155e-002
3.887953e+003;2.665049e-002
3.889881e+003;2.676645e-002
3.891810e+003;2.647271e-002
3.893738e+003;2.629124e-002
3.895667e+003;2.645282e-002
3.897595e+003;2.650025e-002
3.899524e+003;2.633145e-002
3.901453e+003;2.621328e-002
3.903381e+003;2.654868e-002
3.905310e+003;2.691462e-002
3.907238e+003;2.689904e-002
3.909167e+003;2.687028e-002
3.911095e+003;2.691533e-002
3.913024e+003;2.699413e-002
3.914952e+003;2.706137e-002
3.916881e+003;2.697734e-002
3.918810e+003;2.696278e-002
3.920738e+003;2.688360e-002
3.922667e+003;2.710231e-002
3.924595e+003;2.729174e-002
3.926524e+003;2.728010e-002
3.928452e+003;2.687906e-002
3.930381e+003;2.684941e-002
3.932309e+003;2.743332e-002
3.934238e+003;2.774431e-002
3.936167e+003;2.737382e-002
3.938095e+003;2.708020e-002
3.940023e+003;2.696613e-002
3.941952e+003;2.710185e-002
3.943881e+003;2.721356e-002
3.945809e+003;2.700643e-002
3.947738e+003;2.708327e-002
3.949666e+003;2.780146e-002
3.951595e+003;2.802639e-002
3.953523e+003;2.791310e-002
3.955452e+003;2.805329e-002
3.957380e+003;2.799695e-002
3.959309e+003;2.804357e-002
3.961238e+003;2.821311e-002
3.963166e+003;2.808280e-002
3.965095e+003;2.797776e-002
3.967023e+003;2.789706e-002
3.968952e+003;2.771990e-002
3.970880e+003;2.751585e-002
3.972809e+003;2.766361e-002
3.974737e+003;2.780517e-002
3.976666e+003;2.794992e-002
3.978594e+003;2.817019e-002
3.980523e+003;2.785961e-002
3.982452e+003;2.739266e-002
3.984380e+003;2.760587e-002
3.986309e+003;2.771111e-002
3.988237e+003;2.799504e-002
3.990166e+003;2.877457e-002
3.992094e+003;2.926572e-002
3.994023e+003;2.901397e-002
3.995951e+003;2.832220e-002
3.997880e+003;2.828769e-002
3.999809e+003;2.884152e-002
4.001737e+003;0.000000e+000
