3.992094e+002;0.000000e+000
4.011380e+002;0.000000e+000
4.030665e+002;0.000000e+000
4.049951e+002;0.000000e+000
4.069236e+002;0.000000e+000
4.088522e+002;0.000000e+000
4.107807e+002;0.000000e+000
4.127093e+002;0.000000e+000
4.146378e+002;0.000000e+000
4.165664e+002;0.000000e+000
4.184949e+002;0.000000e+000
4.204235e+002;0.000000e+000
4.223520e+002;0.000000e+000
4.242806e+002;0.000000e+000
4.262091e+002;0.000000e+000
4.281377e+002;0.000000e+000
4.300662e+002;0.000000e+000
4.319948e+002;0.000000e+000
4.339233e+002;0.000000e+000
4.358519e+002;0.000000e+000
4.377804e+002;0.000000e+000
4.397090e+002;0.000000e+000
4.416375e+002;0.000000e+000
4.435660e+002;0.000000e+000
4.454946e+002;0.000000e+000
4.474232e+002;0.000000e+000
4.493517e+002;0.000000e+000
4.512802e+002;0.000000e+000
4.532088e+002;0.000000e+000
4.551373e+002;0.000000e+000
4.570659e+002;0.000000e+000
4.589944e+002;0.000000e+000
4.609230e+002;0.000000e+000
4.628515e+002;0.000000e+000
4.647801e+002;0.000000e+000
4.667086e+002;0.000000e+000
4.686372e+002;0.000000e+000
4.705657e+002;0.000000e+000
4.724943e+002;0.000000e+000
4.744228e+002;0.000000e+000
4.763513e+002;0.000000e+000
4.782799e+002;0.000000e+000
4.802085e+002;0.000000e+000
4.821370e+002;0.000000e+000
4.840656e+002;0.000000e+000
4.859941e+002;0.000000e+000
4.879226e+002;0.000000e+000
4.898512e+002;0.000000e+000
4.917798e+002;0.000000e+000
4.937083e+002;0.000000e+000
4.956368e+002;0.000000e+000
4.975654e+002;0.000000e+000
4.994939e+002;0.000000e+000
5.014225e+002;0.000000e+000
5.033510e+002;0.000000e+000
5.052796e+002;0.000000e+000
5.072081e+002;0.000000e+000
5.091367e+002;0.000000e+000
5.110652e+002;0.000000e+000
5.129938e+002;0.000000e+000
5.149223e+002;0.000000e+000
5.168509e+002;0.000000e+000
5.187794e+002;0.000000e+000
5.207079e+002;0.000000e+000
5.226365e+002;0.000000e+000
5.245651e+002;0.000000e+000
5.264936e+002;0.000000e+000
5.284222e+002;0.000000e+000
5.303507e+002;0.000000e+000
5.322792e+002;0.000000e+000
5.342078e+002;0.000000e+000
5.361364e+002;0.000000e+000
5.380649e+002;0.000000e+000
5.399935e+002;0.000000e+000
5.419220e+002;0.000000e+000
5.438505e+002;0.000000e+000
5.457791e+002;0.000000e+000
5.477076e+002;0.000000e+000
5.496362e+002;0.000000e+000
5.515648e+002;0.000000e+000
5.534933e+002;0.000000e+000
5.554218e+002;0.000000e+000
5.573504e+002;0.000000e+000
5.592789e+002;0.000000e+000
5.612075e+002;0.000000e+000
5.631360e+002;0.000000e+000
5.650646e+002;0.000000e+000
5.669931e+002;0.000000e+000
5.689217e+002;0.000000e+000
5.708502e+002;0.000000e+000
5.727787e+002;0.000000e+000
5.747073e+002;0.000000e+000
5.766359e+002;0.000000e+000
5.785644e+002;0.000000e+000
5.804930e+002;0.000000e+000
5.824215e+002;0.000000e+000
5.843500e+002;0.000000e+000
5.862786e+002;0.000000e+000
5.882072e+002;0.000000e+000
5.901357e+002;0.000000e+000
5.920643e+002;0.000000e+000
5.939928e+002;0.000000e+000
5.959213e+002;0.000000e+000
5.978499e+002;0.000000e+000
5.997784e+002;-2.585183e-002
6.017070e+002;-2.255486e-002
6.036355e+002;-1.600688e-002
6.055641e+002;-1.235948e-002
6.074926e+002;-1.857617e-002
6.094211e+002;-2.002730e-002
6.113497e+002;-1.637140e-002
6.132783e+002;-1.767000e-002
6.152068e+002;-2.145959e-002
6.171354e+002;-2.594682e-002
6.190639e+002;-2.763120e-002
6.209924e+002;-2.728586e-002
6.229210e+002;-2.429369e-002
6.248495e+002;-2.216033e-002
6.267781e+002;-2.230156e-002
6.287067e+002;-2.496142e-002
6.306352e+002;-2.627611e-002
6.325637e+002;-2.292162e-002
6.344923e+002;-2.077673e-002
6.364208e+002;-2.290726e-002
6.383494e+002;-2.341204e-002
6.402780e+002;-2.436462e-002
6.422065e+002;-2.719987e-002
6.441350e+002;-2.785923e-002
6.460636e+002;-2.605190e-002
6.479921e+002;-2.330230e-002
6.499207e+002;-2.119672e-002
6.518492e+002;-2.047542e-002
6.537778e+002;-2.152975e-002
6.557063e+002;-2.384762e-002
6.576349e+002;-2.525710e-002
6.595634e+002;-2.410698e-002
6.614919e+002;-2.228786e-002
6.634205e+002;-2.341493e-002
6.653491e+002;-2.613755e-002
6.672776e+002;-2.766559e-002
6.692062e+002;-2.654459e-002
6.711347e+002;-2.535756e-002
6.730632e+002;-2.403610e-002
6.749918e+002;-2.221442e-002
6.769203e+002;-2.204577e-002
6.788489e+002;-2.320287e-002
6.807775e+002;-2.498003e-002
6.827060e+002;-2.522455e-002
6.846345e+002;-2.509085e-002
6.865631e+002;-2.621607e-002
6.884916e+002;-2.698367e-002
6.904202e+002;-2.661020e-002
6.923488e+002;-2.730154e-002
6.942773e+002;-2.882547e-002
6.962058e+002;-2.922827e-002
6.981344e+002;-2.968962e-002
7.000629e+002;-2.950924e-002
7.019915e+002;-2.943069e-002
7.039200e+002;-2.935541e-002
7.058486e+002;-2.955712e-002
7.077771e+002;-3.006729e-002
7.097057e+002;-3.014173e-002
7.116342e+002;-3.015595e-002
7.135627e+002;-3.025510e-002
7.154913e+002;-3.075590e-002
7.174199e+002;-3.104356e-002
7.193484e+002;-3.106848e-002
7.212770e+002;-3.114313e-002
7.232055e+002;-3.114757e-002
7.251340e+002;-2.961188e-002
7.270626e+002;-2.802340e-002
7.289911e+002;-2.871433e-002
7.309197e+002;-2.902454e-002
7.328483e+002;-2.798342e-002
7.347768e+002;-2.669571e-002
7.367053e+002;-2.555961e-002
7.386339e+002;-2.478194e-002
7.405624e+002;-2.491205e-002
7.424910e+002;-2.435610e-002
7.444196e+002;-2.378338e-002
7.463481e+002;-2.413707e-002
7.482766e+002;-2.189694e-002
7.502052e+002;-2.055408e-002
7.521337e+002;-2.007422e-002
7.540623e+002;-1.971489e-002
7.559908e+002;-2.090375e-002
7.579194e+002;-2.000860e-002
7.598479e+002;-1.780182e-002
7.617765e+002;-1.683860e-002
7.637050e+002;-1.784169e-002
7.656335e+002;-1.887776e-002
7.675621e+002;-1.871663e-002
7.694907e+002;-1.847165e-002
7.714192e+002;-1.829671e-002
7.733478e+002;-1.776012e-002
7.752763e+002;-1.758836e-002
7.772048e+002;-1.726073e-002
7.791334e+002;-1.693874e-002
7.810620e+002;-1.737000e-002
7.829905e+002;-1.822914e-002
7.849191e+002;-1.791146e-002
7.868476e+002;-1.670254e-002
7.887761e+002;-1.615280e-002
7.907047e+002;-1.668816e-002
7.926332e+002;-1.720414e-002
7.945618e+002;-1.635397e-002
7.964903e+002;-1.470057e-002
7.984189e+002;-1.495120e-002
8.003474e+002;-1.557705e-002
8.022759e+002;-1.620413e-002
8.042045e+002;-1.620005e-002
8.061331e+002;-1.533378e-002
8.080616e+002;-1.514314e-002
8.099902e+002;-1.499339e-002
8.119187e+002;-1.457492e-002
8.138472e+002;-1.489847e-002
8.157758e+002;-1.530109e-002
8.177043e+002;-1.550291e-002
8.196329e+002;-1.614996e-002
8.215615e+002;-1.661173e-002
8.234900e+002;-1.696398e-002
8.254185e+002;-1.746635e-002
8.273471e+002;-1.832406e-002
8.292756e+002;-1.993464e-002
8.312042e+002;-2.103326e-002
8.331328e+002;-2.096102e-002
8.350613e+002;-2.150301e-002
8.369898e+002;-2.250295e-002
8.389184e+002;-2.269259e-002
8.408469e+002;-2.244320e-002
8.427755e+002;-2.246372e-002
8.447040e+002;-2.265013e-002
8.466326e+002;-2.286944e-002
8.485611e+002;-2.310058e-002
8.504897e+002;-2.286281e-002
8.524182e+002;-2.262812e-002
8.543467e+002;-2.278070e-002
8.562753e+002;-2.287171e-002
8.582039e+002;-2.241687e-002
8.601324e+002;-2.167241e-002
8.620610e+002;-2.116232e-002
8.639895e+002;-2.112908e-002
8.659180e+002;-2.065220e-002
8.678466e+002;-2.014157e-002
8.697751e+002;-2.022406e-002
8.717037e+002;-2.058407e-002
8.736323e+002;-2.034966e-002
8.755608e+002;-2.013046e-002
8.774893e+002;-2.008548e-002
8.794179e+002;-2.007548e-002
8.813464e+002;-1.989920e-002
8.832750e+002;-1.938626e-002
8.852036e+002;-1.927933e-002
8.871321e+002;-1.980376e-002
8.890606e+002;-2.009541e-002
8.909892e+002;-2.002011e-002
8.929177e+002;-1.995626e-002
8.948463e+002;-1.997287e-002
8.967748e+002;-1.979325e-002
8.987034e+002;-1.949629e-002
9.006319e+002;-1.912989e-002
9.025605e+002;-1.857125e-002
9.044890e+002;-1.816292e-002
9.064175e+002;-1.806421e-002
9.083461e+002;-1.821280e-002
9.102747e+002;-1.796296e-002
9.122032e+002;-1.764061e-002
9.141318e+002;-1.721200e-002
9.160603e+002;-1.631383e-002
9.179888e+002;-1.546793e-002
9.199174e+002;-1.502002e-002
9.218459e+002;-1.438033e-002
9.237745e+002;-1.344572e-002
9.257031e+002;-1.234067e-002
9.276316e+002;-1.128991e-002
9.295601e+002;-1.018838e-002
9.314887e+002;-8.959625e-003
9.334172e+002;-7.291715e-003
9.353458e+002;-6.268793e-003
9.372744e+002;-6.045085e-003
9.392029e+002;-6.088509e-003
9.411314e+002;-5.958877e-003
9.430600e+002;-5.425890e-003
9.449885e+002;-5.817241e-003
9.469171e+002;-6.423602e-003
9.488456e+002;-6.557730e-003
9.507742e+002;-7.110388e-003
9.527027e+002;-8.094226e-003
9.546313e+002;-8.407041e-003
9.565598e+002;-8.401517e-003
9.584883e+002;-8.738209e-003
9.604169e+002;-8.918240e-003
9.623455e+002;-8.929796e-003
9.642740e+002;-9.283365e-003
9.662026e+002;-9.588779e-003
9.681311e+002;-9.889606e-003
9.700596e+002;-1.064081e-002
9.719882e+002;-1.110686e-002
9.739167e+002;-1.108660e-002
9.758453e+002;-1.089086e-002
9.777739e+002;-1.090996e-002
9.797024e+002;-1.108444e-002
9.816309e+002;-1.088676e-002
9.835595e+002;-1.048588e-002
9.854880e+002;-1.029310e-002
9.874166e+002;-1.010853e-002
9.893452e+002;-9.920470e-003
9.912737e+002;-9.222905e-003
9.932022e+002;-7.736953e-003
9.951307e+002;-7.054613e-003
9.970593e+002;-6.633671e-003
9.989879e+002;-5.510340e-003
1.000916e+003;-3.965283e-003
1.002845e+003;-2.231995e-003
1.004773e+003;-4.151036e-004
1.006702e+003;1.431560e-003
1.008631e+003;3.585216e-003
1.010559e+003;6.419753e-003
1.012488e+003;9.923471e-003
1.014416e+003;1.355905e-002
1.016345e+003;1.684258e-002
1.018273e+003;2.008213e-002
1.020202e+003;2.329973e-002
1.022130e+003;2.563473e-002
1.024059e+003;2.702332e-002
1.025988e+003;2.789744e-002
1.027916e+003;2.805354e-002
1.029845e+003;2.803813e-002
1.031773e+003;2.850442e-002
1.033702e+003;2.927501e-002
1.035630e+003;3.034562e-002
1.037559e+003;3.114380e-002
1.039487e+003;3.183643e-002
1.041416e+003;3.268172e-002
1.043344e+003;3.293390e-002
1.045273e+003;3.189940e-002
1.047202e+003;3.075240e-002
1.049130e+003;3.026514e-002
1.051059e+003;2.984923e-002
1.052987e+003;2.974880e-002
1.054916e+003;2.998185e-002
1.056844e+003;3.104705e-002
1.058773e+003;3.231560e-002
1.060701e+003;3.299013e-002
1.062630e+003;3.408643e-002
1.064558e+003;3.556506e-002
1.066487e+003;3.631515e-002
1.068416e+003;3.655164e-002
1.070344e+003;3.636804e-002
1.072273e+003;3.583130e-002
1.074201e+003;3.553741e-002
1.076130e+003;3.528742e-002
1.078058e+003;3.448486e-002
1.079987e+003;3.380390e-002
1.081915e+003;3.332029e-002
1.083844e+003;3.169298e-002
1.085773e+003;2.967075e-002
1.087701e+003;2.852685e-002
1.089630e+003;2.707851e-002
1.091558e+003;2.503681e-002
1.093487e+003;2.341414e-002
1.095415e+003;2.199391e-002
1.097344e+003;2.107585e-002
1.099272e+003;2.068574e-002
1.101201e+003;1.918628e-002
1.103129e+003;1.758583e-002
1.105058e+003;1.675007e-002
1.106987e+003;1.557227e-002
1.108915e+003;1.418156e-002
1.110844e+003;1.313724e-002
1.112772e+003;1.204348e-002
1.114701e+003;1.033429e-002
1.116629e+003;8.465718e-003
1.118558e+003;7.014929e-003
1.120486e+003;5.381402e-003
1.122415e+003;3.287012e-003
1.124344e+003;1.016980e-003
1.126272e+003;-1.418403e-003
1.128201e+003;-3.848875e-003
1.130129e+003;-6.403589e-003
1.132058e+003;-8.683649e-003
1.133986e+003;-1.042944e-002
1.135915e+003;-1.183288e-002
1.137843e+003;-1.314889e-002
1.139772e+003;-1.406434e-002
1.141700e+003;-1.452135e-002
1.143629e+003;-1.407907e-002
1.145557e+003;-1.318123e-002
1.147486e+003;-1.246622e-002
1.149415e+003;-1.265527e-002
1.151343e+003;-1.308910e-002
1.153272e+003;-1.253727e-002
1.155200e+003;-1.153458e-002
1.157129e+003;-1.042863e-002
1.159057e+003;-8.978904e-003
1.160986e+003;-7.625620e-003
1.162914e+003;-6.559004e-003
1.164843e+003;-5.528889e-003
1.166771e+003;-3.962919e-003
1.168700e+003;-1.874582e-003
1.170629e+003;-2.859520e-004
1.172557e+003;1.011699e-003
1.174486e+003;2.141988e-003
1.176414e+003;2.836404e-003
1.178343e+003;3.582977e-003
1.180271e+003;4.974230e-003
1.182200e+003;5.888428e-003
1.184128e+003;6.726274e-003
1.186057e+003;7.719042e-003
1.187986e+003;8.485348e-003
1.189914e+003;9.341665e-003
1.191843e+003;1.057535e-002
1.193771e+003;1.190152e-002
1.195700e+003;1.350432e-002
1.197628e+003;1.524270e-002
1.199557e+003;1.703964e-002
1.201485e+003;1.928073e-002
1.203414e+003;2.195567e-002
1.205343e+003;2.466220e-002
1.207271e+003;2.800412e-002
1.209200e+003;3.260535e-002
1.211128e+003;3.735969e-002
1.213057e+003;4.233008e-002
1.214985e+003;4.807887e-002
1.216914e+003;5.391138e-002
1.218842e+003;5.950150e-002
1.220771e+003;6.501602e-002
1.222699e+003;7.001952e-002
1.224628e+003;7.457016e-002
1.226557e+003;7.875568e-002
1.228485e+003;8.165719e-002
1.230414e+003;8.341558e-002
1.232342e+003;8.440936e-002
1.234271e+003;8.462064e-002
1.236199e+003;8.420550e-002
1.238128e+003;8.321179e-002
1.240056e+003;8.145589e-002
1.241985e+003;7.901570e-002
1.243913e+003;7.619558e-002
1.245842e+003;7.246925e-002
1.247771e+003;6.808593e-002
1.249699e+003;6.396665e-002
1.251628e+003;6.067723e-002
1.253556e+003;5.720721e-002
1.255485e+003;5.298373e-002
1.257413e+003;4.885443e-002
1.259342e+003;4.473349e-002
1.261270e+003;4.059952e-002
1.263199e+003;3.657911e-002
1.265127e+003;3.270026e-002
1.267056e+003;2.863687e-002
1.268985e+003;2.430828e-002
1.270913e+003;2.038126e-002
1.272842e+003;1.711322e-002
1.274770e+003;1.468238e-002
1.276699e+003;1.218917e-002
1.278627e+003;9.645277e-003
1.280556e+003;7.961109e-003
1.282484e+003;6.358891e-003
1.284413e+003;4.640206e-003
1.286342e+003;3.461320e-003
1.288270e+003;2.812826e-003
1.290199e+003;2.178851e-003
1.292127e+003;1.598109e-003
1.294056e+003;9.399357e-004
1.295984e+003;5.757873e-004
1.297913e+003;3.553422e-004
1.299841e+003;3.399889e-004
1.301770e+003;4.722179e-004
1.303698e+003;4.810744e-004
1.305627e+003;4.641245e-004
1.307556e+003;1.854245e-004
1.309484e+003;-3.840065e-005
1.311413e+003;-1.384120e-004
1.313341e+003;-1.481066e-005
1.315270e+003;2.269612e-004
1.317198e+003;1.497684e-005
1.319127e+003;-1.972684e-004
1.321055e+003;-4.539641e-004
1.322984e+003;-7.028666e-004
1.324912e+003;-6.989631e-004
1.326841e+003;-5.173449e-004
1.328770e+003;-4.339053e-004
1.330698e+003;-6.735628e-005
1.332627e+003;3.652244e-004
1.334555e+003;7.756311e-004
1.336484e+003;1.580982e-003
1.338412e+003;2.534448e-003
1.340341e+003;3.727560e-003
1.342269e+003;5.418238e-003
1.344198e+003;7.300441e-003
1.346126e+003;8.927383e-003
1.348055e+003;1.053736e-002
1.349984e+003;1.221057e-002
1.351912e+003;1.403345e-002
1.353841e+003;1.590278e-002
1.355769e+003;1.809177e-002
1.357698e+003;2.051932e-002
1.359626e+003;2.262737e-002
1.361555e+003;2.450003e-002
1.363483e+003;2.625231e-002
1.365412e+003;2.798617e-002
1.367341e+003;2.918729e-002
1.369269e+003;2.982372e-002
1.371198e+003;2.947556e-002
1.373126e+003;2.845397e-002
1.375055e+003;2.725988e-002
1.376983e+003;2.519265e-002
1.378912e+003;2.214196e-002
1.380840e+003;1.816477e-002
1.382769e+003;1.354066e-002
1.384698e+003;8.685688e-003
1.386626e+003;3.423281e-003
1.388555e+003;-3.939176e-004
1.390483e+003;-2.933138e-003
1.392412e+003;-6.046817e-003
1.394340e+003;-9.436196e-003
1.396269e+003;-1.129369e-002
1.398197e+003;-1.254358e-002
1.400126e+003;-1.333700e-002
1.402054e+003;-1.379795e-002
1.403983e+003;-1.508666e-002
1.405911e+003;-1.559556e-002
1.407840e+003;-1.540040e-002
1.409769e+003;-1.520416e-002
1.411697e+003;-1.440321e-002
1.413626e+003;-1.337778e-002
1.415554e+003;-1.255343e-002
1.417483e+003;-1.231036e-002
1.419411e+003;-1.105544e-002
1.421340e+003;-7.086202e-003
1.423268e+003;-3.388683e-003
1.425197e+003;-1.121111e-004
1.427125e+003;3.567743e-003
1.429054e+003;7.728553e-003
1.430983e+003;1.289098e-002
1.432911e+003;1.832742e-002
1.434840e+003;2.255687e-002
1.436768e+003;2.777062e-002
1.438697e+003;3.574466e-002
1.440625e+003;4.264764e-002
1.442554e+003;4.825968e-002
1.444482e+003;5.322547e-002
1.446411e+003;5.697545e-002
1.448340e+003;5.956595e-002
1.450268e+003;6.116777e-002
1.452197e+003;6.071297e-002
1.454125e+003;5.696302e-002
1.456054e+003;4.915138e-002
1.457982e+003;4.239627e-002
1.459911e+003;3.673936e-002
1.461839e+003;2.853290e-002
1.463768e+003;1.824769e-002
1.465697e+003;9.415778e-003
1.467625e+003;3.192807e-003
1.469554e+003;-2.650834e-003
1.471482e+003;-8.636910e-003
1.473411e+003;-1.231738e-002
1.475339e+003;-1.372983e-002
1.477268e+003;-1.513428e-002
1.479196e+003;-1.631188e-002
1.481125e+003;-1.749515e-002
1.483053e+003;-1.838292e-002
1.484982e+003;-1.958895e-002
1.486911e+003;-2.110024e-002
1.488839e+003;-2.264315e-002
1.490768e+003;-2.320695e-002
1.492696e+003;-2.259943e-002
1.494625e+003;-2.369651e-002
1.496553e+003;-2.535835e-002
1.498482e+003;-2.481574e-002
1.500410e+003;-2.385605e-002
1.502339e+003;-2.401525e-002
1.504267e+003;-2.704180e-002
1.506196e+003;-3.037737e-002
1.508125e+003;-2.860629e-002
1.510053e+003;-2.587106e-002
1.511982e+003;-2.571650e-002
1.513910e+003;-2.599719e-002
1.515839e+003;-2.657741e-002
1.517767e+003;-2.691716e-002
1.519696e+003;-2.864268e-002
1.521624e+003;-2.996373e-002
1.523553e+003;-2.829518e-002
1.525481e+003;-2.774598e-002
1.527410e+003;-2.745030e-002
1.529339e+003;-2.672559e-002
1.531267e+003;-2.684468e-002
1.533196e+003;-2.783024e-002
1.535124e+003;-2.743649e-002
1.537053e+003;-2.884475e-002
1.538981e+003;-3.286152e-002
1.540910e+003;-3.286702e-002
1.542838e+003;-3.019715e-002
1.544767e+003;-2.864956e-002
1.546695e+003;-2.776624e-002
1.548624e+003;-2.785451e-002
1.550553e+003;-2.794580e-002
1.552481e+003;-2.849283e-002
1.554410e+003;-2.994320e-002
1.556338e+003;-3.197898e-002
1.558267e+003;-3.563970e-002
1.560195e+003;-3.434385e-002
1.562124e+003;-2.989019e-002
1.564052e+003;-2.864302e-002
1.565981e+003;-2.881694e-002
1.567910e+003;-2.953019e-002
1.569838e+003;-2.981669e-002
1.571767e+003;-2.863256e-002
1.573695e+003;-2.915934e-002
1.575624e+003;-3.149137e-002
1.577552e+003;-3.019799e-002
1.579481e+003;-2.804058e-002
1.581409e+003;-2.767439e-002
1.583338e+003;-2.729519e-002
1.585266e+003;-2.740427e-002
1.587195e+003;-2.754908e-002
1.589124e+003;-2.727851e-002
1.591052e+003;-2.697060e-002
1.592981e+003;-2.685297e-002
1.594909e+003;-2.665461e-002
1.596838e+003;-2.626223e-002
1.598766e+003;-2.598015e-002
1.600695e+003;-2.564907e-002
1.602623e+003;-2.485545e-002
1.604552e+003;-2.420423e-002
1.606480e+003;-2.410748e-002
1.608409e+003;-2.376857e-002
1.610338e+003;-2.288111e-002
1.612266e+003;-2.203570e-002
1.614195e+003;-2.264001e-002
1.616123e+003;-2.421194e-002
1.618052e+003;-2.236217e-002
1.619980e+003;-2.003900e-002
1.621909e+003;-2.040543e-002
1.623837e+003;-2.028395e-002
1.625766e+003;-1.929775e-002
1.627694e+003;-1.897098e-002
1.629623e+003;-1.869800e-002
1.631552e+003;-1.873672e-002
1.633480e+003;-2.067011e-002
1.635409e+003;-2.294057e-002
1.637337e+003;-2.167720e-002
1.639266e+003;-1.990477e-002
1.641194e+003;-1.940838e-002
1.643123e+003;-1.999477e-002
1.645051e+003;-2.224474e-002
1.646980e+003;-2.306866e-002
1.648909e+003;-2.192249e-002
1.650837e+003;-2.473812e-002
1.652766e+003;-2.887845e-002
1.654694e+003;-2.535331e-002
1.656623e+003;-2.144057e-002
1.658551e+003;-2.106078e-002
1.660480e+003;-2.147633e-002
1.662408e+003;-2.227099e-002
1.664337e+003;-2.186175e-002
1.666266e+003;-2.153590e-002
1.668194e+003;-2.266514e-002
1.670123e+003;-2.278409e-002
1.672051e+003;-2.192510e-002
1.673980e+003;-2.228446e-002
1.675908e+003;-2.186638e-002
1.677837e+003;-2.042045e-002
1.679765e+003;-2.042974e-002
1.681694e+003;-2.149068e-002
1.683622e+003;-2.417559e-002
1.685551e+003;-2.270256e-002
1.687479e+003;-1.885494e-002
1.689408e+003;-1.749773e-002
1.691337e+003;-1.687251e-002
1.693265e+003;-1.762187e-002
1.695194e+003;-2.007694e-002
1.697122e+003;-1.909961e-002
1.699051e+003;-1.901209e-002
1.700979e+003;-1.786144e-002
1.702908e+003;-1.323668e-002
1.704836e+003;-1.104952e-002
1.706765e+003;-8.783962e-003
1.708693e+003;-5.650637e-003
1.710622e+003;-2.063911e-003
1.712551e+003;1.676900e-003
1.714479e+003;5.460782e-003
1.716408e+003;9.277753e-003
1.718336e+003;1.660208e-002
1.720265e+003;2.643954e-002
1.722193e+003;3.481692e-002
1.724122e+003;4.230250e-002
1.726050e+003;4.967390e-002
1.727979e+003;5.585452e-002
1.729908e+003;6.075627e-002
1.731836e+003;6.267511e-002
1.733765e+003;6.233763e-002
1.735693e+003;6.486723e-002
1.737622e+003;6.538332e-002
1.739550e+003;6.196349e-002
1.741479e+003;5.788892e-002
1.743407e+003;5.231950e-002
1.745336e+003;4.586015e-002
1.747265e+003;3.865536e-002
1.749193e+003;3.052189e-002
1.751122e+003;2.249869e-002
1.753050e+003;1.643030e-002
1.754979e+003;9.989716e-003
1.756907e+003;3.183829e-003
1.758836e+003;-2.324845e-003
1.760764e+003;-8.174613e-003
1.762693e+003;-1.284501e-002
1.764621e+003;-1.534427e-002
1.766550e+003;-1.837936e-002
1.768479e+003;-2.124692e-002
1.770407e+003;-2.389667e-002
1.772336e+003;-2.610928e-002
1.774264e+003;-2.557545e-002
1.776193e+003;-2.497424e-002
1.778121e+003;-2.558879e-002
1.780050e+003;-2.642205e-002
1.781978e+003;-2.670820e-002
1.783907e+003;-2.695409e-002
1.785835e+003;-2.697390e-002
1.787764e+003;-2.693983e-002
1.789693e+003;-2.792803e-002
1.791621e+003;-2.905247e-002
1.793550e+003;-2.859863e-002
1.795478e+003;-2.794083e-002
1.797407e+003;-2.823166e-002
1.799335e+003;-2.864007e-002
1.801264e+003;-2.889566e-002
1.803192e+003;-2.861361e-002
1.805121e+003;-2.852916e-002
1.807049e+003;-2.869063e-002
1.808978e+003;-2.886974e-002
1.810907e+003;-2.886286e-002
1.812835e+003;-2.877663e-002
1.814764e+003;-2.856158e-002
1.816692e+003;-2.870170e-002
1.818621e+003;-2.877576e-002
1.820549e+003;-2.868796e-002
1.822478e+003;-2.873693e-002
1.824406e+003;-2.931363e-002
1.826335e+003;-2.942251e-002
1.828264e+003;-2.970723e-002
1.830192e+003;-2.987249e-002
1.832121e+003;-2.928954e-002
1.834049e+003;-2.891590e-002
1.835978e+003;-2.895474e-002
1.837906e+003;-2.911742e-002
1.839835e+003;-2.910357e-002
1.841763e+003;-2.956536e-002
1.843692e+003;-3.060418e-002
1.845620e+003;-2.999843e-002
1.847549e+003;-2.921820e-002
1.849478e+003;-2.909916e-002
1.851406e+003;-2.907465e-002
1.853335e+003;-2.919766e-002
1.855263e+003;-2.905557e-002
1.857192e+003;-2.887678e-002
1.859120e+003;-2.908094e-002
1.861049e+003;-2.927111e-002
1.862977e+003;-2.925410e-002
1.864906e+003;-2.912826e-002
1.866834e+003;-2.951970e-002
1.868763e+003;-3.019474e-002
1.870692e+003;-2.992764e-002
1.872620e+003;-2.960361e-002
1.874549e+003;-2.956424e-002
1.876477e+003;-2.947880e-002
1.878406e+003;-2.932896e-002
1.880334e+003;-2.921708e-002
1.882263e+003;-2.949942e-002
1.884191e+003;-2.957774e-002
1.886120e+003;-2.970552e-002
1.888048e+003;-3.022024e-002
1.889977e+003;-3.011422e-002
1.891906e+003;-2.954422e-002
1.893834e+003;-2.961067e-002
1.895763e+003;-2.962401e-002
1.897691e+003;-2.973436e-002
1.899620e+003;-2.972873e-002
1.901548e+003;-2.949865e-002
1.903477e+003;-2.946899e-002
1.905405e+003;-2.981740e-002
1.907334e+003;-2.995872e-002
1.909262e+003;-2.984110e-002
1.911191e+003;-2.973083e-002
1.913120e+003;-2.951122e-002
1.915048e+003;-2.951626e-002
1.916977e+003;-3.002579e-002
1.918905e+003;-3.013437e-002
1.920834e+003;-2.996240e-002
1.922762e+003;-3.000984e-002
1.924691e+003;-2.988818e-002
1.926619e+003;-2.970818e-002
1.928548e+003;-2.960801e-002
1.930477e+003;-2.948326e-002
1.932405e+003;-2.943759e-002
1.934334e+003;-2.963983e-002
1.936262e+003;-2.973052e-002
1.938191e+003;-2.965357e-002
1.940119e+003;-2.970707e-002
1.942048e+003;-2.986742e-002
1.943976e+003;-2.983494e-002
1.945905e+003;-2.970986e-002
1.947833e+003;-2.968764e-002
1.949762e+003;-2.938845e-002
1.951691e+003;-2.915082e-002
1.953619e+003;-2.928353e-002
1.955548e+003;-2.942883e-002
1.957476e+003;-2.931946e-002
1.959405e+003;-2.922938e-002
1.961333e+003;-2.945893e-002
1.963262e+003;-2.957895e-002
1.965190e+003;-2.945007e-002
1.967119e+003;-2.956505e-002
1.969047e+003;-2.939267e-002
1.970976e+003;-2.900929e-002
1.972905e+003;-2.885839e-002
1.974833e+003;-2.896147e-002
1.976762e+003;-2.896017e-002
1.978690e+003;-2.877557e-002
1.980619e+003;-2.849274e-002
1.982547e+003;-2.840351e-002
1.984476e+003;-2.848687e-002
1.986404e+003;-2.852631e-002
1.988333e+003;-2.846987e-002
1.990261e+003;-2.849022e-002
1.992190e+003;-2.843089e-002
1.994119e+003;-2.845730e-002
1.996047e+003;-2.861352e-002
1.997976e+003;-2.840739e-002
1.999904e+003;-2.823225e-002
2.001833e+003;-2.830245e-002
2.003761e+003;-2.846375e-002
2.005690e+003;-2.854995e-002
2.007618e+003;-2.836608e-002
2.009547e+003;-2.819869e-002
2.011476e+003;-2.806854e-002
2.013404e+003;-2.787166e-002
2.015333e+003;-2.809593e-002
2.017261e+003;-2.831726e-002
2.019190e+003;-2.825641e-002
2.021118e+003;-2.815270e-002
2.023047e+003;-2.825147e-002
2.024975e+003;-2.822101e-002
2.026904e+003;-2.778536e-002
2.028833e+003;-2.766975e-002
2.030761e+003;-2.791122e-002
2.032690e+003;-2.810146e-002
2.034618e+003;-2.805664e-002
2.036547e+003;-2.779182e-002
2.038475e+003;-2.785084e-002
2.040404e+003;-2.812220e-002
2.042332e+003;-2.799442e-002
2.044261e+003;-2.779810e-002
2.046189e+003;-2.793517e-002
2.048118e+003;-2.813553e-002
2.050047e+003;-2.800613e-002
2.051975e+003;-2.791973e-002
2.053904e+003;-2.802390e-002
2.055832e+003;-2.796789e-002
2.057761e+003;-2.778881e-002
2.059689e+003;-2.810596e-002
2.061618e+003;-2.841481e-002
2.063546e+003;-2.826128e-002
2.065475e+003;-2.773612e-002
2.067404e+003;-2.767056e-002
2.069332e+003;-2.777336e-002
2.071260e+003;-2.775151e-002
2.073189e+003;-2.788067e-002
2.075118e+003;-2.785768e-002
2.077046e+003;-2.770731e-002
2.078975e+003;-2.756031e-002
2.080903e+003;-2.753509e-002
2.082832e+003;-2.782116e-002
2.084760e+003;-2.792296e-002
2.086689e+003;-2.780565e-002
2.088617e+003;-2.807453e-002
2.090546e+003;-2.822924e-002
2.092475e+003;-2.818239e-002
2.094403e+003;-2.825830e-002
2.096332e+003;-2.830149e-002
2.098260e+003;-2.832616e-002
2.100189e+003;-2.819950e-002
2.102117e+003;-2.814453e-002
2.104046e+003;-2.809552e-002
2.105974e+003;-2.798208e-002
2.107903e+003;-2.802098e-002
2.109832e+003;-2.807248e-002
2.111760e+003;-2.801554e-002
2.113688e+003;-2.796136e-002
2.115617e+003;-2.803881e-002
2.117546e+003;-2.807773e-002
2.119474e+003;-2.795161e-002
2.121403e+003;-2.785985e-002
2.123331e+003;-2.804157e-002
2.125260e+003;-2.812823e-002
2.127188e+003;-2.793685e-002
2.129117e+003;-2.782309e-002
2.131045e+003;-2.795453e-002
2.132974e+003;-2.790078e-002
2.134903e+003;-2.779313e-002
2.136831e+003;-2.781740e-002
2.138760e+003;-2.786097e-002
2.140688e+003;-2.807763e-002
2.142617e+003;-2.818481e-002
2.144545e+003;-2.817167e-002
2.146474e+003;-2.813652e-002
2.148402e+003;-2.826370e-002
2.150331e+003;-2.818869e-002
2.152260e+003;-2.803260e-002
2.154188e+003;-2.811320e-002
2.156117e+003;-2.815537e-002
2.158045e+003;-2.799265e-002
2.159974e+003;-2.788676e-002
2.161902e+003;-2.783903e-002
2.163831e+003;-2.781464e-002
2.165759e+003;-2.772350e-002
2.167688e+003;-2.789369e-002
2.169616e+003;-2.800507e-002
2.171545e+003;-2.786762e-002
2.173474e+003;-2.774971e-002
2.175402e+003;-2.757315e-002
2.177331e+003;-2.747108e-002
2.179259e+003;-2.726476e-002
2.181188e+003;-2.680736e-002
2.183116e+003;-2.657729e-002
2.185045e+003;-2.644001e-002
2.186973e+003;-2.614768e-002
2.188902e+003;-2.592232e-002
2.190831e+003;-2.550737e-002
2.192759e+003;-2.516659e-002
2.194688e+003;-2.531599e-002
2.196616e+003;-2.579413e-002
2.198545e+003;-2.573608e-002
2.200473e+003;-2.521533e-002
2.202402e+003;-2.541772e-002
2.204330e+003;-2.603165e-002
2.206259e+003;-2.606638e-002
2.208188e+003;-2.544769e-002
2.210116e+003;-2.516349e-002
2.212044e+003;-2.527186e-002
2.213973e+003;-2.490961e-002
2.215902e+003;-2.435171e-002
2.217830e+003;-2.393822e-002
2.219759e+003;-2.347423e-002
2.221687e+003;-2.263614e-002
2.223616e+003;-2.155258e-002
2.225544e+003;-2.003891e-002
2.227473e+003;-1.774593e-002
2.229401e+003;-1.367705e-002
2.231330e+003;-6.193572e-003
2.233259e+003;4.907270e-003
2.235187e+003;1.819310e-002
2.237116e+003;3.184524e-002
2.239044e+003;4.353547e-002
2.240973e+003;5.117528e-002
2.242901e+003;5.458035e-002
2.244830e+003;5.467327e-002
2.246758e+003;5.135499e-002
2.248687e+003;4.536039e-002
2.250615e+003;3.823401e-002
2.252544e+003;3.048702e-002
2.254473e+003;2.224741e-002
2.256401e+003;1.430321e-002
2.258330e+003;6.724929e-003
2.260258e+003;-3.462369e-005
2.262187e+003;-5.566215e-003
2.264115e+003;-1.018022e-002
2.266044e+003;-1.386285e-002
2.267972e+003;-1.633518e-002
2.269901e+003;-1.813324e-002
2.271830e+003;-1.955515e-002
2.273758e+003;-2.035712e-002
2.275687e+003;-2.124165e-002
2.277615e+003;-2.201129e-002
2.279544e+003;-2.262000e-002
2.281472e+003;-2.280305e-002
2.283401e+003;-2.297596e-002
2.285329e+003;-2.329640e-002
2.287258e+003;-2.358082e-002
2.289187e+003;-2.367813e-002
2.291115e+003;-2.368553e-002
2.293043e+003;-2.375866e-002
2.294972e+003;-2.400466e-002
2.296901e+003;-2.438282e-002
2.298829e+003;-2.421109e-002
2.300758e+003;-2.423970e-002
2.302686e+003;-2.466725e-002
2.304615e+003;-2.483695e-002
2.306543e+003;-2.487469e-002
2.308472e+003;-2.498278e-002
2.310400e+003;-2.515861e-002
2.312329e+003;-2.540757e-002
2.314258e+003;-2.592965e-002
2.316186e+003;-2.650924e-002
2.318115e+003;-2.680883e-002
2.320043e+003;-2.709535e-002
2.321972e+003;-2.772922e-002
2.323900e+003;-2.872527e-002
2.325829e+003;-2.941180e-002
2.327757e+003;-2.990441e-002
2.329686e+003;-3.063324e-002
2.331615e+003;-3.105673e-002
2.333543e+003;-3.100685e-002
2.335472e+003;-3.101654e-002
2.337400e+003;-3.111379e-002
2.339329e+003;-3.102237e-002
2.341257e+003;-3.064621e-002
2.343186e+003;-3.011496e-002
2.345114e+003;-2.903945e-002
2.347043e+003;-2.733355e-002
2.348971e+003;-2.632488e-002
2.350900e+003;-2.717575e-002
2.352829e+003;-2.916151e-002
2.354757e+003;-3.089784e-002
2.356686e+003;-3.223966e-002
2.358614e+003;-3.327496e-002
2.360543e+003;-3.360914e-002
2.362471e+003;-3.348858e-002
2.364400e+003;-3.301036e-002
2.366328e+003;-3.213548e-002
2.368257e+003;-3.126490e-002
2.370186e+003;-3.005362e-002
2.372114e+003;-2.850564e-002
2.374042e+003;-2.735129e-002
2.375971e+003;-2.641251e-002
2.377900e+003;-2.571254e-002
2.379828e+003;-2.504603e-002
2.381757e+003;-2.465069e-002
2.383685e+003;-2.480841e-002
2.385614e+003;-2.484819e-002
2.387542e+003;-2.456384e-002
2.389471e+003;-2.458576e-002
2.391399e+003;-2.473709e-002
2.393328e+003;-2.449893e-002
2.395257e+003;-2.450503e-002
2.397185e+003;-2.449198e-002
2.399114e+003;-2.454051e-002
2.401042e+003;-2.455714e-002
2.402971e+003;-2.459168e-002
2.404899e+003;-2.457721e-002
2.406828e+003;-2.460088e-002
2.408756e+003;-2.463585e-002
2.410685e+003;-2.450062e-002
2.412614e+003;-2.445684e-002
2.414542e+003;-2.432756e-002
2.416471e+003;-2.449104e-002
2.418399e+003;-2.479402e-002
2.420328e+003;-2.467627e-002
2.422256e+003;-2.435723e-002
2.424185e+003;-2.432502e-002
2.426113e+003;-2.459055e-002
2.428042e+003;-2.448618e-002
2.429970e+003;-2.438088e-002
2.431899e+003;-2.485354e-002
2.433828e+003;-2.510026e-002
2.435756e+003;-2.469104e-002
2.437685e+003;-2.440838e-002
2.439613e+003;-2.479746e-002
2.441542e+003;-2.489525e-002
2.443470e+003;-2.475455e-002
2.445399e+003;-2.473631e-002
2.447327e+003;-2.477477e-002
2.449256e+003;-2.461457e-002
2.451185e+003;-2.452836e-002
2.453113e+003;-2.436478e-002
2.455042e+003;-2.426368e-002
2.456970e+003;-2.448361e-002
2.458899e+003;-2.445170e-002
2.460827e+003;-2.448687e-002
2.462756e+003;-2.464330e-002
2.464684e+003;-2.457565e-002
2.466613e+003;-2.413773e-002
2.468542e+003;-2.411601e-002
2.470470e+003;-2.438840e-002
2.472398e+003;-2.435225e-002
2.474327e+003;-2.398008e-002
2.476256e+003;-2.377983e-002
2.478184e+003;-2.366181e-002
2.480113e+003;-2.372378e-002
2.482041e+003;-2.390501e-002
2.483970e+003;-2.387851e-002
2.485898e+003;-2.389246e-002
2.487827e+003;-2.392113e-002
2.489755e+003;-2.355477e-002
2.491684e+003;-2.323481e-002
2.493613e+003;-2.330239e-002
2.495541e+003;-2.321420e-002
2.497470e+003;-2.330170e-002
2.499398e+003;-2.381032e-002
2.501327e+003;-2.392878e-002
2.503255e+003;-2.361248e-002
2.505184e+003;-2.349262e-002
2.507112e+003;-2.335760e-002
2.509041e+003;-2.322963e-002
2.510969e+003;-2.316027e-002
2.512898e+003;-2.306307e-002
2.514827e+003;-2.306062e-002
2.516755e+003;-2.297087e-002
2.518684e+003;-2.303322e-002
2.520612e+003;-2.301163e-002
2.522541e+003;-2.296144e-002
2.524469e+003;-2.302797e-002
2.526398e+003;-2.284898e-002
2.528326e+003;-2.264180e-002
2.530255e+003;-2.276884e-002
2.532184e+003;-2.302448e-002
2.534112e+003;-2.324963e-002
2.536041e+003;-2.328487e-002
2.537969e+003;-2.301263e-002
2.539898e+003;-2.272979e-002
2.541826e+003;-2.252202e-002
2.543755e+003;-2.266262e-002
2.545683e+003;-2.272523e-002
2.547612e+003;-2.270089e-002
2.549541e+003;-2.272164e-002
2.551469e+003;-2.273957e-002
2.553397e+003;-2.285718e-002
2.555326e+003;-2.305920e-002
2.557255e+003;-2.300302e-002
2.559183e+003;-2.310410e-002
2.561112e+003;-2.333094e-002
2.563040e+003;-2.317783e-002
2.564969e+003;-2.299752e-002
2.566897e+003;-2.310982e-002
2.568826e+003;-2.307554e-002
2.570754e+003;-2.307190e-002
2.572683e+003;-2.320755e-002
2.574612e+003;-2.320842e-002
2.576540e+003;-2.332287e-002
2.578469e+003;-2.346497e-002
2.580397e+003;-2.355825e-002
2.582326e+003;-2.347551e-002
2.584254e+003;-2.340774e-002
2.586183e+003;-2.352470e-002
2.588111e+003;-2.359463e-002
2.590040e+003;-2.345003e-002
2.591969e+003;-2.358424e-002
2.593897e+003;-2.383871e-002
2.595826e+003;-2.357683e-002
2.597754e+003;-2.329307e-002
2.599683e+003;-2.334906e-002
2.601611e+003;-2.360925e-002
2.603540e+003;-2.361772e-002
2.605468e+003;-2.345863e-002
2.607397e+003;-2.337706e-002
2.609325e+003;-2.357664e-002
2.611254e+003;-2.385292e-002
2.613183e+003;-2.377538e-002
2.615111e+003;-2.357859e-002
2.617040e+003;-2.336950e-002
2.618968e+003;-2.320428e-002
2.620897e+003;-2.347307e-002
2.622825e+003;-2.342993e-002
2.624754e+003;-2.313175e-002
2.626682e+003;-2.307472e-002
2.628611e+003;-2.295509e-002
2.630540e+003;-2.288463e-002
2.632468e+003;-2.304560e-002
2.634396e+003;-2.329175e-002
2.636325e+003;-2.334645e-002
2.638254e+003;-2.337383e-002
2.640182e+003;-2.340943e-002
2.642111e+003;-2.342441e-002
2.644039e+003;-2.334403e-002
2.645968e+003;-2.335063e-002
2.647896e+003;-2.340400e-002
2.649825e+003;-2.322727e-002
2.651753e+003;-2.309342e-002
2.653682e+003;-2.312361e-002
2.655611e+003;-2.308773e-002
2.657539e+003;-2.310859e-002
2.659468e+003;-2.309223e-002
2.661396e+003;-2.331401e-002
2.663325e+003;-2.339684e-002
2.665253e+003;-2.316998e-002
2.667182e+003;-2.291483e-002
2.669110e+003;-2.274403e-002
2.671039e+003;-2.298731e-002
2.672968e+003;-2.316910e-002
2.674896e+003;-2.290578e-002
2.676825e+003;-2.267797e-002
2.678753e+003;-2.251031e-002
2.680682e+003;-2.252161e-002
2.682610e+003;-2.273624e-002
2.684539e+003;-2.279223e-002
2.686467e+003;-2.295475e-002
2.688396e+003;-2.296248e-002
2.690324e+003;-2.290757e-002
2.692253e+003;-2.270517e-002
2.694182e+003;-2.272020e-002
2.696110e+003;-2.289170e-002
2.698039e+003;-2.290949e-002
2.699967e+003;-2.311010e-002
2.701896e+003;-2.309772e-002
2.703824e+003;-2.289107e-002
2.705753e+003;-2.305154e-002
2.707681e+003;-2.320733e-002
2.709610e+003;-2.299934e-002
2.711539e+003;-2.282977e-002
2.713467e+003;-2.327868e-002
2.715396e+003;-2.354168e-002
2.717324e+003;-2.317211e-002
2.719253e+003;-2.275579e-002
2.721181e+003;-2.258789e-002
2.723110e+003;-2.254058e-002
2.725038e+003;-2.258449e-002
2.726967e+003;-2.305160e-002
2.728896e+003;-2.322752e-002
2.730824e+003;-2.319753e-002
2.732752e+003;-2.353349e-002
2.734681e+003;-2.348007e-002
2.736610e+003;-2.309659e-002
2.738538e+003;-2.297684e-002
2.740467e+003;-2.297716e-002
2.742395e+003;-2.279616e-002
2.744324e+003;-2.279572e-002
2.746252e+003;-2.299978e-002
2.748181e+003;-2.316728e-002
2.750109e+003;-2.272385e-002
2.752038e+003;-2.258547e-002
2.753967e+003;-2.290993e-002
2.755895e+003;-2.308233e-002
2.757824e+003;-2.301848e-002
2.759752e+003;-2.308839e-002
2.761681e+003;-2.327956e-002
2.763609e+003;-2.328437e-002
2.765538e+003;-2.307642e-002
2.767466e+003;-2.293561e-002
2.769395e+003;-2.295968e-002
2.771323e+003;-2.273013e-002
2.773252e+003;-2.247281e-002
2.775181e+003;-2.235431e-002
2.777109e+003;-2.224893e-002
2.779038e+003;-2.227474e-002
2.780966e+003;-2.246356e-002
2.782895e+003;-2.263840e-002
2.784823e+003;-2.232875e-002
2.786752e+003;-2.189354e-002
2.788680e+003;-2.167837e-002
2.790609e+003;-2.171427e-002
2.792538e+003;-2.179400e-002
2.794466e+003;-2.184637e-002
2.796395e+003;-2.171915e-002
2.798323e+003;-2.100295e-002
2.800252e+003;-2.077531e-002
2.802180e+003;-2.102979e-002
2.804109e+003;-2.123490e-002
2.806037e+003;-2.111630e-002
2.807966e+003;-2.118207e-002
2.809895e+003;-2.093134e-002
2.811823e+003;-2.054081e-002
2.813751e+003;-2.064028e-002
2.815680e+003;-2.085357e-002
2.817609e+003;-2.084416e-002
2.819537e+003;-2.077366e-002
2.821466e+003;-2.078390e-002
2.823394e+003;-2.072811e-002
2.825323e+003;-2.054590e-002
2.827251e+003;-2.033844e-002
2.829180e+003;-2.002170e-002
2.831108e+003;-1.972258e-002
2.833037e+003;-1.968693e-002
2.834966e+003;-1.949500e-002
2.836894e+003;-1.894666e-002
2.838823e+003;-1.868048e-002
2.840751e+003;-1.864001e-002
2.842680e+003;-1.839438e-002
2.844608e+003;-1.792001e-002
2.846537e+003;-1.691917e-002
2.848465e+003;-1.555378e-002
2.850394e+003;-1.458383e-002
2.852323e+003;-1.390867e-002
2.854251e+003;-1.289995e-002
2.856180e+003;-1.134382e-002
2.858108e+003;-9.526968e-003
2.860037e+003;-8.273516e-003
2.861965e+003;-7.146406e-003
2.863894e+003;-5.547307e-003
2.865822e+003;-4.562693e-003
2.867751e+003;-4.405185e-003
2.869679e+003;-4.032257e-003
2.871608e+003;-3.742586e-003
2.873536e+003;-3.476816e-003
2.875465e+003;-3.394535e-003
2.877394e+003;-3.365143e-003
2.879322e+003;-3.873637e-003
2.881251e+003;-4.709525e-003
2.883179e+003;-5.285979e-003
2.885108e+003;-5.690340e-003
2.887036e+003;-5.601085e-003
2.888965e+003;-5.149100e-003
2.890893e+003;-4.618822e-003
2.892822e+003;-3.951788e-003
2.894750e+003;-3.348671e-003
2.896679e+003;-2.821851e-003
2.898608e+003;-1.784441e-003
2.900536e+003;-1.861403e-004
2.902465e+003;1.617996e-003
2.904393e+003;3.389986e-003
2.906322e+003;4.893364e-003
2.908250e+003;6.712814e-003
2.910179e+003;8.909694e-003
2.912107e+003;1.116595e-002
2.914036e+003;1.344988e-002
2.915965e+003;1.588959e-002
2.917893e+003;1.817596e-002
2.919822e+003;1.973177e-002
2.921750e+003;2.093396e-002
2.923679e+003;2.229812e-002
2.925607e+003;2.351741e-002
2.927536e+003;2.508904e-002
2.929464e+003;2.629163e-002
2.931393e+003;2.716961e-002
2.933322e+003;2.803381e-002
2.935250e+003;2.892418e-002
2.937178e+003;2.934806e-002
2.939107e+003;2.880328e-002
2.941036e+003;2.835835e-002
2.942964e+003;2.785904e-002
2.944893e+003;2.656351e-002
2.946821e+003;2.480640e-002
2.948750e+003;2.282778e-002
2.950678e+003;2.131191e-002
2.952607e+003;2.005273e-002
2.954535e+003;1.839859e-002
2.956464e+003;1.652677e-002
2.958393e+003;1.491677e-002
2.960321e+003;1.369044e-002
2.962250e+003;1.275140e-002
2.964178e+003;1.173955e-002
2.966107e+003;1.071446e-002
2.968035e+003;1.029327e-002
2.969964e+003;9.814531e-003
2.971892e+003;8.473962e-003
2.973821e+003;7.090500e-003
2.975750e+003;6.156093e-003
2.977678e+003;5.603675e-003
2.979607e+003;5.154615e-003
2.981535e+003;4.132929e-003
2.983464e+003;3.213436e-003
2.985392e+003;2.881197e-003
2.987321e+003;2.184545e-003
2.989249e+003;1.256170e-003
2.991178e+003;9.180204e-004
2.993106e+003;3.763006e-004
2.995035e+003;-4.800125e-004
2.996964e+003;-1.614401e-003
2.998892e+003;-2.858785e-003
3.000821e+003;-3.474515e-003
3.002749e+003;-4.016926e-003
3.004678e+003;-5.074536e-003
3.006606e+003;-6.131929e-003
3.008535e+003;-6.599244e-003
3.010463e+003;-7.024913e-003
3.012392e+003;-7.820205e-003
3.014321e+003;-8.602608e-003
3.016249e+003;-9.513482e-003
3.018177e+003;-1.006440e-002
3.020106e+003;-1.065653e-002
3.022035e+003;-1.118840e-002
3.023963e+003;-1.144265e-002
3.025892e+003;-1.176951e-002
3.027820e+003;-1.237201e-002
3.029749e+003;-1.271381e-002
3.031677e+003;-1.270570e-002
3.033606e+003;-1.257645e-002
3.035534e+003;-1.291979e-002
3.037463e+003;-1.348067e-002
3.039392e+003;-1.381897e-002
3.041320e+003;-1.416621e-002
3.043249e+003;-1.443366e-002
3.045177e+003;-1.472478e-002
3.047106e+003;-1.486079e-002
3.049034e+003;-1.453638e-002
3.050963e+003;-1.446847e-002
3.052891e+003;-1.523196e-002
3.054820e+003;-1.583421e-002
3.056749e+003;-1.593106e-002
3.058677e+003;-1.582437e-002
3.060606e+003;-1.587274e-002
3.062534e+003;-1.614833e-002
3.064463e+003;-1.636671e-002
3.066391e+003;-1.632407e-002
3.068320e+003;-1.641556e-002
3.070248e+003;-1.696662e-002
3.072177e+003;-1.730756e-002
3.074105e+003;-1.713904e-002
3.076034e+003;-1.672802e-002
3.077963e+003;-1.674864e-002
3.079891e+003;-1.699374e-002
3.081820e+003;-1.721114e-002
3.083748e+003;-1.755645e-002
3.085677e+003;-1.799634e-002
3.087605e+003;-1.816854e-002
3.089534e+003;-1.825525e-002
3.091462e+003;-1.859017e-002
3.093391e+003;-1.901980e-002
3.095320e+003;-1.900483e-002
3.097248e+003;-1.907618e-002
3.099177e+003;-1.897879e-002
3.101105e+003;-1.879431e-002
3.103034e+003;-1.864556e-002
3.104962e+003;-1.875001e-002
3.106891e+003;-1.902287e-002
3.108819e+003;-1.902179e-002
3.110748e+003;-1.907164e-002
3.112677e+003;-1.923638e-002
3.114605e+003;-1.959063e-002
3.116533e+003;-1.979363e-002
3.118462e+003;-1.990765e-002
3.120391e+003;-2.002961e-002
3.122319e+003;-2.015137e-002
3.124248e+003;-2.001641e-002
3.126176e+003;-1.979088e-002
3.128105e+003;-1.998661e-002
3.130033e+003;-2.021650e-002
3.131962e+003;-2.055272e-002
3.133890e+003;-2.086715e-002
3.135819e+003;-2.097530e-002
3.137748e+003;-2.070521e-002
3.139676e+003;-2.065043e-002
3.141605e+003;-2.080961e-002
3.143533e+003;-2.047981e-002
3.145462e+003;-2.053986e-002
3.147390e+003;-2.087855e-002
3.149319e+003;-2.127875e-002
3.151247e+003;-2.097609e-002
3.153176e+003;-2.094091e-002
3.155104e+003;-2.120432e-002
3.157033e+003;-2.078892e-002
3.158962e+003;-2.050067e-002
3.160890e+003;-2.103067e-002
3.162819e+003;-2.149803e-002
3.164747e+003;-2.118144e-002
3.166676e+003;-2.100819e-002
3.168604e+003;-2.123326e-002
3.170533e+003;-2.128531e-002
3.172461e+003;-2.105501e-002
3.174390e+003;-2.087223e-002
3.176319e+003;-2.084810e-002
3.178247e+003;-2.113691e-002
3.180176e+003;-2.124300e-002
3.182104e+003;-2.098234e-002
3.184033e+003;-2.075664e-002
3.185961e+003;-2.102540e-002
3.187890e+003;-2.172136e-002
3.189818e+003;-2.157869e-002
3.191747e+003;-2.089705e-002
3.193676e+003;-2.086768e-002
3.195604e+003;-2.105267e-002
3.197532e+003;-2.065640e-002
3.199461e+003;-2.065273e-002
3.201390e+003;-2.061412e-002
3.203318e+003;-2.062553e-002
3.205247e+003;-2.103610e-002
3.207175e+003;-2.120584e-002
3.209104e+003;-2.121397e-002
3.211032e+003;-2.125007e-002
3.212961e+003;-2.113341e-002
3.214889e+003;-2.112631e-002
3.216818e+003;-2.116901e-002
3.218747e+003;-2.113278e-002
3.220675e+003;-2.136077e-002
3.222604e+003;-2.166582e-002
3.224532e+003;-2.169570e-002
3.226461e+003;-2.179419e-002
3.228389e+003;-2.182236e-002
3.230318e+003;-2.185853e-002
3.232246e+003;-2.132579e-002
3.234175e+003;-2.048673e-002
3.236104e+003;-2.032996e-002
3.238032e+003;-2.062869e-002
3.239961e+003;-2.129191e-002
3.241889e+003;-2.166853e-002
3.243818e+003;-2.160312e-002
3.245746e+003;-2.145234e-002
3.247675e+003;-2.138266e-002
3.249603e+003;-2.109307e-002
3.251532e+003;-2.067223e-002
3.253460e+003;-2.085190e-002
3.255389e+003;-2.140582e-002
3.257318e+003;-2.151206e-002
3.259246e+003;-2.107836e-002
3.261175e+003;-2.087321e-002
3.263103e+003;-2.083547e-002
3.265032e+003;-2.107622e-002
3.266960e+003;-2.091480e-002
3.268889e+003;-2.074274e-002
3.270817e+003;-2.143726e-002
3.272746e+003;-2.176299e-002
3.274675e+003;-2.119978e-002
3.276603e+003;-2.108872e-002
3.278531e+003;-2.114480e-002
3.280460e+003;-2.070202e-002
3.282389e+003;-2.107508e-002
3.284317e+003;-2.205818e-002
3.286246e+003;-2.193314e-002
3.288174e+003;-2.169107e-002
3.290103e+003;-2.216808e-002
3.292031e+003;-2.226589e-002
3.293960e+003;-2.174692e-002
3.295888e+003;-2.211065e-002
3.297817e+003;-2.244349e-002
3.299746e+003;-2.210419e-002
3.301674e+003;-2.212198e-002
3.303603e+003;-2.210070e-002
3.305531e+003;-2.179066e-002
3.307460e+003;-2.150610e-002
3.309388e+003;-2.164350e-002
3.311317e+003;-2.236708e-002
3.313245e+003;-2.278431e-002
3.315174e+003;-2.243946e-002
3.317103e+003;-2.171540e-002
3.319031e+003;-2.163947e-002
3.320960e+003;-2.183506e-002
3.322888e+003;-2.216843e-002
3.324817e+003;-2.278557e-002
3.326745e+003;-2.323717e-002
3.328674e+003;-2.283867e-002
3.330602e+003;-2.210051e-002
3.332531e+003;-2.235018e-002
3.334459e+003;-2.244173e-002
3.336388e+003;-2.201459e-002
3.338317e+003;-2.191086e-002
3.340245e+003;-2.218836e-002
3.342174e+003;-2.252214e-002
3.344102e+003;-2.269948e-002
3.346031e+003;-2.275529e-002
3.347959e+003;-2.271259e-002
3.349888e+003;-2.241262e-002
3.351816e+003;-2.233253e-002
3.353745e+003;-2.249575e-002
3.355674e+003;-2.287020e-002
3.357602e+003;-2.276482e-002
3.359531e+003;-2.251714e-002
3.361459e+003;-2.284508e-002
3.363388e+003;-2.313856e-002
3.365316e+003;-2.311349e-002
3.367245e+003;-2.299256e-002
3.369173e+003;-2.286055e-002
3.371102e+003;-2.287824e-002
3.373031e+003;-2.310388e-002
3.374959e+003;-2.316637e-002
3.376887e+003;-2.314912e-002
3.378816e+003;-2.293847e-002
3.380745e+003;-2.315581e-002
3.382673e+003;-2.358389e-002
3.384602e+003;-2.378579e-002
3.386530e+003;-2.398638e-002
3.388459e+003;-2.357197e-002
3.390387e+003;-2.340262e-002
3.392316e+003;-2.373319e-002
3.394244e+003;-2.360159e-002
3.396173e+003;-2.360435e-002
3.398102e+003;-2.386389e-002
3.400030e+003;-2.420063e-002
3.401959e+003;-2.366024e-002
3.403887e+003;-2.332205e-002
3.405816e+003;-2.394853e-002
3.407744e+003;-2.414255e-002
3.409673e+003;-2.384567e-002
3.411601e+003;-2.352241e-002
3.413530e+003;-2.309288e-002
3.415458e+003;-2.303724e-002
3.417387e+003;-2.351450e-002
3.419316e+003;-2.387885e-002
3.421244e+003;-2.387889e-002
3.423173e+003;-2.359227e-002
3.425101e+003;-2.314193e-002
3.427030e+003;-2.272665e-002
3.428958e+003;-2.290619e-002
3.430887e+003;-2.309405e-002
3.432815e+003;-2.284760e-002
3.434744e+003;-2.310573e-002
3.436673e+003;-2.333329e-002
3.438601e+003;-2.307975e-002
3.440530e+003;-2.289808e-002
3.442458e+003;-2.286822e-002
3.444387e+003;-2.277082e-002
3.446315e+003;-2.261384e-002
3.448244e+003;-2.233863e-002
3.450172e+003;-2.207657e-002
3.452101e+003;-2.202392e-002
3.454030e+003;-2.208120e-002
3.455958e+003;-2.213439e-002
3.457886e+003;-2.236296e-002
3.459815e+003;-2.236129e-002
3.461744e+003;-2.204426e-002
3.463672e+003;-2.198927e-002
3.465601e+003;-2.218722e-002
3.467529e+003;-2.199321e-002
3.469458e+003;-2.172473e-002
3.471386e+003;-2.147700e-002
3.473315e+003;-2.150024e-002
3.475243e+003;-2.176476e-002
3.477172e+003;-2.201692e-002
3.479101e+003;-2.263919e-002
3.481029e+003;-2.238307e-002
3.482958e+003;-2.161409e-002
3.484886e+003;-2.176277e-002
3.486815e+003;-2.201541e-002
3.488743e+003;-2.184949e-002
3.490672e+003;-2.160066e-002
3.492600e+003;-2.100118e-002
3.494529e+003;-2.080639e-002
3.496458e+003;-2.082205e-002
3.498386e+003;-2.035737e-002
3.500315e+003;-2.035124e-002
3.502243e+003;-2.103723e-002
3.504172e+003;-2.109740e-002
3.506100e+003;-2.051252e-002
3.508029e+003;-2.011123e-002
3.509957e+003;-1.992841e-002
3.511886e+003;-2.004147e-002
3.513814e+003;-1.986511e-002
3.515743e+003;-1.974199e-002
3.517672e+003;-1.978420e-002
3.519600e+003;-1.994414e-002
3.521529e+003;-2.032886e-002
3.523457e+003;-2.049997e-002
3.525386e+003;-2.014464e-002
3.527314e+003;-1.989464e-002
3.529243e+003;-1.974158e-002
3.531171e+003;-1.950659e-002
3.533100e+003;-1.940229e-002
3.535029e+003;-1.934826e-002
3.536957e+003;-1.934427e-002
3.538885e+003;-1.920763e-002
3.540814e+003;-1.877464e-002
3.542743e+003;-1.880399e-002
3.544671e+003;-1.944760e-002
3.546600e+003;-1.953728e-002
3.548528e+003;-1.921812e-002
3.550457e+003;-1.948134e-002
3.552385e+003;-1.937466e-002
3.554314e+003;-1.921308e-002
3.556242e+003;-1.945482e-002
3.558171e+003;-1.979927e-002
3.560100e+003;-2.001252e-002
3.562028e+003;-1.981218e-002
3.563957e+003;-2.026400e-002
3.565885e+003;-2.124663e-002
3.567814e+003;-2.102672e-002
3.569742e+003;-2.045730e-002
3.571671e+003;-2.022896e-002
3.573599e+003;-2.014154e-002
3.575528e+003;-2.030852e-002
3.577457e+003;-2.038829e-002
3.579385e+003;-2.031551e-002
3.581314e+003;-2.042414e-002
3.583242e+003;-2.038735e-002
3.585171e+003;-2.065062e-002
3.587099e+003;-2.137039e-002
3.589028e+003;-2.158922e-002
3.590956e+003;-2.089911e-002
3.592885e+003;-2.024389e-002
3.594813e+003;-2.010057e-002
3.596742e+003;-2.002473e-002
3.598671e+003;-1.981551e-002
3.600599e+003;-1.959661e-002
3.602528e+003;-1.920798e-002
3.604456e+003;-1.893708e-002
3.606385e+003;-1.947957e-002
3.608313e+003;-2.009174e-002
3.610242e+003;-1.997651e-002
3.612170e+003;-1.907095e-002
3.614099e+003;-1.851420e-002
3.616028e+003;-1.908734e-002
3.617956e+003;-1.988657e-002
3.619885e+003;-1.985061e-002
3.621813e+003;-1.881687e-002
3.623742e+003;-1.824111e-002
3.625670e+003;-1.900359e-002
3.627599e+003;-2.127771e-002
3.629527e+003;-2.148892e-002
3.631456e+003;-1.945676e-002
3.633385e+003;-1.866689e-002
3.635313e+003;-1.804870e-002
3.637241e+003;-1.768158e-002
3.639170e+003;-1.788335e-002
3.641099e+003;-1.833642e-002
3.643027e+003;-1.864125e-002
3.644956e+003;-1.978727e-002
3.646884e+003;-2.231043e-002
3.648813e+003;-2.416722e-002
3.650741e+003;-2.316244e-002
3.652670e+003;-2.152483e-002
3.654598e+003;-2.212652e-002
3.656527e+003;-2.259874e-002
3.658456e+003;-2.173765e-002
3.660384e+003;-2.172186e-002
3.662313e+003;-2.220429e-002
3.664241e+003;-2.266252e-002
3.666170e+003;-2.332036e-002
3.668098e+003;-2.495097e-002
3.670027e+003;-2.665308e-002
3.671955e+003;-2.618234e-002
3.673884e+003;-2.740368e-002
3.675813e+003;-2.843719e-002
3.677741e+003;-2.622826e-002
3.679669e+003;-2.491993e-002
3.681598e+003;-2.471533e-002
3.683527e+003;-2.478131e-002
3.685455e+003;-2.536106e-002
3.687384e+003;-2.740296e-002
3.689312e+003;-2.753456e-002
3.691241e+003;-2.567053e-002
3.693169e+003;-2.456243e-002
3.695098e+003;-2.450538e-002
3.697026e+003;-2.463601e-002
3.698955e+003;-2.502867e-002
3.700884e+003;-2.556642e-002
3.702812e+003;-2.511874e-002
3.704741e+003;-2.458942e-002
3.706669e+003;-2.496207e-002
3.708598e+003;-2.603398e-002
3.710526e+003;-2.744505e-002
3.712455e+003;-2.728187e-002
3.714383e+003;-2.564261e-002
3.716312e+003;-2.519182e-002
3.718240e+003;-2.511068e-002
3.720169e+003;-2.537057e-002
3.722098e+003;-2.549344e-002
3.724026e+003;-2.538204e-002
3.725955e+003;-2.589360e-002
3.727883e+003;-2.586809e-002
3.729812e+003;-2.628172e-002
3.731740e+003;-2.711754e-002
3.733669e+003;-2.707723e-002
3.735597e+003;-2.723694e-002
3.737526e+003;-2.629887e-002
3.739455e+003;-2.548685e-002
3.741383e+003;-2.672110e-002
3.743312e+003;-3.018123e-002
3.745240e+003;-2.916191e-002
3.747169e+003;-2.708402e-002
3.749097e+003;-2.923964e-002
3.751026e+003;-3.005631e-002
3.752954e+003;-2.812279e-002
3.754883e+003;-2.607689e-002
3.756812e+003;-2.580194e-002
3.758740e+003;-2.558582e-002
3.760668e+003;-2.505623e-002
3.762597e+003;-2.419326e-002
3.764526e+003;-2.441768e-002
3.766454e+003;-2.449188e-002
3.768383e+003;-2.485241e-002
3.770311e+003;-2.526754e-002
3.772240e+003;-2.487578e-002
3.774168e+003;-2.448953e-002
3.776097e+003;-2.418167e-002
3.778025e+003;-2.447084e-002
3.779954e+003;-2.444703e-002
3.781883e+003;-2.383460e-002
3.783811e+003;-2.422109e-002
3.785740e+003;-2.410093e-002
3.787668e+003;-2.360131e-002
3.789597e+003;-2.383080e-002
3.791525e+003;-2.412133e-002
3.793454e+003;-2.373077e-002
3.795382e+003;-2.422673e-002
3.797311e+003;-2.456603e-002
3.799240e+003;-2.548631e-002
3.801168e+003;-2.704722e-002
3.803097e+003;-2.590246e-002
3.805025e+003;-2.568796e-002
3.806954e+003;-2.619613e-002
3.808882e+003;-2.460940e-002
3.810811e+003;-2.398469e-002
3.812739e+003;-2.427803e-002
3.814668e+003;-2.615583e-002
3.816596e+003;-2.631413e-002
3.818525e+003;-2.539322e-002
3.820454e+003;-2.670960e-002
3.822382e+003;-2.583231e-002
3.824311e+003;-2.431578e-002
3.826239e+003;-2.431449e-002
3.828168e+003;-2.394665e-002
3.830096e+003;-2.409337e-002
3.832025e+003;-2.452426e-002
3.833953e+003;-2.516468e-002
3.835882e+003;-2.701291e-002
3.837811e+003;-2.766500e-002
3.839739e+003;-2.566013e-002
3.841667e+003;-2.449645e-002
3.843596e+003;-2.382249e-002
3.845525e+003;-2.304264e-002
3.847453e+003;-2.317912e-002
3.849382e+003;-2.423287e-002
3.851310e+003;-2.760804e-002
3.853239e+003;-3.042999e-002
3.855167e+003;-2.719001e-002
3.857096e+003;-2.362845e-002
3.859024e+003;-2.334548e-002
3.860953e+003;-2.399334e-002
3.862882e+003;-2.485748e-002
3.864810e+003;-2.514335e-002
3.866739e+003;-2.441934e-002
3.868667e+003;-2.542398e-002
3.870596e+003;-2.560753e-002
3.872524e+003;-2.466490e-002
3.874453e+003;-2.368754e-002
3.876381e+003;-2.255024e-002
3.878310e+003;-2.340218e-002
3.880239e+003;-2.449266e-002
3.882167e+003;-2.397772e-002
3.884096e+003;-2.421395e-002
3.886024e+003;-2.398428e-002
3.887953e+003;-2.295421e-002
3.889881e+003;-2.412829e-002
3.891810e+003;-2.405610e-002
3.893738e+003;-2.243203e-002
3.895667e+003;-2.235607e-002
3.897595e+003;-2.344676e-002
3.899524e+003;-2.459174e-002
3.901453e+003;-2.561047e-002
3.903381e+003;-2.555227e-002
3.905310e+003;-2.420301e-002
3.907238e+003;-2.317299e-002
3.909167e+003;-2.259987e-002
3.911095e+003;-2.190919e-002
3.913024e+003;-2.205103e-002
3.914952e+003;-2.294541e-002
3.916881e+003;-2.347184e-002
3.918810e+003;-2.297068e-002
3.920738e+003;-2.288918e-002
3.922667e+003;-2.327878e-002
3.924595e+003;-2.310435e-002
3.926524e+003;-2.280497e-002
3.928452e+003;-2.341047e-002
3.930381e+003;-2.342259e-002
3.932309e+003;-2.263114e-002
3.934238e+003;-2.220277e-002
3.936167e+003;-2.214985e-002
3.938095e+003;-2.242395e-002
3.940023e+003;-2.247335e-002
3.941952e+003;-2.226825e-002
3.943881e+003;-2.212072e-002
3.945809e+003;-2.223249e-002
3.947738e+003;-2.217774e-002
3.949666e+003;-2.150049e-002
3.951595e+003;-2.149749e-002
3.953523e+003;-2.138598e-002
3.955452e+003;-2.137112e-002
3.957380e+003;-2.231940e-002
3.959309e+003;-2.279538e-002
3.961238e+003;-2.214179e-002
3.963166e+003;-2.168656e-002
3.965095e+003;-2.201437e-002
3.967023e+003;-2.213710e-002
3.968952e+003;-2.180216e-002
3.970880e+003;-2.197015e-002
3.972809e+003;-2.238814e-002
3.974737e+003;-2.207881e-002
3.976666e+003;-2.180226e-002
3.978594e+003;-2.145748e-002
3.980523e+003;-2.120028e-002
3.982452e+003;-2.145107e-002
3.984380e+003;-2.159120e-002
3.986309e+003;-2.136528e-002
3.988237e+003;-2.099812e-002
3.990166e+003;-2.089175e-002
3.992094e+003;-2.078225e-002
3.994023e+003;-2.104011e-002
3.995951e+003;-2.085587e-002
3.997880e+003;-2.081257e-002
3.999809e+003;-2.156223e-002
4.001737e+003;0.000000e+000
