3.992094e+002;0.000000e+000
4.011380e+002;0.000000e+000
4.030665e+002;0.000000e+000
4.049951e+002;0.000000e+000
4.069236e+002;0.000000e+000
4.088522e+002;0.000000e+000
4.107807e+002;0.000000e+000
4.127093e+002;0.000000e+000
4.146378e+002;0.000000e+000
4.165664e+002;0.000000e+000
4.184949e+002;0.000000e+000
4.204235e+002;0.000000e+000
4.223520e+002;0.000000e+000
4.242806e+002;0.000000e+000
4.262091e+002;0.000000e+000
4.281377e+002;0.000000e+000
4.300662e+002;0.000000e+000
4.319948e+002;0.000000e+000
4.339233e+002;0.000000e+000
4.358519e+002;0.000000e+000
4.377804e+002;0.000000e+000
4.397090e+002;0.000000e+000
4.416375e+002;0.000000e+000
4.435660e+002;0.000000e+000
4.454946e+002;0.000000e+000
4.474232e+002;0.000000e+000
4.493517e+002;0.000000e+000
4.512802e+002;0.000000e+000
4.532088e+002;0.000000e+000
4.551373e+002;0.000000e+000
4.570659e+002;0.000000e+000
4.589944e+002;0.000000e+000
4.609230e+002;0.000000e+000
4.628515e+002;0.000000e+000
4.647801e+002;0.000000e+000
4.667086e+002;0.000000e+000
4.686372e+002;0.000000e+000
4.705657e+002;0.000000e+000
4.724943e+002;0.000000e+000
4.744228e+002;0.000000e+000
4.763513e+002;0.000000e+000
4.782799e+002;0.000000e+000
4.802085e+002;0.000000e+000
4.821370e+002;0.000000e+000
4.840656e+002;0.000000e+000
4.859941e+002;0.000000e+000
4.879226e+002;0.000000e+000
4.898512e+002;0.000000e+000
4.917798e+002;0.000000e+000
4.937083e+002;0.000000e+000
4.956368e+002;0.000000e+000
4.975654e+002;0.000000e+000
4.994939e+002;0.000000e+000
5.014225e+002;0.000000e+000
5.033510e+002;0.000000e+000
5.052796e+002;0.000000e+000
5.072081e+002;0.000000e+000
5.091367e+002;0.000000e+000
5.110652e+002;0.000000e+000
5.129938e+002;0.000000e+000
5.149223e+002;0.000000e+000
5.168509e+002;0.000000e+000
5.187794e+002;0.000000e+000
5.207079e+002;0.000000e+000
5.226365e+002;0.000000e+000
5.245651e+002;0.000000e+000
5.264936e+002;0.000000e+000
5.284222e+002;0.000000e+000
5.303507e+002;0.000000e+000
5.322792e+002;0.000000e+000
5.342078e+002;0.000000e+000
5.361364e+002;0.000000e+000
5.380649e+002;0.000000e+000
5.399935e+002;0.000000e+000
5.419220e+002;0.000000e+000
5.438505e+002;0.000000e+000
5.457791e+002;0.000000e+000
5.477076e+002;0.000000e+000
5.496362e+002;0.000000e+000
5.515648e+002;0.000000e+000
5.534933e+002;0.000000e+000
5.554218e+002;0.000000e+000
5.573504e+002;0.000000e+000
5.592789e+002;0.000000e+000
5.612075e+002;0.000000e+000
5.631360e+002;0.000000e+000
5.650646e+002;0.000000e+000
5.669931e+002;0.000000e+000
5.689217e+002;0.000000e+000
5.708502e+002;0.000000e+000
5.727787e+002;0.000000e+000
5.747073e+002;0.000000e+000
5.766359e+002;0.000000e+000
5.785644e+002;0.000000e+000
5.804930e+002;0.000000e+000
5.824215e+002;0.000000e+000
5.843500e+002;0.000000e+000
5.862786e+002;0.000000e+000
5.882072e+002;0.000000e+000
5.901357e+002;0.000000e+000
5.920643e+002;0.000000e+000
5.939928e+002;0.000000e+000
5.959213e+002;0.000000e+000
5.978499e+002;0.000000e+000
5.997784e+002;5.106402e-002
6.017070e+002;5.095700e-002
6.036355e+002;4.563230e-002
6.055641e+002;4.445551e-002
6.074926e+002;4.632674e-002
6.094211e+002;4.185627e-002
6.113497e+002;3.816708e-002
6.132783e+002;3.938236e-002
6.152068e+002;4.388827e-002
6.171354e+002;4.628766e-002
6.190639e+002;4.684240e-002
6.209924e+002;4.660825e-002
6.229210e+002;4.949915e-002
6.248495e+002;5.315217e-002
6.267781e+002;5.480403e-002
6.287067e+002;5.521207e-002
6.306352e+002;5.618436e-002
6.325637e+002;5.430571e-002
6.344923e+002;4.871655e-002
6.364208e+002;4.615499e-002
6.383494e+002;4.715475e-002
6.402780e+002;4.997566e-002
6.422065e+002;5.090923e-002
6.441350e+002;4.921324e-002
6.460636e+002;4.783916e-002
6.479921e+002;4.722449e-002
6.499207e+002;4.613420e-002
6.518492e+002;4.563612e-002
6.537778e+002;4.671391e-002
6.557063e+002;4.588136e-002
6.576349e+002;4.432552e-002
6.595634e+002;4.438486e-002
6.614919e+002;4.433675e-002
6.634205e+002;4.384769e-002
6.653491e+002;4.580428e-002
6.672776e+002;4.706494e-002
6.692062e+002;4.668030e-002
6.711347e+002;4.594120e-002
6.730632e+002;4.665525e-002
6.749918e+002;4.588187e-002
6.769203e+002;4.423695e-002
6.788489e+002;4.434310e-002
6.807775e+002;4.358386e-002
6.827060e+002;4.153844e-002
6.846345e+002;4.040347e-002
6.865631e+002;4.045410e-002
6.884916e+002;4.055012e-002
6.904202e+002;3.861925e-002
6.923488e+002;3.676020e-002
6.942773e+002;3.620086e-002
6.962058e+002;3.590050e-002
6.981344e+002;3.504584e-002
7.000629e+002;3.417471e-002
7.019915e+002;3.316051e-002
7.039200e+002;3.189273e-002
7.058486e+002;3.095798e-002
7.077771e+002;3.087686e-002
7.097057e+002;3.176994e-002
7.116342e+002;3.240181e-002
7.135627e+002;3.380329e-002
7.154913e+002;3.606147e-002
7.174199e+002;3.664461e-002
7.193484e+002;3.628951e-002
7.212770e+002;3.608783e-002
7.232055e+002;3.618455e-002
7.251340e+002;3.661948e-002
7.270626e+002;3.795148e-002
7.289911e+002;3.821969e-002
7.309197e+002;3.898043e-002
7.328483e+002;3.969956e-002
7.347768e+002;3.931692e-002
7.367053e+002;3.967730e-002
7.386339e+002;4.058988e-002
7.405624e+002;4.087578e-002
7.424910e+002;4.093869e-002
7.444196e+002;4.150865e-002
7.463481e+002;4.264088e-002
7.482766e+002;4.237600e-002
7.502052e+002;4.295553e-002
7.521337e+002;4.392896e-002
7.540623e+002;4.329563e-002
7.559908e+002;4.418093e-002
7.579194e+002;4.446714e-002
7.598479e+002;4.430460e-002
7.617765e+002;4.486240e-002
7.637050e+002;4.539030e-002
7.656335e+002;4.574148e-002
7.675621e+002;4.589760e-002
7.694907e+002;4.489635e-002
7.714192e+002;4.360947e-002
7.733478e+002;4.308299e-002
7.752763e+002;4.191275e-002
7.772048e+002;4.061324e-002
7.791334e+002;3.889570e-002
7.810620e+002;3.686984e-002
7.829905e+002;3.426470e-002
7.849191e+002;3.124992e-002
7.868476e+002;2.833667e-002
7.887761e+002;2.513089e-002
7.907047e+002;2.223646e-002
7.926332e+002;1.955844e-002
7.945618e+002;1.679639e-002
7.964903e+002;1.476862e-002
7.984189e+002;1.395779e-002
8.003474e+002;1.380888e-002
8.022759e+002;1.433468e-002
8.042045e+002;1.609911e-002
8.061331e+002;1.770212e-002
8.080616e+002;1.905487e-002
8.099902e+002;2.022478e-002
8.119187e+002;2.137887e-002
8.138472e+002;2.322342e-002
8.157758e+002;2.467234e-002
8.177043e+002;2.557056e-002
8.196329e+002;2.651181e-002
8.215615e+002;2.862562e-002
8.234900e+002;3.123874e-002
8.254185e+002;3.366889e-002
8.273471e+002;3.576380e-002
8.292756e+002;3.748108e-002
8.312042e+002;3.950892e-002
8.331328e+002;4.105751e-002
8.350613e+002;4.217115e-002
8.369898e+002;4.253522e-002
8.389184e+002;4.183500e-002
8.408469e+002;4.093195e-002
8.427755e+002;3.997248e-002
8.447040e+002;3.840009e-002
8.466326e+002;3.676464e-002
8.485611e+002;3.517987e-002
8.504897e+002;3.364243e-002
8.524182e+002;3.238828e-002
8.543467e+002;3.081852e-002
8.562753e+002;2.942968e-002
8.582039e+002;2.923045e-002
8.601324e+002;2.871687e-002
8.620610e+002;2.851560e-002
8.639895e+002;2.873934e-002
8.659180e+002;2.854497e-002
8.678466e+002;2.825264e-002
8.697751e+002;2.787003e-002
8.717037e+002;2.770171e-002
8.736323e+002;2.766767e-002
8.755608e+002;2.773304e-002
8.774893e+002;2.775066e-002
8.794179e+002;2.740611e-002
8.813464e+002;2.740576e-002
8.832750e+002;2.754984e-002
8.852036e+002;2.741179e-002
8.871321e+002;2.756460e-002
8.890606e+002;2.805170e-002
8.909892e+002;2.824242e-002
8.929177e+002;2.822029e-002
8.948463e+002;2.834300e-002
8.967748e+002;2.819310e-002
8.987034e+002;2.805976e-002
9.006319e+002;2.831757e-002
9.025605e+002;2.878831e-002
9.044890e+002;2.921681e-002
9.064175e+002;2.937710e-002
9.083461e+002;2.962484e-002
9.102747e+002;3.008990e-002
9.122032e+002;3.028902e-002
9.141318e+002;3.032931e-002
9.160603e+002;3.034913e-002
9.179888e+002;3.045276e-002
9.199174e+002;3.080454e-002
9.218459e+002;3.147084e-002
9.237745e+002;3.189562e-002
9.257031e+002;3.236815e-002
9.276316e+002;3.243180e-002
9.295601e+002;3.249157e-002
9.314887e+002;3.312650e-002
9.334172e+002;3.408762e-002
9.353458e+002;3.434549e-002
9.372744e+002;3.433487e-002
9.392029e+002;3.484021e-002
9.411314e+002;3.536678e-002
9.430600e+002;3.610519e-002
9.449885e+002;3.694011e-002
9.469171e+002;3.782071e-002
9.488456e+002;3.849219e-002
9.507742e+002;3.894745e-002
9.527027e+002;3.959029e-002
9.546313e+002;4.026259e-002
9.565598e+002;4.028240e-002
9.584883e+002;4.021686e-002
9.604169e+002;4.024946e-002
9.623455e+002;3.990600e-002
9.642740e+002;3.973539e-002
9.662026e+002;3.958786e-002
9.681311e+002;3.897072e-002
9.700596e+002;3.844682e-002
9.719882e+002;3.824107e-002
9.739167e+002;3.820843e-002
9.758453e+002;3.823568e-002
9.777739e+002;3.827465e-002
9.797024e+002;3.808453e-002
9.816309e+002;3.766739e-002
9.835595e+002;3.793535e-002
9.854880e+002;3.861718e-002
9.874166e+002;3.864333e-002
9.893452e+002;3.868632e-002
9.912737e+002;3.852655e-002
9.932022e+002;3.827125e-002
9.951307e+002;3.842203e-002
9.970593e+002;3.868125e-002
9.989879e+002;3.842901e-002
1.000916e+003;3.802264e-002
1.002845e+003;3.803089e-002
1.004773e+003;3.800453e-002
1.006702e+003;3.688882e-002
1.008631e+003;3.544838e-002
1.010559e+003;3.451729e-002
1.012488e+003;3.378846e-002
1.014416e+003;3.364727e-002
1.016345e+003;3.394865e-002
1.018273e+003;3.466896e-002
1.020202e+003;3.619805e-002
1.022130e+003;3.845026e-002
1.024059e+003;4.015801e-002
1.025988e+003;4.103978e-002
1.027916e+003;4.270146e-002
1.029845e+003;4.541973e-002
1.031773e+003;4.899624e-002
1.033702e+003;5.228933e-002
1.035630e+003;5.465763e-002
1.037559e+003;5.608357e-002
1.039487e+003;5.650407e-002
1.041416e+003;5.669862e-002
1.043344e+003;5.697069e-002
1.045273e+003;5.762392e-002
1.047202e+003;5.853261e-002
1.049130e+003;5.919207e-002
1.051059e+003;5.969686e-002
1.052987e+003;6.098960e-002
1.054916e+003;6.252126e-002
1.056844e+003;6.376829e-002
1.058773e+003;6.547997e-002
1.060701e+003;6.736621e-002
1.062630e+003;6.981989e-002
1.064558e+003;7.141084e-002
1.066487e+003;7.205065e-002
1.068416e+003;7.274434e-002
1.070344e+003;7.306903e-002
1.072273e+003;7.222909e-002
1.074201e+003;7.075457e-002
1.076130e+003;6.929224e-002
1.078058e+003;6.733356e-002
1.079987e+003;6.491424e-002
1.081915e+003;6.275117e-002
1.083844e+003;6.088056e-002
1.085773e+003;5.851863e-002
1.087701e+003;5.634330e-002
1.089630e+003;5.438502e-002
1.091558e+003;5.189810e-002
1.093487e+003;5.037146e-002
1.095415e+003;5.001697e-002
1.097344e+003;4.957673e-002
1.099272e+003;4.885146e-002
1.101201e+003;4.835896e-002
1.103129e+003;4.846905e-002
1.105058e+003;4.854393e-002
1.106987e+003;4.832611e-002
1.108915e+003;4.807498e-002
1.110844e+003;4.797136e-002
1.112772e+003;4.805533e-002
1.114701e+003;4.774392e-002
1.116629e+003;4.700759e-002
1.118558e+003;4.663503e-002
1.120486e+003;4.584254e-002
1.122415e+003;4.462457e-002
1.124344e+003;4.340411e-002
1.126272e+003;4.166311e-002
1.128201e+003;3.998461e-002
1.130129e+003;3.828305e-002
1.132058e+003;3.694732e-002
1.133986e+003;3.628205e-002
1.135915e+003;3.627449e-002
1.137843e+003;3.651261e-002
1.139772e+003;3.782975e-002
1.141700e+003;3.971691e-002
1.143629e+003;4.200942e-002
1.145557e+003;4.516770e-002
1.147486e+003;4.942923e-002
1.149415e+003;5.461758e-002
1.151343e+003;6.047321e-002
1.153272e+003;6.635238e-002
1.155200e+003;7.177277e-002
1.157129e+003;7.722729e-002
1.159057e+003;8.277999e-002
1.160986e+003;8.883654e-002
1.162914e+003;9.371541e-002
1.164843e+003;9.745736e-002
1.166771e+003;1.000519e-001
1.168700e+003;1.006253e-001
1.170629e+003;1.004540e-001
1.172557e+003;9.971615e-002
1.174486e+003;9.804817e-002
1.176414e+003;9.611759e-002
1.178343e+003;9.407646e-002
1.180271e+003;9.203181e-002
1.182200e+003;8.996247e-002
1.184128e+003;8.791968e-002
1.186057e+003;8.692518e-002
1.187986e+003;8.708015e-002
1.189914e+003;8.723817e-002
1.191843e+003;8.779143e-002
1.193771e+003;8.910925e-002
1.195700e+003;9.078518e-002
1.197628e+003;9.225417e-002
1.199557e+003;9.306646e-002
1.201485e+003;9.353159e-002
1.203414e+003;9.357614e-002
1.205343e+003;9.369868e-002
1.207271e+003;9.374066e-002
1.209200e+003;9.366217e-002
1.211128e+003;9.414415e-002
1.213057e+003;9.443723e-002
1.214985e+003;9.441137e-002
1.216914e+003;9.485910e-002
1.218842e+003;9.520464e-002
1.220771e+003;9.550121e-002
1.222699e+003;9.600507e-002
1.224628e+003;9.600701e-002
1.226557e+003;9.591564e-002
1.228485e+003;9.570408e-002
1.230414e+003;9.504852e-002
1.232342e+003;9.413815e-002
1.234271e+003;9.340478e-002
1.236199e+003;9.277693e-002
1.238128e+003;9.229326e-002
1.240056e+003;9.157193e-002
1.241985e+003;9.103525e-002
1.243913e+003;9.052626e-002
1.245842e+003;8.972062e-002
1.247771e+003;8.895807e-002
1.249699e+003;8.779548e-002
1.251628e+003;8.611811e-002
1.253556e+003;8.347818e-002
1.255485e+003;7.949458e-002
1.257413e+003;7.563690e-002
1.259342e+003;7.259855e-002
1.261270e+003;7.134340e-002
1.263199e+003;7.214665e-002
1.265127e+003;7.469705e-002
1.267056e+003;7.764108e-002
1.268985e+003;7.972379e-002
1.270913e+003;8.097221e-002
1.272842e+003;8.120036e-002
1.274770e+003;8.030968e-002
1.276699e+003;7.905509e-002
1.278627e+003;7.736178e-002
1.280556e+003;7.555393e-002
1.282484e+003;7.393405e-002
1.284413e+003;7.239252e-002
1.286342e+003;7.129552e-002
1.288270e+003;7.020939e-002
1.290199e+003;6.877059e-002
1.292127e+003;6.774643e-002
1.294056e+003;6.662134e-002
1.295984e+003;6.562374e-002
1.297913e+003;6.502530e-002
1.299841e+003;6.441503e-002
1.301770e+003;6.381399e-002
1.303698e+003;6.315492e-002
1.305627e+003;6.263661e-002
1.307556e+003;6.226990e-002
1.309484e+003;6.184535e-002
1.311413e+003;6.157696e-002
1.313341e+003;6.143606e-002
1.315270e+003;6.111170e-002
1.317198e+003;6.056778e-002
1.319127e+003;6.078912e-002
1.321055e+003;6.153432e-002
1.322984e+003;6.200908e-002
1.324912e+003;6.236467e-002
1.326841e+003;6.297152e-002
1.328770e+003;6.371549e-002
1.330698e+003;6.399821e-002
1.332627e+003;6.398324e-002
1.334555e+003;6.425349e-002
1.336484e+003;6.447507e-002
1.338412e+003;6.461043e-002
1.340341e+003;6.514990e-002
1.342269e+003;6.623837e-002
1.344198e+003;6.735434e-002
1.346126e+003;6.817346e-002
1.348055e+003;6.886610e-002
1.349984e+003;6.970569e-002
1.351912e+003;7.063413e-002
1.353841e+003;7.135554e-002
1.355769e+003;7.143322e-002
1.357698e+003;7.115190e-002
1.359626e+003;7.059390e-002
1.361555e+003;6.978869e-002
1.363483e+003;6.926648e-002
1.365412e+003;6.899378e-002
1.367341e+003;6.796189e-002
1.369269e+003;6.685606e-002
1.371198e+003;6.583024e-002
1.373126e+003;6.434198e-002
1.375055e+003;6.314132e-002
1.376983e+003;6.254016e-002
1.378912e+003;6.176577e-002
1.380840e+003;6.028663e-002
1.382769e+003;5.863082e-002
1.384698e+003;5.670556e-002
1.386626e+003;5.370567e-002
1.388555e+003;5.120693e-002
1.390483e+003;4.899004e-002
1.392412e+003;4.557963e-002
1.394340e+003;4.153283e-002
1.396269e+003;3.879822e-002
1.398197e+003;3.676875e-002
1.400126e+003;3.567127e-002
1.402054e+003;3.520890e-002
1.403983e+003;3.453882e-002
1.405911e+003;3.425165e-002
1.407840e+003;3.400870e-002
1.409769e+003;3.398778e-002
1.411697e+003;3.442675e-002
1.413626e+003;3.499491e-002
1.415554e+003;3.586343e-002
1.417483e+003;3.627034e-002
1.419411e+003;3.771086e-002
1.421340e+003;4.234520e-002
1.423268e+003;4.791519e-002
1.425197e+003;5.457321e-002
1.427125e+003;6.276235e-002
1.429054e+003;7.155061e-002
1.430983e+003;8.060829e-002
1.432911e+003;8.939346e-002
1.434840e+003;9.650915e-002
1.436768e+003;1.029766e-001
1.438697e+003;1.114512e-001
1.440625e+003;1.195915e-001
1.442554e+003;1.266317e-001
1.444482e+003;1.328425e-001
1.446411e+003;1.376920e-001
1.448340e+003;1.411913e-001
1.450268e+003;1.429671e-001
1.452197e+003;1.418026e-001
1.454125e+003;1.364815e-001
1.456054e+003;1.265771e-001
1.457982e+003;1.173658e-001
1.459911e+003;1.094759e-001
1.461839e+003;9.951769e-002
1.463768e+003;8.757892e-002
1.465697e+003;7.688551e-002
1.467625e+003;6.870887e-002
1.469554e+003;6.077879e-002
1.471482e+003;5.247475e-002
1.473411e+003;4.693704e-002
1.475339e+003;4.395228e-002
1.477268e+003;4.089711e-002
1.479196e+003;3.801245e-002
1.481125e+003;3.600477e-002
1.483053e+003;3.493364e-002
1.484982e+003;3.330401e-002
1.486911e+003;3.117815e-002
1.488839e+003;2.906126e-002
1.490768e+003;2.800236e-002
1.492696e+003;2.808768e-002
1.494625e+003;2.645260e-002
1.496553e+003;2.484973e-002
1.498482e+003;2.555059e-002
1.500410e+003;2.638274e-002
1.502339e+003;2.579933e-002
1.504267e+003;2.218119e-002
1.506196e+003;1.852928e-002
1.508125e+003;2.006353e-002
1.510053e+003;2.281322e-002
1.511982e+003;2.372621e-002
1.513910e+003;2.401102e-002
1.515839e+003;2.367411e-002
1.517767e+003;2.376789e-002
1.519696e+003;2.265355e-002
1.521624e+003;2.185067e-002
1.523553e+003;2.395209e-002
1.525481e+003;2.524325e-002
1.527410e+003;2.655583e-002
1.529339e+003;2.806248e-002
1.531267e+003;2.844717e-002
1.533196e+003;2.831474e-002
1.535124e+003;2.999218e-002
1.537053e+003;3.002658e-002
1.538981e+003;2.745577e-002
1.540910e+003;2.799692e-002
1.542838e+003;3.075823e-002
1.544767e+003;3.245219e-002
1.546695e+003;3.340949e-002
1.548624e+003;3.326870e-002
1.550553e+003;3.324871e-002
1.552481e+003;3.289279e-002
1.554410e+003;3.158005e-002
1.556338e+003;2.945709e-002
1.558267e+003;2.562904e-002
1.560195e+003;2.647278e-002
1.562124e+003;3.018316e-002
1.564052e+003;3.068127e-002
1.565981e+003;3.005613e-002
1.567910e+003;2.895853e-002
1.569838e+003;2.782799e-002
1.571767e+003;2.875007e-002
1.573695e+003;2.835538e-002
1.575624e+003;2.636077e-002
1.577552e+003;2.783911e-002
1.579481e+003;2.976126e-002
1.581409e+003;2.913201e-002
1.583338e+003;2.764521e-002
1.585266e+003;2.640169e-002
1.587195e+003;2.567168e-002
1.589124e+003;2.505604e-002
1.591052e+003;2.447893e-002
1.592981e+003;2.383670e-002
1.594909e+003;2.379099e-002
1.596838e+003;2.433120e-002
1.598766e+003;2.526850e-002
1.600695e+003;2.624422e-002
1.602623e+003;2.704716e-002
1.604552e+003;2.769440e-002
1.606480e+003;2.819094e-002
1.608409e+003;2.830866e-002
1.610338e+003;2.822276e-002
1.612266e+003;2.817599e-002
1.614195e+003;2.706560e-002
1.616123e+003;2.486243e-002
1.618052e+003;2.569713e-002
1.619980e+003;2.737978e-002
1.621909e+003;2.676500e-002
1.623837e+003;2.652153e-002
1.625766e+003;2.737117e-002
1.627694e+003;2.776878e-002
1.629623e+003;2.831775e-002
1.631552e+003;2.837519e-002
1.633480e+003;2.654220e-002
1.635409e+003;2.486955e-002
1.637337e+003;2.696666e-002
1.639266e+003;2.915653e-002
1.641194e+003;2.968760e-002
1.643123e+003;2.922337e-002
1.645051e+003;2.758381e-002
1.646980e+003;2.751444e-002
1.648909e+003;2.947500e-002
1.650837e+003;2.755256e-002
1.652766e+003;2.445758e-002
1.654694e+003;2.907936e-002
1.656623e+003;3.408511e-002
1.658551e+003;3.539762e-002
1.660480e+003;3.551968e-002
1.662408e+003;3.577099e-002
1.664337e+003;3.732637e-002
1.666266e+003;3.810327e-002
1.668194e+003;3.689664e-002
1.670123e+003;3.648280e-002
1.672051e+003;3.707062e-002
1.673980e+003;3.583511e-002
1.675908e+003;3.469333e-002
1.677837e+003;3.509253e-002
1.679765e+003;3.421293e-002
1.681694e+003;3.141278e-002
1.683622e+003;2.710750e-002
1.685551e+003;2.721441e-002
1.687479e+003;2.972045e-002
1.689408e+003;2.994734e-002
1.691337e+003;2.961637e-002
1.693265e+003;2.826240e-002
1.695194e+003;2.588496e-002
1.697122e+003;2.680123e-002
1.699051e+003;2.701838e-002
1.700979e+003;2.869559e-002
1.702908e+003;3.403092e-002
1.704836e+003;3.781756e-002
1.706765e+003;4.302035e-002
1.708693e+003;4.993901e-002
1.710622e+003;5.772567e-002
1.712551e+003;6.561599e-002
1.714479e+003;7.350980e-002
1.716408e+003;8.119421e-002
1.718336e+003;9.123524e-002
1.720265e+003;1.030362e-001
1.722193e+003;1.124305e-001
1.724122e+003;1.197697e-001
1.726050e+003;1.253980e-001
1.727979e+003;1.284831e-001
1.729908e+003;1.295761e-001
1.731836e+003;1.275556e-001
1.733765e+003;1.232146e-001
1.735693e+003;1.209666e-001
1.737622e+003;1.166901e-001
1.739550e+003;1.086812e-001
1.741479e+003;1.005312e-001
1.743407e+003;9.172852e-002
1.745336e+003;8.225210e-002
1.747265e+003;7.225218e-002
1.749193e+003;6.209103e-002
1.751122e+003;5.255903e-002
1.753050e+003;4.516152e-002
1.754979e+003;3.803476e-002
1.756907e+003;3.116604e-002
1.758836e+003;2.565027e-002
1.760764e+003;2.037858e-002
1.762693e+003;1.682442e-002
1.764621e+003;1.474959e-002
1.766550e+003;1.192137e-002
1.768479e+003;9.727032e-003
1.770407e+003;7.633988e-003
1.772336e+003;5.789527e-003
1.774264e+003;6.400081e-003
1.776193e+003;6.888907e-003
1.778121e+003;6.509581e-003
1.780050e+003;6.038652e-003
1.781978e+003;5.602635e-003
1.783907e+003;4.992228e-003
1.785835e+003;4.688669e-003
1.787764e+003;4.655913e-003
1.789693e+003;3.721277e-003
1.791621e+003;2.447204e-003
1.793550e+003;2.600209e-003
1.795478e+003;3.416935e-003
1.797407e+003;3.181759e-003
1.799335e+003;2.576976e-003
1.801264e+003;2.488324e-003
1.803192e+003;3.086710e-003
1.805121e+003;3.275794e-003
1.807049e+003;3.185364e-003
1.808978e+003;2.685850e-003
1.810907e+003;2.235232e-003
1.812835e+003;2.359078e-003
1.814764e+003;2.707488e-003
1.816692e+003;2.574443e-003
1.818621e+003;2.370738e-003
1.820549e+003;2.388329e-003
1.822478e+003;2.184578e-003
1.824406e+003;1.612077e-003
1.826335e+003;1.380568e-003
1.828264e+003;8.139710e-004
1.830192e+003;6.136782e-004
1.832121e+003;1.331310e-003
1.834049e+003;1.554113e-003
1.835978e+003;1.358830e-003
1.837906e+003;1.421720e-003
1.839835e+003;1.418695e-003
1.841763e+003;7.330794e-004
1.843692e+003;-2.487985e-004
1.845620e+003;1.905957e-004
1.847549e+003;9.408323e-004
1.849478e+003;9.396700e-004
1.851406e+003;9.479052e-004
1.853335e+003;1.047337e-003
1.855263e+003;9.167254e-004
1.857192e+003;7.559148e-004
1.859120e+003;6.257562e-004
1.861049e+003;6.838614e-004
1.862977e+003;6.808083e-004
1.864906e+003;2.955236e-004
1.866834e+003;-1.507337e-004
1.868763e+003;-4.275168e-004
1.870692e+003;7.379577e-005
1.872620e+003;5.335537e-004
1.874549e+003;3.873439e-004
1.876477e+003;2.887929e-004
1.878406e+003;2.049492e-004
1.880334e+003;2.210934e-004
1.882263e+003;2.018332e-004
1.884191e+003;2.534500e-004
1.886120e+003;2.750997e-004
1.888048e+003;8.741640e-005
1.889977e+003;1.631495e-004
1.891906e+003;3.857521e-004
1.893834e+003;1.241047e-004
1.895763e+003;-8.696815e-005
1.897691e+003;1.608293e-004
1.899620e+003;3.302731e-004
1.901548e+003;1.023854e-005
1.903477e+003;-1.733890e-004
1.905405e+003;3.644746e-007
1.907334e+003;-1.013890e-005
1.909262e+003;-2.880050e-004
1.911191e+003;-4.766697e-004
1.913120e+003;-4.252659e-004
1.915048e+003;-4.211613e-004
1.916977e+003;-8.969394e-004
1.918905e+003;-7.235414e-004
1.920834e+003;-3.167122e-004
1.922762e+003;-4.530373e-004
1.924691e+003;-4.836532e-004
1.926619e+003;-3.222084e-004
1.928548e+003;-1.483158e-004
1.930477e+003;-1.499719e-004
1.932405e+003;-2.774090e-004
1.934334e+003;-4.976200e-004
1.936262e+003;-6.020587e-004
1.938191e+003;-7.188772e-004
1.940119e+003;-1.044751e-003
1.942048e+003;-1.224629e-003
1.943976e+003;-9.902077e-004
1.945905e+003;-6.986323e-004
1.947833e+003;-5.854151e-004
1.949762e+003;-6.536070e-004
1.951691e+003;-8.237919e-004
1.953619e+003;-6.990954e-004
1.955548e+003;-6.691894e-004
1.957476e+003;-6.198928e-004
1.959405e+003;-6.232346e-004
1.961333e+003;-6.467254e-004
1.963262e+003;-6.787172e-004
1.965190e+003;-6.592643e-004
1.967119e+003;-6.252529e-004
1.969047e+003;-3.976252e-004
1.970976e+003;-4.125878e-004
1.972905e+003;-5.147303e-004
1.974833e+003;-3.476026e-004
1.976762e+003;-3.164142e-004
1.978690e+003;-3.075738e-004
1.980619e+003;7.123877e-006
1.982547e+003;9.202298e-005
1.984476e+003;-9.707188e-005
1.986404e+003;-2.578388e-004
1.988333e+003;-2.452883e-004
1.990261e+003;-1.807086e-004
1.992190e+003;-2.210472e-004
1.994119e+003;-3.234665e-004
1.996047e+003;-3.610772e-004
1.997976e+003;-2.601237e-004
1.999904e+003;-2.139600e-004
2.001833e+003;-1.752106e-004
2.003761e+003;-1.590431e-006
2.005690e+003;8.254474e-005
2.007618e+003;-4.115053e-005
2.009547e+003;-7.434642e-005
2.011476e+003;-4.095174e-005
2.013404e+003;6.806265e-005
2.015333e+003;5.119511e-005
2.017261e+003;-4.260828e-005
2.019190e+003;1.365337e-004
2.021118e+003;3.834638e-004
2.023047e+003;2.194691e-004
2.024975e+003;-1.424740e-005
2.026904e+003;-2.408778e-005
2.028833e+003;-1.727265e-004
2.030761e+003;-1.629889e-004
2.032690e+003;1.265739e-005
2.034618e+003;-3.329843e-005
2.036547e+003;-3.384979e-004
2.038475e+003;-4.127202e-004
2.040404e+003;-2.669120e-004
2.042332e+003;-2.423741e-004
2.044261e+003;-3.920968e-004
2.046189e+003;-2.899255e-004
2.048118e+003;-2.007128e-004
2.050047e+003;-2.311478e-004
2.051975e+003;-2.707863e-004
2.053904e+003;-3.199900e-004
2.055832e+003;-3.737899e-004
2.057761e+003;-5.974594e-004
2.059689e+003;-7.117321e-004
2.061618e+003;-7.126914e-004
2.063546e+003;-5.681752e-004
2.065475e+003;-7.330019e-004
2.067404e+003;-8.889374e-004
2.069332e+003;-7.914470e-004
2.071260e+003;-6.839441e-004
2.073189e+003;-5.532510e-004
2.075118e+003;-6.709097e-004
2.077046e+003;-6.440787e-004
2.078975e+003;-6.253191e-004
2.080903e+003;-9.097686e-004
2.082832e+003;-1.054601e-003
2.084760e+003;-9.316569e-004
2.086689e+003;-7.344903e-004
2.088617e+003;-6.985000e-004
2.090546e+003;-7.744799e-004
2.092475e+003;-6.035146e-004
2.094403e+003;-6.232346e-004
2.096332e+003;-8.027581e-004
2.098260e+003;-7.048183e-004
2.100189e+003;-5.288285e-004
2.102117e+003;-6.721999e-004
2.104046e+003;-8.189304e-004
2.105974e+003;-7.433221e-004
2.107903e+003;-7.216559e-004
2.109832e+003;-8.629465e-004
2.111760e+003;-1.084613e-003
2.113688e+003;-1.086728e-003
2.115617e+003;-1.062699e-003
2.117546e+003;-1.072846e-003
2.119474e+003;-1.270388e-003
2.121403e+003;-1.455159e-003
2.123331e+003;-1.543949e-003
2.125260e+003;-1.539756e-003
2.127188e+003;-1.369686e-003
2.129117e+003;-1.236622e-003
2.131045e+003;-1.043098e-003
2.132974e+003;-1.049081e-003
2.134903e+003;-1.208339e-003
2.136831e+003;-1.200013e-003
2.138760e+003;-9.565196e-004
2.140688e+003;-1.127313e-003
2.142617e+003;-1.560952e-003
2.144545e+003;-1.615061e-003
2.146474e+003;-1.527540e-003
2.148402e+003;-1.474345e-003
2.150331e+003;-1.397728e-003
2.152260e+003;-1.233583e-003
2.154188e+003;-1.289285e-003
2.156117e+003;-1.505549e-003
2.158045e+003;-1.503403e-003
2.159974e+003;-1.607237e-003
2.161902e+003;-1.552963e-003
2.163831e+003;-1.234805e-003
2.165759e+003;-1.107550e-003
2.167688e+003;-1.103319e-003
2.169616e+003;-1.144861e-003
2.171545e+003;-1.243164e-003
2.173474e+003;-1.313598e-003
2.175402e+003;-1.276268e-003
2.177331e+003;-1.014307e-003
2.179259e+003;-6.061285e-004
2.181188e+003;-3.503174e-004
2.183116e+003;-2.249881e-004
2.185045e+003;2.386306e-004
2.186973e+003;9.360838e-004
2.188902e+003;1.560830e-003
2.190831e+003;2.060150e-003
2.192759e+003;2.220612e-003
2.194688e+003;2.053791e-003
2.196616e+003;2.044503e-003
2.198545e+003;2.043804e-003
2.200473e+003;2.109790e-003
2.202402e+003;2.144053e-003
2.204330e+003;1.748286e-003
2.206259e+003;1.693066e-003
2.208188e+003;1.902909e-003
2.210116e+003;2.148248e-003
2.212044e+003;2.513118e-003
2.213973e+003;2.665680e-003
2.215902e+003;3.003325e-003
2.217830e+003;3.409989e-003
2.219759e+003;4.047303e-003
2.221687e+003;4.957908e-003
2.223616e+003;6.222707e-003
2.225544e+003;8.217663e-003
2.227473e+003;1.197052e-002
2.229401e+003;1.863991e-002
2.231330e+003;2.923329e-002
2.233259e+003;4.386008e-002
2.235187e+003;6.077925e-002
2.237116e+003;7.709250e-002
2.239044e+003;9.050132e-002
2.240973e+003;9.932535e-002
2.242901e+003;1.031521e-001
2.244830e+003;1.024601e-001
2.246758e+003;9.833745e-002
2.248687e+003;9.186549e-002
2.250615e+003;8.358051e-002
2.252544e+003;7.437790e-002
2.254473e+003;6.480906e-002
2.256401e+003;5.482530e-002
2.258330e+003;4.509568e-002
2.260258e+003;3.677914e-002
2.262187e+003;2.989754e-002
2.264115e+003;2.394810e-002
2.266044e+003;1.929371e-002
2.267972e+003;1.567501e-002
2.269901e+003;1.293125e-002
2.271830e+003;1.088872e-002
2.273758e+003;9.312754e-003
2.275687e+003;8.052337e-003
2.277615e+003;6.976779e-003
2.279544e+003;6.368037e-003
2.281472e+003;5.883020e-003
2.283401e+003;5.268832e-003
2.285329e+003;4.858649e-003
2.287258e+003;4.819448e-003
2.289187e+003;4.736099e-003
2.291115e+003;4.599619e-003
2.293043e+003;4.414677e-003
2.294972e+003;4.119850e-003
2.296901e+003;4.017405e-003
2.298829e+003;4.034628e-003
2.300758e+003;3.916723e-003
2.302686e+003;3.722814e-003
2.304615e+003;3.591597e-003
2.306543e+003;3.426119e-003
2.308472e+003;3.098356e-003
2.310400e+003;2.766473e-003
2.312329e+003;2.667980e-003
2.314258e+003;2.689784e-003
2.316186e+003;2.833369e-003
2.318115e+003;2.834737e-003
2.320043e+003;2.611709e-003
2.321972e+003;2.463865e-003
2.323900e+003;2.374903e-003
2.325829e+003;2.208090e-003
2.327757e+003;1.741833e-003
2.329686e+003;1.488078e-003
2.331615e+003;1.597909e-003
2.333543e+003;1.580583e-003
2.335472e+003;1.672343e-003
2.337400e+003;1.751680e-003
2.339329e+003;1.765653e-003
2.341257e+003;1.576892e-003
2.343186e+003;1.807141e-003
2.345114e+003;2.366107e-003
2.347043e+003;2.643911e-003
2.348971e+003;2.773909e-003
2.350900e+003;2.709922e-003
2.352829e+003;2.159270e-003
2.354757e+003;1.475012e-003
2.356686e+003;1.176791e-003
2.358614e+003;9.076608e-004
2.360543e+003;5.505727e-004
2.362471e+003;5.586014e-004
2.364400e+003;6.884743e-004
2.366328e+003;1.017611e-003
2.368257e+003;1.374219e-003
2.370186e+003;1.554213e-003
2.372114e+003;1.835556e-003
2.374042e+003;2.237630e-003
2.375971e+003;2.455834e-003
2.377900e+003;2.631710e-003
2.379828e+003;2.805589e-003
2.381757e+003;3.039093e-003
2.383685e+003;3.164103e-003
2.385614e+003;3.217208e-003
2.387542e+003;3.088846e-003
2.389471e+003;2.855448e-003
2.391399e+003;2.836904e-003
2.393328e+003;2.996219e-003
2.395257e+003;3.048402e-003
2.397185e+003;2.882631e-003
2.399114e+003;2.733595e-003
2.401042e+003;2.927863e-003
2.402971e+003;3.161866e-003
2.404899e+003;3.034155e-003
2.406828e+003;2.800320e-003
2.408756e+003;2.732794e-003
2.410685e+003;2.977469e-003
2.412614e+003;3.157928e-003
2.414542e+003;3.010866e-003
2.416471e+003;2.972732e-003
2.418399e+003;3.094152e-003
2.420328e+003;2.974767e-003
2.422256e+003;2.797252e-003
2.424185e+003;3.010398e-003
2.426113e+003;3.340432e-003
2.428042e+003;3.485201e-003
2.429970e+003;3.279066e-003
2.431899e+003;2.978403e-003
2.433828e+003;2.993183e-003
2.435756e+003;3.025179e-003
2.437685e+003;2.917955e-003
2.439613e+003;2.785346e-003
2.441542e+003;2.788114e-003
2.443470e+003;3.134466e-003
2.445399e+003;3.203455e-003
2.447327e+003;3.091115e-003
2.449256e+003;3.132363e-003
2.451185e+003;3.424683e-003
2.453113e+003;3.505777e-003
2.455042e+003;3.364006e-003
2.456970e+003;2.980505e-003
2.458899e+003;2.928230e-003
2.460827e+003;2.945576e-003
2.462756e+003;3.065287e-003
2.464684e+003;3.258868e-003
2.466613e+003;3.340533e-003
2.468542e+003;3.274793e-003
2.470470e+003;3.393726e-003
2.472398e+003;3.750420e-003
2.474327e+003;4.006269e-003
2.476256e+003;3.958016e-003
2.478184e+003;3.967111e-003
2.480113e+003;4.234197e-003
2.482041e+003;4.317014e-003
2.483970e+003;4.133999e-003
2.485898e+003;4.169024e-003
2.487827e+003;4.407748e-003
2.489755e+003;4.493010e-003
2.491684e+003;4.546679e-003
2.493613e+003;4.662344e-003
2.495541e+003;4.906768e-003
2.497470e+003;5.188481e-003
2.499398e+003;5.254914e-003
2.501327e+003;5.117332e-003
2.503255e+003;4.831074e-003
2.505184e+003;5.049144e-003
2.507112e+003;5.509974e-003
2.509041e+003;5.465781e-003
2.510969e+003;5.513564e-003
2.512898e+003;5.600386e-003
2.514827e+003;5.610791e-003
2.516755e+003;5.544103e-003
2.518684e+003;5.313608e-003
2.520612e+003;5.333331e-003
2.522541e+003;5.627977e-003
2.524469e+003;5.817667e-003
2.526398e+003;5.755916e-003
2.528326e+003;5.612369e-003
2.530255e+003;5.529538e-003
2.532184e+003;5.489605e-003
2.534112e+003;5.557728e-003
2.536041e+003;5.582329e-003
2.537969e+003;5.422097e-003
2.539898e+003;5.236033e-003
2.541826e+003;5.390728e-003
2.543755e+003;5.545646e-003
2.545683e+003;5.382006e-003
2.547612e+003;5.301500e-003
2.549541e+003;5.317030e-003
2.551469e+003;5.410958e-003
2.553397e+003;5.249314e-003
2.555326e+003;4.932404e-003
2.557255e+003;4.678621e-003
2.559183e+003;4.438510e-003
2.561112e+003;4.452235e-003
2.563040e+003;4.611507e-003
2.564969e+003;4.596672e-003
2.566897e+003;4.537270e-003
2.568826e+003;4.377055e-003
2.570754e+003;4.392284e-003
2.572683e+003;4.514671e-003
2.574612e+003;4.532114e-003
2.576540e+003;4.435163e-003
2.578469e+003;4.132662e-003
2.580397e+003;3.902781e-003
2.582326e+003;3.752191e-003
2.584254e+003;3.748715e-003
2.586183e+003;3.926386e-003
2.588111e+003;3.785748e-003
2.590040e+003;3.488007e-003
2.591969e+003;3.257767e-003
2.593897e+003;3.233231e-003
2.595826e+003;3.326609e-003
2.597754e+003;3.477987e-003
2.599683e+003;3.376962e-003
2.601611e+003;3.310583e-003
2.603540e+003;3.466397e-003
2.605468e+003;3.650133e-003
2.607397e+003;3.666941e-003
2.609325e+003;3.484233e-003
2.611254e+003;3.601620e-003
2.613183e+003;3.936517e-003
2.615111e+003;4.031952e-003
2.617040e+003;3.546096e-003
2.618968e+003;3.487773e-003
2.620897e+003;3.841269e-003
2.622825e+003;3.956846e-003
2.624754e+003;3.890445e-003
2.626682e+003;3.713357e-003
2.628611e+003;3.793936e-003
2.630540e+003;4.158420e-003
2.632468e+003;4.537137e-003
2.634396e+003;4.532516e-003
2.636325e+003;4.306507e-003
2.638254e+003;4.108778e-003
2.640182e+003;3.953636e-003
2.642111e+003;3.811385e-003
2.644039e+003;3.633227e-003
2.645968e+003;3.614750e-003
2.647896e+003;3.606330e-003
2.649825e+003;3.706072e-003
2.651753e+003;3.727460e-003
2.653682e+003;3.517869e-003
2.655611e+003;3.356560e-003
2.657539e+003;3.648196e-003
2.659468e+003;3.865639e-003
2.661396e+003;3.461688e-003
2.663325e+003;3.448729e-003
2.665253e+003;3.908164e-003
2.667182e+003;3.868480e-003
2.669110e+003;3.621532e-003
2.671039e+003;3.451100e-003
2.672968e+003;3.392891e-003
2.674896e+003;3.570215e-003
2.676825e+003;3.718169e-003
2.678753e+003;3.482763e-003
2.680682e+003;3.277163e-003
2.682610e+003;3.453271e-003
2.684539e+003;3.885430e-003
2.686467e+003;4.119750e-003
2.688396e+003;4.037671e-003
2.690324e+003;4.015232e-003
2.692253e+003;3.875634e-003
2.694182e+003;3.746610e-003
2.696110e+003;3.957481e-003
2.698039e+003;4.157449e-003
2.699967e+003;3.859822e-003
2.701896e+003;3.575728e-003
2.703824e+003;3.654711e-003
2.705753e+003;3.778695e-003
2.707681e+003;3.885764e-003
2.709610e+003;3.846517e-003
2.711539e+003;3.318629e-003
2.713467e+003;3.242578e-003
2.715396e+003;3.485936e-003
2.717324e+003;3.559024e-003
2.719253e+003;3.443653e-003
2.721181e+003;3.330716e-003
2.723110e+003;3.298029e-003
2.725038e+003;3.299231e-003
2.726967e+003;3.482997e-003
2.728896e+003;3.566908e-003
2.730824e+003;3.431463e-003
2.732752e+003;3.327978e-003
2.734681e+003;3.461320e-003
2.736610e+003;3.410857e-003
2.738538e+003;2.933167e-003
2.740467e+003;2.894939e-003
2.742395e+003;2.983941e-003
2.744324e+003;2.811225e-003
2.746252e+003;2.915687e-003
2.748181e+003;3.170277e-003
2.750109e+003;3.421510e-003
2.752038e+003;3.454607e-003
2.753967e+003;3.293522e-003
2.755895e+003;2.934768e-003
2.757824e+003;2.804422e-003
2.759752e+003;2.874860e-003
2.761681e+003;3.000623e-003
2.763609e+003;2.960588e-003
2.765538e+003;2.983408e-003
2.767466e+003;3.344105e-003
2.769395e+003;3.449364e-003
2.771323e+003;3.416601e-003
2.773252e+003;3.414330e-003
2.775181e+003;3.470772e-003
2.777109e+003;3.759410e-003
2.779038e+003;4.068374e-003
2.780966e+003;4.383147e-003
2.782895e+003;4.640474e-003
2.784823e+003;4.616262e-003
2.786752e+003;4.589372e-003
2.788680e+003;4.695234e-003
2.790609e+003;4.867227e-003
2.792538e+003;5.129569e-003
2.794466e+003;5.442764e-003
2.796395e+003;5.543230e-003
2.798323e+003;5.560447e-003
2.800252e+003;5.838353e-003
2.802180e+003;6.125108e-003
2.804109e+003;6.418576e-003
2.806037e+003;6.584660e-003
2.807966e+003;6.632734e-003
2.809895e+003;6.941426e-003
2.811823e+003;7.247676e-003
2.813751e+003;7.401506e-003
2.815680e+003;7.358165e-003
2.817609e+003;7.317221e-003
2.819537e+003;7.430728e-003
2.821466e+003;7.618577e-003
2.823394e+003;7.780836e-003
2.825323e+003;7.924867e-003
2.827251e+003;8.146994e-003
2.829180e+003;8.344848e-003
2.831108e+003;8.812266e-003
2.833037e+003;9.627389e-003
2.834966e+003;1.056886e-002
2.836894e+003;1.164931e-002
2.838823e+003;1.284558e-002
2.840751e+003;1.430033e-002
2.842680e+003;1.638526e-002
2.844608e+003;1.897640e-002
2.846537e+003;2.214907e-002
2.848465e+003;2.622014e-002
2.850394e+003;3.030952e-002
2.852323e+003;3.259232e-002
2.854251e+003;3.347684e-002
2.856180e+003;3.370240e-002
2.858108e+003;3.352619e-002
2.860037e+003;3.358547e-002
2.861965e+003;3.328476e-002
2.863894e+003;3.261735e-002
2.865822e+003;3.253639e-002
2.867751e+003;3.274603e-002
2.869679e+003;3.299982e-002
2.871608e+003;3.284298e-002
2.873536e+003;3.256824e-002
2.875465e+003;3.250936e-002
2.877394e+003;3.245365e-002
2.879322e+003;3.218145e-002
2.881251e+003;3.160592e-002
2.883179e+003;3.120517e-002
2.885108e+003;3.118327e-002
2.887036e+003;3.184492e-002
2.888965e+003;3.279680e-002
2.890893e+003;3.377954e-002
2.892822e+003;3.492904e-002
2.894750e+003;3.578445e-002
2.896679e+003;3.701198e-002
2.898608e+003;3.871498e-002
2.900536e+003;4.068543e-002
2.902465e+003;4.277724e-002
2.904393e+003;4.528224e-002
2.906322e+003;4.840304e-002
2.908250e+003;5.164072e-002
2.910179e+003;5.522946e-002
2.912107e+003;5.903395e-002
2.914036e+003;6.322942e-002
2.915965e+003;6.748042e-002
2.917893e+003;7.086129e-002
2.919822e+003;7.359686e-002
2.921750e+003;7.630079e-002
2.923679e+003;7.826797e-002
2.925607e+003;7.943526e-002
2.927536e+003;8.049720e-002
2.929464e+003;8.082699e-002
2.931393e+003;8.032810e-002
2.933322e+003;7.963160e-002
2.935250e+003;7.900850e-002
2.937178e+003;7.809021e-002
2.939107e+003;7.693389e-002
2.941036e+003;7.552964e-002
2.942964e+003;7.385585e-002
2.944893e+003;7.174517e-002
2.946821e+003;6.993240e-002
2.948750e+003;6.795724e-002
2.950678e+003;6.548240e-002
2.952607e+003;6.291977e-002
2.954535e+003;6.037298e-002
2.956464e+003;5.760364e-002
2.958393e+003;5.468755e-002
2.960321e+003;5.226744e-002
2.962250e+003;5.044949e-002
2.964178e+003;4.864980e-002
2.966107e+003;4.722312e-002
2.968035e+003;4.602036e-002
2.969964e+003;4.470870e-002
2.971892e+003;4.324299e-002
2.973821e+003;4.193957e-002
2.975750e+003;4.087487e-002
2.977678e+003;4.022642e-002
2.979607e+003;3.943399e-002
2.981535e+003;3.870915e-002
2.983464e+003;3.788347e-002
2.985392e+003;3.667305e-002
2.987321e+003;3.586419e-002
2.989249e+003;3.536977e-002
2.991178e+003;3.463875e-002
2.993106e+003;3.381819e-002
2.995035e+003;3.319573e-002
2.996964e+003;3.261207e-002
2.998892e+003;3.199858e-002
3.000821e+003;3.148061e-002
3.002749e+003;3.073654e-002
3.004678e+003;2.995654e-002
3.006606e+003;2.897234e-002
3.008535e+003;2.810387e-002
3.010463e+003;2.730204e-002
3.012392e+003;2.627312e-002
3.014321e+003;2.505267e-002
3.016249e+003;2.392685e-002
3.018177e+003;2.317505e-002
3.020106e+003;2.248030e-002
3.022035e+003;2.168415e-002
3.023963e+003;2.068244e-002
3.025892e+003;1.967190e-002
3.027820e+003;1.907925e-002
3.029749e+003;1.846165e-002
3.031677e+003;1.780926e-002
3.033606e+003;1.717595e-002
3.035534e+003;1.668037e-002
3.037463e+003;1.643350e-002
3.039392e+003;1.614774e-002
3.041320e+003;1.576069e-002
3.043249e+003;1.539997e-002
3.045177e+003;1.502429e-002
3.047106e+003;1.481271e-002
3.049034e+003;1.410129e-002
3.050963e+003;1.350901e-002
3.052891e+003;1.345856e-002
3.054820e+003;1.331962e-002
3.056749e+003;1.270755e-002
3.058677e+003;1.214197e-002
3.060606e+003;1.213468e-002
3.062534e+003;1.187158e-002
3.064463e+003;1.174006e-002
3.066391e+003;1.168774e-002
3.068320e+003;1.125945e-002
3.070248e+003;1.099100e-002
3.072177e+003;1.086810e-002
3.074105e+003;1.066183e-002
3.076034e+003;1.032809e-002
3.077963e+003;9.870455e-003
3.079891e+003;9.628913e-003
3.081820e+003;9.775355e-003
3.083748e+003;9.841983e-003
3.085677e+003;9.318170e-003
3.087605e+003;8.655875e-003
3.089534e+003;8.344206e-003
3.091462e+003;8.356602e-003
3.093391e+003;8.559045e-003
3.095320e+003;8.786942e-003
3.097248e+003;8.693125e-003
3.099177e+003;8.268418e-003
3.101105e+003;7.981865e-003
3.103034e+003;7.553434e-003
3.104962e+003;7.405112e-003
3.106891e+003;7.469963e-003
3.108819e+003;7.284267e-003
3.110748e+003;7.144222e-003
3.112677e+003;7.231269e-003
3.114605e+003;7.303338e-003
3.116533e+003;6.761946e-003
3.118462e+003;6.634551e-003
3.120391e+003;6.519604e-003
3.122319e+003;6.223110e-003
3.124248e+003;6.408017e-003
3.126176e+003;6.256287e-003
3.128105e+003;6.234135e-003
3.130033e+003;6.365851e-003
3.131962e+003;6.064422e-003
3.133890e+003;5.764545e-003
3.135819e+003;5.803698e-003
3.137748e+003;5.844634e-003
3.139676e+003;5.900888e-003
3.141605e+003;5.744970e-003
3.143533e+003;5.734294e-003
3.145462e+003;5.727008e-003
3.147390e+003;5.558265e-003
3.149319e+003;5.284495e-003
3.151247e+003;5.391768e-003
3.153176e+003;5.317466e-003
3.155104e+003;5.521451e-003
3.157033e+003;6.010767e-003
3.158962e+003;6.324766e-003
3.160890e+003;6.191449e-003
3.162819e+003;5.873012e-003
3.164747e+003;5.388648e-003
3.166676e+003;5.208467e-003
3.168604e+003;5.414380e-003
3.170533e+003;5.244216e-003
3.172461e+003;5.141304e-003
3.174390e+003;5.190091e-003
3.176319e+003;5.451756e-003
3.178247e+003;5.890376e-003
3.180176e+003;6.002032e-003
3.182104e+003;5.823342e-003
3.184033e+003;5.886278e-003
3.185961e+003;6.081357e-003
3.187890e+003;5.891955e-003
3.189818e+003;5.719555e-003
3.191747e+003;5.799265e-003
3.193676e+003;5.701358e-003
3.195604e+003;5.426257e-003
3.197532e+003;5.601091e-003
3.199461e+003;6.047790e-003
3.201390e+003;6.140432e-003
3.203318e+003;6.299921e-003
3.205247e+003;6.196625e-003
3.207175e+003;5.883927e-003
3.209104e+003;5.847589e-003
3.211032e+003;6.321706e-003
3.212961e+003;6.687544e-003
3.214889e+003;6.358252e-003
3.216818e+003;6.149573e-003
3.218747e+003;6.044464e-003
3.220675e+003;5.962089e-003
3.222604e+003;6.149136e-003
3.224532e+003;6.066405e-003
3.226461e+003;6.228219e-003
3.228389e+003;6.666278e-003
3.230318e+003;6.934727e-003
3.232246e+003;6.846863e-003
3.234175e+003;6.490780e-003
3.236104e+003;6.232454e-003
3.238032e+003;6.602590e-003
3.239961e+003;6.896078e-003
3.241889e+003;6.667624e-003
3.243818e+003;6.395542e-003
3.245746e+003;6.352671e-003
3.247675e+003;6.608242e-003
3.249603e+003;6.887460e-003
3.251532e+003;7.013482e-003
3.253460e+003;6.684246e-003
3.255389e+003;6.432262e-003
3.257318e+003;6.445613e-003
3.259246e+003;6.831986e-003
3.261175e+003;7.159885e-003
3.263103e+003;6.776418e-003
3.265032e+003;6.627587e-003
3.266960e+003;6.872513e-003
3.268889e+003;6.923212e-003
3.270817e+003;7.347617e-003
3.272746e+003;7.683494e-003
3.274675e+003;7.398473e-003
3.276603e+003;7.055710e-003
3.278531e+003;6.602994e-003
3.280460e+003;6.532218e-003
3.282389e+003;6.989069e-003
3.284317e+003;7.003851e-003
3.286246e+003;6.780322e-003
3.288174e+003;6.674017e-003
3.290103e+003;6.552803e-003
3.292031e+003;6.547758e-003
3.293960e+003;6.534202e-003
3.295888e+003;6.350620e-003
3.297817e+003;6.398669e-003
3.299746e+003;6.378225e-003
3.301674e+003;6.038282e-003
3.303603e+003;5.832308e-003
3.305531e+003;5.977810e-003
3.307460e+003;5.813772e-003
3.309388e+003;5.482189e-003
3.311317e+003;5.598641e-003
3.313245e+003;6.070571e-003
3.315174e+003;6.118085e-003
3.317103e+003;5.836104e-003
3.319031e+003;5.554842e-003
3.320960e+003;5.597164e-003
3.322888e+003;5.512289e-003
3.324817e+003;5.453736e-003
3.326745e+003;5.526786e-003
3.328674e+003;5.438939e-003
3.330602e+003;5.133257e-003
3.332531e+003;5.191600e-003
3.334459e+003;5.147876e-003
3.336388e+003;4.919837e-003
3.338317e+003;4.568477e-003
3.340245e+003;4.712082e-003
3.342174e+003;4.982475e-003
3.344102e+003;4.855533e-003
3.346031e+003;4.835430e-003
3.347959e+003;4.561311e-003
3.349888e+003;4.347134e-003
3.351816e+003;4.460603e-003
3.353745e+003;4.501279e-003
3.355674e+003;4.342215e-003
3.357602e+003;4.017974e-003
3.359531e+003;4.161731e-003
3.361459e+003;4.082053e-003
3.363388e+003;4.008476e-003
3.365316e+003;4.016736e-003
3.367245e+003;3.754898e-003
3.369173e+003;3.505343e-003
3.371102e+003;3.779631e-003
3.373031e+003;3.838695e-003
3.374959e+003;3.568679e-003
3.376887e+003;2.980605e-003
3.378816e+003;2.804121e-003
3.380745e+003;3.133097e-003
3.382673e+003;2.743198e-003
3.384602e+003;2.186543e-003
3.386530e+003;2.349217e-003
3.388459e+003;2.383165e-003
3.390387e+003;2.239362e-003
3.392316e+003;1.905904e-003
3.394244e+003;2.058419e-003
3.396173e+003;1.903575e-003
3.398102e+003;1.589828e-003
3.400030e+003;1.521560e-003
3.401959e+003;1.656477e-003
3.403887e+003;1.696026e-003
3.405816e+003;1.556507e-003
3.407744e+003;1.721407e-003
3.409673e+003;2.144353e-003
3.411601e+003;1.851462e-003
3.413530e+003;1.162970e-003
3.415458e+003;9.609223e-004
3.417387e+003;1.178220e-003
3.419316e+003;1.607387e-003
3.421244e+003;1.749151e-003
3.423173e+003;1.600171e-003
3.425101e+003;1.654482e-003
3.427030e+003;1.431826e-003
3.428958e+003;1.336694e-003
3.430887e+003;1.496191e-003
3.432815e+003;1.569177e-003
3.434744e+003;1.741666e-003
3.436673e+003;1.959088e-003
3.438601e+003;2.069572e-003
3.440530e+003;1.419460e-003
3.442458e+003;5.946991e-004
3.444387e+003;5.274496e-004
3.446315e+003;5.700143e-004
3.448244e+003;8.216063e-004
3.450172e+003;1.169382e-003
3.452101e+003;9.699548e-004
3.454030e+003;9.353201e-004
3.455958e+003;1.403969e-003
3.457886e+003;1.604993e-003
3.459815e+003;1.317617e-003
3.461744e+003;1.092875e-003
3.463672e+003;8.731639e-004
3.465601e+003;6.823349e-004
3.467529e+003;8.838546e-004
3.469458e+003;7.930247e-004
3.471386e+003;8.825266e-004
3.473315e+003;8.359807e-004
3.475243e+003;9.247609e-004
3.477172e+003;1.053946e-003
3.479101e+003;1.003862e-003
3.481029e+003;1.137456e-003
3.482958e+003;9.855629e-004
3.484886e+003;8.608798e-004
3.486815e+003;5.847454e-004
3.488743e+003;1.125709e-004
3.490672e+003;1.270545e-004
3.492600e+003;7.440987e-004
3.494529e+003;1.431062e-003
3.496458e+003;1.462312e-003
3.498386e+003;1.214934e-003
3.500315e+003;1.095234e-003
3.502243e+003;1.028106e-003
3.504172e+003;1.357301e-003
3.506100e+003;1.440902e-003
3.508029e+003;1.092477e-003
3.509957e+003;1.149083e-003
3.511886e+003;1.245969e-003
3.513814e+003;1.168884e-003
3.515743e+003;1.742032e-003
3.517672e+003;2.338990e-003
3.519600e+003;2.400190e-003
3.521529e+003;2.481393e-003
3.523457e+003;2.220279e-003
3.525386e+003;1.744028e-003
3.527314e+003;1.937887e-003
3.529243e+003;2.581143e-003
3.531171e+003;3.144344e-003
3.533100e+003;3.107300e-003
3.535029e+003;2.569610e-003
3.536957e+003;2.410819e-003
3.538885e+003;2.473195e-003
3.540814e+003;2.379734e-003
3.542743e+003;2.281162e-003
3.544671e+003;2.001428e-003
3.546600e+003;2.152611e-003
3.548528e+003;2.060550e-003
3.550457e+003;1.458688e-003
3.552385e+003;1.433588e-003
3.554314e+003;1.899980e-003
3.556242e+003;1.998532e-003
3.558171e+003;1.925473e-003
3.560100e+003;1.701149e-003
3.562028e+003;1.599772e-003
3.563957e+003;1.417898e-003
3.565885e+003;7.061300e-004
3.567814e+003;6.634856e-004
3.569742e+003;1.033287e-003
3.571671e+003;1.490439e-003
3.573599e+003;1.238924e-003
3.575528e+003;9.734416e-004
3.577457e+003;9.636121e-004
3.579385e+003;9.225362e-004
3.581314e+003;6.959746e-004
3.583242e+003;2.557375e-004
3.585171e+003;-4.063645e-004
3.587099e+003;-1.196709e-003
3.589028e+003;-9.493453e-004
3.590956e+003;-1.518268e-004
3.592885e+003;-2.097334e-005
3.594813e+003;4.461801e-004
3.596742e+003;1.118719e-003
3.598671e+003;1.467265e-003
3.600599e+003;1.635324e-003
3.602528e+003;1.773138e-003
3.604456e+003;1.696824e-003
3.606385e+003;8.779780e-004
3.608313e+003;4.980582e-004
3.610242e+003;1.157688e-003
3.612170e+003;1.163834e-003
3.614099e+003;1.068063e-003
3.616028e+003;7.626860e-004
3.617956e+003;3.298089e-004
3.619885e+003;7.090837e-004
3.621813e+003;1.396424e-003
3.623742e+003;1.770743e-003
3.625670e+003;9.531186e-004
3.627599e+003;-1.353832e-003
3.629527e+003;-1.135377e-003
3.631456e+003;8.885029e-004
3.633385e+003;1.283519e-003
3.635313e+003;1.129117e-003
3.637241e+003;9.088893e-004
3.639170e+003;8.673870e-004
3.641099e+003;6.823349e-004
3.643027e+003;1.317941e-004
3.644956e+003;-1.021182e-003
3.646884e+003;-2.903319e-003
3.648813e+003;-4.294013e-003
3.650741e+003;-3.423235e-003
3.652670e+003;-2.141631e-003
3.654598e+003;-3.008727e-003
3.656527e+003;-3.850911e-003
3.658456e+003;-2.681888e-003
3.660384e+003;-2.211755e-003
3.662313e+003;-3.116742e-003
3.664241e+003;-3.900171e-003
3.666170e+003;-4.703854e-003
3.668098e+003;-6.390235e-003
3.670027e+003;-7.553305e-003
3.671955e+003;-6.267780e-003
3.673884e+003;-6.396112e-003
3.675813e+003;-6.155157e-003
3.677741e+003;-4.397575e-003
3.679669e+003;-4.824457e-003
3.681598e+003;-5.498692e-003
3.683527e+003;-5.932109e-003
3.685455e+003;-6.977540e-003
3.687384e+003;-9.339114e-003
3.689312e+003;-9.310316e-003
3.691241e+003;-7.315629e-003
3.693169e+003;-5.845160e-003
3.695098e+003;-5.815671e-003
3.697026e+003;-6.157901e-003
3.698955e+003;-6.552672e-003
3.700884e+003;-7.177466e-003
3.702812e+003;-6.471494e-003
3.704741e+003;-6.024564e-003
3.706669e+003;-6.840410e-003
3.708598e+003;-7.947818e-003
3.710526e+003;-9.206945e-003
3.712455e+003;-9.096574e-003
3.714383e+003;-7.347525e-003
3.716312e+003;-6.634618e-003
3.718240e+003;-6.875830e-003
3.720169e+003;-7.079975e-003
3.722098e+003;-7.204613e-003
3.724026e+003;-7.428962e-003
3.725955e+003;-7.717260e-003
3.727883e+003;-7.431047e-003
3.729812e+003;-7.966460e-003
3.731740e+003;-9.417326e-003
3.733669e+003;-9.736383e-003
3.735597e+003;-9.728122e-003
3.737526e+003;-8.420756e-003
3.739455e+003;-7.257404e-003
3.741383e+003;-8.427256e-003
3.743312e+003;-1.218454e-002
3.745240e+003;-1.203838e-002
3.747169e+003;-9.979377e-003
3.749097e+003;-1.145094e-002
3.751026e+003;-1.202984e-002
3.752954e+003;-9.942881e-003
3.754883e+003;-7.537349e-003
3.756812e+003;-7.454531e-003
3.758740e+003;-7.581340e-003
3.760668e+003;-7.030456e-003
3.762597e+003;-6.568990e-003
3.764526e+003;-7.057254e-003
3.766454e+003;-6.952921e-003
3.768383e+003;-7.161072e-003
3.770311e+003;-7.180660e-003
3.772240e+003;-6.728685e-003
3.774168e+003;-6.392717e-003
3.776097e+003;-6.444660e-003
3.778025e+003;-6.983963e-003
3.779954e+003;-7.352346e-003
3.781883e+003;-6.864871e-003
3.783811e+003;-6.714264e-003
3.785740e+003;-6.674720e-003
3.787668e+003;-6.402773e-003
3.789597e+003;-6.492973e-003
3.791525e+003;-6.854076e-003
3.793454e+003;-7.111399e-003
3.795382e+003;-7.557082e-003
3.797311e+003;-7.758304e-003
3.799240e+003;-9.004965e-003
3.801168e+003;-1.023964e-002
3.803097e+003;-8.402979e-003
3.805025e+003;-7.687573e-003
3.806954e+003;-8.251085e-003
3.808882e+003;-6.771192e-003
3.810811e+003;-5.796055e-003
3.812739e+003;-6.300634e-003
3.814668e+003;-8.362646e-003
3.816596e+003;-8.694626e-003
3.818525e+003;-8.168630e-003
3.820454e+003;-8.857177e-003
3.822382e+003;-7.485829e-003
3.824311e+003;-6.543762e-003
3.826239e+003;-7.110226e-003
3.828168e+003;-6.750673e-003
3.830096e+003;-7.088027e-003
3.832025e+003;-7.517908e-003
3.833953e+003;-7.303770e-003
3.835882e+003;-7.957969e-003
3.837811e+003;-8.752367e-003
3.839739e+003;-7.784894e-003
3.841667e+003;-6.945910e-003
3.843596e+003;-6.430328e-003
3.845525e+003;-5.774901e-003
3.847453e+003;-5.647824e-003
3.849382e+003;-7.352444e-003
3.851310e+003;-1.099299e-002
3.853239e+003;-1.336576e-002
3.855167e+003;-1.007848e-002
3.857096e+003;-6.450634e-003
3.859024e+003;-6.340703e-003
3.860953e+003;-7.045713e-003
3.862882e+003;-7.271871e-003
3.864810e+003;-7.105662e-003
3.866739e+003;-6.817284e-003
3.868667e+003;-7.743658e-003
3.870596e+003;-7.352542e-003
3.872524e+003;-6.493267e-003
3.874453e+003;-6.073969e-003
3.876381e+003;-5.529969e-003
3.878310e+003;-6.245376e-003
3.880239e+003;-6.767735e-003
3.882167e+003;-6.576138e-003
3.884096e+003;-7.602211e-003
3.886024e+003;-7.450231e-003
3.887953e+003;-5.963322e-003
3.889881e+003;-6.238190e-003
3.891810e+003;-6.148492e-003
3.893738e+003;-5.265323e-003
3.895667e+003;-5.271085e-003
3.897595e+003;-6.243481e-003
3.899524e+003;-6.996483e-003
3.901453e+003;-7.237135e-003
3.903381e+003;-7.394988e-003
3.905310e+003;-6.674133e-003
3.907238e+003;-6.008682e-003
3.909167e+003;-5.771271e-003
3.911095e+003;-5.585122e-003
3.913024e+003;-5.572038e-003
3.914952e+003;-5.969858e-003
3.916881e+003;-6.055508e-003
3.918810e+003;-5.567524e-003
3.920738e+003;-5.107546e-003
3.922667e+003;-4.959735e-003
3.924595e+003;-5.084066e-003
3.926524e+003;-4.568431e-003
3.928452e+003;-4.739088e-003
3.930381e+003;-5.737364e-003
3.932309e+003;-5.690177e-003
3.934238e+003;-4.740301e-003
3.936167e+003;-4.351554e-003
3.938095e+003;-4.540758e-003
3.940023e+003;-4.977621e-003
3.941952e+003;-5.087013e-003
3.943881e+003;-4.943258e-003
3.945809e+003;-4.792966e-003
3.947738e+003;-4.908040e-003
3.949666e+003;-5.106564e-003
3.951595e+003;-4.953741e-003
3.953523e+003;-4.599479e-003
3.955452e+003;-4.417157e-003
3.957380e+003;-4.695660e-003
3.959309e+003;-4.642950e-003
3.961238e+003;-4.481306e-003
3.963166e+003;-4.532462e-003
3.965095e+003;-4.578989e-003
3.967023e+003;-4.405480e-003
3.968952e+003;-4.298081e-003
3.970880e+003;-4.284728e-003
3.972809e+003;-4.226259e-003
3.974737e+003;-4.350701e-003
3.976666e+003;-4.223864e-003
3.978594e+003;-4.429423e-003
3.980523e+003;-4.850146e-003
3.982452e+003;-4.152193e-003
3.984380e+003;-3.667255e-003
3.986309e+003;-3.827560e-003
3.988237e+003;-3.962656e-003
3.990166e+003;-4.535118e-003
3.992094e+003;-4.620429e-003
3.994023e+003;-4.406956e-003
3.995951e+003;-4.380814e-003
3.997880e+003;-4.068333e-003
3.999809e+003;-3.672545e-003
4.001737e+003;0.000000e+000
