3.992094e+002;0.000000e+000
4.011380e+002;0.000000e+000
4.030665e+002;0.000000e+000
4.049951e+002;0.000000e+000
4.069236e+002;0.000000e+000
4.088522e+002;0.000000e+000
4.107807e+002;0.000000e+000
4.127093e+002;0.000000e+000
4.146378e+002;0.000000e+000
4.165664e+002;0.000000e+000
4.184949e+002;0.000000e+000
4.204235e+002;0.000000e+000
4.223520e+002;0.000000e+000
4.242806e+002;0.000000e+000
4.262091e+002;0.000000e+000
4.281377e+002;0.000000e+000
4.300662e+002;0.000000e+000
4.319948e+002;0.000000e+000
4.339233e+002;0.000000e+000
4.358519e+002;0.000000e+000
4.377804e+002;0.000000e+000
4.397090e+002;0.000000e+000
4.416375e+002;0.000000e+000
4.435660e+002;0.000000e+000
4.454946e+002;0.000000e+000
4.474232e+002;0.000000e+000
4.493517e+002;0.000000e+000
4.512802e+002;0.000000e+000
4.532088e+002;0.000000e+000
4.551373e+002;0.000000e+000
4.570659e+002;0.000000e+000
4.589944e+002;0.000000e+000
4.609230e+002;0.000000e+000
4.628515e+002;0.000000e+000
4.647801e+002;0.000000e+000
4.667086e+002;0.000000e+000
4.686372e+002;0.000000e+000
4.705657e+002;0.000000e+000
4.724943e+002;0.000000e+000
4.744228e+002;0.000000e+000
4.763513e+002;0.000000e+000
4.782799e+002;0.000000e+000
4.802085e+002;0.000000e+000
4.821370e+002;0.000000e+000
4.840656e+002;0.000000e+000
4.859941e+002;0.000000e+000
4.879226e+002;0.000000e+000
4.898512e+002;0.000000e+000
4.917798e+002;0.000000e+000
4.937083e+002;0.000000e+000
4.956368e+002;0.000000e+000
4.975654e+002;0.000000e+000
4.994939e+002;0.000000e+000
5.014225e+002;0.000000e+000
5.033510e+002;0.000000e+000
5.052796e+002;0.000000e+000
5.072081e+002;0.000000e+000
5.091367e+002;0.000000e+000
5.110652e+002;0.000000e+000
5.129938e+002;0.000000e+000
5.149223e+002;0.000000e+000
5.168509e+002;0.000000e+000
5.187794e+002;0.000000e+000
5.207079e+002;0.000000e+000
5.226365e+002;0.000000e+000
5.245651e+002;0.000000e+000
5.264936e+002;0.000000e+000
5.284222e+002;0.000000e+000
5.303507e+002;0.000000e+000
5.322792e+002;0.000000e+000
5.342078e+002;0.000000e+000
5.361364e+002;0.000000e+000
5.380649e+002;0.000000e+000
5.399935e+002;0.000000e+000
5.419220e+002;0.000000e+000
5.438505e+002;0.000000e+000
5.457791e+002;0.000000e+000
5.477076e+002;0.000000e+000
5.496362e+002;0.000000e+000
5.515648e+002;0.000000e+000
5.534933e+002;0.000000e+000
5.554218e+002;0.000000e+000
5.573504e+002;0.000000e+000
5.592789e+002;0.000000e+000
5.612075e+002;0.000000e+000
5.631360e+002;0.000000e+000
5.650646e+002;0.000000e+000
5.669931e+002;0.000000e+000
5.689217e+002;0.000000e+000
5.708502e+002;0.000000e+000
5.727787e+002;0.000000e+000
5.747073e+002;0.000000e+000
5.766359e+002;0.000000e+000
5.785644e+002;0.000000e+000
5.804930e+002;0.000000e+000
5.824215e+002;0.000000e+000
5.843500e+002;0.000000e+000
5.862786e+002;0.000000e+000
5.882072e+002;0.000000e+000
5.901357e+002;0.000000e+000
5.920643e+002;0.000000e+000
5.939928e+002;0.000000e+000
5.959213e+002;0.000000e+000
5.978499e+002;0.000000e+000
5.997784e+002;8.991229e-002
6.017070e+002;9.051891e-002
6.036355e+002;8.545438e-002
6.055641e+002;8.387981e-002
6.074926e+002;8.242304e-002
6.094211e+002;8.288540e-002
6.113497e+002;8.415675e-002
6.132783e+002;8.344361e-002
6.152068e+002;8.206826e-002
6.171354e+002;8.755905e-002
6.190639e+002;9.215818e-002
6.209924e+002;9.036186e-002
6.229210e+002;8.861368e-002
6.248495e+002;8.561198e-002
6.267781e+002;8.606490e-002
6.287067e+002;8.881934e-002
6.306352e+002;9.295654e-002
6.325637e+002;9.223209e-002
6.344923e+002;8.967157e-002
6.364208e+002;8.519665e-002
6.383494e+002;8.239964e-002
6.402780e+002;8.395349e-002
6.422065e+002;8.526906e-002
6.441350e+002;8.589794e-002
6.460636e+002;8.556795e-002
6.479921e+002;8.590044e-002
6.499207e+002;8.645482e-002
6.518492e+002;8.479779e-002
6.537778e+002;8.565132e-002
6.557063e+002;8.537061e-002
6.576349e+002;8.797085e-002
6.595634e+002;9.049577e-002
6.614919e+002;8.877930e-002
6.634205e+002;8.902806e-002
6.653491e+002;9.105340e-002
6.672776e+002;9.202227e-002
6.692062e+002;9.294061e-002
6.711347e+002;9.316701e-002
6.730632e+002;9.389742e-002
6.749918e+002;9.269066e-002
6.769203e+002;9.217870e-002
6.788489e+002;9.250613e-002
6.807775e+002;8.972645e-002
6.827060e+002;8.806462e-002
6.846345e+002;8.860312e-002
6.865631e+002;8.954410e-002
6.884916e+002;9.044770e-002
6.904202e+002;8.997779e-002
6.923488e+002;8.830108e-002
6.942773e+002;8.758253e-002
6.962058e+002;8.846950e-002
6.981344e+002;8.860072e-002
7.000629e+002;8.816852e-002
7.019915e+002;8.683695e-002
7.039200e+002;8.489173e-002
7.058486e+002;8.477886e-002
7.077771e+002;8.543111e-002
7.097057e+002;8.587044e-002
7.116342e+002;8.472598e-002
7.135627e+002;8.552256e-002
7.154913e+002;8.756687e-002
7.174199e+002;8.712818e-002
7.193484e+002;8.650286e-002
7.212770e+002;8.614037e-002
7.232055e+002;8.657520e-002
7.251340e+002;8.802408e-002
7.270626e+002;8.962058e-002
7.289911e+002;8.937555e-002
7.309197e+002;8.882844e-002
7.328483e+002;8.839058e-002
7.347768e+002;8.737502e-002
7.367053e+002;8.701736e-002
7.386339e+002;8.693514e-002
7.405624e+002;8.736708e-002
7.424910e+002;8.828833e-002
7.444196e+002;8.870752e-002
7.463481e+002;8.906251e-002
7.482766e+002;8.903957e-002
7.502052e+002;8.999568e-002
7.521337e+002;9.079922e-002
7.540623e+002;9.056773e-002
7.559908e+002;9.057993e-002
7.579194e+002;9.040266e-002
7.598479e+002;8.998908e-002
7.617765e+002;9.071731e-002
7.637050e+002;9.133266e-002
7.656335e+002;9.087658e-002
7.675621e+002;9.030507e-002
7.694907e+002;8.951005e-002
7.714192e+002;8.867931e-002
7.733478e+002;8.815781e-002
7.752763e+002;8.758561e-002
7.772048e+002;8.665015e-002
7.791334e+002;8.543490e-002
7.810620e+002;8.435874e-002
7.829905e+002;8.301482e-002
7.849191e+002;8.147300e-002
7.868476e+002;7.998252e-002
7.887761e+002;7.799682e-002
7.907047e+002;7.679939e-002
7.926332e+002;7.619444e-002
7.945618e+002;7.516162e-002
7.964903e+002;7.405644e-002
7.984189e+002;7.318000e-002
8.003474e+002;7.281505e-002
8.022759e+002;7.273779e-002
8.042045e+002;7.336655e-002
8.061331e+002;7.402100e-002
8.080616e+002;7.453629e-002
8.099902e+002;7.601397e-002
8.119187e+002;7.668777e-002
8.138472e+002;7.618168e-002
8.157758e+002;7.615542e-002
8.177043e+002;7.704209e-002
8.196329e+002;7.798576e-002
8.215615e+002;7.896177e-002
8.234900e+002;7.995017e-002
8.254185e+002;8.173122e-002
8.273471e+002;8.324185e-002
8.292756e+002;8.352031e-002
8.312042e+002;8.386791e-002
8.331328e+002;8.439873e-002
8.350613e+002;8.459821e-002
8.369898e+002;8.425651e-002
8.389184e+002;8.342578e-002
8.408469e+002;8.230124e-002
8.427755e+002;8.146197e-002
8.447040e+002;8.048568e-002
8.466326e+002;7.936210e-002
8.485611e+002;7.843016e-002
8.504897e+002;7.782584e-002
8.524182e+002;7.757398e-002
8.543467e+002;7.727325e-002
8.562753e+002;7.717334e-002
8.582039e+002;7.769434e-002
8.601324e+002;7.767013e-002
8.620610e+002;7.735810e-002
8.639895e+002;7.738395e-002
8.659180e+002;7.744493e-002
8.678466e+002;7.741139e-002
8.697751e+002;7.750770e-002
8.717037e+002;7.749218e-002
8.736323e+002;7.738367e-002
8.755608e+002;7.758962e-002
8.774893e+002;7.749440e-002
8.794179e+002;7.720782e-002
8.813464e+002;7.762821e-002
8.832750e+002;7.796974e-002
8.852036e+002;7.775842e-002
8.871321e+002;7.794087e-002
8.890606e+002;7.833674e-002
8.909892e+002;7.862772e-002
8.929177e+002;7.873689e-002
8.948463e+002;7.891524e-002
8.967748e+002;7.882079e-002
8.987034e+002;7.845382e-002
9.006319e+002;7.855692e-002
9.025605e+002;7.901399e-002
9.044890e+002;7.963598e-002
9.064175e+002;8.016504e-002
9.083461e+002;8.027895e-002
9.102747e+002;8.041123e-002
9.122032e+002;8.054478e-002
9.141318e+002;8.100276e-002
9.160603e+002;8.160561e-002
9.179888e+002;8.169825e-002
9.199174e+002;8.185577e-002
9.218459e+002;8.227581e-002
9.237745e+002;8.257537e-002
9.257031e+002;8.320260e-002
9.276316e+002;8.340222e-002
9.295601e+002;8.356192e-002
9.314887e+002;8.409570e-002
9.334172e+002;8.466569e-002
9.353458e+002;8.509172e-002
9.372744e+002;8.532745e-002
9.392029e+002;8.575049e-002
9.411314e+002;8.607630e-002
9.430600e+002;8.649024e-002
9.449885e+002;8.705833e-002
9.469171e+002;8.763174e-002
9.488456e+002;8.811251e-002
9.507742e+002;8.843701e-002
9.527027e+002;8.886585e-002
9.546313e+002;8.949520e-002
9.565598e+002;8.981209e-002
9.584883e+002;9.006629e-002
9.604169e+002;9.049500e-002
9.623455e+002;9.066802e-002
9.642740e+002;9.118258e-002
9.662026e+002;9.184948e-002
9.681311e+002;9.211021e-002
9.700596e+002;9.232076e-002
9.719882e+002;9.290133e-002
9.739167e+002;9.391379e-002
9.758453e+002;9.474979e-002
9.777739e+002;9.511533e-002
9.797024e+002;9.503446e-002
9.816309e+002;9.546946e-002
9.835595e+002;9.672032e-002
9.854880e+002;9.790085e-002
9.874166e+002;9.838612e-002
9.893452e+002;9.885307e-002
9.912737e+002;9.923207e-002
9.932022e+002;9.970815e-002
9.951307e+002;1.006493e-001
9.970593e+002;1.015108e-001
9.989879e+002;1.023367e-001
1.000916e+003;1.032782e-001
1.002845e+003;1.040988e-001
1.004773e+003;1.043960e-001
1.006702e+003;1.045464e-001
1.008631e+003;1.051401e-001
1.010559e+003;1.059268e-001
1.012488e+003;1.063984e-001
1.014416e+003;1.069457e-001
1.016345e+003;1.073532e-001
1.018273e+003;1.074733e-001
1.020202e+003;1.069010e-001
1.022130e+003;1.062237e-001
1.024059e+003;1.057261e-001
1.025988e+003;1.049899e-001
1.027916e+003;1.047870e-001
1.029845e+003;1.051877e-001
1.031773e+003;1.060899e-001
1.033702e+003;1.063754e-001
1.035630e+003;1.064400e-001
1.037559e+003;1.069402e-001
1.039487e+003;1.064108e-001
1.041416e+003;1.059725e-001
1.043344e+003;1.059231e-001
1.045273e+003;1.055922e-001
1.047202e+003;1.050857e-001
1.049130e+003;1.047430e-001
1.051059e+003;1.039345e-001
1.052987e+003;1.031035e-001
1.054916e+003;1.024623e-001
1.056844e+003;1.021515e-001
1.058773e+003;1.027991e-001
1.060701e+003;1.036873e-001
1.062630e+003;1.044832e-001
1.064558e+003;1.052659e-001
1.066487e+003;1.053227e-001
1.068416e+003;1.054174e-001
1.070344e+003;1.057096e-001
1.072273e+003;1.050060e-001
1.074201e+003;1.029499e-001
1.076130e+003;1.014575e-001
1.078058e+003;1.000280e-001
1.079987e+003;9.842020e-002
1.081915e+003;9.740379e-002
1.083844e+003;9.593762e-002
1.085773e+003;9.452669e-002
1.087701e+003;9.338864e-002
1.089630e+003;9.211557e-002
1.091558e+003;9.041592e-002
1.093487e+003;8.935121e-002
1.095415e+003;8.935198e-002
1.097344e+003;8.916218e-002
1.099272e+003;8.858869e-002
1.101201e+003;8.848380e-002
1.103129e+003;8.869366e-002
1.105058e+003;8.866042e-002
1.106987e+003;8.874474e-002
1.108915e+003;8.875674e-002
1.110844e+003;8.888606e-002
1.112772e+003;8.879963e-002
1.114701e+003;8.822852e-002
1.116629e+003;8.757499e-002
1.118558e+003;8.712231e-002
1.120486e+003;8.691348e-002
1.122415e+003;8.657730e-002
1.124344e+003;8.605488e-002
1.126272e+003;8.512376e-002
1.128201e+003;8.424202e-002
1.130129e+003;8.405396e-002
1.132058e+003;8.412096e-002
1.133986e+003;8.395269e-002
1.135915e+003;8.392720e-002
1.137843e+003;8.420300e-002
1.139772e+003;8.518153e-002
1.141700e+003;8.625941e-002
1.143629e+003;8.801179e-002
1.145557e+003;9.006919e-002
1.147486e+003;9.192342e-002
1.149415e+003;9.358925e-002
1.151343e+003;9.573931e-002
1.153272e+003;9.824862e-002
1.155200e+003;1.003244e-001
1.157129e+003;1.026370e-001
1.159057e+003;1.054484e-001
1.160986e+003;1.085413e-001
1.162914e+003;1.105669e-001
1.164843e+003;1.120501e-001
1.166771e+003;1.129169e-001
1.168700e+003;1.123818e-001
1.170629e+003;1.114717e-001
1.172557e+003;1.106179e-001
1.174486e+003;1.090225e-001
1.176414e+003;1.077141e-001
1.178343e+003;1.064500e-001
1.180271e+003;1.052845e-001
1.182200e+003;1.040685e-001
1.184128e+003;1.026822e-001
1.186057e+003;1.022609e-001
1.187986e+003;1.023766e-001
1.189914e+003;1.026395e-001
1.191843e+003;1.033914e-001
1.193771e+003;1.039917e-001
1.195700e+003;1.045023e-001
1.197628e+003;1.051463e-001
1.199557e+003;1.054795e-001
1.201485e+003;1.054018e-001
1.203414e+003;1.051211e-001
1.205343e+003;1.048775e-001
1.207271e+003;1.045078e-001
1.209200e+003;1.040689e-001
1.211128e+003;1.042974e-001
1.213057e+003;1.046173e-001
1.214985e+003;1.046608e-001
1.216914e+003;1.051897e-001
1.218842e+003;1.057491e-001
1.220771e+003;1.061542e-001
1.222699e+003;1.065286e-001
1.224628e+003;1.067372e-001
1.226557e+003;1.069265e-001
1.228485e+003;1.069684e-001
1.230414e+003;1.069303e-001
1.232342e+003;1.065068e-001
1.234271e+003;1.059969e-001
1.236199e+003;1.060006e-001
1.238128e+003;1.060497e-001
1.240056e+003;1.059210e-001
1.241985e+003;1.059250e-001
1.243913e+003;1.057513e-001
1.245842e+003;1.055252e-001
1.247771e+003;1.051481e-001
1.249699e+003;1.045270e-001
1.251628e+003;1.038500e-001
1.253556e+003;1.023317e-001
1.255485e+003;9.978260e-002
1.257413e+003;9.763866e-002
1.259342e+003;9.602875e-002
1.261270e+003;9.511200e-002
1.263199e+003;9.509966e-002
1.265127e+003;9.571002e-002
1.267056e+003;9.668045e-002
1.268985e+003;9.784208e-002
1.270913e+003;9.888440e-002
1.272842e+003;9.912557e-002
1.274770e+003;9.833940e-002
1.276699e+003;9.749174e-002
1.278627e+003;9.656961e-002
1.280556e+003;9.570164e-002
1.282484e+003;9.488553e-002
1.284413e+003;9.404844e-002
1.286342e+003;9.368786e-002
1.288270e+003;9.330019e-002
1.290199e+003;9.254249e-002
1.292127e+003;9.203468e-002
1.294056e+003;9.141939e-002
1.295984e+003;9.096441e-002
1.297913e+003;9.100285e-002
1.299841e+003;9.083018e-002
1.301770e+003;9.042391e-002
1.303698e+003;9.014531e-002
1.305627e+003;9.014849e-002
1.307556e+003;9.019405e-002
1.309484e+003;9.001521e-002
1.311413e+003;8.987264e-002
1.313341e+003;8.979937e-002
1.315270e+003;8.982900e-002
1.317198e+003;8.951771e-002
1.319127e+003;8.907598e-002
1.321055e+003;8.910860e-002
1.322984e+003;8.924026e-002
1.324912e+003;8.930583e-002
1.326841e+003;8.944374e-002
1.328770e+003;8.930448e-002
1.330698e+003;8.896112e-002
1.332627e+003;8.893449e-002
1.334555e+003;8.927103e-002
1.336484e+003;8.939163e-002
1.338412e+003;8.963206e-002
1.340341e+003;9.021305e-002
1.342269e+003;9.077807e-002
1.344198e+003;9.131205e-002
1.346126e+003;9.190098e-002
1.348055e+003;9.225479e-002
1.349984e+003;9.270895e-002
1.351912e+003;9.330443e-002
1.353841e+003;9.375130e-002
1.355769e+003;9.383959e-002
1.357698e+003;9.384338e-002
1.359626e+003;9.374502e-002
1.361555e+003;9.330812e-002
1.363483e+003;9.325691e-002
1.365412e+003;9.350590e-002
1.367341e+003;9.306843e-002
1.369269e+003;9.233879e-002
1.371198e+003;9.167372e-002
1.373126e+003;9.096359e-002
1.375055e+003;9.083961e-002
1.376983e+003;9.085828e-002
1.378912e+003;9.045390e-002
1.380840e+003;8.982439e-002
1.382769e+003;8.923827e-002
1.384698e+003;8.842437e-002
1.386626e+003;8.709323e-002
1.388555e+003;8.638540e-002
1.390483e+003;8.595968e-002
1.392412e+003;8.485467e-002
1.394340e+003;8.320797e-002
1.396269e+003;8.239135e-002
1.398197e+003;8.200118e-002
1.400126e+003;8.210544e-002
1.402054e+003;8.247083e-002
1.403983e+003;8.249831e-002
1.405911e+003;8.278403e-002
1.407840e+003;8.317507e-002
1.409769e+003;8.354541e-002
1.411697e+003;8.419468e-002
1.413626e+003;8.502276e-002
1.415554e+003;8.550319e-002
1.417483e+003;8.535403e-002
1.419411e+003;8.536427e-002
1.421340e+003;8.717705e-002
1.423268e+003;8.878422e-002
1.425197e+003;9.063010e-002
1.427125e+003;9.335984e-002
1.429054e+003;9.629263e-002
1.430983e+003;9.979657e-002
1.432911e+003;1.037911e-001
1.434840e+003;1.064101e-001
1.436768e+003;1.083959e-001
1.438697e+003;1.120341e-001
1.440625e+003;1.157298e-001
1.442554e+003;1.193093e-001
1.444482e+003;1.228072e-001
1.446411e+003;1.259535e-001
1.448340e+003;1.285002e-001
1.450268e+003;1.303227e-001
1.452197e+003;1.306633e-001
1.454125e+003;1.280176e-001
1.456054e+003;1.216789e-001
1.457982e+003;1.154804e-001
1.459911e+003;1.107387e-001
1.461839e+003;1.052103e-001
1.463768e+003;9.905577e-002
1.465697e+003;9.459858e-002
1.467625e+003;9.210771e-002
1.469554e+003;8.940123e-002
1.471482e+003;8.616465e-002
1.473411e+003;8.405416e-002
1.475339e+003;8.303569e-002
1.477268e+003;8.194992e-002
1.479196e+003;8.040468e-002
1.481125e+003;7.883080e-002
1.483053e+003;7.789818e-002
1.484982e+003;7.675569e-002
1.486911e+003;7.536562e-002
1.488839e+003;7.419348e-002
1.490768e+003;7.406960e-002
1.492696e+003;7.478277e-002
1.494625e+003;7.402791e-002
1.496553e+003;7.321995e-002
1.498482e+003;7.423220e-002
1.500410e+003;7.531478e-002
1.502339e+003;7.555290e-002
1.504267e+003;7.403836e-002
1.506196e+003;7.240912e-002
1.508125e+003;7.420315e-002
1.510053e+003;7.689975e-002
1.511982e+003;7.845183e-002
1.513910e+003;7.946844e-002
1.515839e+003;7.976142e-002
1.517767e+003;7.979956e-002
1.519696e+003;7.890987e-002
1.521624e+003;7.863642e-002
1.523553e+003;8.038499e-002
1.525481e+003;8.156850e-002
1.527410e+003;8.296240e-002
1.529339e+003;8.466453e-002
1.531267e+003;8.600229e-002
1.533196e+003;8.734463e-002
1.535124e+003;9.003796e-002
1.537053e+003;9.150247e-002
1.538981e+003;9.081817e-002
1.540910e+003;9.134746e-002
1.542838e+003;9.216379e-002
1.544767e+003;9.182844e-002
1.546695e+003;9.137057e-002
1.548624e+003;9.025057e-002
1.550553e+003;8.929610e-002
1.552481e+003;8.853677e-002
1.554410e+003;8.698849e-002
1.556338e+003;8.479227e-002
1.558267e+003;8.135770e-002
1.560195e+003;8.128598e-002
1.562124e+003;8.365302e-002
1.564052e+003;8.405714e-002
1.565981e+003;8.407732e-002
1.567910e+003;8.383584e-002
1.569838e+003;8.373731e-002
1.571767e+003;8.521612e-002
1.573695e+003;8.573782e-002
1.575624e+003;8.481245e-002
1.577552e+003;8.569115e-002
1.579481e+003;8.632206e-002
1.581409e+003;8.501410e-002
1.583338e+003;8.293465e-002
1.585266e+003;8.108597e-002
1.587195e+003;7.992831e-002
1.589124e+003;7.931334e-002
1.591052e+003;7.908618e-002
1.592981e+003;7.894854e-002
1.594909e+003;7.918748e-002
1.596838e+003;7.968745e-002
1.598766e+003;8.008343e-002
1.600695e+003;8.011937e-002
1.602623e+003;8.039324e-002
1.604552e+003;8.075587e-002
1.606480e+003;8.091895e-002
1.608409e+003;8.107731e-002
1.610338e+003;8.118395e-002
1.612266e+003;8.151054e-002
1.614195e+003;8.121298e-002
1.616123e+003;8.008813e-002
1.618052e+003;8.099181e-002
1.619980e+003;8.258847e-002
1.621909e+003;8.287197e-002
1.623837e+003;8.329844e-002
1.625766e+003;8.438545e-002
1.627694e+003;8.517383e-002
1.629623e+003;8.615520e-002
1.631552e+003;8.678135e-002
1.633480e+003;8.627631e-002
1.635409e+003;8.614728e-002
1.637337e+003;8.824115e-002
1.639266e+003;9.009243e-002
1.641194e+003;9.086531e-002
1.643123e+003;9.135196e-002
1.645051e+003;9.128004e-002
1.646980e+003;9.163174e-002
1.648909e+003;9.293486e-002
1.650837e+003;9.170671e-002
1.652766e+003;8.936724e-002
1.654694e+003;9.197432e-002
1.656623e+003;9.462827e-002
1.658551e+003;9.468180e-002
1.660480e+003;9.395681e-002
1.662408e+003;9.324019e-002
1.664337e+003;9.333478e-002
1.666266e+003;9.316204e-002
1.668194e+003;9.169886e-002
1.670123e+003;9.076536e-002
1.672051e+003;9.070542e-002
1.673980e+003;8.949829e-002
1.675908e+003;8.830843e-002
1.677837e+003;8.807144e-002
1.679765e+003;8.715089e-002
1.681694e+003;8.497485e-002
1.683622e+003;8.163732e-002
1.685551e+003;8.136993e-002
1.687479e+003;8.277076e-002
1.689408e+003;8.230600e-002
1.691337e+003;8.147892e-002
1.693265e+003;8.000518e-002
1.695194e+003;7.772136e-002
1.697122e+003;7.747673e-002
1.699051e+003;7.644996e-002
1.700979e+003;7.599380e-002
1.702908e+003;7.797057e-002
1.704836e+003;7.893518e-002
1.706765e+003;8.032451e-002
1.708693e+003;8.234609e-002
1.710622e+003;8.458300e-002
1.712551e+003;8.657844e-002
1.714479e+003;8.861779e-002
1.716408e+003;9.096783e-002
1.718336e+003;9.555950e-002
1.720265e+003;1.019836e-001
1.722193e+003;1.070962e-001
1.724122e+003;1.112893e-001
1.726050e+003;1.149593e-001
1.727979e+003;1.169739e-001
1.729908e+003;1.176060e-001
1.731836e+003;1.161336e-001
1.733765e+003;1.127027e-001
1.735693e+003;1.106799e-001
1.737622e+003;1.074226e-001
1.739550e+003;1.016099e-001
1.741479e+003;9.586758e-002
1.743407e+003;9.002744e-002
1.745336e+003;8.445463e-002
1.747265e+003;7.916394e-002
1.749193e+003;7.429388e-002
1.751122e+003;7.037144e-002
1.753050e+003;6.783044e-002
1.754979e+003;6.548020e-002
1.756907e+003;6.331977e-002
1.758836e+003;6.207269e-002
1.760764e+003;6.067777e-002
1.762693e+003;5.948638e-002
1.764621e+003;5.897082e-002
1.766550e+003;5.818152e-002
1.768479e+003;5.752192e-002
1.770407e+003;5.638525e-002
1.772336e+003;5.532850e-002
1.774264e+003;5.579801e-002
1.776193e+003;5.606480e-002
1.778121e+003;5.580030e-002
1.780050e+003;5.544451e-002
1.781978e+003;5.519639e-002
1.783907e+003;5.487951e-002
1.785835e+003;5.473682e-002
1.787764e+003;5.477655e-002
1.789693e+003;5.416268e-002
1.791621e+003;5.306444e-002
1.793550e+003;5.294937e-002
1.795478e+003;5.353547e-002
1.797407e+003;5.337935e-002
1.799335e+003;5.294607e-002
1.801264e+003;5.289524e-002
1.803192e+003;5.315221e-002
1.805121e+003;5.304924e-002
1.807049e+003;5.276876e-002
1.808978e+003;5.254695e-002
1.810907e+003;5.233373e-002
1.812835e+003;5.228840e-002
1.814764e+003;5.238210e-002
1.816692e+003;5.207942e-002
1.818621e+003;5.184538e-002
1.820549e+003;5.193738e-002
1.822478e+003;5.200983e-002
1.824406e+003;5.160456e-002
1.826335e+003;5.138848e-002
1.828264e+003;5.101889e-002
1.830192e+003;5.077409e-002
1.832121e+003;5.122590e-002
1.834049e+003;5.139184e-002
1.835978e+003;5.124388e-002
1.837906e+003;5.120838e-002
1.839835e+003;5.123791e-002
1.841763e+003;5.093945e-002
1.843692e+003;5.021937e-002
1.845620e+003;5.042668e-002
1.847549e+003;5.062626e-002
1.849478e+003;5.038697e-002
1.851406e+003;5.033552e-002
1.853335e+003;5.054154e-002
1.855263e+003;5.070464e-002
1.857192e+003;5.042407e-002
1.859120e+003;5.009200e-002
1.861049e+003;5.024560e-002
1.862977e+003;5.033629e-002
1.864906e+003;5.004232e-002
1.866834e+003;4.960036e-002
1.868763e+003;4.929749e-002
1.870692e+003;4.965894e-002
1.872620e+003;5.011803e-002
1.874549e+003;5.006076e-002
1.876477e+003;4.987619e-002
1.878406e+003;4.982803e-002
1.880334e+003;4.988716e-002
1.882263e+003;4.965659e-002
1.884191e+003;4.966562e-002
1.886120e+003;4.978418e-002
1.888048e+003;4.965704e-002
1.889977e+003;4.968152e-002
1.891906e+003;4.975215e-002
1.893834e+003;4.948359e-002
1.895763e+003;4.945779e-002
1.897691e+003;4.981495e-002
1.899620e+003;4.982502e-002
1.901548e+003;4.945939e-002
1.903477e+003;4.928676e-002
1.905405e+003;4.933260e-002
1.907334e+003;4.940273e-002
1.909262e+003;4.921654e-002
1.911191e+003;4.905919e-002
1.913120e+003;4.916789e-002
1.915048e+003;4.931018e-002
1.916977e+003;4.883537e-002
1.918905e+003;4.879622e-002
1.920834e+003;4.911009e-002
1.922762e+003;4.915101e-002
1.924691e+003;4.918500e-002
1.926619e+003;4.933435e-002
1.928548e+003;4.953469e-002
1.930477e+003;4.947316e-002
1.932405e+003;4.931426e-002
1.934334e+003;4.906902e-002
1.936262e+003;4.890119e-002
1.938191e+003;4.881613e-002
1.940119e+003;4.866229e-002
1.942048e+003;4.860106e-002
1.943976e+003;4.867096e-002
1.945905e+003;4.882955e-002
1.947833e+003;4.893315e-002
1.949762e+003;4.891698e-002
1.951691e+003;4.878369e-002
1.953619e+003;4.881653e-002
1.955548e+003;4.890412e-002
1.957476e+003;4.899031e-002
1.959405e+003;4.898482e-002
1.961333e+003;4.890575e-002
1.963262e+003;4.882213e-002
1.965190e+003;4.878917e-002
1.967119e+003;4.878584e-002
1.969047e+003;4.894276e-002
1.970976e+003;4.898237e-002
1.972905e+003;4.889106e-002
1.974833e+003;4.883963e-002
1.976762e+003;4.887916e-002
1.978690e+003;4.910668e-002
1.980619e+003;4.950989e-002
1.982547e+003;4.986824e-002
1.984476e+003;4.984278e-002
1.986404e+003;4.959928e-002
1.988333e+003;4.954101e-002
1.990261e+003;4.947973e-002
1.992190e+003;4.922775e-002
1.994119e+003;4.915487e-002
1.996047e+003;4.934767e-002
1.997976e+003;4.927559e-002
1.999904e+003;4.923747e-002
2.001833e+003;4.944160e-002
2.003761e+003;4.976512e-002
2.005690e+003;4.992165e-002
2.007618e+003;4.967918e-002
2.009547e+003;4.964868e-002
2.011476e+003;4.977656e-002
2.013404e+003;4.990180e-002
2.015333e+003;4.984022e-002
2.017261e+003;4.963680e-002
2.019190e+003;4.979432e-002
2.021118e+003;5.002652e-002
2.023047e+003;4.998343e-002
2.024975e+003;5.005920e-002
2.026904e+003;5.012007e-002
2.028833e+003;5.003332e-002
2.030761e+003;4.990091e-002
2.032690e+003;4.981573e-002
2.034618e+003;4.973963e-002
2.036547e+003;4.958509e-002
2.038475e+003;4.971778e-002
2.040404e+003;4.983906e-002
2.042332e+003;4.980376e-002
2.044261e+003;4.978600e-002
2.046189e+003;4.976460e-002
2.048118e+003;4.955590e-002
2.050047e+003;4.952329e-002
2.051975e+003;4.961076e-002
2.053904e+003;4.948708e-002
2.055832e+003;4.946685e-002
2.057761e+003;4.940514e-002
2.059689e+003;4.947918e-002
2.061618e+003;4.951891e-002
2.063546e+003;4.926538e-002
2.065475e+003;4.915309e-002
2.067404e+003;4.919502e-002
2.069332e+003;4.925688e-002
2.071260e+003;4.936423e-002
2.073189e+003;4.969816e-002
2.075118e+003;4.976010e-002
2.077046e+003;4.964129e-002
2.078975e+003;4.948642e-002
2.080903e+003;4.908349e-002
2.082832e+003;4.880860e-002
2.084760e+003;4.910704e-002
2.086689e+003;4.940704e-002
2.088617e+003;4.935562e-002
2.090546e+003;4.923855e-002
2.092475e+003;4.937911e-002
2.094403e+003;4.942200e-002
2.096332e+003;4.924285e-002
2.098260e+003;4.914511e-002
2.100189e+003;4.925098e-002
2.102117e+003;4.930373e-002
2.104046e+003;4.929582e-002
2.105974e+003;4.926553e-002
2.107903e+003;4.916073e-002
2.109832e+003;4.904947e-002
2.111760e+003;4.875318e-002
2.113688e+003;4.852925e-002
2.115617e+003;4.845601e-002
2.117546e+003;4.852470e-002
2.119474e+003;4.846586e-002
2.121403e+003;4.829149e-002
2.123331e+003;4.844671e-002
2.125260e+003;4.859551e-002
2.127188e+003;4.841300e-002
2.129117e+003;4.846320e-002
2.131045e+003;4.863216e-002
2.132974e+003;4.852451e-002
2.134903e+003;4.831845e-002
2.136831e+003;4.825005e-002
2.138760e+003;4.851240e-002
2.140688e+003;4.846801e-002
2.142617e+003;4.837374e-002
2.144545e+003;4.854811e-002
2.146474e+003;4.852325e-002
2.148402e+003;4.853633e-002
2.150331e+003;4.875225e-002
2.152260e+003;4.878039e-002
2.154188e+003;4.845357e-002
2.156117e+003;4.832385e-002
2.158045e+003;4.866607e-002
2.159974e+003;4.861207e-002
2.161902e+003;4.845153e-002
2.163831e+003;4.887030e-002
2.165759e+003;4.906798e-002
2.167688e+003;4.892759e-002
2.169616e+003;4.896657e-002
2.171545e+003;4.872122e-002
2.173474e+003;4.857109e-002
2.175402e+003;4.867296e-002
2.177331e+003;4.902514e-002
2.179259e+003;4.934749e-002
2.181188e+003;4.961518e-002
2.183116e+003;5.005589e-002
2.185045e+003;5.075190e-002
2.186973e+003;5.127236e-002
2.188902e+003;5.166695e-002
2.190831e+003;5.211906e-002
2.192759e+003;5.203325e-002
2.194688e+003;5.185688e-002
2.196616e+003;5.179113e-002
2.198545e+003;5.137778e-002
2.200473e+003;5.104512e-002
2.202402e+003;5.112827e-002
2.204330e+003;5.115593e-002
2.206259e+003;5.138479e-002
2.208188e+003;5.138479e-002
2.210116e+003;5.134720e-002
2.212044e+003;5.158299e-002
2.213973e+003;5.197118e-002
2.215902e+003;5.230713e-002
2.217830e+003;5.268272e-002
2.219759e+003;5.334185e-002
2.221687e+003;5.387548e-002
2.223616e+003;5.462261e-002
2.225544e+003;5.586081e-002
2.227473e+003;5.766399e-002
2.229401e+003;6.070040e-002
2.231330e+003;6.498119e-002
2.233259e+003;7.033919e-002
2.235187e+003;7.689884e-002
2.237116e+003;8.391108e-002
2.239044e+003;8.942199e-002
2.240973e+003;9.205811e-002
2.242901e+003;9.178394e-002
2.244830e+003;8.872979e-002
2.246758e+003;8.385807e-002
2.248687e+003;7.855990e-002
2.250615e+003;7.350482e-002
2.252544e+003;6.900640e-002
2.254473e+003;6.528107e-002
2.256401e+003;6.217709e-002
2.258330e+003;5.948034e-002
2.260258e+003;5.757432e-002
2.262187e+003;5.619439e-002
2.264115e+003;5.491760e-002
2.266044e+003;5.404352e-002
2.267972e+003;5.356711e-002
2.269901e+003;5.323910e-002
2.271830e+003;5.273678e-002
2.273758e+003;5.228530e-002
2.275687e+003;5.196812e-002
2.277615e+003;5.150550e-002
2.279544e+003;5.126867e-002
2.281472e+003;5.135030e-002
2.283401e+003;5.112764e-002
2.285329e+003;5.086084e-002
2.287258e+003;5.097108e-002
2.289187e+003;5.111210e-002
2.291115e+003;5.107196e-002
2.293043e+003;5.075145e-002
2.294972e+003;5.049021e-002
2.296901e+003;5.072255e-002
2.298829e+003;5.103171e-002
2.300758e+003;5.084449e-002
2.302686e+003;5.025244e-002
2.304615e+003;5.000087e-002
2.306543e+003;5.006623e-002
2.308472e+003;4.989935e-002
2.310400e+003;4.969411e-002
2.312329e+003;4.972900e-002
2.314258e+003;4.988233e-002
2.316186e+003;5.010776e-002
2.318115e+003;5.011018e-002
2.320043e+003;5.000417e-002
2.321972e+003;4.986813e-002
2.323900e+003;4.958921e-002
2.325829e+003;4.959883e-002
2.327757e+003;4.964044e-002
2.329686e+003;4.945326e-002
2.331615e+003;4.929392e-002
2.333543e+003;4.926334e-002
2.335472e+003;4.926857e-002
2.337400e+003;4.917535e-002
2.339329e+003;4.924442e-002
2.341257e+003;4.928346e-002
2.343186e+003;4.941535e-002
2.345114e+003;4.951442e-002
2.347043e+003;4.981717e-002
2.348971e+003;5.025103e-002
2.350900e+003;5.023250e-002
2.352829e+003;4.976578e-002
2.354757e+003;4.917298e-002
2.356686e+003;4.903511e-002
2.358614e+003;4.908397e-002
2.360543e+003;4.899876e-002
2.362471e+003;4.875870e-002
2.364400e+003;4.868345e-002
2.366328e+003;4.914021e-002
2.368257e+003;4.955750e-002
2.370186e+003;4.971971e-002
2.372114e+003;4.990080e-002
2.374042e+003;5.018263e-002
2.375971e+003;5.043472e-002
2.377900e+003;5.067798e-002
2.379828e+003;5.080575e-002
2.381757e+003;5.094086e-002
2.383685e+003;5.107047e-002
2.385614e+003;5.103432e-002
2.387542e+003;5.091203e-002
2.389471e+003;5.090282e-002
2.391399e+003;5.088018e-002
2.393328e+003;5.089273e-002
2.395257e+003;5.093863e-002
2.397185e+003;5.076456e-002
2.399114e+003;5.059592e-002
2.401042e+003;5.078381e-002
2.402971e+003;5.084576e-002
2.404899e+003;5.086114e-002
2.406828e+003;5.095368e-002
2.408756e+003;5.105828e-002
2.410685e+003;5.119589e-002
2.412614e+003;5.115373e-002
2.414542e+003;5.110840e-002
2.416471e+003;5.112868e-002
2.418399e+003;5.119858e-002
2.420328e+003;5.115403e-002
2.422256e+003;5.112481e-002
2.424185e+003;5.147498e-002
2.426113e+003;5.170450e-002
2.428042e+003;5.151135e-002
2.429970e+003;5.138315e-002
2.431899e+003;5.122698e-002
2.433828e+003;5.124309e-002
2.435756e+003;5.146226e-002
2.437685e+003;5.153568e-002
2.439613e+003;5.154728e-002
2.441542e+003;5.158526e-002
2.443470e+003;5.166695e-002
2.445399e+003;5.165590e-002
2.447327e+003;5.157791e-002
2.449256e+003;5.164180e-002
2.451185e+003;5.209604e-002
2.453113e+003;5.231370e-002
2.455042e+003;5.221045e-002
2.456970e+003;5.186408e-002
2.458899e+003;5.167419e-002
2.460827e+003;5.192935e-002
2.462756e+003;5.214988e-002
2.464684e+003;5.214285e-002
2.466613e+003;5.212335e-002
2.468542e+003;5.194287e-002
2.470470e+003;5.221594e-002
2.472398e+003;5.248211e-002
2.474327e+003;5.234151e-002
2.476256e+003;5.247826e-002
2.478184e+003;5.266951e-002
2.480113e+003;5.265496e-002
2.482041e+003;5.256864e-002
2.483970e+003;5.238020e-002
2.485898e+003;5.257205e-002
2.487827e+003;5.286527e-002
2.489755e+003;5.285236e-002
2.491684e+003;5.292537e-002
2.493613e+003;5.329686e-002
2.495541e+003;5.363379e-002
2.497470e+003;5.367781e-002
2.499398e+003;5.359440e-002
2.501327e+003;5.356444e-002
2.503255e+003;5.334211e-002
2.505184e+003;5.343406e-002
2.507112e+003;5.365824e-002
2.509041e+003;5.375618e-002
2.510969e+003;5.381198e-002
2.512898e+003;5.379795e-002
2.514827e+003;5.379597e-002
2.516755e+003;5.360512e-002
2.518684e+003;5.349301e-002
2.520612e+003;5.358900e-002
2.522541e+003;5.389176e-002
2.524469e+003;5.388208e-002
2.526398e+003;5.360309e-002
2.528326e+003;5.360714e-002
2.530255e+003;5.366540e-002
2.532184e+003;5.369221e-002
2.534112e+003;5.371512e-002
2.536041e+003;5.364407e-002
2.537969e+003;5.359331e-002
2.539898e+003;5.360688e-002
2.541826e+003;5.371399e-002
2.543755e+003;5.366427e-002
2.545683e+003;5.358495e-002
2.547612e+003;5.383546e-002
2.549541e+003;5.417060e-002
2.551469e+003;5.410330e-002
2.553397e+003;5.375382e-002
2.555326e+003;5.355564e-002
2.557255e+003;5.342132e-002
2.559183e+003;5.338284e-002
2.561112e+003;5.340284e-002
2.563040e+003;5.335657e-002
2.564969e+003;5.319618e-002
2.566897e+003;5.309376e-002
2.568826e+003;5.298069e-002
2.570754e+003;5.293207e-002
2.572683e+003;5.294693e-002
2.574612e+003;5.302648e-002
2.576540e+003;5.308863e-002
2.578469e+003;5.282874e-002
2.580397e+003;5.256958e-002
2.582326e+003;5.265407e-002
2.584254e+003;5.271583e-002
2.586183e+003;5.292777e-002
2.588111e+003;5.299698e-002
2.590040e+003;5.274224e-002
2.591969e+003;5.260354e-002
2.593897e+003;5.287088e-002
2.595826e+003;5.313517e-002
2.597754e+003;5.320981e-002
2.599683e+003;5.297003e-002
2.601611e+003;5.272578e-002
2.603540e+003;5.271773e-002
2.605468e+003;5.274377e-002
2.607397e+003;5.279697e-002
2.609325e+003;5.303030e-002
2.611254e+003;5.332154e-002
2.613183e+003;5.347637e-002
2.615111e+003;5.356864e-002
2.617040e+003;5.354754e-002
2.618968e+003;5.363968e-002
2.620897e+003;5.352040e-002
2.622825e+003;5.325217e-002
2.624754e+003;5.310578e-002
2.626682e+003;5.315386e-002
2.628611e+003;5.351182e-002
2.630540e+003;5.405275e-002
2.632468e+003;5.449781e-002
2.634396e+003;5.436207e-002
2.636325e+003;5.417863e-002
2.638254e+003;5.400487e-002
2.640182e+003;5.365389e-002
2.642111e+003;5.357494e-002
2.644039e+003;5.360193e-002
2.645968e+003;5.363267e-002
2.647896e+003;5.362802e-002
2.649825e+003;5.359177e-002
2.651753e+003;5.355620e-002
2.653682e+003;5.354154e-002
2.655611e+003;5.357213e-002
2.657539e+003;5.368201e-002
2.659468e+003;5.373098e-002
2.661396e+003;5.346700e-002
2.663325e+003;5.334811e-002
2.665253e+003;5.345238e-002
2.667182e+003;5.351403e-002
2.669110e+003;5.366994e-002
2.671039e+003;5.352456e-002
2.672968e+003;5.355361e-002
2.674896e+003;5.374556e-002
2.676825e+003;5.376540e-002
2.678753e+003;5.378314e-002
2.680682e+003;5.361528e-002
2.682610e+003;5.339618e-002
2.684539e+003;5.372562e-002
2.686467e+003;5.405163e-002
2.688396e+003;5.401511e-002
2.690324e+003;5.400408e-002
2.692253e+003;5.380744e-002
2.694182e+003;5.360024e-002
2.696110e+003;5.373420e-002
2.698039e+003;5.380879e-002
2.699967e+003;5.362558e-002
2.701896e+003;5.345152e-002
2.703824e+003;5.350875e-002
2.705753e+003;5.367361e-002
2.707681e+003;5.382593e-002
2.709610e+003;5.394983e-002
2.711539e+003;5.374024e-002
2.713467e+003;5.347453e-002
2.715396e+003;5.346550e-002
2.717324e+003;5.349173e-002
2.719253e+003;5.347247e-002
2.721181e+003;5.340169e-002
2.723110e+003;5.361595e-002
2.725038e+003;5.365486e-002
2.726967e+003;5.366135e-002
2.728896e+003;5.362828e-002
2.730824e+003;5.350534e-002
2.732752e+003;5.379690e-002
2.734681e+003;5.418644e-002
2.736610e+003;5.397129e-002
2.738538e+003;5.350860e-002
2.740467e+003;5.371868e-002
2.742395e+003;5.398495e-002
2.744324e+003;5.374129e-002
2.746252e+003;5.379904e-002
2.748181e+003;5.385388e-002
2.750109e+003;5.367620e-002
2.752038e+003;5.370818e-002
2.753967e+003;5.378134e-002
2.755895e+003;5.380519e-002
2.757824e+003;5.393126e-002
2.759752e+003;5.398015e-002
2.761681e+003;5.392218e-002
2.763609e+003;5.364871e-002
2.765538e+003;5.374905e-002
2.767466e+003;5.427286e-002
2.769395e+003;5.452846e-002
2.771323e+003;5.437281e-002
2.773252e+003;5.414121e-002
2.775181e+003;5.426107e-002
2.777109e+003;5.443084e-002
2.779038e+003;5.454995e-002
2.780966e+003;5.489470e-002
2.782895e+003;5.531955e-002
2.784823e+003;5.541828e-002
2.786752e+003;5.532978e-002
2.788680e+003;5.522747e-002
2.790609e+003;5.559690e-002
2.792538e+003;5.617641e-002
2.794466e+003;5.642577e-002
2.796395e+003;5.659024e-002
2.798323e+003;5.677531e-002
2.800252e+003;5.692751e-002
2.802180e+003;5.703866e-002
2.804109e+003;5.732478e-002
2.806037e+003;5.737635e-002
2.807966e+003;5.729155e-002
2.809895e+003;5.750664e-002
2.811823e+003;5.783725e-002
2.813751e+003;5.819000e-002
2.815680e+003;5.826460e-002
2.817609e+003;5.840217e-002
2.819537e+003;5.873031e-002
2.821466e+003;5.906268e-002
2.823394e+003;5.929613e-002
2.825323e+003;5.956284e-002
2.827251e+003;6.006639e-002
2.829180e+003;6.074373e-002
2.831108e+003;6.148087e-002
2.833037e+003;6.196670e-002
2.834966e+003;6.252195e-002
2.836894e+003;6.364136e-002
2.838823e+003;6.530964e-002
2.840751e+003;6.725290e-002
2.842680e+003;6.995140e-002
2.844608e+003;7.358229e-002
2.846537e+003;7.800682e-002
2.848465e+003;8.190090e-002
2.850394e+003;8.323213e-002
2.852323e+003;8.187374e-002
2.854251e+003;8.013802e-002
2.856180e+003;7.852520e-002
2.858108e+003;7.667622e-002
2.860037e+003;7.553536e-002
2.861965e+003;7.444684e-002
2.863894e+003;7.360750e-002
2.865822e+003;7.334842e-002
2.867751e+003;7.318643e-002
2.869679e+003;7.310729e-002
2.871608e+003;7.291592e-002
2.873536e+003;7.264723e-002
2.875465e+003;7.261065e-002
2.877394e+003;7.234614e-002
2.879322e+003;7.192957e-002
2.881251e+003;7.160214e-002
2.883179e+003;7.136519e-002
2.885108e+003;7.162586e-002
2.887036e+003;7.239820e-002
2.888965e+003;7.328852e-002
2.890893e+003;7.381433e-002
2.892822e+003;7.453601e-002
2.894750e+003;7.542336e-002
2.896679e+003;7.652784e-002
2.898608e+003;7.789794e-002
2.900536e+003;7.901339e-002
2.902465e+003;7.999801e-002
2.904393e+003;8.174173e-002
2.906322e+003;8.365218e-002
2.908250e+003;8.584924e-002
2.910179e+003;8.901045e-002
2.912107e+003;9.290056e-002
2.914036e+003;9.758137e-002
2.915965e+003;1.015059e-001
2.917893e+003;1.029754e-001
2.919822e+003;1.032116e-001
2.921750e+003;1.025804e-001
2.923679e+003;1.011346e-001
2.925607e+003;9.924127e-002
2.927536e+003;9.725619e-002
2.929464e+003;9.527808e-002
2.931393e+003;9.373317e-002
2.933322e+003;9.210607e-002
2.935250e+003;9.040494e-002
2.937178e+003;8.885105e-002
2.939107e+003;8.733957e-002
2.941036e+003;8.581888e-002
2.942964e+003;8.450615e-002
2.944893e+003;8.310096e-002
2.946821e+003;8.184949e-002
2.948750e+003;8.102112e-002
2.950678e+003;8.016539e-002
2.952607e+003;7.933275e-002
2.954535e+003;7.863193e-002
2.956464e+003;7.737357e-002
2.958393e+003;7.601867e-002
2.960321e+003;7.478588e-002
2.962250e+003;7.337062e-002
2.964178e+003;7.217130e-002
2.966107e+003;7.127819e-002
2.968035e+003;7.027214e-002
2.969964e+003;6.965334e-002
2.971892e+003;6.895836e-002
2.973821e+003;6.814803e-002
2.975750e+003;6.770682e-002
2.977678e+003;6.743935e-002
2.979607e+003;6.704549e-002
2.981535e+003;6.688088e-002
2.983464e+003;6.636617e-002
2.985392e+003;6.570857e-002
2.987321e+003;6.543270e-002
2.989249e+003;6.509958e-002
2.991178e+003;6.480802e-002
2.993106e+003;6.476525e-002
2.995035e+003;6.465195e-002
2.996964e+003;6.430033e-002
2.998892e+003;6.372869e-002
3.000821e+003;6.362686e-002
3.002749e+003;6.363242e-002
3.004678e+003;6.353369e-002
3.006606e+003;6.291901e-002
3.008535e+003;6.229705e-002
3.010463e+003;6.204509e-002
3.012392e+003;6.170397e-002
3.014321e+003;6.124442e-002
3.016249e+003;6.075634e-002
3.018177e+003;6.091853e-002
3.020106e+003;6.120794e-002
3.022035e+003;6.116045e-002
3.023963e+003;6.079975e-002
3.025892e+003;6.062672e-002
3.027820e+003;6.078409e-002
3.029749e+003;6.084938e-002
3.031677e+003;6.074144e-002
3.033606e+003;6.057235e-002
3.035534e+003;6.048299e-002
3.037463e+003;6.050630e-002
3.039392e+003;6.047100e-002
3.041320e+003;6.017526e-002
3.043249e+003;6.007484e-002
3.045177e+003;6.034362e-002
3.047106e+003;6.072586e-002
3.049034e+003;6.022817e-002
3.050963e+003;5.951834e-002
3.052891e+003;5.967128e-002
3.054820e+003;5.975366e-002
3.056749e+003;5.922944e-002
3.058677e+003;5.903368e-002
3.060606e+003;5.941016e-002
3.062534e+003;5.952578e-002
3.064463e+003;5.949033e-002
3.066391e+003;5.947551e-002
3.068320e+003;5.932967e-002
3.070248e+003;5.925838e-002
3.072177e+003;5.896001e-002
3.074105e+003;5.878308e-002
3.076034e+003;5.879081e-002
3.077963e+003;5.838019e-002
3.079891e+003;5.802394e-002
3.081820e+003;5.793091e-002
3.083748e+003;5.825017e-002
3.085677e+003;5.857648e-002
3.087605e+003;5.823493e-002
3.089534e+003;5.792364e-002
3.091462e+003;5.774614e-002
3.093391e+003;5.762623e-002
3.095320e+003;5.784989e-002
3.097248e+003;5.781022e-002
3.099177e+003;5.750873e-002
3.101105e+003;5.751761e-002
3.103034e+003;5.761015e-002
3.104962e+003;5.765351e-002
3.106891e+003;5.750611e-002
3.108819e+003;5.721084e-002
3.110748e+003;5.737677e-002
3.112677e+003;5.777960e-002
3.114605e+003;5.781616e-002
3.116533e+003;5.726682e-002
3.118462e+003;5.709560e-002
3.120391e+003;5.732349e-002
3.122319e+003;5.730077e-002
3.124248e+003;5.713680e-002
3.126176e+003;5.691992e-002
3.128105e+003;5.703582e-002
3.130033e+003;5.750313e-002
3.131962e+003;5.768204e-002
3.133890e+003;5.721855e-002
3.135819e+003;5.690337e-002
3.137748e+003;5.669696e-002
3.139676e+003;5.680279e-002
3.141605e+003;5.702725e-002
3.143533e+003;5.691066e-002
3.145462e+003;5.678342e-002
3.147390e+003;5.671519e-002
3.149319e+003;5.683803e-002
3.151247e+003;5.694462e-002
3.153176e+003;5.653238e-002
3.155104e+003;5.641019e-002
3.157033e+003;5.695108e-002
3.158962e+003;5.760330e-002
3.160890e+003;5.788904e-002
3.162819e+003;5.768260e-002
3.164747e+003;5.718381e-002
3.166676e+003;5.703798e-002
3.168604e+003;5.740782e-002
3.170533e+003;5.750608e-002
3.172461e+003;5.766206e-002
3.174390e+003;5.765377e-002
3.176319e+003;5.772661e-002
3.178247e+003;5.817477e-002
3.180176e+003;5.849789e-002
3.182104e+003;5.841987e-002
3.184033e+003;5.832106e-002
3.185961e+003;5.842324e-002
3.187890e+003;5.836730e-002
3.189818e+003;5.847506e-002
3.191747e+003;5.892783e-002
3.193676e+003;5.900107e-002
3.195604e+003;5.904754e-002
3.197532e+003;5.890654e-002
3.199461e+003;5.874123e-002
3.201390e+003;5.882427e-002
3.203318e+003;5.877234e-002
3.205247e+003;5.879032e-002
3.207175e+003;5.904370e-002
3.209104e+003;5.957139e-002
3.211032e+003;5.997428e-002
3.212961e+003;5.984747e-002
3.214889e+003;5.961571e-002
3.216818e+003;5.954311e-002
3.218747e+003;5.965068e-002
3.220675e+003;6.000951e-002
3.222604e+003;6.020236e-002
3.224532e+003;5.995709e-002
3.226461e+003;6.022508e-002
3.228389e+003;6.058881e-002
3.230318e+003;6.051228e-002
3.232246e+003;6.050923e-002
3.234175e+003;6.040268e-002
3.236104e+003;6.035406e-002
3.238032e+003;6.066420e-002
3.239961e+003;6.085677e-002
3.241889e+003;6.070314e-002
3.243818e+003;6.052158e-002
3.245746e+003;6.071541e-002
3.247675e+003;6.088041e-002
3.249603e+003;6.119589e-002
3.251532e+003;6.165799e-002
3.253460e+003;6.144075e-002
3.255389e+003;6.095448e-002
3.257318e+003;6.092528e-002
3.259246e+003;6.136324e-002
3.261175e+003;6.171398e-002
3.263103e+003;6.145690e-002
3.265032e+003;6.127829e-002
3.266960e+003;6.143545e-002
3.268889e+003;6.176012e-002
3.270817e+003;6.236674e-002
3.272746e+003;6.279846e-002
3.274675e+003;6.277300e-002
3.276603e+003;6.230443e-002
3.278531e+003;6.212334e-002
3.280460e+003;6.228263e-002
3.282389e+003;6.246149e-002
3.284317e+003;6.247833e-002
3.286246e+003;6.217151e-002
3.288174e+003;6.182116e-002
3.290103e+003;6.184080e-002
3.292031e+003;6.222496e-002
3.293960e+003;6.212005e-002
3.295888e+003;6.190621e-002
3.297817e+003;6.167136e-002
3.299746e+003;6.166586e-002
3.301674e+003;6.183216e-002
3.303603e+003;6.185111e-002
3.305531e+003;6.173132e-002
3.307460e+003;6.148629e-002
3.309388e+003;6.146942e-002
3.311317e+003;6.140396e-002
3.313245e+003;6.131626e-002
3.315174e+003;6.124796e-002
3.317103e+003;6.117533e-002
3.319031e+003;6.107429e-002
3.320960e+003;6.115187e-002
3.322888e+003;6.140793e-002
3.324817e+003;6.102879e-002
3.326745e+003;6.072296e-002
3.328674e+003;6.081351e-002
3.330602e+003;6.044537e-002
3.332531e+003;6.023357e-002
3.334459e+003;6.008054e-002
3.336388e+003;5.993624e-002
3.338317e+003;5.977792e-002
3.340245e+003;6.007019e-002
3.342174e+003;6.013378e-002
3.344102e+003;5.946134e-002
3.346031e+003;5.905372e-002
3.347959e+003;5.913569e-002
3.349888e+003;5.950329e-002
3.351816e+003;5.971378e-002
3.353745e+003;5.933575e-002
3.355674e+003;5.884905e-002
3.357602e+003;5.877685e-002
3.359531e+003;5.933776e-002
3.361459e+003;5.928994e-002
3.363388e+003;5.908125e-002
3.365316e+003;5.875937e-002
3.367245e+003;5.866238e-002
3.369173e+003;5.832330e-002
3.371102e+003;5.816636e-002
3.373031e+003;5.824581e-002
3.374959e+003;5.822603e-002
3.376887e+003;5.802334e-002
3.378816e+003;5.786121e-002
3.380745e+003;5.825915e-002
3.382673e+003;5.790225e-002
3.384602e+003;5.721175e-002
3.386530e+003;5.721980e-002
3.388459e+003;5.744166e-002
3.390387e+003;5.725518e-002
3.392316e+003;5.648988e-002
3.394244e+003;5.631207e-002
3.396173e+003;5.604557e-002
3.398102e+003;5.601915e-002
3.400030e+003;5.629898e-002
3.401959e+003;5.635571e-002
3.403887e+003;5.628661e-002
3.405816e+003;5.630788e-002
3.407744e+003;5.638834e-002
3.409673e+003;5.651838e-002
3.411601e+003;5.624432e-002
3.413530e+003;5.588437e-002
3.415458e+003;5.575848e-002
3.417387e+003;5.579815e-002
3.419316e+003;5.579541e-002
3.421244e+003;5.556304e-002
3.423173e+003;5.564265e-002
3.425101e+003;5.610978e-002
3.427030e+003;5.598590e-002
3.428958e+003;5.563018e-002
3.430887e+003;5.579179e-002
3.432815e+003;5.579322e-002
3.434744e+003;5.551405e-002
3.436673e+003;5.522596e-002
3.438601e+003;5.508450e-002
3.440530e+003;5.480508e-002
3.442458e+003;5.462337e-002
3.444387e+003;5.448117e-002
3.446315e+003;5.445330e-002
3.448244e+003;5.475963e-002
3.450172e+003;5.504332e-002
3.452101e+003;5.501861e-002
3.454030e+003;5.508514e-002
3.455958e+003;5.514413e-002
3.457886e+003;5.493024e-002
3.459815e+003;5.468420e-002
3.461744e+003;5.427361e-002
3.463672e+003;5.393640e-002
3.465601e+003;5.404769e-002
3.467529e+003;5.422863e-002
3.469458e+003;5.412244e-002
3.471386e+003;5.384240e-002
3.473315e+003;5.345726e-002
3.475243e+003;5.351051e-002
3.477172e+003;5.350699e-002
3.479101e+003;5.350860e-002
3.481029e+003;5.363571e-002
3.482958e+003;5.368212e-002
3.484886e+003;5.337216e-002
3.486815e+003;5.284727e-002
3.488743e+003;5.252765e-002
3.490672e+003;5.242405e-002
3.492600e+003;5.279686e-002
3.494529e+003;5.347899e-002
3.496458e+003;5.353937e-002
3.498386e+003;5.290389e-002
3.500315e+003;5.263600e-002
3.502243e+003;5.279933e-002
3.504172e+003;5.329926e-002
3.506100e+003;5.363856e-002
3.508029e+003;5.353053e-002
3.509957e+003;5.331053e-002
3.511886e+003;5.305508e-002
3.513814e+003;5.264681e-002
3.515743e+003;5.290026e-002
3.517672e+003;5.355830e-002
3.519600e+003;5.346883e-002
3.521529e+003;5.330416e-002
3.523457e+003;5.326506e-002
3.525386e+003;5.280337e-002
3.527314e+003;5.295588e-002
3.529243e+003;5.354829e-002
3.531171e+003;5.362836e-002
3.533100e+003;5.352258e-002
3.535029e+003;5.345879e-002
3.536957e+003;5.333293e-002
3.538885e+003;5.322307e-002
3.540814e+003;5.319636e-002
3.542743e+003;5.304127e-002
3.544671e+003;5.279548e-002
3.546600e+003;5.324928e-002
3.548528e+003;5.342327e-002
3.550457e+003;5.230761e-002
3.552385e+003;5.180733e-002
3.554314e+003;5.243153e-002
3.556242e+003;5.252391e-002
3.558171e+003;5.242053e-002
3.560100e+003;5.220678e-002
3.562028e+003;5.191639e-002
3.563957e+003;5.173327e-002
3.565885e+003;5.133560e-002
3.567814e+003;5.141138e-002
3.569742e+003;5.131505e-002
3.571671e+003;5.109462e-002
3.573599e+003;5.130047e-002
3.575528e+003;5.170991e-002
3.577457e+003;5.131483e-002
3.579385e+003;5.073231e-002
3.581314e+003;5.061982e-002
3.583242e+003;5.042310e-002
3.585171e+003;4.986972e-002
3.587099e+003;4.925065e-002
3.589028e+003;4.903185e-002
3.590956e+003;4.983111e-002
3.592885e+003;5.020754e-002
3.594813e+003;5.023273e-002
3.596742e+003;5.072590e-002
3.598671e+003;5.118348e-002
3.600599e+003;5.128992e-002
3.602528e+003;5.119560e-002
3.604456e+003;5.092216e-002
3.606385e+003;5.043836e-002
3.608313e+003;5.008255e-002
3.610242e+003;5.008679e-002
3.612170e+003;4.995648e-002
3.614099e+003;5.020130e-002
3.616028e+003;5.090547e-002
3.617956e+003;5.109398e-002
3.619885e+003;5.095957e-002
3.621813e+003;5.105809e-002
3.623742e+003;5.109055e-002
3.625670e+003;5.027762e-002
3.627599e+003;4.855701e-002
3.629527e+003;4.865473e-002
3.631456e+003;5.021948e-002
3.633385e+003;5.090282e-002
3.635313e+003;5.080590e-002
3.637241e+003;5.042560e-002
3.639170e+003;5.003265e-002
3.641099e+003;4.986798e-002
3.643027e+003;5.004686e-002
3.644956e+003;4.953324e-002
3.646884e+003;4.815490e-002
3.648813e+003;4.688492e-002
3.650741e+003;4.727891e-002
3.652670e+003;4.853870e-002
3.654598e+003;4.818078e-002
3.656527e+003;4.762592e-002
3.658456e+003;4.851406e-002
3.660384e+003;4.863453e-002
3.662313e+003;4.802657e-002
3.664241e+003;4.724921e-002
3.666170e+003;4.632058e-002
3.668098e+003;4.488275e-002
3.670027e+003;4.366607e-002
3.671955e+003;4.440765e-002
3.673884e+003;4.462369e-002
3.675813e+003;4.467749e-002
3.677741e+003;4.507866e-002
3.679669e+003;4.473735e-002
3.681598e+003;4.438236e-002
3.683527e+003;4.388218e-002
3.685455e+003;4.331078e-002
3.687384e+003;4.190826e-002
3.689312e+003;4.182981e-002
3.691241e+003;4.306693e-002
3.693169e+003;4.440589e-002
3.695098e+003;4.466419e-002
3.697026e+003;4.415635e-002
3.698955e+003;4.358668e-002
3.700884e+003;4.312214e-002
3.702812e+003;4.346951e-002
3.704741e+003;4.382848e-002
3.706669e+003;4.380290e-002
3.708598e+003;4.283224e-002
3.710526e+003;4.138023e-002
3.712455e+003;4.131431e-002
3.714383e+003;4.265982e-002
3.716312e+003;4.320657e-002
3.718240e+003;4.293519e-002
3.720169e+003;4.265854e-002
3.722098e+003;4.252762e-002
3.724026e+003;4.259008e-002
3.725955e+003;4.230765e-002
3.727883e+003;4.241092e-002
3.729812e+003;4.240394e-002
3.731740e+003;4.158704e-002
3.733669e+003;4.138235e-002
3.735597e+003;4.141621e-002
3.737526e+003;4.217330e-002
3.739455e+003;4.292155e-002
3.741383e+003;4.213927e-002
3.743312e+003;3.934166e-002
3.745240e+003;3.919212e-002
3.747169e+003;4.070785e-002
3.749097e+003;3.962681e-002
3.751026e+003;3.910531e-002
3.752954e+003;4.068092e-002
3.754883e+003;4.281406e-002
3.756812e+003;4.309587e-002
3.758740e+003;4.244683e-002
3.760668e+003;4.233837e-002
3.762597e+003;4.286632e-002
3.764526e+003;4.282142e-002
3.766454e+003;4.301388e-002
3.768383e+003;4.297777e-002
3.770311e+003;4.280456e-002
3.772240e+003;4.303905e-002
3.774168e+003;4.365973e-002
3.776097e+003;4.369216e-002
3.778025e+003;4.327275e-002
3.779954e+003;4.320873e-002
3.781883e+003;4.335874e-002
3.783811e+003;4.309287e-002
3.785740e+003;4.258284e-002
3.787668e+003;4.267608e-002
3.789597e+003;4.318915e-002
3.791525e+003;4.331441e-002
3.793454e+003;4.306001e-002
3.795382e+003;4.258113e-002
3.797311e+003;4.237128e-002
3.799240e+003;4.133140e-002
3.801168e+003;4.054790e-002
3.803097e+003;4.200008e-002
3.805025e+003;4.240230e-002
3.806954e+003;4.176262e-002
3.808882e+003;4.286164e-002
3.810811e+003;4.365405e-002
3.812739e+003;4.341315e-002
3.814668e+003;4.190122e-002
3.816596e+003;4.141067e-002
3.818525e+003;4.176291e-002
3.820454e+003;4.111272e-002
3.822382e+003;4.200921e-002
3.824311e+003;4.316759e-002
3.826239e+003;4.324431e-002
3.828168e+003;4.354716e-002
3.830096e+003;4.302639e-002
3.832025e+003;4.229370e-002
3.833953e+003;4.263551e-002
3.835882e+003;4.223907e-002
3.837811e+003;4.112992e-002
3.839739e+003;4.167114e-002
3.841667e+003;4.280200e-002
3.843596e+003;4.339221e-002
3.845525e+003;4.365167e-002
3.847453e+003;4.407005e-002
3.849382e+003;4.348636e-002
3.851310e+003;4.064795e-002
3.853239e+003;3.840230e-002
3.855167e+003;4.064468e-002
3.857096e+003;4.327271e-002
3.859024e+003;4.347698e-002
3.860953e+003;4.306396e-002
3.862882e+003;4.298520e-002
3.864810e+003;4.312126e-002
3.866739e+003;4.291003e-002
3.868667e+003;4.215486e-002
3.870596e+003;4.236365e-002
3.872524e+003;4.305167e-002
3.874453e+003;4.309843e-002
3.876381e+003;4.360009e-002
3.878310e+003;4.387778e-002
3.880239e+003;4.373422e-002
3.882167e+003;4.351936e-002
3.884096e+003;4.262151e-002
3.886024e+003;4.291281e-002
3.887953e+003;4.380605e-002
3.889881e+003;4.351229e-002
3.891810e+003;4.364401e-002
3.893738e+003;4.463368e-002
3.895667e+003;4.483440e-002
3.897595e+003;4.397893e-002
3.899524e+003;4.311482e-002
3.901453e+003;4.301776e-002
3.903381e+003;4.302862e-002
3.905310e+003;4.338891e-002
3.907238e+003;4.396859e-002
3.909167e+003;4.449916e-002
3.911095e+003;4.460750e-002
3.913024e+003;4.412895e-002
3.914952e+003;4.377098e-002
3.916881e+003;4.379781e-002
3.918810e+003;4.418273e-002
3.920738e+003;4.451083e-002
3.922667e+003;4.445735e-002
3.924595e+003;4.456858e-002
3.926524e+003;4.541392e-002
3.928452e+003;4.529820e-002
3.930381e+003;4.463970e-002
3.932309e+003;4.431414e-002
3.934238e+003;4.456623e-002
3.936167e+003;4.472934e-002
3.938095e+003;4.466581e-002
3.940023e+003;4.440225e-002
3.941952e+003;4.452948e-002
3.943881e+003;4.487257e-002
3.945809e+003;4.493731e-002
3.947738e+003;4.507730e-002
3.949666e+003;4.503654e-002
3.951595e+003;4.508690e-002
3.953523e+003;4.525959e-002
3.955452e+003;4.541715e-002
3.957380e+003;4.545644e-002
3.959309e+003;4.547234e-002
3.961238e+003;4.550828e-002
3.963166e+003;4.556778e-002
3.965095e+003;4.528342e-002
3.967023e+003;4.529537e-002
3.968952e+003;4.543735e-002
3.970880e+003;4.515230e-002
3.972809e+003;4.492478e-002
3.974737e+003;4.513527e-002
3.976666e+003;4.553150e-002
3.978594e+003;4.550876e-002
3.980523e+003;4.565913e-002
3.982452e+003;4.624834e-002
3.984380e+003;4.571548e-002
3.986309e+003;4.535561e-002
3.988237e+003;4.578326e-002
3.990166e+003;4.596319e-002
3.992094e+003;4.612171e-002
3.994023e+003;4.589148e-002
3.995951e+003;4.568836e-002
3.997880e+003;4.584225e-002
3.999809e+003;4.578013e-002
4.001737e+003;0.000000e+000
