3.992094e+002;0.000000e+000
4.011380e+002;0.000000e+000
4.030665e+002;0.000000e+000
4.049951e+002;0.000000e+000
4.069236e+002;0.000000e+000
4.088522e+002;0.000000e+000
4.107807e+002;0.000000e+000
4.127093e+002;0.000000e+000
4.146378e+002;0.000000e+000
4.165664e+002;0.000000e+000
4.184949e+002;0.000000e+000
4.204235e+002;0.000000e+000
4.223520e+002;0.000000e+000
4.242806e+002;0.000000e+000
4.262091e+002;0.000000e+000
4.281377e+002;0.000000e+000
4.300662e+002;0.000000e+000
4.319948e+002;0.000000e+000
4.339233e+002;0.000000e+000
4.358519e+002;0.000000e+000
4.377804e+002;0.000000e+000
4.397090e+002;0.000000e+000
4.416375e+002;0.000000e+000
4.435660e+002;0.000000e+000
4.454946e+002;0.000000e+000
4.474232e+002;0.000000e+000
4.493517e+002;0.000000e+000
4.512802e+002;0.000000e+000
4.532088e+002;0.000000e+000
4.551373e+002;0.000000e+000
4.570659e+002;0.000000e+000
4.589944e+002;0.000000e+000
4.609230e+002;0.000000e+000
4.628515e+002;0.000000e+000
4.647801e+002;0.000000e+000
4.667086e+002;0.000000e+000
4.686372e+002;0.000000e+000
4.705657e+002;0.000000e+000
4.724943e+002;0.000000e+000
4.744228e+002;0.000000e+000
4.763513e+002;0.000000e+000
4.782799e+002;0.000000e+000
4.802085e+002;0.000000e+000
4.821370e+002;0.000000e+000
4.840656e+002;0.000000e+000
4.859941e+002;0.000000e+000
4.879226e+002;0.000000e+000
4.898512e+002;0.000000e+000
4.917798e+002;0.000000e+000
4.937083e+002;0.000000e+000
4.956368e+002;0.000000e+000
4.975654e+002;0.000000e+000
4.994939e+002;0.000000e+000
5.014225e+002;0.000000e+000
5.033510e+002;0.000000e+000
5.052796e+002;0.000000e+000
5.072081e+002;0.000000e+000
5.091367e+002;0.000000e+000
5.110652e+002;0.000000e+000
5.129938e+002;0.000000e+000
5.149223e+002;0.000000e+000
5.168509e+002;0.000000e+000
5.187794e+002;0.000000e+000
5.207079e+002;0.000000e+000
5.226365e+002;0.000000e+000
5.245651e+002;0.000000e+000
5.264936e+002;0.000000e+000
5.284222e+002;0.000000e+000
5.303507e+002;0.000000e+000
5.322792e+002;0.000000e+000
5.342078e+002;0.000000e+000
5.361364e+002;0.000000e+000
5.380649e+002;0.000000e+000
5.399935e+002;0.000000e+000
5.419220e+002;0.000000e+000
5.438505e+002;0.000000e+000
5.457791e+002;0.000000e+000
5.477076e+002;0.000000e+000
5.496362e+002;0.000000e+000
5.515648e+002;0.000000e+000
5.534933e+002;0.000000e+000
5.554218e+002;0.000000e+000
5.573504e+002;0.000000e+000
5.592789e+002;0.000000e+000
5.612075e+002;0.000000e+000
5.631360e+002;0.000000e+000
5.650646e+002;0.000000e+000
5.669931e+002;0.000000e+000
5.689217e+002;0.000000e+000
5.708502e+002;0.000000e+000
5.727787e+002;0.000000e+000
5.747073e+002;0.000000e+000
5.766359e+002;0.000000e+000
5.785644e+002;0.000000e+000
5.804930e+002;0.000000e+000
5.824215e+002;0.000000e+000
5.843500e+002;0.000000e+000
5.862786e+002;0.000000e+000
5.882072e+002;0.000000e+000
5.901357e+002;0.000000e+000
5.920643e+002;0.000000e+000
5.939928e+002;0.000000e+000
5.959213e+002;0.000000e+000
5.978499e+002;0.000000e+000
5.997784e+002;9.813405e-002
6.017070e+002;9.617671e-002
6.036355e+002;8.585356e-002
6.055641e+002;7.890220e-002
6.074926e+002;7.987928e-002
6.094211e+002;8.301707e-002
6.113497e+002;8.271211e-002
6.132783e+002;8.368029e-002
6.152068e+002;8.574456e-002
6.171354e+002;8.522765e-002
6.190639e+002;8.137956e-002
6.209924e+002;8.239844e-002
6.229210e+002;8.559192e-002
6.248495e+002;8.587710e-002
6.267781e+002;8.788634e-002
6.287067e+002;8.961256e-002
6.306352e+002;9.073078e-002
6.325637e+002;8.964600e-002
6.344923e+002;8.720229e-002
6.364208e+002;8.716673e-002
6.383494e+002;8.938801e-002
6.402780e+002;9.078052e-002
6.422065e+002;8.909164e-002
6.441350e+002;8.950407e-002
6.460636e+002;9.175021e-002
6.479921e+002;8.727957e-002
6.499207e+002;8.331429e-002
6.518492e+002;8.395743e-002
6.537778e+002;8.505476e-002
6.557063e+002;8.391634e-002
6.576349e+002;8.509454e-002
6.595634e+002;8.773822e-002
6.614919e+002;8.682744e-002
6.634205e+002;8.618320e-002
6.653491e+002;8.629801e-002
6.672776e+002;8.591700e-002
6.692062e+002;8.661932e-002
6.711347e+002;8.821525e-002
6.730632e+002;8.842596e-002
6.749918e+002;8.736327e-002
6.769203e+002;8.704399e-002
6.788489e+002;8.655005e-002
6.807775e+002;8.566981e-002
6.827060e+002;8.544902e-002
6.846345e+002;8.405465e-002
6.865631e+002;8.449130e-002
6.884916e+002;8.577895e-002
6.904202e+002;8.462298e-002
6.923488e+002;8.372075e-002
6.942773e+002;8.461057e-002
6.962058e+002;8.492493e-002
6.981344e+002;8.432518e-002
7.000629e+002;8.427843e-002
7.019915e+002;8.344775e-002
7.039200e+002;8.206686e-002
7.058486e+002;8.150817e-002
7.077771e+002;8.120943e-002
7.097057e+002;8.181201e-002
7.116342e+002;8.291720e-002
7.135627e+002;8.398931e-002
7.154913e+002;8.498798e-002
7.174199e+002;8.538908e-002
7.193484e+002;8.589870e-002
7.212770e+002;8.563720e-002
7.232055e+002;8.575513e-002
7.251340e+002;8.668235e-002
7.270626e+002;8.782066e-002
7.289911e+002;8.734301e-002
7.309197e+002;8.618655e-002
7.328483e+002;8.565205e-002
7.347768e+002;8.552736e-002
7.367053e+002;8.569317e-002
7.386339e+002;8.618578e-002
7.405624e+002;8.709072e-002
7.424910e+002;8.749955e-002
7.444196e+002;8.714551e-002
7.463481e+002;8.641054e-002
7.482766e+002;8.648001e-002
7.502052e+002;8.745424e-002
7.521337e+002;8.816312e-002
7.540623e+002;8.745903e-002
7.559908e+002;8.727382e-002
7.579194e+002;8.743763e-002
7.598479e+002;8.738767e-002
7.617765e+002;8.742721e-002
7.637050e+002;8.791940e-002
7.656335e+002;8.830737e-002
7.675621e+002;8.760726e-002
7.694907e+002;8.625844e-002
7.714192e+002;8.554939e-002
7.733478e+002;8.545031e-002
7.752763e+002;8.460369e-002
7.772048e+002;8.336131e-002
7.791334e+002;8.113090e-002
7.810620e+002;7.940980e-002
7.829905e+002;7.733256e-002
7.849191e+002;7.428920e-002
7.868476e+002;7.120971e-002
7.887761e+002;6.833603e-002
7.907047e+002;6.551095e-002
7.926332e+002;6.266657e-002
7.945618e+002;6.002815e-002
7.964903e+002;5.826354e-002
7.984189e+002;5.727083e-002
8.003474e+002;5.701580e-002
8.022759e+002;5.768397e-002
8.042045e+002;5.945211e-002
8.061331e+002;6.040211e-002
8.080616e+002;6.127921e-002
8.099902e+002;6.305671e-002
8.119187e+002;6.469825e-002
8.138472e+002;6.548991e-002
8.157758e+002;6.570071e-002
8.177043e+002;6.644335e-002
8.196329e+002;6.806058e-002
8.215615e+002;6.998153e-002
8.234900e+002;7.235976e-002
8.254185e+002;7.472696e-002
8.273471e+002;7.697701e-002
8.292756e+002;7.848089e-002
8.312042e+002;8.006470e-002
8.331328e+002;8.125657e-002
8.350613e+002;8.166031e-002
8.369898e+002;8.173573e-002
8.389184e+002;8.125673e-002
8.408469e+002;8.066905e-002
8.427755e+002;7.984196e-002
8.447040e+002;7.855398e-002
8.466326e+002;7.736205e-002
8.485611e+002;7.712202e-002
8.504897e+002;7.615242e-002
8.524182e+002;7.465499e-002
8.543467e+002;7.384767e-002
8.562753e+002;7.390144e-002
8.582039e+002;7.438302e-002
8.601324e+002;7.410009e-002
8.620610e+002;7.410894e-002
8.639895e+002;7.465440e-002
8.659180e+002;7.464483e-002
8.678466e+002;7.405451e-002
8.697751e+002;7.348374e-002
8.717037e+002;7.318795e-002
8.736323e+002;7.351784e-002
8.755608e+002;7.408065e-002
8.774893e+002;7.428586e-002
8.794179e+002;7.425807e-002
8.813464e+002;7.436898e-002
8.832750e+002;7.470292e-002
8.852036e+002;7.484867e-002
8.871321e+002;7.503565e-002
8.890606e+002;7.538918e-002
8.909892e+002;7.538442e-002
8.929177e+002;7.551777e-002
8.948463e+002;7.625900e-002
8.967748e+002;7.630774e-002
8.987034e+002;7.578758e-002
9.006319e+002;7.593326e-002
9.025605e+002;7.656538e-002
9.044890e+002;7.697677e-002
9.064175e+002;7.692966e-002
9.083461e+002;7.675114e-002
9.102747e+002;7.675624e-002
9.122032e+002;7.713986e-002
9.141318e+002;7.761019e-002
9.160603e+002;7.780479e-002
9.179888e+002;7.760908e-002
9.199174e+002;7.712344e-002
9.218459e+002;7.729301e-002
9.237745e+002;7.799103e-002
9.257031e+002;7.858086e-002
9.276316e+002;7.862256e-002
9.295601e+002;7.856303e-002
9.314887e+002;7.880724e-002
9.334172e+002;7.973052e-002
9.353458e+002;8.008913e-002
9.372744e+002;7.993811e-002
9.392029e+002;8.057912e-002
9.411314e+002;8.111656e-002
9.430600e+002;8.102060e-002
9.449885e+002;8.085041e-002
9.469171e+002;8.116473e-002
9.488456e+002;8.165691e-002
9.507742e+002;8.200258e-002
9.527027e+002;8.214664e-002
9.546313e+002;8.259344e-002
9.565598e+002;8.272567e-002
9.584883e+002;8.254535e-002
9.604169e+002;8.257697e-002
9.623455e+002;8.208759e-002
9.642740e+002;8.199874e-002
9.662026e+002;8.220541e-002
9.681311e+002;8.182009e-002
9.700596e+002;8.162732e-002
9.719882e+002;8.157494e-002
9.739167e+002;8.122569e-002
9.758453e+002;8.084220e-002
9.777739e+002;8.073452e-002
9.797024e+002;8.084120e-002
9.816309e+002;8.102939e-002
9.835595e+002;8.126005e-002
9.854880e+002;8.150610e-002
9.874166e+002;8.143595e-002
9.893452e+002;8.117396e-002
9.912737e+002;8.070935e-002
9.932022e+002;8.030254e-002
9.951307e+002;8.013248e-002
9.970593e+002;8.021441e-002
9.989879e+002;7.980692e-002
1.000916e+003;7.903101e-002
1.002845e+003;7.819438e-002
1.004773e+003;7.769723e-002
1.006702e+003;7.699706e-002
1.008631e+003;7.607997e-002
1.010559e+003;7.525287e-002
1.012488e+003;7.456894e-002
1.014416e+003;7.433092e-002
1.016345e+003;7.434558e-002
1.018273e+003;7.461088e-002
1.020202e+003;7.465365e-002
1.022130e+003;7.520767e-002
1.024059e+003;7.620063e-002
1.025988e+003;7.652330e-002
1.027916e+003;7.727768e-002
1.029845e+003;7.906511e-002
1.031773e+003;8.104344e-002
1.033702e+003;8.246943e-002
1.035630e+003;8.345726e-002
1.037559e+003;8.426218e-002
1.039487e+003;8.477189e-002
1.041416e+003;8.567945e-002
1.043344e+003;8.616611e-002
1.045273e+003;8.614570e-002
1.047202e+003;8.658301e-002
1.049130e+003;8.740091e-002
1.051059e+003;8.752493e-002
1.052987e+003;8.741724e-002
1.054916e+003;8.756323e-002
1.056844e+003;8.821496e-002
1.058773e+003;8.935442e-002
1.060701e+003;9.045248e-002
1.062630e+003;9.148144e-002
1.064558e+003;9.244258e-002
1.066487e+003;9.308452e-002
1.068416e+003;9.341850e-002
1.070344e+003;9.311166e-002
1.072273e+003;9.224278e-002
1.074201e+003;9.108543e-002
1.076130e+003;8.988568e-002
1.078058e+003;8.824094e-002
1.079987e+003;8.675970e-002
1.081915e+003;8.530245e-002
1.083844e+003;8.334749e-002
1.085773e+003;8.112946e-002
1.087701e+003;8.011790e-002
1.089630e+003;7.971922e-002
1.091558e+003;7.826789e-002
1.093487e+003;7.709657e-002
1.095415e+003;7.711774e-002
1.097344e+003;7.708102e-002
1.099272e+003;7.655942e-002
1.101201e+003;7.668282e-002
1.103129e+003;7.781786e-002
1.105058e+003;7.880872e-002
1.106987e+003;7.890133e-002
1.108915e+003;7.911011e-002
1.110844e+003;7.974601e-002
1.112772e+003;8.026798e-002
1.114701e+003;8.061276e-002
1.116629e+003;8.070352e-002
1.118558e+003;8.073173e-002
1.120486e+003;8.053545e-002
1.122415e+003;7.981652e-002
1.124344e+003;7.966595e-002
1.126272e+003;7.938112e-002
1.128201e+003;7.915790e-002
1.130129e+003;7.943837e-002
1.132058e+003;7.995503e-002
1.133986e+003;7.986060e-002
1.135915e+003;8.000112e-002
1.137843e+003;8.085780e-002
1.139772e+003;8.195420e-002
1.141700e+003;8.330265e-002
1.143629e+003;8.526870e-002
1.145557e+003;8.761135e-002
1.147486e+003;9.011248e-002
1.149415e+003;9.257718e-002
1.151343e+003;9.548853e-002
1.153272e+003;9.847344e-002
1.155200e+003;1.014878e-001
1.157129e+003;1.045668e-001
1.159057e+003;1.073532e-001
1.160986e+003;1.107736e-001
1.162914e+003;1.139730e-001
1.164843e+003;1.163584e-001
1.166771e+003;1.173755e-001
1.168700e+003;1.170207e-001
1.170629e+003;1.163601e-001
1.172557e+003;1.155640e-001
1.174486e+003;1.138572e-001
1.176414e+003;1.122498e-001
1.178343e+003;1.114201e-001
1.180271e+003;1.105665e-001
1.182200e+003;1.088109e-001
1.184128e+003;1.069335e-001
1.186057e+003;1.062215e-001
1.187986e+003;1.064548e-001
1.189914e+003;1.071048e-001
1.191843e+003;1.078946e-001
1.193771e+003;1.086973e-001
1.195700e+003;1.096785e-001
1.197628e+003;1.105907e-001
1.199557e+003;1.106184e-001
1.201485e+003;1.101933e-001
1.203414e+003;1.097168e-001
1.205343e+003;1.093978e-001
1.207271e+003;1.093307e-001
1.209200e+003;1.092328e-001
1.211128e+003;1.092342e-001
1.213057e+003;1.096380e-001
1.214985e+003;1.099757e-001
1.216914e+003;1.107232e-001
1.218842e+003;1.116388e-001
1.220771e+003;1.121327e-001
1.222699e+003;1.122575e-001
1.224628e+003;1.120958e-001
1.226557e+003;1.120338e-001
1.228485e+003;1.123023e-001
1.230414e+003;1.124101e-001
1.232342e+003;1.121108e-001
1.234271e+003;1.118969e-001
1.236199e+003;1.116169e-001
1.238128e+003;1.110573e-001
1.240056e+003;1.102968e-001
1.241985e+003;1.103082e-001
1.243913e+003;1.102003e-001
1.245842e+003;1.092740e-001
1.247771e+003;1.082703e-001
1.249699e+003;1.070141e-001
1.251628e+003;1.051134e-001
1.253556e+003;1.023615e-001
1.255485e+003;9.850611e-002
1.257413e+003;9.456368e-002
1.259342e+003;9.174158e-002
1.261270e+003;9.100391e-002
1.263199e+003;9.254118e-002
1.265127e+003;9.542393e-002
1.267056e+003;9.818099e-002
1.268985e+003;1.002079e-001
1.270913e+003;1.018551e-001
1.272842e+003;1.029650e-001
1.274770e+003;1.029517e-001
1.276699e+003;1.024218e-001
1.278627e+003;1.015149e-001
1.280556e+003;1.004819e-001
1.282484e+003;9.964480e-002
1.284413e+003;9.885548e-002
1.286342e+003;9.826154e-002
1.288270e+003;9.794199e-002
1.290199e+003;9.725814e-002
1.292127e+003;9.655149e-002
1.294056e+003;9.605414e-002
1.295984e+003;9.556520e-002
1.297913e+003;9.540932e-002
1.299841e+003;9.534374e-002
1.301770e+003;9.518319e-002
1.303698e+003;9.500683e-002
1.305627e+003;9.499796e-002
1.307556e+003;9.508015e-002
1.309484e+003;9.492902e-002
1.311413e+003;9.444341e-002
1.313341e+003;9.389425e-002
1.315270e+003;9.360853e-002
1.317198e+003;9.343030e-002
1.319127e+003;9.352908e-002
1.321055e+003;9.371204e-002
1.322984e+003;9.367911e-002
1.324912e+003;9.362172e-002
1.326841e+003;9.385748e-002
1.328770e+003;9.400693e-002
1.330698e+003;9.392152e-002
1.332627e+003;9.361950e-002
1.334555e+003;9.349066e-002
1.336484e+003;9.363520e-002
1.338412e+003;9.386941e-002
1.340341e+003;9.445136e-002
1.342269e+003;9.525617e-002
1.344198e+003;9.579789e-002
1.346126e+003;9.650609e-002
1.348055e+003;9.699853e-002
1.349984e+003;9.722855e-002
1.351912e+003;9.763680e-002
1.353841e+003;9.809186e-002
1.355769e+003;9.836920e-002
1.357698e+003;9.835336e-002
1.359626e+003;9.785303e-002
1.361555e+003;9.720745e-002
1.363483e+003;9.726867e-002
1.365412e+003;9.754901e-002
1.367341e+003;9.706494e-002
1.369269e+003;9.647621e-002
1.371198e+003;9.593134e-002
1.373126e+003;9.547190e-002
1.375055e+003;9.555261e-002
1.376983e+003;9.554100e-002
1.378912e+003;9.504613e-002
1.380840e+003;9.444460e-002
1.382769e+003;9.368367e-002
1.384698e+003;9.250944e-002
1.386626e+003;9.069036e-002
1.388555e+003;8.996980e-002
1.390483e+003;8.948266e-002
1.392412e+003;8.793368e-002
1.394340e+003;8.609403e-002
1.396269e+003;8.538734e-002
1.398197e+003;8.494938e-002
1.400126e+003;8.512364e-002
1.402054e+003;8.541848e-002
1.403983e+003;8.511917e-002
1.405911e+003;8.544050e-002
1.407840e+003;8.599708e-002
1.409769e+003;8.663138e-002
1.411697e+003;8.742867e-002
1.413626e+003;8.812299e-002
1.415554e+003;8.842332e-002
1.417483e+003;8.761958e-002
1.419411e+003;8.757973e-002
1.421340e+003;8.995394e-002
1.423268e+003;9.204209e-002
1.425197e+003;9.444650e-002
1.427125e+003;9.734238e-002
1.429054e+003;1.005417e-001
1.430983e+003;1.048163e-001
1.432911e+003;1.093438e-001
1.434840e+003;1.121378e-001
1.436768e+003;1.144505e-001
1.438697e+003;1.188721e-001
1.440625e+003;1.230348e-001
1.442554e+003;1.268471e-001
1.444482e+003;1.309111e-001
1.446411e+003;1.343192e-001
1.448340e+003;1.370544e-001
1.450268e+003;1.392096e-001
1.452197e+003;1.392580e-001
1.454125e+003;1.355686e-001
1.456054e+003;1.276027e-001
1.457982e+003;1.210404e-001
1.459911e+003;1.165899e-001
1.461839e+003;1.108572e-001
1.463768e+003;1.040940e-001
1.465697e+003;9.909210e-002
1.467625e+003;9.627819e-002
1.469554e+003;9.337861e-002
1.471482e+003;8.982410e-002
1.473411e+003;8.741874e-002
1.475339e+003;8.618712e-002
1.477268e+003;8.498976e-002
1.479196e+003;8.372517e-002
1.481125e+003;8.244106e-002
1.483053e+003;8.151689e-002
1.484982e+003;8.023307e-002
1.486911e+003;7.875008e-002
1.488839e+003;7.750335e-002
1.490768e+003;7.737654e-002
1.492696e+003;7.820140e-002
1.494625e+003;7.754391e-002
1.496553e+003;7.692562e-002
1.498482e+003;7.832428e-002
1.500410e+003;7.994061e-002
1.502339e+003;8.057390e-002
1.504267e+003;7.835960e-002
1.506196e+003;7.608894e-002
1.508125e+003;7.888253e-002
1.510053e+003;8.275954e-002
1.511982e+003;8.468091e-002
1.513910e+003;8.569051e-002
1.515839e+003;8.571965e-002
1.517767e+003;8.609944e-002
1.519696e+003;8.534358e-002
1.521624e+003;8.481897e-002
1.523553e+003;8.684306e-002
1.525481e+003;8.831728e-002
1.527410e+003;9.010792e-002
1.529339e+003;9.192981e-002
1.531267e+003;9.280298e-002
1.533196e+003;9.350738e-002
1.535124e+003;9.627389e-002
1.537053e+003;9.727414e-002
1.538981e+003;9.523851e-002
1.540910e+003;9.593428e-002
1.542838e+003;9.815810e-002
1.544767e+003;9.887266e-002
1.546695e+003;9.872644e-002
1.548624e+003;9.724687e-002
1.550553e+003;9.619507e-002
1.552481e+003;9.498943e-002
1.554410e+003;9.299015e-002
1.556338e+003;9.008288e-002
1.558267e+003;8.538315e-002
1.560195e+003;8.560665e-002
1.562124e+003;8.871625e-002
1.564052e+003;8.888219e-002
1.565981e+003;8.829600e-002
1.567910e+003;8.753976e-002
1.569838e+003;8.700804e-002
1.571767e+003;8.841406e-002
1.573695e+003;8.844110e-002
1.575624e+003;8.660687e-002
1.577552e+003;8.760677e-002
1.579481e+003;8.905385e-002
1.581409e+003;8.790325e-002
1.583338e+003;8.580022e-002
1.585266e+003;8.408336e-002
1.587195e+003;8.286407e-002
1.589124e+003;8.204065e-002
1.591052e+003;8.172029e-002
1.592981e+003;8.167543e-002
1.594909e+003;8.200262e-002
1.596838e+003;8.237313e-002
1.598766e+003;8.269396e-002
1.600695e+003;8.279277e-002
1.602623e+003;8.316737e-002
1.604552e+003;8.358368e-002
1.606480e+003;8.374317e-002
1.608409e+003;8.386522e-002
1.610338e+003;8.423173e-002
1.612266e+003;8.490264e-002
1.614195e+003;8.436610e-002
1.616123e+003;8.272695e-002
1.618052e+003;8.423812e-002
1.619980e+003;8.654471e-002
1.621909e+003;8.661714e-002
1.623837e+003;8.724219e-002
1.625766e+003;8.880641e-002
1.627694e+003;8.987447e-002
1.629623e+003;9.135412e-002
1.631552e+003;9.273184e-002
1.633480e+003;9.218542e-002
1.635409e+003;9.188218e-002
1.637337e+003;9.497570e-002
1.639266e+003;9.797724e-002
1.641194e+003;9.951248e-002
1.643123e+003;1.002851e-001
1.645051e+003;9.991145e-002
1.646980e+003;1.007542e-001
1.648909e+003;1.028806e-001
1.650837e+003;1.011253e-001
1.652766e+003;9.778003e-002
1.654694e+003;1.014594e-001
1.656623e+003;1.055867e-001
1.658551e+003;1.056529e-001
1.660480e+003;1.043926e-001
1.662408e+003;1.031905e-001
1.664337e+003;1.031314e-001
1.666266e+003;1.026723e-001
1.668194e+003;1.005641e-001
1.670123e+003;9.923036e-002
1.672051e+003;9.885219e-002
1.673980e+003;9.688483e-002
1.675908e+003;9.560599e-002
1.677837e+003;9.581784e-002
1.679765e+003;9.455923e-002
1.681694e+003;9.166542e-002
1.683622e+003;8.691012e-002
1.685551e+003;8.629304e-002
1.687479e+003;8.812448e-002
1.689408e+003;8.772966e-002
1.691337e+003;8.691218e-002
1.693265e+003;8.463071e-002
1.695194e+003;8.094326e-002
1.697122e+003;8.043256e-002
1.699051e+003;7.893212e-002
1.700979e+003;7.822675e-002
1.702908e+003;8.094870e-002
1.704836e+003;8.179729e-002
1.706765e+003;8.305430e-002
1.708693e+003;8.494201e-002
1.710622e+003;8.707752e-002
1.712551e+003;8.914672e-002
1.714479e+003;9.108004e-002
1.716408e+003;9.307988e-002
1.718336e+003;9.818078e-002
1.720265e+003;1.056728e-001
1.722193e+003;1.115017e-001
1.724122e+003;1.162753e-001
1.726050e+003;1.203187e-001
1.727979e+003;1.226583e-001
1.729908e+003;1.233106e-001
1.731836e+003;1.208451e-001
1.733765e+003;1.164873e-001
1.735693e+003;1.146085e-001
1.737622e+003;1.108578e-001
1.739550e+003;1.039599e-001
1.741479e+003;9.756955e-002
1.743407e+003;9.120093e-002
1.745336e+003;8.499991e-002
1.747265e+003;7.902031e-002
1.749193e+003;7.353700e-002
1.751122e+003;6.921642e-002
1.753050e+003;6.723491e-002
1.754979e+003;6.529193e-002
1.756907e+003;6.297110e-002
1.758836e+003;6.120215e-002
1.760764e+003;5.947126e-002
1.762693e+003;5.874836e-002
1.764621e+003;5.840012e-002
1.766550e+003;5.709175e-002
1.768479e+003;5.613613e-002
1.770407e+003;5.495795e-002
1.772336e+003;5.382586e-002
1.774264e+003;5.468999e-002
1.776193e+003;5.543096e-002
1.778121e+003;5.515771e-002
1.780050e+003;5.460154e-002
1.781978e+003;5.451220e-002
1.783907e+003;5.427887e-002
1.785835e+003;5.408979e-002
1.787764e+003;5.413524e-002
1.789693e+003;5.331495e-002
1.791621e+003;5.184948e-002
1.793550e+003;5.182522e-002
1.795478e+003;5.260241e-002
1.797407e+003;5.237440e-002
1.799335e+003;5.167468e-002
1.801264e+003;5.150005e-002
1.803192e+003;5.199056e-002
1.805121e+003;5.218840e-002
1.807049e+003;5.216508e-002
1.808978e+003;5.180267e-002
1.810907e+003;5.147759e-002
1.812835e+003;5.138420e-002
1.814764e+003;5.148987e-002
1.816692e+003;5.132516e-002
1.818621e+003;5.122385e-002
1.820549e+003;5.126584e-002
1.822478e+003;5.101531e-002
1.824406e+003;5.048846e-002
1.826335e+003;5.039672e-002
1.828264e+003;4.990994e-002
1.830192e+003;4.958160e-002
1.832121e+003;5.012238e-002
1.834049e+003;5.046341e-002
1.835978e+003;5.046784e-002
1.837906e+003;5.055851e-002
1.839835e+003;5.049452e-002
1.841763e+003;4.968104e-002
1.843692e+003;4.866651e-002
1.845620e+003;4.926301e-002
1.847549e+003;4.985081e-002
1.849478e+003;4.979774e-002
1.851406e+003;4.976972e-002
1.853335e+003;4.981119e-002
1.855263e+003;4.966410e-002
1.857192e+003;4.947583e-002
1.859120e+003;4.948642e-002
1.861049e+003;4.968167e-002
1.862977e+003;4.961295e-002
1.864906e+003;4.945474e-002
1.866834e+003;4.890615e-002
1.868763e+003;4.826886e-002
1.870692e+003;4.853411e-002
1.872620e+003;4.911016e-002
1.874549e+003;4.931976e-002
1.876477e+003;4.936520e-002
1.878406e+003;4.917702e-002
1.880334e+003;4.890300e-002
1.882263e+003;4.883296e-002
1.884191e+003;4.903604e-002
1.886120e+003;4.923851e-002
1.888048e+003;4.905681e-002
1.889977e+003;4.875625e-002
1.891906e+003;4.880767e-002
1.893834e+003;4.875559e-002
1.895763e+003;4.872678e-002
1.897691e+003;4.899353e-002
1.899620e+003;4.917554e-002
1.901548e+003;4.898704e-002
1.903477e+003;4.893571e-002
1.905405e+003;4.900303e-002
1.907334e+003;4.897558e-002
1.909262e+003;4.868164e-002
1.911191e+003;4.837833e-002
1.913120e+003;4.855990e-002
1.915048e+003;4.870662e-002
1.916977e+003;4.807972e-002
1.918905e+003;4.821413e-002
1.920834e+003;4.861878e-002
1.922762e+003;4.849080e-002
1.924691e+003;4.847123e-002
1.926619e+003;4.854715e-002
1.928548e+003;4.868757e-002
1.930477e+003;4.865306e-002
1.932405e+003;4.850484e-002
1.934334e+003;4.828789e-002
1.936262e+003;4.825775e-002
1.938191e+003;4.826356e-002
1.940119e+003;4.802828e-002
1.942048e+003;4.790831e-002
1.943976e+003;4.799982e-002
1.945905e+003;4.801429e-002
1.947833e+003;4.808227e-002
1.949762e+003;4.807735e-002
1.951691e+003;4.805315e-002
1.953619e+003;4.806099e-002
1.955548e+003;4.795804e-002
1.957476e+003;4.813265e-002
1.959405e+003;4.843123e-002
1.961333e+003;4.833126e-002
1.963262e+003;4.804926e-002
1.965190e+003;4.800929e-002
1.967119e+003;4.802198e-002
1.969047e+003;4.823472e-002
1.970976e+003;4.819610e-002
1.972905e+003;4.806169e-002
1.974833e+003;4.827071e-002
1.976762e+003;4.843293e-002
1.978690e+003;4.846975e-002
1.980619e+003;4.843716e-002
1.982547e+003;4.854385e-002
1.984476e+003;4.881601e-002
1.986404e+003;4.885168e-002
1.988333e+003;4.883233e-002
1.990261e+003;4.875473e-002
1.992190e+003;4.875492e-002
1.994119e+003;4.885495e-002
1.996047e+003;4.880508e-002
1.997976e+003;4.880293e-002
1.999904e+003;4.892021e-002
2.001833e+003;4.914322e-002
2.003761e+003;4.927759e-002
2.005690e+003;4.938409e-002
2.007618e+003;4.944580e-002
2.009547e+003;4.944758e-002
2.011476e+003;4.940143e-002
2.013404e+003;4.938502e-002
2.015333e+003;4.921294e-002
2.017261e+003;4.912255e-002
2.019190e+003;4.931965e-002
2.021118e+003;4.936687e-002
2.023047e+003;4.924100e-002
2.024975e+003;4.923016e-002
2.026904e+003;4.913739e-002
2.028833e+003;4.908664e-002
2.030761e+003;4.916582e-002
2.032690e+003;4.912456e-002
2.034618e+003;4.913677e-002
2.036547e+003;4.900436e-002
2.038475e+003;4.880015e-002
2.040404e+003;4.883919e-002
2.042332e+003;4.893200e-002
2.044261e+003;4.898734e-002
2.046189e+003;4.917825e-002
2.048118e+003;4.926527e-002
2.050047e+003;4.929214e-002
2.051975e+003;4.930009e-002
2.053904e+003;4.917917e-002
2.055832e+003;4.904379e-002
2.057761e+003;4.886937e-002
2.059689e+003;4.882317e-002
2.061618e+003;4.879896e-002
2.063546e+003;4.874324e-002
2.065475e+003;4.876319e-002
2.067404e+003;4.888850e-002
2.069332e+003;4.892725e-002
2.071260e+003;4.889202e-002
2.073189e+003;4.905244e-002
2.075118e+003;4.910875e-002
2.077046e+003;4.913257e-002
2.078975e+003;4.914073e-002
2.080903e+003;4.891483e-002
2.082832e+003;4.881116e-002
2.084760e+003;4.902740e-002
2.086689e+003;4.910986e-002
2.088617e+003;4.893371e-002
2.090546e+003;4.899617e-002
2.092475e+003;4.928464e-002
2.094403e+003;4.938368e-002
2.096332e+003;4.920471e-002
2.098260e+003;4.905389e-002
2.100189e+003;4.914623e-002
2.102117e+003;4.925915e-002
2.104046e+003;4.919450e-002
2.105974e+003;4.918507e-002
2.107903e+003;4.921929e-002
2.109832e+003;4.920931e-002
2.111760e+003;4.893579e-002
2.113688e+003;4.880133e-002
2.115617e+003;4.885969e-002
2.117546e+003;4.870962e-002
2.119474e+003;4.836448e-002
2.121403e+003;4.828941e-002
2.123331e+003;4.846320e-002
2.125260e+003;4.859288e-002
2.127188e+003;4.868545e-002
2.129117e+003;4.869157e-002
2.131045e+003;4.885053e-002
2.132974e+003;4.892106e-002
2.134903e+003;4.872200e-002
2.136831e+003;4.861700e-002
2.138760e+003;4.885828e-002
2.140688e+003;4.884449e-002
2.142617e+003;4.845305e-002
2.144545e+003;4.844942e-002
2.146474e+003;4.856801e-002
2.148402e+003;4.862705e-002
2.150331e+003;4.876997e-002
2.152260e+003;4.903563e-002
2.154188e+003;4.897636e-002
2.156117e+003;4.878758e-002
2.158045e+003;4.887063e-002
2.159974e+003;4.865254e-002
2.161902e+003;4.855897e-002
2.163831e+003;4.889907e-002
2.165759e+003;4.910345e-002
2.167688e+003;4.907518e-002
2.169616e+003;4.921729e-002
2.171545e+003;4.932644e-002
2.173474e+003;4.905073e-002
2.175402e+003;4.895860e-002
2.177331e+003;4.934110e-002
2.179259e+003;4.969917e-002
2.181188e+003;5.009530e-002
2.183116e+003;5.058654e-002
2.185045e+003;5.122076e-002
2.186973e+003;5.175907e-002
2.188902e+003;5.219423e-002
2.190831e+003;5.248570e-002
2.192759e+003;5.244125e-002
2.194688e+003;5.222573e-002
2.196616e+003;5.199504e-002
2.198545e+003;5.174414e-002
2.200473e+003;5.179322e-002
2.202402e+003;5.189362e-002
2.204330e+003;5.177784e-002
2.206259e+003;5.200072e-002
2.208188e+003;5.218608e-002
2.210116e+003;5.227543e-002
2.212044e+003;5.265837e-002
2.213973e+003;5.293529e-002
2.215902e+003;5.305842e-002
2.217830e+003;5.318007e-002
2.219759e+003;5.369157e-002
2.221687e+003;5.442423e-002
2.223616e+003;5.548212e-002
2.225544e+003;5.695562e-002
2.227473e+003;5.921786e-002
2.229401e+003;6.247328e-002
2.231330e+003;6.679493e-002
2.233259e+003;7.274567e-002
2.235187e+003;7.992648e-002
2.237116e+003;8.710761e-002
2.239044e+003;9.296174e-002
2.240973e+003;9.591791e-002
2.242901e+003;9.538563e-002
2.244830e+003;9.217805e-002
2.246758e+003;8.739463e-002
2.248687e+003;8.186229e-002
2.250615e+003;7.629814e-002
2.252544e+003;7.150884e-002
2.254473e+003;6.756186e-002
2.256401e+003;6.414709e-002
2.258330e+003;6.131512e-002
2.260258e+003;5.913812e-002
2.262187e+003;5.758737e-002
2.264115e+003;5.628860e-002
2.266044e+003;5.537047e-002
2.267972e+003;5.472498e-002
2.269901e+003;5.417135e-002
2.271830e+003;5.354473e-002
2.273758e+003;5.317775e-002
2.275687e+003;5.295925e-002
2.277615e+003;5.257612e-002
2.279544e+003;5.243739e-002
2.281472e+003;5.223219e-002
2.283401e+003;5.175948e-002
2.285329e+003;5.144589e-002
2.287258e+003;5.162687e-002
2.289187e+003;5.181383e-002
2.291115e+003;5.172854e-002
2.293043e+003;5.144175e-002
2.294972e+003;5.122877e-002
2.296901e+003;5.152411e-002
2.298829e+003;5.188734e-002
2.300758e+003;5.158045e-002
2.302686e+003;5.111079e-002
2.304615e+003;5.109171e-002
2.306543e+003;5.113688e-002
2.308472e+003;5.097749e-002
2.310400e+003;5.069824e-002
2.312329e+003;5.053111e-002
2.314258e+003;5.063643e-002
2.316186e+003;5.087109e-002
2.318115e+003;5.088558e-002
2.320043e+003;5.068122e-002
2.321972e+003;5.047517e-002
2.323900e+003;5.023623e-002
2.325829e+003;4.998592e-002
2.327757e+003;4.981357e-002
2.329686e+003;4.991042e-002
2.331615e+003;5.004072e-002
2.333543e+003;4.988905e-002
2.335472e+003;4.986564e-002
2.337400e+003;4.995388e-002
2.339329e+003;4.989269e-002
2.341257e+003;4.995622e-002
2.343186e+003;5.032294e-002
2.345114e+003;5.058632e-002
2.347043e+003;5.081518e-002
2.348971e+003;5.101952e-002
2.350900e+003;5.075890e-002
2.352829e+003;5.012676e-002
2.354757e+003;4.960388e-002
2.356686e+003;4.944078e-002
2.358614e+003;4.943536e-002
2.360543e+003;4.941761e-002
2.362471e+003;4.923844e-002
2.364400e+003;4.908530e-002
2.366328e+003;4.955761e-002
2.368257e+003;5.019851e-002
2.370186e+003;5.028041e-002
2.372114e+003;5.035888e-002
2.374042e+003;5.100529e-002
2.375971e+003;5.141329e-002
2.377900e+003;5.156183e-002
2.379828e+003;5.164493e-002
2.381757e+003;5.163631e-002
2.383685e+003;5.157791e-002
2.385614e+003;5.172667e-002
2.387542e+003;5.182798e-002
2.389471e+003;5.180741e-002
2.391399e+003;5.185572e-002
2.393328e+003;5.192431e-002
2.395257e+003;5.187147e-002
2.397185e+003;5.171211e-002
2.399114e+003;5.175563e-002
2.401042e+003;5.177572e-002
2.402971e+003;5.168330e-002
2.404899e+003;5.174548e-002
2.406828e+003;5.162471e-002
2.408756e+003;5.140579e-002
2.410685e+003;5.155262e-002
2.412614e+003;5.196412e-002
2.414542e+003;5.213479e-002
2.416471e+003;5.201715e-002
2.418399e+003;5.194717e-002
2.420328e+003;5.215720e-002
2.422256e+003;5.219206e-002
2.424185e+003;5.228941e-002
2.426113e+003;5.231957e-002
2.428042e+003;5.213867e-002
2.429970e+003;5.188271e-002
2.431899e+003;5.167628e-002
2.433828e+003;5.176146e-002
2.435756e+003;5.205701e-002
2.437685e+003;5.214506e-002
2.439613e+003;5.215810e-002
2.441542e+003;5.219180e-002
2.443470e+003;5.224015e-002
2.445399e+003;5.213576e-002
2.447327e+003;5.211708e-002
2.449256e+003;5.245994e-002
2.451185e+003;5.295966e-002
2.453113e+003;5.294251e-002
2.455042e+003;5.260821e-002
2.456970e+003;5.233366e-002
2.458899e+003;5.231359e-002
2.460827e+003;5.230828e-002
2.462756e+003;5.236293e-002
2.464684e+003;5.247755e-002
2.466613e+003;5.256718e-002
2.468542e+003;5.258786e-002
2.470470e+003;5.277760e-002
2.472398e+003;5.312675e-002
2.474327e+003;5.334560e-002
2.476256e+003;5.337812e-002
2.478184e+003;5.356324e-002
2.480113e+003;5.376788e-002
2.482041e+003;5.384990e-002
2.483970e+003;5.368542e-002
2.485898e+003;5.362510e-002
2.487827e+003;5.362558e-002
2.489755e+003;5.345388e-002
2.491684e+003;5.352588e-002
2.493613e+003;5.395696e-002
2.495541e+003;5.439279e-002
2.497470e+003;5.440609e-002
2.499398e+003;5.435866e-002
2.501327e+003;5.426197e-002
2.503255e+003;5.411689e-002
2.505184e+003;5.446261e-002
2.507112e+003;5.474528e-002
2.509041e+003;5.471427e-002
2.510969e+003;5.472419e-002
2.512898e+003;5.428938e-002
2.514827e+003;5.409032e-002
2.516755e+003;5.415048e-002
2.518684e+003;5.427935e-002
2.520612e+003;5.448132e-002
2.522541e+003;5.462220e-002
2.524469e+003;5.468015e-002
2.526398e+003;5.472596e-002
2.528326e+003;5.456438e-002
2.530255e+003;5.452223e-002
2.532184e+003;5.452549e-002
2.534112e+003;5.461393e-002
2.536041e+003;5.468852e-002
2.537969e+003;5.440072e-002
2.539898e+003;5.439054e-002
2.541826e+003;5.461777e-002
2.543755e+003;5.463235e-002
2.545683e+003;5.466031e-002
2.547612e+003;5.457711e-002
2.549541e+003;5.449383e-002
2.551469e+003;5.454747e-002
2.553397e+003;5.452793e-002
2.555326e+003;5.439745e-002
2.557255e+003;5.419365e-002
2.559183e+003;5.428104e-002
2.561112e+003;5.454683e-002
2.563040e+003;5.456291e-002
2.564969e+003;5.443196e-002
2.566897e+003;5.427124e-002
2.568826e+003;5.402138e-002
2.570754e+003;5.398596e-002
2.572683e+003;5.393697e-002
2.574612e+003;5.402450e-002
2.576540e+003;5.407531e-002
2.578469e+003;5.384551e-002
2.580397e+003;5.380080e-002
2.582326e+003;5.391423e-002
2.584254e+003;5.379334e-002
2.586183e+003;5.388238e-002
2.588111e+003;5.399298e-002
2.590040e+003;5.372269e-002
2.591969e+003;5.361846e-002
2.593897e+003;5.374864e-002
2.595826e+003;5.383520e-002
2.597754e+003;5.394049e-002
2.599683e+003;5.368043e-002
2.601611e+003;5.346186e-002
2.603540e+003;5.360714e-002
2.605468e+003;5.371298e-002
2.607397e+003;5.391490e-002
2.609325e+003;5.380272e-002
2.611254e+003;5.379154e-002
2.613183e+003;5.404041e-002
2.615111e+003;5.423809e-002
2.617040e+003;5.413122e-002
2.618968e+003;5.406345e-002
2.620897e+003;5.423423e-002
2.622825e+003;5.428382e-002
2.624754e+003;5.415705e-002
2.626682e+003;5.414924e-002
2.628611e+003;5.430121e-002
2.630540e+003;5.459564e-002
2.632468e+003;5.484944e-002
2.634396e+003;5.469995e-002
2.636325e+003;5.433740e-002
2.638254e+003;5.413355e-002
2.640182e+003;5.416054e-002
2.642111e+003;5.419391e-002
2.644039e+003;5.445713e-002
2.645968e+003;5.455562e-002
2.647896e+003;5.429396e-002
2.649825e+003;5.447396e-002
2.651753e+003;5.448556e-002
2.653682e+003;5.430076e-002
2.655611e+003;5.428273e-002
2.657539e+003;5.449263e-002
2.659468e+003;5.435036e-002
2.661396e+003;5.401572e-002
2.663325e+003;5.426250e-002
2.665253e+003;5.457523e-002
2.667182e+003;5.471434e-002
2.669110e+003;5.456118e-002
2.671039e+003;5.425694e-002
2.672968e+003;5.415379e-002
2.674896e+003;5.433324e-002
2.676825e+003;5.433444e-002
2.678753e+003;5.407989e-002
2.680682e+003;5.417938e-002
2.682610e+003;5.436196e-002
2.684539e+003;5.455187e-002
2.686467e+003;5.473708e-002
2.688396e+003;5.485132e-002
2.690324e+003;5.472833e-002
2.692253e+003;5.463242e-002
2.694182e+003;5.467357e-002
2.696110e+003;5.467515e-002
2.698039e+003;5.446025e-002
2.699967e+003;5.449642e-002
2.701896e+003;5.453737e-002
2.703824e+003;5.443463e-002
2.705753e+003;5.464287e-002
2.707681e+003;5.481406e-002
2.709610e+003;5.474407e-002
2.711539e+003;5.434240e-002
2.713467e+003;5.414429e-002
2.715396e+003;5.425555e-002
2.717324e+003;5.452054e-002
2.719253e+003;5.467150e-002
2.721181e+003;5.467037e-002
2.723110e+003;5.461089e-002
2.725038e+003;5.439816e-002
2.726967e+003;5.427767e-002
2.728896e+003;5.436771e-002
2.730824e+003;5.450904e-002
2.732752e+003;5.471536e-002
2.734681e+003;5.497340e-002
2.736610e+003;5.471547e-002
2.738538e+003;5.426257e-002
2.740467e+003;5.441138e-002
2.742395e+003;5.467676e-002
2.744324e+003;5.453000e-002
2.746252e+003;5.452061e-002
2.748181e+003;5.456103e-002
2.750109e+003;5.466609e-002
2.752038e+003;5.472205e-002
2.753967e+003;5.458448e-002
2.755895e+003;5.445048e-002
2.757824e+003;5.451663e-002
2.759752e+003;5.467124e-002
2.761681e+003;5.459718e-002
2.763609e+003;5.438960e-002
2.765538e+003;5.460623e-002
2.767466e+003;5.502790e-002
2.769395e+003;5.508890e-002
2.771323e+003;5.525584e-002
2.773252e+003;5.548657e-002
2.775181e+003;5.550174e-002
2.777109e+003;5.544896e-002
2.779038e+003;5.560642e-002
2.780966e+003;5.611392e-002
2.782895e+003;5.649147e-002
2.784823e+003;5.636424e-002
2.786752e+003;5.615970e-002
2.788680e+003;5.608184e-002
2.790609e+003;5.635899e-002
2.792538e+003;5.671467e-002
2.794466e+003;5.707350e-002
2.796395e+003;5.721118e-002
2.798323e+003;5.743145e-002
2.800252e+003;5.801065e-002
2.802180e+003;5.847074e-002
2.804109e+003;5.854327e-002
2.806037e+003;5.851112e-002
2.807966e+003;5.846566e-002
2.809895e+003;5.860098e-002
2.811823e+003;5.902453e-002
2.813751e+003;5.933077e-002
2.815680e+003;5.926977e-002
2.817609e+003;5.922655e-002
2.819537e+003;5.950842e-002
2.821466e+003;5.959077e-002
2.823394e+003;5.956204e-002
2.825323e+003;6.012164e-002
2.827251e+003;6.075223e-002
2.829180e+003;6.108562e-002
2.831108e+003;6.164413e-002
2.833037e+003;6.252872e-002
2.834966e+003;6.344345e-002
2.836894e+003;6.447022e-002
2.838823e+003;6.606269e-002
2.840751e+003;6.818710e-002
2.842680e+003;7.124438e-002
2.844608e+003;7.542328e-002
2.846537e+003;8.062328e-002
2.848465e+003;8.512381e-002
2.850394e+003;8.626361e-002
2.852323e+003;8.424971e-002
2.854251e+003;8.167830e-002
2.856180e+003;8.012698e-002
2.858108e+003;7.844303e-002
2.860037e+003;7.695794e-002
2.861965e+003;7.607520e-002
2.863894e+003;7.521442e-002
2.865822e+003;7.480478e-002
2.867751e+003;7.492854e-002
2.869679e+003;7.477124e-002
2.871608e+003;7.448586e-002
2.873536e+003;7.410736e-002
2.875465e+003;7.373010e-002
2.877394e+003;7.333888e-002
2.879322e+003;7.299486e-002
2.881251e+003;7.298710e-002
2.883179e+003;7.318521e-002
2.885108e+003;7.336894e-002
2.887036e+003;7.375468e-002
2.888965e+003;7.445294e-002
2.890893e+003;7.508780e-002
2.892822e+003;7.583646e-002
2.894750e+003;7.662768e-002
2.896679e+003;7.761922e-002
2.898608e+003;7.870099e-002
2.900536e+003;7.980803e-002
2.902465e+003;8.109899e-002
2.904393e+003;8.304812e-002
2.906322e+003;8.513501e-002
2.908250e+003;8.760628e-002
2.910179e+003;9.095632e-002
2.912107e+003;9.531250e-002
2.914036e+003;1.008923e-001
2.915965e+003;1.054929e-001
2.917893e+003;1.075857e-001
2.919822e+003;1.077169e-001
2.921750e+003;1.068197e-001
2.923679e+003;1.052612e-001
2.925607e+003;1.028802e-001
2.927536e+003;1.005617e-001
2.929464e+003;9.882703e-002
2.931393e+003;9.706146e-002
2.933322e+003;9.523088e-002
2.935250e+003;9.332886e-002
2.937178e+003;9.152456e-002
2.939107e+003;8.981339e-002
2.941036e+003;8.804843e-002
2.942964e+003;8.641589e-002
2.944893e+003;8.501515e-002
2.946821e+003;8.375181e-002
2.948750e+003;8.252969e-002
2.950678e+003;8.177617e-002
2.952607e+003;8.116769e-002
2.954535e+003;8.005036e-002
2.956464e+003;7.860743e-002
2.958393e+003;7.672533e-002
2.960321e+003;7.487780e-002
2.962250e+003;7.352326e-002
2.964178e+003;7.269423e-002
2.966107e+003;7.235256e-002
2.968035e+003;7.193482e-002
2.969964e+003;7.127983e-002
2.971892e+003;7.050035e-002
2.973821e+003;7.003591e-002
2.975750e+003;6.969119e-002
2.977678e+003;6.939894e-002
2.979607e+003;6.893467e-002
2.981535e+003;6.884657e-002
2.983464e+003;6.837676e-002
2.985392e+003;6.740599e-002
2.987321e+003;6.713226e-002
2.989249e+003;6.711826e-002
2.991178e+003;6.677908e-002
2.993106e+003;6.636643e-002
2.995035e+003;6.610836e-002
2.996964e+003;6.572387e-002
2.998892e+003;6.551576e-002
3.000821e+003;6.549901e-002
3.002749e+003;6.529856e-002
3.004678e+003;6.506309e-002
3.006606e+003;6.478667e-002
3.008535e+003;6.435205e-002
3.010463e+003;6.388792e-002
3.012392e+003;6.355628e-002
3.014321e+003;6.339004e-002
3.016249e+003;6.309189e-002
3.018177e+003;6.280588e-002
3.020106e+003;6.296930e-002
3.022035e+003;6.294379e-002
3.023963e+003;6.239432e-002
3.025892e+003;6.198382e-002
3.027820e+003;6.196884e-002
3.029749e+003;6.224580e-002
3.031677e+003;6.243605e-002
3.033606e+003;6.228584e-002
3.035534e+003;6.187098e-002
3.037463e+003;6.205415e-002
3.039392e+003;6.206210e-002
3.041320e+003;6.160999e-002
3.043249e+003;6.145991e-002
3.045177e+003;6.151420e-002
3.047106e+003;6.171092e-002
3.049034e+003;6.153416e-002
3.050963e+003;6.130832e-002
3.052891e+003;6.104267e-002
3.054820e+003;6.092238e-002
3.056749e+003;6.065689e-002
3.058677e+003;6.035189e-002
3.060606e+003;6.065327e-002
3.062534e+003;6.107055e-002
3.064463e+003;6.104637e-002
3.066391e+003;6.066527e-002
3.068320e+003;6.009481e-002
3.070248e+003;5.982477e-002
3.072177e+003;5.973443e-002
3.074105e+003;5.986242e-002
3.076034e+003;6.025903e-002
3.077963e+003;5.996546e-002
3.079891e+003;5.920753e-002
3.081820e+003;5.903691e-002
3.083748e+003;5.946909e-002
3.085677e+003;5.946328e-002
3.087605e+003;5.905600e-002
3.089534e+003;5.880034e-002
3.091462e+003;5.888893e-002
3.093391e+003;5.897363e-002
3.095320e+003;5.923012e-002
3.097248e+003;5.917077e-002
3.099177e+003;5.858506e-002
3.101105e+003;5.845994e-002
3.103034e+003;5.841233e-002
3.104962e+003;5.836298e-002
3.106891e+003;5.840266e-002
3.108819e+003;5.812428e-002
3.110748e+003;5.794950e-002
3.112677e+003;5.812204e-002
3.114605e+003;5.829658e-002
3.116533e+003;5.795200e-002
3.118462e+003;5.781299e-002
3.120391e+003;5.781692e-002
3.122319e+003;5.756471e-002
3.124248e+003;5.766800e-002
3.126176e+003;5.800274e-002
3.128105e+003;5.790827e-002
3.130033e+003;5.764900e-002
3.131962e+003;5.776378e-002
3.133890e+003;5.758990e-002
3.135819e+003;5.763198e-002
3.137748e+003;5.794022e-002
3.139676e+003;5.780984e-002
3.141605e+003;5.776484e-002
3.143533e+003;5.782760e-002
3.145462e+003;5.786235e-002
3.147390e+003;5.778539e-002
3.149319e+003;5.778024e-002
3.151247e+003;5.797441e-002
3.153176e+003;5.790664e-002
3.155104e+003;5.793754e-002
3.157033e+003;5.801603e-002
3.158962e+003;5.835877e-002
3.160890e+003;5.846115e-002
3.162819e+003;5.837954e-002
3.164747e+003;5.827950e-002
3.166676e+003;5.834217e-002
3.168604e+003;5.875679e-002
3.170533e+003;5.879286e-002
3.172461e+003;5.860344e-002
3.174390e+003;5.839065e-002
3.176319e+003;5.859742e-002
3.178247e+003;5.930725e-002
3.180176e+003;5.936066e-002
3.182104e+003;5.896005e-002
3.184033e+003;5.899519e-002
3.185961e+003;5.969116e-002
3.187890e+003;5.999566e-002
3.189818e+003;5.978507e-002
3.191747e+003;5.957994e-002
3.193676e+003;5.954186e-002
3.195604e+003;5.970511e-002
3.197532e+003;5.973021e-002
3.199461e+003;5.981302e-002
3.201390e+003;6.006475e-002
3.203318e+003;6.019383e-002
3.205247e+003;6.011734e-002
3.207175e+003;6.023182e-002
3.209104e+003;6.052108e-002
3.211032e+003;6.072635e-002
3.212961e+003;6.039784e-002
3.214889e+003;5.991057e-002
3.216818e+003;6.025450e-002
3.218747e+003;6.082575e-002
3.220675e+003;6.081187e-002
3.222604e+003;6.089558e-002
3.224532e+003;6.113295e-002
3.226461e+003;6.099105e-002
3.228389e+003;6.094365e-002
3.230318e+003;6.099067e-002
3.232246e+003;6.099688e-002
3.234175e+003;6.116613e-002
3.236104e+003;6.115709e-002
3.238032e+003;6.094270e-002
3.239961e+003;6.128925e-002
3.241889e+003;6.197518e-002
3.243818e+003;6.224821e-002
3.245746e+003;6.205667e-002
3.247675e+003;6.213649e-002
3.249603e+003;6.258903e-002
3.251532e+003;6.259209e-002
3.253460e+003;6.231533e-002
3.255389e+003;6.222756e-002
3.257318e+003;6.225101e-002
3.259246e+003;6.237813e-002
3.261175e+003;6.270095e-002
3.263103e+003;6.267832e-002
3.265032e+003;6.292931e-002
3.266960e+003;6.342179e-002
3.268889e+003;6.347547e-002
3.270817e+003;6.362882e-002
3.272746e+003;6.364497e-002
3.274675e+003;6.353243e-002
3.276603e+003;6.337141e-002
3.278531e+003;6.346531e-002
3.280460e+003;6.385115e-002
3.282389e+003;6.441223e-002
3.284317e+003;6.458624e-002
3.286246e+003;6.417755e-002
3.288174e+003;6.395824e-002
3.290103e+003;6.392723e-002
3.292031e+003;6.366166e-002
3.293960e+003;6.324141e-002
3.295888e+003;6.291702e-002
3.297817e+003;6.278873e-002
3.299746e+003;6.303094e-002
3.301674e+003;6.317373e-002
3.303603e+003;6.320635e-002
3.305531e+003;6.301193e-002
3.307460e+003;6.276840e-002
3.309388e+003;6.301802e-002
3.311317e+003;6.316029e-002
3.313245e+003;6.283924e-002
3.315174e+003;6.257740e-002
3.317103e+003;6.270179e-002
3.319031e+003;6.225724e-002
3.320960e+003;6.200209e-002
3.322888e+003;6.196468e-002
3.324817e+003;6.190808e-002
3.326745e+003;6.173441e-002
3.328674e+003;6.170833e-002
3.330602e+003;6.126986e-002
3.332531e+003;6.093751e-002
3.334459e+003;6.146690e-002
3.336388e+003;6.142869e-002
3.338317e+003;6.076274e-002
3.340245e+003;6.066904e-002
3.342174e+003;6.048090e-002
3.344102e+003;5.984002e-002
3.346031e+003;5.997599e-002
3.347959e+003;6.019566e-002
3.349888e+003;5.991456e-002
3.351816e+003;5.985637e-002
3.353745e+003;5.985546e-002
3.355674e+003;5.958754e-002
3.357602e+003;5.929275e-002
3.359531e+003;5.951507e-002
3.361459e+003;5.952643e-002
3.363388e+003;5.951518e-002
3.365316e+003;5.940944e-002
3.367245e+003;5.882132e-002
3.369173e+003;5.832637e-002
3.371102e+003;5.865877e-002
3.373031e+003;5.822652e-002
3.374959e+003;5.778327e-002
3.376887e+003;5.807829e-002
3.378816e+003;5.813867e-002
3.380745e+003;5.781537e-002
3.382673e+003;5.742075e-002
3.384602e+003;5.731574e-002
3.386530e+003;5.742192e-002
3.388459e+003;5.741236e-002
3.390387e+003;5.742260e-002
3.392316e+003;5.701784e-002
3.394244e+003;5.670885e-002
3.396173e+003;5.617886e-002
3.398102e+003;5.588802e-002
3.400030e+003;5.581530e-002
3.401959e+003;5.601820e-002
3.403887e+003;5.606898e-002
3.405816e+003;5.590219e-002
3.407744e+003;5.595918e-002
3.409673e+003;5.589985e-002
3.411601e+003;5.556274e-002
3.413530e+003;5.497348e-002
3.415458e+003;5.480797e-002
3.417387e+003;5.512028e-002
3.419316e+003;5.532425e-002
3.421244e+003;5.516490e-002
3.423173e+003;5.529486e-002
3.425101e+003;5.554542e-002
3.427030e+003;5.509571e-002
3.428958e+003;5.470108e-002
3.430887e+003;5.491309e-002
3.432815e+003;5.476561e-002
3.434744e+003;5.428806e-002
3.436673e+003;5.434608e-002
3.438601e+003;5.455806e-002
3.440530e+003;5.440500e-002
3.442458e+003;5.408202e-002
3.444387e+003;5.383058e-002
3.446315e+003;5.359833e-002
3.448244e+003;5.358075e-002
3.450172e+003;5.394218e-002
3.452101e+003;5.412864e-002
3.454030e+003;5.422972e-002
3.455958e+003;5.427286e-002
3.457886e+003;5.396728e-002
3.459815e+003;5.363687e-002
3.461744e+003;5.345980e-002
3.463672e+003;5.352299e-002
3.465601e+003;5.337119e-002
3.467529e+003;5.307534e-002
3.469458e+003;5.287462e-002
3.471386e+003;5.300821e-002
3.473315e+003;5.291422e-002
3.475243e+003;5.314143e-002
3.477172e+003;5.335586e-002
3.479101e+003;5.335777e-002
3.481029e+003;5.336234e-002
3.482958e+003;5.329491e-002
3.484886e+003;5.305014e-002
3.486815e+003;5.265440e-002
3.488743e+003;5.187204e-002
3.490672e+003;5.160027e-002
3.492600e+003;5.216946e-002
3.494529e+003;5.271463e-002
3.496458e+003;5.258233e-002
3.498386e+003;5.236072e-002
3.500315e+003;5.235325e-002
3.502243e+003;5.230365e-002
3.504172e+003;5.254706e-002
3.506100e+003;5.261087e-002
3.508029e+003;5.234615e-002
3.509957e+003;5.219871e-002
3.511886e+003;5.221516e-002
3.513814e+003;5.229935e-002
3.515743e+003;5.249322e-002
3.517672e+003;5.293069e-002
3.519600e+003;5.296093e-002
3.521529e+003;5.269278e-002
3.523457e+003;5.247288e-002
3.525386e+003;5.193514e-002
3.527314e+003;5.189033e-002
3.529243e+003;5.216550e-002
3.531171e+003;5.266080e-002
3.533100e+003;5.281501e-002
3.535029e+003;5.212182e-002
3.536957e+003;5.215840e-002
3.538885e+003;5.255129e-002
3.540814e+003;5.230260e-002
3.542743e+003;5.186132e-002
3.544671e+003;5.173801e-002
3.546600e+003;5.209843e-002
3.548528e+003;5.218653e-002
3.550457e+003;5.142418e-002
3.552385e+003;5.110431e-002
3.554314e+003;5.163990e-002
3.556242e+003;5.190388e-002
3.558171e+003;5.183541e-002
3.560100e+003;5.174649e-002
3.562028e+003;5.154769e-002
3.563957e+003;5.099955e-002
3.565885e+003;5.019319e-002
3.567814e+003;5.016946e-002
3.569742e+003;5.071741e-002
3.571671e+003;5.115735e-002
3.573599e+003;5.124537e-002
3.575528e+003;5.141221e-002
3.577457e+003;5.122427e-002
3.579385e+003;5.066472e-002
3.581314e+003;5.003897e-002
3.583242e+003;4.949344e-002
3.585171e+003;4.900956e-002
3.587099e+003;4.811599e-002
3.589028e+003;4.818607e-002
3.590956e+003;4.947996e-002
3.592885e+003;4.976731e-002
3.594813e+003;4.969946e-002
3.596742e+003;4.991879e-002
3.598671e+003;5.018932e-002
3.600599e+003;5.041083e-002
3.602528e+003;5.050997e-002
3.604456e+003;5.051001e-002
3.606385e+003;4.958398e-002
3.608313e+003;4.898530e-002
3.610242e+003;4.926308e-002
3.612170e+003;4.911491e-002
3.614099e+003;4.920831e-002
3.616028e+003;4.950406e-002
3.617956e+003;4.913268e-002
3.619885e+003;4.926572e-002
3.621813e+003;4.979741e-002
3.623742e+003;4.965864e-002
3.625670e+003;4.878009e-002
3.627599e+003;4.692408e-002
3.629527e+003;4.692054e-002
3.631456e+003;4.900014e-002
3.633385e+003;4.993741e-002
3.635313e+003;4.994759e-002
3.637241e+003;4.957139e-002
3.639170e+003;4.934207e-002
3.641099e+003;4.934337e-002
3.643027e+003;4.908426e-002
3.644956e+003;4.803187e-002
3.646884e+003;4.618749e-002
3.648813e+003;4.461866e-002
3.650741e+003;4.554714e-002
3.652670e+003;4.720820e-002
3.654598e+003;4.701996e-002
3.656527e+003;4.699585e-002
3.658456e+003;4.791549e-002
3.660384e+003;4.804090e-002
3.662313e+003;4.720092e-002
3.664241e+003;4.623580e-002
3.666170e+003;4.533538e-002
3.668098e+003;4.370125e-002
3.670027e+003;4.234509e-002
3.671955e+003;4.313806e-002
3.673884e+003;4.226240e-002
3.675813e+003;4.168897e-002
3.677741e+003;4.322381e-002
3.679669e+003;4.377684e-002
3.681598e+003;4.373576e-002
3.683527e+003;4.330947e-002
3.685455e+003;4.268950e-002
3.687384e+003;4.066985e-002
3.689312e+003;4.052124e-002
3.691241e+003;4.219003e-002
3.693169e+003;4.319651e-002
3.695098e+003;4.340924e-002
3.697026e+003;4.334505e-002
3.698955e+003;4.276295e-002
3.700884e+003;4.195873e-002
3.702812e+003;4.249572e-002
3.704741e+003;4.316243e-002
3.706669e+003;4.256263e-002
3.708598e+003;4.112376e-002
3.710526e+003;3.983420e-002
3.712455e+003;3.982552e-002
3.714383e+003;4.152768e-002
3.716312e+003;4.241669e-002
3.718240e+003;4.214026e-002
3.720169e+003;4.161341e-002
3.722098e+003;4.125229e-002
3.724026e+003;4.112107e-002
3.725955e+003;4.108974e-002
3.727883e+003;4.148390e-002
3.729812e+003;4.086864e-002
3.731740e+003;3.948776e-002
3.733669e+003;3.937347e-002
3.735597e+003;3.919078e-002
3.737526e+003;4.011851e-002
3.739455e+003;4.129907e-002
3.741383e+003;4.069322e-002
3.743312e+003;3.705290e-002
3.745240e+003;3.694217e-002
3.747169e+003;3.873827e-002
3.749097e+003;3.749025e-002
3.751026e+003;3.741004e-002
3.752954e+003;3.942060e-002
3.754883e+003;4.171881e-002
3.756812e+003;4.171024e-002
3.758740e+003;4.150330e-002
3.760668e+003;4.165097e-002
3.762597e+003;4.166560e-002
3.764526e+003;4.145525e-002
3.766454e+003;4.183751e-002
3.768383e+003;4.148357e-002
3.770311e+003;4.147486e-002
3.772240e+003;4.199596e-002
3.774168e+003;4.208845e-002
3.776097e+003;4.193151e-002
3.778025e+003;4.138545e-002
3.779954e+003;4.124132e-002
3.781883e+003;4.177174e-002
3.783811e+003;4.199530e-002
3.785740e+003;4.241867e-002
3.787668e+003;4.274971e-002
3.789597e+003;4.265890e-002
3.791525e+003;4.242904e-002
3.793454e+003;4.229622e-002
3.795382e+003;4.167949e-002
3.797311e+003;4.117338e-002
3.799240e+003;3.988083e-002
3.801168e+003;3.899072e-002
3.803097e+003;4.076520e-002
3.805025e+003;4.107437e-002
3.806954e+003;4.031108e-002
3.808882e+003;4.164185e-002
3.810811e+003;4.236273e-002
3.812739e+003;4.187601e-002
3.814668e+003;3.997201e-002
3.816596e+003;3.921362e-002
3.818525e+003;3.979364e-002
3.820454e+003;3.955302e-002
3.822382e+003;4.071811e-002
3.824311e+003;4.170564e-002
3.826239e+003;4.128924e-002
3.828168e+003;4.168631e-002
3.830096e+003;4.158456e-002
3.832025e+003;4.099145e-002
3.833953e+003;4.104899e-002
3.835882e+003;4.030327e-002
3.837811e+003;3.927956e-002
3.839739e+003;4.057373e-002
3.841667e+003;4.163088e-002
3.843596e+003;4.193975e-002
3.845525e+003;4.239719e-002
3.847453e+003;4.273089e-002
3.849382e+003;4.157359e-002
3.851310e+003;3.794653e-002
3.853239e+003;3.553565e-002
3.855167e+003;3.849563e-002
3.857096e+003;4.196840e-002
3.859024e+003;4.218681e-002
3.860953e+003;4.135738e-002
3.862882e+003;4.098595e-002
3.864810e+003;4.135530e-002
3.866739e+003;4.157220e-002
3.868667e+003;4.018814e-002
3.870596e+003;4.059938e-002
3.872524e+003;4.202038e-002
3.874453e+003;4.233936e-002
3.876381e+003;4.279958e-002
3.878310e+003;4.273345e-002
3.880239e+003;4.234422e-002
3.882167e+003;4.208838e-002
3.884096e+003;4.094892e-002
3.886024e+003;4.102182e-002
3.887953e+003;4.238151e-002
3.889881e+003;4.218703e-002
3.891810e+003;4.231153e-002
3.893738e+003;4.300583e-002
3.895667e+003;4.320251e-002
3.897595e+003;4.247698e-002
3.899524e+003;4.163544e-002
3.901453e+003;4.146184e-002
3.903381e+003;4.133136e-002
3.905310e+003;4.187079e-002
3.907238e+003;4.232738e-002
3.909167e+003;4.238297e-002
3.911095e+003;4.242488e-002
3.913024e+003;4.208940e-002
3.914952e+003;4.179727e-002
3.916881e+003;4.227869e-002
3.918810e+003;4.297108e-002
3.920738e+003;4.337811e-002
3.922667e+003;4.337094e-002
3.924595e+003;4.334176e-002
3.926524e+003;4.395726e-002
3.928452e+003;4.368978e-002
3.930381e+003;4.288830e-002
3.932309e+003;4.263248e-002
3.934238e+003;4.323322e-002
3.936167e+003;4.356939e-002
3.938095e+003;4.338855e-002
3.940023e+003;4.293062e-002
3.941952e+003;4.255843e-002
3.943881e+003;4.273816e-002
3.945809e+003;4.336658e-002
3.947738e+003;4.354064e-002
3.949666e+003;4.343113e-002
3.951595e+003;4.400229e-002
3.953523e+003;4.454137e-002
3.955452e+003;4.395070e-002
3.957380e+003;4.291061e-002
3.959309e+003;4.291178e-002
3.961238e+003;4.334845e-002
3.963166e+003;4.318618e-002
3.965095e+003;4.326393e-002
3.967023e+003;4.361654e-002
3.968952e+003;4.375387e-002
3.970880e+003;4.396423e-002
3.972809e+003;4.390095e-002
3.974737e+003;4.361709e-002
3.976666e+003;4.380701e-002
3.978594e+003;4.401420e-002
3.980523e+003;4.412371e-002
3.982452e+003;4.459461e-002
3.984380e+003;4.462340e-002
3.986309e+003;4.424351e-002
3.988237e+003;4.404618e-002
3.990166e+003;4.381386e-002
3.992094e+003;4.418387e-002
3.994023e+003;4.427562e-002
3.995951e+003;4.414253e-002
3.997880e+003;4.450220e-002
3.999809e+003;4.495334e-002
4.001737e+003;0.000000e+000
