3.992094e+002;0.000000e+000
4.011380e+002;0.000000e+000
4.030665e+002;0.000000e+000
4.049951e+002;0.000000e+000
4.069236e+002;0.000000e+000
4.088522e+002;0.000000e+000
4.107807e+002;0.000000e+000
4.127093e+002;0.000000e+000
4.146378e+002;0.000000e+000
4.165664e+002;0.000000e+000
4.184949e+002;0.000000e+000
4.204235e+002;0.000000e+000
4.223520e+002;0.000000e+000
4.242806e+002;0.000000e+000
4.262091e+002;0.000000e+000
4.281377e+002;0.000000e+000
4.300662e+002;0.000000e+000
4.319948e+002;0.000000e+000
4.339233e+002;0.000000e+000
4.358519e+002;0.000000e+000
4.377804e+002;0.000000e+000
4.397090e+002;0.000000e+000
4.416375e+002;0.000000e+000
4.435660e+002;0.000000e+000
4.454946e+002;0.000000e+000
4.474232e+002;0.000000e+000
4.493517e+002;0.000000e+000
4.512802e+002;0.000000e+000
4.532088e+002;0.000000e+000
4.551373e+002;0.000000e+000
4.570659e+002;0.000000e+000
4.589944e+002;0.000000e+000
4.609230e+002;0.000000e+000
4.628515e+002;0.000000e+000
4.647801e+002;0.000000e+000
4.667086e+002;0.000000e+000
4.686372e+002;0.000000e+000
4.705657e+002;0.000000e+000
4.724943e+002;0.000000e+000
4.744228e+002;0.000000e+000
4.763513e+002;0.000000e+000
4.782799e+002;0.000000e+000
4.802085e+002;0.000000e+000
4.821370e+002;0.000000e+000
4.840656e+002;0.000000e+000
4.859941e+002;0.000000e+000
4.879226e+002;0.000000e+000
4.898512e+002;0.000000e+000
4.917798e+002;0.000000e+000
4.937083e+002;0.000000e+000
4.956368e+002;0.000000e+000
4.975654e+002;0.000000e+000
4.994939e+002;0.000000e+000
5.014225e+002;0.000000e+000
5.033510e+002;0.000000e+000
5.052796e+002;0.000000e+000
5.072081e+002;0.000000e+000
5.091367e+002;0.000000e+000
5.110652e+002;0.000000e+000
5.129938e+002;0.000000e+000
5.149223e+002;0.000000e+000
5.168509e+002;0.000000e+000
5.187794e+002;0.000000e+000
5.207079e+002;0.000000e+000
5.226365e+002;0.000000e+000
5.245651e+002;0.000000e+000
5.264936e+002;0.000000e+000
5.284222e+002;0.000000e+000
5.303507e+002;0.000000e+000
5.322792e+002;0.000000e+000
5.342078e+002;0.000000e+000
5.361364e+002;0.000000e+000
5.380649e+002;0.000000e+000
5.399935e+002;0.000000e+000
5.419220e+002;0.000000e+000
5.438505e+002;0.000000e+000
5.457791e+002;0.000000e+000
5.477076e+002;0.000000e+000
5.496362e+002;0.000000e+000
5.515648e+002;0.000000e+000
5.534933e+002;0.000000e+000
5.554218e+002;0.000000e+000
5.573504e+002;0.000000e+000
5.592789e+002;0.000000e+000
5.612075e+002;0.000000e+000
5.631360e+002;0.000000e+000
5.650646e+002;0.000000e+000
5.669931e+002;0.000000e+000
5.689217e+002;0.000000e+000
5.708502e+002;0.000000e+000
5.727787e+002;0.000000e+000
5.747073e+002;0.000000e+000
5.766359e+002;0.000000e+000
5.785644e+002;0.000000e+000
5.804930e+002;0.000000e+000
5.824215e+002;0.000000e+000
5.843500e+002;0.000000e+000
5.862786e+002;0.000000e+000
5.882072e+002;0.000000e+000
5.901357e+002;0.000000e+000
5.920643e+002;0.000000e+000
5.939928e+002;0.000000e+000
5.959213e+002;0.000000e+000
5.978499e+002;0.000000e+000
5.997784e+002;4.459813e-002
6.017070e+002;4.596186e-002
6.036355e+002;4.416838e-002
6.055641e+002;4.347548e-002
6.074926e+002;4.290454e-002
6.094211e+002;3.846887e-002
6.113497e+002;3.663455e-002
6.132783e+002;3.762692e-002
6.152068e+002;3.856145e-002
6.171354e+002;4.328490e-002
6.190639e+002;4.665156e-002
6.209924e+002;4.678380e-002
6.229210e+002;4.928899e-002
6.248495e+002;4.959779e-002
6.267781e+002;5.063669e-002
6.287067e+002;5.166221e-002
6.306352e+002;4.971325e-002
6.325637e+002;4.771833e-002
6.344923e+002;4.628195e-002
6.364208e+002;4.454743e-002
6.383494e+002;4.579228e-002
6.402780e+002;4.674988e-002
6.422065e+002;4.494738e-002
6.441350e+002;4.544357e-002
6.460636e+002;4.685406e-002
6.479921e+002;4.529294e-002
6.499207e+002;4.413057e-002
6.518492e+002;4.319186e-002
6.537778e+002;4.287697e-002
6.557063e+002;4.190567e-002
6.576349e+002;4.343571e-002
6.595634e+002;4.535440e-002
6.614919e+002;4.404515e-002
6.634205e+002;4.417576e-002
6.653491e+002;4.473272e-002
6.672776e+002;4.354525e-002
6.692062e+002;4.409242e-002
6.711347e+002;4.556068e-002
6.730632e+002;4.639616e-002
6.749918e+002;4.621719e-002
6.769203e+002;4.593572e-002
6.788489e+002;4.418107e-002
6.807775e+002;4.170042e-002
6.827060e+002;4.043104e-002
6.846345e+002;3.910122e-002
6.865631e+002;3.903854e-002
6.884916e+002;3.922280e-002
6.904202e+002;3.767755e-002
6.923488e+002;3.725433e-002
6.942773e+002;3.867281e-002
6.962058e+002;3.932562e-002
6.981344e+002;3.792414e-002
7.000629e+002;3.653492e-002
7.019915e+002;3.498338e-002
7.039200e+002;3.416166e-002
7.058486e+002;3.413675e-002
7.077771e+002;3.487476e-002
7.097057e+002;3.655600e-002
7.116342e+002;3.682090e-002
7.135627e+002;3.668892e-002
7.154913e+002;3.850732e-002
7.174199e+002;3.921783e-002
7.193484e+002;3.854092e-002
7.212770e+002;3.724664e-002
7.232055e+002;3.713503e-002
7.251340e+002;3.830541e-002
7.270626e+002;3.957414e-002
7.289911e+002;3.987938e-002
7.309197e+002;4.061666e-002
7.328483e+002;4.135425e-002
7.347768e+002;4.205662e-002
7.367053e+002;4.271608e-002
7.386339e+002;4.266625e-002
7.405624e+002;4.297799e-002
7.424910e+002;4.348467e-002
7.444196e+002;4.348083e-002
7.463481e+002;4.393629e-002
7.482766e+002;4.403038e-002
7.502052e+002;4.441719e-002
7.521337e+002;4.559086e-002
7.540623e+002;4.589123e-002
7.559908e+002;4.614120e-002
7.579194e+002;4.566255e-002
7.598479e+002;4.604036e-002
7.617765e+002;4.659423e-002
7.637050e+002;4.684794e-002
7.656335e+002;4.655904e-002
7.675621e+002;4.547797e-002
7.694907e+002;4.473717e-002
7.714192e+002;4.445279e-002
7.733478e+002;4.387313e-002
7.752763e+002;4.237771e-002
7.772048e+002;4.144559e-002
7.791334e+002;3.982436e-002
7.810620e+002;3.822728e-002
7.829905e+002;3.664472e-002
7.849191e+002;3.412718e-002
7.868476e+002;3.162858e-002
7.887761e+002;2.882563e-002
7.907047e+002;2.601236e-002
7.926332e+002;2.366501e-002
7.945618e+002;2.163982e-002
7.964903e+002;1.991358e-002
7.984189e+002;1.884720e-002
8.003474e+002;1.894999e-002
8.022759e+002;1.999125e-002
8.042045e+002;2.169227e-002
8.061331e+002;2.312427e-002
8.080616e+002;2.447423e-002
8.099902e+002;2.580520e-002
8.119187e+002;2.706736e-002
8.138472e+002;2.812975e-002
8.157758e+002;2.904156e-002
8.177043e+002;3.037255e-002
8.196329e+002;3.134080e-002
8.215615e+002;3.309156e-002
8.234900e+002;3.576513e-002
8.254185e+002;3.819548e-002
8.273471e+002;4.010252e-002
8.292756e+002;4.122059e-002
8.312042e+002;4.191417e-002
8.331328e+002;4.245995e-002
8.350613e+002;4.303576e-002
8.369898e+002;4.307717e-002
8.389184e+002;4.241355e-002
8.408469e+002;4.173876e-002
8.427755e+002;4.082871e-002
8.447040e+002;3.954402e-002
8.466326e+002;3.807401e-002
8.485611e+002;3.673756e-002
8.504897e+002;3.498151e-002
8.524182e+002;3.350433e-002
8.543467e+002;3.273335e-002
8.562753e+002;3.217556e-002
8.582039e+002;3.207488e-002
8.601324e+002;3.134493e-002
8.620610e+002;3.079010e-002
8.639895e+002;3.097524e-002
8.659180e+002;3.069326e-002
8.678466e+002;3.026038e-002
8.697751e+002;2.986478e-002
8.717037e+002;2.968168e-002
8.736323e+002;2.956337e-002
8.755608e+002;2.971453e-002
8.774893e+002;2.966993e-002
8.794179e+002;2.919246e-002
8.813464e+002;2.918361e-002
8.832750e+002;2.904340e-002
8.852036e+002;2.906934e-002
8.871321e+002;2.912617e-002
8.890606e+002;2.902119e-002
8.909892e+002;2.923662e-002
8.929177e+002;2.922716e-002
8.948463e+002;2.892885e-002
8.967748e+002;2.901138e-002
8.987034e+002;2.895088e-002
9.006319e+002;2.900840e-002
9.025605e+002;2.930258e-002
9.044890e+002;2.926753e-002
9.064175e+002;2.967142e-002
9.083461e+002;3.011053e-002
9.102747e+002;3.006969e-002
9.122032e+002;3.022259e-002
9.141318e+002;3.075051e-002
9.160603e+002;3.128581e-002
9.179888e+002;3.125630e-002
9.199174e+002;3.102214e-002
9.218459e+002;3.110439e-002
9.237745e+002;3.128257e-002
9.257031e+002;3.157100e-002
9.276316e+002;3.169166e-002
9.295601e+002;3.162120e-002
9.314887e+002;3.180007e-002
9.334172e+002;3.252164e-002
9.353458e+002;3.315024e-002
9.372744e+002;3.343529e-002
9.392029e+002;3.370194e-002
9.411314e+002;3.412923e-002
9.430600e+002;3.473949e-002
9.449885e+002;3.522928e-002
9.469171e+002;3.571710e-002
9.488456e+002;3.621336e-002
9.507742e+002;3.666718e-002
9.527027e+002;3.709573e-002
9.546313e+002;3.751510e-002
9.565598e+002;3.787927e-002
9.584883e+002;3.795303e-002
9.604169e+002;3.775011e-002
9.623455e+002;3.739779e-002
9.642740e+002;3.735424e-002
9.662026e+002;3.743214e-002
9.681311e+002;3.683204e-002
9.700596e+002;3.625327e-002
9.719882e+002;3.616942e-002
9.739167e+002;3.597169e-002
9.758453e+002;3.565275e-002
9.777739e+002;3.536466e-002
9.797024e+002;3.495131e-002
9.816309e+002;3.474254e-002
9.835595e+002;3.522590e-002
9.854880e+002;3.534543e-002
9.874166e+002;3.509293e-002
9.893452e+002;3.504124e-002
9.912737e+002;3.473443e-002
9.932022e+002;3.480392e-002
9.951307e+002;3.502619e-002
9.970593e+002;3.523399e-002
9.989879e+002;3.551533e-002
1.000916e+003;3.570095e-002
1.002845e+003;3.561944e-002
1.004773e+003;3.550620e-002
1.006702e+003;3.515242e-002
1.008631e+003;3.437303e-002
1.010559e+003;3.349845e-002
1.012488e+003;3.269512e-002
1.014416e+003;3.258381e-002
1.016345e+003;3.350773e-002
1.018273e+003;3.482636e-002
1.020202e+003;3.637773e-002
1.022130e+003;3.826716e-002
1.024059e+003;3.972188e-002
1.025988e+003;4.087625e-002
1.027916e+003;4.262184e-002
1.029845e+003;4.506554e-002
1.031773e+003;4.863141e-002
1.033702e+003;5.204685e-002
1.035630e+003;5.451310e-002
1.037559e+003;5.574194e-002
1.039487e+003;5.564262e-002
1.041416e+003;5.590694e-002
1.043344e+003;5.660586e-002
1.045273e+003;5.755351e-002
1.047202e+003;5.830124e-002
1.049130e+003;5.876115e-002
1.051059e+003;5.899694e-002
1.052987e+003;5.967542e-002
1.054916e+003;6.084922e-002
1.056844e+003;6.196353e-002
1.058773e+003;6.337383e-002
1.060701e+003;6.479779e-002
1.062630e+003;6.572842e-002
1.064558e+003;6.654579e-002
1.066487e+003;6.717616e-002
1.068416e+003;6.770728e-002
1.070344e+003;6.817470e-002
1.072273e+003;6.804439e-002
1.074201e+003;6.697439e-002
1.076130e+003;6.542835e-002
1.078058e+003;6.430770e-002
1.079987e+003;6.285421e-002
1.081915e+003;6.021237e-002
1.083844e+003;5.760496e-002
1.085773e+003;5.565358e-002
1.087701e+003;5.414496e-002
1.089630e+003;5.288518e-002
1.091558e+003;5.100689e-002
1.093487e+003;4.932087e-002
1.095415e+003;4.847064e-002
1.097344e+003;4.795856e-002
1.099272e+003;4.755756e-002
1.101201e+003;4.720410e-002
1.103129e+003;4.717086e-002
1.105058e+003;4.742383e-002
1.106987e+003;4.730987e-002
1.108915e+003;4.689921e-002
1.110844e+003;4.698869e-002
1.112772e+003;4.687208e-002
1.114701e+003;4.616162e-002
1.116629e+003;4.530717e-002
1.118558e+003;4.445158e-002
1.120486e+003;4.351335e-002
1.122415e+003;4.241867e-002
1.124344e+003;4.118824e-002
1.126272e+003;3.940380e-002
1.128201e+003;3.758118e-002
1.130129e+003;3.579579e-002
1.132058e+003;3.447719e-002
1.133986e+003;3.374305e-002
1.135915e+003;3.336870e-002
1.137843e+003;3.365582e-002
1.139772e+003;3.445211e-002
1.141700e+003;3.579028e-002
1.143629e+003;3.777607e-002
1.145557e+003;4.026851e-002
1.147486e+003;4.359082e-002
1.149415e+003;4.806551e-002
1.151343e+003;5.324224e-002
1.153272e+003;5.867516e-002
1.155200e+003;6.405312e-002
1.157129e+003;6.922147e-002
1.159057e+003;7.447925e-002
1.160986e+003;8.018930e-002
1.162914e+003;8.491094e-002
1.164843e+003;8.842125e-002
1.166771e+003;9.071943e-002
1.168700e+003;9.170499e-002
1.170629e+003;9.172582e-002
1.172557e+003;9.084705e-002
1.174486e+003;8.928193e-002
1.176414e+003;8.757353e-002
1.178343e+003;8.564010e-002
1.180271e+003;8.364647e-002
1.182200e+003;8.171502e-002
1.184128e+003;7.950628e-002
1.186057e+003;7.797731e-002
1.187986e+003;7.796162e-002
1.189914e+003;7.883593e-002
1.191843e+003;7.998838e-002
1.193771e+003;8.098519e-002
1.195700e+003;8.212226e-002
1.197628e+003;8.349003e-002
1.199557e+003;8.449057e-002
1.201485e+003;8.522834e-002
1.203414e+003;8.571836e-002
1.205343e+003;8.600302e-002
1.207271e+003;8.614538e-002
1.209200e+003;8.580773e-002
1.211128e+003;8.570863e-002
1.213057e+003;8.601683e-002
1.214985e+003;8.648247e-002
1.216914e+003;8.707979e-002
1.218842e+003;8.738811e-002
1.220771e+003;8.765744e-002
1.222699e+003;8.806085e-002
1.224628e+003;8.817802e-002
1.226557e+003;8.803110e-002
1.228485e+003;8.767208e-002
1.230414e+003;8.739216e-002
1.232342e+003;8.697148e-002
1.234271e+003;8.630100e-002
1.236199e+003;8.548439e-002
1.238128e+003;8.475944e-002
1.240056e+003;8.407495e-002
1.241985e+003;8.361092e-002
1.243913e+003;8.289595e-002
1.245842e+003;8.203924e-002
1.247771e+003;8.128134e-002
1.249699e+003;8.041031e-002
1.251628e+003;7.945141e-002
1.253556e+003;7.729772e-002
1.255485e+003;7.345604e-002
1.257413e+003;6.963020e-002
1.259342e+003;6.691056e-002
1.261270e+003;6.566359e-002
1.263199e+003;6.651258e-002
1.265127e+003;6.897117e-002
1.267056e+003;7.120592e-002
1.268985e+003;7.251467e-002
1.270913e+003;7.316988e-002
1.272842e+003;7.321980e-002
1.274770e+003;7.254251e-002
1.276699e+003;7.115287e-002
1.278627e+003;6.951554e-002
1.280556e+003;6.805194e-002
1.282484e+003;6.658762e-002
1.284413e+003;6.504885e-002
1.286342e+003;6.365015e-002
1.288270e+003;6.260265e-002
1.290199e+003;6.144335e-002
1.292127e+003;6.037911e-002
1.294056e+003;5.926840e-002
1.295984e+003;5.809761e-002
1.297913e+003;5.744651e-002
1.299841e+003;5.681711e-002
1.301770e+003;5.608557e-002
1.303698e+003;5.561275e-002
1.305627e+003;5.512032e-002
1.307556e+003;5.467109e-002
1.309484e+003;5.453042e-002
1.311413e+003;5.446344e-002
1.313341e+003;5.425653e-002
1.315270e+003;5.425045e-002
1.317198e+003;5.386847e-002
1.319127e+003;5.370447e-002
1.321055e+003;5.416763e-002
1.322984e+003;5.448842e-002
1.324912e+003;5.478812e-002
1.326841e+003;5.546752e-002
1.328770e+003;5.609813e-002
1.330698e+003;5.653076e-002
1.332627e+003;5.673517e-002
1.334555e+003;5.694073e-002
1.336484e+003;5.694315e-002
1.338412e+003;5.682039e-002
1.340341e+003;5.729234e-002
1.342269e+003;5.831087e-002
1.344198e+003;5.936769e-002
1.346126e+003;6.057738e-002
1.348055e+003;6.158406e-002
1.349984e+003;6.220623e-002
1.351912e+003;6.286371e-002
1.353841e+003;6.353779e-002
1.355769e+003;6.370064e-002
1.357698e+003;6.366385e-002
1.359626e+003;6.337275e-002
1.361555e+003;6.266236e-002
1.363483e+003;6.229770e-002
1.365412e+003;6.226366e-002
1.367341e+003;6.135614e-002
1.369269e+003;6.027799e-002
1.371198e+003;5.944432e-002
1.373126e+003;5.837625e-002
1.375055e+003;5.761522e-002
1.376983e+003;5.718011e-002
1.378912e+003;5.648788e-002
1.380840e+003;5.538327e-002
1.382769e+003;5.379672e-002
1.384698e+003;5.173667e-002
1.386626e+003;4.891428e-002
1.388555e+003;4.684716e-002
1.390483e+003;4.494650e-002
1.392412e+003;4.175740e-002
1.394340e+003;3.835304e-002
1.396269e+003;3.635528e-002
1.398197e+003;3.467711e-002
1.400126e+003;3.384731e-002
1.402054e+003;3.350611e-002
1.403983e+003;3.271348e-002
1.405911e+003;3.263096e-002
1.407840e+003;3.296231e-002
1.409769e+003;3.319173e-002
1.411697e+003;3.355537e-002
1.413626e+003;3.416228e-002
1.415554e+003;3.481404e-002
1.417483e+003;3.477689e-002
1.419411e+003;3.570940e-002
1.421340e+003;3.979298e-002
1.423268e+003;4.461690e-002
1.425197e+003;5.049076e-002
1.427125e+003;5.765778e-002
1.429054e+003;6.535032e-002
1.430983e+003;7.377188e-002
1.432911e+003;8.206282e-002
1.434840e+003;8.833182e-002
1.436768e+003;9.398989e-002
1.438697e+003;1.018966e-001
1.440625e+003;1.094065e-001
1.442554e+003;1.160442e-001
1.444482e+003;1.221296e-001
1.446411e+003;1.267959e-001
1.448340e+003;1.301774e-001
1.450268e+003;1.320002e-001
1.452197e+003;1.310162e-001
1.454125e+003;1.262337e-001
1.456054e+003;1.166833e-001
1.457982e+003;1.078461e-001
1.459911e+003;1.007594e-001
1.461839e+003;9.150009e-002
1.463768e+003;8.012518e-002
1.465697e+003;7.013995e-002
1.467625e+003;6.279233e-002
1.469554e+003;5.566838e-002
1.471482e+003;4.813832e-002
1.473411e+003;4.339484e-002
1.475339e+003;4.094000e-002
1.477268e+003;3.798059e-002
1.479196e+003;3.526985e-002
1.481125e+003;3.352079e-002
1.483053e+003;3.263489e-002
1.484982e+003;3.120837e-002
1.486911e+003;2.930553e-002
1.488839e+003;2.734347e-002
1.490768e+003;2.655978e-002
1.492696e+003;2.689587e-002
1.494625e+003;2.556181e-002
1.496553e+003;2.410505e-002
1.498482e+003;2.473386e-002
1.500410e+003;2.551148e-002
1.502339e+003;2.520399e-002
1.504267e+003;2.199345e-002
1.506196e+003;1.882018e-002
1.508125e+003;2.069039e-002
1.510053e+003;2.341966e-002
1.511982e+003;2.418909e-002
1.513910e+003;2.442768e-002
1.515839e+003;2.419301e-002
1.517767e+003;2.443452e-002
1.519696e+003;2.344407e-002
1.521624e+003;2.255006e-002
1.523553e+003;2.429777e-002
1.525481e+003;2.547389e-002
1.527410e+003;2.658535e-002
1.529339e+003;2.773654e-002
1.531267e+003;2.816262e-002
1.533196e+003;2.802614e-002
1.535124e+003;2.941114e-002
1.537053e+003;2.893211e-002
1.538981e+003;2.619991e-002
1.540910e+003;2.709501e-002
1.542838e+003;3.002627e-002
1.544767e+003;3.169983e-002
1.546695e+003;3.263718e-002
1.548624e+003;3.257739e-002
1.550553e+003;3.263929e-002
1.552481e+003;3.235337e-002
1.554410e+003;3.116159e-002
1.556338e+003;2.931818e-002
1.558267e+003;2.564939e-002
1.560195e+003;2.631131e-002
1.562124e+003;2.996232e-002
1.564052e+003;3.055964e-002
1.565981e+003;2.982528e-002
1.567910e+003;2.854359e-002
1.569838e+003;2.748969e-002
1.571767e+003;2.836047e-002
1.573695e+003;2.797780e-002
1.575624e+003;2.591830e-002
1.577552e+003;2.708493e-002
1.579481e+003;2.883278e-002
1.581409e+003;2.864866e-002
1.583338e+003;2.763589e-002
1.585266e+003;2.647511e-002
1.587195e+003;2.574712e-002
1.589124e+003;2.529368e-002
1.591052e+003;2.495538e-002
1.592981e+003;2.472649e-002
1.594909e+003;2.503488e-002
1.596838e+003;2.572328e-002
1.598766e+003;2.651409e-002
1.600695e+003;2.715007e-002
1.602623e+003;2.782382e-002
1.604552e+003;2.856015e-002
1.606480e+003;2.889209e-002
1.608409e+003;2.908011e-002
1.610338e+003;2.947294e-002
1.612266e+003;2.954412e-002
1.614195e+003;2.833320e-002
1.616123e+003;2.619632e-002
1.618052e+003;2.709434e-002
1.619980e+003;2.878898e-002
1.621909e+003;2.845397e-002
1.623837e+003;2.842471e-002
1.625766e+003;2.923499e-002
1.627694e+003;2.966507e-002
1.629623e+003;3.037365e-002
1.631552e+003;3.071481e-002
1.633480e+003;2.902548e-002
1.635409e+003;2.735526e-002
1.637337e+003;2.948844e-002
1.639266e+003;3.165096e-002
1.641194e+003;3.214252e-002
1.643123e+003;3.186439e-002
1.645051e+003;3.054155e-002
1.646980e+003;3.067484e-002
1.648909e+003;3.230072e-002
1.650837e+003;3.015986e-002
1.652766e+003;2.710739e-002
1.654694e+003;3.152211e-002
1.656623e+003;3.624862e-002
1.658551e+003;3.747349e-002
1.660480e+003;3.758931e-002
1.662408e+003;3.765037e-002
1.664337e+003;3.897387e-002
1.666266e+003;3.952812e-002
1.668194e+003;3.802492e-002
1.670123e+003;3.715658e-002
1.672051e+003;3.755946e-002
1.673980e+003;3.645909e-002
1.675908e+003;3.544731e-002
1.677837e+003;3.564624e-002
1.679765e+003;3.470704e-002
1.681694e+003;3.199933e-002
1.683622e+003;2.762000e-002
1.685551e+003;2.751955e-002
1.687479e+003;2.981463e-002
1.689408e+003;3.009846e-002
1.691337e+003;2.987635e-002
1.693265e+003;2.820031e-002
1.695194e+003;2.534173e-002
1.697122e+003;2.602443e-002
1.699051e+003;2.604810e-002
1.700979e+003;2.715680e-002
1.702908e+003;3.153661e-002
1.704836e+003;3.467751e-002
1.706765e+003;3.916532e-002
1.708693e+003;4.481816e-002
1.710622e+003;5.089154e-002
1.712551e+003;5.734467e-002
1.714479e+003;6.409732e-002
1.716408e+003;7.082868e-002
1.718336e+003;8.015308e-002
1.720265e+003;9.110460e-002
1.722193e+003;9.973666e-002
1.724122e+003;1.063046e-001
1.726050e+003;1.115338e-001
1.727979e+003;1.148373e-001
1.729908e+003;1.160428e-001
1.731836e+003;1.140316e-001
1.733765e+003;1.098662e-001
1.735693e+003;1.076598e-001
1.737622e+003;1.036133e-001
1.739550e+003;9.637246e-002
1.741479e+003;8.864997e-002
1.743407e+003;7.994197e-002
1.745336e+003;7.081569e-002
1.747265e+003;6.172605e-002
1.749193e+003;5.251165e-002
1.751122e+003;4.380656e-002
1.753050e+003;3.727787e-002
1.754979e+003;3.124430e-002
1.756907e+003;2.549655e-002
1.758836e+003;2.093313e-002
1.760764e+003;1.675558e-002
1.762693e+003;1.411782e-002
1.764621e+003;1.255176e-002
1.766550e+003;1.014533e-002
1.768479e+003;8.414636e-003
1.770407e+003;6.715910e-003
1.772336e+003;5.144456e-003
1.774264e+003;5.821663e-003
1.776193e+003;6.399879e-003
1.778121e+003;6.081223e-003
1.780050e+003;5.371741e-003
1.781978e+003;4.924596e-003
1.783907e+003;4.486079e-003
1.785835e+003;4.133063e-003
1.787764e+003;4.047370e-003
1.789693e+003;3.307578e-003
1.791621e+003;2.184046e-003
1.793550e+003;2.302814e-003
1.795478e+003;3.197647e-003
1.797407e+003;3.078434e-003
1.799335e+003;2.530115e-003
1.801264e+003;2.305678e-003
1.803192e+003;2.649278e-003
1.805121e+003;2.708154e-003
1.807049e+003;2.446304e-003
1.808978e+003;2.030355e-003
1.810907e+003;1.830432e-003
1.812835e+003;1.971038e-003
1.814764e+003;2.179450e-003
1.816692e+003;2.031354e-003
1.818621e+003;1.876586e-003
1.820549e+003;1.825974e-003
1.822478e+003;1.596413e-003
1.824406e+003;9.466101e-004
1.826335e+003;8.910926e-004
1.828264e+003;4.706921e-004
1.830192e+003;6.560590e-006
1.832121e+003;5.115262e-004
1.834049e+003;8.598506e-004
1.835978e+003;5.670284e-004
1.837906e+003;3.503349e-004
1.839835e+003;2.833885e-004
1.841763e+003;-2.946273e-004
1.843692e+003;-1.191917e-003
1.845620e+003;-7.692871e-004
1.847549e+003;-9.071152e-005
1.849478e+003;1.875427e-005
1.851406e+003;-7.649976e-005
1.853335e+003;-1.694144e-004
1.855263e+003;-3.046269e-004
1.857192e+003;-5.575529e-004
1.859120e+003;-6.327966e-004
1.861049e+003;-4.701494e-004
1.862977e+003;-5.540121e-004
1.864906e+003;-8.253793e-004
1.866834e+003;-1.212602e-003
1.868763e+003;-1.598357e-003
1.870692e+003;-1.169811e-003
1.872620e+003;-6.850358e-004
1.874549e+003;-8.780915e-004
1.876477e+003;-9.138356e-004
1.878406e+003;-9.954639e-004
1.880334e+003;-1.299955e-003
1.882263e+003;-1.406480e-003
1.884191e+003;-1.231303e-003
1.886120e+003;-1.290573e-003
1.888048e+003;-1.537346e-003
1.889977e+003;-1.553128e-003
1.891906e+003;-1.405456e-003
1.893834e+003;-1.496337e-003
1.895763e+003;-1.464736e-003
1.897691e+003;-1.148166e-003
1.899620e+003;-1.198427e-003
1.901548e+003;-1.530511e-003
1.903477e+003;-1.544709e-003
1.905405e+003;-1.453078e-003
1.907334e+003;-1.435378e-003
1.909262e+003;-1.814897e-003
1.911191e+003;-2.029284e-003
1.913120e+003;-1.748141e-003
1.915048e+003;-1.552963e-003
1.916977e+003;-2.047818e-003
1.918905e+003;-2.093326e-003
1.920834e+003;-1.802523e-003
1.922762e+003;-1.683091e-003
1.924691e+003;-1.499012e-003
1.926619e+003;-1.584954e-003
1.928548e+003;-1.611826e-003
1.930477e+003;-1.471439e-003
1.932405e+003;-1.494521e-003
1.934334e+003;-1.734413e-003
1.936262e+003;-1.987563e-003
1.938191e+003;-1.984133e-003
1.940119e+003;-1.867060e-003
1.942048e+003;-1.921757e-003
1.943976e+003;-1.999173e-003
1.945905e+003;-1.910211e-003
1.947833e+003;-1.791766e-003
1.949762e+003;-1.801236e-003
1.951691e+003;-1.923308e-003
1.953619e+003;-1.910178e-003
1.955548e+003;-1.835354e-003
1.957476e+003;-1.639356e-003
1.959405e+003;-1.488214e-003
1.961333e+003;-1.447498e-003
1.963262e+003;-1.532955e-003
1.965190e+003;-1.753916e-003
1.967119e+003;-1.860462e-003
1.969047e+003;-1.598687e-003
1.970976e+003;-1.569668e-003
1.972905e+003;-1.715172e-003
1.974833e+003;-1.550916e-003
1.976762e+003;-1.378869e-003
1.978690e+003;-1.327770e-003
1.980619e+003;-1.212371e-003
1.982547e+003;-1.066897e-003
1.984476e+003;-8.500827e-004
1.986404e+003;-7.436859e-004
1.988333e+003;-8.434358e-004
1.990261e+003;-1.125495e-003
1.992190e+003;-1.432174e-003
1.994119e+003;-1.402814e-003
1.996047e+003;-1.156659e-003
1.997976e+003;-1.212866e-003
1.999904e+003;-1.186961e-003
2.001833e+003;-9.321859e-004
2.003761e+003;-8.084466e-004
2.005690e+003;-7.309179e-004
2.007618e+003;-8.272975e-004
2.009547e+003;-1.037578e-003
2.011476e+003;-1.162111e-003
2.013404e+003;-1.001613e-003
2.015333e+003;-8.708167e-004
2.017261e+003;-9.495437e-004
2.019190e+003;-8.676091e-004
2.021118e+003;-8.599042e-004
2.023047e+003;-1.034372e-003
2.024975e+003;-9.869017e-004
2.026904e+003;-9.319214e-004
2.028833e+003;-1.081605e-003
2.030761e+003;-1.153718e-003
2.032690e+003;-1.110028e-003
2.034618e+003;-1.008158e-003
2.036547e+003;-1.210917e-003
2.038475e+003;-1.289285e-003
2.040404e+003;-1.123248e-003
2.042332e+003;-1.026868e-003
2.044261e+003;-1.023364e-003
2.046189e+003;-7.973341e-004
2.048118e+003;-7.606543e-004
2.050047e+003;-8.184674e-004
2.051975e+003;-9.559576e-004
2.053904e+003;-1.136500e-003
2.055832e+003;-1.177510e-003
2.057761e+003;-1.254232e-003
2.059689e+003;-1.362585e-003
2.061618e+003;-1.329653e-003
2.063546e+003;-1.309106e-003
2.065475e+003;-1.427220e-003
2.067404e+003;-1.498318e-003
2.069332e+003;-1.405753e-003
2.071260e+003;-1.394987e-003
2.073189e+003;-1.270289e-003
2.075118e+003;-1.223307e-003
2.077046e+003;-1.263054e-003
2.078975e+003;-1.345376e-003
2.080903e+003;-1.445483e-003
2.082832e+003;-1.431877e-003
2.084760e+003;-1.355913e-003
2.086689e+003;-1.308544e-003
2.088617e+003;-1.460344e-003
2.090546e+003;-1.427683e-003
2.092475e+003;-1.228825e-003
2.094403e+003;-1.266093e-003
2.096332e+003;-1.327043e-003
2.098260e+003;-1.338208e-003
2.100189e+003;-1.216137e-003
2.102117e+003;-1.114556e-003
2.104046e+003;-1.083687e-003
2.105974e+003;-1.099948e-003
2.107903e+003;-1.090297e-003
2.109832e+003;-1.152297e-003
2.111760e+003;-1.348646e-003
2.113688e+003;-1.520210e-003
2.115617e+003;-1.730221e-003
2.117546e+003;-1.750385e-003
2.119474e+003;-1.741739e-003
2.121403e+003;-1.730386e-003
2.123331e+003;-1.709957e-003
2.125260e+003;-1.753949e-003
2.127188e+003;-1.796485e-003
2.129117e+003;-1.598522e-003
2.131045e+003;-1.387588e-003
2.132974e+003;-1.412359e-003
2.134903e+003;-1.545963e-003
2.136831e+003;-1.575413e-003
2.138760e+003;-1.404664e-003
2.140688e+003;-1.464967e-003
2.142617e+003;-1.799784e-003
2.144545e+003;-1.947223e-003
2.146474e+003;-1.968564e-003
2.148402e+003;-1.664278e-003
2.150331e+003;-1.411533e-003
2.152260e+003;-1.337746e-003
2.154188e+003;-1.415661e-003
2.156117e+003;-1.280233e-003
2.158045e+003;-1.016290e-003
2.159974e+003;-1.339926e-003
2.161902e+003;-1.742960e-003
2.163831e+003;-1.481147e-003
2.165759e+003;-1.145225e-003
2.167688e+003;-1.065971e-003
2.169616e+003;-1.104245e-003
2.171545e+003;-1.420483e-003
2.173474e+003;-1.704050e-003
2.175402e+003;-1.536653e-003
2.177331e+003;-1.199550e-003
2.179259e+003;-7.985578e-004
2.181188e+003;-5.722784e-004
2.183116e+003;-5.028161e-004
2.185045e+003;-6.868143e-005
2.186973e+003;5.374684e-004
2.188902e+003;9.789543e-004
2.190831e+003;1.173170e-003
2.192759e+003;1.122207e-003
2.194688e+003;1.121975e-003
2.196616e+003;1.186825e-003
2.198545e+003;1.217492e-003
2.200473e+003;1.134001e-003
2.202402e+003;1.178718e-003
2.204330e+003;1.206993e-003
2.206259e+003;1.174565e-003
2.208188e+003;1.089089e-003
2.210116e+003;1.242712e-003
2.212044e+003;1.551619e-003
2.213973e+003;1.744860e-003
2.215902e+003;1.870629e-003
2.217830e+003;2.008584e-003
2.219759e+003;2.411518e-003
2.221687e+003;2.983474e-003
2.223616e+003;4.076033e-003
2.225544e+003;5.758502e-003
2.227473e+003;8.620217e-003
2.229401e+003;1.370915e-002
2.231330e+003;2.173539e-002
2.233259e+003;3.331768e-002
2.235187e+003;4.771556e-002
2.237116e+003;6.254211e-002
2.239044e+003;7.503014e-002
2.240973e+003;8.348610e-002
2.242901e+003;8.739249e-002
2.244830e+003;8.689450e-002
2.246758e+003;8.314401e-002
2.248687e+003;7.698346e-002
2.250615e+003;6.892504e-002
2.252544e+003;6.026433e-002
2.254473e+003;5.173066e-002
2.256401e+003;4.337313e-002
2.258330e+003;3.518853e-002
2.260258e+003;2.804166e-002
2.262187e+003;2.225993e-002
2.264115e+003;1.755568e-002
2.266044e+003;1.399708e-002
2.267972e+003;1.116391e-002
2.269901e+003;8.844560e-003
2.271830e+003;7.258660e-003
2.273758e+003;6.293937e-003
2.275687e+003;5.537156e-003
2.277615e+003;4.780652e-003
2.279544e+003;4.358513e-003
2.281472e+003;4.115368e-003
2.283401e+003;3.550138e-003
2.285329e+003;3.123386e-003
2.287258e+003;3.117879e-003
2.289187e+003;2.989913e-003
2.291115e+003;2.856349e-003
2.293043e+003;2.595576e-003
2.294972e+003;2.461899e-003
2.296901e+003;2.624009e-003
2.298829e+003;2.604609e-003
2.300758e+003;2.411318e-003
2.302686e+003;2.193403e-003
2.304615e+003;2.163899e-003
2.306543e+003;2.204693e-003
2.308472e+003;1.947007e-003
2.310400e+003;1.763523e-003
2.312329e+003;1.769978e-003
2.314258e+003;1.652819e-003
2.316186e+003;1.672443e-003
2.318115e+003;1.526315e-003
2.320043e+003;1.359461e-003
2.321972e+003;1.329914e-003
2.323900e+003;1.078791e-003
2.325829e+003;8.174566e-004
2.327757e+003;4.614377e-004
2.329686e+003;3.594874e-004
2.331615e+003;6.806756e-004
2.333543e+003;6.865495e-004
2.335472e+003;6.062789e-004
2.337400e+003;6.908970e-004
2.339329e+003;7.662376e-004
2.341257e+003;8.091576e-004
2.343186e+003;1.024652e-003
2.345114e+003;1.464705e-003
2.347043e+003;1.767682e-003
2.348971e+003;1.956592e-003
2.350900e+003;1.659937e-003
2.352829e+003;7.113073e-004
2.354757e+003;2.235135e-004
2.356686e+003;3.372035e-004
2.358614e+003;1.735245e-004
2.360543e+003;-3.038285e-005
2.362471e+003;5.202075e-006
2.364400e+003;1.137972e-004
2.366328e+003;5.335869e-004
2.368257e+003;8.776460e-004
2.370186e+003;9.455807e-004
2.372114e+003;1.230451e-003
2.374042e+003;1.647431e-003
2.375971e+003;1.744993e-003
2.377900e+003;1.897518e-003
2.379828e+003;2.143187e-003
2.381757e+003;2.240095e-003
2.383685e+003;2.412351e-003
2.385614e+003;2.568377e-003
2.387542e+003;2.383032e-003
2.389471e+003;2.258380e-003
2.391399e+003;2.260245e-003
2.393328e+003;2.236265e-003
2.395257e+003;2.044004e-003
2.397185e+003;1.937155e-003
2.399114e+003;2.196001e-003
2.401042e+003;2.493390e-003
2.402971e+003;2.408720e-003
2.404899e+003;2.174122e-003
2.406828e+003;2.036813e-003
2.408756e+003;2.151179e-003
2.410685e+003;2.404455e-003
2.412614e+003;2.348584e-003
2.414542e+003;2.190906e-003
2.416471e+003;2.280530e-003
2.418399e+003;2.354581e-003
2.420328e+003;2.075697e-003
2.422256e+003;1.955061e-003
2.424185e+003;2.284260e-003
2.426113e+003;2.468130e-003
2.428042e+003;2.344753e-003
2.429970e+003;2.134030e-003
2.431899e+003;1.914490e-003
2.433828e+003;2.106661e-003
2.435756e+003;2.267540e-003
2.437685e+003;2.142255e-003
2.439613e+003;2.005322e-003
2.441542e+003;2.130967e-003
2.443470e+003;2.301215e-003
2.445399e+003;2.284027e-003
2.447327e+003;2.129369e-003
2.449256e+003;2.206458e-003
2.451185e+003;2.486658e-003
2.453113e+003;2.586943e-003
2.455042e+003;2.420015e-003
2.456970e+003;2.202994e-003
2.458899e+003;2.231136e-003
2.460827e+003;2.404088e-003
2.462756e+003;2.479260e-003
2.464684e+003;2.484192e-003
2.466613e+003;2.369939e-003
2.468542e+003;2.221611e-003
2.470470e+003;2.346652e-003
2.472398e+003;2.567844e-003
2.474327e+003;2.512285e-003
2.476256e+003;2.408653e-003
2.478184e+003;2.720524e-003
2.480113e+003;3.236702e-003
2.482041e+003;3.444688e-003
2.483970e+003;3.166139e-003
2.485898e+003;3.181692e-003
2.487827e+003;3.179156e-003
2.489755e+003;3.060815e-003
2.491684e+003;3.208729e-003
2.493613e+003;3.498262e-003
2.495541e+003;3.656549e-003
2.497470e+003;3.762251e-003
2.499398e+003;3.972595e-003
2.501327e+003;4.026501e-003
2.503255e+003;3.870887e-003
2.505184e+003;4.097305e-003
2.507112e+003;4.352523e-003
2.509041e+003;4.262838e-003
2.510969e+003;4.359919e-003
2.512898e+003;4.622792e-003
2.514827e+003;4.664152e-003
2.516755e+003;4.531344e-003
2.518684e+003;4.187257e-003
2.520612e+003;4.170061e-003
2.522541e+003;4.430710e-003
2.524469e+003;4.304499e-003
2.526398e+003;4.205557e-003
2.528326e+003;4.313468e-003
2.530255e+003;4.423882e-003
2.532184e+003;4.438845e-003
2.534112e+003;4.512930e-003
2.536041e+003;4.557862e-003
2.537969e+003;4.243431e-003
2.539898e+003;4.083659e-003
2.541826e+003;4.259258e-003
2.543755e+003;4.269932e-003
2.545683e+003;4.190368e-003
2.547612e+003;4.374645e-003
2.549541e+003;4.518387e-003
2.551469e+003;4.508812e-003
2.553397e+003;4.448586e-003
2.555326e+003;4.148317e-003
2.557255e+003;3.888272e-003
2.559183e+003;3.903851e-003
2.561112e+003;3.908231e-003
2.563040e+003;3.847386e-003
2.564969e+003;3.813925e-003
2.566897e+003;3.724285e-003
2.568826e+003;3.518437e-003
2.570754e+003;3.496257e-003
2.572683e+003;3.696949e-003
2.574612e+003;3.898903e-003
2.576540e+003;3.951931e-003
2.578469e+003;3.606197e-003
2.580397e+003;3.246383e-003
2.582326e+003;3.083940e-003
2.584254e+003;3.064152e-003
2.586183e+003;3.374458e-003
2.588111e+003;3.694710e-003
2.590040e+003;3.532300e-003
2.591969e+003;3.133898e-003
2.593897e+003;3.074797e-003
2.595826e+003;3.033054e-003
2.597754e+003;2.875560e-003
2.599683e+003;2.793750e-003
2.601611e+003;2.860885e-003
2.603540e+003;3.001090e-003
2.605468e+003;2.995618e-003
2.607397e+003;3.108735e-003
2.609325e+003;3.210231e-003
2.611254e+003;3.346643e-003
2.613183e+003;3.560427e-003
2.615111e+003;3.587888e-003
2.617040e+003;3.317394e-003
2.618968e+003;3.239006e-003
2.620897e+003;3.380836e-003
2.622825e+003;3.285643e-003
2.624754e+003;3.103963e-003
2.626682e+003;2.985376e-003
2.628611e+003;3.009998e-003
2.630540e+003;3.384242e-003
2.632468e+003;3.761750e-003
2.634396e+003;3.559558e-003
2.636325e+003;3.253060e-003
2.638254e+003;3.082839e-003
2.640182e+003;2.961589e-003
2.642111e+003;2.940072e-003
2.644039e+003;3.040628e-003
2.645968e+003;3.026847e-003
2.647896e+003;2.882998e-003
2.649825e+003;2.856949e-003
2.651753e+003;2.824565e-003
2.653682e+003;2.756069e-003
2.655611e+003;2.763538e-003
2.657539e+003;2.682549e-003
2.659468e+003;2.673081e-003
2.661396e+003;2.484725e-003
2.663325e+003;2.595876e-003
2.665253e+003;2.858617e-003
2.667182e+003;2.883232e-003
2.669110e+003;2.818728e-003
2.671039e+003;2.721658e-003
2.672968e+003;2.827366e-003
2.674896e+003;2.894839e-003
2.676825e+003;2.937103e-003
2.678753e+003;2.734862e-003
2.680682e+003;2.502921e-003
2.682610e+003;2.722958e-003
2.684539e+003;2.949079e-003
2.686467e+003;2.921191e-003
2.688396e+003;2.871591e-003
2.690324e+003;2.936336e-003
2.692253e+003;2.952515e-003
2.694182e+003;2.948445e-003
2.696110e+003;2.940405e-003
2.698039e+003;2.946410e-003
2.699967e+003;2.848577e-003
2.701896e+003;2.779978e-003
2.703824e+003;2.792583e-003
2.705753e+003;2.703787e-003
2.707681e+003;2.722725e-003
2.709610e+003;3.122084e-003
2.711539e+003;3.012567e-003
2.713467e+003;2.690584e-003
2.715396e+003;2.632343e-003
2.717324e+003;2.753701e-003
2.719253e+003;2.694051e-003
2.721181e+003;2.516618e-003
2.723110e+003;2.663680e-003
2.725038e+003;2.694985e-003
2.726967e+003;2.494323e-003
2.728896e+003;2.328063e-003
2.730824e+003;2.382765e-003
2.732752e+003;2.448570e-003
2.734681e+003;2.471329e-003
2.736610e+003;2.515818e-003
2.738538e+003;2.311608e-003
2.740467e+003;2.318636e-003
2.742395e+003;2.628676e-003
2.744324e+003;2.478660e-003
2.746252e+003;2.280396e-003
2.748181e+003;2.490191e-003
2.750109e+003;2.732494e-003
2.752038e+003;2.728927e-003
2.753967e+003;2.526049e-003
2.755895e+003;2.304679e-003
2.757824e+003;2.362709e-003
2.759752e+003;2.423247e-003
2.761681e+003;2.322467e-003
2.763609e+003;2.338757e-003
2.765538e+003;2.566511e-003
2.767466e+003;2.720024e-003
2.769395e+003;2.693318e-003
2.771323e+003;2.646277e-003
2.773252e+003;2.592709e-003
2.775181e+003;2.579810e-003
2.777109e+003;2.728793e-003
2.779038e+003;2.991982e-003
2.780966e+003;3.304940e-003
2.782895e+003;3.623537e-003
2.784823e+003;3.680608e-003
2.786752e+003;3.656215e-003
2.788680e+003;3.625375e-003
2.790609e+003;3.870285e-003
2.792538e+003;4.155041e-003
2.794466e+003;4.564091e-003
2.796395e+003;4.759816e-003
2.798323e+003;4.660535e-003
2.800252e+003;4.900569e-003
2.802180e+003;5.130709e-003
2.804109e+003;5.272052e-003
2.806037e+003;5.349097e-003
2.807966e+003;5.081829e-003
2.809895e+003;4.956400e-003
2.811823e+003;5.405825e-003
2.813751e+003;5.969076e-003
2.815680e+003;6.076955e-003
2.817609e+003;5.773544e-003
2.819537e+003;5.848899e-003
2.821466e+003;6.201868e-003
2.823394e+003;6.375434e-003
2.825323e+003;6.601514e-003
2.827251e+003;6.924492e-003
2.829180e+003;7.027321e-003
2.831108e+003;7.210684e-003
2.833037e+003;7.842741e-003
2.834966e+003;8.608049e-003
2.836894e+003;9.451367e-003
2.838823e+003;1.041608e-002
2.840751e+003;1.162260e-002
2.842680e+003;1.320897e-002
2.844608e+003;1.498210e-002
2.846537e+003;1.762089e-002
2.848465e+003;2.158180e-002
2.850394e+003;2.575032e-002
2.852323e+003;2.835308e-002
2.854251e+003;2.917634e-002
2.856180e+003;2.890608e-002
2.858108e+003;2.820388e-002
2.860037e+003;2.793847e-002
2.861965e+003;2.749011e-002
2.863894e+003;2.689048e-002
2.865822e+003;2.675126e-002
2.867751e+003;2.665257e-002
2.869679e+003;2.645200e-002
2.871608e+003;2.633627e-002
2.873536e+003;2.620131e-002
2.875465e+003;2.608863e-002
2.877394e+003;2.588338e-002
2.879322e+003;2.556532e-002
2.881251e+003;2.530186e-002
2.883179e+003;2.519307e-002
2.885108e+003;2.505896e-002
2.887036e+003;2.566549e-002
2.888965e+003;2.660645e-002
2.890893e+003;2.731199e-002
2.892822e+003;2.812759e-002
2.894750e+003;2.908620e-002
2.896679e+003;3.036090e-002
2.898608e+003;3.184592e-002
2.900536e+003;3.334126e-002
2.902465e+003;3.513769e-002
2.904393e+003;3.750221e-002
2.906322e+003;4.029850e-002
2.908250e+003;4.296811e-002
2.910179e+003;4.579891e-002
2.912107e+003;4.919090e-002
2.914036e+003;5.320404e-002
2.915965e+003;5.714337e-002
2.917893e+003;6.079899e-002
2.919822e+003;6.428155e-002
2.921750e+003;6.724415e-002
2.923679e+003;6.942227e-002
2.925607e+003;7.073937e-002
2.927536e+003;7.128678e-002
2.929464e+003;7.118024e-002
2.931393e+003;7.079424e-002
2.933322e+003;7.005554e-002
2.935250e+003;6.920014e-002
2.937178e+003;6.817365e-002
2.939107e+003;6.679663e-002
2.941036e+003;6.518250e-002
2.942964e+003;6.344894e-002
2.944893e+003;6.138095e-002
2.946821e+003;5.929670e-002
2.948750e+003;5.698882e-002
2.950678e+003;5.457309e-002
2.952607e+003;5.222005e-002
2.954535e+003;5.001548e-002
2.956464e+003;4.768586e-002
2.958393e+003;4.503136e-002
2.960321e+003;4.266515e-002
2.962250e+003;4.084327e-002
2.964178e+003;3.945137e-002
2.966107e+003;3.828236e-002
2.968035e+003;3.730781e-002
2.969964e+003;3.653063e-002
2.971892e+003;3.538055e-002
2.973821e+003;3.407242e-002
2.975750e+003;3.290530e-002
2.977678e+003;3.195029e-002
2.979607e+003;3.104901e-002
2.981535e+003;3.045400e-002
2.983464e+003;2.969232e-002
2.985392e+003;2.876165e-002
2.987321e+003;2.809355e-002
2.989249e+003;2.761004e-002
2.991178e+003;2.713377e-002
2.993106e+003;2.641235e-002
2.995035e+003;2.579114e-002
2.996964e+003;2.504137e-002
2.998892e+003;2.419763e-002
3.000821e+003;2.350989e-002
3.002749e+003;2.274303e-002
3.004678e+003;2.223214e-002
3.006606e+003;2.167531e-002
3.008535e+003;2.090900e-002
3.010463e+003;2.021405e-002
3.012392e+003;1.959047e-002
3.014321e+003;1.875645e-002
3.016249e+003;1.786474e-002
3.018177e+003;1.712504e-002
3.020106e+003;1.664915e-002
3.022035e+003;1.606023e-002
3.023963e+003;1.516542e-002
3.025892e+003;1.453523e-002
3.027820e+003;1.428913e-002
3.029749e+003;1.397083e-002
3.031677e+003;1.374871e-002
3.033606e+003;1.343778e-002
3.035534e+003;1.265109e-002
3.037463e+003;1.234749e-002
3.039392e+003;1.221517e-002
3.041320e+003;1.158224e-002
3.043249e+003;1.127598e-002
3.045177e+003;1.128740e-002
3.047106e+003;1.128927e-002
3.049034e+003;1.063531e-002
3.050963e+003;1.017511e-002
3.052891e+003;1.015534e-002
3.054820e+003;9.729133e-003
3.056749e+003;9.135135e-003
3.058677e+003;9.058936e-003
3.060606e+003;9.217775e-003
3.062534e+003;9.171986e-003
3.064463e+003;9.172595e-003
3.066391e+003;9.042900e-003
3.068320e+003;8.467948e-003
3.070248e+003;8.084337e-003
3.072177e+003;7.893249e-003
3.074105e+003;7.713511e-003
3.076034e+003;7.596795e-003
3.077963e+003;7.140314e-003
3.079891e+003;6.796510e-003
3.081820e+003;6.999170e-003
3.083748e+003;7.317188e-003
3.085677e+003;6.860294e-003
3.087605e+003;6.248791e-003
3.089534e+003;6.218304e-003
3.091462e+003;6.368440e-003
3.093391e+003;6.418340e-003
3.095320e+003;6.771807e-003
3.097248e+003;6.686702e-003
3.099177e+003;5.890645e-003
3.101105e+003;5.424579e-003
3.103034e+003;5.173325e-003
3.104962e+003;5.223357e-003
3.106891e+003;5.235027e-003
3.108819e+003;4.912264e-003
3.110748e+003;4.811977e-003
3.112677e+003;5.204108e-003
3.114605e+003;5.648117e-003
3.116533e+003;5.433605e-003
3.118462e+003;4.913906e-003
3.120391e+003;4.639001e-003
3.122319e+003;4.361191e-003
3.124248e+003;4.188929e-003
3.126176e+003;4.321566e-003
3.128105e+003;4.501480e-003
3.130033e+003;4.506535e-003
3.131962e+003;4.120452e-003
3.133890e+003;3.555784e-003
3.135819e+003;3.688327e-003
3.137748e+003;4.214590e-003
3.139676e+003;4.571490e-003
3.141605e+003;4.491671e-003
3.143533e+003;4.258254e-003
3.145462e+003;4.098844e-003
3.147390e+003;4.016268e-003
3.149319e+003;4.011151e-003
3.151247e+003;4.150525e-003
3.153176e+003;4.043056e-003
3.155104e+003;3.779230e-003
3.157033e+003;3.695813e-003
3.158962e+003;4.036501e-003
3.160890e+003;4.059912e-003
3.162819e+003;3.763187e-003
3.164747e+003;3.583211e-003
3.166676e+003;3.526554e-003
3.168604e+003;3.725254e-003
3.170533e+003;3.872960e-003
3.172461e+003;3.894022e-003
3.174390e+003;3.886199e-003
3.176319e+003;4.473860e-003
3.178247e+003;4.997792e-003
3.180176e+003;4.935286e-003
3.182104e+003;4.529001e-003
3.184033e+003;4.371533e-003
3.185961e+003;4.531846e-003
3.187890e+003;4.575408e-003
3.189818e+003;4.549090e-003
3.191747e+003;4.481594e-003
3.193676e+003;4.354966e-003
3.195604e+003;4.606718e-003
3.197532e+003;4.619041e-003
3.199461e+003;4.446209e-003
3.201390e+003;4.531813e-003
3.203318e+003;4.555686e-003
3.205247e+003;4.471818e-003
3.207175e+003;4.405974e-003
3.209104e+003;4.619376e-003
3.211032e+003;5.021322e-003
3.212961e+003;4.818276e-003
3.214889e+003;4.685353e-003
3.216818e+003;4.823167e-003
3.218747e+003;4.779614e-003
3.220675e+003;4.579426e-003
3.222604e+003;4.759112e-003
3.224532e+003;5.222719e-003
3.226461e+003;5.442731e-003
3.228389e+003;5.448032e-003
3.230318e+003;5.317131e-003
3.232246e+003;5.185229e-003
3.234175e+003;5.056753e-003
3.236104e+003;5.082733e-003
3.238032e+003;5.252634e-003
3.239961e+003;5.143249e-003
3.241889e+003;4.910488e-003
3.243818e+003;4.630394e-003
3.245746e+003;4.612277e-003
3.247675e+003;4.740420e-003
3.249603e+003;5.199145e-003
3.251532e+003;5.735972e-003
3.253460e+003;5.493430e-003
3.255389e+003;5.001512e-003
3.257318e+003;4.902345e-003
3.259246e+003;5.192606e-003
3.261175e+003;5.474270e-003
3.263103e+003;5.316191e-003
3.265032e+003;5.258435e-003
3.266960e+003;5.436557e-003
3.268889e+003;5.625593e-003
3.270817e+003;5.934041e-003
3.272746e+003;6.080719e-003
3.274675e+003;5.892089e-003
3.276603e+003;5.456319e-003
3.278531e+003;4.953518e-003
3.280460e+003;4.910052e-003
3.282389e+003;5.352016e-003
3.284317e+003;5.437832e-003
3.286246e+003;5.429075e-003
3.288174e+003;5.718514e-003
3.290103e+003;5.667049e-003
3.292031e+003;5.652648e-003
3.293960e+003;5.581322e-003
3.295888e+003;5.246664e-003
3.297817e+003;4.985525e-003
3.299746e+003;4.844711e-003
3.301674e+003;4.449757e-003
3.303603e+003;4.702569e-003
3.305531e+003;5.218326e-003
3.307460e+003;4.909549e-003
3.309388e+003;4.590276e-003
3.311317e+003;4.858783e-003
3.313245e+003;5.097116e-003
3.315174e+003;4.891588e-003
3.317103e+003;4.738578e-003
3.319031e+003;4.468437e-003
3.320960e+003;4.122158e-003
3.322888e+003;3.948553e-003
3.324817e+003;4.199702e-003
3.326745e+003;4.291515e-003
3.328674e+003;4.250090e-003
3.330602e+003;4.064628e-003
3.332531e+003;4.155107e-003
3.334459e+003;4.253302e-003
3.336388e+003;3.861460e-003
3.338317e+003;3.548501e-003
3.340245e+003;3.639408e-003
3.342174e+003;3.753160e-003
3.344102e+003;3.664736e-003
3.346031e+003;3.507881e-003
3.347959e+003;3.244848e-003
3.349888e+003;3.156793e-003
3.351816e+003;3.225419e-003
3.353745e+003;3.115943e-003
3.355674e+003;2.950113e-003
3.357602e+003;2.805289e-003
3.359531e+003;2.862819e-003
3.361459e+003;2.653078e-003
3.363388e+003;2.740130e-003
3.365316e+003;2.730360e-003
3.367245e+003;2.160602e-003
3.369173e+003;1.876120e-003
3.371102e+003;2.388529e-003
3.373031e+003;2.729860e-003
3.374959e+003;2.640944e-003
3.376887e+003;2.266973e-003
3.378816e+003;2.002426e-003
3.380745e+003;2.048232e-003
3.382673e+003;1.905771e-003
3.384602e+003;1.509058e-003
3.386530e+003;1.442797e-003
3.388459e+003;1.424314e-003
3.390387e+003;1.570740e-003
3.392316e+003;1.345203e-003
3.394244e+003;1.341347e-003
3.396173e+003;9.066647e-004
3.398102e+003;2.874335e-004
3.400030e+003;3.386293e-004
3.401959e+003;1.008544e-003
3.403887e+003;1.063479e-003
3.405816e+003;7.871494e-004
3.407744e+003;7.636485e-004
3.409673e+003;9.761315e-004
3.411601e+003;5.948650e-004
3.413530e+003;-1.170799e-004
3.415458e+003;-2.544943e-004
3.417387e+003;2.109162e-004
3.419316e+003;6.417169e-004
3.421244e+003;2.439019e-004
3.423173e+003;-1.212868e-004
3.425101e+003;2.031164e-005
3.427030e+003;9.334862e-005
3.428958e+003;1.350422e-004
3.430887e+003;4.566946e-004
3.432815e+003;6.111896e-004
3.434744e+003;5.258241e-004
3.436673e+003;3.098806e-004
3.438601e+003;2.151595e-004
3.440530e+003;-3.975903e-005
3.442458e+003;-6.732916e-004
3.444387e+003;-8.613592e-004
3.446315e+003;-7.147423e-004
3.448244e+003;-5.344213e-004
3.450172e+003;-3.296248e-004
3.452101e+003;-3.156858e-004
3.454030e+003;-3.115139e-004
3.455958e+003;-1.710705e-004
3.457886e+003;-2.350886e-004
3.459815e+003;-5.470958e-004
3.461744e+003;-6.399430e-004
3.463672e+003;-5.316745e-004
3.465601e+003;-5.736682e-004
3.467529e+003;-5.488498e-004
3.469458e+003;-7.610181e-004
3.471386e+003;-5.998749e-004
3.473315e+003;-6.496700e-004
3.475243e+003;-7.493752e-004
3.477172e+003;-6.680646e-004
3.479101e+003;-6.047389e-004
3.481029e+003;-6.555589e-004
3.482958e+003;-9.126122e-004
3.484886e+003;-1.112970e-003
3.486815e+003;-1.165680e-003
3.488743e+003;-1.585581e-003
3.490672e+003;-1.806648e-003
3.492600e+003;-1.094065e-003
3.494529e+003;-5.288947e-004
3.496458e+003;-5.373335e-004
3.498386e+003;-6.774600e-004
3.500315e+003;-8.767027e-004
3.502243e+003;-8.004761e-004
3.504172e+003;-4.538648e-004
3.506100e+003;-4.900079e-004
3.508029e+003;-9.217379e-004
3.509957e+003;-9.770831e-004
3.511886e+003;-8.299762e-004
3.513814e+003;-7.596620e-004
3.515743e+003;-3.607461e-004
3.517672e+003;8.519597e-005
3.519600e+003;1.056773e-004
3.521529e+003;-1.096723e-005
3.523457e+003;-2.447253e-004
3.525386e+003;-7.511944e-004
3.527314e+003;-3.062824e-004
3.529243e+003;3.180375e-004
3.531171e+003;2.598818e-004
3.533100e+003;2.285856e-004
3.535029e+003;1.111458e-004
3.536957e+003;-1.673609e-004
3.538885e+003;1.938385e-005
3.540814e+003;4.123168e-004
3.542743e+003;4.051531e-004
3.544671e+003;2.145296e-004
3.546600e+003;4.708911e-004
3.548528e+003;3.585589e-004
3.550457e+003;-6.771623e-004
3.552385e+003;-1.154643e-003
3.554314e+003;-7.517898e-004
3.556242e+003;-3.517410e-004
3.558171e+003;6.524583e-005
3.560100e+003;-1.246324e-004
3.562028e+003;-8.313982e-004
3.563957e+003;-1.339463e-003
3.565885e+003;-1.618527e-003
3.567814e+003;-1.489766e-003
3.569742e+003;-1.436170e-003
3.571671e+003;-1.038867e-003
3.573599e+003;-8.233289e-004
3.575528e+003;-6.039778e-004
3.577457e+003;-6.545333e-004
3.579385e+003;-1.124173e-003
3.581314e+003;-1.555043e-003
3.583242e+003;-1.965200e-003
3.585171e+003;-2.559766e-003
3.587099e+003;-3.250120e-003
3.589028e+003;-3.026990e-003
3.590956e+003;-2.026481e-003
3.592885e+003;-1.939966e-003
3.594813e+003;-1.589576e-003
3.596742e+003;-9.159186e-004
3.598671e+003;-6.513573e-004
3.600599e+003;-5.830657e-004
3.602528e+003;-6.350463e-004
3.604456e+003;-9.395258e-004
3.606385e+003;-1.456909e-003
3.608313e+003;-1.796914e-003
3.610242e+003;-1.263153e-003
3.612170e+003;-1.181806e-003
3.614099e+003;-1.270652e-003
3.616028e+003;-1.244519e-003
3.617956e+003;-1.363080e-003
3.619885e+003;-9.694794e-004
3.621813e+003;-3.621035e-004
3.623742e+003;-1.967385e-004
3.625670e+003;-1.195321e-003
3.627599e+003;-3.433360e-003
3.629527e+003;-3.258637e-003
3.631456e+003;-1.208075e-003
3.633385e+003;-6.237309e-004
3.635313e+003;-1.007596e-003
3.637241e+003;-1.414638e-003
3.639170e+003;-1.867159e-003
3.641099e+003;-2.039936e-003
3.643027e+003;-2.093787e-003
3.644956e+003;-2.858686e-003
3.646884e+003;-4.488652e-003
3.648813e+003;-5.782421e-003
3.650741e+003;-4.932349e-003
3.652670e+003;-3.706187e-003
3.654598e+003;-4.407743e-003
3.656527e+003;-4.744889e-003
3.658456e+003;-3.706811e-003
3.660384e+003;-3.262123e-003
3.662313e+003;-3.612942e-003
3.664241e+003;-4.435852e-003
3.666170e+003;-5.397093e-003
3.668098e+003;-7.076161e-003
3.670027e+003;-8.302025e-003
3.671955e+003;-7.213770e-003
3.673884e+003;-7.413002e-003
3.675813e+003;-7.179030e-003
3.677741e+003;-5.470718e-003
3.679669e+003;-5.528529e-003
3.681598e+003;-5.692531e-003
3.683527e+003;-6.491961e-003
3.685455e+003;-7.605402e-003
3.687384e+003;-9.252422e-003
3.689312e+003;-9.136677e-003
3.691241e+003;-7.577889e-003
3.693169e+003;-6.260530e-003
3.695098e+003;-6.105107e-003
3.697026e+003;-6.498979e-003
3.698955e+003;-6.860534e-003
3.700884e+003;-7.380101e-003
3.702812e+003;-6.837311e-003
3.704741e+003;-6.341715e-003
3.706669e+003;-6.619346e-003
3.708598e+003;-7.280669e-003
3.710526e+003;-8.785423e-003
3.712455e+003;-9.098424e-003
3.714383e+003;-7.279952e-003
3.716312e+003;-6.504952e-003
3.718240e+003;-6.840377e-003
3.720169e+003;-7.051744e-003
3.722098e+003;-7.420754e-003
3.724026e+003;-7.649777e-003
3.725955e+003;-7.542787e-003
3.727883e+003;-7.082127e-003
3.729812e+003;-7.606542e-003
3.731740e+003;-8.935346e-003
3.733669e+003;-9.176646e-003
3.735597e+003;-9.298673e-003
3.737526e+003;-8.071883e-003
3.739455e+003;-7.160192e-003
3.741383e+003;-8.300660e-003
3.743312e+003;-1.151416e-002
3.745240e+003;-1.106845e-002
3.747169e+003;-9.403903e-003
3.749097e+003;-1.097739e-002
3.751026e+003;-1.140437e-002
3.752954e+003;-9.608841e-003
3.754883e+003;-7.559785e-003
3.756812e+003;-7.593615e-003
3.758740e+003;-7.601495e-003
3.760668e+003;-7.198486e-003
3.762597e+003;-6.778793e-003
3.764526e+003;-6.995929e-003
3.766454e+003;-6.788644e-003
3.768383e+003;-7.026609e-003
3.770311e+003;-7.135715e-003
3.772240e+003;-6.683987e-003
3.774168e+003;-6.071421e-003
3.776097e+003;-5.911125e-003
3.778025e+003;-6.669402e-003
3.779954e+003;-7.091124e-003
3.781883e+003;-6.599048e-003
3.783811e+003;-6.286918e-003
3.785740e+003;-6.195107e-003
3.787668e+003;-6.203078e-003
3.789597e+003;-6.133497e-003
3.791525e+003;-5.959661e-003
3.793454e+003;-5.938352e-003
3.795382e+003;-6.638468e-003
3.797311e+003;-6.984973e-003
3.799240e+003;-8.063882e-003
3.801168e+003;-9.324261e-003
3.803097e+003;-7.737604e-003
3.805025e+003;-7.238309e-003
3.806954e+003;-7.932593e-003
3.808882e+003;-6.422819e-003
3.810811e+003;-5.588001e-003
3.812739e+003;-6.191873e-003
3.814668e+003;-8.145900e-003
3.816596e+003;-8.400607e-003
3.818525e+003;-7.621030e-003
3.820454e+003;-8.284082e-003
3.822382e+003;-7.440851e-003
3.824311e+003;-6.616801e-003
3.826239e+003;-6.841552e-003
3.828168e+003;-6.419424e-003
3.830096e+003;-6.597449e-003
3.832025e+003;-7.239580e-003
3.833953e+003;-7.292138e-003
3.835882e+003;-8.178971e-003
3.837811e+003;-9.058803e-003
3.839739e+003;-8.057930e-003
3.841667e+003;-7.001993e-003
3.843596e+003;-6.136829e-003
3.845525e+003;-5.372745e-003
3.847453e+003;-5.120776e-003
3.849382e+003;-6.264090e-003
3.851310e+003;-9.964481e-003
3.853239e+003;-1.264150e-002
3.855167e+003;-9.518151e-003
3.857096e+003;-6.195859e-003
3.859024e+003;-5.880432e-003
3.860953e+003;-6.261183e-003
3.862882e+003;-6.752402e-003
3.864810e+003;-6.841747e-003
3.866739e+003;-6.514843e-003
3.868667e+003;-7.621388e-003
3.870596e+003;-7.630732e-003
3.872524e+003;-6.537854e-003
3.874453e+003;-5.918643e-003
3.876381e+003;-5.218445e-003
3.878310e+003;-5.499543e-003
3.880239e+003;-5.735108e-003
3.882167e+003;-5.610898e-003
3.884096e+003;-6.788775e-003
3.886024e+003;-6.948649e-003
3.887953e+003;-5.960021e-003
3.889881e+003;-6.312978e-003
3.891810e+003;-6.155189e-003
3.893738e+003;-5.005201e-003
3.895667e+003;-4.552693e-003
3.897595e+003;-5.614921e-003
3.899524e+003;-6.536679e-003
3.901453e+003;-6.494899e-003
3.903381e+003;-6.426345e-003
3.905310e+003;-5.963747e-003
3.907238e+003;-5.401020e-003
3.909167e+003;-5.128765e-003
3.911095e+003;-5.083968e-003
3.913024e+003;-5.509881e-003
3.914952e+003;-6.169138e-003
3.916881e+003;-6.154079e-003
3.918810e+003;-5.734584e-003
3.920738e+003;-4.975262e-003
3.922667e+003;-4.769797e-003
3.924595e+003;-5.201944e-003
3.926524e+003;-4.548397e-003
3.928452e+003;-4.116452e-003
3.930381e+003;-5.046764e-003
3.932309e+003;-5.748285e-003
3.934238e+003;-5.398272e-003
3.936167e+003;-5.555028e-003
3.938095e+003;-5.561210e-003
3.940023e+003;-5.467970e-003
3.941952e+003;-5.489891e-003
3.943881e+003;-5.145563e-003
3.945809e+003;-4.902667e-003
3.947738e+003;-5.227251e-003
3.949666e+003;-5.453377e-003
3.951595e+003;-5.314455e-003
3.953523e+003;-4.817543e-003
3.955452e+003;-4.551348e-003
3.957380e+003;-4.792049e-003
3.959309e+003;-5.077156e-003
3.961238e+003;-5.110199e-003
3.963166e+003;-4.819575e-003
3.965095e+003;-4.634656e-003
3.967023e+003;-4.663635e-003
3.968952e+003;-4.411942e-003
3.970880e+003;-4.154195e-003
3.972809e+003;-4.401741e-003
3.974737e+003;-4.732238e-003
3.976666e+003;-4.752558e-003
3.978594e+003;-4.811448e-003
3.980523e+003;-4.933037e-003
3.982452e+003;-4.531904e-003
3.984380e+003;-4.547676e-003
3.986309e+003;-4.920522e-003
3.988237e+003;-4.882387e-003
3.990166e+003;-4.506852e-003
3.992094e+003;-4.433195e-003
3.994023e+003;-4.869282e-003
3.995951e+003;-5.003465e-003
3.997880e+003;-4.803649e-003
3.999809e+003;-4.392623e-003
4.001737e+003;0.000000e+000
