3.992094e+002;0.000000e+000
4.011380e+002;0.000000e+000
4.030665e+002;0.000000e+000
4.049951e+002;0.000000e+000
4.069236e+002;0.000000e+000
4.088522e+002;0.000000e+000
4.107807e+002;0.000000e+000
4.127093e+002;0.000000e+000
4.146378e+002;0.000000e+000
4.165664e+002;0.000000e+000
4.184949e+002;0.000000e+000
4.204235e+002;0.000000e+000
4.223520e+002;0.000000e+000
4.242806e+002;0.000000e+000
4.262091e+002;0.000000e+000
4.281377e+002;0.000000e+000
4.300662e+002;0.000000e+000
4.319948e+002;0.000000e+000
4.339233e+002;0.000000e+000
4.358519e+002;0.000000e+000
4.377804e+002;0.000000e+000
4.397090e+002;0.000000e+000
4.416375e+002;0.000000e+000
4.435660e+002;0.000000e+000
4.454946e+002;0.000000e+000
4.474232e+002;0.000000e+000
4.493517e+002;0.000000e+000
4.512802e+002;0.000000e+000
4.532088e+002;0.000000e+000
4.551373e+002;0.000000e+000
4.570659e+002;0.000000e+000
4.589944e+002;0.000000e+000
4.609230e+002;0.000000e+000
4.628515e+002;0.000000e+000
4.647801e+002;0.000000e+000
4.667086e+002;0.000000e+000
4.686372e+002;0.000000e+000
4.705657e+002;0.000000e+000
4.724943e+002;0.000000e+000
4.744228e+002;0.000000e+000
4.763513e+002;0.000000e+000
4.782799e+002;0.000000e+000
4.802085e+002;0.000000e+000
4.821370e+002;0.000000e+000
4.840656e+002;0.000000e+000
4.859941e+002;0.000000e+000
4.879226e+002;0.000000e+000
4.898512e+002;0.000000e+000
4.917798e+002;0.000000e+000
4.937083e+002;0.000000e+000
4.956368e+002;0.000000e+000
4.975654e+002;0.000000e+000
4.994939e+002;0.000000e+000
5.014225e+002;0.000000e+000
5.033510e+002;0.000000e+000
5.052796e+002;0.000000e+000
5.072081e+002;0.000000e+000
5.091367e+002;0.000000e+000
5.110652e+002;0.000000e+000
5.129938e+002;0.000000e+000
5.149223e+002;0.000000e+000
5.168509e+002;0.000000e+000
5.187794e+002;0.000000e+000
5.207079e+002;0.000000e+000
5.226365e+002;0.000000e+000
5.245651e+002;0.000000e+000
5.264936e+002;0.000000e+000
5.284222e+002;0.000000e+000
5.303507e+002;0.000000e+000
5.322792e+002;0.000000e+000
5.342078e+002;0.000000e+000
5.361364e+002;0.000000e+000
5.380649e+002;0.000000e+000
5.399935e+002;0.000000e+000
5.419220e+002;0.000000e+000
5.438505e+002;0.000000e+000
5.457791e+002;0.000000e+000
5.477076e+002;0.000000e+000
5.496362e+002;0.000000e+000
5.515648e+002;0.000000e+000
5.534933e+002;0.000000e+000
5.554218e+002;0.000000e+000
5.573504e+002;0.000000e+000
5.592789e+002;0.000000e+000
5.612075e+002;0.000000e+000
5.631360e+002;0.000000e+000
5.650646e+002;0.000000e+000
5.669931e+002;0.000000e+000
5.689217e+002;0.000000e+000
5.708502e+002;0.000000e+000
5.727787e+002;0.000000e+000
5.747073e+002;0.000000e+000
5.766359e+002;0.000000e+000
5.785644e+002;0.000000e+000
5.804930e+002;0.000000e+000
5.824215e+002;0.000000e+000
5.843500e+002;0.000000e+000
5.862786e+002;0.000000e+000
5.882072e+002;0.000000e+000
5.901357e+002;0.000000e+000
5.920643e+002;0.000000e+000
5.939928e+002;0.000000e+000
5.959213e+002;0.000000e+000
5.978499e+002;0.000000e+000
5.997784e+002;5.964440e-002
6.017070e+002;6.394934e-002
6.036355e+002;6.357983e-002
6.055641e+002;5.793761e-002
6.074926e+002;5.334282e-002
6.094211e+002;5.226459e-002
6.113497e+002;5.272873e-002
6.132783e+002;5.299193e-002
6.152068e+002;5.401921e-002
6.171354e+002;5.784005e-002
6.190639e+002;6.012347e-002
6.209924e+002;5.970656e-002
6.229210e+002;5.683905e-002
6.248495e+002;5.498393e-002
6.267781e+002;5.965155e-002
6.287067e+002;6.173678e-002
6.306352e+002;5.996363e-002
6.325637e+002;5.953627e-002
6.344923e+002;5.975895e-002
6.364208e+002;6.014828e-002
6.383494e+002;6.297853e-002
6.402780e+002;6.248583e-002
6.422065e+002;5.907760e-002
6.441350e+002;6.067579e-002
6.460636e+002;6.288672e-002
6.479921e+002;6.137614e-002
6.499207e+002;6.298248e-002
6.518492e+002;6.314430e-002
6.537778e+002;6.015083e-002
6.557063e+002;5.942186e-002
6.576349e+002;6.041151e-002
6.595634e+002;6.111018e-002
6.614919e+002;6.103703e-002
6.634205e+002;6.162316e-002
6.653491e+002;6.365130e-002
6.672776e+002;6.500113e-002
6.692062e+002;6.527375e-002
6.711347e+002;6.496503e-002
6.730632e+002;6.402282e-002
6.749918e+002;6.170943e-002
6.769203e+002;6.149026e-002
6.788489e+002;6.240874e-002
6.807775e+002;6.036967e-002
6.827060e+002;5.899428e-002
6.846345e+002;5.757731e-002
6.865631e+002;5.670685e-002
6.884916e+002;5.766376e-002
6.904202e+002;5.824839e-002
6.923488e+002;5.719183e-002
6.942773e+002;5.621951e-002
6.962058e+002;5.689442e-002
6.981344e+002;5.683867e-002
7.000629e+002;5.561463e-002
7.019915e+002;5.416932e-002
7.039200e+002;5.249520e-002
7.058486e+002;5.199097e-002
7.077771e+002;5.291733e-002
7.097057e+002;5.424275e-002
7.116342e+002;5.369494e-002
7.135627e+002;5.360868e-002
7.154913e+002;5.526009e-002
7.174199e+002;5.530589e-002
7.193484e+002;5.488831e-002
7.212770e+002;5.518122e-002
7.232055e+002;5.572635e-002
7.251340e+002;5.644883e-002
7.270626e+002;5.745649e-002
7.289911e+002;5.715667e-002
7.309197e+002;5.744828e-002
7.328483e+002;5.813110e-002
7.347768e+002;5.707856e-002
7.367053e+002;5.605590e-002
7.386339e+002;5.631984e-002
7.405624e+002;5.679811e-002
7.424910e+002;5.607222e-002
7.444196e+002;5.531349e-002
7.463481e+002;5.635684e-002
7.482766e+002;5.717780e-002
7.502052e+002;5.708899e-002
7.521337e+002;5.776083e-002
7.540623e+002;5.793087e-002
7.559908e+002;5.779296e-002
7.579194e+002;5.800187e-002
7.598479e+002;5.802940e-002
7.617765e+002;5.800948e-002
7.637050e+002;5.879127e-002
7.656335e+002;5.905820e-002
7.675621e+002;5.806417e-002
7.694907e+002;5.674185e-002
7.714192e+002;5.629136e-002
7.733478e+002;5.651147e-002
7.752763e+002;5.635194e-002
7.772048e+002;5.597685e-002
7.791334e+002;5.504926e-002
7.810620e+002;5.405118e-002
7.829905e+002;5.266506e-002
7.849191e+002;5.128914e-002
7.868476e+002;5.097499e-002
7.887761e+002;5.053033e-002
7.907047e+002;5.016433e-002
7.926332e+002;4.947650e-002
7.945618e+002;4.903986e-002
7.964903e+002;4.883192e-002
7.984189e+002;4.876689e-002
8.003474e+002;4.957915e-002
8.022759e+002;5.019776e-002
8.042045e+002;5.107162e-002
8.061331e+002;5.202253e-002
8.080616e+002;5.255043e-002
8.099902e+002;5.309005e-002
8.119187e+002;5.266611e-002
8.138472e+002;5.228784e-002
8.157758e+002;5.287526e-002
8.177043e+002;5.341817e-002
8.196329e+002;5.381401e-002
8.215615e+002;5.479395e-002
8.234900e+002;5.587367e-002
8.254185e+002;5.686145e-002
8.273471e+002;5.722483e-002
8.292756e+002;5.697813e-002
8.312042e+002;5.748285e-002
8.331328e+002;5.783191e-002
8.350613e+002;5.739473e-002
8.369898e+002;5.702128e-002
8.389184e+002;5.672939e-002
8.408469e+002;5.652706e-002
8.427755e+002;5.621042e-002
8.447040e+002;5.533569e-002
8.466326e+002;5.456787e-002
8.485611e+002;5.404907e-002
8.504897e+002;5.308357e-002
8.524182e+002;5.241751e-002
8.543467e+002;5.218377e-002
8.562753e+002;5.221456e-002
8.582039e+002;5.238237e-002
8.601324e+002;5.187420e-002
8.620610e+002;5.176668e-002
8.639895e+002;5.193298e-002
8.659180e+002;5.187872e-002
8.678466e+002;5.185400e-002
8.697751e+002;5.176922e-002
8.717037e+002;5.131270e-002
8.736323e+002;5.092801e-002
8.755608e+002;5.098889e-002
8.774893e+002;5.102977e-002
8.794179e+002;5.079361e-002
8.813464e+002;5.053472e-002
8.832750e+002;5.039348e-002
8.852036e+002;5.023150e-002
8.871321e+002;5.010386e-002
8.890606e+002;5.031687e-002
8.909892e+002;5.061997e-002
8.929177e+002;5.095365e-002
8.948463e+002;5.127792e-002
8.967748e+002;5.096691e-002
8.987034e+002;5.032383e-002
9.006319e+002;5.037041e-002
9.025605e+002;5.070047e-002
9.044890e+002;5.064134e-002
9.064175e+002;5.100596e-002
9.083461e+002;5.164643e-002
9.102747e+002;5.180565e-002
9.122032e+002;5.195874e-002
9.141318e+002;5.220342e-002
9.160603e+002;5.202952e-002
9.179888e+002;5.193391e-002
9.199174e+002;5.213957e-002
9.218459e+002;5.235504e-002
9.237745e+002;5.255293e-002
9.257031e+002;5.268145e-002
9.276316e+002;5.245695e-002
9.295601e+002;5.226848e-002
9.314887e+002;5.225933e-002
9.334172e+002;5.255039e-002
9.353458e+002;5.246353e-002
9.372744e+002;5.212346e-002
9.392029e+002;5.243425e-002
9.411314e+002;5.293293e-002
9.430600e+002;5.331836e-002
9.449885e+002;5.328457e-002
9.469171e+002;5.339295e-002
9.488456e+002;5.364129e-002
9.507742e+002;5.382162e-002
9.527027e+002;5.422007e-002
9.546313e+002;5.477433e-002
9.565598e+002;5.499010e-002
9.584883e+002;5.492828e-002
9.604169e+002;5.462731e-002
9.623455e+002;5.432238e-002
9.642740e+002;5.446663e-002
9.662026e+002;5.474295e-002
9.681311e+002;5.463618e-002
9.700596e+002;5.457227e-002
9.719882e+002;5.479576e-002
9.739167e+002;5.517505e-002
9.758453e+002;5.586304e-002
9.777739e+002;5.626496e-002
9.797024e+002;5.605337e-002
9.816309e+002;5.625394e-002
9.835595e+002;5.717587e-002
9.854880e+002;5.829586e-002
9.874166e+002;5.923065e-002
9.893452e+002;5.985542e-002
9.912737e+002;6.029927e-002
9.932022e+002;6.113909e-002
9.951307e+002;6.211978e-002
9.970593e+002;6.302527e-002
9.989879e+002;6.450232e-002
1.000916e+003;6.612287e-002
1.002845e+003;6.739168e-002
1.004773e+003;6.922641e-002
1.006702e+003;7.158601e-002
1.008631e+003;7.416990e-002
1.010559e+003;7.655408e-002
1.012488e+003;7.839226e-002
1.014416e+003;7.989302e-002
1.016345e+003;8.027504e-002
1.018273e+003;7.962316e-002
1.020202e+003;7.851373e-002
1.022130e+003;7.671386e-002
1.024059e+003;7.536640e-002
1.025988e+003;7.395904e-002
1.027916e+003;7.312188e-002
1.029845e+003;7.347295e-002
1.031773e+003;7.414230e-002
1.033702e+003;7.443528e-002
1.035630e+003;7.446525e-002
1.037559e+003;7.409848e-002
1.039487e+003;7.301293e-002
1.041416e+003;7.240086e-002
1.043344e+003;7.192246e-002
1.045273e+003;7.129107e-002
1.047202e+003;7.078613e-002
1.049130e+003;7.029224e-002
1.051059e+003;6.951158e-002
1.052987e+003;6.890679e-002
1.054916e+003;6.816776e-002
1.056844e+003;6.785182e-002
1.058773e+003;6.875429e-002
1.060701e+003;6.999982e-002
1.062630e+003;7.055106e-002
1.064558e+003;7.022980e-002
1.066487e+003;7.035898e-002
1.068416e+003;7.090583e-002
1.070344e+003;7.119878e-002
1.072273e+003;7.062852e-002
1.074201e+003;6.925960e-002
1.076130e+003;6.828872e-002
1.078058e+003;6.755377e-002
1.079987e+003;6.716838e-002
1.081915e+003;6.606866e-002
1.083844e+003;6.451601e-002
1.085773e+003;6.326556e-002
1.087701e+003;6.285268e-002
1.089630e+003;6.246348e-002
1.091558e+003;6.162500e-002
1.093487e+003;6.108520e-002
1.095415e+003;6.082563e-002
1.097344e+003;6.080071e-002
1.099272e+003;6.091193e-002
1.101201e+003;6.115885e-002
1.103129e+003;6.125266e-002
1.105058e+003;6.108447e-002
1.106987e+003;6.071321e-002
1.108915e+003;6.056565e-002
1.110844e+003;6.096870e-002
1.112772e+003;6.097343e-002
1.114701e+003;6.039670e-002
1.116629e+003;5.949094e-002
1.118558e+003;5.844299e-002
1.120486e+003;5.733983e-002
1.122415e+003;5.638582e-002
1.124344e+003;5.555382e-002
1.126272e+003;5.453293e-002
1.128201e+003;5.360834e-002
1.130129e+003;5.303719e-002
1.132058e+003;5.285509e-002
1.133986e+003;5.281561e-002
1.135915e+003;5.289038e-002
1.137843e+003;5.274643e-002
1.139772e+003;5.316700e-002
1.141700e+003;5.405358e-002
1.143629e+003;5.522043e-002
1.145557e+003;5.660987e-002
1.147486e+003;5.823046e-002
1.149415e+003;6.022177e-002
1.151343e+003;6.274394e-002
1.153272e+003;6.490427e-002
1.155200e+003;6.635208e-002
1.157129e+003;6.795042e-002
1.159057e+003;7.015728e-002
1.160986e+003;7.334092e-002
1.162914e+003;7.578131e-002
1.164843e+003;7.731276e-002
1.166771e+003;7.834003e-002
1.168700e+003;7.800773e-002
1.170629e+003;7.734028e-002
1.172557e+003;7.674268e-002
1.174486e+003;7.542616e-002
1.176414e+003;7.423259e-002
1.178343e+003;7.324608e-002
1.180271e+003;7.192426e-002
1.182200e+003;7.044704e-002
1.184128e+003;6.960620e-002
1.186057e+003;6.961102e-002
1.187986e+003;6.986313e-002
1.189914e+003;7.004097e-002
1.191843e+003;7.049856e-002
1.193771e+003;7.091816e-002
1.195700e+003;7.159851e-002
1.197628e+003;7.230665e-002
1.199557e+003;7.242255e-002
1.201485e+003;7.228090e-002
1.203414e+003;7.236074e-002
1.205343e+003;7.243598e-002
1.207271e+003;7.193380e-002
1.209200e+003;7.143396e-002
1.211128e+003;7.147045e-002
1.213057e+003;7.156897e-002
1.214985e+003;7.161367e-002
1.216914e+003;7.198785e-002
1.218842e+003;7.243355e-002
1.220771e+003;7.318462e-002
1.222699e+003;7.361856e-002
1.224628e+003;7.324804e-002
1.226557e+003;7.308836e-002
1.228485e+003;7.309471e-002
1.230414e+003;7.302183e-002
1.232342e+003;7.273975e-002
1.234271e+003;7.237682e-002
1.236199e+003;7.210906e-002
1.238128e+003;7.202902e-002
1.240056e+003;7.193661e-002
1.241985e+003;7.211073e-002
1.243913e+003;7.206149e-002
1.245842e+003;7.192481e-002
1.247771e+003;7.162800e-002
1.249699e+003;7.099116e-002
1.251628e+003;7.069854e-002
1.253556e+003;6.973223e-002
1.255485e+003;6.798688e-002
1.257413e+003;6.681243e-002
1.259342e+003;6.616890e-002
1.261270e+003;6.587230e-002
1.263199e+003;6.584463e-002
1.265127e+003;6.585484e-002
1.267056e+003;6.585781e-002
1.268985e+003;6.601620e-002
1.270913e+003;6.642532e-002
1.272842e+003;6.635358e-002
1.274770e+003;6.543066e-002
1.276699e+003;6.432384e-002
1.278627e+003;6.336198e-002
1.280556e+003;6.249765e-002
1.282484e+003;6.151504e-002
1.284413e+003;6.043341e-002
1.286342e+003;5.980941e-002
1.288270e+003;5.963342e-002
1.290199e+003;5.925192e-002
1.292127e+003;5.876403e-002
1.294056e+003;5.801785e-002
1.295984e+003;5.744405e-002
1.297913e+003;5.727631e-002
1.299841e+003;5.714741e-002
1.301770e+003;5.689771e-002
1.303698e+003;5.660005e-002
1.305627e+003;5.657744e-002
1.307556e+003;5.664003e-002
1.309484e+003;5.632621e-002
1.311413e+003;5.604527e-002
1.313341e+003;5.611132e-002
1.315270e+003;5.597218e-002
1.317198e+003;5.547147e-002
1.319127e+003;5.551323e-002
1.321055e+003;5.578346e-002
1.322984e+003;5.565666e-002
1.324912e+003;5.558334e-002
1.326841e+003;5.585965e-002
1.328770e+003;5.605929e-002
1.330698e+003;5.598258e-002
1.332627e+003;5.585742e-002
1.334555e+003;5.588780e-002
1.336484e+003;5.594896e-002
1.338412e+003;5.613738e-002
1.340341e+003;5.656057e-002
1.342269e+003;5.705056e-002
1.344198e+003;5.765812e-002
1.346126e+003;5.837223e-002
1.348055e+003;5.884624e-002
1.349984e+003;5.915535e-002
1.351912e+003;5.953745e-002
1.353841e+003;5.997786e-002
1.355769e+003;6.014200e-002
1.357698e+003;6.013248e-002
1.359626e+003;6.002804e-002
1.361555e+003;5.976260e-002
1.363483e+003;5.970219e-002
1.365412e+003;5.963764e-002
1.367341e+003;5.910596e-002
1.369269e+003;5.844595e-002
1.371198e+003;5.755540e-002
1.373126e+003;5.656974e-002
1.375055e+003;5.618941e-002
1.376983e+003;5.588192e-002
1.378912e+003;5.516903e-002
1.380840e+003;5.444327e-002
1.382769e+003;5.385954e-002
1.384698e+003;5.302626e-002
1.386626e+003;5.161355e-002
1.388555e+003;5.044212e-002
1.390483e+003;4.934986e-002
1.392412e+003;4.784823e-002
1.394340e+003;4.617256e-002
1.396269e+003;4.525602e-002
1.398197e+003;4.470602e-002
1.400126e+003;4.447030e-002
1.402054e+003;4.422734e-002
1.403983e+003;4.388372e-002
1.405911e+003;4.399287e-002
1.407840e+003;4.409037e-002
1.409769e+003;4.430816e-002
1.411697e+003;4.481063e-002
1.413626e+003;4.538140e-002
1.415554e+003;4.580719e-002
1.417483e+003;4.547469e-002
1.419411e+003;4.542731e-002
1.421340e+003;4.689998e-002
1.423268e+003;4.832682e-002
1.425197e+003;5.029708e-002
1.427125e+003;5.292732e-002
1.429054e+003;5.564706e-002
1.430983e+003;5.882264e-002
1.432911e+003;6.216233e-002
1.434840e+003;6.417386e-002
1.436768e+003;6.578837e-002
1.438697e+003;6.894212e-002
1.440625e+003;7.198698e-002
1.442554e+003;7.479332e-002
1.444482e+003;7.762144e-002
1.446411e+003;7.997025e-002
1.448340e+003;8.200238e-002
1.450268e+003;8.345019e-002
1.452197e+003;8.375949e-002
1.454125e+003;8.223824e-002
1.456054e+003;7.778659e-002
1.457982e+003;7.338871e-002
1.459911e+003;6.972103e-002
1.461839e+003;6.503069e-002
1.463768e+003;5.984892e-002
1.465697e+003;5.602989e-002
1.467625e+003;5.364366e-002
1.469554e+003;5.106793e-002
1.471482e+003;4.774026e-002
1.473411e+003;4.550946e-002
1.475339e+003;4.491692e-002
1.477268e+003;4.412639e-002
1.479196e+003;4.316371e-002
1.481125e+003;4.248246e-002
1.483053e+003;4.207849e-002
1.484982e+003;4.150953e-002
1.486911e+003;4.043988e-002
1.488839e+003;3.938421e-002
1.490768e+003;3.913008e-002
1.492696e+003;3.944836e-002
1.494625e+003;3.859719e-002
1.496553e+003;3.775756e-002
1.498482e+003;3.819848e-002
1.500410e+003;3.862961e-002
1.502339e+003;3.847495e-002
1.504267e+003;3.672779e-002
1.506196e+003;3.491493e-002
1.508125e+003;3.599923e-002
1.510053e+003;3.774386e-002
1.511982e+003;3.852213e-002
1.513910e+003;3.914458e-002
1.515839e+003;3.908737e-002
1.517767e+003;3.882043e-002
1.519696e+003;3.793456e-002
1.521624e+003;3.747169e-002
1.523553e+003;3.865615e-002
1.525481e+003;3.936245e-002
1.527410e+003;4.011139e-002
1.529339e+003;4.087840e-002
1.531267e+003;4.137189e-002
1.533196e+003;4.185021e-002
1.535124e+003;4.348079e-002
1.537053e+003;4.408190e-002
1.538981e+003;4.280624e-002
1.540910e+003;4.299994e-002
1.542838e+003;4.412470e-002
1.544767e+003;4.446428e-002
1.546695e+003;4.424238e-002
1.548624e+003;4.334238e-002
1.550553e+003;4.319852e-002
1.552481e+003;4.328948e-002
1.554410e+003;4.236022e-002
1.556338e+003;4.095883e-002
1.558267e+003;3.869172e-002
1.560195e+003;3.894455e-002
1.562124e+003;4.101436e-002
1.564052e+003;4.142700e-002
1.565981e+003;4.129146e-002
1.567910e+003;4.082879e-002
1.569838e+003;4.061582e-002
1.571767e+003;4.178096e-002
1.573695e+003;4.211204e-002
1.575624e+003;4.124606e-002
1.577552e+003;4.195340e-002
1.579481e+003;4.278390e-002
1.581409e+003;4.239466e-002
1.583338e+003;4.128395e-002
1.585266e+003;4.017568e-002
1.587195e+003;3.954754e-002
1.589124e+003;3.923810e-002
1.591052e+003;3.899522e-002
1.592981e+003;3.880761e-002
1.594909e+003;3.918008e-002
1.596838e+003;3.971916e-002
1.598766e+003;4.013046e-002
1.600695e+003;4.034697e-002
1.602623e+003;4.063442e-002
1.604552e+003;4.093028e-002
1.606480e+003;4.097477e-002
1.608409e+003;4.090312e-002
1.610338e+003;4.089107e-002
1.612266e+003;4.085641e-002
1.614195e+003;4.014206e-002
1.616123e+003;3.878957e-002
1.618052e+003;3.929588e-002
1.619980e+003;4.044650e-002
1.621909e+003;4.022602e-002
1.623837e+003;4.020821e-002
1.625766e+003;4.052746e-002
1.627694e+003;4.065010e-002
1.629623e+003;4.101916e-002
1.631552e+003;4.111272e-002
1.633480e+003;4.017960e-002
1.635409e+003;3.933759e-002
1.637337e+003;4.047876e-002
1.639266e+003;4.164138e-002
1.641194e+003;4.214504e-002
1.643123e+003;4.198975e-002
1.645051e+003;4.110009e-002
1.646980e+003;4.097204e-002
1.648909e+003;4.214234e-002
1.650837e+003;4.115866e-002
1.652766e+003;3.897329e-002
1.654694e+003;4.130902e-002
1.656623e+003;4.415093e-002
1.658551e+003;4.458859e-002
1.660480e+003;4.412540e-002
1.662408e+003;4.385282e-002
1.664337e+003;4.444057e-002
1.666266e+003;4.485013e-002
1.668194e+003;4.408824e-002
1.670123e+003;4.345735e-002
1.672051e+003;4.356320e-002
1.673980e+003;4.299105e-002
1.675908e+003;4.217031e-002
1.677837e+003;4.209039e-002
1.679765e+003;4.150191e-002
1.681694e+003;3.988977e-002
1.683622e+003;3.739523e-002
1.685551e+003;3.738002e-002
1.687479e+003;3.878326e-002
1.689408e+003;3.873157e-002
1.691337e+003;3.861722e-002
1.693265e+003;3.799972e-002
1.695194e+003;3.628720e-002
1.697122e+003;3.619150e-002
1.699051e+003;3.572692e-002
1.700979e+003;3.586851e-002
1.702908e+003;3.781334e-002
1.704836e+003;3.871490e-002
1.706765e+003;4.028269e-002
1.708693e+003;4.254297e-002
1.710622e+003;4.497461e-002
1.712551e+003;4.730854e-002
1.714479e+003;4.968119e-002
1.716408e+003;5.221579e-002
1.718336e+003;5.631210e-002
1.720265e+003;6.171726e-002
1.722193e+003;6.633779e-002
1.724122e+003;7.012297e-002
1.726050e+003;7.293712e-002
1.727979e+003;7.458574e-002
1.729908e+003;7.546569e-002
1.731836e+003;7.452012e-002
1.733765e+003;7.237048e-002
1.735693e+003;7.164586e-002
1.737622e+003;6.969835e-002
1.739550e+003;6.564204e-002
1.741479e+003;6.174053e-002
1.743407e+003;5.762978e-002
1.745336e+003;5.338928e-002
1.747265e+003;4.905258e-002
1.749193e+003;4.434188e-002
1.751122e+003;4.012240e-002
1.753050e+003;3.731968e-002
1.754979e+003;3.468307e-002
1.756907e+003;3.224187e-002
1.758836e+003;3.056224e-002
1.760764e+003;2.901761e-002
1.762693e+003;2.807792e-002
1.764621e+003;2.762904e-002
1.766550e+003;2.685276e-002
1.768479e+003;2.650360e-002
1.770407e+003;2.574975e-002
1.772336e+003;2.482601e-002
1.774264e+003;2.535490e-002
1.776193e+003;2.567171e-002
1.778121e+003;2.543268e-002
1.780050e+003;2.524110e-002
1.781978e+003;2.521389e-002
1.783907e+003;2.508662e-002
1.785835e+003;2.492191e-002
1.787764e+003;2.472572e-002
1.789693e+003;2.422717e-002
1.791621e+003;2.350090e-002
1.793550e+003;2.348349e-002
1.795478e+003;2.400167e-002
1.797407e+003;2.375522e-002
1.799335e+003;2.325953e-002
1.801264e+003;2.314866e-002
1.803192e+003;2.351591e-002
1.805121e+003;2.385144e-002
1.807049e+003;2.382536e-002
1.808978e+003;2.334368e-002
1.810907e+003;2.299170e-002
1.812835e+003;2.291041e-002
1.814764e+003;2.293102e-002
1.816692e+003;2.282453e-002
1.818621e+003;2.271891e-002
1.820549e+003;2.276698e-002
1.822478e+003;2.268867e-002
1.824406e+003;2.235456e-002
1.826335e+003;2.231152e-002
1.828264e+003;2.214660e-002
1.830192e+003;2.198983e-002
1.832121e+003;2.209367e-002
1.834049e+003;2.216054e-002
1.835978e+003;2.215117e-002
1.837906e+003;2.228072e-002
1.839835e+003;2.224584e-002
1.841763e+003;2.178841e-002
1.843692e+003;2.120675e-002
1.845620e+003;2.142614e-002
1.847549e+003;2.160151e-002
1.849478e+003;2.153093e-002
1.851406e+003;2.145600e-002
1.853335e+003;2.143724e-002
1.855263e+003;2.137445e-002
1.857192e+003;2.130063e-002
1.859120e+003;2.124151e-002
1.861049e+003;2.143536e-002
1.862977e+003;2.156233e-002
1.864906e+003;2.133226e-002
1.866834e+003;2.104375e-002
1.868763e+003;2.074325e-002
1.870692e+003;2.083634e-002
1.872620e+003;2.093806e-002
1.874549e+003;2.078875e-002
1.876477e+003;2.070815e-002
1.878406e+003;2.062180e-002
1.880334e+003;2.059488e-002
1.882263e+003;2.055996e-002
1.884191e+003;2.069575e-002
1.886120e+003;2.077832e-002
1.888048e+003;2.054502e-002
1.889977e+003;2.046558e-002
1.891906e+003;2.057056e-002
1.893834e+003;2.049636e-002
1.895763e+003;2.047746e-002
1.897691e+003;2.057973e-002
1.899620e+003;2.057535e-002
1.901548e+003;2.036081e-002
1.903477e+003;2.026643e-002
1.905405e+003;2.030678e-002
1.907334e+003;2.031171e-002
1.909262e+003;2.003226e-002
1.911191e+003;1.986727e-002
1.913120e+003;2.008397e-002
1.915048e+003;2.009254e-002
1.916977e+003;1.968802e-002
1.918905e+003;1.978119e-002
1.920834e+003;2.014373e-002
1.922762e+003;2.026914e-002
1.924691e+003;2.020207e-002
1.926619e+003;1.997054e-002
1.928548e+003;2.002435e-002
1.930477e+003;2.018729e-002
1.932405e+003;1.998556e-002
1.934334e+003;1.958821e-002
1.936262e+003;1.940146e-002
1.938191e+003;1.942329e-002
1.940119e+003;1.948167e-002
1.942048e+003;1.954527e-002
1.943976e+003;1.968212e-002
1.945905e+003;1.989283e-002
1.947833e+003;2.008799e-002
1.949762e+003;2.016143e-002
1.951691e+003;1.994008e-002
1.953619e+003;1.974894e-002
1.955548e+003;1.973160e-002
1.957476e+003;2.000700e-002
1.959405e+003;2.023252e-002
1.961333e+003;2.023175e-002
1.963262e+003;2.018694e-002
1.965190e+003;2.000173e-002
1.967119e+003;1.981698e-002
1.969047e+003;1.989242e-002
1.970976e+003;2.004829e-002
1.972905e+003;2.007557e-002
1.974833e+003;1.989495e-002
1.976762e+003;1.971794e-002
1.978690e+003;1.977398e-002
1.980619e+003;2.001779e-002
1.982547e+003;2.008771e-002
1.984476e+003;1.991174e-002
1.986404e+003;1.999559e-002
1.988333e+003;2.015705e-002
1.990261e+003;1.995385e-002
1.992190e+003;1.992596e-002
1.994119e+003;1.986918e-002
1.996047e+003;1.977814e-002
1.997976e+003;1.979194e-002
1.999904e+003;1.972595e-002
2.001833e+003;1.985697e-002
2.003761e+003;2.010784e-002
2.005690e+003;2.001155e-002
2.007618e+003;1.976680e-002
2.009547e+003;1.979794e-002
2.011476e+003;1.992912e-002
2.013404e+003;2.013495e-002
2.015333e+003;2.018489e-002
2.017261e+003;2.003615e-002
2.019190e+003;2.007720e-002
2.021118e+003;2.032257e-002
2.023047e+003;2.032039e-002
2.024975e+003;2.035188e-002
2.026904e+003;2.039077e-002
2.028833e+003;2.013505e-002
2.030761e+003;2.012734e-002
2.032690e+003;2.017257e-002
2.034618e+003;2.002210e-002
2.036547e+003;2.002345e-002
2.038475e+003;2.016427e-002
2.040404e+003;2.030445e-002
2.042332e+003;2.049288e-002
2.044261e+003;2.042220e-002
2.046189e+003;2.053325e-002
2.048118e+003;2.054857e-002
2.050047e+003;2.040651e-002
2.051975e+003;2.051883e-002
2.053904e+003;2.051431e-002
2.055832e+003;2.045457e-002
2.057761e+003;2.037858e-002
2.059689e+003;2.035580e-002
2.061618e+003;2.038681e-002
2.063546e+003;2.030886e-002
2.065475e+003;2.022023e-002
2.067404e+003;2.025189e-002
2.069332e+003;2.032712e-002
2.071260e+003;2.032789e-002
2.073189e+003;2.052946e-002
2.075118e+003;2.058855e-002
2.077046e+003;2.055079e-002
2.078975e+003;2.039327e-002
2.080903e+003;2.003427e-002
2.082832e+003;2.010232e-002
2.084760e+003;2.022307e-002
2.086689e+003;2.036903e-002
2.088617e+003;2.039268e-002
2.090546e+003;2.036643e-002
2.092475e+003;2.061423e-002
2.094403e+003;2.087739e-002
2.096332e+003;2.070715e-002
2.098260e+003;2.039202e-002
2.100189e+003;2.055899e-002
2.102117e+003;2.079327e-002
2.104046e+003;2.080863e-002
2.105974e+003;2.082723e-002
2.107903e+003;2.087642e-002
2.109832e+003;2.074669e-002
2.111760e+003;2.040998e-002
2.113688e+003;2.018045e-002
2.115617e+003;2.018652e-002
2.117546e+003;2.015775e-002
2.119474e+003;2.000256e-002
2.121403e+003;1.996936e-002
2.123331e+003;2.004923e-002
2.125260e+003;2.021061e-002
2.127188e+003;2.035473e-002
2.129117e+003;2.039810e-002
2.131045e+003;2.058907e-002
2.132974e+003;2.062403e-002
2.134903e+003;2.038747e-002
2.136831e+003;2.039303e-002
2.138760e+003;2.080836e-002
2.140688e+003;2.091042e-002
2.142617e+003;2.052428e-002
2.144545e+003;2.040768e-002
2.146474e+003;2.048701e-002
2.148402e+003;2.062277e-002
2.150331e+003;2.095858e-002
2.152260e+003;2.103964e-002
2.154188e+003;2.066218e-002
2.156117e+003;2.042891e-002
2.158045e+003;2.065582e-002
2.159974e+003;2.058814e-002
2.161902e+003;2.051119e-002
2.163831e+003;2.082876e-002
2.165759e+003;2.097096e-002
2.167688e+003;2.089144e-002
2.169616e+003;2.076498e-002
2.171545e+003;2.054565e-002
2.173474e+003;2.043460e-002
2.175402e+003;2.050361e-002
2.177331e+003;2.073439e-002
2.179259e+003;2.084837e-002
2.181188e+003;2.090187e-002
2.183116e+003;2.090038e-002
2.185045e+003;2.105369e-002
2.186973e+003;2.144660e-002
2.188902e+003;2.171149e-002
2.190831e+003;2.194769e-002
2.192759e+003;2.189925e-002
2.194688e+003;2.175041e-002
2.196616e+003;2.163431e-002
2.198545e+003;2.148991e-002
2.200473e+003;2.160172e-002
2.202402e+003;2.172275e-002
2.204330e+003;2.169819e-002
2.206259e+003;2.189437e-002
2.208188e+003;2.193479e-002
2.210116e+003;2.189803e-002
2.212044e+003;2.215667e-002
2.213973e+003;2.236771e-002
2.215902e+003;2.235924e-002
2.217830e+003;2.245672e-002
2.219759e+003;2.273008e-002
2.221687e+003;2.298412e-002
2.223616e+003;2.352116e-002
2.225544e+003;2.444759e-002
2.227473e+003;2.592041e-002
2.229401e+003;2.862144e-002
2.231330e+003;3.289837e-002
2.233259e+003;3.882152e-002
2.235187e+003;4.614028e-002
2.237116e+003;5.332207e-002
2.239044e+003;5.858615e-002
2.240973e+003;6.109916e-002
2.242901e+003;6.085265e-002
2.244830e+003;5.837848e-002
2.246758e+003;5.457407e-002
2.248687e+003;5.025657e-002
2.250615e+003;4.544850e-002
2.252544e+003;4.043271e-002
2.254473e+003;3.605161e-002
2.256401e+003;3.241049e-002
2.258330e+003;2.926540e-002
2.260258e+003;2.719374e-002
2.262187e+003;2.592769e-002
2.264115e+003;2.477350e-002
2.266044e+003;2.420026e-002
2.267972e+003;2.374924e-002
2.269901e+003;2.317624e-002
2.271830e+003;2.281402e-002
2.273758e+003;2.251387e-002
2.275687e+003;2.228058e-002
2.277615e+003;2.197167e-002
2.279544e+003;2.179799e-002
2.281472e+003;2.180674e-002
2.283401e+003;2.159113e-002
2.285329e+003;2.152017e-002
2.287258e+003;2.169572e-002
2.289187e+003;2.172856e-002
2.291115e+003;2.171076e-002
2.293043e+003;2.158845e-002
2.294972e+003;2.148152e-002
2.296901e+003;2.166653e-002
2.298829e+003;2.176789e-002
2.300758e+003;2.151171e-002
2.302686e+003;2.134504e-002
2.304615e+003;2.146189e-002
2.306543e+003;2.143157e-002
2.308472e+003;2.114037e-002
2.310400e+003;2.099958e-002
2.312329e+003;2.097169e-002
2.314258e+003;2.099513e-002
2.316186e+003;2.123055e-002
2.318115e+003;2.124408e-002
2.320043e+003;2.111456e-002
2.321972e+003;2.084152e-002
2.323900e+003;2.064859e-002
2.325829e+003;2.077457e-002
2.327757e+003;2.060902e-002
2.329686e+003;2.037209e-002
2.331615e+003;2.047798e-002
2.333543e+003;2.042484e-002
2.335472e+003;2.036313e-002
2.337400e+003;2.032494e-002
2.339329e+003;2.026216e-002
2.341257e+003;2.023668e-002
2.343186e+003;2.049090e-002
2.345114e+003;2.080106e-002
2.347043e+003;2.105348e-002
2.348971e+003;2.117252e-002
2.350900e+003;2.106726e-002
2.352829e+003;2.077137e-002
2.354757e+003;2.044179e-002
2.356686e+003;2.034768e-002
2.358614e+003;2.019628e-002
2.360543e+003;2.000489e-002
2.362471e+003;1.991781e-002
2.364400e+003;2.000097e-002
2.366328e+003;2.031060e-002
2.368257e+003;2.061464e-002
2.370186e+003;2.081597e-002
2.372114e+003;2.099422e-002
2.374042e+003;2.131866e-002
2.375971e+003;2.148473e-002
2.377900e+003;2.145889e-002
2.379828e+003;2.155161e-002
2.381757e+003;2.169453e-002
2.383685e+003;2.191113e-002
2.385614e+003;2.218122e-002
2.387542e+003;2.201552e-002
2.389471e+003;2.172101e-002
2.391399e+003;2.179545e-002
2.393328e+003;2.208621e-002
2.395257e+003;2.214733e-002
2.397185e+003;2.198948e-002
2.399114e+003;2.206962e-002
2.401042e+003;2.240169e-002
2.402971e+003;2.255561e-002
2.404899e+003;2.238819e-002
2.406828e+003;2.226087e-002
2.408756e+003;2.211606e-002
2.410685e+003;2.211550e-002
2.412614e+003;2.223001e-002
2.414542e+003;2.214702e-002
2.416471e+003;2.210263e-002
2.418399e+003;2.215169e-002
2.420328e+003;2.211006e-002
2.422256e+003;2.207011e-002
2.424185e+003;2.231884e-002
2.426113e+003;2.234985e-002
2.428042e+003;2.218928e-002
2.429970e+003;2.201416e-002
2.431899e+003;2.191291e-002
2.433828e+003;2.212934e-002
2.435756e+003;2.243003e-002
2.437685e+003;2.248641e-002
2.439613e+003;2.237529e-002
2.441542e+003;2.242709e-002
2.443470e+003;2.253963e-002
2.445399e+003;2.231668e-002
2.447327e+003;2.226827e-002
2.449256e+003;2.242472e-002
2.451185e+003;2.264291e-002
2.453113e+003;2.261589e-002
2.455042e+003;2.254047e-002
2.456970e+003;2.232069e-002
2.458899e+003;2.227437e-002
2.460827e+003;2.248501e-002
2.462756e+003;2.261278e-002
2.464684e+003;2.255872e-002
2.466613e+003;2.234748e-002
2.468542e+003;2.216313e-002
2.470470e+003;2.229596e-002
2.472398e+003;2.264385e-002
2.474327e+003;2.273238e-002
2.476256e+003;2.262305e-002
2.478184e+003;2.255355e-002
2.480113e+003;2.279185e-002
2.482041e+003;2.283599e-002
2.483970e+003;2.254137e-002
2.485898e+003;2.245127e-002
2.487827e+003;2.268382e-002
2.489755e+003;2.276067e-002
2.491684e+003;2.283986e-002
2.493613e+003;2.299722e-002
2.495541e+003;2.309820e-002
2.497470e+003;2.316900e-002
2.499398e+003;2.325645e-002
2.501327e+003;2.340564e-002
2.503255e+003;2.315244e-002
2.505184e+003;2.298810e-002
2.507112e+003;2.333372e-002
2.509041e+003;2.363814e-002
2.510969e+003;2.363272e-002
2.512898e+003;2.338155e-002
2.514827e+003;2.336190e-002
2.516755e+003;2.336798e-002
2.518684e+003;2.310470e-002
2.520612e+003;2.304460e-002
2.522541e+003;2.322552e-002
2.524469e+003;2.327701e-002
2.526398e+003;2.323020e-002
2.528326e+003;2.325708e-002
2.530255e+003;2.327848e-002
2.532184e+003;2.326355e-002
2.534112e+003;2.337721e-002
2.536041e+003;2.366249e-002
2.537969e+003;2.350003e-002
2.539898e+003;2.316358e-002
2.541826e+003;2.316813e-002
2.543755e+003;2.328662e-002
2.545683e+003;2.314569e-002
2.547612e+003;2.305061e-002
2.549541e+003;2.327865e-002
2.551469e+003;2.332148e-002
2.553397e+003;2.329382e-002
2.555326e+003;2.320801e-002
2.557255e+003;2.290402e-002
2.559183e+003;2.277655e-002
2.561112e+003;2.293581e-002
2.563040e+003;2.311941e-002
2.564969e+003;2.326593e-002
2.566897e+003;2.314719e-002
2.568826e+003;2.277428e-002
2.570754e+003;2.265485e-002
2.572683e+003;2.289801e-002
2.574612e+003;2.312542e-002
2.576540e+003;2.310900e-002
2.578469e+003;2.286061e-002
2.580397e+003;2.266685e-002
2.582326e+003;2.261167e-002
2.584254e+003;2.269838e-002
2.586183e+003;2.282956e-002
2.588111e+003;2.275532e-002
2.590040e+003;2.257017e-002
2.591969e+003;2.241314e-002
2.593897e+003;2.254396e-002
2.595826e+003;2.271081e-002
2.597754e+003;2.288614e-002
2.599683e+003;2.286222e-002
2.601611e+003;2.258734e-002
2.603540e+003;2.255722e-002
2.605468e+003;2.264235e-002
2.607397e+003;2.272610e-002
2.609325e+003;2.275431e-002
2.611254e+003;2.279289e-002
2.613183e+003;2.293462e-002
2.615111e+003;2.317893e-002
2.617040e+003;2.307437e-002
2.618968e+003;2.287074e-002
2.620897e+003;2.282631e-002
2.622825e+003;2.258818e-002
2.624754e+003;2.259854e-002
2.626682e+003;2.283386e-002
2.628611e+003;2.292107e-002
2.630540e+003;2.318766e-002
2.632468e+003;2.336312e-002
2.634396e+003;2.315205e-002
2.636325e+003;2.294720e-002
2.638254e+003;2.300777e-002
2.640182e+003;2.312608e-002
2.642111e+003;2.306483e-002
2.644039e+003;2.299233e-002
2.645968e+003;2.296288e-002
2.647896e+003;2.284091e-002
2.649825e+003;2.291614e-002
2.651753e+003;2.312724e-002
2.653682e+003;2.319130e-002
2.655611e+003;2.306071e-002
2.657539e+003;2.304250e-002
2.659468e+003;2.314932e-002
2.661396e+003;2.289099e-002
2.663325e+003;2.276765e-002
2.665253e+003;2.295348e-002
2.667182e+003;2.308904e-002
2.669110e+003;2.297144e-002
2.671039e+003;2.268850e-002
2.672968e+003;2.273427e-002
2.674896e+003;2.310274e-002
2.676825e+003;2.320266e-002
2.678753e+003;2.292247e-002
2.680682e+003;2.276765e-002
2.682610e+003;2.273437e-002
2.684539e+003;2.274565e-002
2.686467e+003;2.299055e-002
2.688396e+003;2.324425e-002
2.690324e+003;2.327016e-002
2.692253e+003;2.293329e-002
2.694182e+003;2.279331e-002
2.696110e+003;2.312884e-002
2.698039e+003;2.320797e-002
2.699967e+003;2.294342e-002
2.701896e+003;2.291468e-002
2.703824e+003;2.302066e-002
2.705753e+003;2.299058e-002
2.707681e+003;2.308342e-002
2.709610e+003;2.305190e-002
2.711539e+003;2.247308e-002
2.713467e+003;2.230852e-002
2.715396e+003;2.266605e-002
2.717324e+003;2.282017e-002
2.719253e+003;2.281008e-002
2.721181e+003;2.277516e-002
2.723110e+003;2.288970e-002
2.725038e+003;2.298234e-002
2.726967e+003;2.303785e-002
2.728896e+003;2.317281e-002
2.730824e+003;2.313283e-002
2.732752e+003;2.294384e-002
2.734681e+003;2.285488e-002
2.736610e+003;2.284992e-002
2.738538e+003;2.278437e-002
2.740467e+003;2.309041e-002
2.742395e+003;2.324282e-002
2.744324e+003;2.298622e-002
2.746252e+003;2.288027e-002
2.748181e+003;2.295764e-002
2.750109e+003;2.315086e-002
2.752038e+003;2.310236e-002
2.753967e+003;2.282932e-002
2.755895e+003;2.270903e-002
2.757824e+003;2.299111e-002
2.759752e+003;2.299341e-002
2.761681e+003;2.262196e-002
2.763609e+003;2.253317e-002
2.765538e+003;2.277477e-002
2.767466e+003;2.300449e-002
2.769395e+003;2.309411e-002
2.771323e+003;2.311766e-002
2.773252e+003;2.315719e-002
2.775181e+003;2.331354e-002
2.777109e+003;2.356348e-002
2.779038e+003;2.349786e-002
2.780966e+003;2.343963e-002
2.782895e+003;2.375599e-002
2.784823e+003;2.379551e-002
2.786752e+003;2.354991e-002
2.788680e+003;2.348258e-002
2.790609e+003;2.391036e-002
2.792538e+003;2.425800e-002
2.794466e+003;2.453303e-002
2.796395e+003;2.474059e-002
2.798323e+003;2.474578e-002
2.800252e+003;2.507784e-002
2.802180e+003;2.546711e-002
2.804109e+003;2.555246e-002
2.806037e+003;2.543116e-002
2.807966e+003;2.535363e-002
2.809895e+003;2.537910e-002
2.811823e+003;2.569428e-002
2.813751e+003;2.614416e-002
2.815680e+003;2.618027e-002
2.817609e+003;2.609630e-002
2.819537e+003;2.632800e-002
2.821466e+003;2.644126e-002
2.823394e+003;2.638605e-002
2.825323e+003;2.659719e-002
2.827251e+003;2.692724e-002
2.829180e+003;2.715857e-002
2.831108e+003;2.778549e-002
2.833037e+003;2.861578e-002
2.834966e+003;2.915664e-002
2.836894e+003;2.970587e-002
2.838823e+003;3.091126e-002
2.840751e+003;3.253635e-002
2.842680e+003;3.442062e-002
2.844608e+003;3.709898e-002
2.846537e+003;4.072677e-002
2.848465e+003;4.361038e-002
2.850394e+003;4.464238e-002
2.852323e+003;4.393640e-002
2.854251e+003;4.272972e-002
2.856180e+003;4.177706e-002
2.858108e+003;4.066534e-002
2.860037e+003;4.012112e-002
2.861965e+003;3.957497e-002
2.863894e+003;3.867459e-002
2.865822e+003;3.841772e-002
2.867751e+003;3.866090e-002
2.869679e+003;3.887182e-002
2.871608e+003;3.864409e-002
2.873536e+003;3.807704e-002
2.875465e+003;3.755040e-002
2.877394e+003;3.709624e-002
2.879322e+003;3.711775e-002
2.881251e+003;3.708801e-002
2.883179e+003;3.685967e-002
2.885108e+003;3.698405e-002
2.887036e+003;3.771061e-002
2.888965e+003;3.850211e-002
2.890893e+003;3.902443e-002
2.892822e+003;3.958180e-002
2.894750e+003;4.029436e-002
2.896679e+003;4.104309e-002
2.898608e+003;4.181927e-002
2.900536e+003;4.271421e-002
2.902465e+003;4.372550e-002
2.904393e+003;4.502184e-002
2.906322e+003;4.669918e-002
2.908250e+003;4.847424e-002
2.910179e+003;5.042791e-002
2.912107e+003;5.311042e-002
2.914036e+003;5.670976e-002
2.915965e+003;5.964927e-002
2.917893e+003;6.061673e-002
2.919822e+003;6.047225e-002
2.921750e+003;6.001061e-002
2.923679e+003;5.955482e-002
2.925607e+003;5.893906e-002
2.927536e+003;5.812344e-002
2.929464e+003;5.689170e-002
2.931393e+003;5.561452e-002
2.933322e+003;5.476730e-002
2.935250e+003;5.436357e-002
2.937178e+003;5.351576e-002
2.939107e+003;5.238375e-002
2.941036e+003;5.157433e-002
2.942964e+003;5.089228e-002
2.944893e+003;5.000254e-002
2.946821e+003;4.909547e-002
2.948750e+003;4.831593e-002
2.950678e+003;4.764041e-002
2.952607e+003;4.707280e-002
2.954535e+003;4.638543e-002
2.956464e+003;4.541167e-002
2.958393e+003;4.444222e-002
2.960321e+003;4.352401e-002
2.962250e+003;4.263090e-002
2.964178e+003;4.151904e-002
2.966107e+003;4.056300e-002
2.968035e+003;3.975496e-002
2.969964e+003;3.908845e-002
2.971892e+003;3.829336e-002
2.973821e+003;3.741101e-002
2.975750e+003;3.666822e-002
2.977678e+003;3.616878e-002
2.979607e+003;3.574649e-002
2.981535e+003;3.542207e-002
2.983464e+003;3.502928e-002
2.985392e+003;3.450983e-002
2.987321e+003;3.426233e-002
2.989249e+003;3.380561e-002
2.991178e+003;3.330186e-002
2.993106e+003;3.294384e-002
2.995035e+003;3.271266e-002
2.996964e+003;3.245219e-002
2.998892e+003;3.220686e-002
3.000821e+003;3.182634e-002
3.002749e+003;3.144651e-002
3.004678e+003;3.127962e-002
3.006606e+003;3.120136e-002
3.008535e+003;3.088173e-002
3.010463e+003;3.047540e-002
3.012392e+003;3.009569e-002
3.014321e+003;2.969988e-002
3.016249e+003;2.927706e-002
3.018177e+003;2.928543e-002
3.020106e+003;2.951847e-002
3.022035e+003;2.935391e-002
3.023963e+003;2.872055e-002
3.025892e+003;2.826403e-002
3.027820e+003;2.850275e-002
3.029749e+003;2.861511e-002
3.031677e+003;2.839408e-002
3.033606e+003;2.806325e-002
3.035534e+003;2.778062e-002
3.037463e+003;2.774501e-002
3.039392e+003;2.764874e-002
3.041320e+003;2.735003e-002
3.043249e+003;2.726196e-002
3.045177e+003;2.757668e-002
3.047106e+003;2.777348e-002
3.049034e+003;2.719120e-002
3.050963e+003;2.682513e-002
3.052891e+003;2.700368e-002
3.054820e+003;2.706077e-002
3.056749e+003;2.675655e-002
3.058677e+003;2.664880e-002
3.060606e+003;2.681032e-002
3.062534e+003;2.668188e-002
3.064463e+003;2.660342e-002
3.066391e+003;2.653984e-002
3.068320e+003;2.627892e-002
3.070248e+003;2.591651e-002
3.072177e+003;2.571590e-002
3.074105e+003;2.573938e-002
3.076034e+003;2.568830e-002
3.077963e+003;2.514493e-002
3.079891e+003;2.481408e-002
3.081820e+003;2.500820e-002
3.083748e+003;2.552979e-002
3.085677e+003;2.544999e-002
3.087605e+003;2.531862e-002
3.089534e+003;2.566957e-002
3.091462e+003;2.582408e-002
3.093391e+003;2.576406e-002
3.095320e+003;2.586424e-002
3.097248e+003;2.570736e-002
3.099177e+003;2.534408e-002
3.101105e+003;2.512889e-002
3.103034e+003;2.494556e-002
3.104962e+003;2.506710e-002
3.106891e+003;2.495745e-002
3.108819e+003;2.444237e-002
3.110748e+003;2.441065e-002
3.112677e+003;2.484334e-002
3.114605e+003;2.508546e-002
3.116533e+003;2.477444e-002
3.118462e+003;2.468735e-002
3.120391e+003;2.488769e-002
3.122319e+003;2.475003e-002
3.124248e+003;2.472807e-002
3.126176e+003;2.480742e-002
3.128105e+003;2.490938e-002
3.130033e+003;2.504713e-002
3.131962e+003;2.483355e-002
3.133890e+003;2.459978e-002
3.135819e+003;2.460196e-002
3.137748e+003;2.440627e-002
3.139676e+003;2.452286e-002
3.141605e+003;2.463818e-002
3.143533e+003;2.475634e-002
3.145462e+003;2.502523e-002
3.147390e+003;2.482261e-002
3.149319e+003;2.460347e-002
3.151247e+003;2.447592e-002
3.153176e+003;2.424546e-002
3.155104e+003;2.429087e-002
3.157033e+003;2.448990e-002
3.158962e+003;2.487229e-002
3.160890e+003;2.499188e-002
3.162819e+003;2.484026e-002
3.164747e+003;2.455736e-002
3.166676e+003;2.468896e-002
3.168604e+003;2.518636e-002
3.170533e+003;2.517112e-002
3.172461e+003;2.501979e-002
3.174390e+003;2.497121e-002
3.176319e+003;2.535785e-002
3.178247e+003;2.567273e-002
3.180176e+003;2.566813e-002
3.182104e+003;2.567189e-002
3.184033e+003;2.565231e-002
3.185961e+003;2.555576e-002
3.187890e+003;2.558514e-002
3.189818e+003;2.598999e-002
3.191747e+003;2.618287e-002
3.193676e+003;2.587596e-002
3.195604e+003;2.562475e-002
3.197532e+003;2.554662e-002
3.199461e+003;2.569421e-002
3.201390e+003;2.589224e-002
3.203318e+003;2.601591e-002
3.205247e+003;2.625749e-002
3.207175e+003;2.626587e-002
3.209104e+003;2.618403e-002
3.211032e+003;2.625942e-002
3.212961e+003;2.609655e-002
3.214889e+003;2.584501e-002
3.216818e+003;2.585028e-002
3.218747e+003;2.587279e-002
3.220675e+003;2.631515e-002
3.222604e+003;2.660554e-002
3.224532e+003;2.655065e-002
3.226461e+003;2.669245e-002
3.228389e+003;2.680979e-002
3.230318e+003;2.666514e-002
3.232246e+003;2.696028e-002
3.234175e+003;2.736482e-002
3.236104e+003;2.715377e-002
3.238032e+003;2.706412e-002
3.239961e+003;2.712072e-002
3.241889e+003;2.672638e-002
3.243818e+003;2.637764e-002
3.245746e+003;2.649610e-002
3.247675e+003;2.678262e-002
3.249603e+003;2.723452e-002
3.251532e+003;2.765432e-002
3.253460e+003;2.745665e-002
3.255389e+003;2.699159e-002
3.257318e+003;2.681586e-002
3.259246e+003;2.704056e-002
3.261175e+003;2.759122e-002
3.263103e+003;2.779641e-002
3.265032e+003;2.768444e-002
3.266960e+003;2.743318e-002
3.268889e+003;2.727890e-002
3.270817e+003;2.747702e-002
3.272746e+003;2.789045e-002
3.274675e+003;2.785381e-002
3.276603e+003;2.725635e-002
3.278531e+003;2.696715e-002
3.280460e+003;2.738949e-002
3.282389e+003;2.777652e-002
3.284317e+003;2.776582e-002
3.286246e+003;2.771598e-002
3.288174e+003;2.792970e-002
3.290103e+003;2.785720e-002
3.292031e+003;2.745157e-002
3.293960e+003;2.711681e-002
3.295888e+003;2.696743e-002
3.297817e+003;2.691790e-002
3.299746e+003;2.705058e-002
3.301674e+003;2.715850e-002
3.303603e+003;2.724630e-002
3.305531e+003;2.737999e-002
3.307460e+003;2.714658e-002
3.309388e+003;2.706179e-002
3.311317e+003;2.733437e-002
3.313245e+003;2.759366e-002
3.315174e+003;2.755680e-002
3.317103e+003;2.745358e-002
3.319031e+003;2.689266e-002
3.320960e+003;2.651455e-002
3.322888e+003;2.669534e-002
3.324817e+003;2.696112e-002
3.326745e+003;2.691995e-002
3.328674e+003;2.689654e-002
3.330602e+003;2.670055e-002
3.332531e+003;2.691438e-002
3.334459e+003;2.675161e-002
3.336388e+003;2.644021e-002
3.338317e+003;2.655418e-002
3.340245e+003;2.646504e-002
3.342174e+003;2.634166e-002
3.344102e+003;2.621479e-002
3.346031e+003;2.604107e-002
3.347959e+003;2.607154e-002
3.349888e+003;2.618878e-002
3.351816e+003;2.638584e-002
3.353745e+003;2.634842e-002
3.355674e+003;2.599618e-002
3.357602e+003;2.568141e-002
3.359531e+003;2.568929e-002
3.361459e+003;2.557372e-002
3.363388e+003;2.577271e-002
3.365316e+003;2.608702e-002
3.367245e+003;2.621226e-002
3.369173e+003;2.597820e-002
3.371102e+003;2.586808e-002
3.373031e+003;2.555183e-002
3.374959e+003;2.549841e-002
3.376887e+003;2.527180e-002
3.378816e+003;2.511990e-002
3.380745e+003;2.567150e-002
3.382673e+003;2.563797e-002
3.384602e+003;2.491545e-002
3.386530e+003;2.480086e-002
3.388459e+003;2.521013e-002
3.390387e+003;2.536754e-002
3.392316e+003;2.510758e-002
3.394244e+003;2.478837e-002
3.396173e+003;2.448591e-002
3.398102e+003;2.436337e-002
3.400030e+003;2.438412e-002
3.401959e+003;2.488162e-002
3.403887e+003;2.543798e-002
3.405816e+003;2.543991e-002
3.407744e+003;2.516642e-002
3.409673e+003;2.516793e-002
3.411601e+003;2.483783e-002
3.413530e+003;2.418649e-002
3.415458e+003;2.414355e-002
3.417387e+003;2.454246e-002
3.419316e+003;2.461034e-002
3.421244e+003;2.429714e-002
3.423173e+003;2.421841e-002
3.425101e+003;2.452226e-002
3.427030e+003;2.456879e-002
3.428958e+003;2.445499e-002
3.430887e+003;2.448089e-002
3.432815e+003;2.420569e-002
3.434744e+003;2.390353e-002
3.436673e+003;2.414891e-002
3.438601e+003;2.454396e-002
3.440530e+003;2.453495e-002
3.442458e+003;2.419014e-002
3.444387e+003;2.411122e-002
3.446315e+003;2.416681e-002
3.448244e+003;2.389002e-002
3.450172e+003;2.415959e-002
3.452101e+003;2.416071e-002
3.454030e+003;2.378133e-002
3.455958e+003;2.406506e-002
3.457886e+003;2.441773e-002
3.459815e+003;2.400391e-002
3.461744e+003;2.370889e-002
3.463672e+003;2.359612e-002
3.465601e+003;2.357314e-002
3.467529e+003;2.365903e-002
3.469458e+003;2.329641e-002
3.471386e+003;2.342211e-002
3.473315e+003;2.337067e-002
3.475243e+003;2.308052e-002
3.477172e+003;2.316358e-002
3.479101e+003;2.322727e-002
3.481029e+003;2.351976e-002
3.482958e+003;2.380370e-002
3.484886e+003;2.336983e-002
3.486815e+003;2.270753e-002
3.488743e+003;2.224002e-002
3.490672e+003;2.210065e-002
3.492600e+003;2.249301e-002
3.494529e+003;2.293916e-002
3.496458e+003;2.307493e-002
3.498386e+003;2.322842e-002
3.500315e+003;2.291723e-002
3.502243e+003;2.283962e-002
3.504172e+003;2.340274e-002
3.506100e+003;2.354928e-002
3.508029e+003;2.304145e-002
3.509957e+003;2.293001e-002
3.511886e+003;2.276115e-002
3.513814e+003;2.268176e-002
3.515743e+003;2.288659e-002
3.517672e+003;2.323520e-002
3.519600e+003;2.330403e-002
3.521529e+003;2.335344e-002
3.523457e+003;2.316302e-002
3.525386e+003;2.261306e-002
3.527314e+003;2.285474e-002
3.529243e+003;2.323024e-002
3.531171e+003;2.337777e-002
3.533100e+003;2.313535e-002
3.535029e+003;2.259935e-002
3.536957e+003;2.232233e-002
3.538885e+003;2.269646e-002
3.540814e+003;2.312035e-002
3.542743e+003;2.333767e-002
3.544671e+003;2.324289e-002
3.546600e+003;2.312996e-002
3.548528e+003;2.254451e-002
3.550457e+003;2.177939e-002
3.552385e+003;2.202524e-002
3.554314e+003;2.271898e-002
3.556242e+003;2.315212e-002
3.558171e+003;2.321098e-002
3.560100e+003;2.303908e-002
3.562028e+003;2.255764e-002
3.563957e+003;2.227559e-002
3.565885e+003;2.172661e-002
3.567814e+003;2.146446e-002
3.569742e+003;2.173497e-002
3.571671e+003;2.219901e-002
3.573599e+003;2.219702e-002
3.575528e+003;2.224016e-002
3.577457e+003;2.199506e-002
3.579385e+003;2.141110e-002
3.581314e+003;2.126820e-002
3.583242e+003;2.111661e-002
3.585171e+003;2.094874e-002
3.587099e+003;2.031146e-002
3.589028e+003;2.023824e-002
3.590956e+003;2.106677e-002
3.592885e+003;2.110621e-002
3.594813e+003;2.114730e-002
3.596742e+003;2.136818e-002
3.598671e+003;2.128497e-002
3.600599e+003;2.142815e-002
3.602528e+003;2.148180e-002
3.604456e+003;2.127547e-002
3.606385e+003;2.109894e-002
3.608313e+003;2.087837e-002
3.610242e+003;2.080637e-002
3.612170e+003;2.079709e-002
3.614099e+003;2.098157e-002
3.616028e+003;2.129402e-002
3.617956e+003;2.130300e-002
3.619885e+003;2.128073e-002
3.621813e+003;2.117464e-002
3.623742e+003;2.091932e-002
3.625670e+003;2.028095e-002
3.627599e+003;1.907793e-002
3.629527e+003;1.934322e-002
3.631456e+003;2.060710e-002
3.633385e+003;2.100393e-002
3.635313e+003;2.071104e-002
3.637241e+003;2.052505e-002
3.639170e+003;2.062451e-002
3.641099e+003;2.066659e-002
3.643027e+003;2.053387e-002
3.644956e+003;2.030483e-002
3.646884e+003;1.944182e-002
3.648813e+003;1.828578e-002
3.650741e+003;1.861435e-002
3.652670e+003;1.956807e-002
3.654598e+003;1.940298e-002
3.656527e+003;1.896584e-002
3.658456e+003;1.956676e-002
3.660384e+003;1.977543e-002
3.662313e+003;1.948663e-002
3.664241e+003;1.926465e-002
3.666170e+003;1.879399e-002
3.668098e+003;1.766002e-002
3.670027e+003;1.711670e-002
3.671955e+003;1.794285e-002
3.673884e+003;1.823771e-002
3.675813e+003;1.907901e-002
3.677741e+003;1.927352e-002
3.679669e+003;1.814646e-002
3.681598e+003;1.782932e-002
3.683527e+003;1.769843e-002
3.685455e+003;1.726817e-002
3.687384e+003;1.566930e-002
3.689312e+003;1.538243e-002
3.691241e+003;1.662126e-002
3.693169e+003;1.776950e-002
3.695098e+003;1.789026e-002
3.697026e+003;1.740135e-002
3.698955e+003;1.703551e-002
3.700884e+003;1.667855e-002
3.702812e+003;1.708899e-002
3.704741e+003;1.733224e-002
3.706669e+003;1.707917e-002
3.708598e+003;1.656226e-002
3.710526e+003;1.542163e-002
3.712455e+003;1.486671e-002
3.714383e+003;1.623245e-002
3.716312e+003;1.729807e-002
3.718240e+003;1.711060e-002
3.720169e+003;1.669194e-002
3.722098e+003;1.650484e-002
3.724026e+003;1.653792e-002
3.725955e+003;1.629371e-002
3.727883e+003;1.637298e-002
3.729812e+003;1.623413e-002
3.731740e+003;1.500590e-002
3.733669e+003;1.419258e-002
3.735597e+003;1.432896e-002
3.737526e+003;1.555318e-002
3.739455e+003;1.635753e-002
3.741383e+003;1.552038e-002
3.743312e+003;1.336796e-002
3.745240e+003;1.358233e-002
3.747169e+003;1.485779e-002
3.749097e+003;1.420240e-002
3.751026e+003;1.399937e-002
3.752954e+003;1.513166e-002
3.754883e+003;1.652921e-002
3.756812e+003;1.649393e-002
3.758740e+003;1.637274e-002
3.760668e+003;1.650743e-002
3.762597e+003;1.668258e-002
3.764526e+003;1.650168e-002
3.766454e+003;1.687020e-002
3.768383e+003;1.670906e-002
3.770311e+003;1.640126e-002
3.772240e+003;1.644968e-002
3.774168e+003;1.653055e-002
3.776097e+003;1.659940e-002
3.778025e+003;1.631349e-002
3.779954e+003;1.593035e-002
3.781883e+003;1.612838e-002
3.783811e+003;1.636448e-002
3.785740e+003;1.646096e-002
3.787668e+003;1.661572e-002
3.789597e+003;1.656652e-002
3.791525e+003;1.647132e-002
3.793454e+003;1.635694e-002
3.795382e+003;1.588642e-002
3.797311e+003;1.559800e-002
3.799240e+003;1.492119e-002
3.801168e+003;1.457196e-002
3.803097e+003;1.591189e-002
3.805025e+003;1.630179e-002
3.806954e+003;1.576079e-002
3.808882e+003;1.664167e-002
3.810811e+003;1.698041e-002
3.812739e+003;1.632337e-002
3.814668e+003;1.518350e-002
3.816596e+003;1.501228e-002
3.818525e+003;1.567775e-002
3.820454e+003;1.572045e-002
3.822382e+003;1.652412e-002
3.824311e+003;1.691443e-002
3.826239e+003;1.626829e-002
3.828168e+003;1.631714e-002
3.830096e+003;1.629433e-002
3.832025e+003;1.597538e-002
3.833953e+003;1.639534e-002
3.835882e+003;1.627049e-002
3.837811e+003;1.554150e-002
3.839739e+003;1.587749e-002
3.841667e+003;1.633905e-002
3.843596e+003;1.661716e-002
3.845525e+003;1.671009e-002
3.847453e+003;1.690816e-002
3.849382e+003;1.597290e-002
3.851310e+003;1.354141e-002
3.853239e+003;1.249123e-002
3.855167e+003;1.471730e-002
3.857096e+003;1.679405e-002
3.859024e+003;1.686431e-002
3.860953e+003;1.638819e-002
3.862882e+003;1.601649e-002
3.864810e+003;1.580872e-002
3.866739e+003;1.602344e-002
3.868667e+003;1.552807e-002
3.870596e+003;1.576794e-002
3.872524e+003;1.631070e-002
3.874453e+003;1.630320e-002
3.876381e+003;1.656112e-002
3.878310e+003;1.675985e-002
3.880239e+003;1.688160e-002
3.882167e+003;1.658329e-002
3.884096e+003;1.543859e-002
3.886024e+003;1.578955e-002
3.887953e+003;1.666282e-002
3.889881e+003;1.623544e-002
3.891810e+003;1.629832e-002
3.893738e+003;1.707531e-002
3.895667e+003;1.733200e-002
3.897595e+003;1.674191e-002
3.899524e+003;1.620641e-002
3.901453e+003;1.604548e-002
3.903381e+003;1.587055e-002
3.905310e+003;1.606126e-002
3.907238e+003;1.626997e-002
3.909167e+003;1.647941e-002
3.911095e+003;1.688226e-002
3.913024e+003;1.660959e-002
3.914952e+003;1.590337e-002
3.916881e+003;1.603702e-002
3.918810e+003;1.650164e-002
3.920738e+003;1.661069e-002
3.922667e+003;1.674718e-002
3.924595e+003;1.693197e-002
3.926524e+003;1.744670e-002
3.928452e+003;1.734575e-002
3.930381e+003;1.658054e-002
3.932309e+003;1.647397e-002
3.934238e+003;1.705525e-002
3.936167e+003;1.687681e-002
3.938095e+003;1.646279e-002
3.940023e+003;1.632921e-002
3.941952e+003;1.666013e-002
3.943881e+003;1.701893e-002
3.945809e+003;1.697331e-002
3.947738e+003;1.705019e-002
3.949666e+003;1.725790e-002
3.951595e+003;1.726279e-002
3.953523e+003;1.726007e-002
3.955452e+003;1.744360e-002
3.957380e+003;1.713459e-002
3.959309e+003;1.695478e-002
3.961238e+003;1.715117e-002
3.963166e+003;1.712990e-002
3.965095e+003;1.716789e-002
3.967023e+003;1.750827e-002
3.968952e+003;1.734365e-002
3.970880e+003;1.692708e-002
3.972809e+003;1.692818e-002
3.974737e+003;1.710040e-002
3.976666e+003;1.690809e-002
3.978594e+003;1.696835e-002
3.980523e+003;1.756955e-002
3.982452e+003;1.794081e-002
3.984380e+003;1.756889e-002
3.986309e+003;1.731341e-002
3.988237e+003;1.731379e-002
3.990166e+003;1.726610e-002
3.992094e+003;1.711288e-002
3.994023e+003;1.684895e-002
3.995951e+003;1.665607e-002
3.997880e+003;1.663758e-002
3.999809e+003;1.713545e-002
4.001737e+003;0.000000e+000
