3.992094e+002;0.000000e+000
4.011380e+002;0.000000e+000
4.030665e+002;0.000000e+000
4.049951e+002;0.000000e+000
4.069236e+002;0.000000e+000
4.088522e+002;0.000000e+000
4.107807e+002;0.000000e+000
4.127093e+002;0.000000e+000
4.146378e+002;0.000000e+000
4.165664e+002;0.000000e+000
4.184949e+002;0.000000e+000
4.204235e+002;0.000000e+000
4.223520e+002;0.000000e+000
4.242806e+002;0.000000e+000
4.262091e+002;0.000000e+000
4.281377e+002;0.000000e+000
4.300662e+002;0.000000e+000
4.319948e+002;0.000000e+000
4.339233e+002;0.000000e+000
4.358519e+002;0.000000e+000
4.377804e+002;0.000000e+000
4.397090e+002;0.000000e+000
4.416375e+002;0.000000e+000
4.435660e+002;0.000000e+000
4.454946e+002;0.000000e+000
4.474232e+002;0.000000e+000
4.493517e+002;0.000000e+000
4.512802e+002;0.000000e+000
4.532088e+002;0.000000e+000
4.551373e+002;0.000000e+000
4.570659e+002;0.000000e+000
4.589944e+002;0.000000e+000
4.609230e+002;0.000000e+000
4.628515e+002;0.000000e+000
4.647801e+002;0.000000e+000
4.667086e+002;0.000000e+000
4.686372e+002;0.000000e+000
4.705657e+002;0.000000e+000
4.724943e+002;0.000000e+000
4.744228e+002;0.000000e+000
4.763513e+002;0.000000e+000
4.782799e+002;0.000000e+000
4.802085e+002;0.000000e+000
4.821370e+002;0.000000e+000
4.840656e+002;0.000000e+000
4.859941e+002;0.000000e+000
4.879226e+002;0.000000e+000
4.898512e+002;0.000000e+000
4.917798e+002;0.000000e+000
4.937083e+002;0.000000e+000
4.956368e+002;0.000000e+000
4.975654e+002;0.000000e+000
4.994939e+002;0.000000e+000
5.014225e+002;0.000000e+000
5.033510e+002;0.000000e+000
5.052796e+002;0.000000e+000
5.072081e+002;0.000000e+000
5.091367e+002;0.000000e+000
5.110652e+002;0.000000e+000
5.129938e+002;0.000000e+000
5.149223e+002;0.000000e+000
5.168509e+002;0.000000e+000
5.187794e+002;0.000000e+000
5.207079e+002;0.000000e+000
5.226365e+002;0.000000e+000
5.245651e+002;0.000000e+000
5.264936e+002;0.000000e+000
5.284222e+002;0.000000e+000
5.303507e+002;0.000000e+000
5.322792e+002;0.000000e+000
5.342078e+002;0.000000e+000
5.361364e+002;0.000000e+000
5.380649e+002;0.000000e+000
5.399935e+002;0.000000e+000
5.419220e+002;0.000000e+000
5.438505e+002;0.000000e+000
5.457791e+002;0.000000e+000
5.477076e+002;0.000000e+000
5.496362e+002;0.000000e+000
5.515648e+002;0.000000e+000
5.534933e+002;0.000000e+000
5.554218e+002;0.000000e+000
5.573504e+002;0.000000e+000
5.592789e+002;0.000000e+000
5.612075e+002;0.000000e+000
5.631360e+002;0.000000e+000
5.650646e+002;0.000000e+000
5.669931e+002;0.000000e+000
5.689217e+002;0.000000e+000
5.708502e+002;0.000000e+000
5.727787e+002;0.000000e+000
5.747073e+002;0.000000e+000
5.766359e+002;0.000000e+000
5.785644e+002;0.000000e+000
5.804930e+002;0.000000e+000
5.824215e+002;0.000000e+000
5.843500e+002;0.000000e+000
5.862786e+002;0.000000e+000
5.882072e+002;0.000000e+000
5.901357e+002;0.000000e+000
5.920643e+002;0.000000e+000
5.939928e+002;0.000000e+000
5.959213e+002;0.000000e+000
5.978499e+002;0.000000e+000
5.997784e+002;6.295329e-002
6.017070e+002;6.620846e-002
6.036355e+002;6.536980e-002
6.055641e+002;6.328569e-002
6.074926e+002;5.663312e-002
6.094211e+002;5.339153e-002
6.113497e+002;5.355807e-002
6.132783e+002;5.472269e-002
6.152068e+002;5.781030e-002
6.171354e+002;6.119452e-002
6.190639e+002;6.123949e-002
6.209924e+002;6.004794e-002
6.229210e+002;6.087747e-002
6.248495e+002;6.314676e-002
6.267781e+002;6.418881e-002
6.287067e+002;6.148564e-002
6.306352e+002;6.050543e-002
6.325637e+002;6.266394e-002
6.344923e+002;6.321505e-002
6.364208e+002;6.223338e-002
6.383494e+002;6.003420e-002
6.402780e+002;5.832160e-002
6.422065e+002;5.764015e-002
6.441350e+002;5.826961e-002
6.460636e+002;6.057738e-002
6.479921e+002;6.170557e-002
6.499207e+002;6.161110e-002
6.518492e+002;5.980986e-002
6.537778e+002;5.815091e-002
6.557063e+002;5.562525e-002
6.576349e+002;5.757106e-002
6.595634e+002;6.029908e-002
6.614919e+002;5.838329e-002
6.634205e+002;5.697768e-002
6.653491e+002;5.889568e-002
6.672776e+002;6.039145e-002
6.692062e+002;6.069465e-002
6.711347e+002;6.012788e-002
6.730632e+002;5.983424e-002
6.749918e+002;5.874002e-002
6.769203e+002;5.846168e-002
6.788489e+002;5.822220e-002
6.807775e+002;5.642872e-002
6.827060e+002;5.497664e-002
6.846345e+002;5.445296e-002
6.865631e+002;5.512904e-002
6.884916e+002;5.554173e-002
6.904202e+002;5.382049e-002
6.923488e+002;5.293009e-002
6.942773e+002;5.292676e-002
6.962058e+002;5.236323e-002
6.981344e+002;5.213198e-002
7.000629e+002;5.168289e-002
7.019915e+002;4.994611e-002
7.039200e+002;4.838682e-002
7.058486e+002;4.923291e-002
7.077771e+002;4.994700e-002
7.097057e+002;5.027037e-002
7.116342e+002;5.073894e-002
7.135627e+002;5.166415e-002
7.154913e+002;5.266226e-002
7.174199e+002;5.230671e-002
7.193484e+002;5.148920e-002
7.212770e+002;5.122188e-002
7.232055e+002;5.153497e-002
7.251340e+002;5.260335e-002
7.270626e+002;5.372779e-002
7.289911e+002;5.314524e-002
7.309197e+002;5.352389e-002
7.328483e+002;5.509861e-002
7.347768e+002;5.540488e-002
7.367053e+002;5.512058e-002
7.386339e+002;5.578444e-002
7.405624e+002;5.634394e-002
7.424910e+002;5.651418e-002
7.444196e+002;5.685370e-002
7.463481e+002;5.759963e-002
7.482766e+002;5.726939e-002
7.502052e+002;5.679570e-002
7.521337e+002;5.707512e-002
7.540623e+002;5.717330e-002
7.559908e+002;5.770221e-002
7.579194e+002;5.776764e-002
7.598479e+002;5.756134e-002
7.617765e+002;5.819963e-002
7.637050e+002;5.825206e-002
7.656335e+002;5.800493e-002
7.675621e+002;5.790179e-002
7.694907e+002;5.713736e-002
7.714192e+002;5.624029e-002
7.733478e+002;5.554124e-002
7.752763e+002;5.411557e-002
7.772048e+002;5.219580e-002
7.791334e+002;5.028272e-002
7.810620e+002;4.902358e-002
7.829905e+002;4.683277e-002
7.849191e+002;4.389439e-002
7.868476e+002;4.129164e-002
7.887761e+002;3.798326e-002
7.907047e+002;3.493777e-002
7.926332e+002;3.270537e-002
7.945618e+002;3.111621e-002
7.964903e+002;3.036214e-002
7.984189e+002;2.939373e-002
8.003474e+002;2.879723e-002
8.022759e+002;2.857303e-002
8.042045e+002;2.955844e-002
8.061331e+002;3.095624e-002
8.080616e+002;3.248250e-002
8.099902e+002;3.423222e-002
8.119187e+002;3.511412e-002
8.138472e+002;3.574358e-002
8.157758e+002;3.660881e-002
8.177043e+002;3.765174e-002
8.196329e+002;3.877779e-002
8.215615e+002;4.085612e-002
8.234900e+002;4.266673e-002
8.254185e+002;4.472597e-002
8.273471e+002;4.660995e-002
8.292756e+002;4.784016e-002
8.312042e+002;4.934270e-002
8.331328e+002;5.095622e-002
8.350613e+002;5.201674e-002
8.369898e+002;5.198470e-002
8.389184e+002;5.112134e-002
8.408469e+002;5.059648e-002
8.427755e+002;4.988459e-002
8.447040e+002;4.800940e-002
8.466326e+002;4.616737e-002
8.485611e+002;4.492001e-002
8.504897e+002;4.412602e-002
8.524182e+002;4.348921e-002
8.543467e+002;4.267795e-002
8.562753e+002;4.222442e-002
8.582039e+002;4.229812e-002
8.601324e+002;4.185470e-002
8.620610e+002;4.172238e-002
8.639895e+002;4.191607e-002
8.659180e+002;4.145284e-002
8.678466e+002;4.060560e-002
8.697751e+002;4.040006e-002
8.717037e+002;4.031032e-002
8.736323e+002;4.014809e-002
8.755608e+002;4.050604e-002
8.774893e+002;4.109477e-002
8.794179e+002;4.073859e-002
8.813464e+002;4.054212e-002
8.832750e+002;4.052048e-002
8.852036e+002;4.044839e-002
8.871321e+002;4.030228e-002
8.890606e+002;4.053222e-002
8.909892e+002;4.097616e-002
8.929177e+002;4.129853e-002
8.948463e+002;4.136216e-002
8.967748e+002;4.104659e-002
8.987034e+002;4.081029e-002
9.006319e+002;4.088568e-002
9.025605e+002;4.119254e-002
9.044890e+002;4.160597e-002
9.064175e+002;4.200019e-002
9.083461e+002;4.212573e-002
9.102747e+002;4.225922e-002
9.122032e+002;4.250785e-002
9.141318e+002;4.258127e-002
9.160603e+002;4.256135e-002
9.179888e+002;4.254092e-002
9.199174e+002;4.269521e-002
9.218459e+002;4.300312e-002
9.237745e+002;4.289723e-002
9.257031e+002;4.312156e-002
9.276316e+002;4.345003e-002
9.295601e+002;4.363412e-002
9.314887e+002;4.389707e-002
9.334172e+002;4.423570e-002
9.353458e+002;4.442365e-002
9.372744e+002;4.449721e-002
9.392029e+002;4.493213e-002
9.411314e+002;4.539085e-002
9.430600e+002;4.578724e-002
9.449885e+002;4.578702e-002
9.469171e+002;4.604571e-002
9.488456e+002;4.657372e-002
9.507742e+002;4.700139e-002
9.527027e+002;4.722697e-002
9.546313e+002;4.760651e-002
9.565598e+002;4.806196e-002
9.584883e+002;4.820492e-002
9.604169e+002;4.785367e-002
9.623455e+002;4.728471e-002
9.642740e+002;4.741374e-002
9.662026e+002;4.766071e-002
9.681311e+002;4.709902e-002
9.700596e+002;4.668978e-002
9.719882e+002;4.687913e-002
9.739167e+002;4.707170e-002
9.758453e+002;4.726298e-002
9.777739e+002;4.761239e-002
9.797024e+002;4.739279e-002
9.816309e+002;4.706239e-002
9.835595e+002;4.757649e-002
9.854880e+002;4.847338e-002
9.874166e+002;4.872004e-002
9.893452e+002;4.870432e-002
9.912737e+002;4.860981e-002
9.932022e+002;4.831041e-002
9.951307e+002;4.835930e-002
9.970593e+002;4.909354e-002
9.989879e+002;4.950699e-002
1.000916e+003;4.923495e-002
1.002845e+003;4.868627e-002
1.004773e+003;4.837189e-002
1.006702e+003;4.812469e-002
1.008631e+003;4.744929e-002
1.010559e+003;4.708942e-002
1.012488e+003;4.695535e-002
1.014416e+003;4.700139e-002
1.016345e+003;4.736499e-002
1.018273e+003;4.854393e-002
1.020202e+003;4.981015e-002
1.022130e+003;5.090815e-002
1.024059e+003;5.176549e-002
1.025988e+003;5.217226e-002
1.027916e+003;5.395253e-002
1.029845e+003;5.647030e-002
1.031773e+003;5.913846e-002
1.033702e+003;6.157536e-002
1.035630e+003;6.292897e-002
1.037559e+003;6.382746e-002
1.039487e+003;6.390961e-002
1.041416e+003;6.369918e-002
1.043344e+003;6.358463e-002
1.045273e+003;6.377815e-002
1.047202e+003;6.407547e-002
1.049130e+003;6.456233e-002
1.051059e+003;6.523529e-002
1.052987e+003;6.619260e-002
1.054916e+003;6.700937e-002
1.056844e+003;6.740174e-002
1.058773e+003;6.854507e-002
1.060701e+003;7.054287e-002
1.062630e+003;7.215311e-002
1.064558e+003;7.303465e-002
1.066487e+003;7.371781e-002
1.068416e+003;7.454628e-002
1.070344e+003;7.470603e-002
1.072273e+003;7.372343e-002
1.074201e+003;7.278955e-002
1.076130e+003;7.163832e-002
1.078058e+003;6.970714e-002
1.079987e+003;6.790842e-002
1.081915e+003;6.605701e-002
1.083844e+003;6.384826e-002
1.085773e+003;6.126227e-002
1.087701e+003;5.920924e-002
1.089630e+003;5.784773e-002
1.091558e+003;5.649600e-002
1.093487e+003;5.528459e-002
1.095415e+003;5.448639e-002
1.097344e+003;5.404998e-002
1.099272e+003;5.350043e-002
1.101201e+003;5.331697e-002
1.103129e+003;5.365576e-002
1.105058e+003;5.392200e-002
1.106987e+003;5.387117e-002
1.108915e+003;5.349724e-002
1.110844e+003;5.368501e-002
1.112772e+003;5.380137e-002
1.114701e+003;5.323457e-002
1.116629e+003;5.269660e-002
1.118558e+003;5.231976e-002
1.120486e+003;5.178979e-002
1.122415e+003;5.072378e-002
1.124344e+003;4.919142e-002
1.126272e+003;4.765916e-002
1.128201e+003;4.663846e-002
1.130129e+003;4.591314e-002
1.132058e+003;4.526941e-002
1.133986e+003;4.445444e-002
1.135915e+003;4.419168e-002
1.137843e+003;4.480431e-002
1.139772e+003;4.610782e-002
1.141700e+003;4.803953e-002
1.143629e+003;5.080840e-002
1.145557e+003;5.353015e-002
1.147486e+003;5.665528e-002
1.149415e+003;6.061875e-002
1.151343e+003;6.543031e-002
1.153272e+003;7.037386e-002
1.155200e+003;7.488351e-002
1.157129e+003;7.933223e-002
1.159057e+003;8.396913e-002
1.160986e+003;8.907326e-002
1.162914e+003;9.347702e-002
1.164843e+003;9.689742e-002
1.166771e+003;9.881779e-002
1.168700e+003;9.924785e-002
1.170629e+003;9.876721e-002
1.172557e+003;9.748539e-002
1.174486e+003;9.567574e-002
1.176414e+003;9.403194e-002
1.178343e+003;9.246922e-002
1.180271e+003;9.052467e-002
1.182200e+003;8.834359e-002
1.184128e+003;8.665901e-002
1.186057e+003;8.570673e-002
1.187986e+003;8.557513e-002
1.189914e+003;8.605476e-002
1.191843e+003;8.698764e-002
1.193771e+003;8.799718e-002
1.195700e+003;8.908517e-002
1.197628e+003;9.027717e-002
1.199557e+003;9.084252e-002
1.201485e+003;9.099448e-002
1.203414e+003;9.127215e-002
1.205343e+003;9.175791e-002
1.207271e+003;9.180973e-002
1.209200e+003;9.155184e-002
1.211128e+003;9.176200e-002
1.213057e+003;9.167913e-002
1.214985e+003;9.169218e-002
1.216914e+003;9.247620e-002
1.218842e+003;9.290515e-002
1.220771e+003;9.301728e-002
1.222699e+003;9.333141e-002
1.224628e+003;9.321259e-002
1.226557e+003;9.295776e-002
1.228485e+003;9.294726e-002
1.230414e+003;9.322865e-002
1.232342e+003;9.273562e-002
1.234271e+003;9.140422e-002
1.236199e+003;9.033521e-002
1.238128e+003;8.990214e-002
1.240056e+003;8.951686e-002
1.241985e+003;8.917463e-002
1.243913e+003;8.846316e-002
1.245842e+003;8.758508e-002
1.247771e+003;8.683120e-002
1.249699e+003;8.572563e-002
1.251628e+003;8.434876e-002
1.253556e+003;8.185961e-002
1.255485e+003;7.780161e-002
1.257413e+003;7.360004e-002
1.259342e+003;7.082981e-002
1.261270e+003;7.007185e-002
1.263199e+003;7.103154e-002
1.265127e+003;7.348971e-002
1.267056e+003;7.615814e-002
1.268985e+003;7.792296e-002
1.270913e+003;7.893105e-002
1.272842e+003;7.921948e-002
1.274770e+003;7.859266e-002
1.276699e+003;7.738058e-002
1.278627e+003;7.586136e-002
1.280556e+003;7.436056e-002
1.282484e+003;7.296965e-002
1.284413e+003;7.142096e-002
1.286342e+003;7.024363e-002
1.288270e+003;6.972776e-002
1.290199e+003;6.881232e-002
1.292127e+003;6.773845e-002
1.294056e+003;6.649826e-002
1.295984e+003;6.553064e-002
1.297913e+003;6.498878e-002
1.299841e+003;6.443648e-002
1.301770e+003;6.391194e-002
1.303698e+003;6.357703e-002
1.305627e+003;6.331816e-002
1.307556e+003;6.312457e-002
1.309484e+003;6.294226e-002
1.311413e+003;6.256063e-002
1.313341e+003;6.226412e-002
1.315270e+003;6.221827e-002
1.317198e+003;6.192723e-002
1.319127e+003;6.199139e-002
1.321055e+003;6.264096e-002
1.322984e+003;6.303434e-002
1.324912e+003;6.324908e-002
1.326841e+003;6.359567e-002
1.328770e+003;6.392562e-002
1.330698e+003;6.416672e-002
1.332627e+003;6.419396e-002
1.334555e+003;6.427213e-002
1.336484e+003;6.452227e-002
1.338412e+003;6.492571e-002
1.340341e+003;6.576558e-002
1.342269e+003;6.685387e-002
1.344198e+003;6.767243e-002
1.346126e+003;6.852470e-002
1.348055e+003;6.934102e-002
1.349984e+003;6.985476e-002
1.351912e+003;7.050674e-002
1.353841e+003;7.136933e-002
1.355769e+003;7.176264e-002
1.357698e+003;7.161597e-002
1.359626e+003;7.119187e-002
1.361555e+003;7.061713e-002
1.363483e+003;7.029824e-002
1.365412e+003;7.044338e-002
1.367341e+003;6.967018e-002
1.369269e+003;6.847955e-002
1.371198e+003;6.728756e-002
1.373126e+003;6.573852e-002
1.375055e+003;6.492578e-002
1.376983e+003;6.450152e-002
1.378912e+003;6.378406e-002
1.380840e+003;6.265008e-002
1.382769e+003;6.113657e-002
1.384698e+003;5.947840e-002
1.386626e+003;5.691803e-002
1.388555e+003;5.484974e-002
1.390483e+003;5.296523e-002
1.392412e+003;5.004790e-002
1.394340e+003;4.673682e-002
1.396269e+003;4.449680e-002
1.398197e+003;4.271791e-002
1.400126e+003;4.191753e-002
1.402054e+003;4.160670e-002
1.403983e+003;4.085197e-002
1.405911e+003;4.054296e-002
1.407840e+003;4.054699e-002
1.409769e+003;4.071145e-002
1.411697e+003;4.114828e-002
1.413626e+003;4.166421e-002
1.415554e+003;4.223151e-002
1.417483e+003;4.241490e-002
1.419411e+003;4.322670e-002
1.421340e+003;4.658091e-002
1.423268e+003;5.046039e-002
1.425197e+003;5.510542e-002
1.427125e+003;6.145182e-002
1.429054e+003;6.858647e-002
1.430983e+003;7.631900e-002
1.432911e+003;8.396149e-002
1.434840e+003;8.968689e-002
1.436768e+003;9.474844e-002
1.438697e+003;1.018374e-001
1.440625e+003;1.087175e-001
1.442554e+003;1.150798e-001
1.444482e+003;1.211391e-001
1.446411e+003;1.260098e-001
1.448340e+003;1.294956e-001
1.450268e+003;1.314886e-001
1.452197e+003;1.305817e-001
1.454125e+003;1.258044e-001
1.456054e+003;1.166328e-001
1.457982e+003;1.080969e-001
1.459911e+003;1.008136e-001
1.461839e+003;9.140041e-002
1.463768e+003;8.041445e-002
1.465697e+003;7.099955e-002
1.467625e+003;6.425023e-002
1.469554e+003;5.777176e-002
1.471482e+003;5.108571e-002
1.473411e+003;4.696898e-002
1.475339e+003;4.487335e-002
1.477268e+003;4.263708e-002
1.479196e+003;4.049800e-002
1.481125e+003;3.914063e-002
1.483053e+003;3.857768e-002
1.484982e+003;3.756485e-002
1.486911e+003;3.583734e-002
1.488839e+003;3.399598e-002
1.490768e+003;3.330537e-002
1.492696e+003;3.384967e-002
1.494625e+003;3.256385e-002
1.496553e+003;3.105122e-002
1.498482e+003;3.166793e-002
1.500410e+003;3.255257e-002
1.502339e+003;3.229704e-002
1.504267e+003;2.947851e-002
1.506196e+003;2.660818e-002
1.508125e+003;2.814102e-002
1.510053e+003;3.071762e-002
1.511982e+003;3.169908e-002
1.513910e+003;3.210802e-002
1.515839e+003;3.196456e-002
1.517767e+003;3.219826e-002
1.519696e+003;3.112507e-002
1.521624e+003;3.015524e-002
1.523553e+003;3.181240e-002
1.525481e+003;3.283979e-002
1.527410e+003;3.380365e-002
1.529339e+003;3.496270e-002
1.531267e+003;3.513607e-002
1.533196e+003;3.509742e-002
1.535124e+003;3.677773e-002
1.537053e+003;3.682144e-002
1.538981e+003;3.470277e-002
1.540910e+003;3.529986e-002
1.542838e+003;3.749935e-002
1.544767e+003;3.861827e-002
1.546695e+003;3.930422e-002
1.548624e+003;3.936984e-002
1.550553e+003;3.922599e-002
1.552481e+003;3.867205e-002
1.554410e+003;3.738165e-002
1.556338e+003;3.543634e-002
1.558267e+003;3.203882e-002
1.560195e+003;3.290799e-002
1.562124e+003;3.631562e-002
1.564052e+003;3.653041e-002
1.565981e+003;3.585375e-002
1.567910e+003;3.485924e-002
1.569838e+003;3.397398e-002
1.571767e+003;3.471989e-002
1.573695e+003;3.443149e-002
1.575624e+003;3.290294e-002
1.577552e+003;3.421798e-002
1.579481e+003;3.566311e-002
1.581409e+003;3.508233e-002
1.583338e+003;3.397362e-002
1.585266e+003;3.281650e-002
1.587195e+003;3.212675e-002
1.589124e+003;3.191616e-002
1.591052e+003;3.160898e-002
1.592981e+003;3.119944e-002
1.594909e+003;3.117950e-002
1.596838e+003;3.170139e-002
1.598766e+003;3.282189e-002
1.600695e+003;3.315704e-002
1.602623e+003;3.329392e-002
1.604552e+003;3.390566e-002
1.606480e+003;3.415521e-002
1.608409e+003;3.419250e-002
1.610338e+003;3.424254e-002
1.612266e+003;3.403848e-002
1.614195e+003;3.295048e-002
1.616123e+003;3.115091e-002
1.618052e+003;3.190799e-002
1.619980e+003;3.337203e-002
1.621909e+003;3.321218e-002
1.623837e+003;3.308530e-002
1.625766e+003;3.355945e-002
1.627694e+003;3.394786e-002
1.629623e+003;3.448551e-002
1.631552e+003;3.486201e-002
1.633480e+003;3.372758e-002
1.635409e+003;3.247143e-002
1.637337e+003;3.434394e-002
1.639266e+003;3.632596e-002
1.641194e+003;3.711930e-002
1.643123e+003;3.712637e-002
1.645051e+003;3.587376e-002
1.646980e+003;3.575873e-002
1.648909e+003;3.742072e-002
1.650837e+003;3.599275e-002
1.652766e+003;3.330480e-002
1.654694e+003;3.714420e-002
1.656623e+003;4.142306e-002
1.658551e+003;4.250215e-002
1.660480e+003;4.273608e-002
1.662408e+003;4.288121e-002
1.664337e+003;4.392328e-002
1.666266e+003;4.451336e-002
1.668194e+003;4.337258e-002
1.670123e+003;4.286841e-002
1.672051e+003;4.321053e-002
1.673980e+003;4.187695e-002
1.675908e+003;4.096141e-002
1.677837e+003;4.124726e-002
1.679765e+003;4.012327e-002
1.681694e+003;3.758425e-002
1.683622e+003;3.378388e-002
1.685551e+003;3.362224e-002
1.687479e+003;3.566393e-002
1.689408e+003;3.595438e-002
1.691337e+003;3.564624e-002
1.693265e+003;3.406034e-002
1.695194e+003;3.178598e-002
1.697122e+003;3.237254e-002
1.699051e+003;3.205130e-002
1.700979e+003;3.293894e-002
1.702908e+003;3.705503e-002
1.704836e+003;3.982334e-002
1.706765e+003;4.350694e-002
1.708693e+003;4.856382e-002
1.710622e+003;5.454026e-002
1.712551e+003;6.091597e-002
1.714479e+003;6.757506e-002
1.716408e+003;7.442592e-002
1.718336e+003;8.350457e-002
1.720265e+003;9.408975e-002
1.722193e+003;1.027071e-001
1.724122e+003;1.095130e-001
1.726050e+003;1.146660e-001
1.727979e+003;1.175657e-001
1.729908e+003;1.183829e-001
1.731836e+003;1.164442e-001
1.733765e+003;1.122343e-001
1.735693e+003;1.098317e-001
1.737622e+003;1.057042e-001
1.739550e+003;9.822232e-002
1.741479e+003;9.061238e-002
1.743407e+003;8.257040e-002
1.745336e+003;7.399907e-002
1.747265e+003;6.479263e-002
1.749193e+003;5.562695e-002
1.751122e+003;4.751985e-002
1.753050e+003;4.145423e-002
1.754979e+003;3.567861e-002
1.756907e+003;3.024187e-002
1.758836e+003;2.588081e-002
1.760764e+003;2.220975e-002
1.762693e+003;2.014616e-002
1.764621e+003;1.897879e-002
1.766550e+003;1.700370e-002
1.768479e+003;1.552004e-002
1.770407e+003;1.405347e-002
1.772336e+003;1.276365e-002
1.774264e+003;1.339301e-002
1.776193e+003;1.374560e-002
1.778121e+003;1.351700e-002
1.780050e+003;1.313950e-002
1.781978e+003;1.274556e-002
1.783907e+003;1.229959e-002
1.785835e+003;1.204205e-002
1.787764e+003;1.194743e-002
1.789693e+003;1.141804e-002
1.791621e+003;1.039297e-002
1.793550e+003;1.030338e-002
1.795478e+003;1.087846e-002
1.797407e+003;1.068502e-002
1.799335e+003;1.019292e-002
1.801264e+003;1.007320e-002
1.803192e+003;1.060699e-002
1.805121e+003;1.093187e-002
1.807049e+003;1.071925e-002
1.808978e+003;1.009327e-002
1.810907e+003;9.766781e-003
1.812835e+003;9.928862e-003
1.814764e+003;1.019028e-002
1.816692e+003;1.008269e-002
1.818621e+003;9.975273e-003
1.820549e+003;9.993006e-003
1.822478e+003;9.732792e-003
1.824406e+003;9.148196e-003
1.826335e+003;9.134186e-003
1.828264e+003;8.798201e-003
1.830192e+003;8.502378e-003
1.832121e+003;9.061541e-003
1.834049e+003;9.272675e-003
1.835978e+003;9.112023e-003
1.837906e+003;9.204271e-003
1.839835e+003;9.221058e-003
1.841763e+003;8.623427e-003
1.843692e+003;7.732972e-003
1.845620e+003;8.094363e-003
1.847549e+003;8.438758e-003
1.849478e+003;8.446123e-003
1.851406e+003;8.524815e-003
1.853335e+003;8.579728e-003
1.855263e+003;8.637082e-003
1.857192e+003;8.590306e-003
1.859120e+003;8.419670e-003
1.861049e+003;8.308404e-003
1.862977e+003;8.223235e-003
1.864906e+003;8.032322e-003
1.866834e+003;7.583105e-003
1.868763e+003;7.133881e-003
1.870692e+003;7.555895e-003
1.872620e+003;8.181871e-003
1.874549e+003;8.056422e-003
1.876477e+003;7.852357e-003
1.878406e+003;7.657290e-003
1.880334e+003;7.415931e-003
1.882263e+003;7.506236e-003
1.884191e+003;7.826142e-003
1.886120e+003;7.782388e-003
1.888048e+003;7.581857e-003
1.889977e+003;7.443671e-003
1.891906e+003;7.458300e-003
1.893834e+003;7.375959e-003
1.895763e+003;7.501516e-003
1.897691e+003;7.754863e-003
1.899620e+003;7.641777e-003
1.901548e+003;7.352268e-003
1.903477e+003;7.428807e-003
1.905405e+003;7.584285e-003
1.907334e+003;7.515607e-003
1.909262e+003;7.143211e-003
1.911191e+003;6.889278e-003
1.913120e+003;7.047358e-003
1.915048e+003;7.136138e-003
1.916977e+003;6.603196e-003
1.918905e+003;6.697908e-003
1.920834e+003;7.120273e-003
1.922762e+003;7.158739e-003
1.924691e+003;7.267959e-003
1.926619e+003;7.173190e-003
1.928548e+003;7.013515e-003
1.930477e+003;7.077499e-003
1.932405e+003;7.043216e-003
1.934334e+003;6.877294e-003
1.936262e+003;6.859385e-003
1.938191e+003;6.870797e-003
1.940119e+003;6.767365e-003
1.942048e+003;6.660996e-003
1.943976e+003;6.738423e-003
1.945905e+003;6.877698e-003
1.947833e+003;6.853192e-003
1.949762e+003;6.971122e-003
1.951691e+003;7.015940e-003
1.953619e+003;6.996241e-003
1.955548e+003;7.091409e-003
1.957476e+003;7.218770e-003
1.959405e+003;7.213076e-003
1.961333e+003;6.997251e-003
1.963262e+003;6.782105e-003
1.965190e+003;6.721126e-003
1.967119e+003;6.817445e-003
1.969047e+003;7.060223e-003
1.970976e+003;7.163354e-003
1.972905e+003;7.117612e-003
1.974833e+003;7.004525e-003
1.976762e+003;7.050894e-003
1.978690e+003;7.278505e-003
1.980619e+003;7.433795e-003
1.982547e+003;7.414549e-003
1.984476e+003;7.370634e-003
1.986404e+003;7.315199e-003
1.988333e+003;7.213750e-003
1.990261e+003;7.166285e-003
1.992190e+003;7.149308e-003
1.994119e+003;7.080228e-003
1.996047e+003;7.134588e-003
1.997976e+003;7.170698e-003
1.999904e+003;7.282245e-003
2.001833e+003;7.439930e-003
2.003761e+003;7.546557e-003
2.005690e+003;7.466794e-003
2.007618e+003;7.309101e-003
2.009547e+003;7.228371e-003
2.011476e+003;7.216883e-003
2.013404e+003;7.351897e-003
2.015333e+003;7.352841e-003
2.017261e+003;7.143481e-003
2.019190e+003;7.325410e-003
2.021118e+003;7.708890e-003
2.023047e+003;7.659448e-003
2.024975e+003;7.427762e-003
2.026904e+003;7.217927e-003
2.028833e+003;7.155337e-003
2.030761e+003;7.288411e-003
2.032690e+003;7.385969e-003
2.034618e+003;7.337339e-003
2.036547e+003;7.100604e-003
2.038475e+003;7.108451e-003
2.040404e+003;7.188012e-003
2.042332e+003;7.302091e-003
2.044261e+003;7.305798e-003
2.046189e+003;7.400562e-003
2.048118e+003;7.359379e-003
2.050047e+003;7.303136e-003
2.051975e+003;7.368140e-003
2.053904e+003;7.386205e-003
2.055832e+003;7.358064e-003
2.057761e+003;7.209269e-003
2.059689e+003;7.129873e-003
2.061618e+003;7.228439e-003
2.063546e+003;7.349370e-003
2.065475e+003;7.300441e-003
2.067404e+003;7.386980e-003
2.069332e+003;7.435447e-003
2.071260e+003;7.366118e-003
2.073189e+003;7.447244e-003
2.075118e+003;7.449165e-003
2.077046e+003;7.479975e-003
2.078975e+003;7.306304e-003
2.080903e+003;6.926848e-003
2.082832e+003;6.907053e-003
2.084760e+003;7.060088e-003
2.086689e+003;7.279954e-003
2.088617e+003;7.297138e-003
2.090546e+003;7.248182e-003
2.092475e+003;7.408584e-003
2.094403e+003;7.450480e-003
2.096332e+003;7.199231e-003
2.098260e+003;7.139539e-003
2.100189e+003;7.376970e-003
2.102117e+003;7.280122e-003
2.104046e+003;7.269812e-003
2.105974e+003;7.450311e-003
2.107903e+003;7.525013e-003
2.109832e+003;7.367534e-003
2.111760e+003;7.123237e-003
2.113688e+003;7.046651e-003
2.115617e+003;6.929541e-003
2.117546e+003;6.860900e-003
2.119474e+003;6.707161e-003
2.121403e+003;6.506756e-003
2.123331e+003;6.442049e-003
2.125260e+003;6.475477e-003
2.127188e+003;6.526634e-003
2.129117e+003;6.671460e-003
2.131045e+003;6.917455e-003
2.132974e+003;6.940585e-003
2.134903e+003;6.786110e-003
2.136831e+003;6.704738e-003
2.138760e+003;7.027288e-003
2.140688e+003;7.089590e-003
2.142617e+003;6.859789e-003
2.144545e+003;6.703796e-003
2.146474e+003;6.796308e-003
2.148402e+003;6.878001e-003
2.150331e+003;6.899680e-003
2.152260e+003;7.105622e-003
2.154188e+003;7.002167e-003
2.156117e+003;6.955230e-003
2.158045e+003;7.270924e-003
2.159974e+003;7.284941e-003
2.161902e+003;7.148803e-003
2.163831e+003;7.505292e-003
2.165759e+003;7.830326e-003
2.167688e+003;7.627783e-003
2.169616e+003;7.596659e-003
2.171545e+003;7.624175e-003
2.173474e+003;7.440570e-003
2.175402e+003;7.464098e-003
2.177331e+003;7.741168e-003
2.179259e+003;7.883430e-003
2.181188e+003;8.040895e-003
2.183116e+003;8.284222e-003
2.185045e+003;8.831541e-003
2.186973e+003;9.449133e-003
2.188902e+003;9.665062e-003
2.190831e+003;9.947134e-003
2.192759e+003;1.010677e-002
2.194688e+003;1.012044e-002
2.196616e+003;1.011915e-002
2.198545e+003;9.910759e-003
2.200473e+003;9.682477e-003
2.202402e+003;9.655169e-003
2.204330e+003;9.430001e-003
2.206259e+003;9.366617e-003
2.208188e+003;9.572140e-003
2.210116e+003;9.664689e-003
2.212044e+003;9.913200e-003
2.213973e+003;1.024930e-002
2.215902e+003;1.039935e-002
2.217830e+003;1.053871e-002
2.219759e+003;1.100558e-002
2.221687e+003;1.169091e-002
2.223616e+003;1.283609e-002
2.225544e+003;1.447874e-002
2.227473e+003;1.722208e-002
2.229401e+003;2.226492e-002
2.231330e+003;3.058517e-002
2.233259e+003;4.258291e-002
2.235187e+003;5.722740e-002
2.237116e+003;7.144763e-002
2.239044e+003;8.283688e-002
2.240973e+003;8.994608e-002
2.242901e+003;9.214568e-002
2.244830e+003;9.037670e-002
2.246758e+003;8.575558e-002
2.248687e+003;7.910844e-002
2.250615e+003;7.097138e-002
2.252544e+003;6.193804e-002
2.254473e+003;5.297111e-002
2.256401e+003;4.455980e-002
2.258330e+003;3.686147e-002
2.260258e+003;3.055918e-002
2.262187e+003;2.576719e-002
2.264115e+003;2.205637e-002
2.266044e+003;1.931093e-002
2.267972e+003;1.710074e-002
2.269901e+003;1.559092e-002
2.271830e+003;1.462432e-002
2.273758e+003;1.369089e-002
2.275687e+003;1.295361e-002
2.277615e+003;1.234776e-002
2.279544e+003;1.194371e-002
2.281472e+003;1.171313e-002
2.283401e+003;1.121882e-002
2.285329e+003;1.087333e-002
2.287258e+003;1.102356e-002
2.289187e+003;1.111529e-002
2.291115e+003;1.088726e-002
2.293043e+003;1.059949e-002
2.294972e+003;1.040274e-002
2.296901e+003;1.045385e-002
2.298829e+003;1.050473e-002
2.300758e+003;1.039853e-002
2.302686e+003;1.026990e-002
2.304615e+003;1.019133e-002
2.306543e+003;1.012007e-002
2.308472e+003;9.879098e-003
2.310400e+003;9.659505e-003
2.312329e+003;9.603371e-003
2.314258e+003;9.482726e-003
2.316186e+003;9.462407e-003
2.318115e+003;9.426411e-003
2.320043e+003;9.355275e-003
2.321972e+003;9.210566e-003
2.323900e+003;9.002339e-003
2.325829e+003;8.823932e-003
2.327757e+003;8.649115e-003
2.329686e+003;8.638941e-003
2.331615e+003;8.715977e-003
2.333543e+003;8.811320e-003
2.335472e+003;8.896910e-003
2.337400e+003;8.693531e-003
2.339329e+003;8.531707e-003
2.341257e+003;8.562527e-003
2.343186e+003;8.788801e-003
2.345114e+003;9.196893e-003
2.347043e+003;9.420587e-003
2.348971e+003;9.608012e-003
2.350900e+003;9.539691e-003
2.352829e+003;9.051358e-003
2.354757e+003;8.542994e-003
2.356686e+003;8.222221e-003
2.358614e+003;8.060033e-003
2.360543e+003;8.079847e-003
2.362471e+003;8.123666e-003
2.364400e+003;8.147500e-003
2.366328e+003;8.453893e-003
2.368257e+003;8.748365e-003
2.370186e+003;8.768650e-003
2.372114e+003;9.000410e-003
2.374042e+003;9.397393e-003
2.375971e+003;9.589550e-003
2.377900e+003;9.761630e-003
2.379828e+003;9.909878e-003
2.381757e+003;9.927438e-003
2.383685e+003;9.995480e-003
2.385614e+003;1.022793e-002
2.387542e+003;1.017912e-002
2.389471e+003;1.007985e-002
2.391399e+003;1.018231e-002
2.393328e+003;1.008724e-002
2.395257e+003;9.963000e-003
2.397185e+003;9.961678e-003
2.399114e+003;9.923709e-003
2.401042e+003;1.010270e-002
2.402971e+003;1.012831e-002
2.404899e+003;9.879912e-003
2.406828e+003;9.684882e-003
2.408756e+003;9.686000e-003
2.410685e+003;9.897437e-003
2.412614e+003;1.010206e-002
2.414542e+003;1.000721e-002
2.416471e+003;9.851812e-003
2.418399e+003;9.835137e-003
2.420328e+003;9.908183e-003
2.422256e+003;9.958559e-003
2.424185e+003;9.894522e-003
2.426113e+003;9.960865e-003
2.428042e+003;1.001738e-002
2.429970e+003;9.993955e-003
2.431899e+003;9.890149e-003
2.433828e+003;9.894996e-003
2.435756e+003;1.003424e-002
2.437685e+003;1.006021e-002
2.439613e+003;9.954931e-003
2.441542e+003;1.005573e-002
2.443470e+003;1.019333e-002
2.445399e+003;1.015717e-002
2.447327e+003;1.016443e-002
2.449256e+003;1.015612e-002
2.451185e+003;1.025860e-002
2.453113e+003;1.044513e-002
2.455042e+003;1.040444e-002
2.456970e+003;9.978766e-003
2.458899e+003;9.862218e-003
2.460827e+003;1.011552e-002
2.462756e+003;1.037563e-002
2.464684e+003;1.052873e-002
2.466613e+003;1.049798e-002
2.468542e+003;1.025487e-002
2.470470e+003;1.043003e-002
2.472398e+003;1.091947e-002
2.474327e+003;1.102866e-002
2.476256e+003;1.083094e-002
2.478184e+003;1.072622e-002
2.480113e+003;1.104663e-002
2.482041e+003;1.123211e-002
2.483970e+003;1.114531e-002
2.485898e+003;1.125911e-002
2.487827e+003;1.122766e-002
2.489755e+003;1.126237e-002
2.491684e+003;1.155865e-002
2.493613e+003;1.193302e-002
2.495541e+003;1.216174e-002
2.497470e+003;1.218160e-002
2.499398e+003;1.215560e-002
2.501327e+003;1.205724e-002
2.503255e+003;1.171705e-002
2.505184e+003;1.184863e-002
2.507112e+003;1.237196e-002
2.509041e+003;1.263649e-002
2.510969e+003;1.284224e-002
2.512898e+003;1.272557e-002
2.514827e+003;1.241434e-002
2.516755e+003;1.219748e-002
2.518684e+003;1.216279e-002
2.520612e+003;1.242709e-002
2.522541e+003;1.261606e-002
2.524469e+003;1.256718e-002
2.526398e+003;1.241219e-002
2.528326e+003;1.236051e-002
2.530255e+003;1.247810e-002
2.532184e+003;1.248537e-002
2.534112e+003;1.250654e-002
2.536041e+003;1.246119e-002
2.537969e+003;1.218702e-002
2.539898e+003;1.210586e-002
2.541826e+003;1.234694e-002
2.543755e+003;1.229363e-002
2.545683e+003;1.196766e-002
2.547612e+003;1.209284e-002
2.549541e+003;1.242968e-002
2.551469e+003;1.240551e-002
2.553397e+003;1.218866e-002
2.555326e+003;1.224380e-002
2.557255e+003;1.224411e-002
2.559183e+003;1.209019e-002
2.561112e+003;1.193952e-002
2.563040e+003;1.176028e-002
2.564969e+003;1.178132e-002
2.566897e+003;1.184594e-002
2.568826e+003;1.165918e-002
2.570754e+003;1.161205e-002
2.572683e+003;1.154508e-002
2.574612e+003;1.148601e-002
2.576540e+003;1.167620e-002
2.578469e+003;1.166143e-002
2.580397e+003;1.150779e-002
2.582326e+003;1.138127e-002
2.584254e+003;1.124116e-002
2.586183e+003;1.138345e-002
2.588111e+003;1.147764e-002
2.590040e+003;1.125829e-002
2.591969e+003;1.110136e-002
2.593897e+003;1.110720e-002
2.595826e+003;1.108117e-002
2.597754e+003;1.124031e-002
2.599683e+003;1.135209e-002
2.601611e+003;1.138576e-002
2.603540e+003;1.154198e-002
2.605468e+003;1.165639e-002
2.607397e+003;1.179913e-002
2.609325e+003;1.173444e-002
2.611254e+003;1.157036e-002
2.613183e+003;1.147992e-002
2.615111e+003;1.177254e-002
2.617040e+003;1.187295e-002
2.618968e+003;1.171514e-002
2.620897e+003;1.161885e-002
2.622825e+003;1.143076e-002
2.624754e+003;1.158343e-002
2.626682e+003;1.170112e-002
2.628611e+003;1.168849e-002
2.630540e+003;1.189798e-002
2.632468e+003;1.223085e-002
2.634396e+003;1.226387e-002
2.636325e+003;1.211063e-002
2.638254e+003;1.197808e-002
2.640182e+003;1.178776e-002
2.642111e+003;1.176859e-002
2.644039e+003;1.190203e-002
2.645968e+003;1.193799e-002
2.647896e+003;1.196704e-002
2.649825e+003;1.201963e-002
2.651753e+003;1.189678e-002
2.653682e+003;1.188616e-002
2.655611e+003;1.185170e-002
2.657539e+003;1.175037e-002
2.659468e+003;1.168260e-002
2.661396e+003;1.165095e-002
2.663325e+003;1.182248e-002
2.665253e+003;1.217196e-002
2.667182e+003;1.208324e-002
2.669110e+003;1.178527e-002
2.671039e+003;1.172723e-002
2.672968e+003;1.190465e-002
2.674896e+003;1.206368e-002
2.676825e+003;1.201405e-002
2.678753e+003;1.185902e-002
2.680682e+003;1.178803e-002
2.682610e+003;1.167923e-002
2.684539e+003;1.184536e-002
2.686467e+003;1.215210e-002
2.688396e+003;1.225215e-002
2.690324e+003;1.227757e-002
2.692253e+003;1.220539e-002
2.694182e+003;1.215775e-002
2.696110e+003;1.215424e-002
2.698039e+003;1.190223e-002
2.699967e+003;1.167487e-002
2.701896e+003;1.178152e-002
2.703824e+003;1.192433e-002
2.705753e+003;1.182109e-002
2.707681e+003;1.184424e-002
2.709610e+003;1.193060e-002
2.711539e+003;1.156121e-002
2.713467e+003;1.148496e-002
2.715396e+003;1.165105e-002
2.717324e+003;1.167419e-002
2.719253e+003;1.163900e-002
2.721181e+003;1.163461e-002
2.723110e+003;1.198019e-002
2.725038e+003;1.211479e-002
2.726967e+003;1.190588e-002
2.728896e+003;1.176886e-002
2.730824e+003;1.162692e-002
2.732752e+003;1.164530e-002
2.734681e+003;1.166429e-002
2.736610e+003;1.149071e-002
2.738538e+003;1.133209e-002
2.740467e+003;1.161191e-002
2.742395e+003;1.166262e-002
2.744324e+003;1.132620e-002
2.746252e+003;1.137879e-002
2.748181e+003;1.151007e-002
2.750109e+003;1.150125e-002
2.752038e+003;1.158067e-002
2.753967e+003;1.145757e-002
2.755895e+003;1.116428e-002
2.757824e+003;1.145199e-002
2.759752e+003;1.181377e-002
2.761681e+003;1.150265e-002
2.763609e+003;1.100748e-002
2.765538e+003;1.105540e-002
2.767466e+003;1.144019e-002
2.769395e+003;1.168042e-002
2.771323e+003;1.170612e-002
2.773252e+003;1.151299e-002
2.775181e+003;1.140253e-002
2.777109e+003;1.171521e-002
2.779038e+003;1.218988e-002
2.780966e+003;1.256984e-002
2.782895e+003;1.278064e-002
2.784823e+003;1.259559e-002
2.786752e+003;1.238563e-002
2.788680e+003;1.245550e-002
2.790609e+003;1.277044e-002
2.792538e+003;1.302719e-002
2.794466e+003;1.329249e-002
2.796395e+003;1.336192e-002
2.798323e+003;1.356889e-002
2.800252e+003;1.424934e-002
2.802180e+003;1.471617e-002
2.804109e+003;1.461740e-002
2.806037e+003;1.452067e-002
2.807966e+003;1.469115e-002
2.809895e+003;1.485645e-002
2.811823e+003;1.513763e-002
2.813751e+003;1.551561e-002
2.815680e+003;1.547574e-002
2.817609e+003;1.529256e-002
2.819537e+003;1.553937e-002
2.821466e+003;1.576533e-002
2.823394e+003;1.570630e-002
2.825323e+003;1.582353e-002
2.827251e+003;1.608577e-002
2.829180e+003;1.646878e-002
2.831108e+003;1.713538e-002
2.833037e+003;1.790321e-002
2.834966e+003;1.856866e-002
2.836894e+003;1.933040e-002
2.838823e+003;2.055197e-002
2.840751e+003;2.218241e-002
2.842680e+003;2.436130e-002
2.844608e+003;2.702773e-002
2.846537e+003;3.065084e-002
2.848465e+003;3.449494e-002
2.850394e+003;3.720477e-002
2.852323e+003;3.821846e-002
2.854251e+003;3.803523e-002
2.856180e+003;3.743737e-002
2.858108e+003;3.672331e-002
2.860037e+003;3.680532e-002
2.861965e+003;3.666364e-002
2.863894e+003;3.607617e-002
2.865822e+003;3.605262e-002
2.867751e+003;3.620911e-002
2.869679e+003;3.626998e-002
2.871608e+003;3.615502e-002
2.873536e+003;3.576653e-002
2.875465e+003;3.528081e-002
2.877394e+003;3.492549e-002
2.879322e+003;3.477545e-002
2.881251e+003;3.470058e-002
2.883179e+003;3.435560e-002
2.885108e+003;3.385350e-002
2.887036e+003;3.434656e-002
2.888965e+003;3.563976e-002
2.890893e+003;3.661617e-002
2.892822e+003;3.731358e-002
2.894750e+003;3.819989e-002
2.896679e+003;3.980979e-002
2.898608e+003;4.135942e-002
2.900536e+003;4.278346e-002
2.902465e+003;4.437664e-002
2.904393e+003;4.655499e-002
2.906322e+003;4.926408e-002
2.908250e+003;5.209623e-002
2.910179e+003;5.539110e-002
2.912107e+003;5.913819e-002
2.914036e+003;6.345745e-002
2.915965e+003;6.730268e-002
2.917893e+003;7.007282e-002
2.919822e+003;7.233236e-002
2.921750e+003;7.425897e-002
2.923679e+003;7.522994e-002
2.925607e+003;7.505968e-002
2.927536e+003;7.471094e-002
2.929464e+003;7.444967e-002
2.931393e+003;7.379642e-002
2.933322e+003;7.285071e-002
2.935250e+003;7.230481e-002
2.937178e+003;7.142240e-002
2.939107e+003;7.011414e-002
2.941036e+003;6.917780e-002
2.942964e+003;6.793070e-002
2.944893e+003;6.605331e-002
2.946821e+003;6.429902e-002
2.948750e+003;6.246348e-002
2.950678e+003;6.059346e-002
2.952607e+003;5.826612e-002
2.954535e+003;5.620107e-002
2.956464e+003;5.447704e-002
2.958393e+003;5.184239e-002
2.960321e+003;4.922348e-002
2.962250e+003;4.748851e-002
2.964178e+003;4.602644e-002
2.966107e+003;4.500831e-002
2.968035e+003;4.413240e-002
2.969964e+003;4.306982e-002
2.971892e+003;4.185962e-002
2.973821e+003;4.079337e-002
2.975750e+003;3.978990e-002
2.977678e+003;3.896108e-002
2.979607e+003;3.829658e-002
2.981535e+003;3.760835e-002
2.983464e+003;3.661991e-002
2.985392e+003;3.570480e-002
2.987321e+003;3.534162e-002
2.989249e+003;3.508434e-002
2.991178e+003;3.446890e-002
2.993106e+003;3.360480e-002
2.995035e+003;3.286667e-002
2.996964e+003;3.230072e-002
2.998892e+003;3.180199e-002
3.000821e+003;3.132777e-002
3.002749e+003;3.080376e-002
3.004678e+003;2.990301e-002
3.006606e+003;2.893013e-002
3.008535e+003;2.822980e-002
3.010463e+003;2.765972e-002
3.012392e+003;2.717042e-002
3.014321e+003;2.635180e-002
3.016249e+003;2.540007e-002
3.018177e+003;2.491917e-002
3.020106e+003;2.467195e-002
3.022035e+003;2.428011e-002
3.023963e+003;2.346177e-002
3.025892e+003;2.291310e-002
3.027820e+003;2.277683e-002
3.029749e+003;2.239070e-002
3.031677e+003;2.190232e-002
3.033606e+003;2.150721e-002
3.035534e+003;2.115251e-002
3.037463e+003;2.094338e-002
3.039392e+003;2.070249e-002
3.041320e+003;2.024074e-002
3.043249e+003;1.993984e-002
3.045177e+003;1.977120e-002
3.047106e+003;1.978292e-002
3.049034e+003;1.953705e-002
3.050963e+003;1.908261e-002
3.052891e+003;1.888527e-002
3.054820e+003;1.872884e-002
3.056749e+003;1.832058e-002
3.058677e+003;1.800335e-002
3.060606e+003;1.810814e-002
3.062534e+003;1.813868e-002
3.064463e+003;1.797945e-002
3.066391e+003;1.775293e-002
3.068320e+003;1.759946e-002
3.070248e+003;1.732651e-002
3.072177e+003;1.690575e-002
3.074105e+003;1.663035e-002
3.076034e+003;1.660381e-002
3.077963e+003;1.625429e-002
3.079891e+003;1.589804e-002
3.081820e+003;1.616672e-002
3.083748e+003;1.630967e-002
3.085677e+003;1.596262e-002
3.087605e+003;1.566092e-002
3.089534e+003;1.570290e-002
3.091462e+003;1.569356e-002
3.093391e+003;1.555452e-002
3.095320e+003;1.556980e-002
3.097248e+003;1.553419e-002
3.099177e+003;1.516769e-002
3.101105e+003;1.485717e-002
3.103034e+003;1.468800e-002
3.104962e+003;1.448432e-002
3.106891e+003;1.457662e-002
3.108819e+003;1.450820e-002
3.110748e+003;1.450834e-002
3.112677e+003;1.485614e-002
3.114605e+003;1.508445e-002
3.116533e+003;1.458540e-002
3.118462e+003;1.432707e-002
3.120391e+003;1.425373e-002
3.122319e+003;1.385416e-002
3.124248e+003;1.397956e-002
3.126176e+003;1.423962e-002
3.128105e+003;1.432759e-002
3.130033e+003;1.432588e-002
3.131962e+003;1.398089e-002
3.133890e+003;1.354982e-002
3.135819e+003;1.374317e-002
3.137748e+003;1.400098e-002
3.139676e+003;1.414880e-002
3.141605e+003;1.427502e-002
3.143533e+003;1.408554e-002
3.145462e+003;1.359491e-002
3.147390e+003;1.314219e-002
3.149319e+003;1.303688e-002
3.151247e+003;1.341102e-002
3.153176e+003;1.328415e-002
3.155104e+003;1.319018e-002
3.157033e+003;1.377977e-002
3.158962e+003;1.420446e-002
3.160890e+003;1.400977e-002
3.162819e+003;1.369868e-002
3.164747e+003;1.343265e-002
3.166676e+003;1.337859e-002
3.168604e+003;1.353922e-002
3.170533e+003;1.362274e-002
3.172461e+003;1.373596e-002
3.174390e+003;1.377655e-002
3.176319e+003;1.407161e-002
3.178247e+003;1.436622e-002
3.180176e+003;1.444952e-002
3.182104e+003;1.459849e-002
3.184033e+003;1.468461e-002
3.185961e+003;1.483804e-002
3.187890e+003;1.483845e-002
3.189818e+003;1.482728e-002
3.191747e+003;1.464588e-002
3.193676e+003;1.411573e-002
3.195604e+003;1.425208e-002
3.197532e+003;1.486403e-002
3.199461e+003;1.492743e-002
3.201390e+003;1.474778e-002
3.203318e+003;1.476567e-002
3.205247e+003;1.490147e-002
3.207175e+003;1.502744e-002
3.209104e+003;1.508987e-002
3.211032e+003;1.551970e-002
3.212961e+003;1.546324e-002
3.214889e+003;1.490538e-002
3.216818e+003;1.496715e-002
3.218747e+003;1.493134e-002
3.220675e+003;1.491084e-002
3.222604e+003;1.525814e-002
3.224532e+003;1.544326e-002
3.226461e+003;1.560232e-002
3.228389e+003;1.555994e-002
3.230318e+003;1.530804e-002
3.232246e+003;1.502288e-002
3.234175e+003;1.501293e-002
3.236104e+003;1.515496e-002
3.238032e+003;1.581900e-002
3.239961e+003;1.635261e-002
3.241889e+003;1.588745e-002
3.243818e+003;1.538061e-002
3.245746e+003;1.526356e-002
3.247675e+003;1.549590e-002
3.249603e+003;1.592825e-002
3.251532e+003;1.623007e-002
3.253460e+003;1.607350e-002
3.255389e+003;1.577618e-002
3.257318e+003;1.561582e-002
3.259246e+003;1.578680e-002
3.261175e+003;1.645398e-002
3.263103e+003;1.664632e-002
3.265032e+003;1.632581e-002
3.266960e+003;1.609103e-002
3.268889e+003;1.584415e-002
3.270817e+003;1.611411e-002
3.272746e+003;1.635361e-002
3.274675e+003;1.640109e-002
3.276603e+003;1.640236e-002
3.278531e+003;1.602990e-002
3.280460e+003;1.627331e-002
3.282389e+003;1.686614e-002
3.284317e+003;1.669480e-002
3.286246e+003;1.643085e-002
3.288174e+003;1.622454e-002
3.290103e+003;1.596098e-002
3.292031e+003;1.582185e-002
3.293960e+003;1.588629e-002
3.295888e+003;1.584969e-002
3.297817e+003;1.571407e-002
3.299746e+003;1.586237e-002
3.301674e+003;1.580783e-002
3.303603e+003;1.605995e-002
3.305531e+003;1.643281e-002
3.307460e+003;1.626433e-002
3.309388e+003;1.597806e-002
3.311317e+003;1.564017e-002
3.313245e+003;1.553927e-002
3.315174e+003;1.543227e-002
3.317103e+003;1.550297e-002
3.319031e+003;1.536846e-002
3.320960e+003;1.518124e-002
3.322888e+003;1.498368e-002
3.324817e+003;1.501413e-002
3.326745e+003;1.533293e-002
3.328674e+003;1.552632e-002
3.330602e+003;1.514051e-002
3.332531e+003;1.488875e-002
3.334459e+003;1.485570e-002
3.336388e+003;1.453791e-002
3.338317e+003;1.438533e-002
3.340245e+003;1.468101e-002
3.342174e+003;1.458755e-002
3.344102e+003;1.418022e-002
3.346031e+003;1.428937e-002
3.347959e+003;1.434865e-002
3.349888e+003;1.391136e-002
3.351816e+003;1.386846e-002
3.353745e+003;1.388235e-002
3.355674e+003;1.336233e-002
3.357602e+003;1.340859e-002
3.359531e+003;1.408318e-002
3.361459e+003;1.418799e-002
3.363388e+003;1.393292e-002
3.365316e+003;1.377303e-002
3.367245e+003;1.377016e-002
3.369173e+003;1.364715e-002
3.371102e+003;1.351584e-002
3.373031e+003;1.338823e-002
3.374959e+003;1.335525e-002
3.376887e+003;1.287504e-002
3.378816e+003;1.216862e-002
3.380745e+003;1.235908e-002
3.382673e+003;1.252649e-002
3.384602e+003;1.213318e-002
3.386530e+003;1.203687e-002
3.388459e+003;1.220727e-002
3.390387e+003;1.228443e-002
3.392316e+003;1.211942e-002
3.394244e+003;1.232806e-002
3.396173e+003;1.190050e-002
3.398102e+003;1.124660e-002
3.400030e+003;1.115283e-002
3.401959e+003;1.162134e-002
3.403887e+003;1.179940e-002
3.405816e+003;1.177346e-002
3.407744e+003;1.166041e-002
3.409673e+003;1.152027e-002
3.411601e+003;1.118937e-002
3.413530e+003;1.074727e-002
3.415458e+003;1.074140e-002
3.417387e+003;1.109786e-002
3.419316e+003;1.139301e-002
3.421244e+003;1.114956e-002
3.423173e+003;1.101747e-002
3.425101e+003;1.130719e-002
3.427030e+003;1.152834e-002
3.428958e+003;1.137607e-002
3.430887e+003;1.142644e-002
3.432815e+003;1.122742e-002
3.434744e+003;1.074877e-002
3.436673e+003;1.092392e-002
3.438601e+003;1.113324e-002
3.440530e+003;1.066719e-002
3.442458e+003;1.006404e-002
3.444387e+003;1.002461e-002
3.446315e+003;1.025059e-002
3.448244e+003;1.029090e-002
3.450172e+003;1.023421e-002
3.452101e+003;1.046064e-002
3.454030e+003;1.067904e-002
3.455958e+003;1.048433e-002
3.457886e+003;1.007323e-002
3.459815e+003;9.998803e-003
3.461744e+003;9.835375e-003
3.463672e+003;9.583792e-003
3.465601e+003;9.698502e-003
3.467529e+003;9.899335e-003
3.469458e+003;9.956559e-003
3.471386e+003;9.886217e-003
3.473315e+003;9.511377e-003
3.475243e+003;9.418183e-003
3.477172e+003;9.636874e-003
3.479101e+003;9.823308e-003
3.481029e+003;9.959644e-003
3.482958e+003;9.696503e-003
3.484886e+003;9.261167e-003
3.486815e+003;9.241027e-003
3.488743e+003;9.058260e-003
3.490672e+003;9.131615e-003
3.492600e+003;9.424007e-003
3.494529e+003;9.807888e-003
3.496458e+003;9.771829e-003
3.498386e+003;9.446762e-003
3.500315e+003;9.337467e-003
3.502243e+003;9.394718e-003
3.504172e+003;9.779522e-003
3.506100e+003;9.751498e-003
3.508029e+003;9.521232e-003
3.509957e+003;9.745466e-003
3.511886e+003;9.931336e-003
3.513814e+003;9.821410e-003
3.515743e+003;9.864252e-003
3.517672e+003;1.043556e-002
3.519600e+003;1.076612e-002
3.521529e+003;1.083576e-002
3.523457e+003;1.055698e-002
3.525386e+003;9.921878e-003
3.527314e+003;9.835069e-003
3.529243e+003;9.929743e-003
3.531171e+003;1.012119e-002
3.533100e+003;9.905030e-003
3.535029e+003;9.557948e-003
3.536957e+003;9.402844e-003
3.538885e+003;9.512426e-003
3.540814e+003;9.583351e-003
3.542743e+003;9.212597e-003
3.544671e+003;8.655740e-003
3.546600e+003;9.249557e-003
3.548528e+003;9.845136e-003
3.550457e+003;9.111651e-003
3.552385e+003;8.646715e-003
3.554314e+003;8.839149e-003
3.556242e+003;8.914665e-003
3.558171e+003;9.302327e-003
3.560100e+003;9.391367e-003
3.562028e+003;9.063064e-003
3.563957e+003;8.720102e-003
3.565885e+003;8.175051e-003
3.567814e+003;8.191258e-003
3.569742e+003;8.492004e-003
3.571671e+003;8.668787e-003
3.573599e+003;8.447204e-003
3.575528e+003;8.478793e-003
3.577457e+003;8.525288e-003
3.579385e+003;8.166205e-003
3.581314e+003;7.660089e-003
3.583242e+003;7.261760e-003
3.585171e+003;6.579412e-003
3.587099e+003;5.826432e-003
3.589028e+003;6.230337e-003
3.590956e+003;7.408719e-003
3.592885e+003;7.516383e-003
3.594813e+003;7.457963e-003
3.596742e+003;7.905937e-003
3.598671e+003;8.074143e-003
3.600599e+003;8.194905e-003
3.602528e+003;8.426697e-003
3.604456e+003;7.965160e-003
3.606385e+003;7.355233e-003
3.608313e+003;7.286188e-003
3.610242e+003;7.769401e-003
3.612170e+003;7.618207e-003
3.614099e+003;7.723157e-003
3.616028e+003;8.122619e-003
3.617956e+003;7.866662e-003
3.619885e+003;7.865346e-003
3.621813e+003;8.257476e-003
3.623742e+003;8.306513e-003
3.625670e+003;7.543589e-003
3.627599e+003;5.687796e-003
3.629527e+003;6.049067e-003
3.631456e+003;7.966273e-003
3.633385e+003;8.246670e-003
3.635313e+003;7.864907e-003
3.637241e+003;7.774900e-003
3.639170e+003;7.591231e-003
3.641099e+003;7.622792e-003
3.643027e+003;7.985881e-003
3.644956e+003;6.849321e-003
3.646884e+003;4.791072e-003
3.648813e+003;3.322469e-003
3.650741e+003;4.005333e-003
3.652670e+003;5.568468e-003
3.654598e+003;5.522994e-003
3.656527e+003;5.062921e-003
3.658456e+003;5.655367e-003
3.660384e+003;6.111700e-003
3.662313e+003;5.880502e-003
3.664241e+003;5.023400e-003
3.666170e+003;3.991455e-003
3.668098e+003;2.704054e-003
3.670027e+003;1.594617e-003
3.671955e+003;2.374570e-003
3.673884e+003;2.013810e-003
3.675813e+003;2.389495e-003
3.677741e+003;3.976240e-003
3.679669e+003;3.839229e-003
3.681598e+003;3.726591e-003
3.683527e+003;3.616287e-003
3.685455e+003;2.803721e-003
3.687384e+003;5.784747e-004
3.689312e+003;4.362962e-004
3.691241e+003;1.935158e-003
3.693169e+003;3.117312e-003
3.695098e+003;3.317527e-003
3.697026e+003;3.006929e-003
3.698955e+003;2.745432e-003
3.700884e+003;2.385997e-003
3.702812e+003;2.992215e-003
3.704741e+003;3.396865e-003
3.706669e+003;2.982874e-003
3.708598e+003;1.821382e-003
3.710526e+003;4.110234e-004
3.712455e+003;3.167444e-004
3.714383e+003;1.880779e-003
3.716312e+003;2.673548e-003
3.718240e+003;2.492423e-003
3.720169e+003;2.282495e-003
3.722098e+003;2.080192e-003
3.724026e+003;2.039843e-003
3.725955e+003;1.714954e-003
3.727883e+003;1.920780e-003
3.729812e+003;1.674937e-003
3.731740e+003;4.520509e-004
3.733669e+003;3.208228e-004
3.735597e+003;3.584925e-004
3.737526e+003;1.705606e-003
3.739455e+003;2.980739e-003
3.741383e+003;2.044037e-003
3.743312e+003;-1.397298e-003
3.745240e+003;-1.387093e-003
3.747169e+003;9.338176e-005
3.749097e+003;-1.475468e-003
3.751026e+003;-1.878574e-003
3.752954e+003;1.755796e-004
3.754883e+003;2.307977e-003
3.756812e+003;2.075098e-003
3.758740e+003;1.813563e-003
3.760668e+003;2.137860e-003
3.762597e+003;2.630376e-003
3.764526e+003;2.443172e-003
3.766454e+003;2.786914e-003
3.768383e+003;2.563711e-003
3.770311e+003;2.248455e-003
3.772240e+003;2.600376e-003
3.774168e+003;2.865887e-003
3.776097e+003;2.983708e-003
3.778025e+003;2.578410e-003
3.779954e+003;2.512852e-003
3.781883e+003;3.129226e-003
3.783811e+003;3.074096e-003
3.785740e+003;2.689217e-003
3.787668e+003;2.419415e-003
3.789597e+003;2.535014e-003
3.791525e+003;2.790515e-003
3.793454e+003;3.193742e-003
3.795382e+003;2.964692e-003
3.797311e+003;2.122343e-003
3.799240e+003;4.040255e-004
3.801168e+003;-1.713355e-004
3.803097e+003;1.750349e-003
3.805025e+003;1.871195e-003
3.806954e+003;1.109418e-003
3.808882e+003;2.584976e-003
3.810811e+003;3.216006e-003
3.812739e+003;2.612609e-003
3.814668e+003;1.199550e-003
3.816596e+003;1.160213e-003
3.818525e+003;1.463143e-003
3.820454e+003;5.809962e-004
3.822382e+003;1.652652e-003
3.824311e+003;2.776643e-003
3.826239e+003;2.650711e-003
3.828168e+003;2.689851e-003
3.830096e+003;2.285393e-003
3.832025e+003;1.927071e-003
3.833953e+003;2.055323e-003
3.835882e+003;1.476774e-003
3.837811e+003;8.149669e-004
3.839739e+003;1.469460e-003
3.841667e+003;2.210254e-003
3.843596e+003;2.719391e-003
3.845525e+003;3.257667e-003
3.847453e+003;3.542121e-003
3.849382e+003;2.492223e-003
3.851310e+003;-4.346667e-004
3.853239e+003;-2.428944e-003
3.855167e+003;3.013261e-004
3.857096e+003;3.293622e-003
3.859024e+003;3.419774e-003
3.860953e+003;2.467364e-003
3.862882e+003;2.017739e-003
3.864810e+003;2.395193e-003
3.866739e+003;2.782412e-003
3.868667e+003;1.484554e-003
3.870596e+003;1.412778e-003
3.872524e+003;2.557911e-003
3.874453e+003;3.162367e-003
3.876381e+003;3.760312e-003
3.878310e+003;3.409521e-003
3.880239e+003;3.298597e-003
3.882167e+003;3.173548e-003
3.884096e+003;2.135495e-003
3.886024e+003;2.543346e-003
3.887953e+003;3.875868e-003
3.889881e+003;3.514796e-003
3.891810e+003;3.368380e-003
3.893738e+003;4.268493e-003
3.895667e+003;4.533186e-003
3.897595e+003;3.516867e-003
3.899524e+003;2.391694e-003
3.901453e+003;2.186776e-003
3.903381e+003;2.385697e-003
3.905310e+003;2.989546e-003
3.907238e+003;3.518437e-003
3.909167e+003;3.638807e-003
3.911095e+003;3.527623e-003
3.913024e+003;3.292487e-003
3.914952e+003;2.979971e-003
3.916881e+003;3.228924e-003
3.918810e+003;3.661795e-003
3.920738e+003;3.896128e-003
3.922667e+003;4.107608e-003
3.924595e+003;4.180164e-003
3.926524e+003;4.536165e-003
3.928452e+003;4.505263e-003
3.930381e+003;4.042655e-003
3.932309e+003;3.780467e-003
3.934238e+003;4.083558e-003
3.936167e+003;4.246075e-003
3.938095e+003;4.218605e-003
3.940023e+003;3.936282e-003
3.941952e+003;3.710082e-003
3.943881e+003;4.091786e-003
3.945809e+003;4.597275e-003
3.947738e+003;4.541556e-003
3.949666e+003;4.318387e-003
3.951595e+003;4.090047e-003
3.953523e+003;4.359451e-003
3.955452e+003;4.743033e-003
3.957380e+003;4.917056e-003
3.959309e+003;4.656282e-003
3.961238e+003;4.510184e-003
3.963166e+003;4.679760e-003
3.965095e+003;4.900233e-003
3.967023e+003;5.006138e-003
3.968952e+003;4.772278e-003
3.970880e+003;4.742028e-003
3.972809e+003;4.940548e-003
3.974737e+003;5.198910e-003
3.976666e+003;5.542861e-003
3.978594e+003;4.983413e-003
3.980523e+003;4.570553e-003
3.982452e+003;5.317298e-003
3.984380e+003;5.054072e-003
3.986309e+003;5.058396e-003
3.988237e+003;5.441456e-003
3.990166e+003;4.943631e-003
3.992094e+003;5.015456e-003
3.994023e+003;5.111364e-003
3.995951e+003;4.921613e-003
3.997880e+003;4.809129e-003
3.999809e+003;5.081795e-003
4.001737e+003;0.000000e+000
