3.992094e+002;0.000000e+000
4.011380e+002;0.000000e+000
4.030665e+002;0.000000e+000
4.049951e+002;0.000000e+000
4.069236e+002;0.000000e+000
4.088522e+002;0.000000e+000
4.107807e+002;0.000000e+000
4.127093e+002;0.000000e+000
4.146378e+002;0.000000e+000
4.165664e+002;0.000000e+000
4.184949e+002;0.000000e+000
4.204235e+002;0.000000e+000
4.223520e+002;0.000000e+000
4.242806e+002;0.000000e+000
4.262091e+002;0.000000e+000
4.281377e+002;0.000000e+000
4.300662e+002;0.000000e+000
4.319948e+002;0.000000e+000
4.339233e+002;0.000000e+000
4.358519e+002;0.000000e+000
4.377804e+002;0.000000e+000
4.397090e+002;0.000000e+000
4.416375e+002;0.000000e+000
4.435660e+002;0.000000e+000
4.454946e+002;0.000000e+000
4.474232e+002;0.000000e+000
4.493517e+002;0.000000e+000
4.512802e+002;0.000000e+000
4.532088e+002;0.000000e+000
4.551373e+002;0.000000e+000
4.570659e+002;0.000000e+000
4.589944e+002;0.000000e+000
4.609230e+002;0.000000e+000
4.628515e+002;0.000000e+000
4.647801e+002;0.000000e+000
4.667086e+002;0.000000e+000
4.686372e+002;0.000000e+000
4.705657e+002;0.000000e+000
4.724943e+002;0.000000e+000
4.744228e+002;0.000000e+000
4.763513e+002;0.000000e+000
4.782799e+002;0.000000e+000
4.802085e+002;0.000000e+000
4.821370e+002;0.000000e+000
4.840656e+002;0.000000e+000
4.859941e+002;0.000000e+000
4.879226e+002;0.000000e+000
4.898512e+002;0.000000e+000
4.917798e+002;0.000000e+000
4.937083e+002;0.000000e+000
4.956368e+002;0.000000e+000
4.975654e+002;0.000000e+000
4.994939e+002;0.000000e+000
5.014225e+002;0.000000e+000
5.033510e+002;0.000000e+000
5.052796e+002;0.000000e+000
5.072081e+002;0.000000e+000
5.091367e+002;0.000000e+000
5.110652e+002;0.000000e+000
5.129938e+002;0.000000e+000
5.149223e+002;0.000000e+000
5.168509e+002;0.000000e+000
5.187794e+002;0.000000e+000
5.207079e+002;0.000000e+000
5.226365e+002;0.000000e+000
5.245651e+002;0.000000e+000
5.264936e+002;0.000000e+000
5.284222e+002;0.000000e+000
5.303507e+002;0.000000e+000
5.322792e+002;0.000000e+000
5.342078e+002;0.000000e+000
5.361364e+002;0.000000e+000
5.380649e+002;0.000000e+000
5.399935e+002;0.000000e+000
5.419220e+002;0.000000e+000
5.438505e+002;0.000000e+000
5.457791e+002;0.000000e+000
5.477076e+002;0.000000e+000
5.496362e+002;0.000000e+000
5.515648e+002;0.000000e+000
5.534933e+002;0.000000e+000
5.554218e+002;0.000000e+000
5.573504e+002;0.000000e+000
5.592789e+002;0.000000e+000
5.612075e+002;0.000000e+000
5.631360e+002;0.000000e+000
5.650646e+002;0.000000e+000
5.669931e+002;0.000000e+000
5.689217e+002;0.000000e+000
5.708502e+002;0.000000e+000
5.727787e+002;0.000000e+000
5.747073e+002;0.000000e+000
5.766359e+002;0.000000e+000
5.785644e+002;0.000000e+000
5.804930e+002;0.000000e+000
5.824215e+002;0.000000e+000
5.843500e+002;0.000000e+000
5.862786e+002;0.000000e+000
5.882072e+002;0.000000e+000
5.901357e+002;0.000000e+000
5.920643e+002;0.000000e+000
5.939928e+002;0.000000e+000
5.959213e+002;0.000000e+000
5.978499e+002;0.000000e+000
5.997784e+002;3.266711e-002
6.017070e+002;3.083588e-002
6.036355e+002;3.020919e-002
6.055641e+002;2.972397e-002
6.074926e+002;2.671098e-002
6.094211e+002;2.661980e-002
6.113497e+002;2.842715e-002
6.132783e+002;2.960867e-002
6.152068e+002;3.092905e-002
6.171354e+002;3.094449e-002
6.190639e+002;3.117409e-002
6.209924e+002;3.225471e-002
6.229210e+002;3.289072e-002
6.248495e+002;3.426108e-002
6.267781e+002;3.571253e-002
6.287067e+002;3.365543e-002
6.306352e+002;3.478866e-002
6.325637e+002;3.657651e-002
6.344923e+002;3.384505e-002
6.364208e+002;3.281510e-002
6.383494e+002;3.269137e-002
6.402780e+002;3.171768e-002
6.422065e+002;3.277079e-002
6.441350e+002;3.488757e-002
6.460636e+002;3.612193e-002
6.479921e+002;3.195421e-002
6.499207e+002;3.100378e-002
6.518492e+002;3.234216e-002
6.537778e+002;3.289701e-002
6.557063e+002;3.297726e-002
6.576349e+002;3.343937e-002
6.595634e+002;3.340255e-002
6.614919e+002;3.234534e-002
6.634205e+002;3.143982e-002
6.653491e+002;3.273860e-002
6.672776e+002;3.306342e-002
6.692062e+002;3.339221e-002
6.711347e+002;3.531078e-002
6.730632e+002;3.627182e-002
6.749918e+002;3.358858e-002
6.769203e+002;3.260799e-002
6.788489e+002;3.308731e-002
6.807775e+002;3.168543e-002
6.827060e+002;3.127538e-002
6.846345e+002;3.089312e-002
6.865631e+002;3.005236e-002
6.884916e+002;3.025616e-002
6.904202e+002;2.945709e-002
6.923488e+002;2.836504e-002
6.942773e+002;2.862233e-002
6.962058e+002;2.836390e-002
6.981344e+002;2.741137e-002
7.000629e+002;2.697963e-002
7.019915e+002;2.585981e-002
7.039200e+002;2.413020e-002
7.058486e+002;2.396575e-002
7.077771e+002;2.515434e-002
7.097057e+002;2.549272e-002
7.116342e+002;2.522306e-002
7.135627e+002;2.595520e-002
7.154913e+002;2.672575e-002
7.174199e+002;2.682855e-002
7.193484e+002;2.694611e-002
7.212770e+002;2.618277e-002
7.232055e+002;2.672064e-002
7.251340e+002;2.849660e-002
7.270626e+002;2.991898e-002
7.289911e+002;2.966546e-002
7.309197e+002;2.950432e-002
7.328483e+002;2.937724e-002
7.347768e+002;2.870094e-002
7.367053e+002;2.892308e-002
7.386339e+002;3.000077e-002
7.405624e+002;3.084456e-002
7.424910e+002;3.158425e-002
7.444196e+002;3.178837e-002
7.463481e+002;3.189477e-002
7.482766e+002;3.192087e-002
7.502052e+002;3.255128e-002
7.521337e+002;3.392304e-002
7.540623e+002;3.411722e-002
7.559908e+002;3.315489e-002
7.579194e+002;3.258867e-002
7.598479e+002;3.283415e-002
7.617765e+002;3.326591e-002
7.637050e+002;3.350551e-002
7.656335e+002;3.399043e-002
7.675621e+002;3.417202e-002
7.694907e+002;3.263075e-002
7.714192e+002;3.130045e-002
7.733478e+002;3.122899e-002
7.752763e+002;3.038698e-002
7.772048e+002;2.920820e-002
7.791334e+002;2.731947e-002
7.810620e+002;2.556820e-002
7.829905e+002;2.373370e-002
7.849191e+002;2.081482e-002
7.868476e+002;1.848972e-002
7.887761e+002;1.611483e-002
7.907047e+002;1.280248e-002
7.926332e+002;1.020446e-002
7.945618e+002;8.626030e-003
7.964903e+002;7.527508e-003
7.984189e+002;6.622137e-003
8.003474e+002;6.612279e-003
8.022759e+002;7.466929e-003
8.042045e+002;8.315328e-003
8.061331e+002;9.324806e-003
8.080616e+002;1.078175e-002
8.099902e+002;1.225729e-002
8.119187e+002;1.311597e-002
8.138472e+002;1.379581e-002
8.157758e+002;1.519613e-002
8.177043e+002;1.668296e-002
8.196329e+002;1.754139e-002
8.215615e+002;1.932316e-002
8.234900e+002;2.192260e-002
8.254185e+002;2.483671e-002
8.273471e+002;2.727346e-002
8.292756e+002;2.915930e-002
8.312042e+002;3.057962e-002
8.331328e+002;3.182741e-002
8.350613e+002;3.216125e-002
8.369898e+002;3.177914e-002
8.389184e+002;3.133029e-002
8.408469e+002;3.120051e-002
8.427755e+002;3.099243e-002
8.447040e+002;2.962750e-002
8.466326e+002;2.812561e-002
8.485611e+002;2.680701e-002
8.504897e+002;2.535163e-002
8.524182e+002;2.464004e-002
8.543467e+002;2.427559e-002
8.562753e+002;2.380258e-002
8.582039e+002;2.371960e-002
8.601324e+002;2.329673e-002
8.620610e+002;2.311246e-002
8.639895e+002;2.342298e-002
8.659180e+002;2.342333e-002
8.678466e+002;2.314139e-002
8.697751e+002;2.248146e-002
8.717037e+002;2.203772e-002
8.736323e+002;2.229258e-002
8.755608e+002;2.245916e-002
8.774893e+002;2.249800e-002
8.794179e+002;2.250002e-002
8.813464e+002;2.248341e-002
8.832750e+002;2.270470e-002
8.852036e+002;2.307157e-002
8.871321e+002;2.300354e-002
8.890606e+002;2.308143e-002
8.909892e+002;2.324341e-002
8.929177e+002;2.333623e-002
8.948463e+002;2.347355e-002
8.967748e+002;2.349706e-002
8.987034e+002;2.346198e-002
9.006319e+002;2.331959e-002
9.025605e+002;2.318948e-002
9.044890e+002;2.331539e-002
9.064175e+002;2.367621e-002
9.083461e+002;2.414110e-002
9.102747e+002;2.440090e-002
9.122032e+002;2.452083e-002
9.141318e+002;2.448903e-002
9.160603e+002;2.429009e-002
9.179888e+002;2.431235e-002
9.199174e+002;2.444966e-002
9.218459e+002;2.456802e-002
9.237745e+002;2.458288e-002
9.257031e+002;2.474785e-002
9.276316e+002;2.470874e-002
9.295601e+002;2.472705e-002
9.314887e+002;2.518348e-002
9.334172e+002;2.565747e-002
9.353458e+002;2.555966e-002
9.372744e+002;2.525719e-002
9.392029e+002;2.551609e-002
9.411314e+002;2.578699e-002
9.430600e+002;2.607671e-002
9.449885e+002;2.636127e-002
9.469171e+002;2.678608e-002
9.488456e+002;2.719046e-002
9.507742e+002;2.749025e-002
9.527027e+002;2.762554e-002
9.546313e+002;2.767840e-002
9.565598e+002;2.745665e-002
9.584883e+002;2.723236e-002
9.604169e+002;2.695242e-002
9.623455e+002;2.645528e-002
9.642740e+002;2.647321e-002
9.662026e+002;2.663791e-002
9.681311e+002;2.616200e-002
9.700596e+002;2.569171e-002
9.719882e+002;2.545927e-002
9.739167e+002;2.537106e-002
9.758453e+002;2.539660e-002
9.777739e+002;2.513219e-002
9.797024e+002;2.474101e-002
9.816309e+002;2.459074e-002
9.835595e+002;2.478683e-002
9.854880e+002;2.502670e-002
9.874166e+002;2.489261e-002
9.893452e+002;2.487503e-002
9.912737e+002;2.455161e-002
9.932022e+002;2.423607e-002
9.951307e+002;2.402244e-002
9.970593e+002;2.363786e-002
9.989879e+002;2.344274e-002
1.000916e+003;2.279143e-002
1.002845e+003;2.179778e-002
1.004773e+003;2.104180e-002
1.006702e+003;2.006467e-002
1.008631e+003;1.882769e-002
1.010559e+003;1.795977e-002
1.012488e+003;1.758431e-002
1.014416e+003;1.742449e-002
1.016345e+003;1.786301e-002
1.018273e+003;1.865032e-002
1.020202e+003;1.944155e-002
1.022130e+003;2.029317e-002
1.024059e+003;2.168231e-002
1.025988e+003;2.290179e-002
1.027916e+003;2.430281e-002
1.029845e+003;2.629198e-002
1.031773e+003;2.876933e-002
1.033702e+003;3.105196e-002
1.035630e+003;3.229626e-002
1.037559e+003;3.260714e-002
1.039487e+003;3.240495e-002
1.041416e+003;3.241852e-002
1.043344e+003;3.269551e-002
1.045273e+003;3.345526e-002
1.047202e+003;3.448228e-002
1.049130e+003;3.507587e-002
1.051059e+003;3.558718e-002
1.052987e+003;3.604949e-002
1.054916e+003;3.640263e-002
1.056844e+003;3.710606e-002
1.058773e+003;3.841084e-002
1.060701e+003;3.984237e-002
1.062630e+003;4.118915e-002
1.064558e+003;4.190520e-002
1.066487e+003;4.219667e-002
1.068416e+003;4.264728e-002
1.070344e+003;4.260616e-002
1.072273e+003;4.156841e-002
1.074201e+003;4.021133e-002
1.076130e+003;3.906079e-002
1.078058e+003;3.763743e-002
1.079987e+003;3.652562e-002
1.081915e+003;3.497210e-002
1.083844e+003;3.292679e-002
1.085773e+003;3.122582e-002
1.087701e+003;3.018742e-002
1.089630e+003;2.923301e-002
1.091558e+003;2.758910e-002
1.093487e+003;2.646451e-002
1.095415e+003;2.633134e-002
1.097344e+003;2.642771e-002
1.099272e+003;2.647331e-002
1.101201e+003;2.635673e-002
1.103129e+003;2.659761e-002
1.105058e+003;2.702166e-002
1.106987e+003;2.753304e-002
1.108915e+003;2.811016e-002
1.110844e+003;2.857356e-002
1.112772e+003;2.891504e-002
1.114701e+003;2.897440e-002
1.116629e+003;2.857766e-002
1.118558e+003;2.829830e-002
1.120486e+003;2.811992e-002
1.122415e+003;2.735413e-002
1.124344e+003;2.627452e-002
1.126272e+003;2.514335e-002
1.128201e+003;2.471976e-002
1.130129e+003;2.440140e-002
1.132058e+003;2.346932e-002
1.133986e+003;2.269503e-002
1.135915e+003;2.300344e-002
1.137843e+003;2.353252e-002
1.139772e+003;2.403515e-002
1.141700e+003;2.526618e-002
1.143629e+003;2.766166e-002
1.145557e+003;3.030554e-002
1.147486e+003;3.269783e-002
1.149415e+003;3.567544e-002
1.151343e+003;3.940366e-002
1.153272e+003;4.276796e-002
1.155200e+003;4.579821e-002
1.157129e+003;4.919435e-002
1.159057e+003;5.307350e-002
1.160986e+003;5.746353e-002
1.162914e+003;6.084053e-002
1.164843e+003;6.323183e-002
1.166771e+003;6.458259e-002
1.168700e+003;6.474467e-002
1.170629e+003;6.433080e-002
1.172557e+003;6.330060e-002
1.174486e+003;6.141530e-002
1.176414e+003;5.974184e-002
1.178343e+003;5.850331e-002
1.180271e+003;5.676949e-002
1.182200e+003;5.469894e-002
1.184128e+003;5.334684e-002
1.186057e+003;5.292833e-002
1.187986e+003;5.303999e-002
1.189914e+003;5.353750e-002
1.191843e+003;5.453226e-002
1.193771e+003;5.570224e-002
1.195700e+003;5.644706e-002
1.197628e+003;5.717134e-002
1.199557e+003;5.750388e-002
1.201485e+003;5.725405e-002
1.203414e+003;5.701591e-002
1.205343e+003;5.715796e-002
1.207271e+003;5.717236e-002
1.209200e+003;5.708468e-002
1.211128e+003;5.717153e-002
1.213057e+003;5.688890e-002
1.214985e+003;5.676039e-002
1.216914e+003;5.737050e-002
1.218842e+003;5.783293e-002
1.220771e+003;5.820227e-002
1.222699e+003;5.856773e-002
1.224628e+003;5.841506e-002
1.226557e+003;5.814174e-002
1.228485e+003;5.797794e-002
1.230414e+003;5.776367e-002
1.232342e+003;5.713596e-002
1.234271e+003;5.663444e-002
1.236199e+003;5.613089e-002
1.238128e+003;5.543635e-002
1.240056e+003;5.477414e-002
1.241985e+003;5.439460e-002
1.243913e+003;5.380009e-002
1.245842e+003;5.338063e-002
1.247771e+003;5.262646e-002
1.249699e+003;5.105180e-002
1.251628e+003;4.945289e-002
1.253556e+003;4.697555e-002
1.255485e+003;4.352064e-002
1.257413e+003;4.006044e-002
1.259342e+003;3.732586e-002
1.261270e+003;3.672303e-002
1.263199e+003;3.836701e-002
1.265127e+003;4.120496e-002
1.267056e+003;4.389542e-002
1.268985e+003;4.574862e-002
1.270913e+003;4.702399e-002
1.272842e+003;4.740420e-002
1.274770e+003;4.672494e-002
1.276699e+003;4.590165e-002
1.278627e+003;4.493680e-002
1.280556e+003;4.368743e-002
1.282484e+003;4.251816e-002
1.284413e+003;4.117243e-002
1.286342e+003;4.001971e-002
1.288270e+003;3.961323e-002
1.290199e+003;3.904561e-002
1.292127e+003;3.807903e-002
1.294056e+003;3.725585e-002
1.295984e+003;3.664176e-002
1.297913e+003;3.626591e-002
1.299841e+003;3.602252e-002
1.301770e+003;3.562800e-002
1.303698e+003;3.522187e-002
1.305627e+003;3.482550e-002
1.307556e+003;3.441093e-002
1.309484e+003;3.420332e-002
1.311413e+003;3.415238e-002
1.313341e+003;3.388173e-002
1.315270e+003;3.350157e-002
1.317198e+003;3.326369e-002
1.319127e+003;3.325979e-002
1.321055e+003;3.378337e-002
1.322984e+003;3.435137e-002
1.324912e+003;3.432401e-002
1.326841e+003;3.438544e-002
1.328770e+003;3.455195e-002
1.330698e+003;3.457025e-002
1.332627e+003;3.443802e-002
1.334555e+003;3.416808e-002
1.336484e+003;3.405697e-002
1.338412e+003;3.424240e-002
1.340341e+003;3.478346e-002
1.342269e+003;3.560570e-002
1.344198e+003;3.648846e-002
1.346126e+003;3.720885e-002
1.348055e+003;3.769767e-002
1.349984e+003;3.801657e-002
1.351912e+003;3.870990e-002
1.353841e+003;3.955541e-002
1.355769e+003;3.966104e-002
1.357698e+003;3.956822e-002
1.359626e+003;3.930234e-002
1.361555e+003;3.871041e-002
1.363483e+003;3.859618e-002
1.365412e+003;3.870643e-002
1.367341e+003;3.787815e-002
1.369269e+003;3.698618e-002
1.371198e+003;3.615553e-002
1.373126e+003;3.502547e-002
1.375055e+003;3.443917e-002
1.376983e+003;3.404715e-002
1.378912e+003;3.309178e-002
1.380840e+003;3.199345e-002
1.382769e+003;3.108556e-002
1.384698e+003;2.983369e-002
1.386626e+003;2.759592e-002
1.388555e+003;2.593051e-002
1.390483e+003;2.450473e-002
1.392412e+003;2.228759e-002
1.394340e+003;1.964468e-002
1.396269e+003;1.787544e-002
1.398197e+003;1.654205e-002
1.400126e+003;1.595214e-002
1.402054e+003;1.590601e-002
1.403983e+003;1.536739e-002
1.405911e+003;1.502727e-002
1.407840e+003;1.508332e-002
1.409769e+003;1.535002e-002
1.411697e+003;1.568892e-002
1.413626e+003;1.598067e-002
1.415554e+003;1.610231e-002
1.417483e+003;1.571530e-002
1.419411e+003;1.631717e-002
1.421340e+003;1.920231e-002
1.423268e+003;2.207237e-002
1.425197e+003;2.535195e-002
1.427125e+003;2.977155e-002
1.429054e+003;3.473432e-002
1.430983e+003;4.013355e-002
1.432911e+003;4.553209e-002
1.434840e+003;4.946626e-002
1.436768e+003;5.292043e-002
1.438697e+003;5.839463e-002
1.440625e+003;6.341592e-002
1.442554e+003;6.793508e-002
1.444482e+003;7.253390e-002
1.446411e+003;7.628381e-002
1.448340e+003;7.912521e-002
1.450268e+003;8.106533e-002
1.452197e+003;8.106533e-002
1.454125e+003;7.784732e-002
1.456054e+003;7.078464e-002
1.457982e+003;6.460789e-002
1.459911e+003;5.959491e-002
1.461839e+003;5.256408e-002
1.463768e+003;4.425525e-002
1.465697e+003;3.765160e-002
1.467625e+003;3.300239e-002
1.469554e+003;2.836963e-002
1.471482e+003;2.330008e-002
1.473411e+003;2.008383e-002
1.475339e+003;1.902555e-002
1.477268e+003;1.815879e-002
1.479196e+003;1.721136e-002
1.481125e+003;1.645849e-002
1.483053e+003;1.619303e-002
1.484982e+003;1.546177e-002
1.486911e+003;1.418176e-002
1.488839e+003;1.278859e-002
1.490768e+003;1.230454e-002
1.492696e+003;1.263792e-002
1.494625e+003;1.131763e-002
1.496553e+003;1.001565e-002
1.498482e+003;1.066363e-002
1.500410e+003;1.126734e-002
1.502339e+003;1.083430e-002
1.504267e+003;8.045722e-003
1.506196e+003;5.233283e-003
1.508125e+003;6.571507e-003
1.510053e+003;8.814769e-003
1.511982e+003;9.655033e-003
1.513910e+003;1.010416e-002
1.515839e+003;9.835917e-003
1.517767e+003;9.725135e-003
1.519696e+003;8.540223e-003
1.521624e+003;7.599627e-003
1.523553e+003;9.150971e-003
1.525481e+003;9.994294e-003
1.527410e+003;1.093755e-002
1.529339e+003;1.194518e-002
1.531267e+003;1.201415e-002
1.533196e+003;1.188449e-002
1.535124e+003;1.321925e-002
1.537053e+003;1.294450e-002
1.538981e+003;1.055939e-002
1.540910e+003;1.134753e-002
1.542838e+003;1.396638e-002
1.544767e+003;1.517273e-002
1.546695e+003;1.561091e-002
1.548624e+003;1.537958e-002
1.550553e+003;1.541041e-002
1.552481e+003;1.529809e-002
1.554410e+003;1.415085e-002
1.556338e+003;1.220617e-002
1.558267e+003;8.884227e-003
1.560195e+003;9.740247e-003
1.562124e+003;1.315620e-002
1.564052e+003;1.361389e-002
1.565981e+003;1.305949e-002
1.567910e+003;1.211237e-002
1.569838e+003;1.148033e-002
1.571767e+003;1.257131e-002
1.573695e+003;1.232679e-002
1.575624e+003;1.076171e-002
1.577552e+003;1.221381e-002
1.579481e+003;1.402065e-002
1.581409e+003;1.364014e-002
1.583338e+003;1.261391e-002
1.585266e+003;1.164959e-002
1.587195e+003;1.089103e-002
1.589124e+003;1.048725e-002
1.591052e+003;1.046465e-002
1.592981e+003;1.024404e-002
1.594909e+003;1.040868e-002
1.596838e+003;1.116231e-002
1.598766e+003;1.185510e-002
1.600695e+003;1.194855e-002
1.602623e+003;1.196854e-002
1.604552e+003;1.232898e-002
1.606480e+003;1.257131e-002
1.608409e+003;1.256244e-002
1.610338e+003;1.236934e-002
1.612266e+003;1.216712e-002
1.614195e+003;1.122779e-002
1.616123e+003;9.304054e-003
1.618052e+003;9.894318e-003
1.619980e+003;1.135790e-002
1.621909e+003;1.104538e-002
1.623837e+003;1.064030e-002
1.625766e+003;1.100932e-002
1.627694e+003;1.123680e-002
1.629623e+003;1.174050e-002
1.631552e+003;1.188309e-002
1.633480e+003;1.049547e-002
1.635409e+003;9.047062e-003
1.637337e+003;1.076232e-002
1.639266e+003;1.263598e-002
1.641194e+003;1.291286e-002
1.643123e+003;1.242396e-002
1.645051e+003;1.099562e-002
1.646980e+003;1.092572e-002
1.648909e+003;1.254003e-002
1.650837e+003;1.079401e-002
1.652766e+003;7.742079e-003
1.654694e+003;1.144315e-002
1.656623e+003;1.569335e-002
1.658551e+003;1.692287e-002
1.660480e+003;1.709330e-002
1.662408e+003;1.716792e-002
1.664337e+003;1.822036e-002
1.666266e+003;1.865312e-002
1.668194e+003;1.749589e-002
1.670123e+003;1.712728e-002
1.672051e+003;1.767047e-002
1.673980e+003;1.670630e-002
1.675908e+003;1.598109e-002
1.677837e+003;1.643251e-002
1.679765e+003;1.579855e-002
1.681694e+003;1.376694e-002
1.683622e+003;1.012054e-002
1.685551e+003;1.010569e-002
1.687479e+003;1.228190e-002
1.689408e+003;1.253284e-002
1.691337e+003;1.255688e-002
1.693265e+003;1.158908e-002
1.695194e+003;9.215373e-003
1.697122e+003;9.454753e-003
1.699051e+003;9.080049e-003
1.700979e+003;9.676039e-003
1.702908e+003;1.314998e-002
1.704836e+003;1.505389e-002
1.706765e+003;1.787348e-002
1.708693e+003;2.171644e-002
1.710622e+003;2.600423e-002
1.712551e+003;3.032490e-002
1.714479e+003;3.462856e-002
1.716408e+003;3.917363e-002
1.718336e+003;4.630750e-002
1.720265e+003;5.514402e-002
1.722193e+003;6.218906e-002
1.724122e+003;6.788409e-002
1.726050e+003;7.241401e-002
1.727979e+003;7.496426e-002
1.729908e+003;7.590725e-002
1.731836e+003;7.427560e-002
1.733765e+003;7.079919e-002
1.735693e+003;6.940823e-002
1.737622e+003;6.646709e-002
1.739550e+003;6.053955e-002
1.741479e+003;5.470841e-002
1.743407e+003;4.841571e-002
1.745336e+003;4.168788e-002
1.747265e+003;3.465701e-002
1.749193e+003;2.753466e-002
1.751122e+003;2.130853e-002
1.753050e+003;1.718295e-002
1.754979e+003;1.335477e-002
1.756907e+003;9.755361e-003
1.758836e+003;7.093699e-003
1.760764e+003;4.451766e-003
1.762693e+003;2.870957e-003
1.764621e+003;2.165431e-003
1.766550e+003;6.567159e-004
1.768479e+003;-2.136620e-004
1.770407e+003;-1.243396e-003
1.772336e+003;-2.433228e-003
1.774264e+003;-1.748636e-003
1.776193e+003;-1.161814e-003
1.778121e+003;-1.329190e-003
1.780050e+003;-1.732861e-003
1.781978e+003;-1.783715e-003
1.783907e+003;-1.856865e-003
1.785835e+003;-2.101141e-003
1.787764e+003;-2.236412e-003
1.789693e+003;-2.788075e-003
1.791621e+003;-3.884736e-003
1.793550e+003;-3.808018e-003
1.795478e+003;-2.886368e-003
1.797407e+003;-3.003890e-003
1.799335e+003;-3.593456e-003
1.801264e+003;-3.683190e-003
1.803192e+003;-3.233511e-003
1.805121e+003;-3.032945e-003
1.807049e+003;-3.121841e-003
1.808978e+003;-3.430171e-003
1.810907e+003;-3.670245e-003
1.812835e+003;-3.587573e-003
1.814764e+003;-3.111248e-003
1.816692e+003;-3.012544e-003
1.818621e+003;-3.297343e-003
1.820549e+003;-3.533118e-003
1.822478e+003;-3.706548e-003
1.824406e+003;-4.135422e-003
1.826335e+003;-4.346962e-003
1.828264e+003;-4.723160e-003
1.830192e+003;-4.865350e-003
1.832121e+003;-4.270620e-003
1.834049e+003;-3.882996e-003
1.835978e+003;-4.049754e-003
1.837906e+003;-4.130499e-003
1.839835e+003;-3.973852e-003
1.841763e+003;-4.460449e-003
1.843692e+003;-5.423076e-003
1.845620e+003;-4.932218e-003
1.847549e+003;-4.360313e-003
1.849478e+003;-4.455759e-003
1.851406e+003;-4.555906e-003
1.853335e+003;-4.425356e-003
1.855263e+003;-4.319570e-003
1.857192e+003;-4.420633e-003
1.859120e+003;-4.525740e-003
1.861049e+003;-4.378682e-003
1.862977e+003;-4.334398e-003
1.864906e+003;-4.673993e-003
1.866834e+003;-5.235043e-003
1.868763e+003;-5.621299e-003
1.870692e+003;-5.131909e-003
1.872620e+003;-4.689629e-003
1.874549e+003;-4.859616e-003
1.876477e+003;-4.895362e-003
1.878406e+003;-4.798832e-003
1.880334e+003;-4.959440e-003
1.882263e+003;-5.229772e-003
1.884191e+003;-5.027604e-003
1.886120e+003;-4.936673e-003
1.888048e+003;-5.224698e-003
1.889977e+003;-5.203941e-003
1.891906e+003;-4.950694e-003
1.893834e+003;-5.101619e-003
1.895763e+003;-5.189307e-003
1.897691e+003;-4.982534e-003
1.899620e+003;-5.033991e-003
1.901548e+003;-5.347284e-003
1.903477e+003;-5.420655e-003
1.905405e+003;-5.271085e-003
1.907334e+003;-5.134561e-003
1.909262e+003;-5.362993e-003
1.911191e+003;-5.646450e-003
1.913120e+003;-5.462178e-003
1.915048e+003;-5.268990e-003
1.916977e+003;-5.919264e-003
1.918905e+003;-6.103538e-003
1.920834e+003;-5.687953e-003
1.922762e+003;-5.527319e-003
1.924691e+003;-5.363910e-003
1.926619e+003;-5.407827e-003
1.928548e+003;-5.544854e-003
1.930477e+003;-5.717286e-003
1.932405e+003;-5.802496e-003
1.934334e+003;-5.855097e-003
1.936262e+003;-5.897560e-003
1.938191e+003;-6.066160e-003
1.940119e+003;-6.331755e-003
1.942048e+003;-6.364115e-003
1.943976e+003;-6.145487e-003
1.945905e+003;-5.980643e-003
1.947833e+003;-5.915472e-003
1.949762e+003;-5.767642e-003
1.951691e+003;-5.869154e-003
1.953619e+003;-5.920081e-003
1.955548e+003;-5.910276e-003
1.957476e+003;-5.755185e-003
1.959405e+003;-5.785265e-003
1.961333e+003;-5.901744e-003
1.963262e+003;-5.925016e-003
1.965190e+003;-5.938352e-003
1.967119e+003;-5.934005e-003
1.969047e+003;-5.712773e-003
1.970976e+003;-5.587575e-003
1.972905e+003;-5.690896e-003
1.974833e+003;-5.684061e-003
1.976762e+003;-5.770258e-003
1.978690e+003;-5.690667e-003
1.980619e+003;-5.353535e-003
1.982547e+003;-5.215498e-003
1.984476e+003;-5.099196e-003
1.986404e+003;-5.056786e-003
1.988333e+003;-5.220965e-003
1.990261e+003;-5.485180e-003
1.992190e+003;-5.527352e-003
1.994119e+003;-5.488256e-003
1.996047e+003;-5.595295e-003
1.997976e+003;-5.687593e-003
1.999904e+003;-5.428083e-003
2.001833e+003;-5.151424e-003
2.003761e+003;-5.074078e-003
2.005690e+003;-5.117272e-003
2.007618e+003;-5.100112e-003
2.009547e+003;-5.076927e-003
2.011476e+003;-5.056262e-003
2.013404e+003;-5.021839e-003
2.015333e+003;-5.090550e-003
2.017261e+003;-5.098704e-003
2.019190e+003;-4.902831e-003
2.021118e+003;-4.816200e-003
2.023047e+003;-5.079350e-003
2.024975e+003;-5.210686e-003
2.026904e+003;-5.043325e-003
2.028833e+003;-4.986268e-003
2.030761e+003;-5.022036e-003
2.032690e+003;-5.074241e-003
2.034618e+003;-5.174868e-003
2.036547e+003;-5.370520e-003
2.038475e+003;-5.403148e-003
2.040404e+003;-5.330559e-003
2.042332e+003;-5.105483e-003
2.044261e+003;-4.930056e-003
2.046189e+003;-4.911841e-003
2.048118e+003;-4.969464e-003
2.050047e+003;-4.971364e-003
2.051975e+003;-4.964288e-003
2.053904e+003;-4.878259e-003
2.055832e+003;-4.789460e-003
2.057761e+003;-5.001303e-003
2.059689e+003;-5.167206e-003
2.061618e+003;-5.061142e-003
2.063546e+003;-4.978898e-003
2.065475e+003;-5.123755e-003
2.067404e+003;-5.188684e-003
2.069332e+003;-5.224632e-003
2.071260e+003;-5.268106e-003
2.073189e+003;-5.218707e-003
2.075118e+003;-5.141470e-003
2.077046e+003;-5.153225e-003
2.078975e+003;-5.306011e-003
2.080903e+003;-5.455896e-003
2.082832e+003;-5.494799e-003
2.084760e+003;-5.403148e-003
2.086689e+003;-5.159152e-003
2.088617e+003;-5.160658e-003
2.090546e+003;-5.362240e-003
2.092475e+003;-5.230001e-003
2.094403e+003;-5.150376e-003
2.096332e+003;-5.181776e-003
2.098260e+003;-5.276289e-003
2.100189e+003;-5.377458e-003
2.102117e+003;-5.338087e-003
2.104046e+003;-5.188259e-003
2.105974e+003;-5.019481e-003
2.107903e+003;-4.979488e-003
2.109832e+003;-5.186426e-003
2.111760e+003;-5.413095e-003
2.113688e+003;-5.549074e-003
2.115617e+003;-5.656426e-003
2.117546e+003;-5.571580e-003
2.119474e+003;-5.520350e-003
2.121403e+003;-5.659893e-003
2.123331e+003;-5.840092e-003
2.125260e+003;-5.784513e-003
2.127188e+003;-5.788143e-003
2.129117e+003;-5.620645e-003
2.131045e+003;-5.266076e-003
2.132974e+003;-5.335337e-003
2.134903e+003;-5.548125e-003
2.136831e+003;-5.626303e-003
2.138760e+003;-5.417251e-003
2.140688e+003;-5.370815e-003
2.142617e+003;-5.641185e-003
2.144545e+003;-5.789614e-003
2.146474e+003;-5.748907e-003
2.148402e+003;-5.543251e-003
2.150331e+003;-5.465908e-003
2.152260e+003;-5.373465e-003
2.154188e+003;-5.287059e-003
2.156117e+003;-5.405635e-003
2.158045e+003;-5.423894e-003
2.159974e+003;-5.485082e-003
2.161902e+003;-5.501997e-003
2.163831e+003;-5.224534e-003
2.165759e+003;-5.211766e-003
2.167688e+003;-5.366168e-003
2.169616e+003;-5.333243e-003
2.171545e+003;-5.331344e-003
2.173474e+003;-5.327744e-003
2.175402e+003;-5.293900e-003
2.177331e+003;-5.119859e-003
2.179259e+003;-4.895263e-003
2.181188e+003;-4.850802e-003
2.183116e+003;-4.799815e-003
2.185045e+003;-4.368218e-003
2.186973e+003;-3.889432e-003
2.188902e+003;-3.543931e-003
2.190831e+003;-3.193780e-003
2.192759e+003;-3.135756e-003
2.194688e+003;-3.310233e-003
2.196616e+003;-3.511624e-003
2.198545e+003;-3.690582e-003
2.200473e+003;-3.540973e-003
2.202402e+003;-3.387335e-003
2.204330e+003;-3.526282e-003
2.206259e+003;-3.373264e-003
2.208188e+003;-3.256072e-003
2.210116e+003;-3.287938e-003
2.212044e+003;-3.198155e-003
2.213973e+003;-2.936495e-003
2.215902e+003;-2.708923e-003
2.217830e+003;-2.608744e-003
2.219759e+003;-2.199590e-003
2.221687e+003;-1.571550e-003
2.223616e+003;-7.138491e-004
2.225544e+003;5.107301e-004
2.227473e+003;2.731861e-003
2.229401e+003;6.535447e-003
2.231330e+003;1.281016e-002
2.233259e+003;2.205274e-002
2.235187e+003;3.351045e-002
2.237116e+003;4.488378e-002
2.239044e+003;5.400048e-002
2.240973e+003;5.899572e-002
2.242901e+003;5.944781e-002
2.244830e+003;5.674593e-002
2.246758e+003;5.189907e-002
2.248687e+003;4.559973e-002
2.250615e+003;3.851612e-002
2.252544e+003;3.142446e-002
2.254473e+003;2.482479e-002
2.256401e+003;1.887679e-002
2.258330e+003;1.360999e-002
2.260258e+003;9.564925e-003
2.262187e+003;6.742663e-003
2.264115e+003;4.582909e-003
2.266044e+003;2.951281e-003
2.267972e+003;1.815825e-003
2.269901e+003;1.056006e-003
2.271830e+003;4.236264e-004
2.273758e+003;-2.317108e-004
2.275687e+003;-6.500339e-004
2.277615e+003;-1.010439e-003
2.279544e+003;-1.154114e-003
2.281472e+003;-1.182467e-003
2.283401e+003;-1.575908e-003
2.285329e+003;-1.882533e-003
2.287258e+003;-1.838059e-003
2.289187e+003;-1.788301e-003
2.291115e+003;-1.710122e-003
2.293043e+003;-1.950621e-003
2.294972e+003;-2.046466e-003
2.296901e+003;-1.723489e-003
2.298829e+003;-1.518823e-003
2.300758e+003;-1.811201e-003
2.302686e+003;-2.238126e-003
2.304615e+003;-2.293996e-003
2.306543e+003;-2.198601e-003
2.308472e+003;-2.323197e-003
2.310400e+003;-2.598501e-003
2.312329e+003;-2.742574e-003
2.314258e+003;-2.747019e-003
2.316186e+003;-2.729469e-003
2.318115e+003;-2.832287e-003
2.320043e+003;-2.819283e-003
2.321972e+003;-2.911251e-003
2.323900e+003;-3.079106e-003
2.325829e+003;-3.035314e-003
2.327757e+003;-3.260840e-003
2.329686e+003;-3.580902e-003
2.331615e+003;-3.626907e-003
2.333543e+003;-3.631737e-003
2.335472e+003;-3.617411e-003
2.337400e+003;-3.659731e-003
2.339329e+003;-3.875968e-003
2.341257e+003;-3.941019e-003
2.343186e+003;-3.606928e-003
2.345114e+003;-3.109801e-003
2.347043e+003;-2.738557e-003
2.348971e+003;-2.578607e-003
2.350900e+003;-2.836731e-003
2.352829e+003;-3.305300e-003
2.354757e+003;-3.707665e-003
2.356686e+003;-4.041875e-003
2.358614e+003;-4.199515e-003
2.360543e+003;-4.020078e-003
2.362471e+003;-3.870090e-003
2.364400e+003;-3.782201e-003
2.366328e+003;-3.514779e-003
2.368257e+003;-3.250942e-003
2.370186e+003;-3.269193e-003
2.372114e+003;-3.184538e-003
2.374042e+003;-2.785638e-003
2.375971e+003;-2.419224e-003
2.377900e+003;-2.338654e-003
2.379828e+003;-2.374179e-003
2.381757e+003;-2.314563e-003
2.383685e+003;-2.179513e-003
2.385614e+003;-2.008968e-003
2.387542e+003;-2.145554e-003
2.389471e+003;-2.245016e-003
2.391399e+003;-2.165040e-003
2.393328e+003;-2.163688e-003
2.395257e+003;-2.240302e-003
2.397185e+003;-2.420971e-003
2.399114e+003;-2.627583e-003
2.401042e+003;-2.487458e-003
2.402971e+003;-2.354011e-003
2.404899e+003;-2.306817e-003
2.406828e+003;-2.227314e-003
2.408756e+003;-2.254872e-003
2.410685e+003;-2.157457e-003
2.412614e+003;-1.936766e-003
2.414542e+003;-1.927365e-003
2.416471e+003;-2.235094e-003
2.418399e+003;-2.557790e-003
2.420328e+003;-2.588027e-003
2.422256e+003;-2.366040e-003
2.424185e+003;-2.029416e-003
2.426113e+003;-1.714776e-003
2.428042e+003;-1.817536e-003
2.429970e+003;-2.168534e-003
2.431899e+003;-2.420839e-003
2.433828e+003;-2.304972e-003
2.435756e+003;-1.935282e-003
2.437685e+003;-1.914896e-003
2.439613e+003;-2.199227e-003
2.441542e+003;-2.123562e-003
2.443470e+003;-1.886393e-003
2.445399e+003;-2.030603e-003
2.447327e+003;-2.128871e-003
2.449256e+003;-2.117726e-003
2.451185e+003;-2.094150e-003
2.453113e+003;-1.963815e-003
2.455042e+003;-1.899853e-003
2.456970e+003;-2.088841e-003
2.458899e+003;-2.100415e-003
2.460827e+003;-2.092139e-003
2.462756e+003;-1.900018e-003
2.464684e+003;-1.902525e-003
2.466613e+003;-2.077662e-003
2.468542e+003;-2.087225e-003
2.470470e+003;-1.912290e-003
2.472398e+003;-1.605587e-003
2.474327e+003;-1.595683e-003
2.476256e+003;-1.668568e-003
2.478184e+003;-1.508026e-003
2.480113e+003;-1.334442e-003
2.482041e+003;-1.355285e-003
2.483970e+003;-1.404366e-003
2.485898e+003;-1.368960e-003
2.487827e+003;-1.375368e-003
2.489755e+003;-1.462589e-003
2.491684e+003;-1.387225e-003
2.493613e+003;-1.080580e-003
2.495541e+003;-6.752104e-004
2.497470e+003;-6.381233e-004
2.499398e+003;-6.706119e-004
2.501327e+003;-6.140365e-004
2.503255e+003;-9.847198e-004
2.505184e+003;-9.075533e-004
2.507112e+003;-4.385395e-004
2.509041e+003;-4.651846e-004
2.510969e+003;-6.011653e-004
2.512898e+003;-6.441779e-004
2.514827e+003;-5.086740e-004
2.516755e+003;-5.586118e-004
2.518684e+003;-8.148625e-004
2.520612e+003;-7.448767e-004
2.522541e+003;-5.999742e-004
2.524469e+003;-7.199689e-004
2.526398e+003;-8.415178e-004
2.528326e+003;-7.829139e-004
2.530255e+003;-8.233289e-004
2.532184e+003;-8.664186e-004
2.534112e+003;-7.135184e-004
2.536041e+003;-7.109051e-004
2.537969e+003;-7.579420e-004
2.539898e+003;-7.980948e-004
2.541826e+003;-8.245526e-004
2.543755e+003;-8.828531e-004
2.545683e+003;-1.053477e-003
2.547612e+003;-9.980093e-004
2.549541e+003;-7.456375e-004
2.551469e+003;-5.477246e-004
2.553397e+003;-5.973602e-004
2.555326e+003;-1.137591e-003
2.557255e+003;-1.538270e-003
2.559183e+003;-1.511427e-003
2.561112e+003;-1.443634e-003
2.563040e+003;-1.223472e-003
2.564969e+003;-1.078829e-003
2.566897e+003;-1.312673e-003
2.568826e+003;-1.630741e-003
2.570754e+003;-1.726360e-003
2.572683e+003;-1.576965e-003
2.574612e+003;-1.293051e-003
2.576540e+003;-1.200343e-003
2.578469e+003;-1.447134e-003
2.580397e+003;-1.701970e-003
2.582326e+003;-1.817734e-003
2.584254e+003;-1.739990e-003
2.586183e+003;-1.595617e-003
2.588111e+003;-1.636782e-003
2.590040e+003;-1.851620e-003
2.591969e+003;-2.105691e-003
2.593897e+003;-2.112648e-003
2.595826e+003;-2.012266e-003
2.597754e+003;-1.967674e-003
2.599683e+003;-2.219633e-003
2.601611e+003;-2.363469e-003
2.603540e+003;-2.239709e-003
2.605468e+003;-2.225501e-003
2.607397e+003;-2.092996e-003
2.609325e+003;-1.991653e-003
2.611254e+003;-1.886657e-003
2.613183e+003;-1.731376e-003
2.615111e+003;-1.628397e-003
2.617040e+003;-1.766489e-003
2.618968e+003;-1.835981e-003
2.620897e+003;-1.813346e-003
2.622825e+003;-2.081092e-003
2.624754e+003;-2.301775e-003
2.626682e+003;-2.221809e-003
2.628611e+003;-2.153698e-003
2.630540e+003;-2.009991e-003
2.632468e+003;-1.576370e-003
2.634396e+003;-1.532030e-003
2.636325e+003;-1.763915e-003
2.638254e+003;-1.928421e-003
2.640182e+003;-2.019720e-003
2.642111e+003;-2.230281e-003
2.644039e+003;-2.385911e-003
2.645968e+003;-2.141070e-003
2.647896e+003;-2.090490e-003
2.649825e+003;-2.169886e-003
2.651753e+003;-2.371082e-003
2.653682e+003;-2.458829e-003
2.655611e+003;-2.409603e-003
2.657539e+003;-2.270001e-003
2.659468e+003;-2.316145e-003
2.661396e+003;-2.554199e-003
2.663325e+003;-2.464133e-003
2.665253e+003;-2.080630e-003
2.667182e+003;-1.982879e-003
2.669110e+003;-2.187953e-003
2.671039e+003;-2.429537e-003
2.672968e+003;-2.442981e-003
2.674896e+003;-2.247093e-003
2.676825e+003;-2.355692e-003
2.678753e+003;-2.591815e-003
2.680682e+003;-2.646520e-003
2.682610e+003;-2.646322e-003
2.684539e+003;-2.621885e-003
2.686467e+003;-2.600115e-003
2.688396e+003;-2.503403e-003
2.690324e+003;-2.416457e-003
2.692253e+003;-2.654259e-003
2.694182e+003;-2.848153e-003
2.696110e+003;-2.613586e-003
2.698039e+003;-2.390392e-003
2.699967e+003;-2.513023e-003
2.701896e+003;-2.712216e-003
2.703824e+003;-2.704938e-003
2.705753e+003;-2.742080e-003
2.707681e+003;-2.989609e-003
2.709610e+003;-3.030346e-003
2.711539e+003;-3.134835e-003
2.713467e+003;-3.119670e-003
2.715396e+003;-3.044001e-003
2.717324e+003;-3.008695e-003
2.719253e+003;-3.137138e-003
2.721181e+003;-3.189636e-003
2.723110e+003;-3.027746e-003
2.725038e+003;-3.161447e-003
2.726967e+003;-3.065453e-003
2.728896e+003;-2.679418e-003
2.730824e+003;-2.670198e-003
2.732752e+003;-2.774840e-003
2.734681e+003;-2.684654e-003
2.736610e+003;-2.812963e-003
2.738538e+003;-3.237984e-003
2.740467e+003;-3.078547e-003
2.742395e+003;-2.885052e-003
2.744324e+003;-3.113091e-003
2.746252e+003;-3.084140e-003
2.748181e+003;-2.912996e-003
2.750109e+003;-2.779416e-003
2.752038e+003;-2.862077e-003
2.753967e+003;-3.230387e-003
2.755895e+003;-3.428758e-003
2.757824e+003;-3.336472e-003
2.759752e+003;-3.202365e-003
2.761681e+003;-3.184637e-003
2.763609e+003;-3.440658e-003
2.765538e+003;-3.351992e-003
2.767466e+003;-2.936692e-003
2.769395e+003;-2.792552e-003
2.771323e+003;-2.850161e-003
2.773252e+003;-3.018040e-003
2.775181e+003;-3.102037e-003
2.777109e+003;-2.769967e-003
2.779038e+003;-2.472732e-003
2.780966e+003;-2.312948e-003
2.782895e+003;-1.975062e-003
2.784823e+003;-1.885106e-003
2.786752e+003;-2.204502e-003
2.788680e+003;-2.291228e-003
2.790609e+003;-2.139224e-003
2.792538e+003;-2.054117e-003
2.794466e+003;-1.607171e-003
2.796395e+003;-1.453078e-003
2.798323e+003;-1.612222e-003
2.800252e+003;-1.450338e-003
2.802180e+003;-1.320701e-003
2.804109e+003;-1.113895e-003
2.806037e+003;-8.989563e-004
2.807966e+003;-9.377074e-004
2.809895e+003;-7.859237e-004
2.811823e+003;-6.492399e-004
2.813751e+003;-6.064925e-004
2.815680e+003;-4.273182e-004
2.817609e+003;-2.962829e-004
2.819537e+003;-1.360271e-004
2.821466e+003;2.279682e-005
2.823394e+003;-1.917706e-004
2.825323e+003;-2.058461e-004
2.827251e+003;2.062421e-004
2.829180e+003;4.756676e-004
2.831108e+003;6.310653e-004
2.833037e+003;1.169814e-003
2.834966e+003;1.738107e-003
2.836894e+003;2.419648e-003
2.838823e+003;3.420809e-003
2.840751e+003;4.687698e-003
2.842680e+003;6.090732e-003
2.844608e+003;8.013623e-003
2.846537e+003;1.077040e-002
2.848465e+003;1.379605e-002
2.850394e+003;1.594774e-002
2.852323e+003;1.669546e-002
2.854251e+003;1.649208e-002
2.856180e+003;1.586666e-002
2.858108e+003;1.500919e-002
2.860037e+003;1.492634e-002
2.861965e+003;1.495405e-002
2.863894e+003;1.463985e-002
2.865822e+003;1.457124e-002
2.867751e+003;1.475388e-002
2.869679e+003;1.487696e-002
2.871608e+003;1.457004e-002
2.873536e+003;1.434211e-002
2.875465e+003;1.434468e-002
2.877394e+003;1.409670e-002
2.879322e+003;1.366240e-002
2.881251e+003;1.318670e-002
2.883179e+003;1.291303e-002
2.885108e+003;1.292747e-002
2.887036e+003;1.334674e-002
2.888965e+003;1.388923e-002
2.890893e+003;1.463902e-002
2.892822e+003;1.546500e-002
2.894750e+003;1.622006e-002
2.896679e+003;1.711729e-002
2.898608e+003;1.792751e-002
2.900536e+003;1.900284e-002
2.902465e+003;2.041137e-002
2.904393e+003;2.214608e-002
2.906322e+003;2.427373e-002
2.908250e+003;2.655868e-002
2.910179e+003;2.902573e-002
2.912107e+003;3.194316e-002
2.914036e+003;3.550710e-002
2.915965e+003;3.876022e-002
2.917893e+003;4.093916e-002
2.919822e+003;4.220857e-002
2.921750e+003;4.300385e-002
2.923679e+003;4.341967e-002
2.925607e+003;4.338309e-002
2.927536e+003;4.297024e-002
2.929464e+003;4.213044e-002
2.931393e+003;4.111692e-002
2.933322e+003;4.032265e-002
2.935250e+003;3.975946e-002
2.937178e+003;3.924365e-002
2.939107e+003;3.891316e-002
2.941036e+003;3.798623e-002
2.942964e+003;3.644738e-002
2.944893e+003;3.500719e-002
2.946821e+003;3.370136e-002
2.948750e+003;3.247707e-002
2.950678e+003;3.098072e-002
2.952607e+003;2.932715e-002
2.954535e+003;2.795875e-002
2.956464e+003;2.638317e-002
2.958393e+003;2.445047e-002
2.960321e+003;2.290284e-002
2.962250e+003;2.160374e-002
2.964178e+003;2.014015e-002
2.966107e+003;1.943254e-002
2.968035e+003;1.894358e-002
2.969964e+003;1.827330e-002
2.971892e+003;1.729403e-002
2.973821e+003;1.645969e-002
2.975750e+003;1.604785e-002
2.977678e+003;1.578055e-002
2.979607e+003;1.541199e-002
2.981535e+003;1.533815e-002
2.983464e+003;1.504332e-002
2.985392e+003;1.432886e-002
2.987321e+003;1.378425e-002
2.989249e+003;1.349588e-002
2.991178e+003;1.299943e-002
2.993106e+003;1.264850e-002
2.995035e+003;1.233286e-002
2.996964e+003;1.171303e-002
2.998892e+003;1.144958e-002
3.000821e+003;1.122218e-002
3.002749e+003;1.058580e-002
3.004678e+003;1.010389e-002
3.006606e+003;9.722390e-003
3.008535e+003;9.173103e-003
3.010463e+003;8.424568e-003
3.012392e+003;7.861668e-003
3.014321e+003;7.394630e-003
3.016249e+003;6.997622e-003
3.018177e+003;7.021799e-003
3.020106e+003;6.709718e-003
3.022035e+003;6.200658e-003
3.023963e+003;5.642712e-003
3.025892e+003;5.129267e-003
3.027820e+003;4.805946e-003
3.029749e+003;4.655579e-003
3.031677e+003;4.709101e-003
3.033606e+003;4.424953e-003
3.035534e+003;3.947851e-003
3.037463e+003;3.760279e-003
3.039392e+003;3.667208e-003
3.041320e+003;3.333420e-003
3.043249e+003;2.934501e-003
3.045177e+003;3.089647e-003
3.047106e+003;3.399035e-003
3.049034e+003;2.917422e-003
3.050963e+003;2.468763e-003
3.052891e+003;2.527216e-003
3.054820e+003;2.146417e-003
3.056749e+003;1.557073e-003
3.058677e+003;1.618828e-003
3.060606e+003;1.995769e-003
3.062534e+003;1.999797e-003
3.064463e+003;1.799522e-003
3.066391e+003;1.491403e-003
3.068320e+003;1.193968e-003
3.070248e+003;8.950105e-004
3.072177e+003;4.226314e-004
3.074105e+003;1.453834e-004
3.076034e+003;1.527748e-004
3.077963e+003;8.349858e-006
3.079891e+003;-1.325822e-004
3.081820e+003;1.845627e-004
3.083748e+003;4.026326e-004
3.085677e+003;1.051470e-004
3.087605e+003;-3.397561e-004
3.089534e+003;-4.440672e-004
3.091462e+003;-1.819009e-004
3.093391e+003;1.852232e-005
3.095320e+003;2.102532e-004
3.097248e+003;-2.087394e-005
3.099177e+003;-5.342559e-004
3.101105e+003;-7.064723e-004
3.103034e+003;-9.793973e-004
3.104962e+003;-1.283074e-003
3.106891e+003;-1.349703e-003
3.108819e+003;-1.341049e-003
3.110748e+003;-1.192016e-003
3.112677e+003;-1.025546e-003
3.114605e+003;-9.099339e-004
3.116533e+003;-1.329289e-003
3.118462e+003;-1.796452e-003
3.120391e+003;-1.864850e-003
3.122319e+003;-1.834793e-003
3.124248e+003;-1.704182e-003
3.126176e+003;-1.737911e-003
3.128105e+003;-1.732036e-003
3.130033e+003;-1.556462e-003
3.131962e+003;-1.640809e-003
3.133890e+003;-2.057777e-003
3.135819e+003;-2.113868e-003
3.137748e+003;-2.018335e-003
3.139676e+003;-1.857030e-003
3.141605e+003;-1.641007e-003
3.143533e+003;-1.593405e-003
3.145462e+003;-1.977305e-003
3.147390e+003;-2.204238e-003
3.149319e+003;-2.373784e-003
3.151247e+003;-2.258168e-003
3.153176e+003;-2.193162e-003
3.155104e+003;-2.229061e-003
3.157033e+003;-2.260871e-003
3.158962e+003;-1.916446e-003
3.160890e+003;-1.709132e-003
3.162819e+003;-1.919481e-003
3.164747e+003;-2.514769e-003
3.166676e+003;-2.809342e-003
3.168604e+003;-2.496189e-003
3.170533e+003;-2.324120e-003
3.172461e+003;-2.261102e-003
3.174390e+003;-2.244752e-003
3.176319e+003;-1.983242e-003
3.178247e+003;-1.530743e-003
3.180176e+003;-1.525823e-003
3.182104e+003;-2.060482e-003
3.184033e+003;-2.338193e-003
3.185961e+003;-2.021039e-003
3.187890e+003;-1.705106e-003
3.189818e+003;-1.578450e-003
3.191747e+003;-1.672958e-003
3.193676e+003;-2.006330e-003
3.195604e+003;-2.070342e-003
3.197532e+003;-1.909552e-003
3.199461e+003;-1.691442e-003
3.201390e+003;-1.789489e-003
3.203318e+003;-1.903152e-003
3.205247e+003;-1.883622e-003
3.207175e+003;-2.024733e-003
3.209104e+003;-1.901106e-003
3.211032e+003;-1.539360e-003
3.212961e+003;-1.728736e-003
3.214889e+003;-1.919811e-003
3.216818e+003;-1.621366e-003
3.218747e+003;-1.618362e-003
3.220675e+003;-1.735601e-003
3.222604e+003;-1.489931e-003
3.224532e+003;-1.491252e-003
3.226461e+003;-1.356276e-003
3.228389e+003;-9.770170e-004
3.230318e+003;-8.546793e-004
3.232246e+003;-9.467665e-004
3.234175e+003;-9.802899e-004
3.236104e+003;-1.090463e-003
3.238032e+003;-1.176387e-003
3.239961e+003;-1.149422e-003
3.241889e+003;-1.437128e-003
3.243818e+003;-1.616117e-003
3.245746e+003;-1.458131e-003
3.247675e+003;-1.457272e-003
3.249603e+003;-1.189340e-003
3.251532e+003;-8.732968e-004
3.253460e+003;-1.215609e-003
3.255389e+003;-1.359579e-003
3.257318e+003;-1.012092e-003
3.259246e+003;-6.328627e-004
3.261175e+003;-4.974545e-004
3.263103e+003;-9.120501e-004
3.265032e+003;-9.622392e-004
3.266960e+003;-9.737111e-004
3.268889e+003;-1.168621e-003
3.270817e+003;-9.071896e-004
3.272746e+003;-8.428075e-004
3.274675e+003;-7.735207e-004
3.276603e+003;-6.353111e-004
3.278531e+003;-6.522505e-004
3.280460e+003;-7.012456e-004
3.282389e+003;-7.008818e-004
3.284317e+003;-7.581736e-004
3.286246e+003;-9.894142e-004
3.288174e+003;-1.003629e-003
3.290103e+003;-8.850356e-004
3.292031e+003;-1.020984e-003
3.293960e+003;-9.592637e-004
3.295888e+003;-1.054700e-003
3.297817e+003;-1.369224e-003
3.299746e+003;-1.391320e-003
3.301674e+003;-1.324004e-003
3.303603e+003;-1.152197e-003
3.305531e+003;-1.148794e-003
3.307460e+003;-1.170472e-003
3.309388e+003;-1.040288e-003
3.311317e+003;-8.843081e-004
3.313245e+003;-8.051724e-004
3.315174e+003;-8.630457e-004
3.317103e+003;-7.681294e-004
3.319031e+003;-1.048189e-003
3.320960e+003;-1.281852e-003
3.322888e+003;-1.266357e-003
3.324817e+003;-1.190430e-003
3.326745e+003;-9.809181e-004
3.328674e+003;-1.173776e-003
3.330602e+003;-1.587529e-003
3.332531e+003;-1.473453e-003
3.334459e+003;-1.451791e-003
3.336388e+003;-1.959329e-003
3.338317e+003;-2.425979e-003
3.340245e+003;-2.111296e-003
3.342174e+003;-1.692135e-003
3.344102e+003;-1.882632e-003
3.346031e+003;-1.988387e-003
3.347959e+003;-1.994588e-003
3.349888e+003;-2.109945e-003
3.351816e+003;-1.957481e-003
3.353745e+003;-2.123035e-003
3.355674e+003;-2.503041e-003
3.357602e+003;-2.683205e-003
3.359531e+003;-2.435864e-003
3.361459e+003;-2.404463e-003
3.363388e+003;-2.251707e-003
3.365316e+003;-1.962825e-003
3.367245e+003;-2.009331e-003
3.369173e+003;-2.367687e-003
3.371102e+003;-2.289580e-003
3.373031e+003;-2.321286e-003
3.374959e+003;-2.463309e-003
3.376887e+003;-2.899106e-003
3.378816e+003;-3.179900e-003
3.380745e+003;-2.916583e-003
3.382673e+003;-2.830180e-003
3.384602e+003;-3.203450e-003
3.386530e+003;-3.404562e-003
3.388459e+003;-3.448317e-003
3.390387e+003;-3.263636e-003
3.392316e+003;-3.298000e-003
3.394244e+003;-3.329501e-003
3.396173e+003;-3.729545e-003
3.398102e+003;-4.142347e-003
3.400030e+003;-4.255560e-003
3.401959e+003;-3.883850e-003
3.403887e+003;-3.291424e-003
3.405816e+003;-3.175328e-003
3.407744e+003;-3.435825e-003
3.409673e+003;-3.477441e-003
3.411601e+003;-3.936488e-003
3.413530e+003;-4.433425e-003
3.415458e+003;-4.204700e-003
3.417387e+003;-3.899908e-003
3.419316e+003;-3.798197e-003
3.421244e+003;-3.850878e-003
3.423173e+003;-4.132272e-003
3.425101e+003;-4.079100e-003
3.427030e+003;-3.886510e-003
3.428958e+003;-3.775435e-003
3.430887e+003;-3.541105e-003
3.432815e+003;-3.649973e-003
3.434744e+003;-3.984720e-003
3.436673e+003;-4.087273e-003
3.438601e+003;-4.034949e-003
3.440530e+003;-4.052577e-003
3.442458e+003;-4.231608e-003
3.444387e+003;-4.144481e-003
3.446315e+003;-4.238235e-003
3.448244e+003;-4.446379e-003
3.450172e+003;-4.163351e-003
3.452101e+003;-4.065937e-003
3.454030e+003;-3.981962e-003
3.455958e+003;-3.638046e-003
3.457886e+003;-3.741141e-003
3.459815e+003;-4.214774e-003
3.461744e+003;-4.334299e-003
3.463672e+003;-4.439722e-003
3.465601e+003;-4.677698e-003
3.467529e+003;-4.513509e-003
3.469458e+003;-4.539380e-003
3.471386e+003;-4.686220e-003
3.473315e+003;-5.030617e-003
3.475243e+003;-5.097067e-003
3.477172e+003;-4.480126e-003
3.479101e+003;-4.132863e-003
3.481029e+003;-4.139722e-003
3.482958e+003;-4.167191e-003
3.484886e+003;-4.490751e-003
3.486815e+003;-4.924257e-003
3.488743e+003;-5.142649e-003
3.490672e+003;-5.159872e-003
3.492600e+003;-4.904043e-003
3.494529e+003;-4.188883e-003
3.496458e+003;-3.924076e-003
3.498386e+003;-4.235512e-003
3.500315e+003;-4.516001e-003
3.502243e+003;-4.397346e-003
3.504172e+003;-4.163056e-003
3.506100e+003;-4.383176e-003
3.508029e+003;-4.634001e-003
3.509957e+003;-4.596037e-003
3.511886e+003;-4.359132e-003
3.513814e+003;-4.369924e-003
3.515743e+003;-4.328919e-003
3.517672e+003;-4.035310e-003
3.519600e+003;-3.976971e-003
3.521529e+003;-4.166961e-003
3.523457e+003;-4.261991e-003
3.525386e+003;-4.603249e-003
3.527314e+003;-4.537183e-003
3.529243e+003;-4.228950e-003
3.531171e+003;-4.007898e-003
3.533100e+003;-3.989283e-003
3.535029e+003;-4.251229e-003
3.536957e+003;-4.169784e-003
3.538885e+003;-3.866675e-003
3.540814e+003;-4.080117e-003
3.542743e+003;-4.384881e-003
3.544671e+003;-4.327509e-003
3.546600e+003;-3.721135e-003
3.548528e+003;-3.868218e-003
3.550457e+003;-5.054984e-003
3.552385e+003;-5.527319e-003
3.554314e+003;-5.088291e-003
3.556242e+003;-4.862073e-003
3.558171e+003;-4.539872e-003
3.560100e+003;-4.216776e-003
3.562028e+003;-4.284301e-003
3.563957e+003;-4.741612e-003
3.565885e+003;-5.485245e-003
3.567814e+003;-5.509816e-003
3.569742e+003;-4.978800e-003
3.571671e+003;-4.641409e-003
3.573599e+003;-4.847853e-003
3.575528e+003;-4.882911e-003
3.577457e+003;-5.005299e-003
3.579385e+003;-5.321198e-003
3.581314e+003;-5.673367e-003
3.583242e+003;-5.829925e-003
3.585171e+003;-6.025740e-003
3.587099e+003;-7.002352e-003
3.589028e+003;-7.179486e-003
3.590956e+003;-6.258244e-003
3.592885e+003;-6.022342e-003
3.594813e+003;-5.860524e-003
3.596742e+003;-5.268793e-003
3.598671e+003;-5.161149e-003
3.600599e+003;-5.132498e-003
3.602528e+003;-4.984827e-003
3.604456e+003;-5.141831e-003
3.606385e+003;-5.691157e-003
3.608313e+003;-5.945150e-003
3.610242e+003;-5.475528e-003
3.612170e+003;-5.784906e-003
3.614099e+003;-5.904098e-003
3.616028e+003;-5.692858e-003
3.617956e+003;-5.596865e-003
3.619885e+003;-5.258809e-003
3.621813e+003;-5.017745e-003
3.623742e+003;-5.070508e-003
3.625670e+003;-5.655706e-003
3.627599e+003;-7.491692e-003
3.629527e+003;-7.433131e-003
3.631456e+003;-5.647203e-003
3.633385e+003;-5.088520e-003
3.635313e+003;-5.164980e-003
3.637241e+003;-5.331344e-003
3.639170e+003;-5.569650e-003
3.641099e+003;-5.450693e-003
3.643027e+003;-5.279563e-003
3.644956e+003;-6.170151e-003
3.646884e+003;-7.794658e-003
3.648813e+003;-8.977217e-003
3.650741e+003;-8.377629e-003
3.652670e+003;-6.968377e-003
3.654598e+003;-7.181442e-003
3.656527e+003;-7.546694e-003
3.658456e+003;-6.762450e-003
3.660384e+003;-6.551464e-003
3.662313e+003;-6.841127e-003
3.664241e+003;-7.155010e-003
3.666170e+003;-7.802208e-003
3.668098e+003;-9.227414e-003
3.670027e+003;-1.036762e-002
3.671955e+003;-9.695137e-003
3.673884e+003;-1.025942e-002
3.675813e+003;-1.015028e-002
3.677741e+003;-8.523405e-003
3.679669e+003;-8.333393e-003
3.681598e+003;-8.176532e-003
3.683527e+003;-8.353870e-003
3.685455e+003;-9.098196e-003
3.687384e+003;-1.100495e-002
3.689312e+003;-1.140289e-002
3.691241e+003;-9.633956e-003
3.693169e+003;-7.907541e-003
3.695098e+003;-7.479446e-003
3.697026e+003;-7.964117e-003
3.698955e+003;-8.796917e-003
3.700884e+003;-9.410841e-003
3.702812e+003;-8.384909e-003
3.704741e+003;-7.974397e-003
3.706669e+003;-8.781884e-003
3.708598e+003;-9.775520e-003
3.710526e+003;-1.121436e-002
3.712455e+003;-1.142371e-002
3.714383e+003;-9.323710e-003
3.716312e+003;-8.355561e-003
3.718240e+003;-8.733629e-003
3.720169e+003;-9.293419e-003
3.722098e+003;-9.703951e-003
3.724026e+003;-9.630457e-003
3.725955e+003;-9.566220e-003
3.727883e+003;-8.857112e-003
3.729812e+003;-9.121622e-003
3.731740e+003;-1.047501e-002
3.733669e+003;-1.095300e-002
3.735597e+003;-1.125085e-002
3.737526e+003;-1.044183e-002
3.739455e+003;-9.415510e-003
3.741383e+003;-1.005126e-002
3.743312e+003;-1.315401e-002
3.745240e+003;-1.278443e-002
3.747169e+003;-1.101157e-002
3.749097e+003;-1.254774e-002
3.751026e+003;-1.301386e-002
3.752954e+003;-1.091571e-002
3.754883e+003;-8.887303e-003
3.756812e+003;-9.112311e-003
3.758740e+003;-9.387236e-003
3.760668e+003;-9.300749e-003
3.762597e+003;-9.234615e-003
3.764526e+003;-9.356658e-003
3.766454e+003;-8.967902e-003
3.768383e+003;-9.315440e-003
3.770311e+003;-9.148908e-003
3.772240e+003;-8.546862e-003
3.774168e+003;-8.329330e-003
3.776097e+003;-8.321529e-003
3.778025e+003;-8.925998e-003
3.779954e+003;-9.174667e-003
3.781883e+003;-8.790196e-003
3.783811e+003;-8.661010e-003
3.785740e+003;-8.535848e-003
3.787668e+003;-8.312980e-003
3.789597e+003;-8.159232e-003
3.791525e+003;-8.204332e-003
3.793454e+003;-8.388875e-003
3.795382e+003;-9.039852e-003
3.797311e+003;-9.520679e-003
3.799240e+003;-1.072901e-002
3.801168e+003;-1.157043e-002
3.803097e+003;-9.758156e-003
3.805025e+003;-9.654016e-003
3.806954e+003;-1.060120e-002
3.808882e+003;-9.024081e-003
3.810811e+003;-8.021598e-003
3.812739e+003;-8.542540e-003
3.814668e+003;-1.056580e-002
3.816596e+003;-1.061666e-002
3.818525e+003;-9.746621e-003
3.820454e+003;-1.056741e-002
3.822382e+003;-9.747108e-003
3.824311e+003;-8.637332e-003
3.826239e+003;-8.676081e-003
3.828168e+003;-8.470053e-003
3.830096e+003;-8.969654e-003
3.832025e+003;-9.676635e-003
3.833953e+003;-9.992459e-003
3.835882e+003;-1.072264e-002
3.837811e+003;-1.145462e-002
3.839739e+003;-1.009538e-002
3.841667e+003;-8.624990e-003
3.843596e+003;-8.103235e-003
3.845525e+003;-8.075525e-003
3.847453e+003;-8.002439e-003
3.849382e+003;-9.121233e-003
3.851310e+003;-1.249896e-002
3.853239e+003;-1.478935e-002
3.855167e+003;-1.160098e-002
3.857096e+003;-8.495884e-003
3.859024e+003;-8.445389e-003
3.860953e+003;-8.969913e-003
3.862882e+003;-9.351015e-003
3.864810e+003;-9.462133e-003
3.866739e+003;-9.332077e-003
3.868667e+003;-1.021078e-002
3.870596e+003;-9.935044e-003
3.872524e+003;-9.037256e-003
3.874453e+003;-8.777273e-003
3.876381e+003;-7.919123e-003
3.878310e+003;-7.813436e-003
3.880239e+003;-8.296922e-003
3.882167e+003;-8.732071e-003
3.884096e+003;-1.000518e-002
3.886024e+003;-9.697016e-003
3.887953e+003;-8.118422e-003
3.889881e+003;-8.407497e-003
3.891810e+003;-8.669131e-003
3.893738e+003;-7.743365e-003
3.895667e+003;-7.305562e-003
3.897595e+003;-8.305926e-003
3.899524e+003;-9.251741e-003
3.901453e+003;-9.270035e-003
3.903381e+003;-8.941254e-003
3.905310e+003;-8.502610e-003
3.907238e+003;-8.042610e-003
3.909167e+003;-7.867943e-003
3.911095e+003;-7.531585e-003
3.913024e+003;-7.778906e-003
3.914952e+003;-8.598288e-003
3.916881e+003;-8.597670e-003
3.918810e+003;-7.670417e-003
3.920738e+003;-7.146797e-003
3.922667e+003;-7.442740e-003
3.924595e+003;-7.742485e-003
3.926524e+003;-7.535004e-003
3.928452e+003;-7.566232e-003
3.930381e+003;-7.848776e-003
3.932309e+003;-7.901944e-003
3.934238e+003;-7.536730e-003
3.936167e+003;-7.710457e-003
3.938095e+003;-7.981814e-003
3.940023e+003;-8.167037e-003
3.941952e+003;-8.195749e-003
3.943881e+003;-7.660456e-003
3.945809e+003;-7.465832e-003
3.947738e+003;-7.617774e-003
3.949666e+003;-7.572256e-003
3.951595e+003;-7.369449e-003
3.953523e+003;-7.127697e-003
3.955452e+003;-7.058525e-003
3.957380e+003;-7.288522e-003
3.959309e+003;-7.835500e-003
3.961238e+003;-8.056531e-003
3.963166e+003;-7.734088e-003
3.965095e+003;-7.414956e-003
3.967023e+003;-7.303737e-003
3.968952e+003;-7.489803e-003
3.970880e+003;-7.571279e-003
3.972809e+003;-7.232085e-003
3.974737e+003;-7.054450e-003
3.976666e+003;-7.153511e-003
3.978594e+003;-7.561608e-003
3.980523e+003;-7.692293e-003
3.982452e+003;-7.377430e-003
3.984380e+003;-7.218300e-003
3.986309e+003;-7.090276e-003
3.988237e+003;-6.938508e-003
3.990166e+003;-6.982887e-003
3.992094e+003;-7.176553e-003
3.994023e+003;-7.431503e-003
3.995951e+003;-7.723314e-003
3.997880e+003;-7.664980e-003
3.999809e+003;-7.365377e-003
4.001737e+003;0.000000e+000
