3.992094e+002;0.000000e+000
4.011380e+002;0.000000e+000
4.030665e+002;0.000000e+000
4.049951e+002;0.000000e+000
4.069236e+002;0.000000e+000
4.088522e+002;0.000000e+000
4.107807e+002;0.000000e+000
4.127093e+002;0.000000e+000
4.146378e+002;0.000000e+000
4.165664e+002;0.000000e+000
4.184949e+002;0.000000e+000
4.204235e+002;0.000000e+000
4.223520e+002;0.000000e+000
4.242806e+002;0.000000e+000
4.262091e+002;0.000000e+000
4.281377e+002;0.000000e+000
4.300662e+002;0.000000e+000
4.319948e+002;0.000000e+000
4.339233e+002;0.000000e+000
4.358519e+002;0.000000e+000
4.377804e+002;0.000000e+000
4.397090e+002;0.000000e+000
4.416375e+002;0.000000e+000
4.435660e+002;0.000000e+000
4.454946e+002;0.000000e+000
4.474232e+002;0.000000e+000
4.493517e+002;0.000000e+000
4.512802e+002;0.000000e+000
4.532088e+002;0.000000e+000
4.551373e+002;0.000000e+000
4.570659e+002;0.000000e+000
4.589944e+002;0.000000e+000
4.609230e+002;0.000000e+000
4.628515e+002;0.000000e+000
4.647801e+002;0.000000e+000
4.667086e+002;0.000000e+000
4.686372e+002;0.000000e+000
4.705657e+002;0.000000e+000
4.724943e+002;0.000000e+000
4.744228e+002;0.000000e+000
4.763513e+002;0.000000e+000
4.782799e+002;0.000000e+000
4.802085e+002;0.000000e+000
4.821370e+002;0.000000e+000
4.840656e+002;0.000000e+000
4.859941e+002;0.000000e+000
4.879226e+002;0.000000e+000
4.898512e+002;0.000000e+000
4.917798e+002;0.000000e+000
4.937083e+002;0.000000e+000
4.956368e+002;0.000000e+000
4.975654e+002;0.000000e+000
4.994939e+002;0.000000e+000
5.014225e+002;0.000000e+000
5.033510e+002;0.000000e+000
5.052796e+002;0.000000e+000
5.072081e+002;0.000000e+000
5.091367e+002;0.000000e+000
5.110652e+002;0.000000e+000
5.129938e+002;0.000000e+000
5.149223e+002;0.000000e+000
5.168509e+002;0.000000e+000
5.187794e+002;0.000000e+000
5.207079e+002;0.000000e+000
5.226365e+002;0.000000e+000
5.245651e+002;0.000000e+000
5.264936e+002;0.000000e+000
5.284222e+002;0.000000e+000
5.303507e+002;0.000000e+000
5.322792e+002;0.000000e+000
5.342078e+002;0.000000e+000
5.361364e+002;0.000000e+000
5.380649e+002;0.000000e+000
5.399935e+002;0.000000e+000
5.419220e+002;0.000000e+000
5.438505e+002;0.000000e+000
5.457791e+002;0.000000e+000
5.477076e+002;0.000000e+000
5.496362e+002;0.000000e+000
5.515648e+002;0.000000e+000
5.534933e+002;0.000000e+000
5.554218e+002;0.000000e+000
5.573504e+002;0.000000e+000
5.592789e+002;0.000000e+000
5.612075e+002;0.000000e+000
5.631360e+002;0.000000e+000
5.650646e+002;0.000000e+000
5.669931e+002;0.000000e+000
5.689217e+002;0.000000e+000
5.708502e+002;0.000000e+000
5.727787e+002;0.000000e+000
5.747073e+002;0.000000e+000
5.766359e+002;0.000000e+000
5.785644e+002;0.000000e+000
5.804930e+002;0.000000e+000
5.824215e+002;0.000000e+000
5.843500e+002;0.000000e+000
5.862786e+002;0.000000e+000
5.882072e+002;0.000000e+000
5.901357e+002;0.000000e+000
5.920643e+002;0.000000e+000
5.939928e+002;0.000000e+000
5.959213e+002;0.000000e+000
5.978499e+002;0.000000e+000
5.997784e+002;7.791043e-002
6.017070e+002;8.063565e-002
6.036355e+002;8.069067e-002
6.055641e+002;7.674854e-002
6.074926e+002;7.460529e-002
6.094211e+002;7.458830e-002
6.113497e+002;7.403388e-002
6.132783e+002;7.617998e-002
6.152068e+002;7.944349e-002
6.171354e+002;8.049804e-002
6.190639e+002;8.177177e-002
6.209924e+002;7.864094e-002
6.229210e+002;7.686752e-002
6.248495e+002;7.932249e-002
6.267781e+002;8.304070e-002
6.287067e+002;8.342285e-002
6.306352e+002;8.314786e-002
6.325637e+002;8.182205e-002
6.344923e+002;7.846184e-002
6.364208e+002;7.793624e-002
6.383494e+002;8.001240e-002
6.402780e+002;8.173429e-002
6.422065e+002;8.154584e-002
6.441350e+002;8.135094e-002
6.460636e+002;8.200911e-002
6.479921e+002;7.855978e-002
6.499207e+002;7.821870e-002
6.518492e+002;7.913579e-002
6.537778e+002;7.755584e-002
6.557063e+002;7.556009e-002
6.576349e+002;7.765785e-002
6.595634e+002;7.995129e-002
6.614919e+002;7.650243e-002
6.634205e+002;7.318223e-002
6.653491e+002;7.522604e-002
6.672776e+002;7.502042e-002
6.692062e+002;7.412407e-002
6.711347e+002;7.578506e-002
6.730632e+002;7.591112e-002
6.749918e+002;7.428861e-002
6.769203e+002;7.509533e-002
6.788489e+002;7.634775e-002
6.807775e+002;7.473850e-002
6.827060e+002;7.268181e-002
6.846345e+002;7.169557e-002
6.865631e+002;7.220545e-002
6.884916e+002;7.329326e-002
6.904202e+002;7.272169e-002
6.923488e+002;7.162906e-002
6.942773e+002;7.124145e-002
6.962058e+002;7.140170e-002
6.981344e+002;7.167134e-002
7.000629e+002;7.176909e-002
7.019915e+002;7.050475e-002
7.039200e+002;6.899285e-002
7.058486e+002;6.936318e-002
7.077771e+002;7.044369e-002
7.097057e+002;7.143787e-002
7.116342e+002;7.194252e-002
7.135627e+002;7.312819e-002
7.154913e+002;7.454636e-002
7.174199e+002;7.385644e-002
7.193484e+002;7.259726e-002
7.212770e+002;7.232367e-002
7.232055e+002;7.360785e-002
7.251340e+002;7.502341e-002
7.270626e+002;7.626177e-002
7.289911e+002;7.661199e-002
7.309197e+002;7.686641e-002
7.328483e+002;7.758356e-002
7.347768e+002;7.721245e-002
7.367053e+002;7.637205e-002
7.386339e+002;7.637663e-002
7.405624e+002;7.713412e-002
7.424910e+002;7.815149e-002
7.444196e+002;7.887204e-002
7.463481e+002;8.012017e-002
7.482766e+002;8.061706e-002
7.502052e+002;8.071553e-002
7.521337e+002;8.050355e-002
7.540623e+002;8.047163e-002
7.559908e+002;8.102451e-002
7.579194e+002;8.099161e-002
7.598479e+002;8.134711e-002
7.617765e+002;8.179993e-002
7.637050e+002;8.197673e-002
7.656335e+002;8.208675e-002
7.675621e+002;8.122893e-002
7.694907e+002;7.982381e-002
7.714192e+002;7.923432e-002
7.733478e+002;7.870063e-002
7.752763e+002;7.789596e-002
7.772048e+002;7.669559e-002
7.791334e+002;7.432305e-002
7.810620e+002;7.230332e-002
7.829905e+002;7.002762e-002
7.849191e+002;6.705689e-002
7.868476e+002;6.394622e-002
7.887761e+002;6.002602e-002
7.907047e+002;5.580791e-002
7.926332e+002;5.293941e-002
7.945618e+002;5.117416e-002
7.964903e+002;4.982606e-002
7.984189e+002;4.855653e-002
8.003474e+002;4.762758e-002
8.022759e+002;4.747542e-002
8.042045e+002;4.911183e-002
8.061331e+002;5.097074e-002
8.080616e+002;5.151822e-002
8.099902e+002;5.325333e-002
8.119187e+002;5.529847e-002
8.138472e+002;5.588214e-002
8.157758e+002;5.624021e-002
8.177043e+002;5.807697e-002
8.196329e+002;5.997367e-002
8.215615e+002;6.214616e-002
8.234900e+002;6.538741e-002
8.254185e+002;6.908036e-002
8.273471e+002;7.187097e-002
8.292756e+002;7.328518e-002
8.312042e+002;7.497922e-002
8.331328e+002;7.621406e-002
8.350613e+002;7.606043e-002
8.369898e+002;7.572588e-002
8.389184e+002;7.566534e-002
8.408469e+002;7.552385e-002
8.427755e+002;7.466412e-002
8.447040e+002;7.315533e-002
8.466326e+002;7.188907e-002
8.485611e+002;7.106319e-002
8.504897e+002;7.029945e-002
8.524182e+002;6.975616e-002
8.543467e+002;6.911159e-002
8.562753e+002;6.892846e-002
8.582039e+002;6.892885e-002
8.601324e+002;6.812655e-002
8.620610e+002;6.791256e-002
8.639895e+002;6.826685e-002
8.659180e+002;6.829842e-002
8.678466e+002;6.816799e-002
8.697751e+002;6.779825e-002
8.717037e+002;6.741636e-002
8.736323e+002;6.734721e-002
8.755608e+002;6.798378e-002
8.774893e+002;6.814756e-002
8.794179e+002;6.796391e-002
8.813464e+002;6.854817e-002
8.832750e+002;6.873185e-002
8.852036e+002;6.883744e-002
8.871321e+002;6.910048e-002
8.890606e+002;6.937853e-002
8.909892e+002;6.969294e-002
8.929177e+002;7.002902e-002
8.948463e+002;7.005456e-002
8.967748e+002;6.977211e-002
8.987034e+002;6.944824e-002
9.006319e+002;6.945135e-002
9.025605e+002;6.958266e-002
9.044890e+002;6.944486e-002
9.064175e+002;6.956486e-002
9.083461e+002;7.004623e-002
9.102747e+002;7.052612e-002
9.122032e+002;7.093529e-002
9.141318e+002;7.086366e-002
9.160603e+002;7.080430e-002
9.179888e+002;7.073242e-002
9.199174e+002;7.072139e-002
9.218459e+002;7.085828e-002
9.237745e+002;7.078187e-002
9.257031e+002;7.087607e-002
9.276316e+002;7.114054e-002
9.295601e+002;7.132485e-002
9.314887e+002;7.170393e-002
9.334172e+002;7.240791e-002
9.353458e+002;7.241385e-002
9.372744e+002;7.220088e-002
9.392029e+002;7.270258e-002
9.411314e+002;7.315505e-002
9.430600e+002;7.353111e-002
9.449885e+002;7.374384e-002
9.469171e+002;7.381504e-002
9.488456e+002;7.399043e-002
9.507742e+002;7.431802e-002
9.527027e+002;7.479376e-002
9.546313e+002;7.507764e-002
9.565598e+002;7.480497e-002
9.584883e+002;7.463209e-002
9.604169e+002;7.461891e-002
9.623455e+002;7.413319e-002
9.642740e+002;7.378810e-002
9.662026e+002;7.374993e-002
9.681311e+002;7.315749e-002
9.700596e+002;7.234790e-002
9.719882e+002;7.201596e-002
9.739167e+002;7.176089e-002
9.758453e+002;7.149810e-002
9.777739e+002;7.155181e-002
9.797024e+002;7.124227e-002
9.816309e+002;7.090478e-002
9.835595e+002;7.084233e-002
9.854880e+002;7.057129e-002
9.874166e+002;7.009689e-002
9.893452e+002;6.955813e-002
9.912737e+002;6.863913e-002
9.932022e+002;6.786356e-002
9.951307e+002;6.740944e-002
9.970593e+002;6.665414e-002
9.989879e+002;6.562401e-002
1.000916e+003;6.463361e-002
1.002845e+003;6.325579e-002
1.004773e+003;6.145736e-002
1.006702e+003;5.895045e-002
1.008631e+003;5.630347e-002
1.010559e+003;5.366874e-002
1.012488e+003;5.107796e-002
1.014416e+003;4.905466e-002
1.016345e+003;4.802506e-002
1.018273e+003;4.776249e-002
1.020202e+003;4.779644e-002
1.022130e+003;4.876756e-002
1.024059e+003;5.060031e-002
1.025988e+003;5.231120e-002
1.027916e+003;5.428270e-002
1.029845e+003;5.638533e-002
1.031773e+003;5.938330e-002
1.033702e+003;6.194381e-002
1.035630e+003;6.285685e-002
1.037559e+003;6.300443e-002
1.039487e+003;6.313438e-002
1.041416e+003;6.335484e-002
1.043344e+003;6.379166e-002
1.045273e+003;6.443790e-002
1.047202e+003;6.542026e-002
1.049130e+003;6.706714e-002
1.051059e+003;6.832805e-002
1.052987e+003;6.941628e-002
1.054916e+003;7.099853e-002
1.056844e+003;7.254290e-002
1.058773e+003;7.439702e-002
1.060701e+003;7.606517e-002
1.062630e+003;7.736003e-002
1.064558e+003;7.810727e-002
1.066487e+003;7.834329e-002
1.068416e+003;7.860100e-002
1.070344e+003;7.863860e-002
1.072273e+003;7.794203e-002
1.074201e+003;7.589320e-002
1.076130e+003;7.422697e-002
1.078058e+003;7.309110e-002
1.079987e+003;7.164473e-002
1.081915e+003;7.012998e-002
1.083844e+003;6.835961e-002
1.085773e+003;6.613842e-002
1.087701e+003;6.447630e-002
1.089630e+003;6.315680e-002
1.091558e+003;6.206882e-002
1.093487e+003;6.148824e-002
1.095415e+003;6.148240e-002
1.097344e+003;6.182281e-002
1.099272e+003;6.213905e-002
1.101201e+003;6.226355e-002
1.103129e+003;6.323095e-002
1.105058e+003;6.445158e-002
1.106987e+003;6.469164e-002
1.108915e+003;6.456402e-002
1.110844e+003;6.528253e-002
1.112772e+003;6.629155e-002
1.114701e+003;6.698529e-002
1.116629e+003;6.712143e-002
1.118558e+003;6.722207e-002
1.120486e+003;6.747720e-002
1.122415e+003;6.748997e-002
1.124344e+003;6.748088e-002
1.126272e+003;6.733929e-002
1.128201e+003;6.736261e-002
1.130129e+003;6.735426e-002
1.132058e+003;6.739295e-002
1.133986e+003;6.781308e-002
1.135915e+003;6.882241e-002
1.137843e+003;6.994221e-002
1.139772e+003;7.110710e-002
1.141700e+003;7.263572e-002
1.143629e+003;7.421565e-002
1.145557e+003;7.609857e-002
1.147486e+003;7.863661e-002
1.149415e+003;8.106960e-002
1.151343e+003;8.364627e-002
1.153272e+003;8.644047e-002
1.155200e+003;8.948180e-002
1.157129e+003;9.276597e-002
1.159057e+003;9.557664e-002
1.160986e+003;9.853151e-002
1.162914e+003;1.008874e-001
1.164843e+003;1.026585e-001
1.166771e+003;1.040776e-001
1.168700e+003;1.043182e-001
1.170629e+003;1.036358e-001
1.172557e+003;1.026328e-001
1.174486e+003;1.011651e-001
1.176414e+003;9.985045e-002
1.178343e+003;9.922745e-002
1.180271e+003;9.895796e-002
1.182200e+003;9.797762e-002
1.184128e+003;9.628791e-002
1.186057e+003;9.550789e-002
1.187986e+003;9.575542e-002
1.189914e+003;9.637990e-002
1.191843e+003;9.726842e-002
1.193771e+003;9.787425e-002
1.195700e+003;9.841932e-002
1.197628e+003;9.946623e-002
1.199557e+003;9.972870e-002
1.201485e+003;9.904919e-002
1.203414e+003;9.850029e-002
1.205343e+003;9.866336e-002
1.207271e+003;9.878659e-002
1.209200e+003;9.863545e-002
1.211128e+003;9.883077e-002
1.213057e+003;9.877811e-002
1.214985e+003;9.860377e-002
1.216914e+003;9.918502e-002
1.218842e+003;9.966472e-002
1.220771e+003;1.000388e-001
1.222699e+003;1.005557e-001
1.224628e+003;1.004571e-001
1.226557e+003;1.001837e-001
1.228485e+003;9.993923e-002
1.230414e+003;9.955777e-002
1.232342e+003;9.892301e-002
1.234271e+003;9.850062e-002
1.236199e+003;9.803508e-002
1.238128e+003;9.758863e-002
1.240056e+003;9.725470e-002
1.241985e+003;9.699886e-002
1.243913e+003;9.623605e-002
1.245842e+003;9.512758e-002
1.247771e+003;9.416547e-002
1.249699e+003;9.273804e-002
1.251628e+003;9.077594e-002
1.253556e+003;8.752058e-002
1.255485e+003;8.322310e-002
1.257413e+003;7.902770e-002
1.259342e+003;7.593507e-002
1.261270e+003;7.506499e-002
1.263199e+003;7.671101e-002
1.265127e+003;8.028265e-002
1.267056e+003;8.414235e-002
1.268985e+003;8.719257e-002
1.270913e+003;8.938947e-002
1.272842e+003;9.078231e-002
1.274770e+003;9.074862e-002
1.276699e+003;8.993030e-002
1.278627e+003;8.943062e-002
1.280556e+003;8.891159e-002
1.282484e+003;8.803727e-002
1.284413e+003;8.717722e-002
1.286342e+003;8.675254e-002
1.288270e+003;8.661132e-002
1.290199e+003;8.615710e-002
1.292127e+003;8.571429e-002
1.294056e+003;8.538762e-002
1.295984e+003;8.509257e-002
1.297913e+003;8.498077e-002
1.299841e+003;8.473875e-002
1.301770e+003;8.446152e-002
1.303698e+003;8.438549e-002
1.305627e+003;8.416057e-002
1.307556e+003;8.403024e-002
1.309484e+003;8.391510e-002
1.311413e+003;8.368066e-002
1.313341e+003;8.343373e-002
1.315270e+003;8.329792e-002
1.317198e+003;8.301362e-002
1.319127e+003;8.300688e-002
1.321055e+003;8.332501e-002
1.322984e+003;8.356304e-002
1.324912e+003;8.369094e-002
1.326841e+003;8.409438e-002
1.328770e+003;8.454556e-002
1.330698e+003;8.462958e-002
1.332627e+003;8.453566e-002
1.334555e+003;8.466590e-002
1.336484e+003;8.497401e-002
1.338412e+003;8.504815e-002
1.340341e+003;8.537504e-002
1.342269e+003;8.622050e-002
1.344198e+003;8.682311e-002
1.346126e+003;8.720841e-002
1.348055e+003;8.755310e-002
1.349984e+003;8.765834e-002
1.351912e+003;8.789562e-002
1.353841e+003;8.851293e-002
1.355769e+003;8.853848e-002
1.357698e+003;8.820449e-002
1.359626e+003;8.781499e-002
1.361555e+003;8.700553e-002
1.363483e+003;8.642344e-002
1.365412e+003;8.625739e-002
1.367341e+003;8.553817e-002
1.369269e+003;8.481346e-002
1.371198e+003;8.415812e-002
1.373126e+003;8.312780e-002
1.375055e+003;8.235971e-002
1.376983e+003;8.198877e-002
1.378912e+003;8.143639e-002
1.380840e+003;8.073197e-002
1.382769e+003;7.967029e-002
1.384698e+003;7.854096e-002
1.386626e+003;7.696937e-002
1.388555e+003;7.594612e-002
1.390483e+003;7.515571e-002
1.392412e+003;7.334536e-002
1.394340e+003;7.106225e-002
1.396269e+003;6.996841e-002
1.398197e+003;6.918910e-002
1.400126e+003;6.896722e-002
1.402054e+003;6.892061e-002
1.403983e+003;6.824604e-002
1.405911e+003;6.816915e-002
1.407840e+003;6.830768e-002
1.409769e+003;6.841329e-002
1.411697e+003;6.853126e-002
1.413626e+003;6.881721e-002
1.415554e+003;6.905822e-002
1.417483e+003;6.839619e-002
1.419411e+003;6.876551e-002
1.421340e+003;7.166701e-002
1.423268e+003;7.428280e-002
1.425197e+003;7.727128e-002
1.427125e+003;8.078396e-002
1.429054e+003;8.404487e-002
1.430983e+003;8.800071e-002
1.432911e+003;9.223254e-002
1.434840e+003;9.459206e-002
1.436768e+003;9.660637e-002
1.438697e+003;1.013221e-001
1.440625e+003;1.057734e-001
1.442554e+003;1.095081e-001
1.444482e+003;1.131024e-001
1.446411e+003;1.164417e-001
1.448340e+003;1.194085e-001
1.450268e+003;1.213255e-001
1.452197e+003;1.209382e-001
1.454125e+003;1.167332e-001
1.456054e+003;1.085774e-001
1.457982e+003;1.023361e-001
1.459911e+003;9.776650e-002
1.461839e+003;9.139351e-002
1.463768e+003;8.408396e-002
1.465697e+003;7.906388e-002
1.467625e+003;7.658692e-002
1.469554e+003;7.356196e-002
1.471482e+003;6.947289e-002
1.473411e+003;6.760281e-002
1.475339e+003;6.818315e-002
1.477268e+003;6.862194e-002
1.479196e+003;6.859776e-002
1.481125e+003;6.819405e-002
1.483053e+003;6.813822e-002
1.484982e+003;6.785988e-002
1.486911e+003;6.673732e-002
1.488839e+003;6.522936e-002
1.490768e+003;6.492363e-002
1.492696e+003;6.551503e-002
1.494625e+003;6.401587e-002
1.496553e+003;6.251583e-002
1.498482e+003;6.345231e-002
1.500410e+003;6.445431e-002
1.502339e+003;6.426541e-002
1.504267e+003;6.117506e-002
1.506196e+003;5.779811e-002
1.508125e+003;5.945116e-002
1.510053e+003;6.203102e-002
1.511982e+003;6.268924e-002
1.513910e+003;6.287420e-002
1.515839e+003;6.216875e-002
1.517767e+003;6.179549e-002
1.519696e+003;6.017853e-002
1.521624e+003;5.897629e-002
1.523553e+003;6.099253e-002
1.525481e+003;6.201401e-002
1.527410e+003;6.284682e-002
1.529339e+003;6.375582e-002
1.531267e+003;6.343383e-002
1.533196e+003;6.269731e-002
1.535124e+003;6.387809e-002
1.537053e+003;6.304304e-002
1.538981e+003;5.941316e-002
1.540910e+003;5.973503e-002
1.542838e+003;6.270822e-002
1.544767e+003;6.432165e-002
1.546695e+003;6.534173e-002
1.548624e+003;6.564809e-002
1.550553e+003;6.584119e-002
1.552481e+003;6.550274e-002
1.554410e+003;6.418400e-002
1.556338e+003;6.187209e-002
1.558267e+003;5.770364e-002
1.560195e+003;5.875273e-002
1.562124e+003;6.324410e-002
1.564052e+003;6.424236e-002
1.565981e+003;6.375010e-002
1.567910e+003;6.272227e-002
1.569838e+003;6.194859e-002
1.571767e+003;6.296849e-002
1.573695e+003;6.247366e-002
1.575624e+003;6.025767e-002
1.577552e+003;6.158021e-002
1.579481e+003;6.396873e-002
1.581409e+003;6.419376e-002
1.583338e+003;6.328734e-002
1.585266e+003;6.230148e-002
1.587195e+003;6.178594e-002
1.589124e+003;6.153008e-002
1.591052e+003;6.133477e-002
1.592981e+003;6.095223e-002
1.594909e+003;6.092227e-002
1.596838e+003;6.160896e-002
1.598766e+003;6.255057e-002
1.600695e+003;6.310246e-002
1.602623e+003;6.359660e-002
1.604552e+003;6.386093e-002
1.606480e+003;6.394131e-002
1.608409e+003;6.399529e-002
1.610338e+003;6.383015e-002
1.612266e+003;6.351988e-002
1.614195e+003;6.214884e-002
1.616123e+003;5.968215e-002
1.618052e+003;6.062447e-002
1.619980e+003;6.248977e-002
1.621909e+003;6.186770e-002
1.623837e+003;6.127608e-002
1.625766e+003;6.164573e-002
1.627694e+003;6.182685e-002
1.629623e+003;6.211454e-002
1.631552e+003;6.225173e-002
1.633480e+003;6.044773e-002
1.635409e+003;5.854278e-002
1.637337e+003;6.039986e-002
1.639266e+003;6.222776e-002
1.641194e+003;6.222661e-002
1.643123e+003;6.154000e-002
1.645051e+003;5.981253e-002
1.646980e+003;5.945435e-002
1.648909e+003;6.100260e-002
1.650837e+003;5.846183e-002
1.652766e+003;5.440519e-002
1.654694e+003;5.879666e-002
1.656623e+003;6.388845e-002
1.658551e+003;6.489573e-002
1.660480e+003;6.455702e-002
1.662408e+003;6.438721e-002
1.664337e+003;6.571054e-002
1.666266e+003;6.645103e-002
1.668194e+003;6.515232e-002
1.670123e+003;6.469963e-002
1.672051e+003;6.550255e-002
1.673980e+003;6.468656e-002
1.675908e+003;6.429799e-002
1.677837e+003;6.546765e-002
1.679765e+003;6.494541e-002
1.681694e+003;6.245181e-002
1.683622e+003;5.848022e-002
1.685551e+003;5.921584e-002
1.687479e+003;6.253587e-002
1.689408e+003;6.327932e-002
1.691337e+003;6.339449e-002
1.693265e+003;6.218956e-002
1.695194e+003;5.947088e-002
1.697122e+003;6.011380e-002
1.699051e+003;5.984569e-002
1.700979e+003;6.055696e-002
1.702908e+003;6.471521e-002
1.704836e+003;6.672507e-002
1.706765e+003;6.909928e-002
1.708693e+003;7.214575e-002
1.710622e+003;7.547358e-002
1.712551e+003;7.834416e-002
1.714479e+003;8.057602e-002
1.716408e+003;8.270606e-002
1.718336e+003;8.813378e-002
1.720265e+003;9.619528e-002
1.722193e+003;1.023033e-001
1.724122e+003;1.065609e-001
1.726050e+003;1.099150e-001
1.727979e+003;1.120006e-001
1.729908e+003;1.126021e-001
1.731836e+003;1.100141e-001
1.733765e+003;1.053823e-001
1.735693e+003;1.036604e-001
1.737622e+003;1.006838e-001
1.739550e+003;9.478585e-002
1.741479e+003;8.961471e-002
1.743407e+003;8.422026e-002
1.745336e+003;7.852198e-002
1.747265e+003;7.304570e-002
1.749193e+003;6.820808e-002
1.751122e+003;6.487688e-002
1.753050e+003;6.351329e-002
1.754979e+003;6.150805e-002
1.756907e+003;5.924486e-002
1.758836e+003;5.778706e-002
1.760764e+003;5.595473e-002
1.762693e+003;5.505058e-002
1.764621e+003;5.503531e-002
1.766550e+003;5.405602e-002
1.768479e+003;5.306890e-002
1.770407e+003;5.158474e-002
1.772336e+003;5.035925e-002
1.774264e+003;5.159142e-002
1.776193e+003;5.257032e-002
1.778121e+003;5.249741e-002
1.780050e+003;5.208955e-002
1.781978e+003;5.200177e-002
1.783907e+003;5.172443e-002
1.785835e+003;5.144134e-002
1.787764e+003;5.146122e-002
1.789693e+003;5.063304e-002
1.791621e+003;4.919632e-002
1.793550e+003;4.913328e-002
1.795478e+003;4.996916e-002
1.797407e+003;4.982836e-002
1.799335e+003;4.913817e-002
1.801264e+003;4.904561e-002
1.803192e+003;4.973606e-002
1.805121e+003;5.000696e-002
1.807049e+003;4.979436e-002
1.808978e+003;4.935673e-002
1.810907e+003;4.905418e-002
1.812835e+003;4.913380e-002
1.814764e+003;4.926085e-002
1.816692e+003;4.895322e-002
1.818621e+003;4.881705e-002
1.820549e+003;4.875217e-002
1.822478e+003;4.850021e-002
1.824406e+003;4.791930e-002
1.826335e+003;4.789451e-002
1.828264e+003;4.761313e-002
1.830192e+003;4.737368e-002
1.832121e+003;4.787620e-002
1.834049e+003;4.816912e-002
1.835978e+003;4.797236e-002
1.837906e+003;4.796059e-002
1.839835e+003;4.802816e-002
1.841763e+003;4.727178e-002
1.843692e+003;4.609577e-002
1.845620e+003;4.672199e-002
1.847549e+003;4.751198e-002
1.849478e+003;4.742682e-002
1.851406e+003;4.733385e-002
1.853335e+003;4.733795e-002
1.855263e+003;4.728729e-002
1.857192e+003;4.723480e-002
1.859120e+003;4.719723e-002
1.861049e+003;4.733695e-002
1.862977e+003;4.733366e-002
1.864906e+003;4.698293e-002
1.866834e+003;4.640353e-002
1.868763e+003;4.610760e-002
1.870692e+003;4.686385e-002
1.872620e+003;4.740284e-002
1.874549e+003;4.722837e-002
1.876477e+003;4.711579e-002
1.878406e+003;4.703274e-002
1.880334e+003;4.706243e-002
1.882263e+003;4.703754e-002
1.884191e+003;4.699202e-002
1.886120e+003;4.691153e-002
1.888048e+003;4.666325e-002
1.889977e+003;4.659796e-002
1.891906e+003;4.669251e-002
1.893834e+003;4.655554e-002
1.895763e+003;4.672258e-002
1.897691e+003;4.703193e-002
1.899620e+003;4.689658e-002
1.901548e+003;4.654127e-002
1.903477e+003;4.662053e-002
1.905405e+003;4.673826e-002
1.907334e+003;4.679361e-002
1.909262e+003;4.657649e-002
1.911191e+003;4.635970e-002
1.913120e+003;4.653673e-002
1.915048e+003;4.671789e-002
1.916977e+003;4.603403e-002
1.918905e+003;4.597796e-002
1.920834e+003;4.644557e-002
1.922762e+003;4.648635e-002
1.924691e+003;4.653813e-002
1.926619e+003;4.658899e-002
1.928548e+003;4.662573e-002
1.930477e+003;4.654606e-002
1.932405e+003;4.634930e-002
1.934334e+003;4.609511e-002
1.936262e+003;4.606014e-002
1.938191e+003;4.605392e-002
1.940119e+003;4.591907e-002
1.942048e+003;4.569248e-002
1.943976e+003;4.575793e-002
1.945905e+003;4.586265e-002
1.947833e+003;4.592533e-002
1.949762e+003;4.616180e-002
1.951691e+003;4.622957e-002
1.953619e+003;4.613093e-002
1.955548e+003;4.603513e-002
1.957476e+003;4.609942e-002
1.959405e+003;4.631332e-002
1.961333e+003;4.631229e-002
1.963262e+003;4.611383e-002
1.965190e+003;4.582907e-002
1.967119e+003;4.578194e-002
1.969047e+003;4.618027e-002
1.970976e+003;4.640976e-002
1.972905e+003;4.627067e-002
1.974833e+003;4.618163e-002
1.976762e+003;4.608763e-002
1.978690e+003;4.611935e-002
1.980619e+003;4.644557e-002
1.982547e+003;4.676937e-002
1.984476e+003;4.688736e-002
1.986404e+003;4.687082e-002
1.988333e+003;4.672557e-002
1.990261e+003;4.657236e-002
1.992190e+003;4.663163e-002
1.994119e+003;4.672852e-002
1.996047e+003;4.678767e-002
1.997976e+003;4.682192e-002
1.999904e+003;4.680996e-002
2.001833e+003;4.702824e-002
2.003761e+003;4.701908e-002
2.005690e+003;4.691356e-002
2.007618e+003;4.693069e-002
2.009547e+003;4.702177e-002
2.011476e+003;4.700578e-002
2.013404e+003;4.691855e-002
2.015333e+003;4.688455e-002
2.017261e+003;4.688677e-002
2.019190e+003;4.699272e-002
2.021118e+003;4.700889e-002
2.023047e+003;4.698677e-002
2.024975e+003;4.680535e-002
2.026904e+003;4.678741e-002
2.028833e+003;4.684148e-002
2.030761e+003;4.675335e-002
2.032690e+003;4.674365e-002
2.034618e+003;4.676826e-002
2.036547e+003;4.659519e-002
2.038475e+003;4.668554e-002
2.040404e+003;4.684735e-002
2.042332e+003;4.681077e-002
2.044261e+003;4.670321e-002
2.046189e+003;4.692398e-002
2.048118e+003;4.701941e-002
2.050047e+003;4.687141e-002
2.051975e+003;4.684307e-002
2.053904e+003;4.701402e-002
2.055832e+003;4.704924e-002
2.057761e+003;4.666052e-002
2.059689e+003;4.655288e-002
2.061618e+003;4.662957e-002
2.063546e+003;4.668930e-002
2.065475e+003;4.653300e-002
2.067404e+003;4.633433e-002
2.069332e+003;4.648241e-002
2.071260e+003;4.666488e-002
2.073189e+003;4.673933e-002
2.075118e+003;4.666517e-002
2.077046e+003;4.655299e-002
2.078975e+003;4.635476e-002
2.080903e+003;4.620389e-002
2.082832e+003;4.641905e-002
2.084760e+003;4.661813e-002
2.086689e+003;4.668387e-002
2.088617e+003;4.686348e-002
2.090546e+003;4.674874e-002
2.092475e+003;4.666425e-002
2.094403e+003;4.660725e-002
2.096332e+003;4.650486e-002
2.098260e+003;4.657199e-002
2.100189e+003;4.684078e-002
2.102117e+003;4.681166e-002
2.104046e+003;4.657498e-002
2.105974e+003;4.645398e-002
2.107903e+003;4.659113e-002
2.109832e+003;4.657527e-002
2.111760e+003;4.626168e-002
2.113688e+003;4.601078e-002
2.115617e+003;4.596190e-002
2.117546e+003;4.598710e-002
2.119474e+003;4.593045e-002
2.121403e+003;4.584520e-002
2.123331e+003;4.573673e-002
2.125260e+003;4.567824e-002
2.127188e+003;4.575050e-002
2.129117e+003;4.598467e-002
2.131045e+003;4.635384e-002
2.132974e+003;4.635778e-002
2.134903e+003;4.622556e-002
2.136831e+003;4.628888e-002
2.138760e+003;4.648023e-002
2.140688e+003;4.638484e-002
2.142617e+003;4.599439e-002
2.144545e+003;4.564665e-002
2.146474e+003;4.568674e-002
2.148402e+003;4.601579e-002
2.150331e+003;4.620617e-002
2.152260e+003;4.621318e-002
2.154188e+003;4.608973e-002
2.156117e+003;4.612156e-002
2.158045e+003;4.628770e-002
2.159974e+003;4.618067e-002
2.161902e+003;4.606435e-002
2.163831e+003;4.627705e-002
2.165759e+003;4.644947e-002
2.167688e+003;4.637474e-002
2.169616e+003;4.638421e-002
2.171545e+003;4.637946e-002
2.173474e+003;4.618590e-002
2.175402e+003;4.629157e-002
2.177331e+003;4.670572e-002
2.179259e+003;4.687968e-002
2.181188e+003;4.706534e-002
2.183116e+003;4.731962e-002
2.185045e+003;4.803457e-002
2.186973e+003;4.891005e-002
2.188902e+003;4.925187e-002
2.190831e+003;4.946295e-002
2.192759e+003;4.955527e-002
2.194688e+003;4.930220e-002
2.196616e+003;4.906891e-002
2.198545e+003;4.893297e-002
2.200473e+003;4.869249e-002
2.202402e+003;4.853318e-002
2.204330e+003;4.848950e-002
2.206259e+003;4.889918e-002
2.208188e+003;4.903460e-002
2.210116e+003;4.886344e-002
2.212044e+003;4.915554e-002
2.213973e+003;4.960158e-002
2.215902e+003;4.993417e-002
2.217830e+003;5.032074e-002
2.219759e+003;5.077022e-002
2.221687e+003;5.138449e-002
2.223616e+003;5.256352e-002
2.225544e+003;5.387150e-002
2.227473e+003;5.578436e-002
2.229401e+003;5.922921e-002
2.231330e+003;6.409667e-002
2.233259e+003;7.034386e-002
2.235187e+003;7.777090e-002
2.237116e+003;8.509216e-002
2.239044e+003;9.070669e-002
2.240973e+003;9.351198e-002
2.242901e+003;9.291804e-002
2.244830e+003;8.952732e-002
2.246758e+003;8.456400e-002
2.248687e+003;7.917459e-002
2.250615e+003;7.402689e-002
2.252544e+003;6.936905e-002
2.254473e+003;6.530418e-002
2.256401e+003;6.179412e-002
2.258330e+003;5.871589e-002
2.260258e+003;5.647483e-002
2.262187e+003;5.486842e-002
2.264115e+003;5.335920e-002
2.266044e+003;5.237115e-002
2.267972e+003;5.166378e-002
2.269901e+003;5.103923e-002
2.271830e+003;5.060571e-002
2.273758e+003;5.026141e-002
2.275687e+003;4.995919e-002
2.277615e+003;4.954877e-002
2.279544e+003;4.930569e-002
2.281472e+003;4.925362e-002
2.283401e+003;4.903430e-002
2.285329e+003;4.880241e-002
2.287258e+003;4.871674e-002
2.289187e+003;4.878098e-002
2.291115e+003;4.880530e-002
2.293043e+003;4.850050e-002
2.294972e+003;4.831497e-002
2.296901e+003;4.837389e-002
2.298829e+003;4.836600e-002
2.300758e+003;4.839222e-002
2.302686e+003;4.819133e-002
2.304615e+003;4.793436e-002
2.306543e+003;4.791589e-002
2.308472e+003;4.791271e-002
2.310400e+003;4.788867e-002
2.312329e+003;4.772850e-002
2.314258e+003;4.746833e-002
2.316186e+003;4.758233e-002
2.318115e+003;4.781453e-002
2.320043e+003;4.748718e-002
2.321972e+003;4.695332e-002
2.323900e+003;4.664034e-002
2.325829e+003;4.663920e-002
2.327757e+003;4.654318e-002
2.329686e+003;4.634189e-002
2.331615e+003;4.630156e-002
2.333543e+003;4.631067e-002
2.335472e+003;4.642554e-002
2.337400e+003;4.634701e-002
2.339329e+003;4.627642e-002
2.341257e+003;4.632158e-002
2.343186e+003;4.660143e-002
2.345114e+003;4.702960e-002
2.347043e+003;4.738998e-002
2.348971e+003;4.779837e-002
2.350900e+003;4.775546e-002
2.352829e+003;4.720713e-002
2.354757e+003;4.666218e-002
2.356686e+003;4.633050e-002
2.358614e+003;4.606645e-002
2.360543e+003;4.579044e-002
2.362471e+003;4.583558e-002
2.364400e+003;4.598684e-002
2.366328e+003;4.641290e-002
2.368257e+003;4.682712e-002
2.370186e+003;4.696185e-002
2.372114e+003;4.725848e-002
2.374042e+003;4.777632e-002
2.375971e+003;4.805955e-002
2.377900e+003;4.820462e-002
2.379828e+003;4.834504e-002
2.381757e+003;4.837196e-002
2.383685e+003;4.839967e-002
2.385614e+003;4.862526e-002
2.387542e+003;4.868612e-002
2.389471e+003;4.862686e-002
2.391399e+003;4.844382e-002
2.393328e+003;4.832241e-002
2.395257e+003;4.825390e-002
2.397185e+003;4.812129e-002
2.399114e+003;4.833326e-002
2.401042e+003;4.855645e-002
2.402971e+003;4.851866e-002
2.404899e+003;4.833630e-002
2.406828e+003;4.831030e-002
2.408756e+003;4.830867e-002
2.410685e+003;4.840560e-002
2.412614e+003;4.869705e-002
2.414542e+003;4.845719e-002
2.416471e+003;4.816571e-002
2.418399e+003;4.840381e-002
2.420328e+003;4.879003e-002
2.422256e+003;4.865095e-002
2.424185e+003;4.870184e-002
2.426113e+003;4.901965e-002
2.428042e+003;4.905481e-002
2.429970e+003;4.892073e-002
2.431899e+003;4.879295e-002
2.433828e+003;4.862356e-002
2.435756e+003;4.843878e-002
2.437685e+003;4.848394e-002
2.439613e+003;4.837607e-002
2.441542e+003;4.822091e-002
2.443470e+003;4.845879e-002
2.445399e+003;4.857164e-002
2.447327e+003;4.845323e-002
2.449256e+003;4.853952e-002
2.451185e+003;4.893152e-002
2.453113e+003;4.901408e-002
2.455042e+003;4.887393e-002
2.456970e+003;4.871314e-002
2.458899e+003;4.861522e-002
2.460827e+003;4.869761e-002
2.462756e+003;4.881802e-002
2.464684e+003;4.892848e-002
2.466613e+003;4.912051e-002
2.468542e+003;4.919342e-002
2.470470e+003;4.918879e-002
2.472398e+003;4.920511e-002
2.474327e+003;4.938606e-002
2.476256e+003;4.957941e-002
2.478184e+003;4.955308e-002
2.480113e+003;4.969880e-002
2.482041e+003;4.983130e-002
2.483970e+003;4.973060e-002
2.485898e+003;4.990515e-002
2.487827e+003;5.011821e-002
2.489755e+003;5.014915e-002
2.491684e+003;5.011483e-002
2.493613e+003;5.015957e-002
2.495541e+003;5.035475e-002
2.497470e+003;5.065590e-002
2.499398e+003;5.056484e-002
2.501327e+003;5.026449e-002
2.503255e+003;5.004318e-002
2.505184e+003;5.027651e-002
2.507112e+003;5.084877e-002
2.509041e+003;5.092026e-002
2.510969e+003;5.081320e-002
2.512898e+003;5.083100e-002
2.514827e+003;5.074218e-002
2.516755e+003;5.057764e-002
2.518684e+003;5.030832e-002
2.520612e+003;5.009315e-002
2.522541e+003;5.013651e-002
2.524469e+003;5.024485e-002
2.526398e+003;5.016890e-002
2.528326e+003;5.026475e-002
2.530255e+003;5.029824e-002
2.532184e+003;5.012625e-002
2.534112e+003;5.028045e-002
2.536041e+003;5.042418e-002
2.537969e+003;5.028492e-002
2.539898e+003;5.006850e-002
2.541826e+003;4.990013e-002
2.543755e+003;5.001644e-002
2.545683e+003;5.019360e-002
2.547612e+003;5.036342e-002
2.549541e+003;5.024973e-002
2.551469e+003;5.005939e-002
2.553397e+003;5.005827e-002
2.555326e+003;4.999607e-002
2.557255e+003;4.974364e-002
2.559183e+003;4.973465e-002
2.561112e+003;4.970504e-002
2.563040e+003;4.951787e-002
2.564969e+003;4.941910e-002
2.566897e+003;4.934185e-002
2.568826e+003;4.908835e-002
2.570754e+003;4.905225e-002
2.572683e+003;4.919068e-002
2.574612e+003;4.930484e-002
2.576540e+003;4.913179e-002
2.578469e+003;4.895125e-002
2.580397e+003;4.882328e-002
2.582326e+003;4.881142e-002
2.584254e+003;4.878053e-002
2.586183e+003;4.885265e-002
2.588111e+003;4.883819e-002
2.590040e+003;4.864921e-002
2.591969e+003;4.853100e-002
2.593897e+003;4.873353e-002
2.595826e+003;4.886444e-002
2.597754e+003;4.875840e-002
2.599683e+003;4.847468e-002
2.601611e+003;4.834963e-002
2.603540e+003;4.862526e-002
2.605468e+003;4.877657e-002
2.607397e+003;4.886570e-002
2.609325e+003;4.901523e-002
2.611254e+003;4.910345e-002
2.613183e+003;4.903385e-002
2.615111e+003;4.907433e-002
2.617040e+003;4.898467e-002
2.618968e+003;4.878205e-002
2.620897e+003;4.878650e-002
2.622825e+003;4.857261e-002
2.624754e+003;4.846216e-002
2.626682e+003;4.871288e-002
2.628611e+003;4.903894e-002
2.630540e+003;4.934500e-002
2.632468e+003;4.947383e-002
2.634396e+003;4.937529e-002
2.636325e+003;4.921446e-002
2.638254e+003;4.910222e-002
2.640182e+003;4.900526e-002
2.642111e+003;4.880578e-002
2.644039e+003;4.872775e-002
2.645968e+003;4.904817e-002
2.647896e+003;4.901571e-002
2.649825e+003;4.880274e-002
2.651753e+003;4.856957e-002
2.653682e+003;4.864068e-002
2.655611e+003;4.891035e-002
2.657539e+003;4.910790e-002
2.659468e+003;4.918348e-002
2.661396e+003;4.887393e-002
2.663325e+003;4.867241e-002
2.665253e+003;4.886021e-002
2.667182e+003;4.892755e-002
2.669110e+003;4.870195e-002
2.671039e+003;4.854256e-002
2.672968e+003;4.866707e-002
2.674896e+003;4.895088e-002
2.676825e+003;4.883496e-002
2.678753e+003;4.850858e-002
2.680682e+003;4.844227e-002
2.682610e+003;4.858391e-002
2.684539e+003;4.859832e-002
2.686467e+003;4.864495e-002
2.688396e+003;4.875314e-002
2.690324e+003;4.879099e-002
2.692253e+003;4.873008e-002
2.694182e+003;4.862222e-002
2.696110e+003;4.879592e-002
2.698039e+003;4.875477e-002
2.699967e+003;4.856890e-002
2.701896e+003;4.866955e-002
2.703824e+003;4.873894e-002
2.705753e+003;4.880508e-002
2.707681e+003;4.862705e-002
2.709610e+003;4.838074e-002
2.711539e+003;4.824109e-002
2.713467e+003;4.830193e-002
2.715396e+003;4.840241e-002
2.717324e+003;4.831526e-002
2.719253e+003;4.814916e-002
2.721181e+003;4.815431e-002
2.723110e+003;4.825123e-002
2.725038e+003;4.797680e-002
2.726967e+003;4.778989e-002
2.728896e+003;4.796881e-002
2.730824e+003;4.806562e-002
2.732752e+003;4.788437e-002
2.734681e+003;4.796189e-002
2.736610e+003;4.801406e-002
2.738538e+003;4.784542e-002
2.740467e+003;4.786972e-002
2.742395e+003;4.771370e-002
2.744324e+003;4.742013e-002
2.746252e+003;4.764134e-002
2.748181e+003;4.796063e-002
2.750109e+003;4.802372e-002
2.752038e+003;4.781971e-002
2.753967e+003;4.753841e-002
2.755895e+003;4.742963e-002
2.757824e+003;4.775738e-002
2.759752e+003;4.785781e-002
2.761681e+003;4.766885e-002
2.763609e+003;4.770956e-002
2.765538e+003;4.795415e-002
2.767466e+003;4.813110e-002
2.769395e+003;4.823291e-002
2.771323e+003;4.833048e-002
2.773252e+003;4.820925e-002
2.775181e+003;4.813780e-002
2.777109e+003;4.825775e-002
2.779038e+003;4.849572e-002
2.780966e+003;4.862471e-002
2.782895e+003;4.877156e-002
2.784823e+003;4.880289e-002
2.786752e+003;4.884875e-002
2.788680e+003;4.874858e-002
2.790609e+003;4.862156e-002
2.792538e+003;4.905422e-002
2.794466e+003;4.970742e-002
2.796395e+003;4.968327e-002
2.798323e+003;4.954026e-002
2.800252e+003;4.993057e-002
2.802180e+003;5.019970e-002
2.804109e+003;5.030728e-002
2.806037e+003;5.045615e-002
2.807966e+003;5.060195e-002
2.809895e+003;5.076676e-002
2.811823e+003;5.088081e-002
2.813751e+003;5.098297e-002
2.815680e+003;5.085529e-002
2.817609e+003;5.058408e-002
2.819537e+003;5.068573e-002
2.821466e+003;5.078072e-002
2.823394e+003;5.047104e-002
2.825323e+003;5.048008e-002
2.827251e+003;5.085611e-002
2.829180e+003;5.134433e-002
2.831108e+003;5.181566e-002
2.833037e+003;5.219382e-002
2.834966e+003;5.245957e-002
2.836894e+003;5.285820e-002
2.838823e+003;5.334631e-002
2.840751e+003;5.359657e-002
2.842680e+003;5.406041e-002
2.844608e+003;5.521704e-002
2.846537e+003;5.661254e-002
2.848465e+003;5.773994e-002
2.850394e+003;5.848640e-002
2.852323e+003;5.862240e-002
2.854251e+003;5.871563e-002
2.856180e+003;5.882894e-002
2.858108e+003;5.878486e-002
2.860037e+003;5.933388e-002
2.861965e+003;5.969797e-002
2.863894e+003;5.969835e-002
2.865822e+003;6.008054e-002
2.867751e+003;6.032535e-002
2.869679e+003;6.002400e-002
2.871608e+003;5.943516e-002
2.873536e+003;5.929564e-002
2.875465e+003;5.965562e-002
2.877394e+003;5.970085e-002
2.879322e+003;5.923950e-002
2.881251e+003;5.886286e-002
2.883179e+003;5.859813e-002
2.885108e+003;5.834691e-002
2.887036e+003;5.852158e-002
2.888965e+003;5.905099e-002
2.890893e+003;5.930308e-002
2.892822e+003;5.943934e-002
2.894750e+003;5.978945e-002
2.896679e+003;6.031652e-002
2.898608e+003;6.078584e-002
2.900536e+003;6.122340e-002
2.902465e+003;6.170038e-002
2.904393e+003;6.281424e-002
2.906322e+003;6.406164e-002
2.908250e+003;6.507583e-002
2.910179e+003;6.628441e-002
2.912107e+003;6.740715e-002
2.914036e+003;6.891510e-002
2.915965e+003;7.021929e-002
2.917893e+003;7.101511e-002
2.919822e+003;7.162476e-002
2.921750e+003;7.189833e-002
2.923679e+003;7.202551e-002
2.925607e+003;7.198573e-002
2.927536e+003;7.192559e-002
2.929464e+003;7.179935e-002
2.931393e+003;7.168870e-002
2.933322e+003;7.159663e-002
2.935250e+003;7.161609e-002
2.937178e+003;7.120745e-002
2.939107e+003;7.094855e-002
2.941036e+003;7.068977e-002
2.942964e+003;6.987429e-002
2.944893e+003;6.872816e-002
2.946821e+003;6.774972e-002
2.948750e+003;6.705388e-002
2.950678e+003;6.610520e-002
2.952607e+003;6.471202e-002
2.954535e+003;6.358697e-002
2.956464e+003;6.225349e-002
2.958393e+003;6.072761e-002
2.960321e+003;5.908538e-002
2.962250e+003;5.779860e-002
2.964178e+003;5.732176e-002
2.966107e+003;5.782798e-002
2.968035e+003;5.840725e-002
2.969964e+003;5.851969e-002
2.971892e+003;5.835737e-002
2.973821e+003;5.818841e-002
2.975750e+003;5.824460e-002
2.977678e+003;5.844057e-002
2.979607e+003;5.845387e-002
2.981535e+003;5.867417e-002
2.983464e+003;5.871077e-002
2.985392e+003;5.835373e-002
2.987321e+003;5.809598e-002
2.989249e+003;5.825619e-002
2.991178e+003;5.840062e-002
2.993106e+003;5.817098e-002
2.995035e+003;5.749643e-002
2.996964e+003;5.685544e-002
2.998892e+003;5.674325e-002
3.000821e+003;5.682406e-002
3.002749e+003;5.658284e-002
3.004678e+003;5.637623e-002
3.006606e+003;5.616584e-002
3.008535e+003;5.582969e-002
3.010463e+003;5.539452e-002
3.012392e+003;5.507615e-002
3.014321e+003;5.471239e-002
3.016249e+003;5.424106e-002
3.018177e+003;5.415836e-002
3.020106e+003;5.428243e-002
3.022035e+003;5.409475e-002
3.023963e+003;5.356621e-002
3.025892e+003;5.330199e-002
3.027820e+003;5.335481e-002
3.029749e+003;5.340843e-002
3.031677e+003;5.329817e-002
3.033606e+003;5.276218e-002
3.035534e+003;5.239485e-002
3.037463e+003;5.273184e-002
3.039392e+003;5.261599e-002
3.041320e+003;5.218653e-002
3.043249e+003;5.204405e-002
3.045177e+003;5.178359e-002
3.047106e+003;5.186543e-002
3.049034e+003;5.157829e-002
3.050963e+003;5.115858e-002
3.052891e+003;5.102571e-002
3.054820e+003;5.085268e-002
3.056749e+003;5.054217e-002
3.058677e+003;5.045016e-002
3.060606e+003;5.076307e-002
3.062534e+003;5.087436e-002
3.064463e+003;5.076303e-002
3.066391e+003;5.051205e-002
3.068320e+003;5.010568e-002
3.070248e+003;4.978678e-002
3.072177e+003;4.942957e-002
3.074105e+003;4.922708e-002
3.076034e+003;4.941112e-002
3.077963e+003;4.936560e-002
3.079891e+003;4.924716e-002
3.081820e+003;4.925945e-002
3.083748e+003;4.926134e-002
3.085677e+003;4.891680e-002
3.087605e+003;4.840274e-002
3.089534e+003;4.833537e-002
3.091462e+003;4.863887e-002
3.093391e+003;4.891954e-002
3.095320e+003;4.897573e-002
3.097248e+003;4.879247e-002
3.099177e+003;4.861133e-002
3.101105e+003;4.862697e-002
3.103034e+003;4.851821e-002
3.104962e+003;4.832596e-002
3.106891e+003;4.812295e-002
3.108819e+003;4.801377e-002
3.110748e+003;4.817845e-002
3.112677e+003;4.820588e-002
3.114605e+003;4.781190e-002
3.116533e+003;4.744057e-002
3.118462e+003;4.750533e-002
3.120391e+003;4.775013e-002
3.122319e+003;4.748600e-002
3.124248e+003;4.733495e-002
3.126176e+003;4.735114e-002
3.128105e+003;4.714777e-002
3.130033e+003;4.689282e-002
3.131962e+003;4.677387e-002
3.133890e+003;4.670937e-002
3.135819e+003;4.662828e-002
3.137748e+003;4.674881e-002
3.139676e+003;4.716904e-002
3.141605e+003;4.718737e-002
3.143533e+003;4.675121e-002
3.145462e+003;4.632556e-002
3.147390e+003;4.602990e-002
3.149319e+003;4.610170e-002
3.151247e+003;4.663971e-002
3.153176e+003;4.653677e-002
3.155104e+003;4.618266e-002
3.157033e+003;4.651526e-002
3.158962e+003;4.706494e-002
3.160890e+003;4.678365e-002
3.162819e+003;4.639159e-002
3.164747e+003;4.615735e-002
3.166676e+003;4.594617e-002
3.168604e+003;4.616925e-002
3.170533e+003;4.628991e-002
3.172461e+003;4.622497e-002
3.174390e+003;4.594286e-002
3.176319e+003;4.609187e-002
3.178247e+003;4.663322e-002
3.180176e+003;4.667753e-002
3.182104e+003;4.645530e-002
3.184033e+003;4.663577e-002
3.185961e+003;4.695860e-002
3.187890e+003;4.663415e-002
3.189818e+003;4.621336e-002
3.191747e+003;4.628888e-002
3.193676e+003;4.623186e-002
3.195604e+003;4.614537e-002
3.197532e+003;4.618052e-002
3.199461e+003;4.621034e-002
3.201390e+003;4.620890e-002
3.203318e+003;4.633201e-002
3.205247e+003;4.641544e-002
3.207175e+003;4.636220e-002
3.209104e+003;4.653839e-002
3.211032e+003;4.666594e-002
3.212961e+003;4.646198e-002
3.214889e+003;4.634285e-002
3.216818e+003;4.632047e-002
3.218747e+003;4.639505e-002
3.220675e+003;4.654617e-002
3.222604e+003;4.670719e-002
3.224532e+003;4.674778e-002
3.226461e+003;4.706062e-002
3.228389e+003;4.725087e-002
3.230318e+003;4.696794e-002
3.232246e+003;4.666211e-002
3.234175e+003;4.650350e-002
3.236104e+003;4.654477e-002
3.238032e+003;4.701911e-002
3.239961e+003;4.720827e-002
3.241889e+003;4.679000e-002
3.243818e+003;4.644826e-002
3.245746e+003;4.637584e-002
3.247675e+003;4.630337e-002
3.249603e+003;4.636869e-002
3.251532e+003;4.659940e-002
3.253460e+003;4.675594e-002
3.255389e+003;4.680302e-002
3.257318e+003;4.651918e-002
3.259246e+003;4.631358e-002
3.261175e+003;4.650608e-002
3.263103e+003;4.651301e-002
3.265032e+003;4.642643e-002
3.266960e+003;4.611781e-002
3.268889e+003;4.602990e-002
3.270817e+003;4.641832e-002
3.272746e+003;4.632995e-002
3.274675e+003;4.606343e-002
3.276603e+003;4.575672e-002
3.278531e+003;4.560477e-002
3.280460e+003;4.608896e-002
3.282389e+003;4.660179e-002
3.284317e+003;4.644693e-002
3.286246e+003;4.589369e-002
3.288174e+003;4.558320e-002
3.290103e+003;4.548183e-002
3.292031e+003;4.552134e-002
3.293960e+003;4.556797e-002
3.295888e+003;4.552488e-002
3.297817e+003;4.513469e-002
3.299746e+003;4.492335e-002
3.301674e+003;4.497954e-002
3.303603e+003;4.531880e-002
3.305531e+003;4.565074e-002
3.307460e+003;4.552738e-002
3.309388e+003;4.551678e-002
3.311317e+003;4.569668e-002
3.313245e+003;4.576397e-002
3.315174e+003;4.563679e-002
3.317103e+003;4.561997e-002
3.319031e+003;4.546737e-002
3.320960e+003;4.545291e-002
3.322888e+003;4.543547e-002
3.324817e+003;4.543746e-002
3.326745e+003;4.542915e-002
3.328674e+003;4.555744e-002
3.330602e+003;4.542013e-002
3.332531e+003;4.551763e-002
3.334459e+003;4.564470e-002
3.336388e+003;4.529636e-002
3.338317e+003;4.489962e-002
3.340245e+003;4.496612e-002
3.342174e+003;4.497495e-002
3.344102e+003;4.477364e-002
3.346031e+003;4.483646e-002
3.347959e+003;4.474169e-002
3.349888e+003;4.470951e-002
3.351816e+003;4.502581e-002
3.353745e+003;4.516494e-002
3.355674e+003;4.472541e-002
3.357602e+003;4.450741e-002
3.359531e+003;4.488661e-002
3.361459e+003;4.479767e-002
3.363388e+003;4.477945e-002
3.365316e+003;4.488238e-002
3.367245e+003;4.459732e-002
3.369173e+003;4.416772e-002
3.371102e+003;4.450272e-002
3.373031e+003;4.474657e-002
3.374959e+003;4.456729e-002
3.376887e+003;4.431763e-002
3.378816e+003;4.425232e-002
3.380745e+003;4.439950e-002
3.382673e+003;4.452224e-002
3.384602e+003;4.436350e-002
3.386530e+003;4.414172e-002
3.388459e+003;4.402946e-002
3.390387e+003;4.393028e-002
3.392316e+003;4.362291e-002
3.394244e+003;4.378256e-002
3.396173e+003;4.361093e-002
3.398102e+003;4.340751e-002
3.400030e+003;4.329782e-002
3.401959e+003;4.366655e-002
3.403887e+003;4.400438e-002
3.405816e+003;4.392603e-002
3.407744e+003;4.402231e-002
3.409673e+003;4.430387e-002
3.411601e+003;4.375445e-002
3.413530e+003;4.284621e-002
3.415458e+003;4.304571e-002
3.417387e+003;4.411329e-002
3.419316e+003;4.458359e-002
3.421244e+003;4.432783e-002
3.423173e+003;4.425302e-002
3.425101e+003;4.464811e-002
3.427030e+003;4.490053e-002
3.428958e+003;4.452522e-002
3.430887e+003;4.410299e-002
3.432815e+003;4.397845e-002
3.434744e+003;4.412419e-002
3.436673e+003;4.440959e-002
3.438601e+003;4.468076e-002
3.440530e+003;4.460849e-002
3.442458e+003;4.417935e-002
3.444387e+003;4.415433e-002
3.446315e+003;4.423695e-002
3.448244e+003;4.439128e-002
3.450172e+003;4.472182e-002
3.452101e+003;4.480486e-002
3.454030e+003;4.454214e-002
3.455958e+003;4.461036e-002
3.457886e+003;4.478440e-002
3.459815e+003;4.461209e-002
3.461744e+003;4.437708e-002
3.463672e+003;4.425745e-002
3.465601e+003;4.434401e-002
3.467529e+003;4.461792e-002
3.469458e+003;4.461712e-002
3.471386e+003;4.457809e-002
3.473315e+003;4.457540e-002
3.475243e+003;4.464488e-002
3.477172e+003;4.469060e-002
3.479101e+003;4.478885e-002
3.481029e+003;4.494863e-002
3.482958e+003;4.483374e-002
3.484886e+003;4.460823e-002
3.486815e+003;4.418445e-002
3.488743e+003;4.356415e-002
3.490672e+003;4.371022e-002
3.492600e+003;4.462890e-002
3.494529e+003;4.519561e-002
3.496458e+003;4.500464e-002
3.498386e+003;4.499586e-002
3.500315e+003;4.508701e-002
3.502243e+003;4.514435e-002
3.504172e+003;4.543411e-002
3.506100e+003;4.542823e-002
3.508029e+003;4.514329e-002
3.509957e+003;4.505132e-002
3.511886e+003;4.503459e-002
3.513814e+003;4.525330e-002
3.515743e+003;4.592050e-002
3.517672e+003;4.635490e-002
3.519600e+003;4.627318e-002
3.521529e+003;4.637286e-002
3.523457e+003;4.620732e-002
3.525386e+003;4.584033e-002
3.527314e+003;4.618602e-002
3.529243e+003;4.683270e-002
3.531171e+003;4.696739e-002
3.533100e+003;4.680557e-002
3.535029e+003;4.651615e-002
3.536957e+003;4.636449e-002
3.538885e+003;4.665875e-002
3.540814e+003;4.688809e-002
3.542743e+003;4.669000e-002
3.544671e+003;4.616840e-002
3.546600e+003;4.656749e-002
3.548528e+003;4.680645e-002
3.550457e+003;4.608321e-002
3.552385e+003;4.587951e-002
3.554314e+003;4.631019e-002
3.556242e+003;4.661157e-002
3.558171e+003;4.660401e-002
3.560100e+003;4.642614e-002
3.562028e+003;4.632493e-002
3.563957e+003;4.620024e-002
3.565885e+003;4.556197e-002
3.567814e+003;4.555682e-002
3.569742e+003;4.587145e-002
3.571671e+003;4.621528e-002
3.573599e+003;4.625331e-002
3.575528e+003;4.633772e-002
3.577457e+003;4.636788e-002
3.579385e+003;4.588371e-002
3.581314e+003;4.592374e-002
3.583242e+003;4.606055e-002
3.585171e+003;4.505168e-002
3.587099e+003;4.390191e-002
3.589028e+003;4.412272e-002
3.590956e+003;4.542230e-002
3.592885e+003;4.563396e-002
3.594813e+003;4.576526e-002
3.596742e+003;4.634705e-002
3.598671e+003;4.665923e-002
3.600599e+003;4.689131e-002
3.602528e+003;4.706335e-002
3.604456e+003;4.674856e-002
3.606385e+003;4.590360e-002
3.608313e+003;4.506815e-002
3.610242e+003;4.528809e-002
3.612170e+003;4.547429e-002
3.614099e+003;4.553952e-002
3.616028e+003;4.571961e-002
3.617956e+003;4.578536e-002
3.619885e+003;4.606029e-002
3.621813e+003;4.645176e-002
3.623742e+003;4.627812e-002
3.625670e+003;4.524525e-002
3.627599e+003;4.305240e-002
3.629527e+003;4.347911e-002
3.631456e+003;4.614496e-002
3.633385e+003;4.687355e-002
3.635313e+003;4.661865e-002
3.637241e+003;4.650483e-002
3.639170e+003;4.636737e-002
3.641099e+003;4.624760e-002
3.643027e+003;4.642370e-002
3.644956e+003;4.548275e-002
3.646884e+003;4.350676e-002
3.648813e+003;4.202855e-002
3.650741e+003;4.294701e-002
3.652670e+003;4.453050e-002
3.654598e+003;4.415254e-002
3.656527e+003;4.364467e-002
3.658456e+003;4.447952e-002
3.660384e+003;4.456696e-002
3.662313e+003;4.414858e-002
3.664241e+003;4.369996e-002
3.666170e+003;4.297891e-002
3.668098e+003;4.111892e-002
3.670027e+003;3.945511e-002
3.671955e+003;4.032134e-002
3.673884e+003;3.937347e-002
3.675813e+003;3.831526e-002
3.677741e+003;4.046694e-002
3.679669e+003;4.176090e-002
3.681598e+003;4.211262e-002
3.683527e+003;4.170874e-002
3.685455e+003;4.004274e-002
3.687384e+003;3.750983e-002
3.689312e+003;3.779125e-002
3.691241e+003;3.966089e-002
3.693169e+003;4.101614e-002
3.695098e+003;4.171246e-002
3.697026e+003;4.149454e-002
3.698955e+003;4.097467e-002
3.700884e+003;4.045242e-002
3.702812e+003;4.090498e-002
3.704741e+003;4.134448e-002
3.706669e+003;4.064307e-002
3.708598e+003;3.919658e-002
3.710526e+003;3.765644e-002
3.712455e+003;3.791988e-002
3.714383e+003;3.981604e-002
3.716312e+003;4.064264e-002
3.718240e+003;4.078070e-002
3.720169e+003;4.054256e-002
3.722098e+003;4.001411e-002
3.724026e+003;3.997862e-002
3.725955e+003;4.004234e-002
3.727883e+003;4.014856e-002
3.729812e+003;3.933945e-002
3.731740e+003;3.788025e-002
3.733669e+003;3.754462e-002
3.735597e+003;3.724748e-002
3.737526e+003;3.863073e-002
3.739455e+003;4.002342e-002
3.741383e+003;3.887312e-002
3.743312e+003;3.477603e-002
3.745240e+003;3.463128e-002
3.747169e+003;3.653532e-002
3.749097e+003;3.510755e-002
3.751026e+003;3.470263e-002
3.752954e+003;3.720109e-002
3.754883e+003;3.994258e-002
3.756812e+003;3.965915e-002
3.758740e+003;3.943573e-002
3.760668e+003;4.007875e-002
3.762597e+003;4.062074e-002
3.764526e+003;4.008860e-002
3.766454e+003;4.013257e-002
3.768383e+003;3.961632e-002
3.770311e+003;3.954311e-002
3.772240e+003;4.032483e-002
3.774168e+003;4.060309e-002
3.776097e+003;4.020283e-002
3.778025e+003;3.970794e-002
3.779954e+003;3.986216e-002
3.781883e+003;4.032933e-002
3.783811e+003;4.033690e-002
3.785740e+003;4.040980e-002
3.787668e+003;4.069635e-002
3.789597e+003;4.087101e-002
3.791525e+003;4.047781e-002
3.793454e+003;4.011756e-002
3.795382e+003;3.980533e-002
3.797311e+003;3.960586e-002
3.799240e+003;3.784873e-002
3.801168e+003;3.668574e-002
3.803097e+003;3.880362e-002
3.805025e+003;3.939901e-002
3.806954e+003;3.859231e-002
3.808882e+003;4.011942e-002
3.810811e+003;4.108348e-002
3.812739e+003;4.037711e-002
3.814668e+003;3.795651e-002
3.816596e+003;3.731553e-002
3.818525e+003;3.794526e-002
3.820454e+003;3.748902e-002
3.822382e+003;3.897695e-002
3.824311e+003;4.028982e-002
3.826239e+003;4.035868e-002
3.828168e+003;4.047927e-002
3.830096e+003;4.002683e-002
3.832025e+003;3.923357e-002
3.833953e+003;3.909683e-002
3.835882e+003;3.807046e-002
3.837811e+003;3.702851e-002
3.839739e+003;3.837656e-002
3.841667e+003;3.963062e-002
3.843596e+003;4.046526e-002
3.845525e+003;4.099906e-002
3.847453e+003;4.105048e-002
3.849382e+003;3.964706e-002
3.851310e+003;3.566732e-002
3.853239e+003;3.286352e-002
3.855167e+003;3.604275e-002
3.857096e+003;3.992424e-002
3.859024e+003;4.053364e-002
3.860953e+003;3.985425e-002
3.862882e+003;3.924304e-002
3.864810e+003;3.913980e-002
3.866739e+003;3.950435e-002
3.868667e+003;3.832531e-002
3.870596e+003;3.880811e-002
3.872524e+003;4.036060e-002
3.874453e+003;4.035380e-002
3.876381e+003;4.043039e-002
3.878310e+003;4.027200e-002
3.880239e+003;4.021591e-002
3.882167e+003;4.017887e-002
3.884096e+003;3.847249e-002
3.886024e+003;3.845001e-002
3.887953e+003;4.016132e-002
3.889881e+003;3.998516e-002
3.891810e+003;4.006371e-002
3.893738e+003;4.093370e-002
3.895667e+003;4.115330e-002
3.897595e+003;4.054154e-002
3.899524e+003;3.970983e-002
3.901453e+003;3.961468e-002
3.903381e+003;3.961211e-002
3.905310e+003;4.011716e-002
3.907238e+003;4.070846e-002
3.909167e+003;4.105948e-002
3.911095e+003;4.133497e-002
3.913024e+003;4.095759e-002
3.914952e+003;4.039428e-002
3.916881e+003;4.049658e-002
3.918810e+003;4.066149e-002
3.920738e+003;4.102415e-002
3.922667e+003;4.155109e-002
3.924595e+003;4.153297e-002
3.926524e+003;4.186998e-002
3.928452e+003;4.185039e-002
3.930381e+003;4.132335e-002
3.932309e+003;4.108100e-002
3.934238e+003;4.145229e-002
3.936167e+003;4.154843e-002
3.938095e+003;4.131726e-002
3.940023e+003;4.115830e-002
3.941952e+003;4.128297e-002
3.943881e+003;4.157257e-002
3.945809e+003;4.148634e-002
3.947738e+003;4.124234e-002
3.949666e+003;4.091077e-002
3.951595e+003;4.118077e-002
3.953523e+003;4.190742e-002
3.955452e+003;4.248275e-002
3.957380e+003;4.257568e-002
3.959309e+003;4.214409e-002
3.961238e+003;4.187195e-002
3.963166e+003;4.216549e-002
3.965095e+003;4.246280e-002
3.967023e+003;4.252276e-002
3.968952e+003;4.243598e-002
3.970880e+003;4.230422e-002
3.972809e+003;4.194621e-002
3.974737e+003;4.170009e-002
3.976666e+003;4.210211e-002
3.978594e+003;4.184612e-002
3.980523e+003;4.154843e-002
3.982452e+003;4.226942e-002
3.984380e+003;4.253639e-002
3.986309e+003;4.239232e-002
3.988237e+003;4.228888e-002
3.990166e+003;4.176991e-002
3.992094e+003;4.185331e-002
3.994023e+003;4.190866e-002
3.995951e+003;4.175076e-002
3.997880e+003;4.213661e-002
3.999809e+003;4.285243e-002
4.001737e+003;0.000000e+000
