3.992094e+002;0.000000e+000
4.011380e+002;0.000000e+000
4.030665e+002;0.000000e+000
4.049951e+002;0.000000e+000
4.069236e+002;0.000000e+000
4.088522e+002;0.000000e+000
4.107807e+002;0.000000e+000
4.127093e+002;0.000000e+000
4.146378e+002;0.000000e+000
4.165664e+002;0.000000e+000
4.184949e+002;0.000000e+000
4.204235e+002;0.000000e+000
4.223520e+002;0.000000e+000
4.242806e+002;0.000000e+000
4.262091e+002;0.000000e+000
4.281377e+002;0.000000e+000
4.300662e+002;0.000000e+000
4.319948e+002;0.000000e+000
4.339233e+002;0.000000e+000
4.358519e+002;0.000000e+000
4.377804e+002;0.000000e+000
4.397090e+002;0.000000e+000
4.416375e+002;0.000000e+000
4.435660e+002;0.000000e+000
4.454946e+002;0.000000e+000
4.474232e+002;0.000000e+000
4.493517e+002;0.000000e+000
4.512802e+002;0.000000e+000
4.532088e+002;0.000000e+000
4.551373e+002;0.000000e+000
4.570659e+002;0.000000e+000
4.589944e+002;0.000000e+000
4.609230e+002;0.000000e+000
4.628515e+002;0.000000e+000
4.647801e+002;0.000000e+000
4.667086e+002;0.000000e+000
4.686372e+002;0.000000e+000
4.705657e+002;0.000000e+000
4.724943e+002;0.000000e+000
4.744228e+002;0.000000e+000
4.763513e+002;0.000000e+000
4.782799e+002;0.000000e+000
4.802085e+002;0.000000e+000
4.821370e+002;0.000000e+000
4.840656e+002;0.000000e+000
4.859941e+002;0.000000e+000
4.879226e+002;0.000000e+000
4.898512e+002;0.000000e+000
4.917798e+002;0.000000e+000
4.937083e+002;0.000000e+000
4.956368e+002;0.000000e+000
4.975654e+002;0.000000e+000
4.994939e+002;0.000000e+000
5.014225e+002;0.000000e+000
5.033510e+002;0.000000e+000
5.052796e+002;0.000000e+000
5.072081e+002;0.000000e+000
5.091367e+002;0.000000e+000
5.110652e+002;0.000000e+000
5.129938e+002;0.000000e+000
5.149223e+002;0.000000e+000
5.168509e+002;0.000000e+000
5.187794e+002;0.000000e+000
5.207079e+002;0.000000e+000
5.226365e+002;0.000000e+000
5.245651e+002;0.000000e+000
5.264936e+002;0.000000e+000
5.284222e+002;0.000000e+000
5.303507e+002;0.000000e+000
5.322792e+002;0.000000e+000
5.342078e+002;0.000000e+000
5.361364e+002;0.000000e+000
5.380649e+002;0.000000e+000
5.399935e+002;0.000000e+000
5.419220e+002;0.000000e+000
5.438505e+002;0.000000e+000
5.457791e+002;0.000000e+000
5.477076e+002;0.000000e+000
5.496362e+002;0.000000e+000
5.515648e+002;0.000000e+000
5.534933e+002;0.000000e+000
5.554218e+002;0.000000e+000
5.573504e+002;0.000000e+000
5.592789e+002;0.000000e+000
5.612075e+002;0.000000e+000
5.631360e+002;0.000000e+000
5.650646e+002;0.000000e+000
5.669931e+002;0.000000e+000
5.689217e+002;0.000000e+000
5.708502e+002;0.000000e+000
5.727787e+002;0.000000e+000
5.747073e+002;0.000000e+000
5.766359e+002;0.000000e+000
5.785644e+002;0.000000e+000
5.804930e+002;0.000000e+000
5.824215e+002;0.000000e+000
5.843500e+002;0.000000e+000
5.862786e+002;0.000000e+000
5.882072e+002;0.000000e+000
5.901357e+002;0.000000e+000
5.920643e+002;0.000000e+000
5.939928e+002;0.000000e+000
5.959213e+002;0.000000e+000
5.978499e+002;0.000000e+000
5.997784e+002;4.818700e-002
6.017070e+002;4.592846e-002
6.036355e+002;4.343981e-002
6.055641e+002;3.693614e-002
6.074926e+002;3.313604e-002
6.094211e+002;3.289994e-002
6.113497e+002;3.496517e-002
6.132783e+002;3.439143e-002
6.152068e+002;3.327883e-002
6.171354e+002;3.875127e-002
6.190639e+002;4.200939e-002
6.209924e+002;3.836672e-002
6.229210e+002;3.777708e-002
6.248495e+002;3.853234e-002
6.267781e+002;3.962971e-002
6.287067e+002;3.927680e-002
6.306352e+002;4.151427e-002
6.325637e+002;4.223582e-002
6.344923e+002;3.906148e-002
6.364208e+002;3.783838e-002
6.383494e+002;3.947594e-002
6.402780e+002;4.079042e-002
6.422065e+002;3.921181e-002
6.441350e+002;3.705874e-002
6.460636e+002;3.711814e-002
6.479921e+002;3.622107e-002
6.499207e+002;3.544343e-002
6.518492e+002;3.599722e-002
6.537778e+002;3.550598e-002
6.557063e+002;3.596025e-002
6.576349e+002;3.759805e-002
6.595634e+002;3.864268e-002
6.614919e+002;3.858861e-002
6.634205e+002;3.761550e-002
6.653491e+002;3.774350e-002
6.672776e+002;3.704330e-002
6.692062e+002;3.717275e-002
6.711347e+002;3.739562e-002
6.730632e+002;3.675057e-002
6.749918e+002;3.540945e-002
6.769203e+002;3.489012e-002
6.788489e+002;3.503743e-002
6.807775e+002;3.346360e-002
6.827060e+002;3.220836e-002
6.846345e+002;3.156109e-002
6.865631e+002;3.143141e-002
6.884916e+002;3.149329e-002
6.904202e+002;3.108225e-002
6.923488e+002;3.210510e-002
6.942773e+002;3.267944e-002
6.962058e+002;3.144876e-002
6.981344e+002;2.953816e-002
7.000629e+002;2.853846e-002
7.019915e+002;2.798624e-002
7.039200e+002;2.690472e-002
7.058486e+002;2.593561e-002
7.077771e+002;2.617960e-002
7.097057e+002;2.751994e-002
7.116342e+002;2.815877e-002
7.135627e+002;2.962467e-002
7.154913e+002;3.102748e-002
7.174199e+002;3.027658e-002
7.193484e+002;2.975771e-002
7.212770e+002;2.994280e-002
7.232055e+002;2.997120e-002
7.251340e+002;3.019715e-002
7.270626e+002;3.156305e-002
7.289911e+002;3.223773e-002
7.309197e+002;3.350544e-002
7.328483e+002;3.438741e-002
7.347768e+002;3.415837e-002
7.367053e+002;3.436636e-002
7.386339e+002;3.457469e-002
7.405624e+002;3.486592e-002
7.424910e+002;3.615290e-002
7.444196e+002;3.712291e-002
7.463481e+002;3.743672e-002
7.482766e+002;3.707603e-002
7.502052e+002;3.727567e-002
7.521337e+002;3.800832e-002
7.540623e+002;3.812486e-002
7.559908e+002;3.832249e-002
7.579194e+002;3.832408e-002
7.598479e+002;3.859397e-002
7.617765e+002;3.934514e-002
7.637050e+002;3.971107e-002
7.656335e+002;3.977729e-002
7.675621e+002;3.937387e-002
7.694907e+002;3.807820e-002
7.714192e+002;3.734850e-002
7.733478e+002;3.725376e-002
7.752763e+002;3.633082e-002
7.772048e+002;3.464409e-002
7.791334e+002;3.296135e-002
7.810620e+002;3.158055e-002
7.829905e+002;2.934909e-002
7.849191e+002;2.695559e-002
7.868476e+002;2.462991e-002
7.887761e+002;2.123163e-002
7.907047e+002;1.813512e-002
7.926332e+002;1.611748e-002
7.945618e+002;1.386860e-002
7.964903e+002;1.219060e-002
7.984189e+002;1.134896e-002
8.003474e+002;1.111387e-002
8.022759e+002;1.212695e-002
8.042045e+002;1.408027e-002
8.061331e+002;1.452242e-002
8.080616e+002;1.507725e-002
8.099902e+002;1.697252e-002
8.119187e+002;1.899087e-002
8.138472e+002;2.025703e-002
8.157758e+002;2.088609e-002
8.177043e+002;2.202427e-002
8.196329e+002;2.354445e-002
8.215615e+002;2.509894e-002
8.234900e+002;2.731418e-002
8.254185e+002;3.019172e-002
8.273471e+002;3.215169e-002
8.292756e+002;3.344781e-002
8.312042e+002;3.540934e-002
8.331328e+002;3.665506e-002
8.350613e+002;3.745103e-002
8.369898e+002;3.801682e-002
8.389184e+002;3.787833e-002
8.408469e+002;3.747664e-002
8.427755e+002;3.670143e-002
8.447040e+002;3.523345e-002
8.466326e+002;3.398770e-002
8.485611e+002;3.230679e-002
8.504897e+002;3.045212e-002
8.524182e+002;2.918438e-002
8.543467e+002;2.806036e-002
8.562753e+002;2.724393e-002
8.582039e+002;2.706419e-002
8.601324e+002;2.640809e-002
8.620610e+002;2.573780e-002
8.639895e+002;2.549125e-002
8.659180e+002;2.558834e-002
8.678466e+002;2.560120e-002
8.697751e+002;2.513721e-002
8.717037e+002;2.473098e-002
8.736323e+002;2.480023e-002
8.755608e+002;2.516189e-002
8.774893e+002;2.545326e-002
8.794179e+002;2.537355e-002
8.813464e+002;2.533860e-002
8.832750e+002;2.521624e-002
8.852036e+002;2.515044e-002
8.871321e+002;2.536178e-002
8.890606e+002;2.567670e-002
8.909892e+002;2.565118e-002
8.929177e+002;2.543478e-002
8.948463e+002;2.554525e-002
8.967748e+002;2.529140e-002
8.987034e+002;2.458800e-002
9.006319e+002;2.476865e-002
9.025605e+002;2.549163e-002
9.044890e+002;2.573088e-002
9.064175e+002;2.599836e-002
9.083461e+002;2.643465e-002
9.102747e+002;2.651906e-002
9.122032e+002;2.639556e-002
9.141318e+002;2.638503e-002
9.160603e+002;2.662540e-002
9.179888e+002;2.693965e-002
9.199174e+002;2.710274e-002
9.218459e+002;2.755267e-002
9.237745e+002;2.764228e-002
9.257031e+002;2.781728e-002
9.276316e+002;2.807471e-002
9.295601e+002;2.812296e-002
9.314887e+002;2.832691e-002
9.334172e+002;2.902849e-002
9.353458e+002;2.933651e-002
9.372744e+002;2.952369e-002
9.392029e+002;2.993943e-002
9.411314e+002;3.039227e-002
9.430600e+002;3.083741e-002
9.449885e+002;3.112625e-002
9.469171e+002;3.153180e-002
9.488456e+002;3.194680e-002
9.507742e+002;3.208726e-002
9.527027e+002;3.222188e-002
9.546313e+002;3.275596e-002
9.565598e+002;3.331467e-002
9.584883e+002;3.327418e-002
9.604169e+002;3.284616e-002
9.623455e+002;3.192625e-002
9.642740e+002;3.156209e-002
9.662026e+002;3.172962e-002
9.681311e+002;3.100623e-002
9.700596e+002;3.031492e-002
9.719882e+002;3.023836e-002
9.739167e+002;2.994649e-002
9.758453e+002;2.958643e-002
9.777739e+002;2.925516e-002
9.797024e+002;2.899969e-002
9.816309e+002;2.905669e-002
9.835595e+002;2.950173e-002
9.854880e+002;2.976325e-002
9.874166e+002;2.939777e-002
9.893452e+002;2.899324e-002
9.912737e+002;2.876006e-002
9.932022e+002;2.869488e-002
9.951307e+002;2.859005e-002
9.970593e+002;2.851946e-002
9.989879e+002;2.859415e-002
1.000916e+003;2.864979e-002
1.002845e+003;2.860891e-002
1.004773e+003;2.855710e-002
1.006702e+003;2.762265e-002
1.008631e+003;2.653167e-002
1.010559e+003;2.591316e-002
1.012488e+003;2.537141e-002
1.014416e+003;2.524539e-002
1.016345e+003;2.582447e-002
1.018273e+003;2.679168e-002
1.020202e+003;2.812904e-002
1.022130e+003;2.976186e-002
1.024059e+003;3.141114e-002
1.025988e+003;3.256853e-002
1.027916e+003;3.428194e-002
1.029845e+003;3.701382e-002
1.031773e+003;4.039188e-002
1.033702e+003;4.319076e-002
1.035630e+003;4.543271e-002
1.037559e+003;4.718371e-002
1.039487e+003;4.794464e-002
1.041416e+003;4.835366e-002
1.043344e+003;4.891416e-002
1.045273e+003;4.959976e-002
1.047202e+003;5.043773e-002
1.049130e+003;5.104676e-002
1.051059e+003;5.178792e-002
1.052987e+003;5.291313e-002
1.054916e+003;5.367901e-002
1.056844e+003;5.464576e-002
1.058773e+003;5.681378e-002
1.060701e+003;5.920430e-002
1.062630e+003;6.137400e-002
1.064558e+003;6.274448e-002
1.066487e+003;6.336704e-002
1.068416e+003;6.393210e-002
1.070344e+003;6.426341e-002
1.072273e+003;6.392680e-002
1.074201e+003;6.262898e-002
1.076130e+003;6.158567e-002
1.078058e+003;6.039621e-002
1.079987e+003;5.844856e-002
1.081915e+003;5.655193e-002
1.083844e+003;5.428510e-002
1.085773e+003;5.208962e-002
1.087701e+003;5.054358e-002
1.089630e+003;4.944216e-002
1.091558e+003;4.773482e-002
1.093487e+003;4.598102e-002
1.095415e+003;4.522737e-002
1.097344e+003;4.518575e-002
1.099272e+003;4.522421e-002
1.101201e+003;4.509568e-002
1.103129e+003;4.511774e-002
1.105058e+003;4.507969e-002
1.106987e+003;4.490160e-002
1.108915e+003;4.467910e-002
1.110844e+003;4.437319e-002
1.112772e+003;4.418581e-002
1.114701e+003;4.401296e-002
1.116629e+003;4.348504e-002
1.118558e+003;4.309020e-002
1.120486e+003;4.263807e-002
1.122415e+003;4.120234e-002
1.124344e+003;3.940326e-002
1.126272e+003;3.752543e-002
1.128201e+003;3.615102e-002
1.130129e+003;3.493131e-002
1.132058e+003;3.394990e-002
1.133986e+003;3.339789e-002
1.135915e+003;3.338555e-002
1.137843e+003;3.362088e-002
1.139772e+003;3.409811e-002
1.141700e+003;3.538127e-002
1.143629e+003;3.793672e-002
1.145557e+003;4.099684e-002
1.147486e+003;4.439411e-002
1.149415e+003;4.843667e-002
1.151343e+003;5.316962e-002
1.153272e+003;5.806227e-002
1.155200e+003;6.346569e-002
1.157129e+003;6.873100e-002
1.159057e+003;7.382627e-002
1.160986e+003;7.935709e-002
1.162914e+003;8.382780e-002
1.164843e+003;8.708363e-002
1.166771e+003;8.906845e-002
1.168700e+003;9.012937e-002
1.170629e+003;9.057095e-002
1.172557e+003;8.973920e-002
1.174486e+003;8.796500e-002
1.176414e+003;8.621520e-002
1.178343e+003;8.446381e-002
1.180271e+003;8.244123e-002
1.182200e+003;8.040138e-002
1.184128e+003;7.833785e-002
1.186057e+003;7.704058e-002
1.187986e+003;7.722531e-002
1.189914e+003;7.785890e-002
1.191843e+003;7.853489e-002
1.193771e+003;7.951424e-002
1.195700e+003;8.094051e-002
1.197628e+003;8.225466e-002
1.199557e+003;8.275196e-002
1.201485e+003;8.294640e-002
1.203414e+003;8.313598e-002
1.205343e+003;8.342393e-002
1.207271e+003;8.356666e-002
1.209200e+003;8.316821e-002
1.211128e+003;8.295558e-002
1.213057e+003;8.293998e-002
1.214985e+003;8.310621e-002
1.216914e+003;8.389512e-002
1.218842e+003;8.455095e-002
1.220771e+003;8.479255e-002
1.222699e+003;8.508136e-002
1.224628e+003;8.525745e-002
1.226557e+003;8.511667e-002
1.228485e+003;8.492513e-002
1.230414e+003;8.457366e-002
1.232342e+003;8.386273e-002
1.234271e+003;8.336319e-002
1.236199e+003;8.279839e-002
1.238128e+003;8.175049e-002
1.240056e+003;8.066390e-002
1.241985e+003;8.021122e-002
1.243913e+003;8.003160e-002
1.245842e+003;7.937630e-002
1.247771e+003;7.814543e-002
1.249699e+003;7.693844e-002
1.251628e+003;7.582834e-002
1.253556e+003;7.322988e-002
1.255485e+003;6.894438e-002
1.257413e+003;6.510235e-002
1.259342e+003;6.262512e-002
1.261270e+003;6.189127e-002
1.263199e+003;6.283128e-002
1.265127e+003;6.518605e-002
1.267056e+003;6.807400e-002
1.268985e+003;7.022310e-002
1.270913e+003;7.139221e-002
1.272842e+003;7.149462e-002
1.274770e+003;7.056677e-002
1.276699e+003;6.915223e-002
1.278627e+003;6.760641e-002
1.280556e+003;6.621563e-002
1.282484e+003;6.459274e-002
1.284413e+003;6.300366e-002
1.286342e+003;6.180516e-002
1.288270e+003;6.063331e-002
1.290199e+003;5.928189e-002
1.292127e+003;5.820372e-002
1.294056e+003;5.701365e-002
1.295984e+003;5.585705e-002
1.297913e+003;5.523826e-002
1.299841e+003;5.502620e-002
1.301770e+003;5.443377e-002
1.303698e+003;5.369389e-002
1.305627e+003;5.319603e-002
1.307556e+003;5.291665e-002
1.309484e+003;5.278586e-002
1.311413e+003;5.249516e-002
1.313341e+003;5.220469e-002
1.315270e+003;5.193622e-002
1.317198e+003;5.142903e-002
1.319127e+003;5.149591e-002
1.321055e+003;5.224542e-002
1.322984e+003;5.257234e-002
1.324912e+003;5.259179e-002
1.326841e+003;5.312315e-002
1.328770e+003;5.389683e-002
1.330698e+003;5.418426e-002
1.332627e+003;5.407020e-002
1.334555e+003;5.415296e-002
1.336484e+003;5.433429e-002
1.338412e+003;5.462927e-002
1.340341e+003;5.540834e-002
1.342269e+003;5.640555e-002
1.344198e+003;5.729310e-002
1.346126e+003;5.836514e-002
1.348055e+003;5.931823e-002
1.349984e+003;5.994636e-002
1.351912e+003;6.069754e-002
1.353841e+003;6.115389e-002
1.355769e+003;6.137251e-002
1.357698e+003;6.134275e-002
1.359626e+003;6.084122e-002
1.361555e+003;6.023018e-002
1.363483e+003;5.989460e-002
1.365412e+003;5.992962e-002
1.367341e+003;5.928789e-002
1.369269e+003;5.815204e-002
1.371198e+003;5.700307e-002
1.373126e+003;5.565188e-002
1.375055e+003;5.481365e-002
1.376983e+003;5.426246e-002
1.378912e+003;5.332937e-002
1.380840e+003;5.217121e-002
1.382769e+003;5.060768e-002
1.384698e+003;4.856353e-002
1.386626e+003;4.602578e-002
1.388555e+003;4.388981e-002
1.390483e+003;4.192293e-002
1.392412e+003;3.897289e-002
1.394340e+003;3.545345e-002
1.396269e+003;3.322167e-002
1.398197e+003;3.141944e-002
1.400126e+003;3.039728e-002
1.402054e+003;2.994560e-002
1.403983e+003;2.915480e-002
1.405911e+003;2.888242e-002
1.407840e+003;2.891111e-002
1.409769e+003;2.887127e-002
1.411697e+003;2.921933e-002
1.413626e+003;2.995938e-002
1.415554e+003;3.062413e-002
1.417483e+003;3.055520e-002
1.419411e+003;3.160634e-002
1.421340e+003;3.553295e-002
1.423268e+003;3.999152e-002
1.425197e+003;4.566112e-002
1.427125e+003;5.280409e-002
1.429054e+003;6.016689e-002
1.430983e+003;6.785217e-002
1.432911e+003;7.528616e-002
1.434840e+003;8.105878e-002
1.436768e+003;8.650168e-002
1.438697e+003;9.401450e-002
1.440625e+003;1.011990e-001
1.442554e+003;1.073909e-001
1.444482e+003;1.129405e-001
1.446411e+003;1.172587e-001
1.448340e+003;1.205669e-001
1.450268e+003;1.224289e-001
1.452197e+003;1.213895e-001
1.454125e+003;1.166269e-001
1.456054e+003;1.078555e-001
1.457982e+003;9.994565e-002
1.459911e+003;9.313432e-002
1.461839e+003;8.399992e-002
1.463768e+003;7.310887e-002
1.465697e+003;6.378528e-002
1.467625e+003;5.688951e-002
1.469554e+003;5.004403e-002
1.471482e+003;4.276704e-002
1.473411e+003;3.777289e-002
1.475339e+003;3.509146e-002
1.477268e+003;3.251610e-002
1.479196e+003;3.025651e-002
1.481125e+003;2.866168e-002
1.483053e+003;2.768568e-002
1.484982e+003;2.653195e-002
1.486911e+003;2.487692e-002
1.488839e+003;2.295485e-002
1.490768e+003;2.230650e-002
1.492696e+003;2.251656e-002
1.494625e+003;2.087531e-002
1.496553e+003;1.944529e-002
1.498482e+003;2.003754e-002
1.500410e+003;2.068511e-002
1.502339e+003;2.038369e-002
1.504267e+003;1.744298e-002
1.506196e+003;1.446593e-002
1.508125e+003;1.612026e-002
1.510053e+003;1.851714e-002
1.511982e+003;1.912021e-002
1.513910e+003;1.960097e-002
1.515839e+003;1.932919e-002
1.517767e+003;1.915753e-002
1.519696e+003;1.804165e-002
1.521624e+003;1.722315e-002
1.523553e+003;1.894878e-002
1.525481e+003;1.994997e-002
1.527410e+003;2.089224e-002
1.529339e+003;2.185343e-002
1.531267e+003;2.195159e-002
1.533196e+003;2.177653e-002
1.535124e+003;2.319448e-002
1.537053e+003;2.274328e-002
1.538981e+003;1.999455e-002
1.540910e+003;2.065724e-002
1.542838e+003;2.318749e-002
1.544767e+003;2.465586e-002
1.546695e+003;2.556015e-002
1.548624e+003;2.552347e-002
1.550553e+003;2.537285e-002
1.552481e+003;2.490987e-002
1.554410e+003;2.389807e-002
1.556338e+003;2.187287e-002
1.558267e+003;1.802303e-002
1.560195e+003;1.873700e-002
1.562124e+003;2.228752e-002
1.564052e+003;2.282464e-002
1.565981e+003;2.213617e-002
1.567910e+003;2.096244e-002
1.569838e+003;2.006377e-002
1.571767e+003;2.084729e-002
1.573695e+003;2.041772e-002
1.575624e+003;1.842078e-002
1.577552e+003;1.955508e-002
1.579481e+003;2.128908e-002
1.581409e+003;2.111240e-002
1.583338e+003;2.032448e-002
1.585266e+003;1.947401e-002
1.587195e+003;1.881817e-002
1.589124e+003;1.827862e-002
1.591052e+003;1.793615e-002
1.592981e+003;1.752470e-002
1.594909e+003;1.760401e-002
1.596838e+003;1.817955e-002
1.598766e+003;1.902839e-002
1.600695e+003;1.959348e-002
1.602623e+003;2.002754e-002
1.604552e+003;2.039140e-002
1.606480e+003;2.062312e-002
1.608409e+003;2.083043e-002
1.610338e+003;2.090545e-002
1.612266e+003;2.076977e-002
1.614195e+003;1.963536e-002
1.616123e+003;1.764649e-002
1.618052e+003;1.860999e-002
1.619980e+003;2.030240e-002
1.621909e+003;1.988173e-002
1.623837e+003;1.976042e-002
1.625766e+003;2.052751e-002
1.627694e+003;2.089592e-002
1.629623e+003;2.141590e-002
1.631552e+003;2.169801e-002
1.633480e+003;2.016177e-002
1.635409e+003;1.865302e-002
1.637337e+003;2.055100e-002
1.639266e+003;2.251782e-002
1.641194e+003;2.294115e-002
1.643123e+003;2.256333e-002
1.645051e+003;2.125901e-002
1.646980e+003;2.128574e-002
1.648909e+003;2.312525e-002
1.650837e+003;2.150039e-002
1.652766e+003;1.826957e-002
1.654694e+003;2.230970e-002
1.656623e+003;2.703073e-002
1.658551e+003;2.834116e-002
1.660480e+003;2.838184e-002
1.662408e+003;2.847307e-002
1.664337e+003;2.995565e-002
1.666266e+003;3.078267e-002
1.668194e+003;2.966451e-002
1.670123e+003;2.900674e-002
1.672051e+003;2.920940e-002
1.673980e+003;2.778839e-002
1.675908e+003;2.681247e-002
1.677837e+003;2.758067e-002
1.679765e+003;2.702142e-002
1.681694e+003;2.442677e-002
1.683622e+003;2.001661e-002
1.685551e+003;1.971926e-002
1.687479e+003;2.206526e-002
1.689408e+003;2.239534e-002
1.691337e+003;2.208597e-002
1.693265e+003;2.065578e-002
1.695194e+003;1.836613e-002
1.697122e+003;1.922389e-002
1.699051e+003;1.924564e-002
1.700979e+003;2.036844e-002
1.702908e+003;2.496795e-002
1.704836e+003;2.820211e-002
1.706765e+003;3.222759e-002
1.708693e+003;3.759187e-002
1.710622e+003;4.406796e-002
1.712551e+003;5.079968e-002
1.714479e+003;5.749291e-002
1.716408e+003;6.419526e-002
1.718336e+003;7.324090e-002
1.720265e+003;8.406671e-002
1.722193e+003;9.276491e-002
1.724122e+003;9.957182e-002
1.726050e+003;1.050080e-001
1.727979e+003;1.082318e-001
1.729908e+003;1.094727e-001
1.731836e+003;1.076741e-001
1.733765e+003;1.037097e-001
1.735693e+003;1.018927e-001
1.737622e+003;9.812845e-002
1.739550e+003;9.080098e-002
1.741479e+003;8.313566e-002
1.743407e+003;7.491370e-002
1.745336e+003;6.612951e-002
1.747265e+003;5.687523e-002
1.749193e+003;4.750928e-002
1.751122e+003;3.886138e-002
1.753050e+003;3.228341e-002
1.754979e+003;2.600656e-002
1.756907e+003;2.023977e-002
1.758836e+003;1.566700e-002
1.760764e+003;1.126781e-002
1.762693e+003;8.404198e-003
1.764621e+003;6.760735e-003
1.766550e+003;4.545942e-003
1.768479e+003;2.839106e-003
1.770407e+003;1.010936e-003
1.772336e+003;-6.928762e-004
1.774264e+003;-2.895612e-004
1.776193e+003;7.300042e-005
1.778121e+003;-2.068397e-004
1.780050e+003;-8.210139e-004
1.781978e+003;-1.136500e-003
1.783907e+003;-1.356838e-003
1.785835e+003;-1.625690e-003
1.787764e+003;-1.666918e-003
1.789693e+003;-2.275242e-003
1.791621e+003;-3.735589e-003
1.793550e+003;-3.900827e-003
1.795478e+003;-2.987602e-003
1.797407e+003;-3.122203e-003
1.799335e+003;-3.794617e-003
1.801264e+003;-4.075981e-003
1.803192e+003;-3.638210e-003
1.805121e+003;-3.419290e-003
1.807049e+003;-3.740221e-003
1.808978e+003;-4.124592e-003
1.810907e+003;-4.254477e-003
1.812835e+003;-4.158396e-003
1.814764e+003;-4.052019e-003
1.816692e+003;-4.199515e-003
1.818621e+003;-4.352801e-003
1.820549e+003;-4.402758e-003
1.822478e+003;-4.462220e-003
1.824406e+003;-4.935068e-003
1.826335e+003;-5.081184e-003
1.828264e+003;-5.599220e-003
1.830192e+003;-5.998356e-003
1.832121e+003;-5.397617e-003
1.834049e+003;-4.948532e-003
1.835978e+003;-5.055705e-003
1.837906e+003;-5.274456e-003
1.839835e+003;-5.323882e-003
1.841763e+003;-5.794878e-003
1.843692e+003;-6.687250e-003
1.845620e+003;-6.149472e-003
1.847549e+003;-5.602458e-003
1.849478e+003;-5.696880e-003
1.851406e+003;-5.817764e-003
1.853335e+003;-5.799063e-003
1.855263e+003;-5.791543e-003
1.857192e+003;-5.947242e-003
1.859120e+003;-6.099487e-003
1.861049e+003;-5.957047e-003
1.862977e+003;-5.870625e-003
1.864906e+003;-6.079655e-003
1.866834e+003;-6.488272e-003
1.868763e+003;-6.891125e-003
1.870692e+003;-6.587625e-003
1.872620e+003;-6.366661e-003
1.874549e+003;-6.404046e-003
1.876477e+003;-6.279505e-003
1.878406e+003;-6.428075e-003
1.880334e+003;-6.725846e-003
1.882263e+003;-6.824167e-003
1.884191e+003;-6.552443e-003
1.886120e+003;-6.617747e-003
1.888048e+003;-6.869013e-003
1.889977e+003;-6.762287e-003
1.891906e+003;-6.497902e-003
1.893834e+003;-6.466336e-003
1.895763e+003;-6.428401e-003
1.897691e+003;-6.317224e-003
1.899620e+003;-6.472212e-003
1.901548e+003;-6.782153e-003
1.903477e+003;-6.681474e-003
1.905405e+003;-6.475477e-003
1.907334e+003;-6.548559e-003
1.909262e+003;-6.961693e-003
1.911191e+003;-7.159932e-003
1.913120e+003;-6.929443e-003
1.915048e+003;-6.743692e-003
1.916977e+003;-7.306018e-003
1.918905e+003;-7.238504e-003
1.920834e+003;-6.695798e-003
1.922762e+003;-6.561810e-003
1.924691e+003;-6.596339e-003
1.926619e+003;-6.664312e-003
1.928548e+003;-6.503843e-003
1.930477e+003;-6.375347e-003
1.932405e+003;-6.587919e-003
1.934334e+003;-6.838322e-003
1.936262e+003;-6.785285e-003
1.938191e+003;-6.881080e-003
1.940119e+003;-7.187601e-003
1.942048e+003;-7.256035e-003
1.943976e+003;-6.987582e-003
1.945905e+003;-6.684541e-003
1.947833e+003;-6.522970e-003
1.949762e+003;-6.486804e-003
1.951691e+003;-6.804856e-003
1.953619e+003;-6.905442e-003
1.955548e+003;-6.838746e-003
1.957476e+003;-6.652108e-003
1.959405e+003;-6.581947e-003
1.961333e+003;-6.635238e-003
1.963262e+003;-6.691850e-003
1.965190e+003;-6.859164e-003
1.967119e+003;-6.744703e-003
1.969047e+003;-6.414918e-003
1.970976e+003;-6.444366e-003
1.972905e+003;-6.483898e-003
1.974833e+003;-6.327576e-003
1.976762e+003;-6.513864e-003
1.978690e+003;-6.480862e-003
1.980619e+003;-6.200628e-003
1.982547e+003;-6.082236e-003
1.984476e+003;-5.813743e-003
1.986404e+003;-5.875398e-003
1.988333e+003;-6.196937e-003
1.990261e+003;-6.342009e-003
1.992190e+003;-6.285481e-003
1.994119e+003;-6.203273e-003
1.996047e+003;-6.053025e-003
1.997976e+003;-6.058547e-003
1.999904e+003;-6.080701e-003
2.001833e+003;-5.930442e-003
2.003761e+003;-5.819038e-003
2.005690e+003;-5.763097e-003
2.007618e+003;-5.931979e-003
2.009547e+003;-6.011264e-003
2.011476e+003;-5.819202e-003
2.013404e+003;-5.678141e-003
2.015333e+003;-5.640073e-003
2.017261e+003;-5.802594e-003
2.019190e+003;-5.872946e-003
2.021118e+003;-5.731478e-003
2.023047e+003;-5.801972e-003
2.024975e+003;-5.948778e-003
2.026904e+003;-5.752569e-003
2.028833e+003;-5.639648e-003
2.030761e+003;-5.850652e-003
2.032690e+003;-5.832639e-003
2.034618e+003;-5.608183e-003
2.036547e+003;-5.769604e-003
2.038475e+003;-5.887754e-003
2.040404e+003;-5.761986e-003
2.042332e+003;-5.578384e-003
2.044261e+003;-5.525127e-003
2.046189e+003;-5.428247e-003
2.048118e+003;-5.535661e-003
2.050047e+003;-5.531048e-003
2.051975e+003;-5.369244e-003
2.053904e+003;-5.446996e-003
2.055832e+003;-5.653417e-003
2.057761e+003;-5.798245e-003
2.059689e+003;-5.764176e-003
2.061618e+003;-5.660187e-003
2.063546e+003;-5.593366e-003
2.065475e+003;-5.740863e-003
2.067404e+003;-5.823223e-003
2.069332e+003;-5.754269e-003
2.071260e+003;-5.698973e-003
2.073189e+003;-5.603996e-003
2.075118e+003;-5.536119e-003
2.077046e+003;-5.344633e-003
2.078975e+003;-5.388094e-003
2.080903e+003;-5.823746e-003
2.082832e+003;-5.979990e-003
2.084760e+003;-5.891579e-003
2.086689e+003;-5.618126e-003
2.088617e+003;-5.339527e-003
2.090546e+003;-5.270266e-003
2.092475e+003;-5.219427e-003
2.094403e+003;-5.072506e-003
2.096332e+003;-5.024886e-003
2.098260e+003;-5.200700e-003
2.100189e+003;-5.278810e-003
2.102117e+003;-5.225352e-003
2.104046e+003;-5.341196e-003
2.105974e+003;-5.431519e-003
2.107903e+003;-5.338283e-003
2.109832e+003;-5.180401e-003
2.111760e+003;-5.259431e-003
2.113688e+003;-5.524538e-003
2.115617e+003;-5.667513e-003
2.117546e+003;-5.471994e-003
2.119474e+003;-5.343061e-003
2.121403e+003;-5.570926e-003
2.123331e+003;-5.742726e-003
2.125260e+003;-5.657080e-003
2.127188e+003;-5.582408e-003
2.129117e+003;-5.439536e-003
2.131045e+003;-5.118123e-003
2.132974e+003;-5.241263e-003
2.134903e+003;-5.449810e-003
2.136831e+003;-5.409791e-003
2.138760e+003;-5.127750e-003
2.140688e+003;-5.180663e-003
2.142617e+003;-5.387243e-003
2.144545e+003;-5.298188e-003
2.146474e+003;-5.253506e-003
2.148402e+003;-5.379815e-003
2.150331e+003;-5.228724e-003
2.152260e+003;-4.858960e-003
2.154188e+003;-4.908597e-003
2.156117e+003;-4.964092e-003
2.158045e+003;-4.705788e-003
2.159974e+003;-4.854504e-003
2.161902e+003;-4.995211e-003
2.163831e+003;-4.478748e-003
2.165759e+003;-4.335677e-003
2.167688e+003;-4.648883e-003
2.169616e+003;-4.700970e-003
2.171545e+003;-4.671928e-003
2.173474e+003;-4.693562e-003
2.175402e+003;-4.547840e-003
2.177331e+003;-4.157674e-003
2.179259e+003;-3.919347e-003
2.181188e+003;-3.798000e-003
2.183116e+003;-3.587343e-003
2.185045e+003;-3.135855e-003
2.186973e+003;-2.653073e-003
2.188902e+003;-2.344323e-003
2.190831e+003;-1.884611e-003
2.192759e+003;-1.611529e-003
2.194688e+003;-1.706558e-003
2.196616e+003;-1.726096e-003
2.198545e+003;-1.725997e-003
2.200473e+003;-1.904405e-003
2.202402e+003;-1.922384e-003
2.204330e+003;-1.914962e-003
2.206259e+003;-1.674741e-003
2.208188e+003;-1.505648e-003
2.210116e+003;-1.506738e-003
2.212044e+003;-1.213197e-003
2.213973e+003;-1.033810e-003
2.215902e+003;-9.467003e-004
2.217830e+003;-6.379909e-004
2.219759e+003;-1.326153e-004
2.221687e+003;4.393144e-004
2.223616e+003;1.340151e-003
2.225544e+003;3.071827e-003
2.227473e+003;6.212825e-003
2.229401e+003;1.155709e-002
2.231330e+003;2.003438e-002
2.233259e+003;3.224008e-002
2.235187e+003;4.714988e-002
2.237116e+003;6.196705e-002
2.239044e+003;7.433712e-002
2.240973e+003;8.211161e-002
2.242901e+003;8.497953e-002
2.244830e+003;8.401902e-002
2.246758e+003;7.989752e-002
2.248687e+003;7.306676e-002
2.250615e+003;6.457313e-002
2.252544e+003;5.556112e-002
2.254473e+003;4.656852e-002
2.256401e+003;3.807447e-002
2.258330e+003;3.024379e-002
2.260258e+003;2.356464e-002
2.262187e+003;1.826767e-002
2.264115e+003;1.388009e-002
2.266044e+003;1.049924e-002
2.267972e+003;7.887615e-003
2.269901e+003;5.990778e-003
2.271830e+003;4.532215e-003
2.273758e+003;3.420843e-003
2.275687e+003;2.602842e-003
2.277615e+003;1.845472e-003
2.279544e+003;1.188785e-003
2.281472e+003;6.475240e-004
2.283401e+003;3.301405e-004
2.285329e+003;1.934465e-004
2.287258e+003;3.876700e-006
2.289187e+003;-7.759299e-005
2.291115e+003;6.335691e-005
2.293043e+003;-4.456300e-005
2.294972e+003;-3.343594e-004
2.296901e+003;-4.046100e-004
2.298829e+003;-4.769675e-004
2.300758e+003;-6.706450e-004
2.302686e+003;-8.545471e-004
2.304615e+003;-9.253749e-004
2.306543e+003;-8.742226e-004
2.308472e+003;-1.025645e-003
2.310400e+003;-1.341148e-003
2.312329e+003;-1.441718e-003
2.314258e+003;-1.480025e-003
2.316186e+003;-1.398289e-003
2.318115e+003;-1.338505e-003
2.320043e+003;-1.429962e-003
2.321972e+003;-1.715865e-003
2.323900e+003;-2.138334e-003
2.325829e+003;-2.387921e-003
2.327757e+003;-2.616385e-003
2.329686e+003;-2.723641e-003
2.331615e+003;-2.526628e-003
2.333543e+003;-2.477443e-003
2.335472e+003;-2.372795e-003
2.337400e+003;-2.499285e-003
2.339329e+003;-2.729469e-003
2.341257e+003;-2.793506e-003
2.343186e+003;-2.567474e-003
2.345114e+003;-2.152610e-003
2.347043e+003;-1.767710e-003
2.348971e+003;-1.388150e-003
2.350900e+003;-1.553491e-003
2.352829e+003;-1.924594e-003
2.354757e+003;-2.261200e-003
2.356686e+003;-2.681559e-003
2.358614e+003;-3.011623e-003
2.360543e+003;-3.221540e-003
2.362471e+003;-3.385198e-003
2.364400e+003;-3.384870e-003
2.366328e+003;-2.962263e-003
2.368257e+003;-2.511738e-003
2.370186e+003;-2.194019e-003
2.372114e+003;-1.921658e-003
2.374042e+003;-1.585977e-003
2.375971e+003;-1.386829e-003
2.377900e+003;-1.439704e-003
2.379828e+003;-1.346532e-003
2.381757e+003;-1.194032e-003
2.383685e+003;-1.112243e-003
2.385614e+003;-1.125033e-003
2.387542e+003;-1.223340e-003
2.389471e+003;-1.176882e-003
2.391399e+003;-1.162640e-003
2.393328e+003;-1.305736e-003
2.395257e+003;-1.436302e-003
2.397185e+003;-1.487388e-003
2.399114e+003;-1.594197e-003
2.401042e+003;-1.565541e-003
2.402971e+003;-1.528827e-003
2.404899e+003;-1.430325e-003
2.406828e+003;-1.415199e-003
2.408756e+003;-1.433792e-003
2.410685e+003;-1.190562e-003
2.412614e+003;-1.009348e-003
2.414542e+003;-1.096247e-003
2.416471e+003;-1.081869e-003
2.418399e+003;-1.074135e-003
2.420328e+003;-1.244155e-003
2.422256e+003;-1.329587e-003
2.424185e+003;-1.093041e-003
2.426113e+003;-1.007695e-003
2.428042e+003;-1.139706e-003
2.429970e+003;-1.361033e-003
2.431899e+003;-1.487917e-003
2.433828e+003;-1.418403e-003
2.435756e+003;-1.408396e-003
2.437685e+003;-1.502314e-003
2.439613e+003;-1.471076e-003
2.441542e+003;-1.425272e-003
2.443470e+003;-1.420615e-003
2.445399e+003;-1.468830e-003
2.447327e+003;-1.484284e-003
2.449256e+003;-1.362321e-003
2.451185e+003;-1.180749e-003
2.453113e+003;-1.107748e-003
2.455042e+003;-1.233517e-003
2.456970e+003;-1.437359e-003
2.458899e+003;-1.503601e-003
2.460827e+003;-1.350793e-003
2.462756e+003;-1.145489e-003
2.464684e+003;-1.061740e-003
2.466613e+003;-1.165680e-003
2.468542e+003;-1.372791e-003
2.470470e+003;-1.177345e-003
2.472398e+003;-8.507111e-004
2.474327e+003;-8.726023e-004
2.476256e+003;-7.755383e-004
2.478184e+003;-6.516881e-004
2.480113e+003;-7.029989e-004
2.482041e+003;-7.492760e-004
2.483970e+003;-7.117321e-004
2.485898e+003;-6.314731e-004
2.487827e+003;-5.605312e-004
2.489755e+003;-6.068565e-004
2.491684e+003;-3.860387e-004
2.493613e+003;1.236076e-004
2.495541e+003;4.866803e-004
2.497470e+003;5.404873e-004
2.499398e+003;3.305716e-004
2.501327e+003;7.926385e-005
2.503255e+003;-1.628564e-004
2.505184e+003;-0.000000e+000
2.507112e+003;4.952385e-004
2.509041e+003;5.989461e-004
2.510969e+003;5.977848e-004
2.512898e+003;6.345827e-004
2.514827e+003;6.759632e-004
2.516755e+003;5.893905e-004
2.518684e+003;3.293115e-004
2.520612e+003;1.308814e-005
2.522541e+003;2.146291e-004
2.524469e+003;4.321503e-004
2.526398e+003;3.630025e-004
2.528326e+003;4.585189e-004
2.530255e+003;4.680716e-004
2.532184e+003;3.079575e-004
2.534112e+003;4.158987e-004
2.536041e+003;5.807640e-004
2.537969e+003;4.237923e-004
2.539898e+003;2.690323e-004
2.541826e+003;2.236461e-004
2.543755e+003;6.378771e-005
2.545683e+003;7.754057e-005
2.547612e+003;4.579366e-005
2.549541e+003;1.401592e-005
2.551469e+003;1.828058e-004
2.553397e+003;1.151229e-004
2.555326e+003;-1.837556e-004
2.557255e+003;-4.179173e-004
2.559183e+003;-4.400952e-004
2.561112e+003;-1.925324e-004
2.563040e+003;-1.259573e-004
2.564969e+003;-4.041466e-004
2.566897e+003;-5.131749e-004
2.568826e+003;-6.443764e-004
2.570754e+003;-6.474533e-004
2.572683e+003;-5.130756e-004
2.574612e+003;-5.847202e-004
2.576540e+003;-6.484127e-004
2.578469e+003;-6.755082e-004
2.580397e+003;-7.069024e-004
2.582326e+003;-7.672033e-004
2.584254e+003;-9.378066e-004
2.586183e+003;-8.779262e-004
2.588111e+003;-8.201210e-004
2.590040e+003;-1.134947e-003
2.591969e+003;-1.502974e-003
2.593897e+003;-1.357564e-003
2.595826e+003;-1.152164e-003
2.597754e+003;-1.205399e-003
2.599683e+003;-1.264045e-003
2.601611e+003;-1.305241e-003
2.603540e+003;-1.291796e-003
2.605468e+003;-1.221919e-003
2.607397e+003;-1.113730e-003
2.609325e+003;-1.025546e-003
2.611254e+003;-9.700414e-004
2.613183e+003;-8.170784e-004
2.615111e+003;-5.708886e-004
2.617040e+003;-6.349802e-004
2.618968e+003;-7.443144e-004
2.620897e+003;-8.237258e-004
2.622825e+003;-1.034206e-003
2.624754e+003;-9.799263e-004
2.626682e+003;-8.621198e-004
2.628611e+003;-6.745819e-004
2.630540e+003;-4.647544e-004
2.632468e+003;-3.391932e-004
2.634396e+003;-4.696198e-004
2.636325e+003;-6.926115e-004
2.638254e+003;-7.278085e-004
2.640182e+003;-8.224360e-004
2.642111e+003;-1.098362e-003
2.644039e+003;-1.069541e-003
2.645968e+003;-7.853283e-004
2.647896e+003;-9.567180e-004
2.649825e+003;-1.063063e-003
2.651753e+003;-8.545471e-004
2.653682e+003;-5.429924e-004
2.655611e+003;-6.056323e-004
2.657539e+003;-7.343250e-004
2.659468e+003;-6.018933e-004
2.661396e+003;-8.667163e-004
2.663325e+003;-7.881727e-004
2.665253e+003;-3.449209e-004
2.667182e+003;-4.976200e-004
2.669110e+003;-8.776286e-004
2.671039e+003;-9.551641e-004
2.672968e+003;-8.707175e-004
2.674896e+003;-5.333954e-004
2.676825e+003;-3.612096e-004
2.678753e+003;-5.905770e-004
2.680682e+003;-9.084791e-004
2.682610e+003;-9.121493e-004
2.684539e+003;-6.656495e-004
2.686467e+003;-4.335743e-004
2.688396e+003;-4.347329e-004
2.690324e+003;-3.485958e-004
2.692253e+003;-3.606468e-004
2.694182e+003;-5.011613e-004
2.696110e+003;-4.141767e-004
2.698039e+003;-5.360429e-004
2.699967e+003;-7.338619e-004
2.701896e+003;-6.759383e-004
2.703824e+003;-5.291594e-004
2.705753e+003;-4.752134e-004
2.707681e+003;-5.498425e-004
2.709610e+003;-4.522098e-004
2.711539e+003;-7.100450e-004
2.713467e+003;-8.336470e-004
2.715396e+003;-5.411061e-004
2.717324e+003;-3.321411e-004
2.719253e+003;-3.933548e-004
2.721181e+003;-4.399959e-004
2.723110e+003;-4.796485e-004
2.725038e+003;-7.411721e-004
2.726967e+003;-7.480191e-004
2.728896e+003;-7.190757e-004
2.730824e+003;-8.512402e-004
2.732752e+003;-9.341036e-004
2.734681e+003;-6.946956e-004
2.736610e+003;-5.952756e-004
2.738538e+003;-1.109566e-003
2.740467e+003;-1.084778e-003
2.742395e+003;-7.832777e-004
2.744324e+003;-8.043456e-004
2.746252e+003;-6.319363e-004
2.748181e+003;-4.949723e-004
2.750109e+003;-5.183046e-004
2.752038e+003;-7.246330e-004
2.753967e+003;-8.821918e-004
2.755895e+003;-9.120501e-004
2.757824e+003;-5.927940e-004
2.759752e+003;-4.440341e-004
2.761681e+003;-8.257100e-004
2.763609e+003;-1.028620e-003
2.765538e+003;-8.347384e-004
2.767466e+003;-6.270396e-004
2.769395e+003;-5.323034e-004
2.771323e+003;-4.235446e-004
2.773252e+003;-3.271748e-004
2.775181e+003;-1.914725e-004
2.777109e+003;-1.536816e-004
2.779038e+003;-1.376832e-004
2.780966e+003;1.200944e-004
2.782895e+003;5.285444e-004
2.784823e+003;7.862863e-004
2.786752e+003;7.503054e-004
2.788680e+003;7.822698e-004
2.790609e+003;1.028604e-003
2.792538e+003;1.051588e-003
2.794466e+003;1.297245e-003
2.796395e+003;1.634792e-003
2.798323e+003;1.745958e-003
2.800252e+003;1.913792e-003
2.802180e+003;2.167528e-003
2.804109e+003;2.554612e-003
2.806037e+003;2.582443e-003
2.807966e+003;2.565211e-003
2.809895e+003;2.637310e-003
2.811823e+003;2.735229e-003
2.813751e+003;3.041028e-003
2.815680e+003;2.953082e-003
2.817609e+003;2.906547e-003
2.819537e+003;3.477286e-003
2.821466e+003;3.760346e-003
2.823394e+003;3.749083e-003
2.825323e+003;4.123061e-003
2.827251e+003;4.661372e-003
2.829180e+003;4.894403e-003
2.831108e+003;5.310724e-003
2.833037e+003;6.103534e-003
2.834966e+003;6.727318e-003
2.836894e+003;7.347314e-003
2.838823e+003;8.559451e-003
2.840751e+003;1.018241e-002
2.842680e+003;1.223330e-002
2.844608e+003;1.493673e-002
2.846537e+003;1.826521e-002
2.848465e+003;2.196710e-002
2.850394e+003;2.527970e-002
2.852323e+003;2.688970e-002
2.854251e+003;2.729781e-002
2.856180e+003;2.706800e-002
2.858108e+003;2.643465e-002
2.860037e+003;2.636060e-002
2.861965e+003;2.619241e-002
2.863894e+003;2.544030e-002
2.865822e+003;2.523563e-002
2.867751e+003;2.540984e-002
2.869679e+003;2.540921e-002
2.871608e+003;2.505850e-002
2.873536e+003;2.452815e-002
2.875465e+003;2.431827e-002
2.877394e+003;2.435808e-002
2.879322e+003;2.409031e-002
2.881251e+003;2.376558e-002
2.883179e+003;2.371060e-002
2.885108e+003;2.359175e-002
2.887036e+003;2.392846e-002
2.888965e+003;2.466589e-002
2.890893e+003;2.539737e-002
2.892822e+003;2.614581e-002
2.894750e+003;2.740530e-002
2.896679e+003;2.915731e-002
2.898608e+003;3.067708e-002
2.900536e+003;3.210934e-002
2.902465e+003;3.388997e-002
2.904393e+003;3.630272e-002
2.906322e+003;3.915999e-002
2.908250e+003;4.221471e-002
2.910179e+003;4.539659e-002
2.912107e+003;4.885561e-002
2.914036e+003;5.314907e-002
2.915965e+003;5.736811e-002
2.917893e+003;6.054135e-002
2.919822e+003;6.269678e-002
2.921750e+003;6.478336e-002
2.923679e+003;6.639690e-002
2.925607e+003;6.703636e-002
2.927536e+003;6.735086e-002
2.929464e+003;6.748270e-002
2.931393e+003;6.709970e-002
2.933322e+003;6.612804e-002
2.935250e+003;6.527079e-002
2.937178e+003;6.424198e-002
2.939107e+003;6.293636e-002
2.941036e+003;6.133397e-002
2.942964e+003;5.950128e-002
2.944893e+003;5.760307e-002
2.946821e+003;5.564619e-002
2.948750e+003;5.361921e-002
2.950678e+003;5.150591e-002
2.952607e+003;4.931794e-002
2.954535e+003;4.732550e-002
2.956464e+003;4.501956e-002
2.958393e+003;4.229513e-002
2.960321e+003;3.976804e-002
2.962250e+003;3.778066e-002
2.964178e+003;3.633108e-002
2.966107e+003;3.508880e-002
2.968035e+003;3.390688e-002
2.969964e+003;3.263268e-002
2.971892e+003;3.132142e-002
2.973821e+003;3.036989e-002
2.975750e+003;2.957940e-002
2.977678e+003;2.879549e-002
2.979607e+003;2.792907e-002
2.981535e+003;2.709854e-002
2.983464e+003;2.629357e-002
2.985392e+003;2.549188e-002
2.987321e+003;2.488018e-002
2.989249e+003;2.439989e-002
2.991178e+003;2.380797e-002
2.993106e+003;2.314132e-002
2.995035e+003;2.271814e-002
2.996964e+003;2.214866e-002
2.998892e+003;2.132684e-002
3.000821e+003;2.086735e-002
3.002749e+003;2.040050e-002
3.004678e+003;1.967318e-002
3.006606e+003;1.885291e-002
3.008535e+003;1.800742e-002
3.010463e+003;1.724421e-002
3.012392e+003;1.644039e-002
3.014321e+003;1.539897e-002
3.016249e+003;1.470198e-002
3.018177e+003;1.427715e-002
3.020106e+003;1.381907e-002
3.022035e+003;1.326342e-002
3.023963e+003;1.238536e-002
3.025892e+003;1.176287e-002
3.027820e+003;1.184594e-002
3.029749e+003;1.154052e-002
3.031677e+003;1.090316e-002
3.033606e+003;1.028951e-002
3.035534e+003;9.633724e-003
3.037463e+003;9.485943e-003
3.039392e+003;9.386017e-003
3.041320e+003;8.957012e-003
3.043249e+003;8.345557e-003
3.045177e+003;8.199665e-003
3.047106e+003;8.538906e-003
3.049034e+003;8.126670e-003
3.050963e+003;7.448053e-003
3.052891e+003;7.239995e-003
3.054820e+003;6.906043e-003
3.056749e+003;6.474838e-003
3.058677e+003;6.459233e-003
3.060606e+003;6.373518e-003
3.062534e+003;6.053368e-003
3.064463e+003;6.109516e-003
3.066391e+003;5.935921e-003
3.068320e+003;5.434813e-003
3.070248e+003;5.009490e-003
3.072177e+003;4.704948e-003
3.074105e+003;4.490097e-003
3.076034e+003;4.314404e-003
3.077963e+003;4.190301e-003
3.079891e+003;4.244435e-003
3.081820e+003;4.145273e-003
3.083748e+003;4.187022e-003
3.085677e+003;4.156178e-003
3.087605e+003;3.845781e-003
3.089534e+003;3.778093e-003
3.091462e+003;3.938556e-003
3.093391e+003;3.951596e-003
3.095320e+003;3.743268e-003
3.097248e+003;3.372755e-003
3.099177e+003;3.068156e-003
3.101105e+003;2.937470e-003
3.103034e+003;2.533581e-003
3.104962e+003;2.431277e-003
3.106891e+003;2.443639e-003
3.108819e+003;2.382032e-003
3.110748e+003;2.564144e-003
3.112677e+003;2.877194e-003
3.114605e+003;2.853947e-003
3.116533e+003;2.284227e-003
3.118462e+003;2.087150e-003
3.120391e+003;2.025362e-003
3.122319e+003;1.674705e-003
3.124248e+003;1.491769e-003
3.126176e+003;1.386219e-003
3.128105e+003;1.599339e-003
3.130033e+003;1.877717e-003
3.131962e+003;1.785182e-003
3.133890e+003;1.313130e-003
3.135819e+003;1.106329e-003
3.137748e+003;1.223772e-003
3.139676e+003;1.495958e-003
3.141605e+003;1.542408e-003
3.143533e+003;1.383726e-003
3.145462e+003;1.143502e-003
3.147390e+003;1.086365e-003
3.149319e+003;1.157522e-003
3.151247e+003;1.040395e-003
3.153176e+003;7.440987e-004
3.155104e+003;9.009206e-004
3.157033e+003;1.380236e-003
3.158962e+003;1.657209e-003
3.160890e+003;1.231415e-003
3.162819e+003;6.895695e-004
3.164747e+003;5.369044e-004
3.166676e+003;6.544926e-004
3.168604e+003;7.860871e-004
3.170533e+003;6.388300e-004
3.172461e+003;7.129335e-004
3.174390e+003;7.015500e-004
3.176319e+003;8.859796e-004
3.178247e+003;1.388014e-003
3.180176e+003;1.237861e-003
3.182104e+003;8.879717e-004
3.184033e+003;8.770816e-004
3.185961e+003;1.167987e-003
3.187890e+003;1.330147e-003
3.189818e+003;1.328053e-003
3.191747e+003;1.337226e-003
3.193676e+003;1.029966e-003
3.195604e+003;1.053980e-003
3.197532e+003;9.965553e-004
3.199461e+003;1.101678e-003
3.201390e+003;1.476641e-003
3.203318e+003;1.434286e-003
3.205247e+003;1.246733e-003
3.207175e+003;1.162671e-003
3.209104e+003;1.450443e-003
3.211032e+003;1.763756e-003
3.212961e+003;1.689008e-003
3.214889e+003;1.321206e-003
3.216818e+003;1.334567e-003
3.218747e+003;1.438508e-003
3.220675e+003;1.546731e-003
3.222604e+003;1.758200e-003
3.224532e+003;1.803747e-003
3.226461e+003;1.766418e-003
3.228389e+003;1.947506e-003
3.230318e+003;1.988413e-003
3.232246e+003;2.031287e-003
3.234175e+003;1.779193e-003
3.236104e+003;1.328884e-003
3.238032e+003;1.767582e-003
3.239961e+003;2.215949e-003
3.241889e+003;1.962850e-003
3.243818e+003;1.666822e-003
3.245746e+003;1.692733e-003
3.247675e+003;1.796827e-003
3.249603e+003;2.166763e-003
3.251532e+003;2.356546e-003
3.253460e+003;2.231269e-003
3.255389e+003;2.313640e-003
3.257318e+003;2.336858e-003
3.259246e+003;2.048431e-003
3.261175e+003;2.023231e-003
3.263103e+003;1.979525e-003
3.265032e+003;1.858782e-003
3.266960e+003;1.960886e-003
3.268889e+003;2.180016e-003
3.270817e+003;2.617409e-003
3.272746e+003;2.781478e-003
3.274675e+003;2.735695e-003
3.276603e+003;2.362709e-003
3.278531e+003;1.988313e-003
3.280460e+003;2.167395e-003
3.282389e+003;2.652245e-003
3.284317e+003;2.885967e-003
3.286246e+003;2.568944e-003
3.288174e+003;2.383865e-003
3.290103e+003;2.234833e-003
3.292031e+003;1.866469e-003
3.293960e+003;1.768880e-003
3.295888e+003;2.049097e-003
3.297817e+003;1.967077e-003
3.299746e+003;1.896087e-003
3.301674e+003;1.830233e-003
3.303603e+003;1.575329e-003
3.305531e+003;1.690338e-003
3.307460e+003;1.396424e-003
3.309388e+003;1.327687e-003
3.311317e+003;1.820350e-003
3.313245e+003;1.992673e-003
3.315174e+003;1.776099e-003
3.317103e+003;1.744527e-003
3.319031e+003;1.547961e-003
3.320960e+003;1.197822e-003
3.322888e+003;8.539743e-004
3.324817e+003;1.086465e-003
3.326745e+003;1.411150e-003
3.328674e+003;1.487945e-003
3.330602e+003;1.329449e-003
3.332531e+003;1.437145e-003
3.334459e+003;1.318946e-003
3.336388e+003;9.666672e-004
3.338317e+003;7.626195e-004
3.340245e+003;9.565721e-004
3.342174e+003;8.207099e-004
3.344102e+003;3.270235e-004
3.346031e+003;1.997116e-004
3.347959e+003;1.685193e-004
3.349888e+003;1.175092e-004
3.351816e+003;2.156236e-004
3.353745e+003;3.462562e-004
3.355674e+003;-6.295463e-007
3.357602e+003;-3.683605e-004
3.359531e+003;-2.352542e-004
3.361459e+003;-4.484364e-004
3.363388e+003;-4.753789e-004
3.365316e+003;-2.780712e-004
3.367245e+003;-2.507523e-004
3.369173e+003;-5.513317e-004
3.371102e+003;-5.643697e-004
3.373031e+003;-4.910008e-004
3.374959e+003;-6.888072e-004
3.376887e+003;-7.251292e-004
3.378816e+003;-7.537083e-004
3.380745e+003;-7.265846e-004
3.382673e+003;-9.725209e-004
3.384602e+003;-1.446177e-003
3.386530e+003;-1.635659e-003
3.388459e+003;-1.739528e-003
3.390387e+003;-2.032912e-003
3.392316e+003;-2.376849e-003
3.394244e+003;-2.503403e-003
3.396173e+003;-3.102399e-003
3.398102e+003;-3.199635e-003
3.400030e+003;-2.685675e-003
3.401959e+003;-2.092963e-003
3.403887e+003;-1.773716e-003
3.405816e+003;-1.829217e-003
3.407744e+003;-2.260673e-003
3.409673e+003;-2.654819e-003
3.411601e+003;-3.254855e-003
3.413530e+003;-3.500022e-003
3.415458e+003;-3.148191e-003
3.417387e+003;-2.905492e-003
3.419316e+003;-2.681098e-003
3.421244e+003;-2.684358e-003
3.423173e+003;-2.877909e-003
3.425101e+003;-2.542835e-003
3.427030e+003;-2.659660e-003
3.428958e+003;-2.981185e-003
3.430887e+003;-2.603969e-003
3.432815e+003;-2.377310e-003
3.434744e+003;-2.759267e-003
3.436673e+003;-3.019125e-003
3.438601e+003;-2.864282e-003
3.440530e+003;-2.883110e-003
3.442458e+003;-3.190919e-003
3.444387e+003;-3.152171e-003
3.446315e+003;-3.010702e-003
3.448244e+003;-3.023436e-003
3.450172e+003;-3.080389e-003
3.452101e+003;-3.046172e-003
3.454030e+003;-2.791861e-003
3.455958e+003;-2.621457e-003
3.457886e+003;-2.872478e-003
3.459815e+003;-3.237721e-003
3.461744e+003;-3.352090e-003
3.463672e+003;-3.450980e-003
3.465601e+003;-3.423728e-003
3.467529e+003;-3.260545e-003
3.469458e+003;-3.326674e-003
3.471386e+003;-3.697054e-003
3.473315e+003;-4.131812e-003
3.475243e+003;-4.024936e-003
3.477172e+003;-3.562795e-003
3.479101e+003;-3.092233e-003
3.481029e+003;-2.920598e-003
3.482958e+003;-2.931294e-003
3.484886e+003;-3.110952e-003
3.486815e+003;-3.912320e-003
3.488743e+003;-4.596299e-003
3.490672e+003;-4.195906e-003
3.492600e+003;-3.423728e-003
3.494529e+003;-2.899666e-003
3.496458e+003;-2.915365e-003
3.498386e+003;-3.218415e-003
3.500315e+003;-3.438094e-003
3.502243e+003;-3.603314e-003
3.504172e+003;-3.433459e-003
3.506100e+003;-3.327134e-003
3.508029e+003;-3.388519e-003
3.509957e+003;-3.269325e-003
3.511886e+003;-3.326411e-003
3.513814e+003;-3.519380e-003
3.515743e+003;-3.093516e-003
3.517672e+003;-2.519414e-003
3.519600e+003;-2.419027e-003
3.521529e+003;-2.473127e-003
3.523457e+003;-2.683008e-003
3.525386e+003;-3.096609e-003
3.527314e+003;-2.987865e-003
3.529243e+003;-2.763876e-003
3.531171e+003;-2.594713e-003
3.533100e+003;-2.355890e-003
3.535029e+003;-2.677706e-003
3.536957e+003;-2.948902e-003
3.538885e+003;-2.791136e-003
3.540814e+003;-2.517569e-003
3.542743e+003;-2.612927e-003
3.544671e+003;-3.003594e-003
3.546600e+003;-2.739709e-003
3.548528e+003;-2.625739e-003
3.550457e+003;-3.098089e-003
3.552385e+003;-3.095984e-003
3.554314e+003;-2.813819e-003
3.556242e+003;-2.951666e-003
3.558171e+003;-2.650241e-003
3.560100e+003;-2.647969e-003
3.562028e+003;-3.158520e-003
3.563957e+003;-3.629470e-003
3.565885e+003;-4.229081e-003
3.567814e+003;-4.101978e-003
3.569742e+003;-3.612580e-003
3.571671e+003;-3.322958e-003
3.573599e+003;-3.584090e-003
3.575528e+003;-3.586193e-003
3.577457e+003;-3.655558e-003
3.579385e+003;-4.234429e-003
3.581314e+003;-4.554398e-003
3.583242e+003;-4.497604e-003
3.585171e+003;-5.112098e-003
3.587099e+003;-6.395427e-003
3.589028e+003;-6.135033e-003
3.590956e+003;-4.702150e-003
3.592885e+003;-4.706772e-003
3.594813e+003;-4.858993e-003
3.596742e+003;-4.212904e-003
3.598671e+003;-3.593686e-003
3.600599e+003;-3.663772e-003
3.602528e+003;-3.978252e-003
3.604456e+003;-4.108443e-003
3.606385e+003;-4.294702e-003
3.608313e+003;-4.630493e-003
3.610242e+003;-4.317634e-003
3.612170e+003;-4.366939e-003
3.614099e+003;-4.308809e-003
3.616028e+003;-4.301493e-003
3.617956e+003;-4.666323e-003
3.619885e+003;-4.290929e-003
3.621813e+003;-3.411269e-003
3.623742e+003;-3.244989e-003
3.625670e+003;-4.348372e-003
3.627599e+003;-6.415538e-003
3.629527e+003;-6.249654e-003
3.631456e+003;-4.349455e-003
3.633385e+003;-3.884671e-003
3.635313e+003;-4.157214e-003
3.637241e+003;-4.099057e-003
3.639170e+003;-4.062786e-003
3.641099e+003;-4.309268e-003
3.643027e+003;-4.622199e-003
3.644956e+003;-5.276551e-003
3.646884e+003;-7.081246e-003
3.648813e+003;-8.746262e-003
3.650741e+003;-8.267210e-003
3.652670e+003;-6.624241e-003
3.654598e+003;-6.659711e-003
3.656527e+003;-7.059242e-003
3.658456e+003;-6.188117e-003
3.660384e+003;-6.052241e-003
3.662313e+003;-6.470514e-003
3.664241e+003;-6.932084e-003
3.666170e+003;-7.632588e-003
3.668098e+003;-9.118637e-003
3.670027e+003;-1.033805e-002
3.671955e+003;-9.722614e-003
3.673884e+003;-1.040068e-002
3.675813e+003;-1.025615e-002
3.677741e+003;-8.575385e-003
3.679669e+003;-8.526166e-003
3.681598e+003;-8.136762e-003
3.683527e+003;-8.240551e-003
3.685455e+003;-9.545250e-003
3.687384e+003;-1.165637e-002
3.689312e+003;-1.171827e-002
3.691241e+003;-1.005116e-002
3.693169e+003;-8.336449e-003
3.695098e+003;-8.024037e-003
3.697026e+003;-8.503422e-003
3.698955e+003;-9.012203e-003
3.700884e+003;-9.535461e-003
3.702812e+003;-9.039788e-003
3.704741e+003;-8.538025e-003
3.706669e+003;-8.771168e-003
3.708598e+003;-9.984071e-003
3.710526e+003;-1.165295e-002
3.712455e+003;-1.164789e-002
3.714383e+003;-9.738522e-003
3.716312e+003;-8.978579e-003
3.718240e+003;-9.161463e-003
3.720169e+003;-9.253785e-003
3.722098e+003;-9.629355e-003
3.724026e+003;-1.007240e-002
3.725955e+003;-1.019375e-002
3.727883e+003;-9.689402e-003
3.729812e+003;-9.929280e-003
3.731740e+003;-1.124106e-002
3.733669e+003;-1.147550e-002
3.735597e+003;-1.132813e-002
3.737526e+003;-9.993689e-003
3.739455e+003;-9.313721e-003
3.741383e+003;-1.081508e-002
3.743312e+003;-1.409411e-002
3.745240e+003;-1.374312e-002
3.747169e+003;-1.217156e-002
3.749097e+003;-1.368113e-002
3.751026e+003;-1.387193e-002
3.752954e+003;-1.164456e-002
3.754883e+003;-9.355945e-003
3.756812e+003;-9.705700e-003
3.758740e+003;-1.024566e-002
3.760668e+003;-9.785790e-003
3.762597e+003;-9.407307e-003
3.764526e+003;-9.567225e-003
3.766454e+003;-9.155396e-003
3.768383e+003;-9.524536e-003
3.770311e+003;-9.699090e-003
3.772240e+003;-9.176970e-003
3.774168e+003;-8.733337e-003
3.776097e+003;-8.745060e-003
3.778025e+003;-9.153417e-003
3.779954e+003;-9.346151e-003
3.781883e+003;-8.795423e-003
3.783811e+003;-8.619403e-003
3.785740e+003;-8.616706e-003
3.787668e+003;-8.574216e-003
3.789597e+003;-8.765908e-003
3.791525e+003;-8.915286e-003
3.793454e+003;-8.843476e-003
3.795382e+003;-9.183978e-003
3.797311e+003;-9.554098e-003
3.799240e+003;-1.085163e-002
3.801168e+003;-1.173378e-002
3.803097e+003;-9.890966e-003
3.805025e+003;-9.492412e-003
3.806954e+003;-1.034351e-002
3.808882e+003;-8.832113e-003
3.810811e+003;-7.914764e-003
3.812739e+003;-8.656821e-003
3.814668e+003;-1.078900e-002
3.816596e+003;-1.092372e-002
3.818525e+003;-1.018751e-002
3.820454e+003;-1.090343e-002
3.822382e+003;-9.728380e-003
3.824311e+003;-8.922135e-003
3.826239e+003;-9.247849e-003
3.828168e+003;-8.980624e-003
3.830096e+003;-9.283721e-003
3.832025e+003;-9.868845e-003
3.833953e+003;-9.974551e-003
3.835882e+003;-1.085758e-002
3.837811e+003;-1.163069e-002
3.839739e+003;-1.031197e-002
3.841667e+003;-9.198673e-003
3.843596e+003;-8.794677e-003
3.845525e+003;-8.301116e-003
3.847453e+003;-8.017791e-003
3.849382e+003;-9.383800e-003
3.851310e+003;-1.290793e-002
3.853239e+003;-1.479684e-002
3.855167e+003;-1.160218e-002
3.857096e+003;-8.750645e-003
3.859024e+003;-8.549948e-003
3.860953e+003;-8.771980e-003
3.862882e+003;-9.287062e-003
3.864810e+003;-9.489235e-003
3.866739e+003;-9.316867e-003
3.868667e+003;-1.037308e-002
3.870596e+003;-9.761395e-003
3.872524e+003;-8.621578e-003
3.874453e+003;-8.653800e-003
3.876381e+003;-8.185636e-003
3.878310e+003;-8.351075e-003
3.880239e+003;-8.688358e-003
3.882167e+003;-8.739377e-003
3.884096e+003;-9.789353e-003
3.886024e+003;-9.455648e-003
3.887953e+003;-8.403240e-003
3.889881e+003;-8.859547e-003
3.891810e+003;-8.843574e-003
3.893738e+003;-7.991118e-003
3.895667e+003;-7.669668e-003
3.897595e+003;-8.497509e-003
3.899524e+003;-9.274770e-003
3.901453e+003;-9.326304e-003
3.903381e+003;-9.294879e-003
3.905310e+003;-8.373469e-003
3.907238e+003;-7.553207e-003
3.909167e+003;-7.505630e-003
3.911095e+003;-7.830358e-003
3.913024e+003;-8.393847e-003
3.914952e+003;-8.649708e-003
3.916881e+003;-8.393165e-003
3.918810e+003;-8.150518e-003
3.920738e+003;-7.718496e-003
3.922667e+003;-7.354366e-003
3.924595e+003;-7.783950e-003
3.926524e+003;-8.001853e-003
3.928452e+003;-8.215646e-003
3.930381e+003;-8.315418e-003
3.932309e+003;-7.887401e-003
3.934238e+003;-7.423034e-003
3.936167e+003;-7.793454e-003
3.938095e+003;-7.800614e-003
3.940023e+003;-7.603677e-003
3.941952e+003;-7.779655e-003
3.943881e+003;-7.808196e-003
3.945809e+003;-7.450460e-003
3.947738e+003;-7.072543e-003
3.949666e+003;-6.944313e-003
3.951595e+003;-6.992277e-003
3.953523e+003;-7.040921e-003
3.955452e+003;-7.043398e-003
3.957380e+003;-7.084115e-003
3.959309e+003;-7.292334e-003
3.961238e+003;-7.478144e-003
3.963166e+003;-7.422122e-003
3.965095e+003;-7.349349e-003
3.967023e+003;-7.261966e-003
3.968952e+003;-7.408734e-003
3.970880e+003;-7.426454e-003
3.972809e+003;-7.364758e-003
3.974737e+003;-7.528491e-003
3.976666e+003;-7.457690e-003
3.978594e+003;-7.285915e-003
3.980523e+003;-7.198584e-003
3.982452e+003;-7.330453e-003
3.984380e+003;-7.491073e-003
3.986309e+003;-7.145623e-003
3.988237e+003;-6.857500e-003
3.990166e+003;-7.135454e-003
3.992094e+003;-7.269004e-003
3.994023e+003;-7.620965e-003
3.995951e+003;-7.648052e-003
3.997880e+003;-7.037041e-003
3.999809e+003;-6.808706e-003
4.001737e+003;0.000000e+000
