3.992094e+002;0.000000e+000
4.011380e+002;0.000000e+000
4.030665e+002;0.000000e+000
4.049951e+002;0.000000e+000
4.069236e+002;0.000000e+000
4.088522e+002;0.000000e+000
4.107807e+002;0.000000e+000
4.127093e+002;0.000000e+000
4.146378e+002;0.000000e+000
4.165664e+002;0.000000e+000
4.184949e+002;0.000000e+000
4.204235e+002;0.000000e+000
4.223520e+002;0.000000e+000
4.242806e+002;0.000000e+000
4.262091e+002;0.000000e+000
4.281377e+002;0.000000e+000
4.300662e+002;0.000000e+000
4.319948e+002;0.000000e+000
4.339233e+002;0.000000e+000
4.358519e+002;0.000000e+000
4.377804e+002;0.000000e+000
4.397090e+002;0.000000e+000
4.416375e+002;0.000000e+000
4.435660e+002;0.000000e+000
4.454946e+002;0.000000e+000
4.474232e+002;0.000000e+000
4.493517e+002;0.000000e+000
4.512802e+002;0.000000e+000
4.532088e+002;0.000000e+000
4.551373e+002;0.000000e+000
4.570659e+002;0.000000e+000
4.589944e+002;0.000000e+000
4.609230e+002;0.000000e+000
4.628515e+002;0.000000e+000
4.647801e+002;0.000000e+000
4.667086e+002;0.000000e+000
4.686372e+002;0.000000e+000
4.705657e+002;0.000000e+000
4.724943e+002;0.000000e+000
4.744228e+002;0.000000e+000
4.763513e+002;0.000000e+000
4.782799e+002;0.000000e+000
4.802085e+002;0.000000e+000
4.821370e+002;0.000000e+000
4.840656e+002;0.000000e+000
4.859941e+002;0.000000e+000
4.879226e+002;0.000000e+000
4.898512e+002;0.000000e+000
4.917798e+002;0.000000e+000
4.937083e+002;0.000000e+000
4.956368e+002;0.000000e+000
4.975654e+002;0.000000e+000
4.994939e+002;0.000000e+000
5.014225e+002;0.000000e+000
5.033510e+002;0.000000e+000
5.052796e+002;0.000000e+000
5.072081e+002;0.000000e+000
5.091367e+002;0.000000e+000
5.110652e+002;0.000000e+000
5.129938e+002;0.000000e+000
5.149223e+002;0.000000e+000
5.168509e+002;0.000000e+000
5.187794e+002;0.000000e+000
5.207079e+002;0.000000e+000
5.226365e+002;0.000000e+000
5.245651e+002;0.000000e+000
5.264936e+002;0.000000e+000
5.284222e+002;0.000000e+000
5.303507e+002;0.000000e+000
5.322792e+002;0.000000e+000
5.342078e+002;0.000000e+000
5.361364e+002;0.000000e+000
5.380649e+002;0.000000e+000
5.399935e+002;0.000000e+000
5.419220e+002;0.000000e+000
5.438505e+002;0.000000e+000
5.457791e+002;0.000000e+000
5.477076e+002;0.000000e+000
5.496362e+002;0.000000e+000
5.515648e+002;0.000000e+000
5.534933e+002;0.000000e+000
5.554218e+002;0.000000e+000
5.573504e+002;0.000000e+000
5.592789e+002;0.000000e+000
5.612075e+002;0.000000e+000
5.631360e+002;0.000000e+000
5.650646e+002;0.000000e+000
5.669931e+002;0.000000e+000
5.689217e+002;0.000000e+000
5.708502e+002;0.000000e+000
5.727787e+002;0.000000e+000
5.747073e+002;0.000000e+000
5.766359e+002;0.000000e+000
5.785644e+002;0.000000e+000
5.804930e+002;0.000000e+000
5.824215e+002;0.000000e+000
5.843500e+002;0.000000e+000
5.862786e+002;0.000000e+000
5.882072e+002;0.000000e+000
5.901357e+002;0.000000e+000
5.920643e+002;0.000000e+000
5.939928e+002;0.000000e+000
5.959213e+002;0.000000e+000
5.978499e+002;0.000000e+000
5.997784e+002;6.405742e-002
6.017070e+002;6.541907e-002
6.036355e+002;6.389441e-002
6.055641e+002;6.141728e-002
6.074926e+002;5.509346e-002
6.094211e+002;5.164023e-002
6.113497e+002;5.398067e-002
6.132783e+002;5.670039e-002
6.152068e+002;5.961711e-002
6.171354e+002;6.369588e-002
6.190639e+002;6.518966e-002
6.209924e+002;6.245694e-002
6.229210e+002;5.869625e-002
6.248495e+002;5.727556e-002
6.267781e+002;5.817371e-002
6.287067e+002;5.906887e-002
6.306352e+002;6.314135e-002
6.325637e+002;6.548009e-002
6.344923e+002;6.191748e-002
6.364208e+002;6.098925e-002
6.383494e+002;6.458762e-002
6.402780e+002;6.605045e-002
6.422065e+002;6.477660e-002
6.441350e+002;6.365425e-002
6.460636e+002;6.396016e-002
6.479921e+002;6.285999e-002
6.499207e+002;6.211332e-002
6.518492e+002;6.406686e-002
6.537778e+002;6.414440e-002
6.557063e+002;6.123568e-002
6.576349e+002;5.974351e-002
6.595634e+002;6.048376e-002
6.614919e+002;5.997078e-002
6.634205e+002;6.017024e-002
6.653491e+002;6.088246e-002
6.672776e+002;5.979005e-002
6.692062e+002;5.842559e-002
6.711347e+002;5.836014e-002
6.730632e+002;5.892642e-002
6.749918e+002;5.934353e-002
6.769203e+002;5.896836e-002
6.788489e+002;5.956880e-002
6.807775e+002;6.018196e-002
6.827060e+002;5.953247e-002
6.846345e+002;5.872318e-002
6.865631e+002;5.842158e-002
6.884916e+002;5.746205e-002
6.904202e+002;5.656287e-002
6.923488e+002;5.715509e-002
6.942773e+002;5.725677e-002
6.962058e+002;5.667955e-002
6.981344e+002;5.670537e-002
7.000629e+002;5.655778e-002
7.019915e+002;5.498134e-002
7.039200e+002;5.419714e-002
7.058486e+002;5.495569e-002
7.077771e+002;5.571524e-002
7.097057e+002;5.701353e-002
7.116342e+002;5.764658e-002
7.135627e+002;5.879502e-002
7.154913e+002;5.913231e-002
7.174199e+002;5.822186e-002
7.193484e+002;5.800039e-002
7.212770e+002;5.872822e-002
7.232055e+002;5.944268e-002
7.251340e+002;6.074148e-002
7.270626e+002;6.177735e-002
7.289911e+002;6.137766e-002
7.309197e+002;6.144442e-002
7.328483e+002;6.175393e-002
7.347768e+002;6.140209e-002
7.367053e+002;6.177670e-002
7.386339e+002;6.312212e-002
7.405624e+002;6.388585e-002
7.424910e+002;6.351379e-002
7.444196e+002;6.283051e-002
7.463481e+002;6.300212e-002
7.482766e+002;6.302825e-002
7.502052e+002;6.350864e-002
7.521337e+002;6.477071e-002
7.540623e+002;6.495787e-002
7.559908e+002;6.429103e-002
7.579194e+002;6.353454e-002
7.598479e+002;6.361973e-002
7.617765e+002;6.434917e-002
7.637050e+002;6.537866e-002
7.656335e+002;6.607831e-002
7.675621e+002;6.514647e-002
7.694907e+002;6.320260e-002
7.714192e+002;6.263151e-002
7.733478e+002;6.279915e-002
7.752763e+002;6.170817e-002
7.772048e+002;6.069446e-002
7.791334e+002;5.929241e-002
7.810620e+002;5.769642e-002
7.829905e+002;5.542829e-002
7.849191e+002;5.210624e-002
7.868476e+002;4.924289e-002
7.887761e+002;4.660434e-002
7.907047e+002;4.371630e-002
7.926332e+002;4.054674e-002
7.945618e+002;3.750980e-002
7.964903e+002;3.599923e-002
7.984189e+002;3.510230e-002
8.003474e+002;3.484076e-002
8.022759e+002;3.511718e-002
8.042045e+002;3.600038e-002
8.061331e+002;3.716496e-002
8.080616e+002;3.845204e-002
8.099902e+002;4.001956e-002
8.119187e+002;4.180077e-002
8.138472e+002;4.287986e-002
8.157758e+002;4.389505e-002
8.177043e+002;4.564916e-002
8.196329e+002;4.743266e-002
8.215615e+002;4.997793e-002
8.234900e+002;5.240857e-002
8.254185e+002;5.501503e-002
8.273471e+002;5.747290e-002
8.292756e+002;5.908853e-002
8.312042e+002;6.049724e-002
8.331328e+002;6.167995e-002
8.350613e+002;6.226095e-002
8.369898e+002;6.206191e-002
8.389184e+002;6.142465e-002
8.408469e+002;6.087236e-002
8.427755e+002;6.031241e-002
8.447040e+002;5.940857e-002
8.466326e+002;5.949991e-002
8.485611e+002;5.925131e-002
8.504897e+002;5.827639e-002
8.524182e+002;5.747616e-002
8.543467e+002;5.697345e-002
8.562753e+002;5.715225e-002
8.582039e+002;5.765407e-002
8.601324e+002;5.695259e-002
8.620610e+002;5.650064e-002
8.639895e+002;5.660519e-002
8.659180e+002;5.621038e-002
8.678466e+002;5.603298e-002
8.697751e+002;5.603686e-002
8.717037e+002;5.593170e-002
8.736323e+002;5.608293e-002
8.755608e+002;5.653290e-002
8.774893e+002;5.676639e-002
8.794179e+002;5.700711e-002
8.813464e+002;5.729189e-002
8.832750e+002;5.714934e-002
8.852036e+002;5.707112e-002
8.871321e+002;5.712111e-002
8.890606e+002;5.748879e-002
8.909892e+002;5.739179e-002
8.929177e+002;5.719999e-002
8.948463e+002;5.771587e-002
8.967748e+002;5.759494e-002
8.987034e+002;5.711552e-002
9.006319e+002;5.728637e-002
9.025605e+002;5.751996e-002
9.044890e+002;5.782131e-002
9.064175e+002;5.804163e-002
9.083461e+002;5.811590e-002
9.102747e+002;5.821118e-002
9.122032e+002;5.815412e-002
9.141318e+002;5.828916e-002
9.160603e+002;5.857216e-002
9.179888e+002;5.846710e-002
9.199174e+002;5.842723e-002
9.218459e+002;5.868036e-002
9.237745e+002;5.858339e-002
9.257031e+002;5.861713e-002
9.276316e+002;5.863648e-002
9.295601e+002;5.840426e-002
9.314887e+002;5.858911e-002
9.334172e+002;5.898657e-002
9.353458e+002;5.899978e-002
9.372744e+002;5.908375e-002
9.392029e+002;5.960331e-002
9.411314e+002;5.983470e-002
9.430600e+002;5.967257e-002
9.449885e+002;5.953327e-002
9.469171e+002;5.965053e-002
9.488456e+002;5.982203e-002
9.507742e+002;6.011156e-002
9.527027e+002;6.045870e-002
9.546313e+002;6.063521e-002
9.565598e+002;6.042343e-002
9.584883e+002;6.015554e-002
9.604169e+002;5.991369e-002
9.623455e+002;5.937992e-002
9.642740e+002;5.935637e-002
9.662026e+002;5.927676e-002
9.681311e+002;5.870004e-002
9.700596e+002;5.841453e-002
9.719882e+002;5.832796e-002
9.739167e+002;5.816375e-002
9.758453e+002;5.782324e-002
9.777739e+002;5.721507e-002
9.797024e+002;5.663757e-002
9.816309e+002;5.643683e-002
9.835595e+002;5.659896e-002
9.854880e+002;5.649739e-002
9.874166e+002;5.589375e-002
9.893452e+002;5.534811e-002
9.912737e+002;5.455743e-002
9.932022e+002;5.395509e-002
9.951307e+002;5.336298e-002
9.970593e+002;5.245377e-002
9.989879e+002;5.146032e-002
1.000916e+003;5.053763e-002
1.002845e+003;4.927129e-002
1.004773e+003;4.726513e-002
1.006702e+003;4.465299e-002
1.008631e+003;4.185306e-002
1.010559e+003;3.887105e-002
1.012488e+003;3.622510e-002
1.014416e+003;3.425574e-002
1.016345e+003;3.267769e-002
1.018273e+003;3.209097e-002
1.020202e+003;3.255475e-002
1.022130e+003;3.354875e-002
1.024059e+003;3.455597e-002
1.025988e+003;3.533713e-002
1.027916e+003;3.664071e-002
1.029845e+003;3.856594e-002
1.031773e+003;4.079672e-002
1.033702e+003;4.212587e-002
1.035630e+003;4.286738e-002
1.037559e+003;4.349215e-002
1.039487e+003;4.331034e-002
1.041416e+003;4.353672e-002
1.043344e+003;4.424399e-002
1.045273e+003;4.476872e-002
1.047202e+003;4.538305e-002
1.049130e+003;4.611984e-002
1.051059e+003;4.702244e-002
1.052987e+003;4.843186e-002
1.054916e+003;4.952794e-002
1.056844e+003;5.012398e-002
1.058773e+003;5.124481e-002
1.060701e+003;5.250290e-002
1.062630e+003;5.355316e-002
1.064558e+003;5.413637e-002
1.066487e+003;5.453462e-002
1.068416e+003;5.469281e-002
1.070344e+003;5.453661e-002
1.072273e+003;5.401264e-002
1.074201e+003;5.293151e-002
1.076130e+003;5.167068e-002
1.078058e+003;5.039099e-002
1.079987e+003;4.970641e-002
1.081915e+003;4.865021e-002
1.083844e+003;4.694612e-002
1.085773e+003;4.537533e-002
1.087701e+003;4.452518e-002
1.089630e+003;4.417000e-002
1.091558e+003;4.363379e-002
1.093487e+003;4.348013e-002
1.095415e+003;4.365325e-002
1.097344e+003;4.370157e-002
1.099272e+003;4.374896e-002
1.101201e+003;4.429462e-002
1.103129e+003;4.503470e-002
1.105058e+003;4.604456e-002
1.106987e+003;4.706930e-002
1.108915e+003;4.761975e-002
1.110844e+003;4.844982e-002
1.112772e+003;4.954230e-002
1.114701e+003;5.033496e-002
1.116629e+003;5.066398e-002
1.118558e+003;5.130454e-002
1.120486e+003;5.222498e-002
1.122415e+003;5.279099e-002
1.124344e+003;5.297216e-002
1.126272e+003;5.276413e-002
1.128201e+003;5.278504e-002
1.130129e+003;5.309694e-002
1.132058e+003;5.347135e-002
1.133986e+003;5.375798e-002
1.135915e+003;5.415866e-002
1.137843e+003;5.497701e-002
1.139772e+003;5.612079e-002
1.141700e+003;5.724512e-002
1.143629e+003;5.877989e-002
1.145557e+003;6.045965e-002
1.147486e+003;6.199953e-002
1.149415e+003;6.373778e-002
1.151343e+003;6.581204e-002
1.153272e+003;6.791288e-002
1.155200e+003;7.013360e-002
1.157129e+003;7.225730e-002
1.159057e+003;7.382993e-002
1.160986e+003;7.594818e-002
1.162914e+003;7.774886e-002
1.164843e+003;7.909850e-002
1.166771e+003;7.995232e-002
1.168700e+003;7.989087e-002
1.170629e+003;7.981564e-002
1.172557e+003;7.944250e-002
1.174486e+003;7.821172e-002
1.176414e+003;7.761327e-002
1.178343e+003;7.760091e-002
1.180271e+003;7.737714e-002
1.182200e+003;7.673908e-002
1.184128e+003;7.572659e-002
1.186057e+003;7.544429e-002
1.187986e+003;7.586768e-002
1.189914e+003;7.609194e-002
1.191843e+003;7.660511e-002
1.193771e+003;7.697254e-002
1.195700e+003;7.743677e-002
1.197628e+003;7.807661e-002
1.199557e+003;7.812040e-002
1.201485e+003;7.781438e-002
1.203414e+003;7.741570e-002
1.205343e+003;7.741974e-002
1.207271e+003;7.725576e-002
1.209200e+003;7.706761e-002
1.211128e+003;7.751634e-002
1.213057e+003;7.775604e-002
1.214985e+003;7.759545e-002
1.216914e+003;7.786971e-002
1.218842e+003;7.831813e-002
1.220771e+003;7.866088e-002
1.222699e+003;7.887566e-002
1.224628e+003;7.858916e-002
1.226557e+003;7.833844e-002
1.228485e+003;7.825706e-002
1.230414e+003;7.813694e-002
1.232342e+003;7.760745e-002
1.234271e+003;7.705637e-002
1.236199e+003;7.685443e-002
1.238128e+003;7.670903e-002
1.240056e+003;7.646470e-002
1.241985e+003;7.630972e-002
1.243913e+003;7.576218e-002
1.245842e+003;7.499423e-002
1.247771e+003;7.391983e-002
1.249699e+003;7.244173e-002
1.251628e+003;7.055008e-002
1.253556e+003;6.738680e-002
1.255485e+003;6.308833e-002
1.257413e+003;5.902233e-002
1.259342e+003;5.603475e-002
1.261270e+003;5.509982e-002
1.263199e+003;5.667725e-002
1.265127e+003;6.015262e-002
1.267056e+003;6.382266e-002
1.268985e+003;6.692777e-002
1.270913e+003;6.925941e-002
1.272842e+003;7.030693e-002
1.274770e+003;7.036603e-002
1.276699e+003;7.012414e-002
1.278627e+003;6.992225e-002
1.280556e+003;6.962354e-002
1.282484e+003;6.899925e-002
1.284413e+003;6.830110e-002
1.286342e+003;6.796855e-002
1.288270e+003;6.783605e-002
1.290199e+003;6.736923e-002
1.292127e+003;6.673013e-002
1.294056e+003;6.599961e-002
1.295984e+003;6.566182e-002
1.297913e+003;6.563761e-002
1.299841e+003;6.546518e-002
1.301770e+003;6.532259e-002
1.303698e+003;6.524934e-002
1.305627e+003;6.506459e-002
1.307556e+003;6.487665e-002
1.309484e+003;6.481260e-002
1.311413e+003;6.456606e-002
1.313341e+003;6.423079e-002
1.315270e+003;6.387176e-002
1.317198e+003;6.344879e-002
1.319127e+003;6.342961e-002
1.321055e+003;6.378348e-002
1.322984e+003;6.409233e-002
1.324912e+003;6.422392e-002
1.326841e+003;6.427977e-002
1.328770e+003;6.456237e-002
1.330698e+003;6.456875e-002
1.332627e+003;6.423717e-002
1.334555e+003;6.408515e-002
1.336484e+003;6.405869e-002
1.338412e+003;6.400969e-002
1.340341e+003;6.432972e-002
1.342269e+003;6.498396e-002
1.344198e+003;6.545509e-002
1.346126e+003;6.571389e-002
1.348055e+003;6.567249e-002
1.349984e+003;6.570745e-002
1.351912e+003;6.611048e-002
1.353841e+003;6.641794e-002
1.355769e+003;6.622486e-002
1.357698e+003;6.608000e-002
1.359626e+003;6.570733e-002
1.361555e+003;6.481133e-002
1.363483e+003;6.454349e-002
1.365412e+003;6.489065e-002
1.367341e+003;6.426744e-002
1.369269e+003;6.350991e-002
1.371198e+003;6.301400e-002
1.373126e+003;6.208476e-002
1.375055e+003;6.146052e-002
1.376983e+003;6.130295e-002
1.378912e+003;6.097328e-002
1.380840e+003;6.055669e-002
1.382769e+003;5.989269e-002
1.384698e+003;5.882306e-002
1.386626e+003;5.732788e-002
1.388555e+003;5.679842e-002
1.390483e+003;5.635647e-002
1.392412e+003;5.489459e-002
1.394340e+003;5.291104e-002
1.396269e+003;5.193999e-002
1.398197e+003;5.125029e-002
1.400126e+003;5.124182e-002
1.402054e+003;5.132344e-002
1.403983e+003;5.070051e-002
1.405911e+003;5.027658e-002
1.407840e+003;5.030984e-002
1.409769e+003;5.053093e-002
1.411697e+003;5.069499e-002
1.413626e+003;5.101848e-002
1.415554e+003;5.115638e-002
1.417483e+003;5.029284e-002
1.419411e+003;5.038787e-002
1.421340e+003;5.297766e-002
1.423268e+003;5.493125e-002
1.425197e+003;5.678433e-002
1.427125e+003;5.951264e-002
1.429054e+003;6.197071e-002
1.430983e+003;6.461535e-002
1.432911e+003;6.752748e-002
1.434840e+003;6.874993e-002
1.436768e+003;6.967290e-002
1.438697e+003;7.316968e-002
1.440625e+003;7.609051e-002
1.442554e+003;7.833301e-002
1.444482e+003;8.059241e-002
1.446411e+003;8.246722e-002
1.448340e+003;8.399852e-002
1.450268e+003;8.527612e-002
1.452197e+003;8.525140e-002
1.454125e+003;8.258074e-002
1.456054e+003;7.671635e-002
1.457982e+003;7.315784e-002
1.459911e+003;7.169378e-002
1.461839e+003;6.813772e-002
1.463768e+003;6.276863e-002
1.465697e+003;5.925553e-002
1.467625e+003;5.793144e-002
1.469554e+003;5.556037e-002
1.471482e+003;5.197114e-002
1.473411e+003;5.024701e-002
1.475339e+003;5.091150e-002
1.477268e+003;5.132169e-002
1.479196e+003;5.117625e-002
1.481125e+003;5.101199e-002
1.483053e+003;5.126423e-002
1.484982e+003;5.085495e-002
1.486911e+003;4.950847e-002
1.488839e+003;4.814461e-002
1.490768e+003;4.801000e-002
1.492696e+003;4.869094e-002
1.494625e+003;4.716786e-002
1.496553e+003;4.570857e-002
1.498482e+003;4.685425e-002
1.500410e+003;4.787468e-002
1.502339e+003;4.753165e-002
1.504267e+003;4.432856e-002
1.506196e+003;4.076920e-002
1.508125e+003;4.241034e-002
1.510053e+003;4.532696e-002
1.511982e+003;4.606199e-002
1.513910e+003;4.618369e-002
1.515839e+003;4.557209e-002
1.517767e+003;4.525433e-002
1.519696e+003;4.379627e-002
1.521624e+003;4.279004e-002
1.523553e+003;4.460786e-002
1.525481e+003;4.548908e-002
1.527410e+003;4.646839e-002
1.529339e+003;4.730137e-002
1.531267e+003;4.687189e-002
1.533196e+003;4.613277e-002
1.535124e+003;4.734486e-002
1.537053e+003;4.665923e-002
1.538981e+003;4.329794e-002
1.540910e+003;4.359954e-002
1.542838e+003;4.614422e-002
1.544767e+003;4.769366e-002
1.546695e+003;4.870187e-002
1.548624e+003;4.849372e-002
1.550553e+003;4.843878e-002
1.552481e+003;4.805018e-002
1.554410e+003;4.692892e-002
1.556338e+003;4.502621e-002
1.558267e+003;4.090425e-002
1.560195e+003;4.181474e-002
1.562124e+003;4.615421e-002
1.564052e+003;4.729151e-002
1.565981e+003;4.711102e-002
1.567910e+003;4.631852e-002
1.569838e+003;4.543860e-002
1.571767e+003;4.643413e-002
1.573695e+003;4.591767e-002
1.575624e+003;4.380590e-002
1.577552e+003;4.529651e-002
1.579481e+003;4.753423e-002
1.581409e+003;4.744390e-002
1.583338e+003;4.645792e-002
1.585266e+003;4.548926e-002
1.587195e+003;4.512513e-002
1.589124e+003;4.491791e-002
1.591052e+003;4.461855e-002
1.592981e+003;4.425261e-002
1.594909e+003;4.437520e-002
1.596838e+003;4.484777e-002
1.598766e+003;4.543415e-002
1.600695e+003;4.585598e-002
1.602623e+003;4.618679e-002
1.604552e+003;4.624679e-002
1.606480e+003;4.629415e-002
1.608409e+003;4.642012e-002
1.610338e+003;4.636379e-002
1.612266e+003;4.609868e-002
1.614195e+003;4.471836e-002
1.616123e+003;4.239510e-002
1.618052e+003;4.344966e-002
1.619980e+003;4.520829e-002
1.621909e+003;4.446109e-002
1.623837e+003;4.384281e-002
1.625766e+003;4.435447e-002
1.627694e+003;4.466320e-002
1.629623e+003;4.513244e-002
1.631552e+003;4.517233e-002
1.633480e+003;4.304267e-002
1.635409e+003;4.101279e-002
1.637337e+003;4.292627e-002
1.639266e+003;4.482988e-002
1.641194e+003;4.505154e-002
1.643123e+003;4.428827e-002
1.645051e+003;4.223235e-002
1.646980e+003;4.189378e-002
1.648909e+003;4.368985e-002
1.650837e+003;4.124843e-002
1.652766e+003;3.717430e-002
1.654694e+003;4.136325e-002
1.656623e+003;4.606593e-002
1.658551e+003;4.694926e-002
1.660480e+003;4.677763e-002
1.662408e+003;4.654425e-002
1.664337e+003;4.756429e-002
1.666266e+003;4.822332e-002
1.668194e+003;4.720432e-002
1.670123e+003;4.698002e-002
1.672051e+003;4.785999e-002
1.673980e+003;4.693830e-002
1.675908e+003;4.633330e-002
1.677837e+003;4.724126e-002
1.679765e+003;4.689721e-002
1.681694e+003;4.478323e-002
1.683622e+003;4.088131e-002
1.685551e+003;4.162606e-002
1.687479e+003;4.496987e-002
1.689408e+003;4.577421e-002
1.691337e+003;4.579401e-002
1.693265e+003;4.442420e-002
1.695194e+003;4.164528e-002
1.697122e+003;4.234235e-002
1.699051e+003;4.191618e-002
1.700979e+003;4.222954e-002
1.702908e+003;4.582689e-002
1.704836e+003;4.721440e-002
1.706765e+003;4.914322e-002
1.708693e+003;5.164124e-002
1.710622e+003;5.402679e-002
1.712551e+003;5.579345e-002
1.714479e+003;5.693843e-002
1.716408e+003;5.782888e-002
1.718336e+003;6.140537e-002
1.720265e+003;6.724330e-002
1.722193e+003;7.160335e-002
1.724122e+003;7.451253e-002
1.726050e+003;7.688931e-002
1.727979e+003;7.814793e-002
1.729908e+003;7.829765e-002
1.731836e+003;7.611831e-002
1.733765e+003;7.260650e-002
1.735693e+003;7.257000e-002
1.737622e+003;7.148208e-002
1.739550e+003;6.744028e-002
1.741479e+003;6.394093e-002
1.743407e+003;6.052066e-002
1.745336e+003;5.712338e-002
1.747265e+003;5.347700e-002
1.749193e+003;4.984917e-002
1.751122e+003;4.705353e-002
1.753050e+003;4.610045e-002
1.754979e+003;4.483844e-002
1.756907e+003;4.332865e-002
1.758836e+003;4.218247e-002
1.760764e+003;4.055420e-002
1.762693e+003;3.981510e-002
1.764621e+003;3.973772e-002
1.766550e+003;3.872794e-002
1.768479e+003;3.803158e-002
1.770407e+003;3.688312e-002
1.772336e+003;3.556776e-002
1.774264e+003;3.650054e-002
1.776193e+003;3.748411e-002
1.778121e+003;3.753667e-002
1.780050e+003;3.710490e-002
1.781978e+003;3.692370e-002
1.783907e+003;3.662911e-002
1.785835e+003;3.636685e-002
1.787764e+003;3.650061e-002
1.789693e+003;3.583382e-002
1.791621e+003;3.436087e-002
1.793550e+003;3.435431e-002
1.795478e+003;3.539165e-002
1.797407e+003;3.521340e-002
1.799335e+003;3.470220e-002
1.801264e+003;3.456088e-002
1.803192e+003;3.494093e-002
1.805121e+003;3.518767e-002
1.807049e+003;3.499904e-002
1.808978e+003;3.463886e-002
1.810907e+003;3.450646e-002
1.812835e+003;3.459389e-002
1.814764e+003;3.480367e-002
1.816692e+003;3.453968e-002
1.818621e+003;3.425799e-002
1.820549e+003;3.431805e-002
1.822478e+003;3.420382e-002
1.824406e+003;3.381468e-002
1.826335e+003;3.384616e-002
1.828264e+003;3.326180e-002
1.830192e+003;3.279473e-002
1.832121e+003;3.332387e-002
1.834049e+003;3.379609e-002
1.835978e+003;3.384562e-002
1.837906e+003;3.383284e-002
1.839835e+003;3.378215e-002
1.841763e+003;3.303961e-002
1.843692e+003;3.181482e-002
1.845620e+003;3.240524e-002
1.847549e+003;3.317925e-002
1.849478e+003;3.325250e-002
1.851406e+003;3.337954e-002
1.853335e+003;3.345830e-002
1.855263e+003;3.323329e-002
1.857192e+003;3.294773e-002
1.859120e+003;3.288936e-002
1.861049e+003;3.297790e-002
1.862977e+003;3.296228e-002
1.864906e+003;3.263336e-002
1.866834e+003;3.202687e-002
1.868763e+003;3.178948e-002
1.870692e+003;3.237057e-002
1.872620e+003;3.289987e-002
1.874549e+003;3.284455e-002
1.876477e+003;3.263878e-002
1.878406e+003;3.258292e-002
1.880334e+003;3.255989e-002
1.882263e+003;3.248854e-002
1.884191e+003;3.256921e-002
1.886120e+003;3.235305e-002
1.888048e+003;3.203275e-002
1.889977e+003;3.205398e-002
1.891906e+003;3.238771e-002
1.893834e+003;3.235555e-002
1.895763e+003;3.223166e-002
1.897691e+003;3.236511e-002
1.899620e+003;3.235415e-002
1.901548e+003;3.225018e-002
1.903477e+003;3.224654e-002
1.905405e+003;3.203290e-002
1.907334e+003;3.181636e-002
1.909262e+003;3.162274e-002
1.911191e+003;3.159950e-002
1.913120e+003;3.188931e-002
1.915048e+003;3.206842e-002
1.916977e+003;3.149297e-002
1.918905e+003;3.145535e-002
1.920834e+003;3.178916e-002
1.922762e+003;3.182805e-002
1.924691e+003;3.187779e-002
1.926619e+003;3.182816e-002
1.928548e+003;3.198103e-002
1.930477e+003;3.195988e-002
1.932405e+003;3.162324e-002
1.934334e+003;3.141431e-002
1.936262e+003;3.145296e-002
1.938191e+003;3.141937e-002
1.940119e+003;3.131473e-002
1.942048e+003;3.122977e-002
1.943976e+003;3.116533e-002
1.945905e+003;3.115917e-002
1.947833e+003;3.121425e-002
1.949762e+003;3.129208e-002
1.951691e+003;3.124177e-002
1.953619e+003;3.130711e-002
1.955548e+003;3.130127e-002
1.957476e+003;3.146967e-002
1.959405e+003;3.177304e-002
1.961333e+003;3.173643e-002
1.963262e+003;3.144331e-002
1.965190e+003;3.135993e-002
1.967119e+003;3.137538e-002
1.969047e+003;3.161062e-002
1.970976e+003;3.179311e-002
1.972905e+003;3.161739e-002
1.974833e+003;3.156419e-002
1.976762e+003;3.151694e-002
1.978690e+003;3.154014e-002
1.980619e+003;3.171016e-002
1.982547e+003;3.182363e-002
1.984476e+003;3.179147e-002
1.986404e+003;3.162006e-002
1.988333e+003;3.171209e-002
1.990261e+003;3.179860e-002
1.992190e+003;3.183986e-002
1.994119e+003;3.192201e-002
1.996047e+003;3.206689e-002
1.997976e+003;3.207980e-002
1.999904e+003;3.203942e-002
2.001833e+003;3.213450e-002
2.003761e+003;3.223855e-002
2.005690e+003;3.223837e-002
2.007618e+003;3.224369e-002
2.009547e+003;3.231250e-002
2.011476e+003;3.235704e-002
2.013404e+003;3.239228e-002
2.015333e+003;3.224915e-002
2.017261e+003;3.202159e-002
2.019190e+003;3.212668e-002
2.021118e+003;3.226385e-002
2.023047e+003;3.227898e-002
2.024975e+003;3.230029e-002
2.026904e+003;3.222053e-002
2.028833e+003;3.219826e-002
2.030761e+003;3.227181e-002
2.032690e+003;3.226849e-002
2.034618e+003;3.215940e-002
2.036547e+003;3.195567e-002
2.038475e+003;3.199587e-002
2.040404e+003;3.200518e-002
2.042332e+003;3.198696e-002
2.044261e+003;3.198253e-002
2.046189e+003;3.216301e-002
2.048118e+003;3.218873e-002
2.050047e+003;3.197472e-002
2.051975e+003;3.196420e-002
2.053904e+003;3.214096e-002
2.055832e+003;3.212943e-002
2.057761e+003;3.189505e-002
2.059689e+003;3.169441e-002
2.061618e+003;3.145941e-002
2.063546e+003;3.159637e-002
2.065475e+003;3.168233e-002
2.067404e+003;3.159758e-002
2.069332e+003;3.173462e-002
2.071260e+003;3.178392e-002
2.073189e+003;3.183183e-002
2.075118e+003;3.180720e-002
2.077046e+003;3.169708e-002
2.078975e+003;3.171448e-002
2.080903e+003;3.150757e-002
2.082832e+003;3.132399e-002
2.084760e+003;3.129614e-002
2.086689e+003;3.136278e-002
2.088617e+003;3.147355e-002
2.090546e+003;3.158290e-002
2.092475e+003;3.176256e-002
2.094403e+003;3.187786e-002
2.096332e+003;3.178509e-002
2.098260e+003;3.153401e-002
2.100189e+003;3.156854e-002
2.102117e+003;3.165160e-002
2.104046e+003;3.152532e-002
2.105974e+003;3.134639e-002
2.107903e+003;3.125950e-002
2.109832e+003;3.115551e-002
2.111760e+003;3.096360e-002
2.113688e+003;3.090692e-002
2.115617e+003;3.094738e-002
2.117546e+003;3.107061e-002
2.119474e+003;3.099146e-002
2.121403e+003;3.071595e-002
2.123331e+003;3.067420e-002
2.125260e+003;3.072683e-002
2.127188e+003;3.067384e-002
2.129117e+003;3.071573e-002
2.131045e+003;3.083652e-002
2.132974e+003;3.081276e-002
2.134903e+003;3.084228e-002
2.136831e+003;3.102552e-002
2.138760e+003;3.136979e-002
2.140688e+003;3.128265e-002
2.142617e+003;3.095759e-002
2.144545e+003;3.087864e-002
2.146474e+003;3.084897e-002
2.148402e+003;3.086213e-002
2.150331e+003;3.087092e-002
2.152260e+003;3.105702e-002
2.154188e+003;3.111087e-002
2.156117e+003;3.106350e-002
2.158045e+003;3.121368e-002
2.159974e+003;3.109225e-002
2.161902e+003;3.086032e-002
2.163831e+003;3.104691e-002
2.165759e+003;3.116352e-002
2.167688e+003;3.119705e-002
2.169616e+003;3.129394e-002
2.171545e+003;3.125797e-002
2.173474e+003;3.118922e-002
2.175402e+003;3.133706e-002
2.177331e+003;3.157527e-002
2.179259e+003;3.159576e-002
2.181188e+003;3.173900e-002
2.183116e+003;3.195439e-002
2.185045e+003;3.239124e-002
2.186973e+003;3.331013e-002
2.188902e+003;3.377847e-002
2.190831e+003;3.392655e-002
2.192759e+003;3.385823e-002
2.194688e+003;3.362342e-002
2.196616e+003;3.354087e-002
2.198545e+003;3.337120e-002
2.200473e+003;3.319917e-002
2.202402e+003;3.323708e-002
2.204330e+003;3.325836e-002
2.206259e+003;3.336483e-002
2.208188e+003;3.342889e-002
2.210116e+003;3.335861e-002
2.212044e+003;3.358758e-002
2.213973e+003;3.403898e-002
2.215902e+003;3.418543e-002
2.217830e+003;3.422792e-002
2.219759e+003;3.453832e-002
2.221687e+003;3.514639e-002
2.223616e+003;3.620601e-002
2.225544e+003;3.721289e-002
2.227473e+003;3.881478e-002
2.229401e+003;4.159401e-002
2.231330e+003;4.548437e-002
2.233259e+003;5.061818e-002
2.235187e+003;5.611634e-002
2.237116e+003;6.084758e-002
2.239044e+003;6.451163e-002
2.240973e+003;6.652617e-002
2.242901e+003;6.629464e-002
2.244830e+003;6.434340e-002
2.246758e+003;6.124312e-002
2.248687e+003;5.758960e-002
2.250615e+003;5.395043e-002
2.252544e+003;5.062824e-002
2.254473e+003;4.755327e-002
2.256401e+003;4.498465e-002
2.258330e+003;4.281692e-002
2.260258e+003;4.089926e-002
2.262187e+003;3.916518e-002
2.264115e+003;3.793687e-002
2.266044e+003;3.711201e-002
2.267972e+003;3.637045e-002
2.269901e+003;3.587747e-002
2.271830e+003;3.547682e-002
2.273758e+003;3.514132e-002
2.275687e+003;3.491332e-002
2.277615e+003;3.462848e-002
2.279544e+003;3.431425e-002
2.281472e+003;3.419597e-002
2.283401e+003;3.410084e-002
2.285329e+003;3.393009e-002
2.287258e+003;3.390964e-002
2.289187e+003;3.388872e-002
2.291115e+003;3.372797e-002
2.293043e+003;3.348901e-002
2.294972e+003;3.344255e-002
2.296901e+003;3.365944e-002
2.298829e+003;3.378230e-002
2.300758e+003;3.372804e-002
2.302686e+003;3.340215e-002
2.304615e+003;3.328706e-002
2.306543e+003;3.323326e-002
2.308472e+003;3.303482e-002
2.310400e+003;3.295145e-002
2.312329e+003;3.272059e-002
2.314258e+003;3.252789e-002
2.316186e+003;3.263278e-002
2.318115e+003;3.250385e-002
2.320043e+003;3.243894e-002
2.321972e+003;3.262832e-002
2.323900e+003;3.248318e-002
2.325829e+003;3.209607e-002
2.327757e+003;3.198799e-002
2.329686e+003;3.208744e-002
2.331615e+003;3.183761e-002
2.333543e+003;3.161810e-002
2.335472e+003;3.173501e-002
2.337400e+003;3.164979e-002
2.339329e+003;3.152332e-002
2.341257e+003;3.166401e-002
2.343186e+003;3.205726e-002
2.345114e+003;3.257610e-002
2.347043e+003;3.288568e-002
2.348971e+003;3.295656e-002
2.350900e+003;3.278001e-002
2.352829e+003;3.228419e-002
2.354757e+003;3.183693e-002
2.356686e+003;3.156447e-002
2.358614e+003;3.127777e-002
2.360543e+003;3.125405e-002
2.362471e+003;3.122906e-002
2.364400e+003;3.125761e-002
2.366328e+003;3.188474e-002
2.368257e+003;3.240124e-002
2.370186e+003;3.252057e-002
2.372114e+003;3.277794e-002
2.374042e+003;3.326920e-002
2.375971e+003;3.355114e-002
2.377900e+003;3.352079e-002
2.379828e+003;3.342684e-002
2.381757e+003;3.364845e-002
2.383685e+003;3.400150e-002
2.385614e+003;3.419795e-002
2.387542e+003;3.405751e-002
2.389471e+003;3.387392e-002
2.391399e+003;3.387224e-002
2.393328e+003;3.377825e-002
2.395257e+003;3.356210e-002
2.397185e+003;3.352576e-002
2.399114e+003;3.372740e-002
2.401042e+003;3.417819e-002
2.402971e+003;3.445093e-002
2.404899e+003;3.409998e-002
2.406828e+003;3.357932e-002
2.408756e+003;3.349513e-002
2.410685e+003;3.376801e-002
2.412614e+003;3.391558e-002
2.414542e+003;3.394002e-002
2.416471e+003;3.379970e-002
2.418399e+003;3.375250e-002
2.420328e+003;3.390215e-002
2.422256e+003;3.397058e-002
2.424185e+003;3.407801e-002
2.426113e+003;3.430740e-002
2.428042e+003;3.442474e-002
2.429970e+003;3.428833e-002
2.431899e+003;3.399624e-002
2.433828e+003;3.403913e-002
2.435756e+003;3.418253e-002
2.437685e+003;3.413704e-002
2.439613e+003;3.415167e-002
2.441542e+003;3.411256e-002
2.443470e+003;3.409127e-002
2.445399e+003;3.420002e-002
2.447327e+003;3.429733e-002
2.449256e+003;3.426301e-002
2.451185e+003;3.433355e-002
2.453113e+003;3.436535e-002
2.455042e+003;3.433372e-002
2.456970e+003;3.422053e-002
2.458899e+003;3.428865e-002
2.460827e+003;3.435610e-002
2.462756e+003;3.430281e-002
2.464684e+003;3.427693e-002
2.466613e+003;3.432573e-002
2.468542e+003;3.421734e-002
2.470470e+003;3.415679e-002
2.472398e+003;3.446696e-002
2.474327e+003;3.478152e-002
2.476256e+003;3.489741e-002
2.478184e+003;3.508373e-002
2.480113e+003;3.527438e-002
2.482041e+003;3.513992e-002
2.483970e+003;3.500723e-002
2.485898e+003;3.497142e-002
2.487827e+003;3.469322e-002
2.489755e+003;3.470399e-002
2.491684e+003;3.527039e-002
2.493613e+003;3.585671e-002
2.495541e+003;3.628526e-002
2.497470e+003;3.623983e-002
2.499398e+003;3.588625e-002
2.501327e+003;3.547255e-002
2.503255e+003;3.504217e-002
2.505184e+003;3.526895e-002
2.507112e+003;3.563217e-002
2.509041e+003;3.584731e-002
2.510969e+003;3.605132e-002
2.512898e+003;3.594049e-002
2.514827e+003;3.586516e-002
2.516755e+003;3.589046e-002
2.518684e+003;3.562142e-002
2.520612e+003;3.543418e-002
2.522541e+003;3.571246e-002
2.524469e+003;3.571131e-002
2.526398e+003;3.556122e-002
2.528326e+003;3.560243e-002
2.530255e+003;3.560283e-002
2.532184e+003;3.546251e-002
2.534112e+003;3.565113e-002
2.536041e+003;3.588190e-002
2.537969e+003;3.548063e-002
2.539898e+003;3.520969e-002
2.541826e+003;3.533508e-002
2.543755e+003;3.539291e-002
2.545683e+003;3.536049e-002
2.547612e+003;3.539608e-002
2.549541e+003;3.553342e-002
2.551469e+003;3.585037e-002
2.553397e+003;3.572789e-002
2.555326e+003;3.523251e-002
2.557255e+003;3.501940e-002
2.559183e+003;3.504648e-002
2.561112e+003;3.514606e-002
2.563040e+003;3.505550e-002
2.564969e+003;3.493777e-002
2.566897e+003;3.495831e-002
2.568826e+003;3.480123e-002
2.570754e+003;3.484553e-002
2.572683e+003;3.489386e-002
2.574612e+003;3.478296e-002
2.576540e+003;3.470754e-002
2.578469e+003;3.456293e-002
2.580397e+003;3.436399e-002
2.582326e+003;3.436152e-002
2.584254e+003;3.433326e-002
2.586183e+003;3.435513e-002
2.588111e+003;3.426441e-002
2.590040e+003;3.409959e-002
2.591969e+003;3.392497e-002
2.593897e+003;3.398427e-002
2.595826e+003;3.422039e-002
2.597754e+003;3.446675e-002
2.599683e+003;3.443052e-002
2.601611e+003;3.427345e-002
2.603540e+003;3.422185e-002
2.605468e+003;3.399828e-002
2.607397e+003;3.410951e-002
2.609325e+003;3.445419e-002
2.611254e+003;3.463056e-002
2.613183e+003;3.468353e-002
2.615111e+003;3.485738e-002
2.617040e+003;3.463580e-002
2.618968e+003;3.440272e-002
2.620897e+003;3.458776e-002
2.622825e+003;3.447571e-002
2.624754e+003;3.433666e-002
2.626682e+003;3.455123e-002
2.628611e+003;3.454122e-002
2.630540e+003;3.449207e-002
2.632468e+003;3.473077e-002
2.634396e+003;3.490574e-002
2.636325e+003;3.480611e-002
2.638254e+003;3.464743e-002
2.640182e+003;3.453060e-002
2.642111e+003;3.454416e-002
2.644039e+003;3.452242e-002
2.645968e+003;3.436751e-002
2.647896e+003;3.424222e-002
2.649825e+003;3.439200e-002
2.651753e+003;3.443285e-002
2.653682e+003;3.440914e-002
2.655611e+003;3.449645e-002
2.657539e+003;3.465281e-002
2.659468e+003;3.466178e-002
2.661396e+003;3.422146e-002
2.663325e+003;3.408120e-002
2.665253e+003;3.432748e-002
2.667182e+003;3.445078e-002
2.669110e+003;3.431834e-002
2.671039e+003;3.403615e-002
2.672968e+003;3.412084e-002
2.674896e+003;3.435137e-002
2.676825e+003;3.449225e-002
2.678753e+003;3.418654e-002
2.680682e+003;3.382897e-002
2.682610e+003;3.393658e-002
2.684539e+003;3.414428e-002
2.686467e+003;3.422551e-002
2.688396e+003;3.434817e-002
2.690324e+003;3.436320e-002
2.692253e+003;3.404418e-002
2.694182e+003;3.378742e-002
2.696110e+003;3.390423e-002
2.698039e+003;3.396775e-002
2.699967e+003;3.393267e-002
2.701896e+003;3.418966e-002
2.703824e+003;3.438361e-002
2.705753e+003;3.446700e-002
2.707681e+003;3.454112e-002
2.709610e+003;3.439143e-002
2.711539e+003;3.378599e-002
2.713467e+003;3.347344e-002
2.715396e+003;3.341876e-002
2.717324e+003;3.359063e-002
2.719253e+003;3.398011e-002
2.721181e+003;3.415797e-002
2.723110e+003;3.399666e-002
2.725038e+003;3.354348e-002
2.726967e+003;3.330394e-002
2.728896e+003;3.341604e-002
2.730824e+003;3.355311e-002
2.732752e+003;3.354552e-002
2.734681e+003;3.353954e-002
2.736610e+003;3.361715e-002
2.738538e+003;3.332190e-002
2.740467e+003;3.317721e-002
2.742395e+003;3.333449e-002
2.744324e+003;3.335964e-002
2.746252e+003;3.337492e-002
2.748181e+003;3.344670e-002
2.750109e+003;3.347240e-002
2.752038e+003;3.346818e-002
2.753967e+003;3.345859e-002
2.755895e+003;3.329092e-002
2.757824e+003;3.326727e-002
2.759752e+003;3.317327e-002
2.761681e+003;3.305234e-002
2.763609e+003;3.303961e-002
2.765538e+003;3.314924e-002
2.767466e+003;3.326613e-002
2.769395e+003;3.323476e-002
2.771323e+003;3.324735e-002
2.773252e+003;3.330222e-002
2.775181e+003;3.350733e-002
2.777109e+003;3.358132e-002
2.779038e+003;3.344041e-002
2.780966e+003;3.360083e-002
2.782895e+003;3.395578e-002
2.784823e+003;3.400684e-002
2.786752e+003;3.386726e-002
2.788680e+003;3.380687e-002
2.790609e+003;3.401211e-002
2.792538e+003;3.404013e-002
2.794466e+003;3.434502e-002
2.796395e+003;3.475998e-002
2.798323e+003;3.497541e-002
2.800252e+003;3.536272e-002
2.802180e+003;3.536028e-002
2.804109e+003;3.543879e-002
2.806037e+003;3.547405e-002
2.807966e+003;3.532095e-002
2.809895e+003;3.541161e-002
2.811823e+003;3.561383e-002
2.813751e+003;3.571347e-002
2.815680e+003;3.568465e-002
2.817609e+003;3.569314e-002
2.819537e+003;3.599844e-002
2.821466e+003;3.605550e-002
2.823394e+003;3.589525e-002
2.825323e+003;3.596975e-002
2.827251e+003;3.616287e-002
2.829180e+003;3.631728e-002
2.831108e+003;3.669263e-002
2.833037e+003;3.714002e-002
2.834966e+003;3.741252e-002
2.836894e+003;3.755741e-002
2.838823e+003;3.798475e-002
2.840751e+003;3.873990e-002
2.842680e+003;3.974694e-002
2.844608e+003;4.099633e-002
2.846537e+003;4.215819e-002
2.848465e+003;4.327483e-002
2.850394e+003;4.408949e-002
2.852323e+003;4.397937e-002
2.854251e+003;4.373664e-002
2.856180e+003;4.386209e-002
2.858108e+003;4.372367e-002
2.860037e+003;4.385458e-002
2.861965e+003;4.380840e-002
2.863894e+003;4.370726e-002
2.865822e+003;4.389494e-002
2.867751e+003;4.408395e-002
2.869679e+003;4.433532e-002
2.871608e+003;4.407731e-002
2.873536e+003;4.335259e-002
2.875465e+003;4.296069e-002
2.877394e+003;4.300466e-002
2.879322e+003;4.300397e-002
2.881251e+003;4.280847e-002
2.883179e+003;4.253946e-002
2.885108e+003;4.239938e-002
2.887036e+003;4.266347e-002
2.888965e+003;4.328501e-002
2.890893e+003;4.356917e-002
2.892822e+003;4.360101e-002
2.894750e+003;4.375856e-002
2.896679e+003;4.434159e-002
2.898608e+003;4.513539e-002
2.900536e+003;4.576150e-002
2.902465e+003;4.614198e-002
2.904393e+003;4.685344e-002
2.906322e+003;4.795116e-002
2.908250e+003;4.893208e-002
2.910179e+003;4.981573e-002
2.912107e+003;5.099985e-002
2.914036e+003;5.279694e-002
2.915965e+003;5.409782e-002
2.917893e+003;5.443343e-002
2.919822e+003;5.446750e-002
2.921750e+003;5.447024e-002
2.923679e+003;5.439553e-002
2.925607e+003;5.414448e-002
2.927536e+003;5.406067e-002
2.929464e+003;5.387668e-002
2.931393e+003;5.347603e-002
2.933322e+003;5.320209e-002
2.935250e+003;5.320794e-002
2.937178e+003;5.299305e-002
2.939107e+003;5.222285e-002
2.941036e+003;5.174190e-002
2.942964e+003;5.147752e-002
2.944893e+003;5.097216e-002
2.946821e+003;5.028294e-002
2.948750e+003;4.961180e-002
2.950678e+003;4.855712e-002
2.952607e+003;4.743392e-002
2.954535e+003;4.658390e-002
2.956464e+003;4.563561e-002
2.958393e+003;4.427158e-002
2.960321e+003;4.287715e-002
2.962250e+003;4.199366e-002
2.964178e+003;4.173245e-002
2.966107e+003;4.191107e-002
2.968035e+003;4.222314e-002
2.969964e+003;4.246554e-002
2.971892e+003;4.240968e-002
2.973821e+003;4.241202e-002
2.975750e+003;4.255558e-002
2.977678e+003;4.267634e-002
2.979607e+003;4.274880e-002
2.981535e+003;4.310432e-002
2.983464e+003;4.303554e-002
2.985392e+003;4.259969e-002
2.987321e+003;4.249382e-002
2.989249e+003;4.245235e-002
2.991178e+003;4.226434e-002
2.993106e+003;4.208776e-002
2.995035e+003;4.162982e-002
2.996964e+003;4.138330e-002
2.998892e+003;4.162621e-002
3.000821e+003;4.167252e-002
3.002749e+003;4.120194e-002
3.004678e+003;4.092111e-002
3.006606e+003;4.072982e-002
3.008535e+003;4.028407e-002
3.010463e+003;4.000285e-002
3.012392e+003;3.986696e-002
3.014321e+003;3.939473e-002
3.016249e+003;3.892128e-002
3.018177e+003;3.883855e-002
3.020106e+003;3.879489e-002
3.022035e+003;3.851644e-002
3.023963e+003;3.832227e-002
3.025892e+003;3.835430e-002
3.027820e+003;3.851308e-002
3.029749e+003;3.845244e-002
3.031677e+003;3.815420e-002
3.033606e+003;3.778767e-002
3.035534e+003;3.771159e-002
3.037463e+003;3.772803e-002
3.039392e+003;3.753664e-002
3.041320e+003;3.729517e-002
3.043249e+003;3.718073e-002
3.045177e+003;3.712399e-002
3.047106e+003;3.717528e-002
3.049034e+003;3.679302e-002
3.050963e+003;3.636613e-002
3.052891e+003;3.644352e-002
3.054820e+003;3.626249e-002
3.056749e+003;3.580323e-002
3.058677e+003;3.571041e-002
3.060606e+003;3.595517e-002
3.062534e+003;3.602241e-002
3.064463e+003;3.596421e-002
3.066391e+003;3.580370e-002
3.068320e+003;3.545805e-002
3.070248e+003;3.530597e-002
3.072177e+003;3.540230e-002
3.074105e+003;3.537685e-002
3.076034e+003;3.514520e-002
3.077963e+003;3.479408e-002
3.079891e+003;3.459472e-002
3.081820e+003;3.469911e-002
3.083748e+003;3.480701e-002
3.085677e+003;3.471835e-002
3.087605e+003;3.438666e-002
3.089534e+003;3.413744e-002
3.091462e+003;3.415188e-002
3.093391e+003;3.428191e-002
3.095320e+003;3.453918e-002
3.097248e+003;3.439763e-002
3.099177e+003;3.389258e-002
3.101105e+003;3.376235e-002
3.103034e+003;3.358519e-002
3.104962e+003;3.345487e-002
3.106891e+003;3.342137e-002
3.108819e+003;3.336698e-002
3.110748e+003;3.354087e-002
3.112677e+003;3.373424e-002
3.114605e+003;3.373882e-002
3.116533e+003;3.338888e-002
3.118462e+003;3.301404e-002
3.120391e+003;3.297254e-002
3.122319e+003;3.295195e-002
3.124248e+003;3.282779e-002
3.126176e+003;3.267229e-002
3.128105e+003;3.281410e-002
3.130033e+003;3.304440e-002
3.131962e+003;3.286624e-002
3.133890e+003;3.261853e-002
3.135819e+003;3.259921e-002
3.137748e+003;3.277776e-002
3.139676e+003;3.265565e-002
3.141605e+003;3.266283e-002
3.143533e+003;3.280613e-002
3.145462e+003;3.273863e-002
3.147390e+003;3.227920e-002
3.149319e+003;3.182812e-002
3.151247e+003;3.222770e-002
3.153176e+003;3.231739e-002
3.155104e+003;3.228230e-002
3.157033e+003;3.246618e-002
3.158962e+003;3.288146e-002
3.160890e+003;3.279009e-002
3.162819e+003;3.240021e-002
3.164747e+003;3.218513e-002
3.166676e+003;3.204802e-002
3.168604e+003;3.219241e-002
3.170533e+003;3.217499e-002
3.172461e+003;3.200686e-002
3.174390e+003;3.177094e-002
3.176319e+003;3.190953e-002
3.178247e+003;3.245901e-002
3.180176e+003;3.251700e-002
3.182104e+003;3.231564e-002
3.184033e+003;3.227202e-002
3.185961e+003;3.252771e-002
3.187890e+003;3.257671e-002
3.189818e+003;3.254724e-002
3.191747e+003;3.254335e-002
3.193676e+003;3.227217e-002
3.195604e+003;3.211116e-002
3.197532e+003;3.193795e-002
3.199461e+003;3.189473e-002
3.201390e+003;3.190536e-002
3.203318e+003;3.200432e-002
3.205247e+003;3.217135e-002
3.207175e+003;3.224222e-002
3.209104e+003;3.240563e-002
3.211032e+003;3.271138e-002
3.212961e+003;3.253914e-002
3.214889e+003;3.217581e-002
3.216818e+003;3.234255e-002
3.218747e+003;3.250214e-002
3.220675e+003;3.246590e-002
3.222604e+003;3.266593e-002
3.224532e+003;3.259042e-002
3.226461e+003;3.261628e-002
3.228389e+003;3.262021e-002
3.230318e+003;3.263446e-002
3.232246e+003;3.293079e-002
3.234175e+003;3.305609e-002
3.236104e+003;3.289093e-002
3.238032e+003;3.295742e-002
3.239961e+003;3.301576e-002
3.241889e+003;3.260460e-002
3.243818e+003;3.219979e-002
3.245746e+003;3.205505e-002
3.247675e+003;3.234594e-002
3.249603e+003;3.284204e-002
3.251532e+003;3.290323e-002
3.253460e+003;3.241070e-002
3.255389e+003;3.208205e-002
3.257318e+003;3.223130e-002
3.259246e+003;3.243344e-002
3.261175e+003;3.246272e-002
3.263103e+003;3.232506e-002
3.265032e+003;3.239949e-002
3.266960e+003;3.246640e-002
3.268889e+003;3.263972e-002
3.270817e+003;3.322159e-002
3.272746e+003;3.334701e-002
3.274675e+003;3.281964e-002
3.276603e+003;3.225311e-002
3.278531e+003;3.159651e-002
3.280460e+003;3.179846e-002
3.282389e+003;3.258096e-002
3.284317e+003;3.270816e-002
3.286246e+003;3.250868e-002
3.288174e+003;3.239635e-002
3.290103e+003;3.222763e-002
3.292031e+003;3.202148e-002
3.293960e+003;3.174574e-002
3.295888e+003;3.167224e-002
3.297817e+003;3.182987e-002
3.299746e+003;3.203082e-002
3.301674e+003;3.201388e-002
3.303603e+003;3.210574e-002
3.305531e+003;3.231478e-002
3.307460e+003;3.188039e-002
3.309388e+003;3.160367e-002
3.311317e+003;3.172439e-002
3.313245e+003;3.197094e-002
3.315174e+003;3.229040e-002
3.317103e+003;3.226813e-002
3.319031e+003;3.192975e-002
3.320960e+003;3.168454e-002
3.322888e+003;3.176402e-002
3.324817e+003;3.189462e-002
3.326745e+003;3.209846e-002
3.328674e+003;3.210999e-002
3.330602e+003;3.156454e-002
3.332531e+003;3.172745e-002
3.334459e+003;3.183244e-002
3.336388e+003;3.138354e-002
3.338317e+003;3.113009e-002
3.340245e+003;3.120852e-002
3.342174e+003;3.125929e-002
3.344102e+003;3.115266e-002
3.346031e+003;3.112194e-002
3.347959e+003;3.124426e-002
3.349888e+003;3.173112e-002
3.351816e+003;3.177451e-002
3.353745e+003;3.126360e-002
3.355674e+003;3.105132e-002
3.357602e+003;3.098378e-002
3.359531e+003;3.142852e-002
3.361459e+003;3.154563e-002
3.363388e+003;3.156426e-002
3.365316e+003;3.133731e-002
3.367245e+003;3.093670e-002
3.369173e+003;3.077858e-002
3.371102e+003;3.079216e-002
3.373031e+003;3.083769e-002
3.374959e+003;3.111304e-002
3.376887e+003;3.100709e-002
3.378816e+003;3.059054e-002
3.380745e+003;3.070368e-002
3.382673e+003;3.068305e-002
3.384602e+003;3.044423e-002
3.386530e+003;3.100214e-002
3.388459e+003;3.124099e-002
3.390387e+003;3.115508e-002
3.392316e+003;3.113084e-002
3.394244e+003;3.110898e-002
3.396173e+003;3.048475e-002
3.398102e+003;3.017986e-002
3.400030e+003;3.059896e-002
3.401959e+003;3.107196e-002
3.403887e+003;3.133439e-002
3.405816e+003;3.131466e-002
3.407744e+003;3.118473e-002
3.409673e+003;3.108165e-002
3.411601e+003;3.054606e-002
3.413530e+003;3.023019e-002
3.415458e+003;3.057390e-002
3.417387e+003;3.126911e-002
3.419316e+003;3.166337e-002
3.421244e+003;3.118124e-002
3.423173e+003;3.085907e-002
3.425101e+003;3.102456e-002
3.427030e+003;3.093741e-002
3.428958e+003;3.076549e-002
3.430887e+003;3.106584e-002
3.432815e+003;3.119623e-002
3.434744e+003;3.099534e-002
3.436673e+003;3.101047e-002
3.438601e+003;3.109279e-002
3.440530e+003;3.082133e-002
3.442458e+003;3.036615e-002
3.444387e+003;3.046339e-002
3.446315e+003;3.068462e-002
3.448244e+003;3.078004e-002
3.450172e+003;3.091162e-002
3.452101e+003;3.126865e-002
3.454030e+003;3.176684e-002
3.455958e+003;3.178880e-002
3.457886e+003;3.166647e-002
3.459815e+003;3.148641e-002
3.461744e+003;3.130782e-002
3.463672e+003;3.113824e-002
3.465601e+003;3.131274e-002
3.467529e+003;3.166757e-002
3.469458e+003;3.145022e-002
3.471386e+003;3.118181e-002
3.473315e+003;3.076008e-002
3.475243e+003;3.071413e-002
3.477172e+003;3.090479e-002
3.479101e+003;3.119538e-002
3.481029e+003;3.161329e-002
3.482958e+003;3.156811e-002
3.484886e+003;3.158724e-002
3.486815e+003;3.175579e-002
3.488743e+003;3.129967e-002
3.490672e+003;3.100890e-002
3.492600e+003;3.124181e-002
3.494529e+003;3.176566e-002
3.496458e+003;3.196709e-002
3.498386e+003;3.190497e-002
3.500315e+003;3.181486e-002
3.502243e+003;3.159462e-002
3.504172e+003;3.178374e-002
3.506100e+003;3.209529e-002
3.508029e+003;3.167930e-002
3.509957e+003;3.157321e-002
3.511886e+003;3.190489e-002
3.513814e+003;3.170963e-002
3.515743e+003;3.182285e-002
3.517672e+003;3.230561e-002
3.519600e+003;3.248882e-002
3.521529e+003;3.277183e-002
3.523457e+003;3.279563e-002
3.525386e+003;3.246811e-002
3.527314e+003;3.246990e-002
3.529243e+003;3.269226e-002
3.531171e+003;3.280856e-002
3.533100e+003;3.280896e-002
3.535029e+003;3.283958e-002
3.536957e+003;3.260614e-002
3.538885e+003;3.273059e-002
3.540814e+003;3.282864e-002
3.542743e+003;3.275171e-002
3.544671e+003;3.244655e-002
3.546600e+003;3.274289e-002
3.548528e+003;3.298001e-002
3.550457e+003;3.219430e-002
3.552385e+003;3.200486e-002
3.554314e+003;3.262543e-002
3.556242e+003;3.288543e-002
3.558171e+003;3.282471e-002
3.560100e+003;3.258092e-002
3.562028e+003;3.239189e-002
3.563957e+003;3.230975e-002
3.565885e+003;3.151295e-002
3.567814e+003;3.149482e-002
3.569742e+003;3.211816e-002
3.571671e+003;3.245886e-002
3.573599e+003;3.250239e-002
3.575528e+003;3.269712e-002
3.577457e+003;3.259325e-002
3.579385e+003;3.200165e-002
3.581314e+003;3.151808e-002
3.583242e+003;3.132082e-002
3.585171e+003;3.095360e-002
3.587099e+003;3.012001e-002
3.589028e+003;3.016767e-002
3.590956e+003;3.131074e-002
3.592885e+003;3.160795e-002
3.594813e+003;3.190168e-002
3.596742e+003;3.230375e-002
3.598671e+003;3.234748e-002
3.600599e+003;3.266072e-002
3.602528e+003;3.273488e-002
3.604456e+003;3.216647e-002
3.606385e+003;3.162260e-002
3.608313e+003;3.144901e-002
3.610242e+003;3.180170e-002
3.612170e+003;3.172506e-002
3.614099e+003;3.178873e-002
3.616028e+003;3.185052e-002
3.617956e+003;3.124138e-002
3.619885e+003;3.122603e-002
3.621813e+003;3.211809e-002
3.623742e+003;3.258478e-002
3.625670e+003;3.191523e-002
3.627599e+003;2.966500e-002
3.629527e+003;2.962541e-002
3.631456e+003;3.197394e-002
3.633385e+003;3.266808e-002
3.635313e+003;3.237661e-002
3.637241e+003;3.229640e-002
3.639170e+003;3.237479e-002
3.641099e+003;3.212047e-002
3.643027e+003;3.196562e-002
3.644956e+003;3.104367e-002
3.646884e+003;2.919650e-002
3.648813e+003;2.783752e-002
3.650741e+003;2.888094e-002
3.652670e+003;3.085409e-002
3.654598e+003;3.038460e-002
3.656527e+003;2.974746e-002
3.658456e+003;3.062353e-002
3.660384e+003;3.072132e-002
3.662313e+003;3.027967e-002
3.664241e+003;2.992264e-002
3.666170e+003;2.909598e-002
3.668098e+003;2.703728e-002
3.670027e+003;2.539884e-002
3.671955e+003;2.634549e-002
3.673884e+003;2.555636e-002
3.675813e+003;2.474126e-002
3.677741e+003;2.649800e-002
3.679669e+003;2.743717e-002
3.681598e+003;2.787271e-002
3.683527e+003;2.804710e-002
3.685455e+003;2.699850e-002
3.687384e+003;2.418597e-002
3.689312e+003;2.382778e-002
3.691241e+003;2.566647e-002
3.693169e+003;2.742248e-002
3.695098e+003;2.802879e-002
3.697026e+003;2.767625e-002
3.698955e+003;2.704250e-002
3.700884e+003;2.619332e-002
3.702812e+003;2.699818e-002
3.704741e+003;2.796094e-002
3.706669e+003;2.716009e-002
3.708598e+003;2.565906e-002
3.710526e+003;2.428172e-002
3.712455e+003;2.418775e-002
3.714383e+003;2.581586e-002
3.716312e+003;2.659257e-002
3.718240e+003;2.668093e-002
3.720169e+003;2.666405e-002
3.722098e+003;2.649747e-002
3.724026e+003;2.634071e-002
3.725955e+003;2.603202e-002
3.727883e+003;2.640316e-002
3.729812e+003;2.583168e-002
3.731740e+003;2.417325e-002
3.733669e+003;2.377006e-002
3.735597e+003;2.350283e-002
3.737526e+003;2.465281e-002
3.739455e+003;2.564475e-002
3.741383e+003;2.458607e-002
3.743312e+003;2.093344e-002
3.745240e+003;2.125640e-002
3.747169e+003;2.317061e-002
3.749097e+003;2.154903e-002
3.751026e+003;2.089342e-002
3.752954e+003;2.288307e-002
3.754883e+003;2.549363e-002
3.756812e+003;2.543714e-002
3.758740e+003;2.510168e-002
3.760668e+003;2.565143e-002
3.762597e+003;2.620986e-002
3.764526e+003;2.605999e-002
3.766454e+003;2.628410e-002
3.768383e+003;2.566686e-002
3.770311e+003;2.574262e-002
3.772240e+003;2.646768e-002
3.774168e+003;2.687144e-002
3.776097e+003;2.704532e-002
3.778025e+003;2.650790e-002
3.779954e+003;2.604553e-002
3.781883e+003;2.619104e-002
3.783811e+003;2.631451e-002
3.785740e+003;2.667029e-002
3.787668e+003;2.696941e-002
3.789597e+003;2.713843e-002
3.791525e+003;2.702417e-002
3.793454e+003;2.682812e-002
3.795382e+003;2.623584e-002
3.797311e+003;2.565319e-002
3.799240e+003;2.385046e-002
3.801168e+003;2.265003e-002
3.803097e+003;2.484822e-002
3.805025e+003;2.543176e-002
3.806954e+003;2.468588e-002
3.808882e+003;2.644764e-002
3.810811e+003;2.731298e-002
3.812739e+003;2.636422e-002
3.814668e+003;2.383667e-002
3.816596e+003;2.364321e-002
3.818525e+003;2.485917e-002
3.820454e+003;2.415700e-002
3.822382e+003;2.528205e-002
3.824311e+003;2.645070e-002
3.826239e+003;2.610693e-002
3.828168e+003;2.594549e-002
3.830096e+003;2.552094e-002
3.832025e+003;2.542361e-002
3.833953e+003;2.564784e-002
3.835882e+003;2.458993e-002
3.837811e+003;2.346121e-002
3.839739e+003;2.479837e-002
3.841667e+003;2.604254e-002
3.843596e+003;2.656756e-002
3.845525e+003;2.705795e-002
3.847453e+003;2.724870e-002
3.849382e+003;2.589565e-002
3.851310e+003;2.200426e-002
3.853239e+003;1.926268e-002
3.855167e+003;2.267921e-002
3.857096e+003;2.627231e-002
3.859024e+003;2.654484e-002
3.860953e+003;2.581501e-002
3.862882e+003;2.522098e-002
3.864810e+003;2.553120e-002
3.866739e+003;2.568482e-002
3.868667e+003;2.447876e-002
3.870596e+003;2.516445e-002
3.872524e+003;2.627977e-002
3.874453e+003;2.671733e-002
3.876381e+003;2.754222e-002
3.878310e+003;2.717173e-002
3.880239e+003;2.670633e-002
3.882167e+003;2.646461e-002
3.884096e+003;2.471671e-002
3.886024e+003;2.486061e-002
3.887953e+003;2.647859e-002
3.889881e+003;2.599677e-002
3.891810e+003;2.604670e-002
3.893738e+003;2.750286e-002
3.895667e+003;2.785604e-002
3.897595e+003;2.696109e-002
3.899524e+003;2.633877e-002
3.901453e+003;2.540745e-002
3.903381e+003;2.489029e-002
3.905310e+003;2.589030e-002
3.907238e+003;2.670143e-002
3.909167e+003;2.685939e-002
3.911095e+003;2.710789e-002
3.913024e+003;2.706641e-002
3.914952e+003;2.664904e-002
3.916881e+003;2.697798e-002
3.918810e+003;2.760337e-002
3.920738e+003;2.762477e-002
3.922667e+003;2.767335e-002
3.924595e+003;2.764182e-002
3.926524e+003;2.780011e-002
3.928452e+003;2.772223e-002
3.930381e+003;2.717451e-002
3.932309e+003;2.674481e-002
3.934238e+003;2.701662e-002
3.936167e+003;2.710365e-002
3.938095e+003;2.727385e-002
3.940023e+003;2.730674e-002
3.941952e+003;2.720859e-002
3.943881e+003;2.772891e-002
3.945809e+003;2.820311e-002
3.947738e+003;2.845266e-002
3.949666e+003;2.833168e-002
3.951595e+003;2.820342e-002
3.953523e+003;2.826177e-002
3.955452e+003;2.823712e-002
3.957380e+003;2.826481e-002
3.959309e+003;2.790243e-002
3.961238e+003;2.765111e-002
3.963166e+003;2.803240e-002
3.965095e+003;2.852979e-002
3.967023e+003;2.877553e-002
3.968952e+003;2.871347e-002
3.970880e+003;2.871354e-002
3.972809e+003;2.840582e-002
3.974737e+003;2.817800e-002
3.976666e+003;2.832942e-002
3.978594e+003;2.839195e-002
3.980523e+003;2.849784e-002
3.982452e+003;2.901740e-002
3.984380e+003;2.884910e-002
3.986309e+003;2.867414e-002
3.988237e+003;2.886362e-002
3.990166e+003;2.870579e-002
3.992094e+003;2.877694e-002
3.994023e+003;2.900674e-002
3.995951e+003;2.914147e-002
3.997880e+003;2.884942e-002
3.999809e+003;2.898407e-002
4.001737e+003;0.000000e+000
