3.992094e+002;0.000000e+000
4.011380e+002;0.000000e+000
4.030665e+002;0.000000e+000
4.049951e+002;0.000000e+000
4.069236e+002;0.000000e+000
4.088522e+002;0.000000e+000
4.107807e+002;0.000000e+000
4.127093e+002;0.000000e+000
4.146378e+002;0.000000e+000
4.165664e+002;0.000000e+000
4.184949e+002;0.000000e+000
4.204235e+002;0.000000e+000
4.223520e+002;0.000000e+000
4.242806e+002;0.000000e+000
4.262091e+002;0.000000e+000
4.281377e+002;0.000000e+000
4.300662e+002;0.000000e+000
4.319948e+002;0.000000e+000
4.339233e+002;0.000000e+000
4.358519e+002;0.000000e+000
4.377804e+002;0.000000e+000
4.397090e+002;0.000000e+000
4.416375e+002;0.000000e+000
4.435660e+002;0.000000e+000
4.454946e+002;0.000000e+000
4.474232e+002;0.000000e+000
4.493517e+002;0.000000e+000
4.512802e+002;0.000000e+000
4.532088e+002;0.000000e+000
4.551373e+002;0.000000e+000
4.570659e+002;0.000000e+000
4.589944e+002;0.000000e+000
4.609230e+002;0.000000e+000
4.628515e+002;0.000000e+000
4.647801e+002;0.000000e+000
4.667086e+002;0.000000e+000
4.686372e+002;0.000000e+000
4.705657e+002;0.000000e+000
4.724943e+002;0.000000e+000
4.744228e+002;0.000000e+000
4.763513e+002;0.000000e+000
4.782799e+002;0.000000e+000
4.802085e+002;0.000000e+000
4.821370e+002;0.000000e+000
4.840656e+002;0.000000e+000
4.859941e+002;0.000000e+000
4.879226e+002;0.000000e+000
4.898512e+002;0.000000e+000
4.917798e+002;0.000000e+000
4.937083e+002;0.000000e+000
4.956368e+002;0.000000e+000
4.975654e+002;0.000000e+000
4.994939e+002;0.000000e+000
5.014225e+002;0.000000e+000
5.033510e+002;0.000000e+000
5.052796e+002;0.000000e+000
5.072081e+002;0.000000e+000
5.091367e+002;0.000000e+000
5.110652e+002;0.000000e+000
5.129938e+002;0.000000e+000
5.149223e+002;0.000000e+000
5.168509e+002;0.000000e+000
5.187794e+002;0.000000e+000
5.207079e+002;0.000000e+000
5.226365e+002;0.000000e+000
5.245651e+002;0.000000e+000
5.264936e+002;0.000000e+000
5.284222e+002;0.000000e+000
5.303507e+002;0.000000e+000
5.322792e+002;0.000000e+000
5.342078e+002;0.000000e+000
5.361364e+002;0.000000e+000
5.380649e+002;0.000000e+000
5.399935e+002;0.000000e+000
5.419220e+002;0.000000e+000
5.438505e+002;0.000000e+000
5.457791e+002;0.000000e+000
5.477076e+002;0.000000e+000
5.496362e+002;0.000000e+000
5.515648e+002;0.000000e+000
5.534933e+002;0.000000e+000
5.554218e+002;0.000000e+000
5.573504e+002;0.000000e+000
5.592789e+002;0.000000e+000
5.612075e+002;0.000000e+000
5.631360e+002;0.000000e+000
5.650646e+002;0.000000e+000
5.669931e+002;0.000000e+000
5.689217e+002;0.000000e+000
5.708502e+002;0.000000e+000
5.727787e+002;0.000000e+000
5.747073e+002;0.000000e+000
5.766359e+002;0.000000e+000
5.785644e+002;0.000000e+000
5.804930e+002;0.000000e+000
5.824215e+002;0.000000e+000
5.843500e+002;0.000000e+000
5.862786e+002;0.000000e+000
5.882072e+002;0.000000e+000
5.901357e+002;0.000000e+000
5.920643e+002;0.000000e+000
5.939928e+002;0.000000e+000
5.959213e+002;0.000000e+000
5.978499e+002;0.000000e+000
5.997784e+002;5.125342e-002
6.017070e+002;4.605049e-002
6.036355e+002;4.533605e-002
6.055641e+002;4.509462e-002
6.074926e+002;4.053852e-002
6.094211e+002;3.886660e-002
6.113497e+002;4.041748e-002
6.132783e+002;3.983616e-002
6.152068e+002;3.886131e-002
6.171354e+002;4.209806e-002
6.190639e+002;4.366299e-002
6.209924e+002;4.219777e-002
6.229210e+002;4.408740e-002
6.248495e+002;4.711955e-002
6.267781e+002;4.669668e-002
6.287067e+002;4.496352e-002
6.306352e+002;4.596028e-002
6.325637e+002;4.496888e-002
6.344923e+002;4.034239e-002
6.364208e+002;4.090822e-002
6.383494e+002;4.593236e-002
6.402780e+002;4.560841e-002
6.422065e+002;4.216198e-002
6.441350e+002;4.287353e-002
6.460636e+002;4.548959e-002
6.479921e+002;4.473291e-002
6.499207e+002;4.314578e-002
6.518492e+002;4.245622e-002
6.537778e+002;4.122802e-002
6.557063e+002;3.682696e-002
6.576349e+002;3.539313e-002
6.595634e+002;3.911956e-002
6.614919e+002;3.890813e-002
6.634205e+002;3.743524e-002
6.653491e+002;3.879055e-002
6.672776e+002;3.675836e-002
6.692062e+002;3.467826e-002
6.711347e+002;3.543418e-002
6.730632e+002;3.616975e-002
6.749918e+002;3.580391e-002
6.769203e+002;3.597918e-002
6.788489e+002;3.684329e-002
6.807775e+002;3.562081e-002
6.827060e+002;3.477011e-002
6.846345e+002;3.409009e-002
6.865631e+002;3.352458e-002
6.884916e+002;3.348403e-002
6.904202e+002;3.279484e-002
6.923488e+002;3.144210e-002
6.942773e+002;3.064220e-002
6.962058e+002;3.055900e-002
6.981344e+002;3.072359e-002
7.000629e+002;3.085093e-002
7.019915e+002;2.978205e-002
7.039200e+002;2.818942e-002
7.058486e+002;2.782830e-002
7.077771e+002;2.881444e-002
7.097057e+002;3.053540e-002
7.116342e+002;3.138254e-002
7.135627e+002;3.161119e-002
7.154913e+002;3.220347e-002
7.174199e+002;3.234898e-002
7.193484e+002;3.268994e-002
7.212770e+002;3.269841e-002
7.232055e+002;3.209350e-002
7.251340e+002;3.258250e-002
7.270626e+002;3.470837e-002
7.289911e+002;3.562840e-002
7.309197e+002;3.625438e-002
7.328483e+002;3.630557e-002
7.347768e+002;3.577952e-002
7.367053e+002;3.534514e-002
7.386339e+002;3.609996e-002
7.405624e+002;3.701223e-002
7.424910e+002;3.658343e-002
7.444196e+002;3.620068e-002
7.463481e+002;3.695526e-002
7.482766e+002;3.693192e-002
7.502052e+002;3.682104e-002
7.521337e+002;3.754054e-002
7.540623e+002;3.748346e-002
7.559908e+002;3.758862e-002
7.579194e+002;3.852513e-002
7.598479e+002;3.893382e-002
7.617765e+002;3.875703e-002
7.637050e+002;3.905405e-002
7.656335e+002;3.896242e-002
7.675621e+002;3.828913e-002
7.694907e+002;3.705543e-002
7.714192e+002;3.618415e-002
7.733478e+002;3.552680e-002
7.752763e+002;3.472269e-002
7.772048e+002;3.386042e-002
7.791334e+002;3.230272e-002
7.810620e+002;3.052961e-002
7.829905e+002;2.829936e-002
7.849191e+002;2.522263e-002
7.868476e+002;2.190793e-002
7.887761e+002;1.856296e-002
7.907047e+002;1.524012e-002
7.926332e+002;1.163012e-002
7.945618e+002;8.711447e-003
7.964903e+002;7.177806e-003
7.984189e+002;6.439089e-003
8.003474e+002;5.805209e-003
8.022759e+002;5.709584e-003
8.042045e+002;7.173696e-003
8.061331e+002;9.046216e-003
8.080616e+002;1.047632e-002
8.099902e+002;1.229953e-002
8.119187e+002;1.371092e-002
8.138472e+002;1.491296e-002
8.157758e+002;1.616046e-002
8.177043e+002;1.674180e-002
8.196329e+002;1.782114e-002
8.215615e+002;2.031205e-002
8.234900e+002;2.313811e-002
8.254185e+002;2.634704e-002
8.273471e+002;2.917758e-002
8.292756e+002;3.085836e-002
8.312042e+002;3.278662e-002
8.331328e+002;3.462884e-002
8.350613e+002;3.557611e-002
8.369898e+002;3.580640e-002
8.389184e+002;3.529543e-002
8.408469e+002;3.442170e-002
8.427755e+002;3.368658e-002
8.447040e+002;3.286620e-002
8.466326e+002;3.209357e-002
8.485611e+002;3.109190e-002
8.504897e+002;2.994330e-002
8.524182e+002;2.911756e-002
8.543467e+002;2.841771e-002
8.562753e+002;2.825282e-002
8.582039e+002;2.816351e-002
8.601324e+002;2.727639e-002
8.620610e+002;2.659469e-002
8.639895e+002;2.677790e-002
8.659180e+002;2.694431e-002
8.678466e+002;2.675626e-002
8.697751e+002;2.636940e-002
8.717037e+002;2.602404e-002
8.736323e+002;2.593212e-002
8.755608e+002;2.656488e-002
8.774893e+002;2.709022e-002
8.794179e+002;2.708620e-002
8.813464e+002;2.752630e-002
8.832750e+002;2.796168e-002
8.852036e+002;2.820219e-002
8.871321e+002;2.861100e-002
8.890606e+002;2.912935e-002
8.909892e+002;2.936047e-002
8.929177e+002;2.934913e-002
8.948463e+002;2.959707e-002
8.967748e+002;2.972528e-002
8.987034e+002;2.913081e-002
9.006319e+002;2.874912e-002
9.025605e+002;2.909151e-002
9.044890e+002;2.989690e-002
9.064175e+002;3.036114e-002
9.083461e+002;3.037539e-002
9.102747e+002;3.031339e-002
9.122032e+002;3.033016e-002
9.141318e+002;3.039064e-002
9.160603e+002;3.053881e-002
9.179888e+002;3.058826e-002
9.199174e+002;3.061482e-002
9.218459e+002;3.078590e-002
9.237745e+002;3.094827e-002
9.257031e+002;3.126726e-002
9.276316e+002;3.142614e-002
9.295601e+002;3.103552e-002
9.314887e+002;3.084260e-002
9.334172e+002;3.115415e-002
9.353458e+002;3.094731e-002
9.372744e+002;3.072736e-002
9.392029e+002;3.126349e-002
9.411314e+002;3.157969e-002
9.430600e+002;3.195097e-002
9.449885e+002;3.219890e-002
9.469171e+002;3.217107e-002
9.488456e+002;3.220985e-002
9.507742e+002;3.260189e-002
9.527027e+002;3.288089e-002
9.546313e+002;3.290305e-002
9.565598e+002;3.282135e-002
9.584883e+002;3.282371e-002
9.604169e+002;3.270537e-002
9.623455e+002;3.248204e-002
9.642740e+002;3.248532e-002
9.662026e+002;3.204859e-002
9.681311e+002;3.116498e-002
9.700596e+002;3.045766e-002
9.719882e+002;3.053657e-002
9.739167e+002;3.063576e-002
9.758453e+002;3.015624e-002
9.777739e+002;2.943354e-002
9.797024e+002;2.904209e-002
9.816309e+002;2.901893e-002
9.835595e+002;2.899484e-002
9.854880e+002;2.874211e-002
9.874166e+002;2.820116e-002
9.893452e+002;2.764782e-002
9.912737e+002;2.682879e-002
9.932022e+002;2.629846e-002
9.951307e+002;2.559959e-002
9.970593e+002;2.465989e-002
9.989879e+002;2.402083e-002
1.000916e+003;2.316295e-002
1.002845e+003;2.160555e-002
1.004773e+003;1.971343e-002
1.006702e+003;1.732320e-002
1.008631e+003;1.488347e-002
1.010559e+003;1.272291e-002
1.012488e+003;1.028421e-002
1.014416e+003;8.174511e-003
1.016345e+003;6.970583e-003
1.018273e+003;6.695148e-003
1.020202e+003;7.259232e-003
1.022130e+003;8.560128e-003
1.024059e+003;1.016019e-002
1.025988e+003;1.134801e-002
1.027916e+003;1.284176e-002
1.029845e+003;1.511300e-002
1.031773e+003;1.795338e-002
1.033702e+003;2.007182e-002
1.035630e+003;2.128720e-002
1.037559e+003;2.202538e-002
1.039487e+003;2.175692e-002
1.041416e+003;2.165030e-002
1.043344e+003;2.195870e-002
1.045273e+003;2.238453e-002
1.047202e+003;2.306224e-002
1.049130e+003;2.421624e-002
1.051059e+003;2.528269e-002
1.052987e+003;2.653227e-002
1.054916e+003;2.807471e-002
1.056844e+003;2.888299e-002
1.058773e+003;2.960047e-002
1.060701e+003;3.092404e-002
1.062630e+003;3.250614e-002
1.064558e+003;3.365085e-002
1.066487e+003;3.423024e-002
1.068416e+003;3.423598e-002
1.070344e+003;3.419791e-002
1.072273e+003;3.372260e-002
1.074201e+003;3.233159e-002
1.076130e+003;3.122557e-002
1.078058e+003;3.028230e-002
1.079987e+003;2.919023e-002
1.081915e+003;2.778916e-002
1.083844e+003;2.602875e-002
1.085773e+003;2.469647e-002
1.087701e+003;2.392622e-002
1.089630e+003;2.341291e-002
1.091558e+003;2.223374e-002
1.093487e+003;2.118588e-002
1.095415e+003;2.118803e-002
1.097344e+003;2.129913e-002
1.099272e+003;2.149305e-002
1.101201e+003;2.225707e-002
1.103129e+003;2.338966e-002
1.105058e+003;2.414610e-002
1.106987e+003;2.433369e-002
1.108915e+003;2.489924e-002
1.110844e+003;2.606844e-002
1.112772e+003;2.659398e-002
1.114701e+003;2.680599e-002
1.116629e+003;2.702593e-002
1.118558e+003;2.753085e-002
1.120486e+003;2.821149e-002
1.122415e+003;2.795493e-002
1.124344e+003;2.730434e-002
1.126272e+003;2.677667e-002
1.128201e+003;2.651987e-002
1.130129e+003;2.658834e-002
1.132058e+003;2.702850e-002
1.133986e+003;2.723642e-002
1.135915e+003;2.752291e-002
1.137843e+003;2.798967e-002
1.139772e+003;2.869464e-002
1.141700e+003;2.986971e-002
1.143629e+003;3.145560e-002
1.145557e+003;3.374179e-002
1.147486e+003;3.584879e-002
1.149415e+003;3.764232e-002
1.151343e+003;4.009430e-002
1.153272e+003;4.261080e-002
1.155200e+003;4.493007e-002
1.157129e+003;4.716232e-002
1.159057e+003;4.914641e-002
1.160986e+003;5.189000e-002
1.162914e+003;5.434803e-002
1.164843e+003;5.559313e-002
1.166771e+003;5.628645e-002
1.168700e+003;5.677345e-002
1.170629e+003;5.683750e-002
1.172557e+003;5.627865e-002
1.174486e+003;5.549892e-002
1.176414e+003;5.500402e-002
1.178343e+003;5.445724e-002
1.180271e+003;5.369393e-002
1.182200e+003;5.272653e-002
1.184128e+003;5.184120e-002
1.186057e+003;5.166639e-002
1.187986e+003;5.176388e-002
1.189914e+003;5.202515e-002
1.191843e+003;5.271661e-002
1.193771e+003;5.325326e-002
1.195700e+003;5.409767e-002
1.197628e+003;5.499206e-002
1.199557e+003;5.485293e-002
1.201485e+003;5.429580e-002
1.203414e+003;5.394436e-002
1.205343e+003;5.410901e-002
1.207271e+003;5.441788e-002
1.209200e+003;5.445965e-002
1.211128e+003;5.457317e-002
1.213057e+003;5.435212e-002
1.214985e+003;5.440207e-002
1.216914e+003;5.499928e-002
1.218842e+003;5.540303e-002
1.220771e+003;5.583677e-002
1.222699e+003;5.587709e-002
1.224628e+003;5.537679e-002
1.226557e+003;5.516395e-002
1.228485e+003;5.515274e-002
1.230414e+003;5.525633e-002
1.232342e+003;5.504001e-002
1.234271e+003;5.456321e-002
1.236199e+003;5.400915e-002
1.238128e+003;5.361842e-002
1.240056e+003;5.315464e-002
1.241985e+003;5.320561e-002
1.243913e+003;5.309881e-002
1.245842e+003;5.221732e-002
1.247771e+003;5.120749e-002
1.249699e+003;4.984891e-002
1.251628e+003;4.799008e-002
1.253556e+003;4.495084e-002
1.255485e+003;4.033948e-002
1.257413e+003;3.585692e-002
1.259342e+003;3.302066e-002
1.261270e+003;3.242216e-002
1.263199e+003;3.394543e-002
1.265127e+003;3.743058e-002
1.267056e+003;4.130957e-002
1.268985e+003;4.469578e-002
1.270913e+003;4.705847e-002
1.272842e+003;4.810489e-002
1.274770e+003;4.814839e-002
1.276699e+003;4.758532e-002
1.278627e+003;4.682675e-002
1.280556e+003;4.627808e-002
1.282484e+003;4.568166e-002
1.284413e+003;4.498439e-002
1.286342e+003;4.456248e-002
1.288270e+003;4.421681e-002
1.290199e+003;4.347090e-002
1.292127e+003;4.292594e-002
1.294056e+003;4.221259e-002
1.295984e+003;4.134696e-002
1.297913e+003;4.111079e-002
1.299841e+003;4.103956e-002
1.301770e+003;4.094860e-002
1.303698e+003;4.074420e-002
1.305627e+003;4.030145e-002
1.307556e+003;4.008224e-002
1.309484e+003;4.014529e-002
1.311413e+003;4.002476e-002
1.313341e+003;3.975612e-002
1.315270e+003;3.952511e-002
1.317198e+003;3.918994e-002
1.319127e+003;3.909563e-002
1.321055e+003;3.926186e-002
1.322984e+003;3.932722e-002
1.324912e+003;3.939746e-002
1.326841e+003;3.960234e-002
1.328770e+003;3.980042e-002
1.330698e+003;3.995301e-002
1.332627e+003;3.986489e-002
1.334555e+003;3.975634e-002
1.336484e+003;3.961127e-002
1.338412e+003;3.925359e-002
1.340341e+003;3.945990e-002
1.342269e+003;4.026055e-002
1.344198e+003;4.083341e-002
1.346126e+003;4.121513e-002
1.348055e+003;4.152601e-002
1.349984e+003;4.172720e-002
1.351912e+003;4.216092e-002
1.353841e+003;4.254319e-002
1.355769e+003;4.250822e-002
1.357698e+003;4.257634e-002
1.359626e+003;4.207224e-002
1.361555e+003;4.123491e-002
1.363483e+003;4.111040e-002
1.365412e+003;4.115243e-002
1.367341e+003;4.050993e-002
1.369269e+003;3.984161e-002
1.371198e+003;3.918443e-002
1.373126e+003;3.815713e-002
1.375055e+003;3.776945e-002
1.376983e+003;3.771654e-002
1.378912e+003;3.724932e-002
1.380840e+003;3.668780e-002
1.382769e+003;3.605813e-002
1.384698e+003;3.494603e-002
1.386626e+003;3.312128e-002
1.388555e+003;3.212668e-002
1.390483e+003;3.137193e-002
1.392412e+003;2.957894e-002
1.394340e+003;2.729862e-002
1.396269e+003;2.589586e-002
1.398197e+003;2.468184e-002
1.400126e+003;2.433547e-002
1.402054e+003;2.440953e-002
1.403983e+003;2.384111e-002
1.405911e+003;2.371690e-002
1.407840e+003;2.377846e-002
1.409769e+003;2.382834e-002
1.411697e+003;2.421007e-002
1.413626e+003;2.445751e-002
1.415554e+003;2.442512e-002
1.417483e+003;2.374997e-002
1.419411e+003;2.401589e-002
1.421340e+003;2.679186e-002
1.423268e+003;2.935462e-002
1.425197e+003;3.199908e-002
1.427125e+003;3.520340e-002
1.429054e+003;3.814979e-002
1.430983e+003;4.151722e-002
1.432911e+003;4.504158e-002
1.434840e+003;4.650796e-002
1.436768e+003;4.743610e-002
1.438697e+003;5.095525e-002
1.440625e+003;5.406536e-002
1.442554e+003;5.630071e-002
1.444482e+003;5.824448e-002
1.446411e+003;5.966383e-002
1.448340e+003;6.088555e-002
1.450268e+003;6.209352e-002
1.452197e+003;6.204902e-002
1.454125e+003;5.964235e-002
1.456054e+003;5.432707e-002
1.457982e+003;5.145234e-002
1.459911e+003;5.045362e-002
1.461839e+003;4.727551e-002
1.463768e+003;4.230963e-002
1.465697e+003;3.862439e-002
1.467625e+003;3.672436e-002
1.469554e+003;3.376665e-002
1.471482e+003;2.924339e-002
1.473411e+003;2.676303e-002
1.475339e+003;2.657182e-002
1.477268e+003;2.619336e-002
1.479196e+003;2.568096e-002
1.481125e+003;2.514813e-002
1.483053e+003;2.484973e-002
1.484982e+003;2.395335e-002
1.486911e+003;2.240438e-002
1.488839e+003;2.105835e-002
1.490768e+003;2.084312e-002
1.492696e+003;2.129527e-002
1.494625e+003;1.981486e-002
1.496553e+003;1.838947e-002
1.498482e+003;1.928758e-002
1.500410e+003;2.036605e-002
1.502339e+003;2.027015e-002
1.504267e+003;1.700405e-002
1.506196e+003;1.346153e-002
1.508125e+003;1.522200e-002
1.510053e+003;1.814780e-002
1.511982e+003;1.904972e-002
1.513910e+003;1.936317e-002
1.515839e+003;1.894556e-002
1.517767e+003;1.866782e-002
1.519696e+003;1.706053e-002
1.521624e+003;1.613622e-002
1.523553e+003;1.811101e-002
1.525481e+003;1.902929e-002
1.527410e+003;1.999705e-002
1.529339e+003;2.115797e-002
1.531267e+003;2.131594e-002
1.533196e+003;2.098146e-002
1.535124e+003;2.252204e-002
1.537053e+003;2.187726e-002
1.538981e+003;1.848782e-002
1.540910e+003;1.905058e-002
1.542838e+003;2.195853e-002
1.544767e+003;2.354260e-002
1.546695e+003;2.436035e-002
1.548624e+003;2.428253e-002
1.550553e+003;2.432093e-002
1.552481e+003;2.372359e-002
1.554410e+003;2.214077e-002
1.556338e+003;1.983657e-002
1.558267e+003;1.545758e-002
1.560195e+003;1.626667e-002
1.562124e+003;2.054474e-002
1.564052e+003;2.137093e-002
1.565981e+003;2.118880e-002
1.567910e+003;2.035796e-002
1.569838e+003;1.945953e-002
1.571767e+003;2.065450e-002
1.573695e+003;2.018513e-002
1.575624e+003;1.806317e-002
1.577552e+003;1.956475e-002
1.579481e+003;2.164616e-002
1.581409e+003;2.142199e-002
1.583338e+003;2.032188e-002
1.585266e+003;1.931589e-002
1.587195e+003;1.887914e-002
1.589124e+003;1.844035e-002
1.591052e+003;1.806908e-002
1.592981e+003;1.779780e-002
1.594909e+003;1.795476e-002
1.596838e+003;1.856303e-002
1.598766e+003;1.927522e-002
1.600695e+003;1.977346e-002
1.602623e+003;2.019506e-002
1.604552e+003;2.037320e-002
1.606480e+003;2.045544e-002
1.608409e+003;2.053460e-002
1.610338e+003;2.051494e-002
1.612266e+003;2.033452e-002
1.614195e+003;1.917177e-002
1.616123e+003;1.702362e-002
1.618052e+003;1.812438e-002
1.619980e+003;1.996325e-002
1.621909e+003;1.948528e-002
1.623837e+003;1.914445e-002
1.625766e+003;1.962461e-002
1.627694e+003;2.000301e-002
1.629623e+003;2.066496e-002
1.631552e+003;2.100556e-002
1.633480e+003;1.918572e-002
1.635409e+003;1.732672e-002
1.637337e+003;1.927304e-002
1.639266e+003;2.132130e-002
1.641194e+003;2.162609e-002
1.643123e+003;2.105609e-002
1.645051e+003;1.931315e-002
1.646980e+003;1.904992e-002
1.648909e+003;2.075448e-002
1.650837e+003;1.830109e-002
1.652766e+003;1.428321e-002
1.654694e+003;1.840924e-002
1.656623e+003;2.324079e-002
1.658551e+003;2.406187e-002
1.660480e+003;2.377332e-002
1.662408e+003;2.375739e-002
1.664337e+003;2.500778e-002
1.666266e+003;2.551893e-002
1.668194e+003;2.411115e-002
1.670123e+003;2.364122e-002
1.672051e+003;2.454274e-002
1.673980e+003;2.367733e-002
1.675908e+003;2.306448e-002
1.677837e+003;2.402860e-002
1.679765e+003;2.332553e-002
1.681694e+003;2.071045e-002
1.683622e+003;1.657778e-002
1.685551e+003;1.707138e-002
1.687479e+003;2.010111e-002
1.689408e+003;2.073651e-002
1.691337e+003;2.077280e-002
1.693265e+003;1.927633e-002
1.695194e+003;1.627943e-002
1.697122e+003;1.651968e-002
1.699051e+003;1.579873e-002
1.700979e+003;1.626134e-002
1.702908e+003;2.020548e-002
1.704836e+003;2.191950e-002
1.706765e+003;2.416824e-002
1.708693e+003;2.728514e-002
1.710622e+003;3.047686e-002
1.712551e+003;3.304000e-002
1.714479e+003;3.515544e-002
1.716408e+003;3.664086e-002
1.718336e+003;4.048163e-002
1.720265e+003;4.636873e-002
1.722193e+003;5.044506e-002
1.724122e+003;5.329828e-002
1.726050e+003;5.542821e-002
1.727979e+003;5.654174e-002
1.729908e+003;5.687478e-002
1.731836e+003;5.473971e-002
1.733765e+003;5.143794e-002
1.735693e+003;5.194186e-002
1.737622e+003;5.166512e-002
1.739550e+003;4.842293e-002
1.741479e+003;4.550836e-002
1.743407e+003;4.249554e-002
1.745336e+003;3.920779e-002
1.747265e+003;3.538698e-002
1.749193e+003;3.121856e-002
1.751122e+003;2.731616e-002
1.753050e+003;2.518629e-002
1.754979e+003;2.259048e-002
1.756907e+003;1.952600e-002
1.758836e+003;1.711729e-002
1.760764e+003;1.452448e-002
1.762693e+003;1.313830e-002
1.764621e+003;1.273181e-002
1.766550e+003;1.139790e-002
1.768479e+003;1.022030e-002
1.770407e+003;8.616870e-003
1.772336e+003;7.161535e-003
1.774264e+003;7.894937e-003
1.776193e+003;8.613964e-003
1.778121e+003;8.737647e-003
1.780050e+003;8.342585e-003
1.781978e+003;7.981932e-003
1.783907e+003;7.549962e-003
1.785835e+003;7.373162e-003
1.787764e+003;7.430627e-003
1.789693e+003;6.728765e-003
1.791621e+003;5.271314e-003
1.793550e+003;5.339806e-003
1.795478e+003;6.520109e-003
1.797407e+003;6.288323e-003
1.799335e+003;5.512659e-003
1.801264e+003;5.376907e-003
1.803192e+003;5.919832e-003
1.805121e+003;6.192356e-003
1.807049e+003;6.165604e-003
1.808978e+003;5.844130e-003
1.810907e+003;5.613845e-003
1.812835e+003;5.696692e-003
1.814764e+003;5.858369e-003
1.816692e+003;5.725329e-003
1.818621e+003;5.677053e-003
1.820549e+003;5.666546e-003
1.822478e+003;5.595754e-003
1.824406e+003;5.079482e-003
1.826335e+003;4.922216e-003
1.828264e+003;4.479819e-003
1.830192e+003;4.275520e-003
1.832121e+003;4.945809e-003
1.834049e+003;5.300695e-003
1.835978e+003;5.221445e-003
1.837906e+003;5.209172e-003
1.839835e+003;5.171448e-003
1.841763e+003;4.411095e-003
1.843692e+003;3.339197e-003
1.845620e+003;3.976140e-003
1.847549e+003;4.655545e-003
1.849478e+003;4.638331e-003
1.851406e+003;4.654306e-003
1.853335e+003;4.716101e-003
1.855263e+003;4.725514e-003
1.857192e+003;4.737539e-003
1.859120e+003;4.602431e-003
1.861049e+003;4.662578e-003
1.862977e+003;4.825412e-003
1.864906e+003;4.567472e-003
1.866834e+003;3.924012e-003
1.868763e+003;3.507714e-003
1.870692e+003;3.983898e-003
1.872620e+003;4.386193e-003
1.874549e+003;4.273780e-003
1.876477e+003;4.324109e-003
1.878406e+003;4.293255e-003
1.880334e+003;4.121890e-003
1.882263e+003;4.062621e-003
1.884191e+003;4.057537e-003
1.886120e+003;4.099580e-003
1.888048e+003;3.957648e-003
1.889977e+003;3.851364e-003
1.891906e+003;3.999882e-003
1.893834e+003;3.993127e-003
1.895763e+003;4.005801e-003
1.897691e+003;4.061885e-003
1.899620e+003;3.931401e-003
1.901548e+003;3.657618e-003
1.903477e+003;3.591864e-003
1.905405e+003;3.645188e-003
1.907334e+003;3.616053e-003
1.909262e+003;3.415666e-003
1.911191e+003;3.260805e-003
1.913120e+003;3.450833e-003
1.915048e+003;3.584581e-003
1.916977e+003;3.146547e-003
1.918905e+003;3.149351e-003
1.920834e+003;3.377831e-003
1.922762e+003;3.324606e-003
1.924691e+003;3.338362e-003
1.926619e+003;3.225152e-003
1.928548e+003;3.137436e-003
1.930477e+003;3.145946e-003
1.932405e+003;3.189837e-003
1.934334e+003;3.256164e-003
1.936262e+003;3.242811e-003
1.938191e+003;3.215238e-003
1.940119e+003;3.057345e-003
1.942048e+003;2.874626e-003
1.943976e+003;2.944275e-003
1.945905e+003;3.129827e-003
1.947833e+003;3.243345e-003
1.949762e+003;3.169510e-003
1.951691e+003;2.997453e-003
1.953619e+003;3.063585e-003
1.955548e+003;3.049704e-003
1.957476e+003;3.122651e-003
1.959405e+003;3.232663e-003
1.961333e+003;3.125955e-003
1.963262e+003;3.008830e-003
1.965190e+003;2.933367e-003
1.967119e+003;2.979304e-003
1.969047e+003;3.380702e-003
1.970976e+003;3.469303e-003
1.972905e+003;3.357562e-003
1.974833e+003;3.383207e-003
1.976762e+003;3.508650e-003
1.978690e+003;3.746543e-003
1.980619e+003;3.840333e-003
1.982547e+003;3.914516e-003
1.984476e+003;3.935848e-003
1.986404e+003;4.008677e-003
1.988333e+003;3.934043e-003
1.990261e+003;3.851397e-003
1.992190e+003;4.061149e-003
1.994119e+003;4.163370e-003
1.996047e+003;4.097205e-003
1.997976e+003;3.935480e-003
1.999904e+003;3.913915e-003
2.001833e+003;4.259258e-003
2.003761e+003;4.522874e-003
2.005690e+003;4.636858e-003
2.007618e+003;4.683779e-003
2.009547e+003;4.719551e-003
2.011476e+003;4.470680e-003
2.013404e+003;4.259659e-003
2.015333e+003;4.306239e-003
2.017261e+003;4.359350e-003
2.019190e+003;4.527929e-003
2.021118e+003;4.660803e-003
2.023047e+003;4.681769e-003
2.024975e+003;4.632805e-003
2.026904e+003;4.771440e-003
2.028833e+003;4.831108e-003
2.030761e+003;4.646904e-003
2.032690e+003;4.410961e-003
2.034618e+003;4.370462e-003
2.036547e+003;4.339771e-003
2.038475e+003;4.432552e-003
2.040404e+003;4.625371e-003
2.042332e+003;4.911660e-003
2.044261e+003;5.028026e-003
2.046189e+003;4.992999e-003
2.048118e+003;4.840489e-003
2.050047e+003;4.794220e-003
2.051975e+003;4.783835e-003
2.053904e+003;4.907069e-003
2.055832e+003;5.099462e-003
2.057761e+003;4.920876e-003
2.059689e+003;4.821458e-003
2.061618e+003;4.897955e-003
2.063546e+003;4.947217e-003
2.065475e+003;4.891823e-003
2.067404e+003;4.804740e-003
2.069332e+003;4.863106e-003
2.071260e+003;4.974800e-003
2.073189e+003;5.196630e-003
2.075118e+003;5.254579e-003
2.077046e+003;5.217589e-003
2.078975e+003;5.060374e-003
2.080903e+003;4.668205e-003
2.082832e+003;4.513030e-003
2.084760e+003;4.633810e-003
2.086689e+003;4.747789e-003
2.088617e+003;4.880798e-003
2.090546e+003;5.165010e-003
2.092475e+003;5.340376e-003
2.094403e+003;5.181004e-003
2.096332e+003;5.128094e-003
2.098260e+003;5.119277e-003
2.100189e+003;5.228454e-003
2.102117e+003;5.283724e-003
2.104046e+003;5.048406e-003
2.105974e+003;4.947887e-003
2.107903e+003;4.959818e-003
2.109832e+003;4.867931e-003
2.111760e+003;4.576714e-003
2.113688e+003;4.376453e-003
2.115617e+003;4.546813e-003
2.117546e+003;4.679726e-003
2.119474e+003;4.513934e-003
2.121403e+003;4.367449e-003
2.123331e+003;4.224862e-003
2.125260e+003;4.346231e-003
2.127188e+003;4.607789e-003
2.129117e+003;4.687865e-003
2.131045e+003;4.848497e-003
2.132974e+003;4.787353e-003
2.134903e+003;4.673765e-003
2.136831e+003;4.711345e-003
2.138760e+003;4.908510e-003
2.140688e+003;4.862067e-003
2.142617e+003;4.493847e-003
2.144545e+003;4.363801e-003
2.146474e+003;4.516981e-003
2.148402e+003;4.693325e-003
2.150331e+003;4.889075e-003
2.152260e+003;5.195658e-003
2.154188e+003;4.994809e-003
2.156117e+003;4.738209e-003
2.158045e+003;4.884853e-003
2.159974e+003;4.776197e-003
2.161902e+003;4.588702e-003
2.163831e+003;4.996183e-003
2.165759e+003;5.360804e-003
2.167688e+003;5.137449e-003
2.169616e+003;4.964142e-003
2.171545e+003;4.895743e-003
2.173474e+003;4.776231e-003
2.175402e+003;4.884886e-003
2.177331e+003;5.197636e-003
2.179259e+003;5.478096e-003
2.181188e+003;5.705723e-003
2.183116e+003;5.928532e-003
2.185045e+003;6.472618e-003
2.186973e+003;7.287030e-003
2.188902e+003;7.682044e-003
2.190831e+003;7.810590e-003
2.192759e+003;7.907556e-003
2.194688e+003;7.779723e-003
2.196616e+003;7.573394e-003
2.198545e+003;7.348695e-003
2.200473e+003;7.293668e-003
2.202402e+003;7.429649e-003
2.204330e+003;7.331678e-003
2.206259e+003;7.411718e-003
2.208188e+003;7.467334e-003
2.210116e+003;7.486110e-003
2.212044e+003;7.787583e-003
2.213973e+003;8.080894e-003
2.215902e+003;8.234378e-003
2.217830e+003;8.391327e-003
2.219759e+003;8.932287e-003
2.221687e+003;9.688879e-003
2.223616e+003;1.057433e-002
2.225544e+003;1.179719e-002
2.227473e+003;1.407979e-002
2.229401e+003;1.803861e-002
2.231330e+003;2.387759e-002
2.233259e+003;3.114408e-002
2.235187e+003;3.832521e-002
2.237116e+003;4.429759e-002
2.239044e+003;4.846394e-002
2.240973e+003;5.033957e-002
2.242901e+003;5.019021e-002
2.244830e+003;4.867081e-002
2.246758e+003;4.642403e-002
2.248687e+003;4.342905e-002
2.250615e+003;3.988018e-002
2.252544e+003;3.620983e-002
2.254473e+003;3.233509e-002
2.256401e+003;2.817712e-002
2.258330e+003;2.401606e-002
2.260258e+003;2.056239e-002
2.262187e+003;1.799779e-002
2.264115e+003;1.601763e-002
2.266044e+003;1.451992e-002
2.267972e+003;1.337220e-002
2.269901e+003;1.260033e-002
2.271830e+003;1.184502e-002
2.273758e+003;1.113739e-002
2.275687e+003;1.072007e-002
2.277615e+003;1.038991e-002
2.279544e+003;1.017433e-002
2.281472e+003;1.002566e-002
2.283401e+003;9.574274e-003
2.285329e+003;9.346845e-003
2.287258e+003;9.431592e-003
2.289187e+003;9.010187e-003
2.291115e+003;8.856700e-003
2.293043e+003;8.962660e-003
2.294972e+003;8.905940e-003
2.296901e+003;8.985594e-003
2.298829e+003;8.964521e-003
2.300758e+003;8.775615e-003
2.302686e+003;8.532857e-003
2.304615e+003;8.521570e-003
2.306543e+003;8.608455e-003
2.308472e+003;8.281926e-003
2.310400e+003;7.931750e-003
2.312329e+003;7.907286e-003
2.314258e+003;7.976330e-003
2.316186e+003;8.117758e-003
2.318115e+003;8.184640e-003
2.320043e+003;7.997490e-003
2.321972e+003;7.650377e-003
2.323900e+003;7.474447e-003
2.325829e+003;7.241780e-003
2.327757e+003;6.866522e-003
2.329686e+003;6.857164e-003
2.331615e+003;6.900993e-003
2.333543e+003;6.942403e-003
2.335472e+003;7.047392e-003
2.337400e+003;6.871941e-003
2.339329e+003;6.674690e-003
2.341257e+003;6.675632e-003
2.343186e+003;6.965365e-003
2.345114e+003;7.401742e-003
2.347043e+003;7.919772e-003
2.348971e+003;8.392509e-003
2.350900e+003;8.108136e-003
2.352829e+003;7.389508e-003
2.354757e+003;6.965668e-003
2.356686e+003;6.750167e-003
2.358614e+003;6.486912e-003
2.360543e+003;6.160058e-003
2.362471e+003;5.976265e-003
2.364400e+003;6.364338e-003
2.366328e+003;7.243431e-003
2.368257e+003;7.532970e-003
2.370186e+003;7.632909e-003
2.372114e+003;8.041468e-003
2.374042e+003;8.527619e-003
2.375971e+003;8.707831e-003
2.377900e+003;8.750630e-003
2.379828e+003;8.855516e-003
2.381757e+003;8.955828e-003
2.383685e+003;9.053693e-003
2.385614e+003;9.239200e-003
2.387542e+003;9.266650e-003
2.389471e+003;9.134660e-003
2.391399e+003;9.112936e-003
2.393328e+003;9.087290e-003
2.395257e+003;9.052780e-003
2.397185e+003;9.027913e-003
2.399114e+003;8.947033e-003
2.401042e+003;9.131480e-003
2.402971e+003;9.396479e-003
2.404899e+003;9.478255e-003
2.406828e+003;9.414391e-003
2.408756e+003;9.507041e-003
2.410685e+003;9.556389e-003
2.412614e+003;9.512867e-003
2.414542e+003;9.493597e-003
2.416471e+003;9.424481e-003
2.418399e+003;9.488957e-003
2.420328e+003;9.625322e-003
2.422256e+003;9.535220e-003
2.424185e+003;9.679494e-003
2.426113e+003;1.003841e-002
2.428042e+003;9.978392e-003
2.429970e+003;9.792333e-003
2.431899e+003;9.734385e-003
2.433828e+003;9.623967e-003
2.435756e+003;9.624171e-003
2.437685e+003;9.662521e-003
2.439613e+003;9.682273e-003
2.441542e+003;9.807278e-003
2.443470e+003;9.801652e-003
2.445399e+003;9.609300e-003
2.447327e+003;9.587925e-003
2.449256e+003;9.854321e-003
2.451185e+003;1.004088e-002
2.453113e+003;9.871676e-003
2.455042e+003;9.724084e-003
2.456970e+003;9.628845e-003
2.458899e+003;9.813921e-003
2.460827e+003;9.864354e-003
2.462756e+003;9.889810e-003
2.464684e+003;9.824664e-003
2.466613e+003;9.833578e-003
2.468542e+003;1.004285e-002
2.470470e+003;1.013038e-002
2.472398e+003;1.017695e-002
2.474327e+003;1.017861e-002
2.476256e+003;1.014242e-002
2.478184e+003;1.032920e-002
2.480113e+003;1.056788e-002
2.482041e+003;1.055453e-002
2.483970e+003;1.056428e-002
2.485898e+003;1.075186e-002
2.487827e+003;1.072459e-002
2.489755e+003;1.070417e-002
2.491684e+003;1.107026e-002
2.493613e+003;1.146329e-002
2.495541e+003;1.160623e-002
2.497470e+003;1.158863e-002
2.499398e+003;1.172307e-002
2.501327e+003;1.163696e-002
2.503255e+003;1.137525e-002
2.505184e+003;1.153341e-002
2.507112e+003;1.183437e-002
2.509041e+003;1.188085e-002
2.510969e+003;1.185670e-002
2.512898e+003;1.190342e-002
2.514827e+003;1.201701e-002
2.516755e+003;1.182963e-002
2.518684e+003;1.153922e-002
2.520612e+003;1.149809e-002
2.522541e+003;1.161552e-002
2.524469e+003;1.158877e-002
2.526398e+003;1.155671e-002
2.528326e+003;1.170282e-002
2.530255e+003;1.161844e-002
2.532184e+003;1.150170e-002
2.534112e+003;1.176185e-002
2.536041e+003;1.194851e-002
2.537969e+003;1.173117e-002
2.539898e+003;1.152694e-002
2.541826e+003;1.152745e-002
2.543755e+003;1.142199e-002
2.545683e+003;1.138688e-002
2.547612e+003;1.157424e-002
2.549541e+003;1.164669e-002
2.551469e+003;1.163100e-002
2.553397e+003;1.144879e-002
2.555326e+003;1.119043e-002
2.557255e+003;1.116003e-002
2.559183e+003;1.125965e-002
2.561112e+003;1.133297e-002
2.563040e+003;1.122313e-002
2.564969e+003;1.108899e-002
2.566897e+003;1.116625e-002
2.568826e+003;1.104929e-002
2.570754e+003;1.090608e-002
2.572683e+003;1.100194e-002
2.574612e+003;1.110224e-002
2.576540e+003;1.098135e-002
2.578469e+003;1.076049e-002
2.580397e+003;1.058020e-002
2.582326e+003;1.053990e-002
2.584254e+003;1.051308e-002
2.586183e+003;1.051244e-002
2.588111e+003;1.049927e-002
2.590040e+003;1.041387e-002
2.591969e+003;1.020575e-002
2.593897e+003;9.965102e-003
2.595826e+003;1.001471e-002
2.597754e+003;1.029687e-002
2.599683e+003;1.040722e-002
2.601611e+003;1.044133e-002
2.603540e+003;1.051380e-002
2.605468e+003;1.045796e-002
2.607397e+003;1.072408e-002
2.609325e+003;1.091033e-002
2.611254e+003;1.087972e-002
2.613183e+003;1.081086e-002
2.615111e+003;1.086824e-002
2.617040e+003;1.065558e-002
2.618968e+003;1.051913e-002
2.620897e+003;1.075614e-002
2.622825e+003;1.070859e-002
2.624754e+003;1.059436e-002
2.626682e+003;1.073100e-002
2.628611e+003;1.091135e-002
2.630540e+003;1.095722e-002
2.632468e+003;1.114895e-002
2.634396e+003;1.123789e-002
2.636325e+003;1.104742e-002
2.638254e+003;1.080532e-002
2.640182e+003;1.077047e-002
2.642111e+003;1.075682e-002
2.644039e+003;1.084004e-002
2.645968e+003;1.084197e-002
2.647896e+003;1.065650e-002
2.649825e+003;1.074255e-002
2.651753e+003;1.082635e-002
2.653682e+003;1.063262e-002
2.655611e+003;1.079883e-002
2.657539e+003;1.110333e-002
2.659468e+003;1.109527e-002
2.661396e+003;1.072340e-002
2.663325e+003;1.061008e-002
2.665253e+003;1.079095e-002
2.667182e+003;1.078049e-002
2.669110e+003;1.060285e-002
2.671039e+003;1.043620e-002
2.672968e+003;1.062081e-002
2.674896e+003;1.078864e-002
2.676825e+003;1.081606e-002
2.678753e+003;1.083606e-002
2.680682e+003;1.065123e-002
2.682610e+003;1.055202e-002
2.684539e+003;1.079530e-002
2.686467e+003;1.107818e-002
2.688396e+003;1.128815e-002
2.690324e+003;1.108783e-002
2.692253e+003;1.081548e-002
2.694182e+003;1.084493e-002
2.696110e+003;1.069521e-002
2.698039e+003;1.061035e-002
2.699967e+003;1.059202e-002
2.701896e+003;1.058536e-002
2.703824e+003;1.075468e-002
2.705753e+003;1.085128e-002
2.707681e+003;1.078005e-002
2.709610e+003;1.081460e-002
2.711539e+003;1.069681e-002
2.713467e+003;1.068315e-002
2.715396e+003;1.063908e-002
2.717324e+003;1.029422e-002
2.719253e+003;1.038723e-002
2.721181e+003;1.064369e-002
2.723110e+003;1.068275e-002
2.725038e+003;1.051648e-002
2.726967e+003;1.053389e-002
2.728896e+003;1.062336e-002
2.730824e+003;1.068112e-002
2.732752e+003;1.067949e-002
2.734681e+003;1.063205e-002
2.736610e+003;1.066672e-002
2.738538e+003;1.055599e-002
2.740467e+003;1.068794e-002
2.742395e+003;1.049007e-002
2.744324e+003;1.002274e-002
2.746252e+003;1.008517e-002
2.748181e+003;1.013730e-002
2.750109e+003;1.015866e-002
2.752038e+003;1.022328e-002
2.753967e+003;1.029602e-002
2.755895e+003;1.025938e-002
2.757824e+003;1.035805e-002
2.759752e+003;1.046984e-002
2.761681e+003;1.035411e-002
2.763609e+003;1.033453e-002
2.765538e+003;1.047486e-002
2.767466e+003;1.080828e-002
2.769395e+003;1.090228e-002
2.771323e+003;1.072880e-002
2.773252e+003;1.074836e-002
2.775181e+003;1.101190e-002
2.777109e+003;1.126333e-002
2.779038e+003;1.110044e-002
2.780966e+003;1.119281e-002
2.782895e+003;1.166116e-002
2.784823e+003;1.163890e-002
2.786752e+003;1.145502e-002
2.788680e+003;1.149214e-002
2.790609e+003;1.172852e-002
2.792538e+003;1.195539e-002
2.794466e+003;1.225576e-002
2.796395e+003;1.235127e-002
2.798323e+003;1.240701e-002
2.800252e+003;1.282149e-002
2.802180e+003;1.302862e-002
2.804109e+003;1.306679e-002
2.806037e+003;1.306433e-002
2.807966e+003;1.298386e-002
2.809895e+003;1.309910e-002
2.811823e+003;1.316146e-002
2.813751e+003;1.330335e-002
2.815680e+003;1.335659e-002
2.817609e+003;1.334350e-002
2.819537e+003;1.365796e-002
2.821466e+003;1.396724e-002
2.823394e+003;1.382434e-002
2.825323e+003;1.385724e-002
2.827251e+003;1.420607e-002
2.829180e+003;1.450632e-002
2.831108e+003;1.481901e-002
2.833037e+003;1.525903e-002
2.834966e+003;1.567731e-002
2.836894e+003;1.630874e-002
2.838823e+003;1.717954e-002
2.840751e+003;1.836793e-002
2.842680e+003;1.989835e-002
2.844608e+003;2.155718e-002
2.846537e+003;2.352063e-002
2.848465e+003;2.549441e-002
2.850394e+003;2.666127e-002
2.852323e+003;2.671965e-002
2.854251e+003;2.639042e-002
2.856180e+003;2.632331e-002
2.858108e+003;2.632187e-002
2.860037e+003;2.675542e-002
2.861965e+003;2.680324e-002
2.863894e+003;2.641052e-002
2.865822e+003;2.634331e-002
2.867751e+003;2.676937e-002
2.869679e+003;2.710044e-002
2.871608e+003;2.674478e-002
2.873536e+003;2.639996e-002
2.875465e+003;2.633043e-002
2.877394e+003;2.609346e-002
2.879322e+003;2.590247e-002
2.881251e+003;2.551633e-002
2.883179e+003;2.502049e-002
2.885108e+003;2.492457e-002
2.887036e+003;2.545175e-002
2.888965e+003;2.589224e-002
2.890893e+003;2.626787e-002
2.892822e+003;2.709226e-002
2.894750e+003;2.756072e-002
2.896679e+003;2.813537e-002
2.898608e+003;2.908227e-002
2.900536e+003;2.994078e-002
2.902465e+003;3.053718e-002
2.904393e+003;3.112845e-002
2.906322e+003;3.239385e-002
2.908250e+003;3.391225e-002
2.910179e+003;3.502644e-002
2.912107e+003;3.619503e-002
2.914036e+003;3.827737e-002
2.915965e+003;4.011898e-002
2.917893e+003;4.051044e-002
2.919822e+003;4.054168e-002
2.921750e+003;4.114798e-002
2.923679e+003;4.134543e-002
2.925607e+003;4.101093e-002
2.927536e+003;4.099131e-002
2.929464e+003;4.074332e-002
2.931393e+003;4.026001e-002
2.933322e+003;4.011793e-002
2.935250e+003;4.012658e-002
2.937178e+003;4.000547e-002
2.939107e+003;3.980874e-002
2.941036e+003;3.948704e-002
2.942964e+003;3.886914e-002
2.944893e+003;3.807665e-002
2.946821e+003;3.725358e-002
2.948750e+003;3.664489e-002
2.950678e+003;3.574182e-002
2.952607e+003;3.452493e-002
2.954535e+003;3.343697e-002
2.956464e+003;3.226888e-002
2.958393e+003;3.067719e-002
2.960321e+003;2.919927e-002
2.962250e+003;2.823373e-002
2.964178e+003;2.760545e-002
2.966107e+003;2.769850e-002
2.968035e+003;2.818253e-002
2.969964e+003;2.796886e-002
2.971892e+003;2.745428e-002
2.973821e+003;2.737967e-002
2.975750e+003;2.737410e-002
2.977678e+003;2.747758e-002
2.979607e+003;2.751687e-002
2.981535e+003;2.768932e-002
2.983464e+003;2.740099e-002
2.985392e+003;2.669745e-002
2.987321e+003;2.621360e-002
2.989249e+003;2.624474e-002
2.991178e+003;2.647909e-002
2.993106e+003;2.628642e-002
2.995035e+003;2.587912e-002
2.996964e+003;2.531939e-002
2.998892e+003;2.500325e-002
3.000821e+003;2.503024e-002
3.002749e+003;2.469619e-002
3.004678e+003;2.404947e-002
3.006606e+003;2.354596e-002
3.008535e+003;2.311679e-002
3.010463e+003;2.254221e-002
3.012392e+003;2.225515e-002
3.014321e+003;2.173699e-002
3.016249e+003;2.085629e-002
3.018177e+003;2.052418e-002
3.020106e+003;2.055749e-002
3.022035e+003;2.048649e-002
3.023963e+003;2.014991e-002
3.025892e+003;1.985534e-002
3.027820e+003;1.996072e-002
3.029749e+003;1.997134e-002
3.031677e+003;1.960340e-002
3.033606e+003;1.907727e-002
3.035534e+003;1.875485e-002
3.037463e+003;1.894736e-002
3.039392e+003;1.902791e-002
3.041320e+003;1.856334e-002
3.043249e+003;1.824690e-002
3.045177e+003;1.826691e-002
3.047106e+003;1.840744e-002
3.049034e+003;1.791643e-002
3.050963e+003;1.723056e-002
3.052891e+003;1.722108e-002
3.054820e+003;1.710998e-002
3.056749e+003;1.661358e-002
3.058677e+003;1.660632e-002
3.060606e+003;1.681072e-002
3.062534e+003;1.661589e-002
3.064463e+003;1.636720e-002
3.066391e+003;1.617872e-002
3.068320e+003;1.601144e-002
3.070248e+003;1.581687e-002
3.072177e+003;1.554209e-002
3.074105e+003;1.548948e-002
3.076034e+003;1.555098e-002
3.077963e+003;1.539678e-002
3.079891e+003;1.525910e-002
3.081820e+003;1.542871e-002
3.083748e+003;1.560991e-002
3.085677e+003;1.516971e-002
3.087605e+003;1.452239e-002
3.089534e+003;1.439776e-002
3.091462e+003;1.453263e-002
3.093391e+003;1.461743e-002
3.095320e+003;1.488104e-002
3.097248e+003;1.508095e-002
3.099177e+003;1.466603e-002
3.101105e+003;1.432581e-002
3.103034e+003;1.424825e-002
3.104962e+003;1.415571e-002
3.106891e+003;1.399331e-002
3.108819e+003;1.379246e-002
3.110748e+003;1.380809e-002
3.112677e+003;1.410680e-002
3.114605e+003;1.424373e-002
3.116533e+003;1.381613e-002
3.118462e+003;1.377265e-002
3.120391e+003;1.388174e-002
3.122319e+003;1.346495e-002
3.124248e+003;1.329427e-002
3.126176e+003;1.343098e-002
3.128105e+003;1.352589e-002
3.130033e+003;1.351181e-002
3.131962e+003;1.308216e-002
3.133890e+003;1.275249e-002
3.135819e+003;1.286343e-002
3.137748e+003;1.281139e-002
3.139676e+003;1.313509e-002
3.141605e+003;1.340630e-002
3.143533e+003;1.345740e-002
3.145462e+003;1.350162e-002
3.147390e+003;1.328900e-002
3.149319e+003;1.304193e-002
3.151247e+003;1.299789e-002
3.153176e+003;1.278272e-002
3.155104e+003;1.291234e-002
3.157033e+003;1.339182e-002
3.158962e+003;1.379530e-002
3.160890e+003;1.365002e-002
3.162819e+003;1.322208e-002
3.164747e+003;1.303828e-002
3.166676e+003;1.322290e-002
3.168604e+003;1.367464e-002
3.170533e+003;1.356301e-002
3.172461e+003;1.301373e-002
3.174390e+003;1.284504e-002
3.176319e+003;1.318998e-002
3.178247e+003;1.364927e-002
3.180176e+003;1.373500e-002
3.182104e+003;1.349998e-002
3.184033e+003;1.332156e-002
3.185961e+003;1.373035e-002
3.187890e+003;1.405607e-002
3.189818e+003;1.416865e-002
3.191747e+003;1.389833e-002
3.193676e+003;1.354114e-002
3.195604e+003;1.333882e-002
3.197532e+003;1.329871e-002
3.199461e+003;1.375436e-002
3.201390e+003;1.405419e-002
3.203318e+003;1.407329e-002
3.205247e+003;1.390380e-002
3.207175e+003;1.369714e-002
3.209104e+003;1.383429e-002
3.211032e+003;1.420959e-002
3.212961e+003;1.422675e-002
3.214889e+003;1.377614e-002
3.216818e+003;1.365095e-002
3.218747e+003;1.404646e-002
3.220675e+003;1.452537e-002
3.222604e+003;1.491927e-002
3.224532e+003;1.484318e-002
3.226461e+003;1.460952e-002
3.228389e+003;1.492202e-002
3.230318e+003;1.506891e-002
3.232246e+003;1.503080e-002
3.234175e+003;1.490490e-002
3.236104e+003;1.479862e-002
3.238032e+003;1.489695e-002
3.239961e+003;1.487507e-002
3.241889e+003;1.492911e-002
3.243818e+003;1.491529e-002
3.245746e+003;1.489606e-002
3.247675e+003;1.486533e-002
3.249603e+003;1.525227e-002
3.251532e+003;1.562077e-002
3.253460e+003;1.536815e-002
3.255389e+003;1.521212e-002
3.257318e+003;1.502820e-002
3.259246e+003;1.493614e-002
3.261175e+003;1.518721e-002
3.263103e+003;1.513094e-002
3.265032e+003;1.514854e-002
3.266960e+003;1.544992e-002
3.268889e+003;1.556568e-002
3.270817e+003;1.590784e-002
3.272746e+003;1.605112e-002
3.274675e+003;1.585460e-002
3.276603e+003;1.537501e-002
3.278531e+003;1.518604e-002
3.280460e+003;1.562080e-002
3.282389e+003;1.605039e-002
3.284317e+003;1.609145e-002
3.286246e+003;1.624345e-002
3.288174e+003;1.631693e-002
3.290103e+003;1.600446e-002
3.292031e+003;1.568689e-002
3.293960e+003;1.546019e-002
3.295888e+003;1.556217e-002
3.297817e+003;1.565852e-002
3.299746e+003;1.564423e-002
3.301674e+003;1.539846e-002
3.303603e+003;1.519514e-002
3.305531e+003;1.537604e-002
3.307460e+003;1.500316e-002
3.309388e+003;1.490730e-002
3.311317e+003;1.533869e-002
3.313245e+003;1.569280e-002
3.315174e+003;1.562513e-002
3.317103e+003;1.541590e-002
3.319031e+003;1.518045e-002
3.320960e+003;1.490981e-002
3.322888e+003;1.478298e-002
3.324817e+003;1.503224e-002
3.326745e+003;1.525495e-002
3.328674e+003;1.526765e-002
3.330602e+003;1.514302e-002
3.332531e+003;1.523508e-002
3.334459e+003;1.513814e-002
3.336388e+003;1.471809e-002
3.338317e+003;1.456011e-002
3.340245e+003;1.458910e-002
3.342174e+003;1.443811e-002
3.344102e+003;1.450440e-002
3.346031e+003;1.452567e-002
3.347959e+003;1.431012e-002
3.349888e+003;1.436879e-002
3.351816e+003;1.469996e-002
3.353745e+003;1.456987e-002
3.355674e+003;1.434481e-002
3.357602e+003;1.436139e-002
3.359531e+003;1.449813e-002
3.361459e+003;1.426629e-002
3.363388e+003;1.437228e-002
3.365316e+003;1.435081e-002
3.367245e+003;1.418703e-002
3.369173e+003;1.411094e-002
3.371102e+003;1.427783e-002
3.373031e+003;1.438646e-002
3.374959e+003;1.421887e-002
3.376887e+003;1.381014e-002
3.378816e+003;1.359949e-002
3.380745e+003;1.396217e-002
3.382673e+003;1.363751e-002
3.384602e+003;1.317946e-002
3.386530e+003;1.346505e-002
3.388459e+003;1.356568e-002
3.390387e+003;1.354630e-002
3.392316e+003;1.340941e-002
3.394244e+003;1.327780e-002
3.396173e+003;1.293453e-002
3.398102e+003;1.264655e-002
3.400030e+003;1.252001e-002
3.401959e+003;1.300417e-002
3.403887e+003;1.315473e-002
3.405816e+003;1.277931e-002
3.407744e+003;1.294030e-002
3.409673e+003;1.317194e-002
3.411601e+003;1.291149e-002
3.413530e+003;1.247480e-002
3.415458e+003;1.251487e-002
3.417387e+003;1.309145e-002
3.419316e+003;1.366541e-002
3.421244e+003;1.345616e-002
3.423173e+003;1.310651e-002
3.425101e+003;1.327182e-002
3.427030e+003;1.322608e-002
3.428958e+003;1.315374e-002
3.430887e+003;1.309097e-002
3.432815e+003;1.297570e-002
3.434744e+003;1.292306e-002
3.436673e+003;1.296092e-002
3.438601e+003;1.297488e-002
3.440530e+003;1.282859e-002
3.442458e+003;1.255204e-002
3.444387e+003;1.250112e-002
3.446315e+003;1.224676e-002
3.448244e+003;1.248329e-002
3.450172e+003;1.295129e-002
3.452101e+003;1.294464e-002
3.454030e+003;1.283183e-002
3.455958e+003;1.279262e-002
3.457886e+003;1.279907e-002
3.459815e+003;1.275928e-002
3.461744e+003;1.264041e-002
3.463672e+003;1.253103e-002
3.465601e+003;1.257810e-002
3.467529e+003;1.287405e-002
3.469458e+003;1.273884e-002
3.471386e+003;1.256865e-002
3.473315e+003;1.227270e-002
3.475243e+003;1.232352e-002
3.477172e+003;1.243057e-002
3.479101e+003;1.232362e-002
3.481029e+003;1.249072e-002
3.482958e+003;1.278385e-002
3.484886e+003;1.269203e-002
3.486815e+003;1.238008e-002
3.488743e+003;1.190308e-002
3.490672e+003;1.142974e-002
3.492600e+003;1.171215e-002
3.494529e+003;1.260139e-002
3.496458e+003;1.291886e-002
3.498386e+003;1.277126e-002
3.500315e+003;1.256131e-002
3.502243e+003;1.245031e-002
3.504172e+003;1.291480e-002
3.506100e+003;1.304405e-002
3.508029e+003;1.258618e-002
3.509957e+003;1.261725e-002
3.511886e+003;1.266327e-002
3.513814e+003;1.255293e-002
3.515743e+003;1.283821e-002
3.517672e+003;1.335795e-002
3.519600e+003;1.352804e-002
3.521529e+003;1.381387e-002
3.523457e+003;1.372960e-002
3.525386e+003;1.299851e-002
3.527314e+003;1.270377e-002
3.529243e+003;1.315056e-002
3.531171e+003;1.344800e-002
3.533100e+003;1.337938e-002
3.535029e+003;1.310586e-002
3.536957e+003;1.298840e-002
3.538885e+003;1.315852e-002
3.540814e+003;1.320087e-002
3.542743e+003;1.323045e-002
3.544671e+003;1.287097e-002
3.546600e+003;1.302428e-002
3.548528e+003;1.321679e-002
3.550457e+003;1.233303e-002
3.552385e+003;1.203946e-002
3.554314e+003;1.250767e-002
3.556242e+003;1.261064e-002
3.558171e+003;1.273041e-002
3.560100e+003;1.269513e-002
3.562028e+003;1.257277e-002
3.563957e+003;1.211162e-002
3.565885e+003;1.142243e-002
3.567814e+003;1.144784e-002
3.569742e+003;1.179548e-002
3.571671e+003;1.208848e-002
3.573599e+003;1.192730e-002
3.575528e+003;1.207182e-002
3.577457e+003;1.212238e-002
3.579385e+003;1.172484e-002
3.581314e+003;1.133100e-002
3.583242e+003;1.103606e-002
3.585171e+003;1.022980e-002
3.587099e+003;9.254972e-003
3.589028e+003;9.394278e-003
3.590956e+003;1.050473e-002
3.592885e+003;1.054370e-002
3.594813e+003;1.071484e-002
3.596742e+003;1.162661e-002
3.598671e+003;1.173441e-002
3.600599e+003;1.173373e-002
3.602528e+003;1.210194e-002
3.604456e+003;1.202025e-002
3.606385e+003;1.102832e-002
3.608313e+003;1.026043e-002
3.610242e+003;1.075434e-002
3.612170e+003;1.069504e-002
3.614099e+003;1.072869e-002
3.616028e+003;1.093079e-002
3.617956e+003;1.051366e-002
3.619885e+003;1.065993e-002
3.621813e+003;1.151384e-002
3.623742e+003;1.175293e-002
3.625670e+003;1.065245e-002
3.627599e+003;8.153612e-003
3.629527e+003;8.471834e-003
3.631456e+003;1.069378e-002
3.633385e+003;1.108382e-002
3.635313e+003;1.101408e-002
3.637241e+003;1.097673e-002
3.639170e+003;1.060339e-002
3.641099e+003;1.070563e-002
3.643027e+003;1.062580e-002
3.644956e+003;9.568482e-003
3.646884e+003;7.840177e-003
3.648813e+003;6.017620e-003
3.650741e+003;6.674219e-003
3.652670e+003;8.592334e-003
3.654598e+003;8.268586e-003
3.656527e+003;7.584892e-003
3.658456e+003;8.481327e-003
3.660384e+003;9.045708e-003
3.662313e+003;8.736769e-003
3.664241e+003;8.182175e-003
3.666170e+003;7.293196e-003
3.668098e+003;5.376772e-003
3.670027e+003;3.927355e-003
3.671955e+003;4.704311e-003
3.673884e+003;3.196178e-003
3.675813e+003;1.912028e-003
3.677741e+003;4.023057e-003
3.679669e+003;5.188951e-003
3.681598e+003;5.270040e-003
3.683527e+003;5.021121e-003
3.685455e+003;4.268727e-003
3.687384e+003;1.926937e-003
3.689312e+003;1.847801e-003
3.691241e+003;3.555449e-003
3.693169e+003;4.916486e-003
3.695098e+003;5.279129e-003
3.697026e+003;4.973426e-003
3.698955e+003;4.432417e-003
3.700884e+003;3.913614e-003
3.702812e+003;4.557327e-003
3.704741e+003;5.276982e-003
3.706669e+003;4.739114e-003
3.708598e+003;3.129827e-003
3.710526e+003;1.391205e-003
3.712455e+003;1.401343e-003
3.714383e+003;3.242210e-003
3.716312e+003;4.370495e-003
3.718240e+003;4.340608e-003
3.720169e+003;3.928659e-003
3.722098e+003;3.876370e-003
3.724026e+003;3.710383e-003
3.725955e+003;3.471440e-003
3.727883e+003;3.783107e-003
3.729812e+003;3.123185e-003
3.731740e+003;1.430962e-003
3.733669e+003;1.047038e-003
3.735597e+003;9.760319e-004
3.737526e+003;2.347751e-003
3.739455e+003;3.606564e-003
3.741383e+003;2.312141e-003
3.743312e+003;-1.627803e-003
3.745240e+003;-1.145291e-003
3.747169e+003;1.342278e-003
3.749097e+003;-1.571926e-004
3.751026e+003;-8.791827e-004
3.752954e+003;1.198287e-003
3.754883e+003;3.626444e-003
3.756812e+003;3.189770e-003
3.758740e+003;2.887935e-003
3.760668e+003;3.685153e-003
3.762597e+003;4.400752e-003
3.764526e+003;4.027572e-003
3.766454e+003;4.024227e-003
3.768383e+003;3.528157e-003
3.770311e+003;3.466096e-003
3.772240e+003;4.003360e-003
3.774168e+003;4.541891e-003
3.776097e+003;4.823033e-003
3.778025e+003;4.236505e-003
3.779954e+003;3.673023e-003
3.781883e+003;4.131257e-003
3.783811e+003;4.487385e-003
3.785740e+003;4.485979e-003
3.787668e+003;4.330066e-003
3.789597e+003;4.392452e-003
3.791525e+003;4.461641e-003
3.793454e+003;4.063524e-003
3.795382e+003;3.312820e-003
3.797311e+003;3.255330e-003
3.799240e+003;2.026593e-003
3.801168e+003;9.875555e-004
3.803097e+003;2.756302e-003
3.805025e+003;2.861918e-003
3.806954e+003;2.435642e-003
3.808882e+003;4.432116e-003
3.810811e+003;5.198340e-003
3.812739e+003;4.301454e-003
3.814668e+003;1.814927e-003
3.816596e+003;1.596845e-003
3.818525e+003;2.564911e-003
3.820454e+003;1.700683e-003
3.822382e+003;2.993049e-003
3.824311e+003;4.273044e-003
3.826239e+003;3.573088e-003
3.828168e+003;3.732473e-003
3.830096e+003;3.436839e-003
3.832025e+003;2.821330e-003
3.833953e+003;3.047869e-003
3.835882e+003;2.026527e-003
3.837811e+003;9.928026e-004
3.839739e+003;2.294953e-003
3.841667e+003;3.520274e-003
3.843596e+003;4.273680e-003
3.845525e+003;4.735630e-003
3.847453e+003;5.046697e-003
3.849382e+003;3.829268e-003
3.851310e+003;-2.845613e-004
3.853239e+003;-3.317927e-003
3.855167e+003;1.782648e-005
3.857096e+003;3.844277e-003
3.859024e+003;4.342717e-003
3.860953e+003;4.089913e-003
3.862882e+003;3.756436e-003
3.864810e+003;3.606598e-003
3.866739e+003;3.508950e-003
3.868667e+003;2.068540e-003
3.870596e+003;2.565377e-003
3.872524e+003;3.944909e-003
3.874453e+003;4.488423e-003
3.876381e+003;5.362281e-003
3.878310e+003;4.909281e-003
3.880239e+003;4.193145e-003
3.882167e+003;4.051919e-003
3.884096e+003;3.088812e-003
3.886024e+003;3.241342e-003
3.887953e+003;4.856840e-003
3.889881e+003;4.587463e-003
3.891810e+003;4.126005e-003
3.893738e+003;5.108850e-003
3.895667e+003;5.480847e-003
3.897595e+003;4.254406e-003
3.899524e+003;3.360433e-003
3.901453e+003;3.500767e-003
3.903381e+003;3.614249e-003
3.905310e+003;4.174343e-003
3.907238e+003;4.681602e-003
3.909167e+003;5.090042e-003
3.911095e+003;5.430484e-003
3.913024e+003;5.124540e-003
3.914952e+003;4.282681e-003
3.916881e+003;4.361693e-003
3.918810e+003;5.109990e-003
3.920738e+003;5.464640e-003
3.922667e+003;5.755849e-003
3.924595e+003;5.776331e-003
3.926524e+003;6.182878e-003
3.928452e+003;6.072856e-003
3.930381e+003;5.116393e-003
3.932309e+003;4.564258e-003
3.934238e+003;5.092288e-003
3.936167e+003;5.460043e-003
3.938095e+003;5.251594e-003
3.940023e+003;4.818175e-003
3.941952e+003;4.709770e-003
3.943881e+003;5.326287e-003
3.945809e+003;5.815854e-003
3.947738e+003;5.853869e-003
3.949666e+003;5.559272e-003
3.951595e+003;5.548835e-003
3.953523e+003;5.878352e-003
3.955452e+003;5.923359e-003
3.957380e+003;6.078501e-003
3.959309e+003;6.187684e-003
3.961238e+003;6.005055e-003
3.963166e+003;5.886815e-003
3.965095e+003;5.854977e-003
3.967023e+003;6.032604e-003
3.968952e+003;6.122386e-003
3.970880e+003;5.933637e-003
3.972809e+003;5.757730e-003
3.974737e+003;5.453467e-003
3.976666e+003;5.421963e-003
3.978594e+003;5.274232e-003
3.980523e+003;5.012339e-003
3.982452e+003;5.639825e-003
3.984380e+003;6.170309e-003
3.986309e+003;6.340399e-003
3.988237e+003;6.326715e-003
3.990166e+003;6.123092e-003
3.992094e+003;6.624660e-003
3.994023e+003;6.330783e-003
3.995951e+003;5.700956e-003
3.997880e+003;6.002267e-003
3.999809e+003;6.732265e-003
4.001737e+003;0.000000e+000
