3.992094e+002;0.000000e+000
4.011380e+002;0.000000e+000
4.030665e+002;0.000000e+000
4.049951e+002;0.000000e+000
4.069236e+002;0.000000e+000
4.088522e+002;0.000000e+000
4.107807e+002;0.000000e+000
4.127093e+002;0.000000e+000
4.146378e+002;0.000000e+000
4.165664e+002;0.000000e+000
4.184949e+002;0.000000e+000
4.204235e+002;0.000000e+000
4.223520e+002;0.000000e+000
4.242806e+002;0.000000e+000
4.262091e+002;0.000000e+000
4.281377e+002;0.000000e+000
4.300662e+002;0.000000e+000
4.319948e+002;0.000000e+000
4.339233e+002;0.000000e+000
4.358519e+002;0.000000e+000
4.377804e+002;0.000000e+000
4.397090e+002;0.000000e+000
4.416375e+002;0.000000e+000
4.435660e+002;0.000000e+000
4.454946e+002;0.000000e+000
4.474232e+002;0.000000e+000
4.493517e+002;0.000000e+000
4.512802e+002;0.000000e+000
4.532088e+002;0.000000e+000
4.551373e+002;0.000000e+000
4.570659e+002;0.000000e+000
4.589944e+002;0.000000e+000
4.609230e+002;0.000000e+000
4.628515e+002;0.000000e+000
4.647801e+002;0.000000e+000
4.667086e+002;0.000000e+000
4.686372e+002;0.000000e+000
4.705657e+002;0.000000e+000
4.724943e+002;0.000000e+000
4.744228e+002;0.000000e+000
4.763513e+002;0.000000e+000
4.782799e+002;0.000000e+000
4.802085e+002;0.000000e+000
4.821370e+002;0.000000e+000
4.840656e+002;0.000000e+000
4.859941e+002;0.000000e+000
4.879226e+002;0.000000e+000
4.898512e+002;0.000000e+000
4.917798e+002;0.000000e+000
4.937083e+002;0.000000e+000
4.956368e+002;0.000000e+000
4.975654e+002;0.000000e+000
4.994939e+002;0.000000e+000
5.014225e+002;0.000000e+000
5.033510e+002;0.000000e+000
5.052796e+002;0.000000e+000
5.072081e+002;0.000000e+000
5.091367e+002;0.000000e+000
5.110652e+002;0.000000e+000
5.129938e+002;0.000000e+000
5.149223e+002;0.000000e+000
5.168509e+002;0.000000e+000
5.187794e+002;0.000000e+000
5.207079e+002;0.000000e+000
5.226365e+002;0.000000e+000
5.245651e+002;0.000000e+000
5.264936e+002;0.000000e+000
5.284222e+002;0.000000e+000
5.303507e+002;0.000000e+000
5.322792e+002;0.000000e+000
5.342078e+002;0.000000e+000
5.361364e+002;0.000000e+000
5.380649e+002;0.000000e+000
5.399935e+002;0.000000e+000
5.419220e+002;0.000000e+000
5.438505e+002;0.000000e+000
5.457791e+002;0.000000e+000
5.477076e+002;0.000000e+000
5.496362e+002;0.000000e+000
5.515648e+002;0.000000e+000
5.534933e+002;0.000000e+000
5.554218e+002;0.000000e+000
5.573504e+002;0.000000e+000
5.592789e+002;0.000000e+000
5.612075e+002;0.000000e+000
5.631360e+002;0.000000e+000
5.650646e+002;0.000000e+000
5.669931e+002;0.000000e+000
5.689217e+002;0.000000e+000
5.708502e+002;0.000000e+000
5.727787e+002;0.000000e+000
5.747073e+002;0.000000e+000
5.766359e+002;0.000000e+000
5.785644e+002;0.000000e+000
5.804930e+002;0.000000e+000
5.824215e+002;0.000000e+000
5.843500e+002;0.000000e+000
5.862786e+002;0.000000e+000
5.882072e+002;0.000000e+000
5.901357e+002;0.000000e+000
5.920643e+002;0.000000e+000
5.939928e+002;0.000000e+000
5.959213e+002;0.000000e+000
5.978499e+002;0.000000e+000
5.997784e+002;7.031472e-002
6.017070e+002;7.900883e-002
6.036355e+002;7.805190e-002
6.055641e+002;7.476577e-002
6.074926e+002;7.067449e-002
6.094211e+002;6.643454e-002
6.113497e+002;6.577306e-002
6.132783e+002;6.667871e-002
6.152068e+002;6.595310e-002
6.171354e+002;6.786077e-002
6.190639e+002;6.927304e-002
6.209924e+002;6.673635e-002
6.229210e+002;6.636161e-002
6.248495e+002;6.624991e-002
6.267781e+002;6.532259e-002
6.287067e+002;6.494895e-002
6.306352e+002;6.816532e-002
6.325637e+002;6.943665e-002
6.344923e+002;6.792984e-002
6.364208e+002;6.790036e-002
6.383494e+002;6.742182e-002
6.402780e+002;6.744701e-002
6.422065e+002;6.707735e-002
6.441350e+002;6.745394e-002
6.460636e+002;6.795534e-002
6.479921e+002;6.578524e-002
6.499207e+002;6.622767e-002
6.518492e+002;6.581705e-002
6.537778e+002;6.420110e-002
6.557063e+002;6.277840e-002
6.576349e+002;6.498085e-002
6.595634e+002;6.741811e-002
6.614919e+002;6.542797e-002
6.634205e+002;6.237163e-002
6.653491e+002;6.214517e-002
6.672776e+002;6.307775e-002
6.692062e+002;6.409836e-002
6.711347e+002;6.480975e-002
6.730632e+002;6.493544e-002
6.749918e+002;6.413984e-002
6.769203e+002;6.315247e-002
6.788489e+002;6.329761e-002
6.807775e+002;6.282691e-002
6.827060e+002;6.239156e-002
6.846345e+002;6.284211e-002
6.865631e+002;6.305369e-002
6.884916e+002;6.298137e-002
6.904202e+002;6.209727e-002
6.923488e+002;6.136347e-002
6.942773e+002;6.159510e-002
6.962058e+002;6.194523e-002
6.981344e+002;6.125426e-002
7.000629e+002;6.101831e-002
7.019915e+002;6.045698e-002
7.039200e+002;5.902609e-002
7.058486e+002;5.856811e-002
7.077771e+002;5.932906e-002
7.097057e+002;6.085776e-002
7.116342e+002;6.138552e-002
7.135627e+002;6.275991e-002
7.154913e+002;6.426906e-002
7.174199e+002;6.423667e-002
7.193484e+002;6.377566e-002
7.212770e+002;6.381618e-002
7.232055e+002;6.394435e-002
7.251340e+002;6.488416e-002
7.270626e+002;6.666171e-002
7.289911e+002;6.662532e-002
7.309197e+002;6.607348e-002
7.328483e+002;6.604583e-002
7.347768e+002;6.560825e-002
7.367053e+002;6.624458e-002
7.386339e+002;6.709389e-002
7.405624e+002;6.715222e-002
7.424910e+002;6.701092e-002
7.444196e+002;6.660261e-002
7.463481e+002;6.728535e-002
7.482766e+002;6.742375e-002
7.502052e+002;6.678604e-002
7.521337e+002;6.734811e-002
7.540623e+002;6.745994e-002
7.559908e+002;6.712263e-002
7.579194e+002;6.719182e-002
7.598479e+002;6.773408e-002
7.617765e+002;6.810353e-002
7.637050e+002;6.832397e-002
7.656335e+002;6.824750e-002
7.675621e+002;6.751459e-002
7.694907e+002;6.606064e-002
7.714192e+002;6.512510e-002
7.733478e+002;6.504457e-002
7.752763e+002;6.455152e-002
7.772048e+002;6.366178e-002
7.791334e+002;6.180684e-002
7.810620e+002;5.980846e-002
7.829905e+002;5.755030e-002
7.849191e+002;5.475655e-002
7.868476e+002;5.237837e-002
7.887761e+002;4.944264e-002
7.907047e+002;4.570558e-002
7.926332e+002;4.221935e-002
7.945618e+002;3.918494e-002
7.964903e+002;3.686494e-002
7.984189e+002;3.578819e-002
8.003474e+002;3.624722e-002
8.022759e+002;3.643034e-002
8.042045e+002;3.717423e-002
8.061331e+002;3.847778e-002
8.080616e+002;4.018233e-002
8.099902e+002;4.213015e-002
8.119187e+002;4.386352e-002
8.138472e+002;4.538044e-002
8.157758e+002;4.624240e-002
8.177043e+002;4.711756e-002
8.196329e+002;4.863464e-002
8.215615e+002;5.112488e-002
8.234900e+002;5.392545e-002
8.254185e+002;5.625489e-002
8.273471e+002;5.890661e-002
8.292756e+002;6.104748e-002
8.312042e+002;6.224710e-002
8.331328e+002;6.324790e-002
8.350613e+002;6.391367e-002
8.369898e+002;6.386531e-002
8.389184e+002;6.327047e-002
8.408469e+002;6.320409e-002
8.427755e+002;6.279287e-002
8.447040e+002;6.164409e-002
8.466326e+002;6.111693e-002
8.485611e+002;6.053822e-002
8.504897e+002;5.989414e-002
8.524182e+002;5.933886e-002
8.543467e+002;5.877624e-002
8.562753e+002;5.910095e-002
8.582039e+002;5.939934e-002
8.601324e+002;5.863909e-002
8.620610e+002;5.831959e-002
8.639895e+002;5.856336e-002
8.659180e+002;5.823797e-002
8.678466e+002;5.813291e-002
8.697751e+002;5.845474e-002
8.717037e+002;5.856754e-002
8.736323e+002;5.852079e-002
8.755608e+002;5.868366e-002
8.774893e+002;5.901269e-002
8.794179e+002;5.909541e-002
8.813464e+002;5.906572e-002
8.832750e+002;5.907559e-002
8.852036e+002;5.956991e-002
8.871321e+002;6.012077e-002
8.890606e+002;6.031141e-002
8.909892e+002;6.039362e-002
8.929177e+002;6.006677e-002
8.948463e+002;5.986170e-002
8.967748e+002;5.973218e-002
8.987034e+002;5.944166e-002
9.006319e+002;5.954938e-002
9.025605e+002;5.951066e-002
9.044890e+002;5.944462e-002
9.064175e+002;5.971188e-002
9.083461e+002;5.979941e-002
9.102747e+002;5.988151e-002
9.122032e+002;6.007118e-002
9.141318e+002;5.984816e-002
9.160603e+002;5.975530e-002
9.179888e+002;5.983059e-002
9.199174e+002;5.973792e-002
9.218459e+002;5.993776e-002
9.237745e+002;6.000414e-002
9.257031e+002;6.005029e-002
9.276316e+002;6.004116e-002
9.295601e+002;5.984249e-002
9.314887e+002;5.977252e-002
9.334172e+002;6.005653e-002
9.353458e+002;5.974842e-002
9.372744e+002;5.940374e-002
9.392029e+002;5.991627e-002
9.411314e+002;6.045957e-002
9.430600e+002;6.052664e-002
9.449885e+002;6.048494e-002
9.469171e+002;6.062786e-002
9.488456e+002;6.049099e-002
9.507742e+002;6.055243e-002
9.527027e+002;6.077246e-002
9.546313e+002;6.107288e-002
9.565598e+002;6.115782e-002
9.584883e+002;6.091899e-002
9.604169e+002;6.046528e-002
9.623455e+002;5.990973e-002
9.642740e+002;5.977024e-002
9.662026e+002;5.952943e-002
9.681311e+002;5.883581e-002
9.700596e+002;5.851028e-002
9.719882e+002;5.822698e-002
9.739167e+002;5.787677e-002
9.758453e+002;5.751432e-002
9.777739e+002;5.700994e-002
9.797024e+002;5.651905e-002
9.816309e+002;5.614854e-002
9.835595e+002;5.590984e-002
9.854880e+002;5.580818e-002
9.874166e+002;5.587468e-002
9.893452e+002;5.563422e-002
9.912737e+002;5.459026e-002
9.932022e+002;5.323228e-002
9.951307e+002;5.213172e-002
9.970593e+002;5.143440e-002
9.989879e+002;5.073629e-002
1.000916e+003;4.950866e-002
1.002845e+003;4.797484e-002
1.004773e+003;4.604460e-002
1.006702e+003;4.327165e-002
1.008631e+003;4.032744e-002
1.010559e+003;3.726603e-002
1.012488e+003;3.433523e-002
1.014416e+003;3.198842e-002
1.016345e+003;3.041128e-002
1.018273e+003;3.003834e-002
1.020202e+003;3.066275e-002
1.022130e+003;3.187580e-002
1.024059e+003;3.304408e-002
1.025988e+003;3.380035e-002
1.027916e+003;3.505187e-002
1.029845e+003;3.704529e-002
1.031773e+003;3.920713e-002
1.033702e+003;4.073605e-002
1.035630e+003;4.132641e-002
1.037559e+003;4.183897e-002
1.039487e+003;4.203505e-002
1.041416e+003;4.220726e-002
1.043344e+003;4.263189e-002
1.045273e+003;4.311409e-002
1.047202e+003;4.365684e-002
1.049130e+003;4.416824e-002
1.051059e+003;4.497851e-002
1.052987e+003;4.627860e-002
1.054916e+003;4.749653e-002
1.056844e+003;4.816404e-002
1.058773e+003;4.913023e-002
1.060701e+003;5.077495e-002
1.062630e+003;5.200434e-002
1.064558e+003;5.207695e-002
1.066487e+003;5.232499e-002
1.068416e+003;5.275152e-002
1.070344e+003;5.223358e-002
1.072273e+003;5.132893e-002
1.074201e+003;5.041362e-002
1.076130e+003;4.951189e-002
1.078058e+003;4.801303e-002
1.079987e+003;4.654282e-002
1.081915e+003;4.538313e-002
1.083844e+003;4.422990e-002
1.085773e+003;4.299720e-002
1.087701e+003;4.231295e-002
1.089630e+003;4.193366e-002
1.091558e+003;4.115429e-002
1.093487e+003;4.035453e-002
1.095415e+003;4.032523e-002
1.097344e+003;4.103162e-002
1.099272e+003;4.158325e-002
1.101201e+003;4.210382e-002
1.103129e+003;4.288710e-002
1.105058e+003;4.387338e-002
1.106987e+003;4.461231e-002
1.108915e+003;4.510961e-002
1.110844e+003;4.608715e-002
1.112772e+003;4.733056e-002
1.114701e+003;4.823991e-002
1.116629e+003;4.852736e-002
1.118558e+003;4.880037e-002
1.120486e+003;4.969523e-002
1.122415e+003;5.046933e-002
1.124344e+003;5.053245e-002
1.126272e+003;5.006295e-002
1.128201e+003;5.013483e-002
1.130129e+003;5.089377e-002
1.132058e+003;5.165284e-002
1.133986e+003;5.158079e-002
1.135915e+003;5.166904e-002
1.137843e+003;5.227554e-002
1.139772e+003;5.325453e-002
1.141700e+003;5.485591e-002
1.143629e+003;5.668016e-002
1.145557e+003;5.815398e-002
1.147486e+003;5.931512e-002
1.149415e+003;6.077235e-002
1.151343e+003;6.316193e-002
1.153272e+003;6.534034e-002
1.155200e+003;6.700949e-002
1.157129e+003;6.866494e-002
1.159057e+003;7.067519e-002
1.160986e+003;7.308197e-002
1.162914e+003;7.498355e-002
1.164843e+003;7.629103e-002
1.166771e+003;7.687654e-002
1.168700e+003;7.657776e-002
1.170629e+003;7.630545e-002
1.172557e+003;7.628673e-002
1.174486e+003;7.590536e-002
1.176414e+003;7.496800e-002
1.178343e+003;7.417835e-002
1.180271e+003;7.393987e-002
1.182200e+003;7.375374e-002
1.184128e+003;7.296958e-002
1.186057e+003;7.242677e-002
1.187986e+003;7.245148e-002
1.189914e+003;7.281878e-002
1.191843e+003;7.336109e-002
1.193771e+003;7.367152e-002
1.195700e+003;7.427631e-002
1.197628e+003;7.527529e-002
1.199557e+003;7.537003e-002
1.201485e+003;7.475695e-002
1.203414e+003;7.415826e-002
1.205343e+003;7.442034e-002
1.207271e+003;7.483450e-002
1.209200e+003;7.447980e-002
1.211128e+003;7.432505e-002
1.213057e+003;7.422516e-002
1.214985e+003;7.402339e-002
1.216914e+003;7.467801e-002
1.218842e+003;7.538386e-002
1.220771e+003;7.576367e-002
1.222699e+003;7.562578e-002
1.224628e+003;7.515406e-002
1.226557e+003;7.515756e-002
1.228485e+003;7.518692e-002
1.230414e+003;7.511526e-002
1.232342e+003;7.475542e-002
1.234271e+003;7.434680e-002
1.236199e+003;7.403459e-002
1.238128e+003;7.381842e-002
1.240056e+003;7.370006e-002
1.241985e+003;7.371314e-002
1.243913e+003;7.320933e-002
1.245842e+003;7.255888e-002
1.247771e+003;7.183070e-002
1.249699e+003;7.045557e-002
1.251628e+003;6.830501e-002
1.253556e+003;6.514493e-002
1.255485e+003;6.076381e-002
1.257413e+003;5.645585e-002
1.259342e+003;5.355384e-002
1.261270e+003;5.312929e-002
1.263199e+003;5.499743e-002
1.265127e+003;5.854987e-002
1.267056e+003;6.234440e-002
1.268985e+003;6.540844e-002
1.270913e+003;6.768826e-002
1.272842e+003;6.899786e-002
1.274770e+003;6.903212e-002
1.276699e+003;6.873771e-002
1.278627e+003;6.850395e-002
1.280556e+003;6.846996e-002
1.282484e+003;6.827069e-002
1.284413e+003;6.753940e-002
1.286342e+003;6.689274e-002
1.288270e+003;6.681271e-002
1.290199e+003;6.663409e-002
1.292127e+003;6.626797e-002
1.294056e+003;6.564154e-002
1.295984e+003;6.530972e-002
1.297913e+003;6.526447e-002
1.299841e+003;6.492471e-002
1.301770e+003;6.483995e-002
1.303698e+003;6.498320e-002
1.305627e+003;6.501736e-002
1.307556e+003;6.493387e-002
1.309484e+003;6.480744e-002
1.311413e+003;6.463238e-002
1.313341e+003;6.429111e-002
1.315270e+003;6.383921e-002
1.317198e+003;6.341001e-002
1.319127e+003;6.357205e-002
1.321055e+003;6.402559e-002
1.322984e+003;6.416395e-002
1.324912e+003;6.402716e-002
1.326841e+003;6.405926e-002
1.328770e+003;6.425999e-002
1.330698e+003;6.430310e-002
1.332627e+003;6.414545e-002
1.334555e+003;6.401449e-002
1.336484e+003;6.391083e-002
1.338412e+003;6.378087e-002
1.340341e+003;6.414898e-002
1.342269e+003;6.481072e-002
1.344198e+003;6.540990e-002
1.346126e+003;6.585989e-002
1.348055e+003;6.587917e-002
1.349984e+003;6.573185e-002
1.351912e+003;6.584871e-002
1.353841e+003;6.617512e-002
1.355769e+003;6.633525e-002
1.357698e+003;6.641655e-002
1.359626e+003;6.590486e-002
1.361555e+003;6.502730e-002
1.363483e+003;6.481891e-002
1.365412e+003;6.496499e-002
1.367341e+003;6.452066e-002
1.369269e+003;6.393206e-002
1.371198e+003;6.321294e-002
1.373126e+003;6.221319e-002
1.375055e+003;6.205449e-002
1.376983e+003;6.230118e-002
1.378912e+003;6.207636e-002
1.380840e+003;6.153874e-002
1.382769e+003;6.088407e-002
1.384698e+003;6.005170e-002
1.386626e+003;5.856040e-002
1.388555e+003;5.775352e-002
1.390483e+003;5.742393e-002
1.392412e+003;5.593822e-002
1.394340e+003;5.386779e-002
1.396269e+003;5.303891e-002
1.398197e+003;5.246061e-002
1.400126e+003;5.240117e-002
1.402054e+003;5.265945e-002
1.403983e+003;5.234902e-002
1.405911e+003;5.215731e-002
1.407840e+003;5.215675e-002
1.409769e+003;5.220040e-002
1.411697e+003;5.242005e-002
1.413626e+003;5.271414e-002
1.415554e+003;5.287728e-002
1.417483e+003;5.196147e-002
1.419411e+003;5.181652e-002
1.421340e+003;5.443959e-002
1.423268e+003;5.650271e-002
1.425197e+003;5.831250e-002
1.427125e+003;6.055601e-002
1.429054e+003;6.293946e-002
1.430983e+003;6.570942e-002
1.432911e+003;6.840022e-002
1.434840e+003;6.942324e-002
1.436768e+003;6.993341e-002
1.438697e+003;7.303743e-002
1.440625e+003;7.594403e-002
1.442554e+003;7.827143e-002
1.444482e+003;8.046219e-002
1.446411e+003;8.230732e-002
1.448340e+003;8.410451e-002
1.450268e+003;8.545333e-002
1.452197e+003;8.525886e-002
1.454125e+003;8.249743e-002
1.456054e+003;7.642056e-002
1.457982e+003;7.274289e-002
1.459911e+003;7.117610e-002
1.461839e+003;6.775762e-002
1.463768e+003;6.291909e-002
1.465697e+003;5.988809e-002
1.467625e+003;5.904833e-002
1.469554e+003;5.695675e-002
1.471482e+003;5.340925e-002
1.473411e+003;5.186770e-002
1.475339e+003;5.255507e-002
1.477268e+003;5.290861e-002
1.479196e+003;5.280251e-002
1.481125e+003;5.252979e-002
1.483053e+003;5.242756e-002
1.484982e+003;5.199960e-002
1.486911e+003;5.112436e-002
1.488839e+003;5.008735e-002
1.490768e+003;4.987783e-002
1.492696e+003;5.040658e-002
1.494625e+003;4.895867e-002
1.496553e+003;4.755608e-002
1.498482e+003;4.862056e-002
1.500410e+003;4.969460e-002
1.502339e+003;4.951520e-002
1.504267e+003;4.632128e-002
1.506196e+003;4.288487e-002
1.508125e+003;4.468340e-002
1.510053e+003;4.756547e-002
1.511982e+003;4.827064e-002
1.513910e+003;4.823057e-002
1.515839e+003;4.743233e-002
1.517767e+003;4.703200e-002
1.519696e+003;4.535970e-002
1.521624e+003;4.425801e-002
1.523553e+003;4.619250e-002
1.525481e+003;4.712812e-002
1.527410e+003;4.818655e-002
1.529339e+003;4.919142e-002
1.531267e+003;4.898437e-002
1.533196e+003;4.839344e-002
1.535124e+003;4.949759e-002
1.537053e+003;4.849632e-002
1.538981e+003;4.481644e-002
1.540910e+003;4.502992e-002
1.542838e+003;4.779130e-002
1.544767e+003;4.960169e-002
1.546695e+003;5.063594e-002
1.548624e+003;5.027435e-002
1.550553e+003;5.004716e-002
1.552481e+003;4.982112e-002
1.554410e+003;4.854600e-002
1.556338e+003;4.634476e-002
1.558267e+003;4.243876e-002
1.560195e+003;4.350471e-002
1.562124e+003;4.776593e-002
1.564052e+003;4.876493e-002
1.565981e+003;4.855086e-002
1.567910e+003;4.769111e-002
1.569838e+003;4.683635e-002
1.571767e+003;4.780299e-002
1.573695e+003;4.729601e-002
1.575624e+003;4.518392e-002
1.577552e+003;4.676582e-002
1.579481e+003;4.891799e-002
1.581409e+003;4.883307e-002
1.583338e+003;4.799767e-002
1.585266e+003;4.708662e-002
1.587195e+003;4.657236e-002
1.589124e+003;4.624977e-002
1.591052e+003;4.619231e-002
1.592981e+003;4.602987e-002
1.594909e+003;4.618355e-002
1.596838e+003;4.673465e-002
1.598766e+003;4.720432e-002
1.600695e+003;4.735746e-002
1.602623e+003;4.740228e-002
1.604552e+003;4.761446e-002
1.606480e+003;4.781482e-002
1.608409e+003;4.778853e-002
1.610338e+003;4.763546e-002
1.612266e+003;4.751775e-002
1.614195e+003;4.613575e-002
1.616123e+003;4.361060e-002
1.618052e+003;4.467609e-002
1.619980e+003;4.644505e-002
1.621909e+003;4.562645e-002
1.623837e+003;4.517362e-002
1.625766e+003;4.600091e-002
1.627694e+003;4.647993e-002
1.629623e+003;4.684255e-002
1.631552e+003;4.672431e-002
1.633480e+003;4.461021e-002
1.635409e+003;4.253307e-002
1.637337e+003;4.444505e-002
1.639266e+003;4.631247e-002
1.641194e+003;4.642337e-002
1.643123e+003;4.576614e-002
1.645051e+003;4.402322e-002
1.646980e+003;4.366325e-002
1.648909e+003;4.508381e-002
1.650837e+003;4.232299e-002
1.652766e+003;3.836020e-002
1.654694e+003;4.283008e-002
1.656623e+003;4.778949e-002
1.658551e+003;4.866218e-002
1.660480e+003;4.822572e-002
1.662408e+003;4.810385e-002
1.664337e+003;4.933617e-002
1.666266e+003;4.975282e-002
1.668194e+003;4.822554e-002
1.670123e+003;4.786143e-002
1.672051e+003;4.875088e-002
1.673980e+003;4.793928e-002
1.675908e+003;4.769322e-002
1.677837e+003;4.897710e-002
1.679765e+003;4.874613e-002
1.681694e+003;4.650442e-002
1.683622e+003;4.247329e-002
1.685551e+003;4.318022e-002
1.687479e+003;4.653529e-002
1.689408e+003;4.751560e-002
1.691337e+003;4.777380e-002
1.693265e+003;4.633654e-002
1.695194e+003;4.353434e-002
1.697122e+003;4.414535e-002
1.699051e+003;4.357793e-002
1.700979e+003;4.397912e-002
1.702908e+003;4.777070e-002
1.704836e+003;4.916548e-002
1.706765e+003;5.083600e-002
1.708693e+003;5.319281e-002
1.710622e+003;5.529512e-002
1.712551e+003;5.650724e-002
1.714479e+003;5.745358e-002
1.716408e+003;5.824513e-002
1.718336e+003;6.178563e-002
1.720265e+003;6.777920e-002
1.722193e+003;7.192469e-002
1.724122e+003;7.469611e-002
1.726050e+003;7.711303e-002
1.727979e+003;7.854993e-002
1.729908e+003;7.873388e-002
1.731836e+003;7.636936e-002
1.733765e+003;7.286838e-002
1.735693e+003;7.303218e-002
1.737622e+003;7.192254e-002
1.739550e+003;6.783098e-002
1.741479e+003;6.452519e-002
1.743407e+003;6.101835e-002
1.745336e+003;5.737337e-002
1.747265e+003;5.387799e-002
1.749193e+003;5.052061e-002
1.751122e+003;4.800145e-002
1.753050e+003;4.754281e-002
1.754979e+003;4.656638e-002
1.756907e+003;4.503503e-002
1.758836e+003;4.414671e-002
1.760764e+003;4.280847e-002
1.762693e+003;4.231288e-002
1.764621e+003;4.260086e-002
1.766550e+003;4.149863e-002
1.768479e+003;4.058017e-002
1.770407e+003;3.941563e-002
1.772336e+003;3.822001e-002
1.774264e+003;3.937409e-002
1.776193e+003;4.046577e-002
1.778121e+003;4.055736e-002
1.780050e+003;4.015398e-002
1.781978e+003;3.991207e-002
1.783907e+003;3.960078e-002
1.785835e+003;3.935406e-002
1.787764e+003;3.949448e-002
1.789693e+003;3.894629e-002
1.791621e+003;3.774567e-002
1.793550e+003;3.804268e-002
1.795478e+003;3.903491e-002
1.797407e+003;3.879558e-002
1.799335e+003;3.816231e-002
1.801264e+003;3.805574e-002
1.803192e+003;3.857087e-002
1.805121e+003;3.880025e-002
1.807049e+003;3.859534e-002
1.808978e+003;3.826426e-002
1.810907e+003;3.822102e-002
1.812835e+003;3.833259e-002
1.814764e+003;3.839636e-002
1.816692e+003;3.816440e-002
1.818621e+003;3.812114e-002
1.820549e+003;3.811039e-002
1.822478e+003;3.793369e-002
1.824406e+003;3.739404e-002
1.826335e+003;3.735745e-002
1.828264e+003;3.697121e-002
1.830192e+003;3.672162e-002
1.832121e+003;3.726354e-002
1.834049e+003;3.743878e-002
1.835978e+003;3.724206e-002
1.837906e+003;3.724538e-002
1.839835e+003;3.737305e-002
1.841763e+003;3.673168e-002
1.843692e+003;3.563048e-002
1.845620e+003;3.631648e-002
1.847549e+003;3.706748e-002
1.849478e+003;3.694956e-002
1.851406e+003;3.685927e-002
1.853335e+003;3.691179e-002
1.855263e+003;3.702013e-002
1.857192e+003;3.695891e-002
1.859120e+003;3.676554e-002
1.861049e+003;3.688644e-002
1.862977e+003;3.701079e-002
1.864906e+003;3.667158e-002
1.866834e+003;3.603336e-002
1.868763e+003;3.573779e-002
1.870692e+003;3.632722e-002
1.872620e+003;3.690436e-002
1.874549e+003;3.679605e-002
1.876477e+003;3.655467e-002
1.878406e+003;3.637971e-002
1.880334e+003;3.642071e-002
1.882263e+003;3.644868e-002
1.884191e+003;3.659598e-002
1.886120e+003;3.656559e-002
1.888048e+003;3.623360e-002
1.889977e+003;3.615895e-002
1.891906e+003;3.632146e-002
1.893834e+003;3.627837e-002
1.895763e+003;3.627117e-002
1.897691e+003;3.640472e-002
1.899620e+003;3.646244e-002
1.901548e+003;3.619683e-002
1.903477e+003;3.592145e-002
1.905405e+003;3.595780e-002
1.907334e+003;3.593649e-002
1.909262e+003;3.562005e-002
1.911191e+003;3.561128e-002
1.913120e+003;3.590485e-002
1.915048e+003;3.583321e-002
1.916977e+003;3.512695e-002
1.918905e+003;3.517132e-002
1.920834e+003;3.552072e-002
1.922762e+003;3.556132e-002
1.924691e+003;3.564358e-002
1.926619e+003;3.566257e-002
1.928548e+003;3.574059e-002
1.930477e+003;3.566440e-002
1.932405e+003;3.542286e-002
1.934334e+003;3.524667e-002
1.936262e+003;3.518763e-002
1.938191e+003;3.499968e-002
1.940119e+003;3.464119e-002
1.942048e+003;3.455285e-002
1.943976e+003;3.476788e-002
1.945905e+003;3.480205e-002
1.947833e+003;3.502378e-002
1.949762e+003;3.523280e-002
1.951691e+003;3.506595e-002
1.953619e+003;3.493544e-002
1.955548e+003;3.483322e-002
1.957476e+003;3.495199e-002
1.959405e+003;3.504752e-002
1.961333e+003;3.493716e-002
1.963262e+003;3.469983e-002
1.965190e+003;3.465066e-002
1.967119e+003;3.485321e-002
1.969047e+003;3.522543e-002
1.970976e+003;3.541905e-002
1.972905e+003;3.523600e-002
1.974833e+003;3.507188e-002
1.976762e+003;3.501685e-002
1.978690e+003;3.511883e-002
1.980619e+003;3.556399e-002
1.982547e+003;3.574782e-002
1.984476e+003;3.562861e-002
1.986404e+003;3.552641e-002
1.988333e+003;3.537164e-002
1.990261e+003;3.519927e-002
1.992190e+003;3.512199e-002
1.994119e+003;3.523222e-002
1.996047e+003;3.531502e-002
1.997976e+003;3.533486e-002
1.999904e+003;3.544256e-002
2.001833e+003;3.548477e-002
2.003761e+003;3.554259e-002
2.005690e+003;3.576869e-002
2.007618e+003;3.592505e-002
2.009547e+003;3.597432e-002
2.011476e+003;3.582256e-002
2.013404e+003;3.573426e-002
2.015333e+003;3.565617e-002
2.017261e+003;3.576070e-002
2.019190e+003;3.615307e-002
2.021118e+003;3.636390e-002
2.023047e+003;3.613273e-002
2.024975e+003;3.592372e-002
2.026904e+003;3.578049e-002
2.028833e+003;3.577175e-002
2.030761e+003;3.581097e-002
2.032690e+003;3.565206e-002
2.034618e+003;3.545755e-002
2.036547e+003;3.537782e-002
2.038475e+003;3.560746e-002
2.040404e+003;3.559315e-002
2.042332e+003;3.548714e-002
2.044261e+003;3.561844e-002
2.046189e+003;3.582590e-002
2.048118e+003;3.575192e-002
2.050047e+003;3.561444e-002
2.051975e+003;3.546104e-002
2.053904e+003;3.529942e-002
2.055832e+003;3.539173e-002
2.057761e+003;3.539281e-002
2.059689e+003;3.526557e-002
2.061618e+003;3.533515e-002
2.063546e+003;3.539737e-002
2.065475e+003;3.537257e-002
2.067404e+003;3.531200e-002
2.069332e+003;3.532699e-002
2.071260e+003;3.523269e-002
2.073189e+003;3.528699e-002
2.075118e+003;3.532358e-002
2.077046e+003;3.532491e-002
2.078975e+003;3.513977e-002
2.080903e+003;3.480536e-002
2.082832e+003;3.474681e-002
2.084760e+003;3.491077e-002
2.086689e+003;3.516345e-002
2.088617e+003;3.527736e-002
2.090546e+003;3.514092e-002
2.092475e+003;3.519647e-002
2.094403e+003;3.525583e-002
2.096332e+003;3.527459e-002
2.098260e+003;3.511129e-002
2.100189e+003;3.503108e-002
2.102117e+003;3.504727e-002
2.104046e+003;3.495494e-002
2.105974e+003;3.497041e-002
2.107903e+003;3.509652e-002
2.109832e+003;3.509710e-002
2.111760e+003;3.481239e-002
2.113688e+003;3.444996e-002
2.115617e+003;3.450061e-002
2.117546e+003;3.478253e-002
2.119474e+003;3.466200e-002
2.121403e+003;3.433111e-002
2.123331e+003;3.427094e-002
2.125260e+003;3.450520e-002
2.127188e+003;3.454503e-002
2.129117e+003;3.438088e-002
2.131045e+003;3.448257e-002
2.132974e+003;3.461944e-002
2.134903e+003;3.462396e-002
2.136831e+003;3.445818e-002
2.138760e+003;3.461804e-002
2.140688e+003;3.474545e-002
2.142617e+003;3.455084e-002
2.144545e+003;3.438070e-002
2.146474e+003;3.438185e-002
2.148402e+003;3.450549e-002
2.150331e+003;3.465838e-002
2.152260e+003;3.475707e-002
2.154188e+003;3.458912e-002
2.156117e+003;3.446729e-002
2.158045e+003;3.459095e-002
2.159974e+003;3.435883e-002
2.161902e+003;3.419622e-002
2.163831e+003;3.447966e-002
2.165759e+003;3.468016e-002
2.167688e+003;3.463526e-002
2.169616e+003;3.473633e-002
2.171545e+003;3.472628e-002
2.173474e+003;3.437722e-002
2.175402e+003;3.429930e-002
2.177331e+003;3.468795e-002
2.179259e+003;3.496438e-002
2.181188e+003;3.523021e-002
2.183116e+003;3.556395e-002
2.185045e+003;3.595337e-002
2.186973e+003;3.649019e-002
2.188902e+003;3.690274e-002
2.190831e+003;3.695101e-002
2.192759e+003;3.678938e-002
2.194688e+003;3.657338e-002
2.196616e+003;3.643351e-002
2.198545e+003;3.633443e-002
2.200473e+003;3.636073e-002
2.202402e+003;3.636303e-002
2.204330e+003;3.617854e-002
2.206259e+003;3.645451e-002
2.208188e+003;3.668055e-002
2.210116e+003;3.658098e-002
2.212044e+003;3.658062e-002
2.213973e+003;3.683853e-002
2.215902e+003;3.715979e-002
2.217830e+003;3.735124e-002
2.219759e+003;3.776041e-002
2.221687e+003;3.830277e-002
2.223616e+003;3.901562e-002
2.225544e+003;3.990735e-002
2.227473e+003;4.165950e-002
2.229401e+003;4.432185e-002
2.231330e+003;4.764492e-002
2.233259e+003;5.197204e-002
2.235187e+003;5.697549e-002
2.237116e+003;6.160862e-002
2.239044e+003;6.501229e-002
2.240973e+003;6.663092e-002
2.242901e+003;6.620475e-002
2.244830e+003;6.390454e-002
2.246758e+003;6.057060e-002
2.248687e+003;5.722169e-002
2.250615e+003;5.406626e-002
2.252544e+003;5.100014e-002
2.254473e+003;4.828116e-002
2.256401e+003;4.593240e-002
2.258330e+003;4.381664e-002
2.260258e+003;4.220120e-002
2.262187e+003;4.102594e-002
2.264115e+003;3.996743e-002
2.266044e+003;3.925468e-002
2.267972e+003;3.871867e-002
2.269901e+003;3.836726e-002
2.271830e+003;3.810327e-002
2.273758e+003;3.789164e-002
2.275687e+003;3.766233e-002
2.277615e+003;3.732470e-002
2.279544e+003;3.710165e-002
2.281472e+003;3.686183e-002
2.283401e+003;3.647682e-002
2.285329e+003;3.624732e-002
2.287258e+003;3.617540e-002
2.289187e+003;3.609053e-002
2.291115e+003;3.618635e-002
2.293043e+003;3.618189e-002
2.294972e+003;3.596468e-002
2.296901e+003;3.589719e-002
2.298829e+003;3.604477e-002
2.300758e+003;3.619719e-002
2.302686e+003;3.607818e-002
2.304615e+003;3.581636e-002
2.306543e+003;3.570379e-002
2.308472e+003;3.552921e-002
2.310400e+003;3.536775e-002
2.312329e+003;3.522946e-002
2.314258e+003;3.517901e-002
2.316186e+003;3.524239e-002
2.318115e+003;3.519751e-002
2.320043e+003;3.497914e-002
2.321972e+003;3.467004e-002
2.323900e+003;3.428044e-002
2.325829e+003;3.413525e-002
2.327757e+003;3.399125e-002
2.329686e+003;3.402440e-002
2.331615e+003;3.419016e-002
2.333543e+003;3.405690e-002
2.335472e+003;3.403486e-002
2.337400e+003;3.393253e-002
2.339329e+003;3.380884e-002
2.341257e+003;3.383871e-002
2.343186e+003;3.425892e-002
2.345114e+003;3.482543e-002
2.347043e+003;3.532038e-002
2.348971e+003;3.544756e-002
2.350900e+003;3.486172e-002
2.352829e+003;3.398674e-002
2.354757e+003;3.344613e-002
2.356686e+003;3.339700e-002
2.358614e+003;3.334869e-002
2.360543e+003;3.306149e-002
2.362471e+003;3.286481e-002
2.364400e+003;3.306635e-002
2.366328e+003;3.358533e-002
2.368257e+003;3.402139e-002
2.370186e+003;3.416583e-002
2.372114e+003;3.436905e-002
2.374042e+003;3.496463e-002
2.375971e+003;3.510241e-002
2.377900e+003;3.512961e-002
2.379828e+003;3.536286e-002
2.381757e+003;3.561969e-002
2.383685e+003;3.581449e-002
2.385614e+003;3.599272e-002
2.387542e+003;3.568976e-002
2.389471e+003;3.529511e-002
2.391399e+003;3.539568e-002
2.393328e+003;3.561103e-002
2.395257e+003;3.547503e-002
2.397185e+003;3.537951e-002
2.399114e+003;3.552936e-002
2.401042e+003;3.581367e-002
2.402971e+003;3.569868e-002
2.404899e+003;3.556658e-002
2.406828e+003;3.545705e-002
2.408756e+003;3.536254e-002
2.410685e+003;3.557931e-002
2.412614e+003;3.576884e-002
2.414542e+003;3.577898e-002
2.416471e+003;3.573218e-002
2.418399e+003;3.577625e-002
2.420328e+003;3.553820e-002
2.422256e+003;3.528085e-002
2.424185e+003;3.550663e-002
2.426113e+003;3.575426e-002
2.428042e+003;3.576797e-002
2.429970e+003;3.570196e-002
2.431899e+003;3.564343e-002
2.433828e+003;3.567268e-002
2.435756e+003;3.571038e-002
2.437685e+003;3.567231e-002
2.439613e+003;3.569444e-002
2.441542e+003;3.581996e-002
2.443470e+003;3.588585e-002
2.445399e+003;3.579719e-002
2.447327e+003;3.579366e-002
2.449256e+003;3.586239e-002
2.451185e+003;3.597090e-002
2.453113e+003;3.600877e-002
2.455042e+003;3.592800e-002
2.456970e+003;3.576891e-002
2.458899e+003;3.579672e-002
2.460827e+003;3.593746e-002
2.462756e+003;3.605103e-002
2.464684e+003;3.593073e-002
2.466613e+003;3.577585e-002
2.468542e+003;3.578413e-002
2.470470e+003;3.586145e-002
2.472398e+003;3.584508e-002
2.474327e+003;3.594499e-002
2.476256e+003;3.608808e-002
2.478184e+003;3.610911e-002
2.480113e+003;3.644244e-002
2.482041e+003;3.660344e-002
2.483970e+003;3.645992e-002
2.485898e+003;3.663891e-002
2.487827e+003;3.678184e-002
2.489755e+003;3.656837e-002
2.491684e+003;3.654133e-002
2.493613e+003;3.689343e-002
2.495541e+003;3.724408e-002
2.497470e+003;3.700960e-002
2.499398e+003;3.682310e-002
2.501327e+003;3.685801e-002
2.503255e+003;3.651077e-002
2.505184e+003;3.645574e-002
2.507112e+003;3.685487e-002
2.509041e+003;3.702425e-002
2.510969e+003;3.703955e-002
2.512898e+003;3.696904e-002
2.514827e+003;3.692215e-002
2.516755e+003;3.693207e-002
2.518684e+003;3.667994e-002
2.520612e+003;3.660037e-002
2.522541e+003;3.685448e-002
2.524469e+003;3.686327e-002
2.526398e+003;3.673637e-002
2.528326e+003;3.679691e-002
2.530255e+003;3.693037e-002
2.532184e+003;3.691850e-002
2.534112e+003;3.712489e-002
2.536041e+003;3.718596e-002
2.537969e+003;3.700437e-002
2.539898e+003;3.696522e-002
2.541826e+003;3.682483e-002
2.543755e+003;3.668819e-002
2.545683e+003;3.664882e-002
2.547612e+003;3.674311e-002
2.549541e+003;3.677928e-002
2.551469e+003;3.668196e-002
2.553397e+003;3.666710e-002
2.555326e+003;3.661029e-002
2.557255e+003;3.673745e-002
2.559183e+003;3.665607e-002
2.561112e+003;3.652000e-002
2.563040e+003;3.646021e-002
2.564969e+003;3.637485e-002
2.566897e+003;3.640068e-002
2.568826e+003;3.600683e-002
2.570754e+003;3.572153e-002
2.572683e+003;3.591101e-002
2.574612e+003;3.611188e-002
2.576540e+003;3.618988e-002
2.578469e+003;3.610230e-002
2.580397e+003;3.598706e-002
2.582326e+003;3.586538e-002
2.584254e+003;3.562336e-002
2.586183e+003;3.556247e-002
2.588111e+003;3.584350e-002
2.590040e+003;3.581255e-002
2.591969e+003;3.544062e-002
2.593897e+003;3.532023e-002
2.595826e+003;3.533558e-002
2.597754e+003;3.531804e-002
2.599683e+003;3.520556e-002
2.601611e+003;3.512810e-002
2.603540e+003;3.531172e-002
2.605468e+003;3.544004e-002
2.607397e+003;3.550620e-002
2.609325e+003;3.568138e-002
2.611254e+003;3.583954e-002
2.613183e+003;3.590950e-002
2.615111e+003;3.597997e-002
2.617040e+003;3.576617e-002
2.618968e+003;3.589255e-002
2.620897e+003;3.615884e-002
2.622825e+003;3.590000e-002
2.624754e+003;3.571570e-002
2.626682e+003;3.577229e-002
2.628611e+003;3.578686e-002
2.630540e+003;3.600002e-002
2.632468e+003;3.635972e-002
2.634396e+003;3.643837e-002
2.636325e+003;3.638544e-002
2.638254e+003;3.636008e-002
2.640182e+003;3.609877e-002
2.642111e+003;3.570070e-002
2.644039e+003;3.549976e-002
2.645968e+003;3.563296e-002
2.647896e+003;3.563340e-002
2.649825e+003;3.557046e-002
2.651753e+003;3.558866e-002
2.653682e+003;3.567552e-002
2.655611e+003;3.551303e-002
2.657539e+003;3.544461e-002
2.659468e+003;3.558481e-002
2.661396e+003;3.544799e-002
2.663325e+003;3.543548e-002
2.665253e+003;3.573505e-002
2.667182e+003;3.575383e-002
2.669110e+003;3.571397e-002
2.671039e+003;3.568174e-002
2.672968e+003;3.563059e-002
2.674896e+003;3.558333e-002
2.676825e+003;3.572127e-002
2.678753e+003;3.560347e-002
2.680682e+003;3.541006e-002
2.682610e+003;3.540312e-002
2.684539e+003;3.546924e-002
2.686467e+003;3.552292e-002
2.688396e+003;3.554906e-002
2.690324e+003;3.566279e-002
2.692253e+003;3.551972e-002
2.694182e+003;3.528401e-002
2.696110e+003;3.551735e-002
2.698039e+003;3.556309e-002
2.699967e+003;3.524297e-002
2.701896e+003;3.513115e-002
2.703824e+003;3.522748e-002
2.705753e+003;3.527121e-002
2.707681e+003;3.534622e-002
2.709610e+003;3.551526e-002
2.711539e+003;3.525971e-002
2.713467e+003;3.502325e-002
2.715396e+003;3.508513e-002
2.717324e+003;3.506003e-002
2.719253e+003;3.500967e-002
2.721181e+003;3.489680e-002
2.723110e+003;3.501685e-002
2.725038e+003;3.494255e-002
2.726967e+003;3.474107e-002
2.728896e+003;3.494126e-002
2.730824e+003;3.527204e-002
2.732752e+003;3.505924e-002
2.734681e+003;3.482287e-002
2.736610e+003;3.468504e-002
2.738538e+003;3.455127e-002
2.740467e+003;3.468644e-002
2.742395e+003;3.477944e-002
2.744324e+003;3.456070e-002
2.746252e+003;3.464746e-002
2.748181e+003;3.486334e-002
2.750109e+003;3.496916e-002
2.752038e+003;3.499135e-002
2.753967e+003;3.487034e-002
2.755895e+003;3.477143e-002
2.757824e+003;3.492729e-002
2.759752e+003;3.508208e-002
2.761681e+003;3.476372e-002
2.763609e+003;3.427478e-002
2.765538e+003;3.446366e-002
2.767466e+003;3.513654e-002
2.769395e+003;3.518738e-002
2.771323e+003;3.478026e-002
2.773252e+003;3.477280e-002
2.775181e+003;3.498787e-002
2.777109e+003;3.504135e-002
2.779038e+003;3.506049e-002
2.780966e+003;3.531704e-002
2.782895e+003;3.565393e-002
2.784823e+003;3.558114e-002
2.786752e+003;3.528347e-002
2.788680e+003;3.528767e-002
2.790609e+003;3.564728e-002
2.792538e+003;3.587121e-002
2.794466e+003;3.607782e-002
2.796395e+003;3.608855e-002
2.798323e+003;3.616229e-002
2.800252e+003;3.660110e-002
2.802180e+003;3.685931e-002
2.804109e+003;3.708462e-002
2.806037e+003;3.704175e-002
2.807966e+003;3.685184e-002
2.809895e+003;3.671109e-002
2.811823e+003;3.688550e-002
2.813751e+003;3.733990e-002
2.815680e+003;3.736850e-002
2.817609e+003;3.718362e-002
2.819537e+003;3.740047e-002
2.821466e+003;3.743210e-002
2.823394e+003;3.719058e-002
2.825323e+003;3.721246e-002
2.827251e+003;3.747624e-002
2.829180e+003;3.755994e-002
2.831108e+003;3.800294e-002
2.833037e+003;3.860219e-002
2.834966e+003;3.868104e-002
2.836894e+003;3.874620e-002
2.838823e+003;3.916518e-002
2.840751e+003;3.995406e-002
2.842680e+003;4.107150e-002
2.844608e+003;4.192326e-002
2.846537e+003;4.302244e-002
2.848465e+003;4.421505e-002
2.850394e+003;4.471704e-002
2.852323e+003;4.464690e-002
2.854251e+003;4.469732e-002
2.856180e+003;4.475120e-002
2.858108e+003;4.464033e-002
2.860037e+003;4.496583e-002
2.861965e+003;4.481868e-002
2.863894e+003;4.447350e-002
2.865822e+003;4.465112e-002
2.867751e+003;4.504837e-002
2.869679e+003;4.515608e-002
2.871608e+003;4.482970e-002
2.873536e+003;4.455345e-002
2.875465e+003;4.426575e-002
2.877394e+003;4.418713e-002
2.879322e+003;4.417755e-002
2.881251e+003;4.372752e-002
2.883179e+003;4.338214e-002
2.885108e+003;4.344413e-002
2.887036e+003;4.396459e-002
2.888965e+003;4.432677e-002
2.890893e+003;4.448565e-002
2.892822e+003;4.495617e-002
2.894750e+003;4.546292e-002
2.896679e+003;4.586825e-002
2.898608e+003;4.605013e-002
2.900536e+003;4.632958e-002
2.902465e+003;4.665159e-002
2.904393e+003;4.714770e-002
2.906322e+003;4.801836e-002
2.908250e+003;4.899824e-002
2.910179e+003;5.004909e-002
2.912107e+003;5.110148e-002
2.914036e+003;5.306396e-002
2.915965e+003;5.468394e-002
2.917893e+003;5.461363e-002
2.919822e+003;5.423269e-002
2.921750e+003;5.431562e-002
2.923679e+003;5.461228e-002
2.925607e+003;5.468552e-002
2.927536e+003;5.452317e-002
2.929464e+003;5.446141e-002
2.931393e+003;5.424192e-002
2.933322e+003;5.365419e-002
2.935250e+003;5.351707e-002
2.937178e+003;5.340262e-002
2.939107e+003;5.278500e-002
2.941036e+003;5.209156e-002
2.942964e+003;5.155814e-002
2.944893e+003;5.092399e-002
2.946821e+003;5.026468e-002
2.948750e+003;4.971046e-002
2.950678e+003;4.886900e-002
2.952607e+003;4.779659e-002
2.954535e+003;4.701036e-002
2.956464e+003;4.611530e-002
2.958393e+003;4.443463e-002
2.960321e+003;4.319025e-002
2.962250e+003;4.274540e-002
2.964178e+003;4.251458e-002
2.966107e+003;4.264564e-002
2.968035e+003;4.280332e-002
2.969964e+003;4.302847e-002
2.971892e+003;4.306334e-002
2.973821e+003;4.302994e-002
2.975750e+003;4.304282e-002
2.977678e+003;4.313224e-002
2.979607e+003;4.344977e-002
2.981535e+003;4.379861e-002
2.983464e+003;4.376270e-002
2.985392e+003;4.341085e-002
2.987321e+003;4.330046e-002
2.989249e+003;4.321649e-002
2.991178e+003;4.300817e-002
2.993106e+003;4.285213e-002
2.995035e+003;4.258993e-002
2.996964e+003;4.223370e-002
2.998892e+003;4.236109e-002
3.000821e+003;4.260203e-002
3.002749e+003;4.224557e-002
3.004678e+003;4.179869e-002
3.006606e+003;4.161895e-002
3.008535e+003;4.145357e-002
3.010463e+003;4.131208e-002
3.012392e+003;4.093702e-002
3.014321e+003;4.045413e-002
3.016249e+003;3.987299e-002
3.018177e+003;3.966180e-002
3.020106e+003;3.980958e-002
3.022035e+003;3.975874e-002
3.023963e+003;3.931314e-002
3.025892e+003;3.912283e-002
3.027820e+003;3.936121e-002
3.029749e+003;3.932834e-002
3.031677e+003;3.912674e-002
3.033606e+003;3.878891e-002
3.035534e+003;3.826607e-002
3.037463e+003;3.828702e-002
3.039392e+003;3.834942e-002
3.041320e+003;3.810960e-002
3.043249e+003;3.808363e-002
3.045177e+003;3.802200e-002
3.047106e+003;3.807744e-002
3.049034e+003;3.791055e-002
3.050963e+003;3.783025e-002
3.052891e+003;3.796048e-002
3.054820e+003;3.747656e-002
3.056749e+003;3.683529e-002
3.058677e+003;3.660697e-002
3.060606e+003;3.695642e-002
3.062534e+003;3.734547e-002
3.064463e+003;3.753056e-002
3.066391e+003;3.710981e-002
3.068320e+003;3.657449e-002
3.070248e+003;3.660643e-002
3.072177e+003;3.648176e-002
3.074105e+003;3.631065e-002
3.076034e+003;3.631303e-002
3.077963e+003;3.591231e-002
3.079891e+003;3.563354e-002
3.081820e+003;3.605197e-002
3.083748e+003;3.632758e-002
3.085677e+003;3.583954e-002
3.087605e+003;3.532300e-002
3.089534e+003;3.551472e-002
3.091462e+003;3.583749e-002
3.093391e+003;3.568735e-002
3.095320e+003;3.577096e-002
3.097248e+003;3.591328e-002
3.099177e+003;3.541495e-002
3.101105e+003;3.495530e-002
3.103034e+003;3.456264e-002
3.104962e+003;3.457100e-002
3.106891e+003;3.481530e-002
3.108819e+003;3.492122e-002
3.110748e+003;3.498676e-002
3.112677e+003;3.541721e-002
3.114605e+003;3.555284e-002
3.116533e+003;3.495171e-002
3.118462e+003;3.443411e-002
3.120391e+003;3.428238e-002
3.122319e+003;3.423139e-002
3.124248e+003;3.428686e-002
3.126176e+003;3.442127e-002
3.128105e+003;3.462421e-002
3.130033e+003;3.445125e-002
3.131962e+003;3.384186e-002
3.133890e+003;3.338780e-002
3.135819e+003;3.353718e-002
3.137748e+003;3.387947e-002
3.139676e+003;3.403400e-002
3.141605e+003;3.382983e-002
3.143533e+003;3.356210e-002
3.145462e+003;3.357641e-002
3.147390e+003;3.352666e-002
3.149319e+003;3.343328e-002
3.151247e+003;3.321952e-002
3.153176e+003;3.291417e-002
3.155104e+003;3.301912e-002
3.157033e+003;3.336952e-002
3.158962e+003;3.379415e-002
3.160890e+003;3.364737e-002
3.162819e+003;3.331038e-002
3.164747e+003;3.292839e-002
3.166676e+003;3.254221e-002
3.168604e+003;3.267376e-002
3.170533e+003;3.295145e-002
3.172461e+003;3.313479e-002
3.174390e+003;3.281431e-002
3.176319e+003;3.292242e-002
3.178247e+003;3.358501e-002
3.180176e+003;3.385622e-002
3.182104e+003;3.365554e-002
3.184033e+003;3.332265e-002
3.185961e+003;3.329986e-002
3.187890e+003;3.328291e-002
3.189818e+003;3.328541e-002
3.191747e+003;3.339117e-002
3.193676e+003;3.329861e-002
3.195604e+003;3.301072e-002
3.197532e+003;3.293969e-002
3.199461e+003;3.345679e-002
3.201390e+003;3.359360e-002
3.203318e+003;3.329360e-002
3.205247e+003;3.332916e-002
3.207175e+003;3.349001e-002
3.209104e+003;3.377743e-002
3.211032e+003;3.373538e-002
3.212961e+003;3.325751e-002
3.214889e+003;3.305899e-002
3.216818e+003;3.335667e-002
3.218747e+003;3.347591e-002
3.220675e+003;3.353808e-002
3.222604e+003;3.356385e-002
3.224532e+003;3.335750e-002
3.226461e+003;3.338065e-002
3.228389e+003;3.373051e-002
3.230318e+003;3.397961e-002
3.232246e+003;3.378266e-002
3.234175e+003;3.330777e-002
3.236104e+003;3.295567e-002
3.238032e+003;3.317878e-002
3.239961e+003;3.340820e-002
3.241889e+003;3.330702e-002
3.243818e+003;3.322410e-002
3.245746e+003;3.310719e-002
3.247675e+003;3.330666e-002
3.249603e+003;3.354399e-002
3.251532e+003;3.359843e-002
3.253460e+003;3.333328e-002
3.255389e+003;3.324431e-002
3.257318e+003;3.332666e-002
3.259246e+003;3.319523e-002
3.261175e+003;3.326816e-002
3.263103e+003;3.317231e-002
3.265032e+003;3.298455e-002
3.266960e+003;3.299213e-002
3.268889e+003;3.280116e-002
3.270817e+003;3.298180e-002
3.272746e+003;3.308630e-002
3.274675e+003;3.291585e-002
3.276603e+003;3.287085e-002
3.278531e+003;3.281914e-002
3.280460e+003;3.299070e-002
3.282389e+003;3.335782e-002
3.284317e+003;3.344459e-002
3.286246e+003;3.337206e-002
3.288174e+003;3.336501e-002
3.290103e+003;3.319284e-002
3.292031e+003;3.298977e-002
3.293960e+003;3.270452e-002
3.295888e+003;3.253471e-002
3.297817e+003;3.243666e-002
3.299746e+003;3.245712e-002
3.301674e+003;3.234402e-002
3.303603e+003;3.231196e-002
3.305531e+003;3.248461e-002
3.307460e+003;3.235761e-002
3.309388e+003;3.223120e-002
3.311317e+003;3.230846e-002
3.313245e+003;3.248457e-002
3.315174e+003;3.264418e-002
3.317103e+003;3.290523e-002
3.319031e+003;3.270591e-002
3.320960e+003;3.232128e-002
3.322888e+003;3.230539e-002
3.324817e+003;3.248300e-002
3.326745e+003;3.249814e-002
3.328674e+003;3.243262e-002
3.330602e+003;3.208637e-002
3.332531e+003;3.231257e-002
3.334459e+003;3.274982e-002
3.336388e+003;3.230579e-002
3.338317e+003;3.181500e-002
3.340245e+003;3.208829e-002
3.342174e+003;3.235515e-002
3.344102e+003;3.217624e-002
3.346031e+003;3.204995e-002
3.347959e+003;3.181140e-002
3.349888e+003;3.162267e-002
3.351816e+003;3.188828e-002
3.353745e+003;3.193991e-002
3.355674e+003;3.183686e-002
3.357602e+003;3.167277e-002
3.359531e+003;3.208287e-002
3.361459e+003;3.243466e-002
3.363388e+003;3.221003e-002
3.365316e+003;3.217060e-002
3.367245e+003;3.179629e-002
3.369173e+003;3.145884e-002
3.371102e+003;3.179575e-002
3.373031e+003;3.185290e-002
3.374959e+003;3.186014e-002
3.376887e+003;3.180074e-002
3.378816e+003;3.173551e-002
3.380745e+003;3.177286e-002
3.382673e+003;3.138749e-002
3.384602e+003;3.095214e-002
3.386530e+003;3.129048e-002
3.388459e+003;3.169437e-002
3.390387e+003;3.173069e-002
3.392316e+003;3.156227e-002
3.394244e+003;3.171818e-002
3.396173e+003;3.133695e-002
3.398102e+003;3.085904e-002
3.400030e+003;3.097513e-002
3.401959e+003;3.143084e-002
3.403887e+003;3.163033e-002
3.405816e+003;3.153376e-002
3.407744e+003;3.143109e-002
3.409673e+003;3.132442e-002
3.411601e+003;3.073152e-002
3.413530e+003;3.053703e-002
3.415458e+003;3.122856e-002
3.417387e+003;3.180024e-002
3.419316e+003;3.187145e-002
3.421244e+003;3.144993e-002
3.423173e+003;3.105812e-002
3.425101e+003;3.127784e-002
3.427030e+003;3.163685e-002
3.428958e+003;3.214509e-002
3.430887e+003;3.246090e-002
3.432815e+003;3.178962e-002
3.434744e+003;3.118598e-002
3.436673e+003;3.159790e-002
3.438601e+003;3.206510e-002
3.440530e+003;3.197500e-002
3.442458e+003;3.172916e-002
3.444387e+003;3.160784e-002
3.446315e+003;3.142372e-002
3.448244e+003;3.147195e-002
3.450172e+003;3.186117e-002
3.452101e+003;3.191809e-002
3.454030e+003;3.196238e-002
3.455958e+003;3.226810e-002
3.457886e+003;3.254964e-002
3.459815e+003;3.242441e-002
3.461744e+003;3.219265e-002
3.463672e+003;3.212115e-002
3.465601e+003;3.212087e-002
3.467529e+003;3.207592e-002
3.469458e+003;3.192372e-002
3.471386e+003;3.203949e-002
3.473315e+003;3.166461e-002
3.475243e+003;3.172638e-002
3.477172e+003;3.195546e-002
3.479101e+003;3.161917e-002
3.481029e+003;3.173216e-002
3.482958e+003;3.206129e-002
3.484886e+003;3.194348e-002
3.486815e+003;3.181115e-002
3.488743e+003;3.162096e-002
3.490672e+003;3.165976e-002
3.492600e+003;3.205233e-002
3.494529e+003;3.253924e-002
3.496458e+003;3.260832e-002
3.498386e+003;3.253042e-002
3.500315e+003;3.263736e-002
3.502243e+003;3.241973e-002
3.504172e+003;3.257849e-002
3.506100e+003;3.276179e-002
3.508029e+003;3.256392e-002
3.509957e+003;3.273224e-002
3.511886e+003;3.314842e-002
3.513814e+003;3.324731e-002
3.515743e+003;3.311809e-002
3.517672e+003;3.316905e-002
3.519600e+003;3.324069e-002
3.521529e+003;3.349359e-002
3.523457e+003;3.369048e-002
3.525386e+003;3.327171e-002
3.527314e+003;3.300035e-002
3.529243e+003;3.341711e-002
3.531171e+003;3.387493e-002
3.533100e+003;3.391730e-002
3.535029e+003;3.363233e-002
3.536957e+003;3.339621e-002
3.538885e+003;3.349685e-002
3.540814e+003;3.377059e-002
3.542743e+003;3.370416e-002
3.544671e+003;3.325368e-002
3.546600e+003;3.355590e-002
3.548528e+003;3.362747e-002
3.550457e+003;3.284758e-002
3.552385e+003;3.274489e-002
3.554314e+003;3.313611e-002
3.556242e+003;3.319541e-002
3.558171e+003;3.342999e-002
3.560100e+003;3.357799e-002
3.562028e+003;3.338576e-002
3.563957e+003;3.307232e-002
3.565885e+003;3.243612e-002
3.567814e+003;3.260693e-002
3.569742e+003;3.312138e-002
3.571671e+003;3.350218e-002
3.573599e+003;3.359904e-002
3.575528e+003;3.365783e-002
3.577457e+003;3.354001e-002
3.579385e+003;3.311663e-002
3.581314e+003;3.274507e-002
3.583242e+003;3.262439e-002
3.585171e+003;3.222103e-002
3.587099e+003;3.127581e-002
3.589028e+003;3.135134e-002
3.590956e+003;3.288275e-002
3.592885e+003;3.321129e-002
3.594813e+003;3.290738e-002
3.596742e+003;3.318018e-002
3.598671e+003;3.338462e-002
3.600599e+003;3.341471e-002
3.602528e+003;3.335109e-002
3.604456e+003;3.293719e-002
3.606385e+003;3.224536e-002
3.608313e+003;3.199006e-002
3.610242e+003;3.245929e-002
3.612170e+003;3.259632e-002
3.614099e+003;3.257107e-002
3.616028e+003;3.228541e-002
3.617956e+003;3.167220e-002
3.619885e+003;3.203682e-002
3.621813e+003;3.308713e-002
3.623742e+003;3.333152e-002
3.625670e+003;3.250918e-002
3.627599e+003;3.006674e-002
3.629527e+003;3.001519e-002
3.631456e+003;3.243698e-002
3.633385e+003;3.324173e-002
3.635313e+003;3.309818e-002
3.637241e+003;3.305970e-002
3.639170e+003;3.318386e-002
3.641099e+003;3.331256e-002
3.643027e+003;3.324395e-002
3.644956e+003;3.224244e-002
3.646884e+003;3.041455e-002
3.648813e+003;2.891376e-002
3.650741e+003;2.965053e-002
3.652670e+003;3.140081e-002
3.654598e+003;3.121435e-002
3.656527e+003;3.066790e-002
3.658456e+003;3.163507e-002
3.660384e+003;3.202901e-002
3.662313e+003;3.168942e-002
3.664241e+003;3.128681e-002
3.666170e+003;3.060380e-002
3.668098e+003;2.858333e-002
3.670027e+003;2.705897e-002
3.671955e+003;2.799497e-002
3.673884e+003;2.670845e-002
3.675813e+003;2.558728e-002
3.677741e+003;2.807340e-002
3.679669e+003;2.959058e-002
3.681598e+003;2.997890e-002
3.683527e+003;2.975019e-002
3.685455e+003;2.849720e-002
3.687384e+003;2.587367e-002
3.689312e+003;2.571143e-002
3.691241e+003;2.761795e-002
3.693169e+003;2.927065e-002
3.695098e+003;2.940734e-002
3.697026e+003;2.907507e-002
3.698955e+003;2.855325e-002
3.700884e+003;2.786812e-002
3.702812e+003;2.886171e-002
3.704741e+003;2.948163e-002
3.706669e+003;2.853796e-002
3.708598e+003;2.691350e-002
3.710526e+003;2.536642e-002
3.712455e+003;2.553629e-002
3.714383e+003;2.778620e-002
3.716312e+003;2.884011e-002
3.718240e+003;2.835775e-002
3.720169e+003;2.801003e-002
3.722098e+003;2.779323e-002
3.724026e+003;2.763673e-002
3.725955e+003;2.759800e-002
3.727883e+003;2.802904e-002
3.729812e+003;2.744684e-002
3.731740e+003;2.590100e-002
3.733669e+003;2.545874e-002
3.735597e+003;2.549363e-002
3.737526e+003;2.685463e-002
3.739455e+003;2.804480e-002
3.741383e+003;2.676335e-002
3.743312e+003;2.263289e-002
3.745240e+003;2.287783e-002
3.747169e+003;2.510793e-002
3.749097e+003;2.343536e-002
3.751026e+003;2.263278e-002
3.752954e+003;2.472954e-002
3.754883e+003;2.730776e-002
3.756812e+003;2.736440e-002
3.758740e+003;2.697533e-002
3.760668e+003;2.721137e-002
3.762597e+003;2.778535e-002
3.764526e+003;2.750819e-002
3.766454e+003;2.773445e-002
3.768383e+003;2.723505e-002
3.770311e+003;2.737791e-002
3.772240e+003;2.854093e-002
3.774168e+003;2.876519e-002
3.776097e+003;2.831757e-002
3.778025e+003;2.761265e-002
3.779954e+003;2.738299e-002
3.781883e+003;2.803979e-002
3.783811e+003;2.851355e-002
3.785740e+003;2.878009e-002
3.787668e+003;2.880969e-002
3.789597e+003;2.871524e-002
3.791525e+003;2.865195e-002
3.793454e+003;2.835481e-002
3.795382e+003;2.773265e-002
3.797311e+003;2.775571e-002
3.799240e+003;2.617531e-002
3.801168e+003;2.479198e-002
3.803097e+003;2.644560e-002
3.805025e+003;2.682425e-002
3.806954e+003;2.630578e-002
3.808882e+003;2.813385e-002
3.810811e+003;2.910650e-002
3.812739e+003;2.849734e-002
3.814668e+003;2.617544e-002
3.816596e+003;2.579103e-002
3.818525e+003;2.648655e-002
3.820454e+003;2.535212e-002
3.822382e+003;2.648617e-002
3.824311e+003;2.766707e-002
3.826239e+003;2.729710e-002
3.828168e+003;2.742767e-002
3.830096e+003;2.734869e-002
3.832025e+003;2.689534e-002
3.833953e+003;2.640031e-002
3.835882e+003;2.517548e-002
3.837811e+003;2.435787e-002
3.839739e+003;2.564904e-002
3.841667e+003;2.712834e-002
3.843596e+003;2.797783e-002
3.845525e+003;2.841371e-002
3.847453e+003;2.858421e-002
3.849382e+003;2.744998e-002
3.851310e+003;2.355057e-002
3.853239e+003;2.059568e-002
3.855167e+003;2.406183e-002
3.857096e+003;2.805908e-002
3.859024e+003;2.835308e-002
3.860953e+003;2.744063e-002
3.862882e+003;2.701426e-002
3.864810e+003;2.724055e-002
3.866739e+003;2.757329e-002
3.868667e+003;2.649599e-002
3.870596e+003;2.670496e-002
3.872524e+003;2.778542e-002
3.874453e+003;2.792260e-002
3.876381e+003;2.868150e-002
3.878310e+003;2.870642e-002
3.880239e+003;2.802176e-002
3.882167e+003;2.748768e-002
3.884096e+003;2.623510e-002
3.886024e+003;2.663234e-002
3.887953e+003;2.825759e-002
3.889881e+003;2.792228e-002
3.891810e+003;2.791610e-002
3.893738e+003;2.860810e-002
3.895667e+003;2.877365e-002
3.897595e+003;2.781937e-002
3.899524e+003;2.699603e-002
3.901453e+003;2.713271e-002
3.903381e+003;2.715906e-002
3.905310e+003;2.757614e-002
3.907238e+003;2.841661e-002
3.909167e+003;2.875202e-002
3.911095e+003;2.866250e-002
3.913024e+003;2.837204e-002
3.914952e+003;2.770390e-002
3.916881e+003;2.738437e-002
3.918810e+003;2.797299e-002
3.920738e+003;2.846840e-002
3.922667e+003;2.844639e-002
3.924595e+003;2.821806e-002
3.926524e+003;2.874430e-002
3.928452e+003;2.909885e-002
3.930381e+003;2.866894e-002
3.932309e+003;2.828878e-002
3.934238e+003;2.839959e-002
3.936167e+003;2.838209e-002
3.938095e+003;2.841594e-002
3.940023e+003;2.872349e-002
3.941952e+003;2.871556e-002
3.943881e+003;2.887382e-002
3.945809e+003;2.907213e-002
3.947738e+003;2.853435e-002
3.949666e+003;2.795416e-002
3.951595e+003;2.862218e-002
3.953523e+003;2.968412e-002
3.955452e+003;3.007338e-002
3.957380e+003;2.992462e-002
3.959309e+003;2.923921e-002
3.961238e+003;2.878116e-002
3.963166e+003;2.884092e-002
3.965095e+003;2.916096e-002
3.967023e+003;2.917957e-002
3.968952e+003;2.918956e-002
3.970880e+003;2.926522e-002
3.972809e+003;2.907805e-002
3.974737e+003;2.886575e-002
3.976666e+003;2.917528e-002
3.978594e+003;2.916273e-002
3.980523e+003;2.910880e-002
3.982452e+003;2.950106e-002
3.984380e+003;2.954358e-002
3.986309e+003;2.978628e-002
3.988237e+003;3.013631e-002
3.990166e+003;2.997478e-002
3.992094e+003;2.990382e-002
3.994023e+003;2.932538e-002
3.995951e+003;2.892003e-002
3.997880e+003;2.912687e-002
3.999809e+003;2.945407e-002
4.001737e+003;0.000000e+000
