3.992094e+002;0.000000e+000
4.011380e+002;0.000000e+000
4.030665e+002;0.000000e+000
4.049951e+002;0.000000e+000
4.069236e+002;0.000000e+000
4.088522e+002;0.000000e+000
4.107807e+002;0.000000e+000
4.127093e+002;0.000000e+000
4.146378e+002;0.000000e+000
4.165664e+002;0.000000e+000
4.184949e+002;0.000000e+000
4.204235e+002;0.000000e+000
4.223520e+002;0.000000e+000
4.242806e+002;0.000000e+000
4.262091e+002;0.000000e+000
4.281377e+002;0.000000e+000
4.300662e+002;0.000000e+000
4.319948e+002;0.000000e+000
4.339233e+002;0.000000e+000
4.358519e+002;0.000000e+000
4.377804e+002;0.000000e+000
4.397090e+002;0.000000e+000
4.416375e+002;0.000000e+000
4.435660e+002;0.000000e+000
4.454946e+002;0.000000e+000
4.474232e+002;0.000000e+000
4.493517e+002;0.000000e+000
4.512802e+002;0.000000e+000
4.532088e+002;0.000000e+000
4.551373e+002;0.000000e+000
4.570659e+002;0.000000e+000
4.589944e+002;0.000000e+000
4.609230e+002;0.000000e+000
4.628515e+002;0.000000e+000
4.647801e+002;0.000000e+000
4.667086e+002;0.000000e+000
4.686372e+002;0.000000e+000
4.705657e+002;0.000000e+000
4.724943e+002;0.000000e+000
4.744228e+002;0.000000e+000
4.763513e+002;0.000000e+000
4.782799e+002;0.000000e+000
4.802085e+002;0.000000e+000
4.821370e+002;0.000000e+000
4.840656e+002;0.000000e+000
4.859941e+002;0.000000e+000
4.879226e+002;0.000000e+000
4.898512e+002;0.000000e+000
4.917798e+002;0.000000e+000
4.937083e+002;0.000000e+000
4.956368e+002;0.000000e+000
4.975654e+002;0.000000e+000
4.994939e+002;0.000000e+000
5.014225e+002;0.000000e+000
5.033510e+002;0.000000e+000
5.052796e+002;0.000000e+000
5.072081e+002;0.000000e+000
5.091367e+002;0.000000e+000
5.110652e+002;0.000000e+000
5.129938e+002;0.000000e+000
5.149223e+002;0.000000e+000
5.168509e+002;0.000000e+000
5.187794e+002;0.000000e+000
5.207079e+002;0.000000e+000
5.226365e+002;0.000000e+000
5.245651e+002;0.000000e+000
5.264936e+002;0.000000e+000
5.284222e+002;0.000000e+000
5.303507e+002;0.000000e+000
5.322792e+002;0.000000e+000
5.342078e+002;0.000000e+000
5.361364e+002;0.000000e+000
5.380649e+002;0.000000e+000
5.399935e+002;0.000000e+000
5.419220e+002;0.000000e+000
5.438505e+002;0.000000e+000
5.457791e+002;0.000000e+000
5.477076e+002;0.000000e+000
5.496362e+002;0.000000e+000
5.515648e+002;0.000000e+000
5.534933e+002;0.000000e+000
5.554218e+002;0.000000e+000
5.573504e+002;0.000000e+000
5.592789e+002;0.000000e+000
5.612075e+002;0.000000e+000
5.631360e+002;0.000000e+000
5.650646e+002;0.000000e+000
5.669931e+002;0.000000e+000
5.689217e+002;0.000000e+000
5.708502e+002;0.000000e+000
5.727787e+002;0.000000e+000
5.747073e+002;0.000000e+000
5.766359e+002;0.000000e+000
5.785644e+002;0.000000e+000
5.804930e+002;0.000000e+000
5.824215e+002;0.000000e+000
5.843500e+002;0.000000e+000
5.862786e+002;0.000000e+000
5.882072e+002;0.000000e+000
5.901357e+002;0.000000e+000
5.920643e+002;0.000000e+000
5.939928e+002;0.000000e+000
5.959213e+002;0.000000e+000
5.978499e+002;0.000000e+000
5.997784e+002;7.718000e-002
6.017070e+002;7.987920e-002
6.036355e+002;7.493488e-002
6.055641e+002;7.319859e-002
6.074926e+002;7.376819e-002
6.094211e+002;7.015627e-002
6.113497e+002;6.763835e-002
6.132783e+002;6.771824e-002
6.152068e+002;6.704034e-002
6.171354e+002;6.995872e-002
6.190639e+002;7.176588e-002
6.209924e+002;6.856327e-002
6.229210e+002;6.725615e-002
6.248495e+002;6.922042e-002
6.267781e+002;7.213503e-002
6.287067e+002;7.203344e-002
6.306352e+002;7.291467e-002
6.325637e+002;7.253797e-002
6.344923e+002;7.001563e-002
6.364208e+002;6.863280e-002
6.383494e+002;7.024153e-002
6.402780e+002;7.008380e-002
6.422065e+002;7.033291e-002
6.441350e+002;7.474679e-002
6.460636e+002;7.559798e-002
6.479921e+002;7.035387e-002
6.499207e+002;6.713478e-002
6.518492e+002;6.757684e-002
6.537778e+002;6.733871e-002
6.557063e+002;6.400824e-002
6.576349e+002;6.108169e-002
6.595634e+002;6.284418e-002
6.614919e+002;6.688772e-002
6.634205e+002;6.897479e-002
6.653491e+002;6.945049e-002
6.672776e+002;6.885394e-002
6.692062e+002;6.867383e-002
6.711347e+002;6.917698e-002
6.730632e+002;7.034117e-002
6.749918e+002;6.966769e-002
6.769203e+002;6.922221e-002
6.788489e+002;6.867018e-002
6.807775e+002;6.657024e-002
6.827060e+002;6.509973e-002
6.846345e+002;6.491417e-002
6.865631e+002;6.519182e-002
6.884916e+002;6.581856e-002
6.904202e+002;6.604895e-002
6.923488e+002;6.540585e-002
6.942773e+002;6.451224e-002
6.962058e+002;6.505285e-002
6.981344e+002;6.474452e-002
7.000629e+002;6.364769e-002
7.019915e+002;6.276714e-002
7.039200e+002;6.212311e-002
7.058486e+002;6.244187e-002
7.077771e+002;6.258080e-002
7.097057e+002;6.385998e-002
7.116342e+002;6.532024e-002
7.135627e+002;6.578112e-002
7.154913e+002;6.580799e-002
7.174199e+002;6.580957e-002
7.193484e+002;6.608278e-002
7.212770e+002;6.574118e-002
7.232055e+002;6.555314e-002
7.251340e+002;6.692239e-002
7.270626e+002;6.873950e-002
7.289911e+002;6.880230e-002
7.309197e+002;6.836373e-002
7.328483e+002;6.818548e-002
7.347768e+002;6.831494e-002
7.367053e+002;6.861495e-002
7.386339e+002;6.890729e-002
7.405624e+002;6.916715e-002
7.424910e+002;6.964085e-002
7.444196e+002;6.945543e-002
7.463481e+002;6.976604e-002
7.482766e+002;7.051789e-002
7.502052e+002;7.070369e-002
7.521337e+002;7.094508e-002
7.540623e+002;7.106420e-002
7.559908e+002;7.147732e-002
7.579194e+002;7.165200e-002
7.598479e+002;7.120483e-002
7.617765e+002;7.145783e-002
7.637050e+002;7.190631e-002
7.656335e+002;7.151876e-002
7.675621e+002;7.107946e-002
7.694907e+002;7.047556e-002
7.714192e+002;6.981518e-002
7.733478e+002;6.904683e-002
7.752763e+002;6.781851e-002
7.772048e+002;6.687168e-002
7.791334e+002;6.532713e-002
7.810620e+002;6.359591e-002
7.829905e+002;6.137701e-002
7.849191e+002;5.894251e-002
7.868476e+002;5.633594e-002
7.887761e+002;5.271983e-002
7.907047e+002;4.955593e-002
7.926332e+002;4.698972e-002
7.945618e+002;4.476685e-002
7.964903e+002;4.340931e-002
7.984189e+002;4.208999e-002
8.003474e+002;4.159700e-002
8.022759e+002;4.198632e-002
8.042045e+002;4.297521e-002
8.061331e+002;4.408634e-002
8.080616e+002;4.499299e-002
8.099902e+002;4.674387e-002
8.119187e+002;4.846057e-002
8.138472e+002;4.940202e-002
8.157758e+002;4.984323e-002
8.177043e+002;5.086296e-002
8.196329e+002;5.270689e-002
8.215615e+002;5.498736e-002
8.234900e+002;5.746307e-002
8.254185e+002;6.036301e-002
8.273471e+002;6.285643e-002
8.292756e+002;6.445577e-002
8.312042e+002;6.586707e-002
8.331328e+002;6.716613e-002
8.350613e+002;6.808822e-002
8.369898e+002;6.794732e-002
8.389184e+002;6.733793e-002
8.408469e+002;6.751138e-002
8.427755e+002;6.748119e-002
8.447040e+002;6.624790e-002
8.466326e+002;6.475679e-002
8.485611e+002;6.400658e-002
8.504897e+002;6.366941e-002
8.524182e+002;6.398431e-002
8.543467e+002;6.362985e-002
8.562753e+002;6.309491e-002
8.582039e+002;6.333552e-002
8.601324e+002;6.286868e-002
8.620610e+002;6.214475e-002
8.639895e+002;6.249880e-002
8.659180e+002;6.287313e-002
8.678466e+002;6.254223e-002
8.697751e+002;6.230894e-002
8.717037e+002;6.222684e-002
8.736323e+002;6.215763e-002
8.755608e+002;6.252068e-002
8.774893e+002;6.290181e-002
8.794179e+002;6.278877e-002
8.813464e+002;6.278843e-002
8.832750e+002;6.311683e-002
8.852036e+002;6.355068e-002
8.871321e+002;6.397971e-002
8.890606e+002;6.446746e-002
8.909892e+002;6.464661e-002
8.929177e+002;6.414944e-002
8.948463e+002;6.429238e-002
8.967748e+002;6.413361e-002
8.987034e+002;6.405646e-002
9.006319e+002;6.456172e-002
9.025605e+002;6.495760e-002
9.044890e+002;6.526278e-002
9.064175e+002;6.526717e-002
9.083461e+002;6.522135e-002
9.102747e+002;6.545863e-002
9.122032e+002;6.567693e-002
9.141318e+002;6.591789e-002
9.160603e+002;6.631830e-002
9.179888e+002;6.623227e-002
9.199174e+002;6.630317e-002
9.218459e+002;6.661466e-002
9.237745e+002;6.632169e-002
9.257031e+002;6.617743e-002
9.276316e+002;6.628248e-002
9.295601e+002;6.612287e-002
9.314887e+002;6.635880e-002
9.334172e+002;6.689645e-002
9.353458e+002;6.690589e-002
9.372744e+002;6.718490e-002
9.392029e+002;6.802467e-002
9.411314e+002;6.832882e-002
9.430600e+002;6.833863e-002
9.449885e+002;6.832734e-002
9.469171e+002;6.865916e-002
9.488456e+002;6.914446e-002
9.507742e+002;6.942363e-002
9.527027e+002;6.919093e-002
9.546313e+002;6.904835e-002
9.565598e+002;6.954242e-002
9.584883e+002;6.955715e-002
9.604169e+002;6.914477e-002
9.623455e+002;6.880262e-002
9.642740e+002;6.856474e-002
9.662026e+002;6.841224e-002
9.681311e+002;6.815912e-002
9.700596e+002;6.802947e-002
9.719882e+002;6.806908e-002
9.739167e+002;6.754266e-002
9.758453e+002;6.700929e-002
9.777739e+002;6.658279e-002
9.797024e+002;6.609672e-002
9.816309e+002;6.604907e-002
9.835595e+002;6.627820e-002
9.854880e+002;6.627847e-002
9.874166e+002;6.606296e-002
9.893452e+002;6.546845e-002
9.912737e+002;6.480917e-002
9.932022e+002;6.458659e-002
9.951307e+002;6.395990e-002
9.970593e+002;6.299753e-002
9.989879e+002;6.229731e-002
1.000916e+003;6.145129e-002
1.002845e+003;6.027057e-002
1.004773e+003;5.900066e-002
1.006702e+003;5.687229e-002
1.008631e+003;5.446002e-002
1.010559e+003;5.250832e-002
1.012488e+003;5.098513e-002
1.014416e+003;4.974405e-002
1.016345e+003;4.886993e-002
1.018273e+003;4.869861e-002
1.020202e+003;4.897291e-002
1.022130e+003;4.935116e-002
1.024059e+003;5.011487e-002
1.025988e+003;5.101144e-002
1.027916e+003;5.260028e-002
1.029845e+003;5.464490e-002
1.031773e+003;5.653721e-002
1.033702e+003;5.801410e-002
1.035630e+003;5.914810e-002
1.037559e+003;5.993385e-002
1.039487e+003;6.002591e-002
1.041416e+003;5.992171e-002
1.043344e+003;6.021926e-002
1.045273e+003;6.104947e-002
1.047202e+003;6.160197e-002
1.049130e+003;6.235021e-002
1.051059e+003;6.326418e-002
1.052987e+003;6.444532e-002
1.054916e+003;6.554905e-002
1.056844e+003;6.613032e-002
1.058773e+003;6.731591e-002
1.060701e+003;6.892597e-002
1.062630e+003;7.023957e-002
1.064558e+003;7.064076e-002
1.066487e+003;7.047537e-002
1.068416e+003;7.028951e-002
1.070344e+003;7.057811e-002
1.072273e+003;7.050323e-002
1.074201e+003;6.943350e-002
1.076130e+003;6.801928e-002
1.078058e+003;6.644697e-002
1.079987e+003;6.524822e-002
1.081915e+003;6.397840e-002
1.083844e+003;6.219980e-002
1.085773e+003;6.058713e-002
1.087701e+003;5.975682e-002
1.089630e+003;5.915102e-002
1.091558e+003;5.808462e-002
1.093487e+003;5.742412e-002
1.095415e+003;5.747888e-002
1.097344e+003;5.782468e-002
1.099272e+003;5.834153e-002
1.101201e+003;5.851081e-002
1.103129e+003;5.904860e-002
1.105058e+003;6.002777e-002
1.106987e+003;6.051087e-002
1.108915e+003;6.071488e-002
1.110844e+003;6.129741e-002
1.112772e+003;6.213098e-002
1.114701e+003;6.284869e-002
1.116629e+003;6.321957e-002
1.118558e+003;6.373563e-002
1.120486e+003;6.421939e-002
1.122415e+003;6.420752e-002
1.124344e+003;6.426229e-002
1.126272e+003;6.420102e-002
1.128201e+003;6.403292e-002
1.130129e+003;6.383702e-002
1.132058e+003;6.428032e-002
1.133986e+003;6.492628e-002
1.135915e+003;6.537897e-002
1.137843e+003;6.613977e-002
1.139772e+003;6.719697e-002
1.141700e+003;6.828120e-002
1.143629e+003;6.980406e-002
1.145557e+003;7.173813e-002
1.147486e+003;7.379147e-002
1.149415e+003;7.573042e-002
1.151343e+003;7.802450e-002
1.153272e+003;8.046019e-002
1.155200e+003;8.231220e-002
1.157129e+003;8.421133e-002
1.159057e+003;8.649129e-002
1.160986e+003;8.944683e-002
1.162914e+003;9.215514e-002
1.164843e+003;9.383816e-002
1.166771e+003;9.447108e-002
1.168700e+003;9.421972e-002
1.170629e+003;9.349251e-002
1.172557e+003;9.244853e-002
1.174486e+003;9.141158e-002
1.176414e+003;9.109369e-002
1.178343e+003;9.059153e-002
1.180271e+003;8.979786e-002
1.182200e+003;8.909892e-002
1.184128e+003;8.800375e-002
1.186057e+003;8.745817e-002
1.187986e+003;8.755630e-002
1.189914e+003;8.791291e-002
1.191843e+003;8.846154e-002
1.193771e+003;8.903201e-002
1.195700e+003;8.952899e-002
1.197628e+003;9.028365e-002
1.199557e+003;9.043892e-002
1.201485e+003;8.966734e-002
1.203414e+003;8.920718e-002
1.205343e+003;8.947744e-002
1.207271e+003;8.981885e-002
1.209200e+003;8.958951e-002
1.211128e+003;8.943832e-002
1.213057e+003;8.933366e-002
1.214985e+003;8.939024e-002
1.216914e+003;8.986163e-002
1.218842e+003;9.024613e-002
1.220771e+003;9.097727e-002
1.222699e+003;9.158993e-002
1.224628e+003;9.121798e-002
1.226557e+003;9.086200e-002
1.228485e+003;9.083757e-002
1.230414e+003;9.069624e-002
1.232342e+003;8.998680e-002
1.234271e+003;8.962274e-002
1.236199e+003;8.941975e-002
1.238128e+003;8.890468e-002
1.240056e+003;8.864257e-002
1.241985e+003;8.866854e-002
1.243913e+003;8.833230e-002
1.245842e+003;8.756647e-002
1.247771e+003;8.647390e-002
1.249699e+003;8.488411e-002
1.251628e+003;8.298426e-002
1.253556e+003;7.997308e-002
1.255485e+003;7.567444e-002
1.257413e+003;7.163500e-002
1.259342e+003;6.892395e-002
1.261270e+003;6.810784e-002
1.263199e+003;6.962922e-002
1.265127e+003;7.315451e-002
1.267056e+003;7.690261e-002
1.268985e+003;7.979876e-002
1.270913e+003;8.177097e-002
1.272842e+003;8.278283e-002
1.274770e+003;8.262498e-002
1.276699e+003;8.196080e-002
1.278627e+003;8.144215e-002
1.280556e+003;8.100806e-002
1.282484e+003;8.057877e-002
1.284413e+003;7.984945e-002
1.286342e+003;7.938096e-002
1.288270e+003;7.949745e-002
1.290199e+003;7.913372e-002
1.292127e+003;7.846493e-002
1.294056e+003;7.772957e-002
1.295984e+003;7.746050e-002
1.297913e+003;7.765333e-002
1.299841e+003;7.751662e-002
1.301770e+003;7.711450e-002
1.303698e+003;7.688358e-002
1.305627e+003;7.694979e-002
1.307556e+003;7.689524e-002
1.309484e+003;7.672734e-002
1.311413e+003;7.666946e-002
1.313341e+003;7.656535e-002
1.315270e+003;7.645502e-002
1.317198e+003;7.581950e-002
1.319127e+003;7.571685e-002
1.321055e+003;7.630426e-002
1.322984e+003;7.645103e-002
1.324912e+003;7.641388e-002
1.326841e+003;7.648319e-002
1.328770e+003;7.675949e-002
1.330698e+003;7.691371e-002
1.332627e+003;7.665329e-002
1.334555e+003;7.670821e-002
1.336484e+003;7.681295e-002
1.338412e+003;7.687429e-002
1.340341e+003;7.722108e-002
1.342269e+003;7.803513e-002
1.344198e+003;7.870182e-002
1.346126e+003;7.901610e-002
1.348055e+003;7.924760e-002
1.349984e+003;7.947258e-002
1.351912e+003;7.991974e-002
1.353841e+003;8.034623e-002
1.355769e+003;8.051243e-002
1.357698e+003;8.049672e-002
1.359626e+003;7.989712e-002
1.361555e+003;7.897147e-002
1.363483e+003;7.867176e-002
1.365412e+003;7.874881e-002
1.367341e+003;7.805496e-002
1.369269e+003;7.735579e-002
1.371198e+003;7.685301e-002
1.373126e+003;7.580703e-002
1.375055e+003;7.516320e-002
1.376983e+003;7.502983e-002
1.378912e+003;7.468650e-002
1.380840e+003;7.423310e-002
1.382769e+003;7.343940e-002
1.384698e+003;7.216602e-002
1.386626e+003;7.048765e-002
1.388555e+003;6.978172e-002
1.390483e+003;6.940205e-002
1.392412e+003;6.768269e-002
1.394340e+003;6.532878e-002
1.396269e+003;6.426610e-002
1.398197e+003;6.354009e-002
1.400126e+003;6.354750e-002
1.402054e+003;6.382378e-002
1.403983e+003;6.354784e-002
1.405911e+003;6.353848e-002
1.407840e+003;6.377953e-002
1.409769e+003;6.383403e-002
1.411697e+003;6.402121e-002
1.413626e+003;6.446312e-002
1.415554e+003;6.470506e-002
1.417483e+003;6.391340e-002
1.419411e+003;6.390116e-002
1.421340e+003;6.648713e-002
1.423268e+003;6.871271e-002
1.425197e+003;7.105651e-002
1.427125e+003;7.401019e-002
1.429054e+003;7.662013e-002
1.430983e+003;7.988768e-002
1.432911e+003;8.346032e-002
1.434840e+003;8.539125e-002
1.436768e+003;8.670189e-002
1.438697e+003;9.048986e-002
1.440625e+003;9.416127e-002
1.442554e+003;9.710091e-002
1.444482e+003;9.988051e-002
1.446411e+003;1.022431e-001
1.448340e+003;1.045841e-001
1.450268e+003;1.066471e-001
1.452197e+003;1.068280e-001
1.454125e+003;1.036649e-001
1.456054e+003;9.691167e-002
1.457982e+003;9.202596e-002
1.459911e+003;8.893424e-002
1.461839e+003;8.425719e-002
1.463768e+003;7.839762e-002
1.465697e+003;7.442592e-002
1.467625e+003;7.270955e-002
1.469554e+003;7.010051e-002
1.471482e+003;6.621232e-002
1.473411e+003;6.433968e-002
1.475339e+003;6.462496e-002
1.477268e+003;6.447368e-002
1.479196e+003;6.389724e-002
1.481125e+003;6.348782e-002
1.483053e+003;6.338882e-002
1.484982e+003;6.271415e-002
1.486911e+003;6.154466e-002
1.488839e+003;6.021869e-002
1.490768e+003;5.996572e-002
1.492696e+003;6.072456e-002
1.494625e+003;5.946260e-002
1.496553e+003;5.825555e-002
1.498482e+003;5.946350e-002
1.500410e+003;6.061384e-002
1.502339e+003;6.044872e-002
1.504267e+003;5.750789e-002
1.506196e+003;5.431258e-002
1.508125e+003;5.593766e-002
1.510053e+003;5.866829e-002
1.511982e+003;5.931216e-002
1.513910e+003;5.950580e-002
1.515839e+003;5.904438e-002
1.517767e+003;5.872617e-002
1.519696e+003;5.733646e-002
1.521624e+003;5.639446e-002
1.523553e+003;5.837033e-002
1.525481e+003;5.947084e-002
1.527410e+003;6.051605e-002
1.529339e+003;6.164191e-002
1.531267e+003;6.167334e-002
1.533196e+003;6.150885e-002
1.535124e+003;6.320474e-002
1.537053e+003;6.279512e-002
1.538981e+003;5.983644e-002
1.540910e+003;6.027932e-002
1.542838e+003;6.248479e-002
1.544767e+003;6.363081e-002
1.546695e+003;6.432892e-002
1.548624e+003;6.394611e-002
1.550553e+003;6.352759e-002
1.552481e+003;6.290193e-002
1.554410e+003;6.158410e-002
1.556338e+003;5.945211e-002
1.558267e+003;5.546070e-002
1.560195e+003;5.637122e-002
1.562124e+003;6.058683e-002
1.564052e+003;6.159903e-002
1.565981e+003;6.129634e-002
1.567910e+003;6.045649e-002
1.569838e+003;5.992430e-002
1.571767e+003;6.146136e-002
1.573695e+003;6.142316e-002
1.575624e+003;5.938779e-002
1.577552e+003;6.064516e-002
1.579481e+003;6.256045e-002
1.581409e+003;6.210851e-002
1.583338e+003;6.073397e-002
1.585266e+003;5.940279e-002
1.587195e+003;5.852871e-002
1.589124e+003;5.801414e-002
1.591052e+003;5.769479e-002
1.592981e+003;5.744628e-002
1.594909e+003;5.754867e-002
1.596838e+003;5.806973e-002
1.598766e+003;5.875557e-002
1.600695e+003;5.920187e-002
1.602623e+003;5.949322e-002
1.604552e+003;5.977526e-002
1.606480e+003;5.978169e-002
1.608409e+003;5.978260e-002
1.610338e+003;5.979815e-002
1.612266e+003;5.958724e-002
1.614195e+003;5.826521e-002
1.616123e+003;5.620525e-002
1.618052e+003;5.739696e-002
1.619980e+003;5.912422e-002
1.621909e+003;5.856283e-002
1.623837e+003;5.837060e-002
1.625766e+003;5.892361e-002
1.627694e+003;5.896806e-002
1.629623e+003;5.959111e-002
1.631552e+003;6.009028e-002
1.633480e+003;5.833190e-002
1.635409e+003;5.636778e-002
1.637337e+003;5.814018e-002
1.639266e+003;6.024837e-002
1.641194e+003;6.077071e-002
1.643123e+003;6.031853e-002
1.645051e+003;5.845622e-002
1.646980e+003;5.805640e-002
1.648909e+003;5.975317e-002
1.650837e+003;5.712837e-002
1.652766e+003;5.299915e-002
1.654694e+003;5.713948e-002
1.656623e+003;6.200683e-002
1.658551e+003;6.310373e-002
1.660480e+003;6.273831e-002
1.662408e+003;6.217728e-002
1.664337e+003;6.305093e-002
1.666266e+003;6.347589e-002
1.668194e+003;6.199724e-002
1.670123e+003;6.151572e-002
1.672051e+003;6.237270e-002
1.673980e+003;6.135396e-002
1.675908e+003;6.058934e-002
1.677837e+003;6.153619e-002
1.679765e+003;6.115137e-002
1.681694e+003;5.880584e-002
1.683622e+003;5.461638e-002
1.685551e+003;5.504997e-002
1.687479e+003;5.800418e-002
1.689408e+003;5.838250e-002
1.691337e+003;5.819849e-002
1.693265e+003;5.682262e-002
1.695194e+003;5.397170e-002
1.697122e+003;5.438641e-002
1.699051e+003;5.381551e-002
1.700979e+003;5.397197e-002
1.702908e+003;5.733374e-002
1.704836e+003;5.858240e-002
1.706765e+003;6.055807e-002
1.708693e+003;6.317485e-002
1.710622e+003;6.567866e-002
1.712551e+003;6.791822e-002
1.714479e+003;6.980036e-002
1.716408e+003;7.121463e-002
1.718336e+003;7.542076e-002
1.720265e+003;8.229643e-002
1.722193e+003;8.733273e-002
1.724122e+003;9.091538e-002
1.726050e+003;9.390355e-002
1.727979e+003;9.551611e-002
1.729908e+003;9.607638e-002
1.731836e+003;9.408028e-002
1.733765e+003;9.038939e-002
1.735693e+003;8.961545e-002
1.737622e+003;8.751820e-002
1.739550e+003;8.236787e-002
1.741479e+003;7.768741e-002
1.743407e+003;7.306307e-002
1.745336e+003;6.846984e-002
1.747265e+003;6.415378e-002
1.749193e+003;6.015189e-002
1.751122e+003;5.687168e-002
1.753050e+003;5.550660e-002
1.754979e+003;5.389863e-002
1.756907e+003;5.204229e-002
1.758836e+003;5.069287e-002
1.760764e+003;4.890938e-002
1.762693e+003;4.827408e-002
1.764621e+003;4.831230e-002
1.766550e+003;4.718910e-002
1.768479e+003;4.636622e-002
1.770407e+003;4.521767e-002
1.772336e+003;4.417227e-002
1.774264e+003;4.518906e-002
1.776193e+003;4.593686e-002
1.778121e+003;4.586051e-002
1.780050e+003;4.543043e-002
1.781978e+003;4.536628e-002
1.783907e+003;4.519524e-002
1.785835e+003;4.483679e-002
1.787764e+003;4.492471e-002
1.789693e+003;4.427529e-002
1.791621e+003;4.288695e-002
1.793550e+003;4.296105e-002
1.795478e+003;4.383156e-002
1.797407e+003;4.369476e-002
1.799335e+003;4.309675e-002
1.801264e+003;4.293113e-002
1.803192e+003;4.344688e-002
1.805121e+003;4.363566e-002
1.807049e+003;4.354159e-002
1.808978e+003;4.318505e-002
1.810907e+003;4.286943e-002
1.812835e+003;4.287067e-002
1.814764e+003;4.311526e-002
1.816692e+003;4.317297e-002
1.818621e+003;4.314578e-002
1.820549e+003;4.303543e-002
1.822478e+003;4.267491e-002
1.824406e+003;4.220657e-002
1.826335e+003;4.199340e-002
1.828264e+003;4.146491e-002
1.830192e+003;4.114496e-002
1.832121e+003;4.171472e-002
1.834049e+003;4.217582e-002
1.835978e+003;4.212456e-002
1.837906e+003;4.202680e-002
1.839835e+003;4.191133e-002
1.841763e+003;4.135060e-002
1.843692e+003;4.035112e-002
1.845620e+003;4.073361e-002
1.847549e+003;4.138275e-002
1.849478e+003;4.143742e-002
1.851406e+003;4.141879e-002
1.853335e+003;4.125455e-002
1.855263e+003;4.106097e-002
1.857192e+003;4.106534e-002
1.859120e+003;4.109368e-002
1.861049e+003;4.116387e-002
1.862977e+003;4.125389e-002
1.864906e+003;4.106811e-002
1.866834e+003;4.052146e-002
1.868763e+003;4.006771e-002
1.870692e+003;4.054034e-002
1.872620e+003;4.111025e-002
1.874549e+003;4.103773e-002
1.876477e+003;4.083166e-002
1.878406e+003;4.078886e-002
1.880334e+003;4.067535e-002
1.882263e+003;4.058414e-002
1.884191e+003;4.076316e-002
1.886120e+003;4.069587e-002
1.888048e+003;4.024790e-002
1.889977e+003;4.012847e-002
1.891906e+003;4.046890e-002
1.893834e+003;4.021482e-002
1.895763e+003;3.999050e-002
1.897691e+003;4.037857e-002
1.899620e+003;4.055103e-002
1.901548e+003;4.032933e-002
1.903477e+003;4.027200e-002
1.905405e+003;4.029512e-002
1.907334e+003;4.021555e-002
1.909262e+003;3.985316e-002
1.911191e+003;3.963900e-002
1.913120e+003;3.993717e-002
1.915048e+003;4.011513e-002
1.916977e+003;3.947256e-002
1.918905e+003;3.935153e-002
1.920834e+003;3.959508e-002
1.922762e+003;3.955400e-002
1.924691e+003;3.958761e-002
1.926619e+003;3.955323e-002
1.928548e+003;3.958902e-002
1.930477e+003;3.975166e-002
1.932405e+003;3.964467e-002
1.934334e+003;3.953603e-002
1.936262e+003;3.952717e-002
1.938191e+003;3.927970e-002
1.940119e+003;3.898250e-002
1.942048e+003;3.880605e-002
1.943976e+003;3.876493e-002
1.945905e+003;3.900203e-002
1.947833e+003;3.922033e-002
1.949762e+003;3.914886e-002
1.951691e+003;3.908327e-002
1.953619e+003;3.896357e-002
1.955548e+003;3.873175e-002
1.957476e+003;3.907294e-002
1.959405e+003;3.948000e-002
1.961333e+003;3.933487e-002
1.963262e+003;3.892491e-002
1.965190e+003;3.884826e-002
1.967119e+003;3.905126e-002
1.969047e+003;3.948388e-002
1.970976e+003;3.962819e-002
1.972905e+003;3.943714e-002
1.974833e+003;3.941280e-002
1.976762e+003;3.920401e-002
1.978690e+003;3.902972e-002
1.980619e+003;3.926501e-002
1.982547e+003;3.961410e-002
1.984476e+003;3.974843e-002
1.986404e+003;3.962499e-002
1.988333e+003;3.957044e-002
1.990261e+003;3.955632e-002
1.992190e+003;3.947750e-002
1.994119e+003;3.951491e-002
1.996047e+003;3.958761e-002
1.997976e+003;3.958811e-002
1.999904e+003;3.970584e-002
2.001833e+003;3.979981e-002
2.003761e+003;3.983572e-002
2.005690e+003;3.989856e-002
2.007618e+003;3.984800e-002
2.009547e+003;3.967411e-002
2.011476e+003;3.944498e-002
2.013404e+003;3.952413e-002
2.015333e+003;3.965991e-002
2.017261e+003;3.961875e-002
2.019190e+003;3.967429e-002
2.021118e+003;3.968856e-002
2.023047e+003;3.951875e-002
2.024975e+003;3.951553e-002
2.026904e+003;3.949462e-002
2.028833e+003;3.945431e-002
2.030761e+003;3.924423e-002
2.032690e+003;3.898340e-002
2.034618e+003;3.907566e-002
2.036547e+003;3.903527e-002
2.038475e+003;3.898069e-002
2.040404e+003;3.913512e-002
2.042332e+003;3.924445e-002
2.044261e+003;3.907149e-002
2.046189e+003;3.903545e-002
2.048118e+003;3.895038e-002
2.050047e+003;3.883366e-002
2.051975e+003;3.886413e-002
2.053904e+003;3.897753e-002
2.055832e+003;3.889562e-002
2.057761e+003;3.866687e-002
2.059689e+003;3.869679e-002
2.061618e+003;3.879790e-002
2.063546e+003;3.869947e-002
2.065475e+003;3.852065e-002
2.067404e+003;3.841055e-002
2.069332e+003;3.845656e-002
2.071260e+003;3.843940e-002
2.073189e+003;3.855396e-002
2.075118e+003;3.866079e-002
2.077046e+003;3.855772e-002
2.078975e+003;3.839466e-002
2.080903e+003;3.827273e-002
2.082832e+003;3.824816e-002
2.084760e+003;3.831381e-002
2.086689e+003;3.835829e-002
2.088617e+003;3.824523e-002
2.090546e+003;3.817949e-002
2.092475e+003;3.848078e-002
2.094403e+003;3.853759e-002
2.096332e+003;3.826788e-002
2.098260e+003;3.826810e-002
2.100189e+003;3.834721e-002
2.102117e+003;3.829640e-002
2.104046e+003;3.822009e-002
2.105974e+003;3.829148e-002
2.107903e+003;3.844469e-002
2.109832e+003;3.827034e-002
2.111760e+003;3.787038e-002
2.113688e+003;3.760929e-002
2.115617e+003;3.762822e-002
2.117546e+003;3.770458e-002
2.119474e+003;3.756369e-002
2.121403e+003;3.730257e-002
2.123331e+003;3.719477e-002
2.125260e+003;3.739104e-002
2.127188e+003;3.763996e-002
2.129117e+003;3.769052e-002
2.131045e+003;3.791934e-002
2.132974e+003;3.785679e-002
2.134903e+003;3.765330e-002
2.136831e+003;3.768488e-002
2.138760e+003;3.803581e-002
2.140688e+003;3.783282e-002
2.142617e+003;3.745905e-002
2.144545e+003;3.754715e-002
2.146474e+003;3.752125e-002
2.148402e+003;3.748346e-002
2.150331e+003;3.763444e-002
2.152260e+003;3.792114e-002
2.154188e+003;3.782960e-002
2.156117e+003;3.758270e-002
2.158045e+003;3.757930e-002
2.159974e+003;3.748476e-002
2.161902e+003;3.754014e-002
2.163831e+003;3.796840e-002
2.165759e+003;3.809079e-002
2.167688e+003;3.784493e-002
2.169616e+003;3.793951e-002
2.171545e+003;3.787041e-002
2.173474e+003;3.753848e-002
2.175402e+003;3.771820e-002
2.177331e+003;3.803241e-002
2.179259e+003;3.817974e-002
2.181188e+003;3.843184e-002
2.183116e+003;3.856000e-002
2.185045e+003;3.893596e-002
2.186973e+003;3.978332e-002
2.188902e+003;4.044813e-002
2.190831e+003;4.064351e-002
2.192759e+003;4.045435e-002
2.194688e+003;4.020148e-002
2.196616e+003;4.000587e-002
2.198545e+003;3.975714e-002
2.200473e+003;3.973031e-002
2.202402e+003;3.965919e-002
2.204330e+003;3.934684e-002
2.206259e+003;3.955537e-002
2.208188e+003;3.991298e-002
2.210116e+003;4.000750e-002
2.212044e+003;4.022180e-002
2.213973e+003;4.037915e-002
2.215902e+003;4.049178e-002
2.217830e+003;4.060862e-002
2.219759e+003;4.095490e-002
2.221687e+003;4.150059e-002
2.223616e+003;4.246791e-002
2.225544e+003;4.365933e-002
2.227473e+003;4.547697e-002
2.229401e+003;4.856997e-002
2.231330e+003;5.269701e-002
2.233259e+003;5.825179e-002
2.235187e+003;6.481852e-002
2.237116e+003;7.086230e-002
2.239044e+003;7.524550e-002
2.240973e+003;7.738356e-002
2.242901e+003;7.689889e-002
2.244830e+003;7.400398e-002
2.246758e+003;6.977118e-002
2.248687e+003;6.545597e-002
2.250615e+003;6.113100e-002
2.252544e+003;5.704742e-002
2.254473e+003;5.361756e-002
2.256401e+003;5.073123e-002
2.258330e+003;4.807713e-002
2.260258e+003;4.604526e-002
2.262187e+003;4.467290e-002
2.264115e+003;4.350339e-002
2.266044e+003;4.267678e-002
2.267972e+003;4.214391e-002
2.269901e+003;4.181362e-002
2.271830e+003;4.156950e-002
2.273758e+003;4.137604e-002
2.275687e+003;4.117662e-002
2.277615e+003;4.064635e-002
2.279544e+003;3.998120e-002
2.281472e+003;3.976401e-002
2.283401e+003;3.961795e-002
2.285329e+003;3.951368e-002
2.287258e+003;3.972348e-002
2.289187e+003;3.977334e-002
2.291115e+003;3.969767e-002
2.293043e+003;3.961958e-002
2.294972e+003;3.957853e-002
2.296901e+003;3.958274e-002
2.298829e+003;3.952210e-002
2.300758e+003;3.932138e-002
2.302686e+003;3.918109e-002
2.304615e+003;3.906137e-002
2.306543e+003;3.896825e-002
2.308472e+003;3.875279e-002
2.310400e+003;3.852506e-002
2.312329e+003;3.835611e-002
2.314258e+003;3.838767e-002
2.316186e+003;3.861979e-002
2.318115e+003;3.846253e-002
2.320043e+003;3.826607e-002
2.321972e+003;3.821788e-002
2.323900e+003;3.787649e-002
2.325829e+003;3.770826e-002
2.327757e+003;3.764976e-002
2.329686e+003;3.748274e-002
2.331615e+003;3.747635e-002
2.333543e+003;3.748220e-002
2.335472e+003;3.739338e-002
2.337400e+003;3.714893e-002
2.339329e+003;3.709891e-002
2.341257e+003;3.722939e-002
2.343186e+003;3.746305e-002
2.345114e+003;3.785335e-002
2.347043e+003;3.812768e-002
2.348971e+003;3.826792e-002
2.350900e+003;3.826130e-002
2.352829e+003;3.783553e-002
2.354757e+003;3.728769e-002
2.356686e+003;3.700548e-002
2.358614e+003;3.677116e-002
2.360543e+003;3.656919e-002
2.362471e+003;3.653326e-002
2.364400e+003;3.663758e-002
2.366328e+003;3.700296e-002
2.368257e+003;3.729842e-002
2.370186e+003;3.751442e-002
2.372114e+003;3.792574e-002
2.374042e+003;3.857040e-002
2.375971e+003;3.890378e-002
2.377900e+003;3.880004e-002
2.379828e+003;3.878254e-002
2.381757e+003;3.908193e-002
2.383685e+003;3.939045e-002
2.385614e+003;3.959417e-002
2.387542e+003;3.933252e-002
2.389471e+003;3.908820e-002
2.391399e+003;3.893795e-002
2.393328e+003;3.875939e-002
2.395257e+003;3.895154e-002
2.397185e+003;3.908646e-002
2.399114e+003;3.890418e-002
2.401042e+003;3.891374e-002
2.402971e+003;3.913809e-002
2.404899e+003;3.925381e-002
2.406828e+003;3.903241e-002
2.408756e+003;3.884493e-002
2.410685e+003;3.892266e-002
2.412614e+003;3.918813e-002
2.414542e+003;3.914056e-002
2.416471e+003;3.895818e-002
2.418399e+003;3.889091e-002
2.420328e+003;3.880065e-002
2.422256e+003;3.878120e-002
2.424185e+003;3.902237e-002
2.426113e+003;3.931137e-002
2.428042e+003;3.943475e-002
2.429970e+003;3.938476e-002
2.431899e+003;3.935689e-002
2.433828e+003;3.938069e-002
2.435756e+003;3.919742e-002
2.437685e+003;3.913207e-002
2.439613e+003;3.913399e-002
2.441542e+003;3.917982e-002
2.443470e+003;3.947227e-002
2.445399e+003;3.942387e-002
2.447327e+003;3.932889e-002
2.449256e+003;3.938276e-002
2.451185e+003;3.943232e-002
2.453113e+003;3.941549e-002
2.455042e+003;3.934823e-002
2.456970e+003;3.926451e-002
2.458899e+003;3.929218e-002
2.460827e+003;3.932279e-002
2.462756e+003;3.928380e-002
2.464684e+003;3.935922e-002
2.466613e+003;3.959490e-002
2.468542e+003;3.966924e-002
2.470470e+003;3.966717e-002
2.472398e+003;3.986409e-002
2.474327e+003;4.005070e-002
2.476256e+003;4.012792e-002
2.478184e+003;4.014475e-002
2.480113e+003;4.010662e-002
2.482041e+003;4.016376e-002
2.483970e+003;4.022111e-002
2.485898e+003;4.040388e-002
2.487827e+003;4.032519e-002
2.489755e+003;4.017273e-002
2.491684e+003;4.028556e-002
2.493613e+003;4.047352e-002
2.495541e+003;4.075239e-002
2.497470e+003;4.091969e-002
2.499398e+003;4.084502e-002
2.501327e+003;4.056620e-002
2.503255e+003;4.031014e-002
2.505184e+003;4.053608e-002
2.507112e+003;4.083763e-002
2.509041e+003;4.091834e-002
2.510969e+003;4.087858e-002
2.512898e+003;4.078449e-002
2.514827e+003;4.080949e-002
2.516755e+003;4.080785e-002
2.518684e+003;4.068503e-002
2.520612e+003;4.068390e-002
2.522541e+003;4.062750e-002
2.524469e+003;4.041886e-002
2.526398e+003;4.036228e-002
2.528326e+003;4.060407e-002
2.530255e+003;4.087571e-002
2.532184e+003;4.088568e-002
2.534112e+003;4.072895e-002
2.536041e+003;4.082722e-002
2.537969e+003;4.100125e-002
2.539898e+003;4.080258e-002
2.541826e+003;4.050655e-002
2.543755e+003;4.040486e-002
2.545683e+003;4.046912e-002
2.547612e+003;4.055129e-002
2.549541e+003;4.067364e-002
2.551469e+003;4.081663e-002
2.553397e+003;4.060582e-002
2.555326e+003;4.029047e-002
2.557255e+003;4.028356e-002
2.559183e+003;4.029683e-002
2.561112e+003;4.020432e-002
2.563040e+003;4.027509e-002
2.564969e+003;4.029956e-002
2.566897e+003;4.018385e-002
2.568826e+003;3.984557e-002
2.570754e+003;3.976836e-002
2.572683e+003;3.982941e-002
2.574612e+003;3.966692e-002
2.576540e+003;3.969309e-002
2.578469e+003;3.965962e-002
2.580397e+003;3.932033e-002
2.582326e+003;3.920710e-002
2.584254e+003;3.940946e-002
2.586183e+003;3.935425e-002
2.588111e+003;3.941683e-002
2.590040e+003;3.943051e-002
2.591969e+003;3.925428e-002
2.593897e+003;3.935243e-002
2.595826e+003;3.935918e-002
2.597754e+003;3.929885e-002
2.599683e+003;3.927086e-002
2.601611e+003;3.917769e-002
2.603540e+003;3.904111e-002
2.605468e+003;3.904278e-002
2.607397e+003;3.920753e-002
2.609325e+003;3.933673e-002
2.611254e+003;3.934569e-002
2.613183e+003;3.945612e-002
2.615111e+003;3.976851e-002
2.617040e+003;3.956249e-002
2.618968e+003;3.928874e-002
2.620897e+003;3.943236e-002
2.622825e+003;3.943555e-002
2.624754e+003;3.934641e-002
2.626682e+003;3.925609e-002
2.628611e+003;3.937870e-002
2.630540e+003;3.975645e-002
2.632468e+003;4.000979e-002
2.634396e+003;3.992678e-002
2.636325e+003;3.973056e-002
2.638254e+003;3.961153e-002
2.640182e+003;3.955182e-002
2.642111e+003;3.969117e-002
2.644039e+003;3.988904e-002
2.645968e+003;3.987353e-002
2.647896e+003;3.963668e-002
2.649825e+003;3.961809e-002
2.651753e+003;3.949172e-002
2.653682e+003;3.953015e-002
2.655611e+003;3.947427e-002
2.657539e+003;3.953106e-002
2.659468e+003;3.990895e-002
2.661396e+003;3.975159e-002
2.663325e+003;3.950892e-002
2.665253e+003;3.965447e-002
2.667182e+003;3.962260e-002
2.669110e+003;3.928884e-002
2.671039e+003;3.879087e-002
2.672968e+003;3.897329e-002
2.674896e+003;3.953806e-002
2.676825e+003;3.963984e-002
2.678753e+003;3.938265e-002
2.680682e+003;3.913167e-002
2.682610e+003;3.919977e-002
2.684539e+003;3.932592e-002
2.686467e+003;3.916416e-002
2.688396e+003;3.923212e-002
2.690324e+003;3.948512e-002
2.692253e+003;3.937761e-002
2.694182e+003;3.923586e-002
2.696110e+003;3.920376e-002
2.698039e+003;3.920275e-002
2.699967e+003;3.920848e-002
2.701896e+003;3.922483e-002
2.703824e+003;3.919157e-002
2.705753e+003;3.929276e-002
2.707681e+003;3.919143e-002
2.709610e+003;3.913127e-002
2.711539e+003;3.899431e-002
2.713467e+003;3.880623e-002
2.715396e+003;3.882786e-002
2.717324e+003;3.903672e-002
2.719253e+003;3.890197e-002
2.721181e+003;3.883844e-002
2.723110e+003;3.918770e-002
2.725038e+003;3.922882e-002
2.726967e+003;3.900808e-002
2.728896e+003;3.899775e-002
2.730824e+003;3.890327e-002
2.732752e+003;3.868701e-002
2.734681e+003;3.881167e-002
2.736610e+003;3.887312e-002
2.738538e+003;3.848408e-002
2.740467e+003;3.863272e-002
2.742395e+003;3.874682e-002
2.744324e+003;3.859252e-002
2.746252e+003;3.880442e-002
2.748181e+003;3.905768e-002
2.750109e+003;3.896401e-002
2.752038e+003;3.874128e-002
2.753967e+003;3.865670e-002
2.755895e+003;3.849371e-002
2.757824e+003;3.852886e-002
2.759752e+003;3.870060e-002
2.761681e+003;3.860907e-002
2.763609e+003;3.842996e-002
2.765538e+003;3.872102e-002
2.767466e+003;3.925987e-002
2.769395e+003;3.936625e-002
2.771323e+003;3.907961e-002
2.773252e+003;3.903027e-002
2.775181e+003;3.921141e-002
2.777109e+003;3.933147e-002
2.779038e+003;3.945805e-002
2.780966e+003;3.971078e-002
2.782895e+003;3.994324e-002
2.784823e+003;3.984695e-002
2.786752e+003;3.971927e-002
2.788680e+003;3.961167e-002
2.790609e+003;3.975907e-002
2.792538e+003;4.004591e-002
2.794466e+003;4.035395e-002
2.796395e+003;4.066647e-002
2.798323e+003;4.083388e-002
2.800252e+003;4.110125e-002
2.802180e+003;4.121527e-002
2.804109e+003;4.128545e-002
2.806037e+003;4.119192e-002
2.807966e+003;4.107503e-002
2.809895e+003;4.139339e-002
2.811823e+003;4.173023e-002
2.813751e+003;4.195026e-002
2.815680e+003;4.216713e-002
2.817609e+003;4.192669e-002
2.819537e+003;4.194326e-002
2.821466e+003;4.223085e-002
2.823394e+003;4.225448e-002
2.825323e+003;4.244848e-002
2.827251e+003;4.268142e-002
2.829180e+003;4.258189e-002
2.831108e+003;4.287883e-002
2.833037e+003;4.363119e-002
2.834966e+003;4.431319e-002
2.836894e+003;4.503235e-002
2.838823e+003;4.598577e-002
2.840751e+003;4.697038e-002
2.842680e+003;4.815886e-002
2.844608e+003;4.999425e-002
2.846537e+003;5.264823e-002
2.848465e+003;5.506837e-002
2.850394e+003;5.570164e-002
2.852323e+003;5.499495e-002
2.854251e+003;5.420111e-002
2.856180e+003;5.338895e-002
2.858108e+003;5.282373e-002
2.860037e+003;5.313719e-002
2.861965e+003;5.293817e-002
2.863894e+003;5.237074e-002
2.865822e+003;5.242909e-002
2.867751e+003;5.281980e-002
2.869679e+003;5.283615e-002
2.871608e+003;5.229124e-002
2.873536e+003;5.181521e-002
2.875465e+003;5.153788e-002
2.877394e+003;5.127050e-002
2.879322e+003;5.109421e-002
2.881251e+003;5.094973e-002
2.883179e+003;5.076195e-002
2.885108e+003;5.065154e-002
2.887036e+003;5.109443e-002
2.888965e+003;5.179726e-002
2.890893e+003;5.211424e-002
2.892822e+003;5.253674e-002
2.894750e+003;5.302588e-002
2.896679e+003;5.374422e-002
2.898608e+003;5.452117e-002
2.900536e+003;5.504715e-002
2.902465e+003;5.565226e-002
2.904393e+003;5.655770e-002
2.906322e+003;5.786008e-002
2.908250e+003;5.966071e-002
2.910179e+003;6.154451e-002
2.912107e+003;6.396884e-002
2.914036e+003;6.687334e-002
2.915965e+003;6.868372e-002
2.917893e+003;6.900562e-002
2.919822e+003;6.867429e-002
2.921750e+003;6.845592e-002
2.923679e+003;6.840806e-002
2.925607e+003;6.746045e-002
2.927536e+003;6.634092e-002
2.929464e+003;6.586209e-002
2.931393e+003;6.557518e-002
2.933322e+003;6.520884e-002
2.935250e+003;6.473633e-002
2.937178e+003;6.409306e-002
2.939107e+003;6.335550e-002
2.941036e+003;6.266695e-002
2.942964e+003;6.189318e-002
2.944893e+003;6.058500e-002
2.946821e+003;5.967200e-002
2.948750e+003;5.931793e-002
2.950678e+003;5.852738e-002
2.952607e+003;5.726108e-002
2.954535e+003;5.623392e-002
2.956464e+003;5.522396e-002
2.958393e+003;5.369802e-002
2.960321e+003;5.222476e-002
2.962250e+003;5.124984e-002
2.964178e+003;5.079294e-002
2.966107e+003;5.052776e-002
2.968035e+003;5.040219e-002
2.969964e+003;5.058881e-002
2.971892e+003;5.026595e-002
2.973821e+003;4.973431e-002
2.975750e+003;4.976289e-002
2.977678e+003;5.003633e-002
2.979607e+003;5.016816e-002
2.981535e+003;5.015120e-002
2.983464e+003;4.970626e-002
2.985392e+003;4.928264e-002
2.987321e+003;4.929277e-002
2.989249e+003;4.941093e-002
2.991178e+003;4.931590e-002
2.993106e+003;4.910159e-002
2.995035e+003;4.876092e-002
2.996964e+003;4.825335e-002
2.998892e+003;4.794217e-002
3.000821e+003;4.793676e-002
3.002749e+003;4.783813e-002
3.004678e+003;4.751187e-002
3.006606e+003;4.687271e-002
3.008535e+003;4.654724e-002
3.010463e+003;4.647728e-002
3.012392e+003;4.631406e-002
3.014321e+003;4.590913e-002
3.016249e+003;4.511505e-002
3.018177e+003;4.464300e-002
3.020106e+003;4.481056e-002
3.022035e+003;4.512090e-002
3.023963e+003;4.486324e-002
3.025892e+003;4.456905e-002
3.027820e+003;4.469383e-002
3.029749e+003;4.443297e-002
3.031677e+003;4.443106e-002
3.033606e+003;4.440423e-002
3.035534e+003;4.392661e-002
3.037463e+003;4.378135e-002
3.039392e+003;4.373063e-002
3.041320e+003;4.358261e-002
3.043249e+003;4.339583e-002
3.045177e+003;4.329204e-002
3.047106e+003;4.334619e-002
3.049034e+003;4.296127e-002
3.050963e+003;4.254319e-002
3.052891e+003;4.261073e-002
3.054820e+003;4.242871e-002
3.056749e+003;4.189199e-002
3.058677e+003;4.183083e-002
3.060606e+003;4.210707e-002
3.062534e+003;4.217122e-002
3.064463e+003;4.226708e-002
3.066391e+003;4.205987e-002
3.068320e+003;4.193304e-002
3.070248e+003;4.193395e-002
3.072177e+003;4.155069e-002
3.074105e+003;4.142022e-002
3.076034e+003;4.159685e-002
3.077963e+003;4.120022e-002
3.079891e+003;4.073951e-002
3.081820e+003;4.086512e-002
3.083748e+003;4.101275e-002
3.085677e+003;4.072739e-002
3.087605e+003;4.060200e-002
3.089534e+003;4.079257e-002
3.091462e+003;4.092693e-002
3.093391e+003;4.064428e-002
3.095320e+003;4.056307e-002
3.097248e+003;4.072793e-002
3.099177e+003;4.026299e-002
3.101105e+003;4.001357e-002
3.103034e+003;4.006168e-002
3.104962e+003;3.995043e-002
3.106891e+003;3.978536e-002
3.108819e+003;3.970504e-002
3.110748e+003;3.980696e-002
3.112677e+003;4.012214e-002
3.114605e+003;4.028632e-002
3.116533e+003;3.986067e-002
3.118462e+003;3.948374e-002
3.120391e+003;3.924046e-002
3.122319e+003;3.895473e-002
3.124248e+003;3.903426e-002
3.126176e+003;3.904397e-002
3.128105e+003;3.902153e-002
3.130033e+003;3.924257e-002
3.131962e+003;3.914386e-002
3.133890e+003;3.871903e-002
3.135819e+003;3.872628e-002
3.137748e+003;3.887453e-002
3.139676e+003;3.885877e-002
3.141605e+003;3.905822e-002
3.143533e+003;3.933357e-002
3.145462e+003;3.931957e-002
3.147390e+003;3.887370e-002
3.149319e+003;3.838626e-002
3.151247e+003;3.851391e-002
3.153176e+003;3.855052e-002
3.155104e+003;3.849563e-002
3.157033e+003;3.873494e-002
3.158962e+003;3.897151e-002
3.160890e+003;3.900073e-002
3.162819e+003;3.901719e-002
3.164747e+003;3.860828e-002
3.166676e+003;3.841370e-002
3.168604e+003;3.889117e-002
3.170533e+003;3.896800e-002
3.172461e+003;3.898945e-002
3.174390e+003;3.880855e-002
3.176319e+003;3.876272e-002
3.178247e+003;3.925196e-002
3.180176e+003;3.918178e-002
3.182104e+003;3.864511e-002
3.184033e+003;3.870751e-002
3.185961e+003;3.929537e-002
3.187890e+003;3.929330e-002
3.189818e+003;3.918084e-002
3.191747e+003;3.937173e-002
3.193676e+003;3.915459e-002
3.195604e+003;3.910067e-002
3.197532e+003;3.892944e-002
3.199461e+003;3.874044e-002
3.201390e+003;3.882975e-002
3.203318e+003;3.882141e-002
3.205247e+003;3.882493e-002
3.207175e+003;3.875406e-002
3.209104e+003;3.897528e-002
3.211032e+003;3.940119e-002
3.212961e+003;3.946120e-002
3.214889e+003;3.914926e-002
3.216818e+003;3.894857e-002
3.218747e+003;3.887508e-002
3.220675e+003;3.907769e-002
3.222604e+003;3.935573e-002
3.224532e+003;3.924782e-002
3.226461e+003;3.912638e-002
3.228389e+003;3.940932e-002
3.230318e+003;3.961062e-002
3.232246e+003;3.963461e-002
3.234175e+003;3.945300e-002
3.236104e+003;3.928235e-002
3.238032e+003;3.979897e-002
3.239961e+003;4.007098e-002
3.241889e+003;3.941298e-002
3.243818e+003;3.880547e-002
3.245746e+003;3.915600e-002
3.247675e+003;3.956706e-002
3.249603e+003;3.979676e-002
3.251532e+003;3.997368e-002
3.253460e+003;3.962496e-002
3.255389e+003;3.929751e-002
3.257318e+003;3.936118e-002
3.259246e+003;3.929631e-002
3.261175e+003;3.932352e-002
3.263103e+003;3.926418e-002
3.265032e+003;3.935918e-002
3.266960e+003;3.939052e-002
3.268889e+003;3.967937e-002
3.270817e+003;4.033090e-002
3.272746e+003;4.026760e-002
3.274675e+003;3.962681e-002
3.276603e+003;3.926092e-002
3.278531e+003;3.923676e-002
3.280460e+003;3.952071e-002
3.282389e+003;3.975986e-002
3.284317e+003;3.953930e-002
3.286246e+003;3.937387e-002
3.288174e+003;3.943936e-002
3.290103e+003;3.936070e-002
3.292031e+003;3.911380e-002
3.293960e+003;3.863656e-002
3.295888e+003;3.850070e-002
3.297817e+003;3.880225e-002
3.299746e+003;3.897880e-002
3.301674e+003;3.887359e-002
3.303603e+003;3.895557e-002
3.305531e+003;3.901011e-002
3.307460e+003;3.861910e-002
3.309388e+003;3.846601e-002
3.311317e+003;3.872686e-002
3.313245e+003;3.905858e-002
3.315174e+003;3.912750e-002
3.317103e+003;3.915901e-002
3.319031e+003;3.923227e-002
3.320960e+003;3.889675e-002
3.322888e+003;3.853172e-002
3.324817e+003;3.863294e-002
3.326745e+003;3.876957e-002
3.328674e+003;3.867292e-002
3.330602e+003;3.837671e-002
3.332531e+003;3.850080e-002
3.334459e+003;3.873309e-002
3.336388e+003;3.856048e-002
3.338317e+003;3.800883e-002
3.340245e+003;3.807860e-002
3.342174e+003;3.806315e-002
3.344102e+003;3.782945e-002
3.346031e+003;3.790932e-002
3.347959e+003;3.795777e-002
3.349888e+003;3.795122e-002
3.351816e+003;3.830433e-002
3.353745e+003;3.827932e-002
3.355674e+003;3.779967e-002
3.357602e+003;3.765908e-002
3.359531e+003;3.780603e-002
3.361459e+003;3.763885e-002
3.363388e+003;3.789392e-002
3.365316e+003;3.821180e-002
3.367245e+003;3.800966e-002
3.369173e+003;3.737165e-002
3.371102e+003;3.693957e-002
3.373031e+003;3.711212e-002
3.374959e+003;3.741249e-002
3.376887e+003;3.734186e-002
3.378816e+003;3.729098e-002
3.380745e+003;3.746844e-002
3.382673e+003;3.715528e-002
3.384602e+003;3.683979e-002
3.386530e+003;3.705567e-002
3.388459e+003;3.704871e-002
3.390387e+003;3.666894e-002
3.392316e+003;3.638623e-002
3.394244e+003;3.670200e-002
3.396173e+003;3.629394e-002
3.398102e+003;3.573333e-002
3.400030e+003;3.581068e-002
3.401959e+003;3.652699e-002
3.403887e+003;3.717131e-002
3.405816e+003;3.718697e-002
3.407744e+003;3.689671e-002
3.409673e+003;3.693589e-002
3.411601e+003;3.656992e-002
3.413530e+003;3.609143e-002
3.415458e+003;3.630571e-002
3.417387e+003;3.688968e-002
3.419316e+003;3.698708e-002
3.421244e+003;3.656083e-002
3.423173e+003;3.657723e-002
3.425101e+003;3.664947e-002
3.427030e+003;3.634458e-002
3.428958e+003;3.618178e-002
3.430887e+003;3.651283e-002
3.432815e+003;3.683853e-002
3.434744e+003;3.669238e-002
3.436673e+003;3.672880e-002
3.438601e+003;3.665658e-002
3.440530e+003;3.621495e-002
3.442458e+003;3.585069e-002
3.444387e+003;3.590619e-002
3.446315e+003;3.589679e-002
3.448244e+003;3.594837e-002
3.450172e+003;3.637099e-002
3.452101e+003;3.622330e-002
3.454030e+003;3.593969e-002
3.455958e+003;3.632193e-002
3.457886e+003;3.645174e-002
3.459815e+003;3.632282e-002
3.461744e+003;3.623436e-002
3.463672e+003;3.634750e-002
3.465601e+003;3.632236e-002
3.467529e+003;3.646749e-002
3.469458e+003;3.652288e-002
3.471386e+003;3.610284e-002
3.473315e+003;3.575869e-002
3.475243e+003;3.606147e-002
3.477172e+003;3.638919e-002
3.479101e+003;3.641848e-002
3.481029e+003;3.602051e-002
3.482958e+003;3.575869e-002
3.484886e+003;3.586696e-002
3.486815e+003;3.587135e-002
3.488743e+003;3.536851e-002
3.490672e+003;3.544929e-002
3.492600e+003;3.595485e-002
3.494529e+003;3.631937e-002
3.496458e+003;3.652994e-002
3.498386e+003;3.653247e-002
3.500315e+003;3.635435e-002
3.502243e+003;3.624426e-002
3.504172e+003;3.651650e-002
3.506100e+003;3.659284e-002
3.508029e+003;3.640803e-002
3.509957e+003;3.664623e-002
3.511886e+003;3.684030e-002
3.513814e+003;3.667374e-002
3.515743e+003;3.684203e-002
3.517672e+003;3.723831e-002
3.519600e+003;3.742054e-002
3.521529e+003;3.742982e-002
3.523457e+003;3.720517e-002
3.525386e+003;3.679904e-002
3.527314e+003;3.676182e-002
3.529243e+003;3.717319e-002
3.531171e+003;3.777997e-002
3.533100e+003;3.766591e-002
3.535029e+003;3.707188e-002
3.536957e+003;3.710328e-002
3.538885e+003;3.753360e-002
3.540814e+003;3.743062e-002
3.542743e+003;3.698665e-002
3.544671e+003;3.682858e-002
3.546600e+003;3.722000e-002
3.548528e+003;3.732622e-002
3.550457e+003;3.654977e-002
3.552385e+003;3.621973e-002
3.554314e+003;3.702432e-002
3.556242e+003;3.738414e-002
3.558171e+003;3.709714e-002
3.560100e+003;3.697774e-002
3.562028e+003;3.679746e-002
3.563957e+003;3.611001e-002
3.565885e+003;3.552152e-002
3.567814e+003;3.588286e-002
3.569742e+003;3.626534e-002
3.571671e+003;3.670089e-002
3.573599e+003;3.664277e-002
3.575528e+003;3.660142e-002
3.577457e+003;3.637553e-002
3.579385e+003;3.579308e-002
3.581314e+003;3.575711e-002
3.583242e+003;3.601323e-002
3.585171e+003;3.548276e-002
3.587099e+003;3.424749e-002
3.589028e+003;3.427248e-002
3.590956e+003;3.552396e-002
3.592885e+003;3.583817e-002
3.594813e+003;3.602551e-002
3.596742e+003;3.626994e-002
3.598671e+003;3.630060e-002
3.600599e+003;3.648872e-002
3.602528e+003;3.653030e-002
3.604456e+003;3.663491e-002
3.606385e+003;3.620205e-002
3.608313e+003;3.556550e-002
3.610242e+003;3.584911e-002
3.612170e+003;3.557740e-002
3.614099e+003;3.526198e-002
3.616028e+003;3.520840e-002
3.617956e+003;3.521117e-002
3.619885e+003;3.592346e-002
3.621813e+003;3.644835e-002
3.623742e+003;3.633028e-002
3.625670e+003;3.548833e-002
3.627599e+003;3.308831e-002
3.629527e+003;3.318572e-002
3.631456e+003;3.551551e-002
3.633385e+003;3.625853e-002
3.635313e+003;3.613806e-002
3.637241e+003;3.606637e-002
3.639170e+003;3.613028e-002
3.641099e+003;3.600945e-002
3.643027e+003;3.606958e-002
3.644956e+003;3.520301e-002
3.646884e+003;3.317045e-002
3.648813e+003;3.145909e-002
3.650741e+003;3.253839e-002
3.652670e+003;3.432383e-002
3.654598e+003;3.360602e-002
3.656527e+003;3.339868e-002
3.658456e+003;3.458428e-002
3.660384e+003;3.476705e-002
3.662313e+003;3.445308e-002
3.664241e+003;3.408493e-002
3.666170e+003;3.333567e-002
3.668098e+003;3.164209e-002
3.670027e+003;3.017670e-002
3.671955e+003;3.111019e-002
3.673884e+003;3.019605e-002
3.675813e+003;2.930503e-002
3.677741e+003;3.122486e-002
3.679669e+003;3.187330e-002
3.681598e+003;3.215786e-002
3.683527e+003;3.228277e-002
3.685455e+003;3.130804e-002
3.687384e+003;2.881334e-002
3.689312e+003;2.848648e-002
3.691241e+003;3.019445e-002
3.693169e+003;3.181796e-002
3.695098e+003;3.228384e-002
3.697026e+003;3.188474e-002
3.698955e+003;3.119780e-002
3.700884e+003;3.086316e-002
3.702812e+003;3.166654e-002
3.704741e+003;3.210560e-002
3.706669e+003;3.129137e-002
3.708598e+003;3.006333e-002
3.710526e+003;2.871701e-002
3.712455e+003;2.863160e-002
3.714383e+003;3.043783e-002
3.716312e+003;3.153437e-002
3.718240e+003;3.157552e-002
3.720169e+003;3.102381e-002
3.722098e+003;3.052399e-002
3.724026e+003;3.030707e-002
3.725955e+003;3.019559e-002
3.727883e+003;3.074162e-002
3.729812e+003;3.001987e-002
3.731740e+003;2.804788e-002
3.733669e+003;2.802915e-002
3.735597e+003;2.836090e-002
3.737526e+003;2.951003e-002
3.739455e+003;3.046566e-002
3.741383e+003;2.930237e-002
3.743312e+003;2.541437e-002
3.745240e+003;2.601000e-002
3.747169e+003;2.801844e-002
3.749097e+003;2.579293e-002
3.751026e+003;2.510498e-002
3.752954e+003;2.730381e-002
3.754883e+003;2.996534e-002
3.756812e+003;3.029221e-002
3.758740e+003;3.022688e-002
3.760668e+003;3.045290e-002
3.762597e+003;3.049736e-002
3.764526e+003;2.997968e-002
3.766454e+003;3.045656e-002
3.768383e+003;3.034693e-002
3.770311e+003;3.012722e-002
3.772240e+003;3.059253e-002
3.774168e+003;3.107976e-002
3.776097e+003;3.119296e-002
3.778025e+003;3.077843e-002
3.779954e+003;3.072189e-002
3.781883e+003;3.128838e-002
3.783811e+003;3.113757e-002
3.785740e+003;3.091874e-002
3.787668e+003;3.114764e-002
3.789597e+003;3.124166e-002
3.791525e+003;3.102549e-002
3.793454e+003;3.101655e-002
3.795382e+003;3.059086e-002
3.797311e+003;3.009934e-002
3.799240e+003;2.851822e-002
3.801168e+003;2.739118e-002
3.803097e+003;2.930889e-002
3.805025e+003;2.979274e-002
3.806954e+003;2.897107e-002
3.808882e+003;3.045550e-002
3.810811e+003;3.161810e-002
3.812739e+003;3.166757e-002
3.814668e+003;2.970807e-002
3.816596e+003;2.883331e-002
3.818525e+003;2.940521e-002
3.820454e+003;2.862187e-002
3.822382e+003;2.947989e-002
3.824311e+003;3.055164e-002
3.826239e+003;3.063918e-002
3.828168e+003;3.101399e-002
3.830096e+003;3.061432e-002
3.832025e+003;2.989371e-002
3.833953e+003;2.952510e-002
3.835882e+003;2.834926e-002
3.837811e+003;2.755394e-002
3.839739e+003;2.913850e-002
3.841667e+003;3.040308e-002
3.843596e+003;3.097552e-002
3.845525e+003;3.127314e-002
3.847453e+003;3.127538e-002
3.849382e+003;3.010858e-002
3.851310e+003;2.631451e-002
3.853239e+003;2.341274e-002
3.855167e+003;2.688561e-002
3.857096e+003;3.072231e-002
3.859024e+003;3.098862e-002
3.860953e+003;3.062424e-002
3.862882e+003;3.009395e-002
3.864810e+003;2.973277e-002
3.866739e+003;2.984135e-002
3.868667e+003;2.876710e-002
3.870596e+003;2.936859e-002
3.872524e+003;3.047419e-002
3.874453e+003;3.074212e-002
3.876381e+003;3.157435e-002
3.878310e+003;3.148428e-002
3.880239e+003;3.119371e-002
3.882167e+003;3.099986e-002
3.884096e+003;2.958930e-002
3.886024e+003;2.992225e-002
3.887953e+003;3.145463e-002
3.889881e+003;3.087131e-002
3.891810e+003;3.054756e-002
3.893738e+003;3.149393e-002
3.895667e+003;3.201941e-002
3.897595e+003;3.100986e-002
3.899524e+003;2.992629e-002
3.901453e+003;2.959742e-002
3.903381e+003;2.967036e-002
3.905310e+003;3.083716e-002
3.907238e+003;3.171718e-002
3.909167e+003;3.179636e-002
3.911095e+003;3.177515e-002
3.913024e+003;3.142746e-002
3.914952e+003;3.071143e-002
3.916881e+003;3.082837e-002
3.918810e+003;3.173116e-002
3.920738e+003;3.227235e-002
3.922667e+003;3.236925e-002
3.924595e+003;3.202986e-002
3.926524e+003;3.231118e-002
3.928452e+003;3.239121e-002
3.930381e+003;3.226314e-002
3.932309e+003;3.242716e-002
3.934238e+003;3.265500e-002
3.936167e+003;3.231464e-002
3.938095e+003;3.237008e-002
3.940023e+003;3.224515e-002
3.941952e+003;3.180277e-002
3.943881e+003;3.221500e-002
3.945809e+003;3.248797e-002
3.947738e+003;3.202947e-002
3.949666e+003;3.178110e-002
3.951595e+003;3.233513e-002
3.953523e+003;3.279823e-002
3.955452e+003;3.248118e-002
3.957380e+003;3.209900e-002
3.959309e+003;3.207124e-002
3.961238e+003;3.223323e-002
3.963166e+003;3.220461e-002
3.965095e+003;3.243294e-002
3.967023e+003;3.331238e-002
3.968952e+003;3.348514e-002
3.970880e+003;3.304161e-002
3.972809e+003;3.272742e-002
3.974737e+003;3.244494e-002
3.976666e+003;3.252278e-002
3.978594e+003;3.236208e-002
3.980523e+003;3.209322e-002
3.982452e+003;3.258978e-002
3.984380e+003;3.271641e-002
3.986309e+003;3.306013e-002
3.988237e+003;3.364332e-002
3.990166e+003;3.338344e-002
3.992094e+003;3.342889e-002
3.994023e+003;3.353640e-002
3.995951e+003;3.318937e-002
3.997880e+003;3.290977e-002
3.999809e+003;3.305312e-002
4.001737e+003;0.000000e+000
