3.992094e+002;0.000000e+000
4.011380e+002;0.000000e+000
4.030665e+002;0.000000e+000
4.049951e+002;0.000000e+000
4.069236e+002;0.000000e+000
4.088522e+002;0.000000e+000
4.107807e+002;0.000000e+000
4.127093e+002;0.000000e+000
4.146378e+002;0.000000e+000
4.165664e+002;0.000000e+000
4.184949e+002;0.000000e+000
4.204235e+002;0.000000e+000
4.223520e+002;0.000000e+000
4.242806e+002;0.000000e+000
4.262091e+002;0.000000e+000
4.281377e+002;0.000000e+000
4.300662e+002;0.000000e+000
4.319948e+002;0.000000e+000
4.339233e+002;0.000000e+000
4.358519e+002;0.000000e+000
4.377804e+002;0.000000e+000
4.397090e+002;0.000000e+000
4.416375e+002;0.000000e+000
4.435660e+002;0.000000e+000
4.454946e+002;0.000000e+000
4.474232e+002;0.000000e+000
4.493517e+002;0.000000e+000
4.512802e+002;0.000000e+000
4.532088e+002;0.000000e+000
4.551373e+002;0.000000e+000
4.570659e+002;0.000000e+000
4.589944e+002;0.000000e+000
4.609230e+002;0.000000e+000
4.628515e+002;0.000000e+000
4.647801e+002;0.000000e+000
4.667086e+002;0.000000e+000
4.686372e+002;0.000000e+000
4.705657e+002;0.000000e+000
4.724943e+002;0.000000e+000
4.744228e+002;0.000000e+000
4.763513e+002;0.000000e+000
4.782799e+002;0.000000e+000
4.802085e+002;0.000000e+000
4.821370e+002;0.000000e+000
4.840656e+002;0.000000e+000
4.859941e+002;0.000000e+000
4.879226e+002;0.000000e+000
4.898512e+002;0.000000e+000
4.917798e+002;0.000000e+000
4.937083e+002;0.000000e+000
4.956368e+002;0.000000e+000
4.975654e+002;0.000000e+000
4.994939e+002;0.000000e+000
5.014225e+002;0.000000e+000
5.033510e+002;0.000000e+000
5.052796e+002;0.000000e+000
5.072081e+002;0.000000e+000
5.091367e+002;0.000000e+000
5.110652e+002;0.000000e+000
5.129938e+002;0.000000e+000
5.149223e+002;0.000000e+000
5.168509e+002;0.000000e+000
5.187794e+002;0.000000e+000
5.207079e+002;0.000000e+000
5.226365e+002;0.000000e+000
5.245651e+002;0.000000e+000
5.264936e+002;0.000000e+000
5.284222e+002;0.000000e+000
5.303507e+002;0.000000e+000
5.322792e+002;0.000000e+000
5.342078e+002;0.000000e+000
5.361364e+002;0.000000e+000
5.380649e+002;0.000000e+000
5.399935e+002;0.000000e+000
5.419220e+002;0.000000e+000
5.438505e+002;0.000000e+000
5.457791e+002;0.000000e+000
5.477076e+002;0.000000e+000
5.496362e+002;0.000000e+000
5.515648e+002;0.000000e+000
5.534933e+002;0.000000e+000
5.554218e+002;0.000000e+000
5.573504e+002;0.000000e+000
5.592789e+002;0.000000e+000
5.612075e+002;0.000000e+000
5.631360e+002;0.000000e+000
5.650646e+002;0.000000e+000
5.669931e+002;0.000000e+000
5.689217e+002;0.000000e+000
5.708502e+002;0.000000e+000
5.727787e+002;0.000000e+000
5.747073e+002;0.000000e+000
5.766359e+002;0.000000e+000
5.785644e+002;0.000000e+000
5.804930e+002;0.000000e+000
5.824215e+002;0.000000e+000
5.843500e+002;0.000000e+000
5.862786e+002;0.000000e+000
5.882072e+002;0.000000e+000
5.901357e+002;0.000000e+000
5.920643e+002;0.000000e+000
5.939928e+002;0.000000e+000
5.959213e+002;0.000000e+000
5.978499e+002;0.000000e+000
5.997784e+002;5.762551e-002
6.017070e+002;6.168709e-002
6.036355e+002;6.388301e-002
6.055641e+002;6.370275e-002
6.074926e+002;5.945724e-002
6.094211e+002;5.811647e-002
6.113497e+002;6.048806e-002
6.132783e+002;6.204727e-002
6.152068e+002;6.038448e-002
6.171354e+002;5.985611e-002
6.190639e+002;5.923058e-002
6.209924e+002;6.043649e-002
6.229210e+002;6.417655e-002
6.248495e+002;6.423402e-002
6.267781e+002;6.412040e-002
6.287067e+002;6.295681e-002
6.306352e+002;6.382728e-002
6.325637e+002;6.379281e-002
6.344923e+002;6.130508e-002
6.364208e+002;6.003994e-002
6.383494e+002;6.182040e-002
6.402780e+002;6.218524e-002
6.422065e+002;6.109382e-002
6.441350e+002;6.232218e-002
6.460636e+002;6.197259e-002
6.479921e+002;5.938384e-002
6.499207e+002;5.800160e-002
6.518492e+002;5.657820e-002
6.537778e+002;5.741277e-002
6.557063e+002;5.738119e-002
6.576349e+002;5.857095e-002
6.595634e+002;5.892802e-002
6.614919e+002;5.791130e-002
6.634205e+002;5.572872e-002
6.653491e+002;5.554843e-002
6.672776e+002;5.484004e-002
6.692062e+002;5.473201e-002
6.711347e+002;5.678206e-002
6.730632e+002;5.837382e-002
6.749918e+002;5.733442e-002
6.769203e+002;5.675469e-002
6.788489e+002;5.698078e-002
6.807775e+002;5.671002e-002
6.827060e+002;5.671874e-002
6.846345e+002;5.596019e-002
6.865631e+002;5.522611e-002
6.884916e+002;5.529719e-002
6.904202e+002;5.525094e-002
6.923488e+002;5.438630e-002
6.942773e+002;5.339131e-002
6.962058e+002;5.352351e-002
6.981344e+002;5.359106e-002
7.000629e+002;5.360170e-002
7.019915e+002;5.238311e-002
7.039200e+002;5.165120e-002
7.058486e+002;5.224366e-002
7.077771e+002;5.279122e-002
7.097057e+002;5.351677e-002
7.116342e+002;5.435731e-002
7.135627e+002;5.541214e-002
7.154913e+002;5.547041e-002
7.174199e+002;5.480549e-002
7.193484e+002;5.435610e-002
7.212770e+002;5.432880e-002
7.232055e+002;5.516960e-002
7.251340e+002;5.716556e-002
7.270626e+002;5.914191e-002
7.289911e+002;5.943501e-002
7.309197e+002;5.981952e-002
7.328483e+002;6.044815e-002
7.347768e+002;6.027449e-002
7.367053e+002;6.003420e-002
7.386339e+002;6.035935e-002
7.405624e+002;6.169461e-002
7.424910e+002;6.227410e-002
7.444196e+002;6.185646e-002
7.463481e+002;6.257154e-002
7.482766e+002;6.290078e-002
7.502052e+002;6.330144e-002
7.521337e+002;6.364282e-002
7.540623e+002;6.307200e-002
7.559908e+002;6.351670e-002
7.579194e+002;6.421228e-002
7.598479e+002;6.440350e-002
7.617765e+002;6.510220e-002
7.637050e+002;6.550817e-002
7.656335e+002;6.514797e-002
7.675621e+002;6.492575e-002
7.694907e+002;6.428996e-002
7.714192e+002;6.319615e-002
7.733478e+002;6.237707e-002
7.752763e+002;6.143007e-002
7.772048e+002;6.009318e-002
7.791334e+002;5.807935e-002
7.810620e+002;5.654030e-002
7.829905e+002;5.416801e-002
7.849191e+002;5.112000e-002
7.868476e+002;4.784967e-002
7.887761e+002;4.425338e-002
7.907047e+002;4.125309e-002
7.926332e+002;3.857916e-002
7.945618e+002;3.605730e-002
7.964903e+002;3.437927e-002
7.984189e+002;3.299710e-002
8.003474e+002;3.214056e-002
8.022759e+002;3.210685e-002
8.042045e+002;3.304944e-002
8.061331e+002;3.411779e-002
8.080616e+002;3.528024e-002
8.099902e+002;3.703756e-002
8.119187e+002;3.843741e-002
8.138472e+002;3.988236e-002
8.157758e+002;4.126530e-002
8.177043e+002;4.261171e-002
8.196329e+002;4.413134e-002
8.215615e+002;4.621609e-002
8.234900e+002;4.836189e-002
8.254185e+002;5.136641e-002
8.273471e+002;5.440474e-002
8.292756e+002;5.595703e-002
8.312042e+002;5.748716e-002
8.331328e+002;5.901523e-002
8.350613e+002;5.981865e-002
8.369898e+002;5.954741e-002
8.389184e+002;5.870038e-002
8.408469e+002;5.800452e-002
8.427755e+002;5.739197e-002
8.447040e+002;5.586733e-002
8.466326e+002;5.426873e-002
8.485611e+002;5.315820e-002
8.504897e+002;5.201887e-002
8.524182e+002;5.134052e-002
8.543467e+002;5.035490e-002
8.562753e+002;4.960838e-002
8.582039e+002;4.934749e-002
8.601324e+002;4.863468e-002
8.620610e+002;4.826116e-002
8.639895e+002;4.838967e-002
8.659180e+002;4.823154e-002
8.678466e+002;4.760699e-002
8.697751e+002;4.699246e-002
8.717037e+002;4.685532e-002
8.736323e+002;4.696145e-002
8.755608e+002;4.673775e-002
8.774893e+002;4.650601e-002
8.794179e+002;4.688751e-002
8.813464e+002;4.745731e-002
8.832750e+002;4.738916e-002
8.852036e+002;4.727481e-002
8.871321e+002;4.740128e-002
8.890606e+002;4.798435e-002
8.909892e+002;4.841593e-002
8.929177e+002;4.813217e-002
8.948463e+002;4.817260e-002
8.967748e+002;4.832070e-002
8.987034e+002;4.815931e-002
9.006319e+002;4.810126e-002
9.025605e+002;4.827257e-002
9.044890e+002;4.849639e-002
9.064175e+002;4.853103e-002
9.083461e+002;4.866866e-002
9.102747e+002;4.879944e-002
9.122032e+002;4.899090e-002
9.141318e+002;4.915836e-002
9.160603e+002;4.920585e-002
9.179888e+002;4.908126e-002
9.199174e+002;4.914545e-002
9.218459e+002;4.930369e-002
9.237745e+002;4.949043e-002
9.257031e+002;4.976371e-002
9.276316e+002;4.968661e-002
9.295601e+002;4.980131e-002
9.314887e+002;5.008515e-002
9.334172e+002;5.059164e-002
9.353458e+002;5.084404e-002
9.372744e+002;5.081901e-002
9.392029e+002;5.115027e-002
9.411314e+002;5.162571e-002
9.430600e+002;5.195105e-002
9.449885e+002;5.212291e-002
9.469171e+002;5.246491e-002
9.488456e+002;5.268608e-002
9.507742e+002;5.270962e-002
9.527027e+002;5.311937e-002
9.546313e+002;5.363514e-002
9.565598e+002;5.377343e-002
9.584883e+002;5.360661e-002
9.604169e+002;5.338325e-002
9.623455e+002;5.283088e-002
9.642740e+002;5.248267e-002
9.662026e+002;5.213112e-002
9.681311e+002;5.134608e-002
9.700596e+002;5.091028e-002
9.719882e+002;5.063777e-002
9.739167e+002;5.020662e-002
9.758453e+002;4.979035e-002
9.777739e+002;4.946002e-002
9.797024e+002;4.878591e-002
9.816309e+002;4.835985e-002
9.835595e+002;4.851706e-002
9.854880e+002;4.874877e-002
9.874166e+002;4.861007e-002
9.893452e+002;4.813110e-002
9.912737e+002;4.758296e-002
9.932022e+002;4.735424e-002
9.951307e+002;4.701295e-002
9.970593e+002;4.611696e-002
9.989879e+002;4.541811e-002
1.000916e+003;4.446303e-002
1.002845e+003;4.294686e-002
1.004773e+003;4.155565e-002
1.006702e+003;3.973387e-002
1.008631e+003;3.716272e-002
1.010559e+003;3.449907e-002
1.012488e+003;3.239585e-002
1.014416e+003;3.070243e-002
1.016345e+003;2.975721e-002
1.018273e+003;2.957657e-002
1.020202e+003;3.029815e-002
1.022130e+003;3.191373e-002
1.024059e+003;3.386432e-002
1.025988e+003;3.555838e-002
1.027916e+003;3.774928e-002
1.029845e+003;4.061430e-002
1.031773e+003;4.406803e-002
1.033702e+003;4.684487e-002
1.035630e+003;4.820862e-002
1.037559e+003;4.902925e-002
1.039487e+003;4.913565e-002
1.041416e+003;4.865940e-002
1.043344e+003;4.869983e-002
1.045273e+003;4.927685e-002
1.047202e+003;5.033376e-002
1.049130e+003;5.167255e-002
1.051059e+003;5.305504e-002
1.052987e+003;5.461014e-002
1.054916e+003;5.613168e-002
1.056844e+003;5.772692e-002
1.058773e+003;5.971530e-002
1.060701e+003;6.158173e-002
1.062630e+003;6.309572e-002
1.064558e+003;6.431812e-002
1.066487e+003;6.484787e-002
1.068416e+003;6.498485e-002
1.070344e+003;6.516606e-002
1.072273e+003;6.449529e-002
1.074201e+003;6.310392e-002
1.076130e+003;6.194232e-002
1.078058e+003;6.038497e-002
1.079987e+003;5.878527e-002
1.081915e+003;5.709035e-002
1.083844e+003;5.460120e-002
1.085773e+003;5.212589e-002
1.087701e+003;5.106394e-002
1.089630e+003;5.010155e-002
1.091558e+003;4.822269e-002
1.093487e+003;4.695535e-002
1.095415e+003;4.701151e-002
1.097344e+003;4.710069e-002
1.099272e+003;4.692143e-002
1.101201e+003;4.726538e-002
1.103129e+003;4.847731e-002
1.105058e+003;4.963375e-002
1.106987e+003;4.991459e-002
1.108915e+003;4.981041e-002
1.110844e+003;5.032722e-002
1.112772e+003;5.113782e-002
1.114701e+003;5.129052e-002
1.116629e+003;5.093911e-002
1.118558e+003;5.092045e-002
1.120486e+003;5.094593e-002
1.122415e+003;5.059853e-002
1.124344e+003;5.011137e-002
1.126272e+003;4.902306e-002
1.128201e+003;4.820636e-002
1.130129e+003;4.795057e-002
1.132058e+003;4.811973e-002
1.133986e+003;4.833207e-002
1.135915e+003;4.917628e-002
1.137843e+003;5.011829e-002
1.139772e+003;5.102232e-002
1.141700e+003;5.232248e-002
1.143629e+003;5.467011e-002
1.145557e+003;5.743554e-002
1.147486e+003;6.058260e-002
1.149415e+003;6.412255e-002
1.151343e+003;6.775255e-002
1.153272e+003;7.124817e-002
1.155200e+003;7.466514e-002
1.157129e+003;7.798953e-002
1.159057e+003;8.115990e-002
1.160986e+003;8.496687e-002
1.162914e+003;8.853324e-002
1.164843e+003;9.074483e-002
1.166771e+003;9.146941e-002
1.168700e+003;9.146577e-002
1.170629e+003;9.167164e-002
1.172557e+003;9.129586e-002
1.174486e+003;8.953319e-002
1.176414e+003;8.806203e-002
1.178343e+003;8.736201e-002
1.180271e+003;8.664963e-002
1.182200e+003;8.552486e-002
1.184128e+003;8.394067e-002
1.186057e+003;8.272302e-002
1.187986e+003;8.256987e-002
1.189914e+003;8.300006e-002
1.191843e+003;8.383311e-002
1.193771e+003;8.495023e-002
1.195700e+003;8.609504e-002
1.197628e+003;8.712526e-002
1.199557e+003;8.729217e-002
1.201485e+003;8.676755e-002
1.203414e+003;8.632723e-002
1.205343e+003;8.616517e-002
1.207271e+003;8.604269e-002
1.209200e+003;8.558974e-002
1.211128e+003;8.524583e-002
1.213057e+003;8.503767e-002
1.214985e+003;8.529241e-002
1.216914e+003;8.598093e-002
1.218842e+003;8.645704e-002
1.220771e+003;8.673369e-002
1.222699e+003;8.700671e-002
1.224628e+003;8.683695e-002
1.226557e+003;8.634300e-002
1.228485e+003;8.609965e-002
1.230414e+003;8.558773e-002
1.232342e+003;8.450881e-002
1.234271e+003;8.419327e-002
1.236199e+003;8.410668e-002
1.238128e+003;8.363900e-002
1.240056e+003;8.313598e-002
1.241985e+003;8.286399e-002
1.243913e+003;8.224657e-002
1.245842e+003;8.145382e-002
1.247771e+003;8.016818e-002
1.249699e+003;7.855470e-002
1.251628e+003;7.653472e-002
1.253556e+003;7.335230e-002
1.255485e+003;6.915852e-002
1.257413e+003;6.491020e-002
1.259342e+003;6.185941e-002
1.261270e+003;6.104275e-002
1.263199e+003;6.292686e-002
1.265127e+003;6.662076e-002
1.267056e+003;7.016125e-002
1.268985e+003;7.297809e-002
1.270913e+003;7.505385e-002
1.272842e+003;7.599249e-002
1.274770e+003;7.576162e-002
1.276699e+003;7.511100e-002
1.278627e+003;7.425217e-002
1.280556e+003;7.318572e-002
1.282484e+003;7.231095e-002
1.284413e+003;7.143631e-002
1.286342e+003;7.062411e-002
1.288270e+003;7.008143e-002
1.290199e+003;6.956551e-002
1.292127e+003;6.887906e-002
1.294056e+003;6.786627e-002
1.295984e+003;6.718551e-002
1.297913e+003;6.710039e-002
1.299841e+003;6.694052e-002
1.301770e+003;6.662532e-002
1.303698e+003;6.634150e-002
1.305627e+003;6.623775e-002
1.307556e+003;6.644929e-002
1.309484e+003;6.639559e-002
1.311413e+003;6.593093e-002
1.313341e+003;6.563191e-002
1.315270e+003;6.561033e-002
1.317198e+003;6.538329e-002
1.319127e+003;6.533086e-002
1.321055e+003;6.583733e-002
1.322984e+003;6.626032e-002
1.324912e+003;6.648123e-002
1.326841e+003;6.662571e-002
1.328770e+003;6.693871e-002
1.330698e+003;6.714792e-002
1.332627e+003;6.711753e-002
1.334555e+003;6.712808e-002
1.336484e+003;6.708067e-002
1.338412e+003;6.697237e-002
1.340341e+003;6.756038e-002
1.342269e+003;6.858302e-002
1.344198e+003;6.932446e-002
1.346126e+003;6.985635e-002
1.348055e+003;7.043807e-002
1.349984e+003;7.099045e-002
1.351912e+003;7.129630e-002
1.353841e+003;7.148919e-002
1.355769e+003;7.154494e-002
1.357698e+003;7.173657e-002
1.359626e+003;7.154760e-002
1.361555e+003;7.069628e-002
1.363483e+003;7.042681e-002
1.365412e+003;7.038469e-002
1.367341e+003;6.949043e-002
1.369269e+003;6.865911e-002
1.371198e+003;6.792950e-002
1.373126e+003;6.677093e-002
1.375055e+003;6.605713e-002
1.376983e+003;6.558293e-002
1.378912e+003;6.464453e-002
1.380840e+003;6.354961e-002
1.382769e+003;6.248981e-002
1.384698e+003;6.107780e-002
1.386626e+003;5.893227e-002
1.388555e+003;5.761192e-002
1.390483e+003;5.649732e-002
1.392412e+003;5.400484e-002
1.394340e+003;5.087079e-002
1.396269e+003;4.924579e-002
1.398197e+003;4.781039e-002
1.400126e+003;4.702569e-002
1.402054e+003;4.678572e-002
1.403983e+003;4.603038e-002
1.405911e+003;4.568570e-002
1.407840e+003;4.563443e-002
1.409769e+003;4.555465e-002
1.411697e+003;4.582785e-002
1.413626e+003;4.646861e-002
1.415554e+003;4.710574e-002
1.417483e+003;4.687942e-002
1.419411e+003;4.758211e-002
1.421340e+003;5.106965e-002
1.423268e+003;5.460060e-002
1.425197e+003;5.881969e-002
1.427125e+003;6.384946e-002
1.429054e+003;6.863820e-002
1.430983e+003;7.369150e-002
1.432911e+003;7.871839e-002
1.434840e+003;8.171389e-002
1.436768e+003;8.426097e-002
1.438697e+003;8.947410e-002
1.440625e+003;9.463368e-002
1.442554e+003;9.894381e-002
1.444482e+003;1.028331e-001
1.446411e+003;1.062035e-001
1.448340e+003;1.092369e-001
1.450268e+003;1.112406e-001
1.452197e+003;1.107626e-001
1.454125e+003;1.065003e-001
1.456054e+003;9.808421e-002
1.457982e+003;9.145428e-002
1.459911e+003;8.679402e-002
1.461839e+003;8.024160e-002
1.463768e+003;7.204714e-002
1.465697e+003;6.555010e-002
1.467625e+003;6.179251e-002
1.469554e+003;5.774315e-002
1.471482e+003;5.264632e-002
1.473411e+003;4.957064e-002
1.475339e+003;4.881101e-002
1.477268e+003;4.804793e-002
1.479196e+003;4.729860e-002
1.481125e+003;4.678472e-002
1.483053e+003;4.656963e-002
1.484982e+003;4.584873e-002
1.486911e+003;4.412554e-002
1.488839e+003;4.214610e-002
1.490768e+003;4.155095e-002
1.492696e+003;4.207754e-002
1.494625e+003;4.048236e-002
1.496553e+003;3.884279e-002
1.498482e+003;3.959417e-002
1.500410e+003;4.025041e-002
1.502339e+003;3.959196e-002
1.504267e+003;3.610454e-002
1.506196e+003;3.250943e-002
1.508125e+003;3.387575e-002
1.510053e+003;3.662128e-002
1.511982e+003;3.750980e-002
1.513910e+003;3.767903e-002
1.515839e+003;3.712352e-002
1.517767e+003;3.699138e-002
1.519696e+003;3.561351e-002
1.521624e+003;3.454757e-002
1.523553e+003;3.629188e-002
1.525481e+003;3.705986e-002
1.527410e+003;3.815496e-002
1.529339e+003;3.947314e-002
1.531267e+003;3.953937e-002
1.533196e+003;3.920068e-002
1.535124e+003;4.079719e-002
1.537053e+003;4.031057e-002
1.538981e+003;3.707935e-002
1.540910e+003;3.751749e-002
1.542838e+003;4.015590e-002
1.544767e+003;4.170659e-002
1.546695e+003;4.272449e-002
1.548624e+003;4.282932e-002
1.550553e+003;4.293311e-002
1.552481e+003;4.241911e-002
1.554410e+003;4.105995e-002
1.556338e+003;3.887841e-002
1.558267e+003;3.449889e-002
1.560195e+003;3.521806e-002
1.562124e+003;3.943207e-002
1.564052e+003;4.016917e-002
1.565981e+003;3.938940e-002
1.567910e+003;3.811126e-002
1.569838e+003;3.727914e-002
1.571767e+003;3.838576e-002
1.573695e+003;3.796959e-002
1.575624e+003;3.600110e-002
1.577552e+003;3.767654e-002
1.579481e+003;3.981902e-002
1.581409e+003;3.949822e-002
1.583338e+003;3.819613e-002
1.585266e+003;3.680961e-002
1.587195e+003;3.615506e-002
1.589124e+003;3.591774e-002
1.591052e+003;3.579697e-002
1.592981e+003;3.557852e-002
1.594909e+003;3.572599e-002
1.596838e+003;3.640407e-002
1.598766e+003;3.723553e-002
1.600695e+003;3.791752e-002
1.602623e+003;3.862197e-002
1.604552e+003;3.922439e-002
1.606480e+003;3.939811e-002
1.608409e+003;3.925312e-002
1.610338e+003;3.898982e-002
1.612266e+003;3.870853e-002
1.614195e+003;3.734731e-002
1.616123e+003;3.498076e-002
1.618052e+003;3.593286e-002
1.619980e+003;3.741657e-002
1.621909e+003;3.664392e-002
1.623837e+003;3.626508e-002
1.625766e+003;3.692114e-002
1.627694e+003;3.727982e-002
1.629623e+003;3.781066e-002
1.631552e+003;3.785375e-002
1.633480e+003;3.580528e-002
1.635409e+003;3.388897e-002
1.637337e+003;3.562703e-002
1.639266e+003;3.747281e-002
1.641194e+003;3.784515e-002
1.643123e+003;3.741614e-002
1.645051e+003;3.573804e-002
1.646980e+003;3.526428e-002
1.648909e+003;3.689246e-002
1.650837e+003;3.468960e-002
1.652766e+003;3.084356e-002
1.654694e+003;3.539723e-002
1.656623e+003;4.096217e-002
1.658551e+003;4.235112e-002
1.660480e+003;4.220631e-002
1.662408e+003;4.252528e-002
1.664337e+003;4.423526e-002
1.666266e+003;4.507921e-002
1.668194e+003;4.381401e-002
1.670123e+003;4.337906e-002
1.672051e+003;4.413728e-002
1.673980e+003;4.300996e-002
1.675908e+003;4.219780e-002
1.677837e+003;4.302383e-002
1.679765e+003;4.250563e-002
1.681694e+003;3.984408e-002
1.683622e+003;3.525465e-002
1.685551e+003;3.564573e-002
1.687479e+003;3.877283e-002
1.689408e+003;3.944582e-002
1.691337e+003;3.959613e-002
1.693265e+003;3.834276e-002
1.695194e+003;3.587437e-002
1.697122e+003;3.675382e-002
1.699051e+003;3.648226e-002
1.700979e+003;3.751586e-002
1.702908e+003;4.233037e-002
1.704836e+003;4.513821e-002
1.706765e+003;4.878146e-002
1.708693e+003;5.326933e-002
1.710622e+003;5.788018e-002
1.712551e+003;6.218107e-002
1.714479e+003;6.578640e-002
1.716408e+003;6.898508e-002
1.718336e+003;7.513992e-002
1.720265e+003;8.364571e-002
1.722193e+003;9.002626e-002
1.724122e+003;9.489550e-002
1.726050e+003;9.903966e-002
1.727979e+003;1.014963e-001
1.729908e+003;1.022752e-001
1.731836e+003;9.996392e-002
1.733765e+003;9.554881e-002
1.735693e+003;9.402910e-002
1.737622e+003;9.074911e-002
1.739550e+003;8.404343e-002
1.741479e+003;7.799777e-002
1.743407e+003;7.187875e-002
1.745336e+003;6.603040e-002
1.747265e+003;6.011213e-002
1.749193e+003;5.410691e-002
1.751122e+003;4.904149e-002
1.753050e+003;4.598400e-002
1.754979e+003;4.254136e-002
1.756907e+003;3.873102e-002
1.758836e+003;3.576240e-002
1.760764e+003;3.258982e-002
1.762693e+003;3.040492e-002
1.764621e+003;2.951269e-002
1.766550e+003;2.787600e-002
1.768479e+003;2.653241e-002
1.770407e+003;2.479009e-002
1.772336e+003;2.311326e-002
1.774264e+003;2.390132e-002
1.776193e+003;2.451476e-002
1.778121e+003;2.418954e-002
1.780050e+003;2.363660e-002
1.781978e+003;2.345533e-002
1.783907e+003;2.302947e-002
1.785835e+003;2.280571e-002
1.787764e+003;2.285768e-002
1.789693e+003;2.190354e-002
1.791621e+003;2.041675e-002
1.793550e+003;2.055159e-002
1.795478e+003;2.149562e-002
1.797407e+003;2.109073e-002
1.799335e+003;2.033608e-002
1.801264e+003;2.016962e-002
1.803192e+003;2.063594e-002
1.805121e+003;2.090079e-002
1.807049e+003;2.076741e-002
1.808978e+003;2.024120e-002
1.810907e+003;1.982998e-002
1.812835e+003;1.978708e-002
1.814764e+003;1.980380e-002
1.816692e+003;1.964274e-002
1.818621e+003;1.964420e-002
1.820549e+003;1.957768e-002
1.822478e+003;1.940021e-002
1.824406e+003;1.884976e-002
1.826335e+003;1.865682e-002
1.828264e+003;1.812065e-002
1.830192e+003;1.786547e-002
1.832121e+003;1.851444e-002
1.834049e+003;1.870245e-002
1.835978e+003;1.839233e-002
1.837906e+003;1.828989e-002
1.839835e+003;1.814808e-002
1.841763e+003;1.740162e-002
1.843692e+003;1.633929e-002
1.845620e+003;1.692084e-002
1.847549e+003;1.755643e-002
1.849478e+003;1.763486e-002
1.851406e+003;1.765453e-002
1.853335e+003;1.755861e-002
1.855263e+003;1.742932e-002
1.857192e+003;1.723332e-002
1.859120e+003;1.710998e-002
1.861049e+003;1.730893e-002
1.862977e+003;1.736020e-002
1.864906e+003;1.709182e-002
1.866834e+003;1.657616e-002
1.868763e+003;1.608505e-002
1.870692e+003;1.668595e-002
1.872620e+003;1.722170e-002
1.874549e+003;1.698038e-002
1.876477e+003;1.690451e-002
1.878406e+003;1.683796e-002
1.880334e+003;1.674718e-002
1.882263e+003;1.674322e-002
1.884191e+003;1.680862e-002
1.886120e+003;1.670437e-002
1.888048e+003;1.652298e-002
1.889977e+003;1.657733e-002
1.891906e+003;1.679870e-002
1.893834e+003;1.682925e-002
1.895763e+003;1.694172e-002
1.897691e+003;1.709747e-002
1.899620e+003;1.699261e-002
1.901548e+003;1.671825e-002
1.903477e+003;1.665397e-002
1.905405e+003;1.655623e-002
1.907334e+003;1.645787e-002
1.909262e+003;1.616277e-002
1.911191e+003;1.600113e-002
1.913120e+003;1.629832e-002
1.915048e+003;1.648368e-002
1.916977e+003;1.583690e-002
1.918905e+003;1.584188e-002
1.920834e+003;1.614189e-002
1.922762e+003;1.608901e-002
1.924691e+003;1.600708e-002
1.926619e+003;1.598545e-002
1.928548e+003;1.613488e-002
1.930477e+003;1.605747e-002
1.932405e+003;1.590718e-002
1.934334e+003;1.590220e-002
1.936262e+003;1.594812e-002
1.938191e+003;1.579701e-002
1.940119e+003;1.558024e-002
1.942048e+003;1.541786e-002
1.943976e+003;1.543760e-002
1.945905e+003;1.581632e-002
1.947833e+003;1.618512e-002
1.949762e+003;1.610802e-002
1.951691e+003;1.580171e-002
1.953619e+003;1.584587e-002
1.955548e+003;1.599566e-002
1.957476e+003;1.614506e-002
1.959405e+003;1.624108e-002
1.961333e+003;1.623853e-002
1.963262e+003;1.621645e-002
1.965190e+003;1.623826e-002
1.967119e+003;1.612924e-002
1.969047e+003;1.624586e-002
1.970976e+003;1.642796e-002
1.972905e+003;1.634666e-002
1.974833e+003;1.640040e-002
1.976762e+003;1.645776e-002
1.978690e+003;1.664718e-002
1.980619e+003;1.704185e-002
1.982547e+003;1.708830e-002
1.984476e+003;1.707821e-002
1.986404e+003;1.716575e-002
1.988333e+003;1.720925e-002
1.990261e+003;1.712725e-002
1.992190e+003;1.700636e-002
1.994119e+003;1.706166e-002
1.996047e+003;1.707534e-002
1.997976e+003;1.702648e-002
1.999904e+003;1.714758e-002
2.001833e+003;1.738727e-002
2.003761e+003;1.747481e-002
2.005690e+003;1.755523e-002
2.007618e+003;1.748951e-002
2.009547e+003;1.731917e-002
2.011476e+003;1.726579e-002
2.013404e+003;1.745677e-002
2.015333e+003;1.763421e-002
2.017261e+003;1.753287e-002
2.019190e+003;1.762779e-002
2.021118e+003;1.781064e-002
2.023047e+003;1.769122e-002
2.024975e+003;1.751535e-002
2.026904e+003;1.741345e-002
2.028833e+003;1.747136e-002
2.030761e+003;1.762965e-002
2.032690e+003;1.776622e-002
2.034618e+003;1.771779e-002
2.036547e+003;1.745829e-002
2.038475e+003;1.732644e-002
2.040404e+003;1.740911e-002
2.042332e+003;1.764239e-002
2.044261e+003;1.767758e-002
2.046189e+003;1.773653e-002
2.048118e+003;1.763731e-002
2.050047e+003;1.763459e-002
2.051975e+003;1.788349e-002
2.053904e+003;1.784796e-002
2.055832e+003;1.781976e-002
2.057761e+003;1.778879e-002
2.059689e+003;1.769629e-002
2.061618e+003;1.771796e-002
2.063546e+003;1.787379e-002
2.065475e+003;1.767075e-002
2.067404e+003;1.726238e-002
2.069332e+003;1.722873e-002
2.071260e+003;1.732013e-002
2.073189e+003;1.758873e-002
2.075118e+003;1.779383e-002
2.077046e+003;1.784030e-002
2.078975e+003;1.757603e-002
2.080903e+003;1.690624e-002
2.082832e+003;1.668017e-002
2.084760e+003;1.706700e-002
2.086689e+003;1.746467e-002
2.088617e+003;1.757137e-002
2.090546e+003;1.754667e-002
2.092475e+003;1.765295e-002
2.094403e+003;1.771655e-002
2.096332e+003;1.741049e-002
2.098260e+003;1.710688e-002
2.100189e+003;1.730555e-002
2.102117e+003;1.753546e-002
2.104046e+003;1.744884e-002
2.105974e+003;1.738079e-002
2.107903e+003;1.748889e-002
2.109832e+003;1.745964e-002
2.111760e+003;1.707776e-002
2.113688e+003;1.669525e-002
2.115617e+003;1.652226e-002
2.117546e+003;1.665941e-002
2.119474e+003;1.681385e-002
2.121403e+003;1.676099e-002
2.123331e+003;1.669556e-002
2.125260e+003;1.677889e-002
2.127188e+003;1.689418e-002
2.129117e+003;1.685360e-002
2.131045e+003;1.700935e-002
2.132974e+003;1.701725e-002
2.134903e+003;1.695888e-002
2.136831e+003;1.695433e-002
2.138760e+003;1.717768e-002
2.140688e+003;1.728079e-002
2.142617e+003;1.708934e-002
2.144545e+003;1.700508e-002
2.146474e+003;1.679742e-002
2.148402e+003;1.676367e-002
2.150331e+003;1.685832e-002
2.152260e+003;1.703148e-002
2.154188e+003;1.688474e-002
2.156117e+003;1.664464e-002
2.158045e+003;1.679291e-002
2.159974e+003;1.683800e-002
2.161902e+003;1.690021e-002
2.163831e+003;1.717575e-002
2.165759e+003;1.730855e-002
2.167688e+003;1.730862e-002
2.169616e+003;1.728400e-002
2.171545e+003;1.716330e-002
2.173474e+003;1.701352e-002
2.175402e+003;1.716916e-002
2.177331e+003;1.765695e-002
2.179259e+003;1.810030e-002
2.181188e+003;1.845867e-002
2.183116e+003;1.879111e-002
2.185045e+003;1.980071e-002
2.186973e+003;2.103950e-002
2.188902e+003;2.164170e-002
2.190831e+003;2.198436e-002
2.192759e+003;2.210451e-002
2.194688e+003;2.180994e-002
2.196616e+003;2.138886e-002
2.198545e+003;2.096505e-002
2.200473e+003;2.072563e-002
2.202402e+003;2.055280e-002
2.204330e+003;2.043630e-002
2.206259e+003;2.084906e-002
2.208188e+003;2.118793e-002
2.210116e+003;2.144271e-002
2.212044e+003;2.162028e-002
2.213973e+003;2.177145e-002
2.215902e+003;2.208949e-002
2.217830e+003;2.256469e-002
2.219759e+003;2.334260e-002
2.221687e+003;2.442779e-002
2.223616e+003;2.588608e-002
2.225544e+003;2.821035e-002
2.227473e+003;3.196855e-002
2.229401e+003;3.756282e-002
2.231330e+003;4.538669e-002
2.233259e+003;5.494238e-002
2.235187e+003;6.476305e-002
2.237116e+003;7.348810e-002
2.239044e+003;8.007367e-002
2.240973e+003;8.353513e-002
2.242901e+003;8.343803e-002
2.244830e+003;8.040863e-002
2.246758e+003;7.555732e-002
2.248687e+003;6.999426e-002
2.250615e+003;6.396059e-002
2.252544e+003;5.799581e-002
2.254473e+003;5.268459e-002
2.256401e+003;4.751519e-002
2.258330e+003;4.259944e-002
2.260258e+003;3.844889e-002
2.262187e+003;3.514994e-002
2.264115e+003;3.236933e-002
2.266044e+003;3.030973e-002
2.267972e+003;2.865390e-002
2.269901e+003;2.725103e-002
2.271830e+003;2.595808e-002
2.273758e+003;2.510013e-002
2.275687e+003;2.462798e-002
2.277615e+003;2.417676e-002
2.279544e+003;2.382771e-002
2.281472e+003;2.357678e-002
2.283401e+003;2.301060e-002
2.285329e+003;2.243292e-002
2.287258e+003;2.231501e-002
2.289187e+003;2.222544e-002
2.291115e+003;2.209535e-002
2.293043e+003;2.212289e-002
2.294972e+003;2.208646e-002
2.296901e+003;2.212840e-002
2.298829e+003;2.207450e-002
2.300758e+003;2.180576e-002
2.302686e+003;2.158173e-002
2.304615e+003;2.136683e-002
2.306543e+003;2.125459e-002
2.308472e+003;2.112531e-002
2.310400e+003;2.102041e-002
2.312329e+003;2.075027e-002
2.314258e+003;2.052539e-002
2.316186e+003;2.090382e-002
2.318115e+003;2.107348e-002
2.320043e+003;2.078500e-002
2.321972e+003;2.061708e-002
2.323900e+003;2.051150e-002
2.325829e+003;2.033900e-002
2.327757e+003;2.010663e-002
2.329686e+003;2.007859e-002
2.331615e+003;2.008508e-002
2.333543e+003;1.988676e-002
2.335472e+003;1.977072e-002
2.337400e+003;1.964284e-002
2.339329e+003;1.955418e-002
2.341257e+003;1.948812e-002
2.343186e+003;1.974565e-002
2.345114e+003;2.018746e-002
2.347043e+003;2.058807e-002
2.348971e+003;2.095281e-002
2.350900e+003;2.094022e-002
2.352829e+003;2.041581e-002
2.354757e+003;1.987514e-002
2.356686e+003;1.946535e-002
2.358614e+003;1.900118e-002
2.360543e+003;1.896750e-002
2.362471e+003;1.909618e-002
2.364400e+003;1.904594e-002
2.366328e+003;1.942214e-002
2.368257e+003;1.985242e-002
2.370186e+003;2.005732e-002
2.372114e+003;2.037976e-002
2.374042e+003;2.089356e-002
2.375971e+003;2.123104e-002
2.377900e+003;2.137883e-002
2.379828e+003;2.161070e-002
2.381757e+003;2.169582e-002
2.383685e+003;2.174609e-002
2.385614e+003;2.184085e-002
2.387542e+003;2.177051e-002
2.389471e+003;2.163731e-002
2.391399e+003;2.159757e-002
2.393328e+003;2.161923e-002
2.395257e+003;2.157302e-002
2.397185e+003;2.131434e-002
2.399114e+003;2.106806e-002
2.401042e+003;2.114740e-002
2.402971e+003;2.136059e-002
2.404899e+003;2.154736e-002
2.406828e+003;2.141635e-002
2.408756e+003;2.121381e-002
2.410685e+003;2.132475e-002
2.412614e+003;2.152908e-002
2.414542e+003;2.166200e-002
2.416471e+003;2.157550e-002
2.418399e+003;2.157759e-002
2.420328e+003;2.160482e-002
2.422256e+003;2.144399e-002
2.424185e+003;2.159757e-002
2.426113e+003;2.160969e-002
2.428042e+003;2.155962e-002
2.429970e+003;2.167736e-002
2.431899e+003;2.173797e-002
2.433828e+003;2.174368e-002
2.435756e+003;2.167722e-002
2.437685e+003;2.175636e-002
2.439613e+003;2.186151e-002
2.441542e+003;2.174974e-002
2.443470e+003;2.161081e-002
2.445399e+003;2.148069e-002
2.447327e+003;2.161791e-002
2.449256e+003;2.193410e-002
2.451185e+003;2.216428e-002
2.453113e+003;2.210737e-002
2.455042e+003;2.204236e-002
2.456970e+003;2.170512e-002
2.458899e+003;2.162031e-002
2.460827e+003;2.182876e-002
2.462756e+003;2.192932e-002
2.464684e+003;2.191514e-002
2.466613e+003;2.190207e-002
2.468542e+003;2.210207e-002
2.470470e+003;2.232606e-002
2.472398e+003;2.233203e-002
2.474327e+003;2.221993e-002
2.476256e+003;2.243292e-002
2.478184e+003;2.261446e-002
2.480113e+003;2.282743e-002
2.482041e+003;2.302126e-002
2.483970e+003;2.284049e-002
2.485898e+003;2.290535e-002
2.487827e+003;2.317029e-002
2.489755e+003;2.320192e-002
2.491684e+003;2.333882e-002
2.493613e+003;2.369815e-002
2.495541e+003;2.390402e-002
2.497470e+003;2.406964e-002
2.499398e+003;2.427636e-002
2.501327e+003;2.419904e-002
2.503255e+003;2.411356e-002
2.505184e+003;2.425558e-002
2.507112e+003;2.433046e-002
2.509041e+003;2.434760e-002
2.510969e+003;2.425593e-002
2.512898e+003;2.412004e-002
2.514827e+003;2.411447e-002
2.516755e+003;2.413619e-002
2.518684e+003;2.394334e-002
2.520612e+003;2.386558e-002
2.522541e+003;2.394103e-002
2.524469e+003;2.399551e-002
2.526398e+003;2.400927e-002
2.528326e+003;2.401995e-002
2.530255e+003;2.402002e-002
2.532184e+003;2.396837e-002
2.534112e+003;2.397310e-002
2.536041e+003;2.403914e-002
2.537969e+003;2.384377e-002
2.539898e+003;2.368744e-002
2.541826e+003;2.381311e-002
2.543755e+003;2.390882e-002
2.545683e+003;2.409006e-002
2.547612e+003;2.417987e-002
2.549541e+003;2.396525e-002
2.551469e+003;2.382067e-002
2.553397e+003;2.365238e-002
2.555326e+003;2.335735e-002
2.557255e+003;2.321384e-002
2.559183e+003;2.321888e-002
2.561112e+003;2.322192e-002
2.563040e+003;2.308516e-002
2.564969e+003;2.298091e-002
2.566897e+003;2.295499e-002
2.568826e+003;2.280459e-002
2.570754e+003;2.264909e-002
2.572683e+003;2.272917e-002
2.574612e+003;2.288195e-002
2.576540e+003;2.273050e-002
2.578469e+003;2.223838e-002
2.580397e+003;2.187503e-002
2.582326e+003;2.201921e-002
2.584254e+003;2.224030e-002
2.586183e+003;2.226537e-002
2.588111e+003;2.208701e-002
2.590040e+003;2.185569e-002
2.591969e+003;2.157759e-002
2.593897e+003;2.158413e-002
2.595826e+003;2.171703e-002
2.597754e+003;2.181127e-002
2.599683e+003;2.166782e-002
2.601611e+003;2.157605e-002
2.603540e+003;2.171073e-002
2.605468e+003;2.158615e-002
2.607397e+003;2.154698e-002
2.609325e+003;2.173236e-002
2.611254e+003;2.209141e-002
2.613183e+003;2.242989e-002
2.615111e+003;2.255383e-002
2.617040e+003;2.204448e-002
2.618968e+003;2.173595e-002
2.620897e+003;2.215992e-002
2.622825e+003;2.240892e-002
2.624754e+003;2.214670e-002
2.626682e+003;2.196198e-002
2.628611e+003;2.196358e-002
2.630540e+003;2.226209e-002
2.632468e+003;2.260912e-002
2.634396e+003;2.254200e-002
2.636325e+003;2.240693e-002
2.638254e+003;2.238854e-002
2.640182e+003;2.222628e-002
2.642111e+003;2.202001e-002
2.644039e+003;2.198153e-002
2.645968e+003;2.208527e-002
2.647896e+003;2.201684e-002
2.649825e+003;2.206990e-002
2.651753e+003;2.208478e-002
2.653682e+003;2.188217e-002
2.655611e+003;2.192340e-002
2.657539e+003;2.209786e-002
2.659468e+003;2.188047e-002
2.661396e+003;2.161847e-002
2.663325e+003;2.187733e-002
2.665253e+003;2.214869e-002
2.667182e+003;2.213868e-002
2.669110e+003;2.203232e-002
2.671039e+003;2.176110e-002
2.672968e+003;2.164407e-002
2.674896e+003;2.194229e-002
2.676825e+003;2.207575e-002
2.678753e+003;2.181461e-002
2.680682e+003;2.170557e-002
2.682610e+003;2.193469e-002
2.684539e+003;2.220738e-002
2.686467e+003;2.227542e-002
2.688396e+003;2.234522e-002
2.690324e+003;2.241160e-002
2.692253e+003;2.213276e-002
2.694182e+003;2.193410e-002
2.696110e+003;2.197794e-002
2.698039e+003;2.191887e-002
2.699967e+003;2.201674e-002
2.701896e+003;2.208001e-002
2.703824e+003;2.194511e-002
2.705753e+003;2.183855e-002
2.707681e+003;2.168137e-002
2.709610e+003;2.144232e-002
2.711539e+003;2.110653e-002
2.713467e+003;2.122867e-002
2.715396e+003;2.161178e-002
2.717324e+003;2.169279e-002
2.719253e+003;2.138527e-002
2.721181e+003;2.102496e-002
2.723110e+003;2.111508e-002
2.725038e+003;2.103561e-002
2.726967e+003;2.090465e-002
2.728896e+003;2.119492e-002
2.730824e+003;2.120480e-002
2.732752e+003;2.100521e-002
2.734681e+003;2.113425e-002
2.736610e+003;2.103505e-002
2.738538e+003;2.066440e-002
2.740467e+003;2.057705e-002
2.742395e+003;2.071774e-002
2.744324e+003;2.081183e-002
2.746252e+003;2.084586e-002
2.748181e+003;2.058570e-002
2.750109e+003;2.055617e-002
2.752038e+003;2.064526e-002
2.753967e+003;2.041689e-002
2.755895e+003;2.027244e-002
2.757824e+003;2.029011e-002
2.759752e+003;2.025137e-002
2.761681e+003;2.028938e-002
2.763609e+003;2.027501e-002
2.765538e+003;2.005954e-002
2.767466e+003;2.030164e-002
2.769395e+003;2.069255e-002
2.771323e+003;2.080081e-002
2.773252e+003;2.094248e-002
2.775181e+003;2.120209e-002
2.777109e+003;2.130293e-002
2.779038e+003;2.145186e-002
2.780966e+003;2.197296e-002
2.782895e+003;2.224738e-002
2.784823e+003;2.225627e-002
2.786752e+003;2.223971e-002
2.788680e+003;2.240944e-002
2.790609e+003;2.283351e-002
2.792538e+003;2.314905e-002
2.794466e+003;2.351808e-002
2.796395e+003;2.367593e-002
2.798323e+003;2.367124e-002
2.800252e+003;2.401838e-002
2.802180e+003;2.442912e-002
2.804109e+003;2.460722e-002
2.806037e+003;2.452384e-002
2.807966e+003;2.471600e-002
2.809895e+003;2.493735e-002
2.811823e+003;2.506640e-002
2.813751e+003;2.519036e-002
2.815680e+003;2.504099e-002
2.817609e+003;2.482107e-002
2.819537e+003;2.509487e-002
2.821466e+003;2.549174e-002
2.823394e+003;2.551812e-002
2.825323e+003;2.562616e-002
2.827251e+003;2.602189e-002
2.829180e+003;2.645225e-002
2.831108e+003;2.690733e-002
2.833037e+003;2.737276e-002
2.834966e+003;2.800391e-002
2.836894e+003;2.881968e-002
2.838823e+003;2.969941e-002
2.840751e+003;3.102951e-002
2.842680e+003;3.299728e-002
2.844608e+003;3.552562e-002
2.846537e+003;3.864789e-002
2.848465e+003;4.135367e-002
2.850394e+003;4.231722e-002
2.852323e+003;4.195669e-002
2.854251e+003;4.137550e-002
2.856180e+003;4.118325e-002
2.858108e+003;4.085110e-002
2.860037e+003;4.104837e-002
2.861965e+003;4.147238e-002
2.863894e+003;4.135491e-002
2.865822e+003;4.155966e-002
2.867751e+003;4.207316e-002
2.869679e+003;4.228264e-002
2.871608e+003;4.200483e-002
2.873536e+003;4.164882e-002
2.875465e+003;4.152597e-002
2.877394e+003;4.144191e-002
2.879322e+003;4.137838e-002
2.881251e+003;4.116088e-002
2.883179e+003;4.070253e-002
2.885108e+003;4.028796e-002
2.887036e+003;4.072280e-002
2.888965e+003;4.154391e-002
2.890893e+003;4.190184e-002
2.892822e+003;4.244073e-002
2.894750e+003;4.322231e-002
2.896679e+003;4.406048e-002
2.898608e+003;4.478418e-002
2.900536e+003;4.544864e-002
2.902465e+003;4.621273e-002
2.904393e+003;4.776885e-002
2.906322e+003;4.961072e-002
2.908250e+003;5.126031e-002
2.910179e+003;5.281153e-002
2.912107e+003;5.485376e-002
2.914036e+003;5.804197e-002
2.915965e+003;6.041048e-002
2.917893e+003;6.119135e-002
2.919822e+003;6.134622e-002
2.921750e+003;6.129447e-002
2.923679e+003;6.107208e-002
2.925607e+003;6.031701e-002
2.927536e+003;5.988060e-002
2.929464e+003;5.963616e-002
2.931393e+003;5.930775e-002
2.933322e+003;5.905953e-002
2.935250e+003;5.908329e-002
2.937178e+003;5.863257e-002
2.939107e+003;5.788396e-002
2.941036e+003;5.752060e-002
2.942964e+003;5.683724e-002
2.944893e+003;5.570299e-002
2.946821e+003;5.459718e-002
2.948750e+003;5.335163e-002
2.950678e+003;5.237583e-002
2.952607e+003;5.137025e-002
2.954535e+003;5.010661e-002
2.956464e+003;4.862382e-002
2.958393e+003;4.671394e-002
2.960321e+003;4.506532e-002
2.962250e+003;4.400269e-002
2.964178e+003;4.322926e-002
2.966107e+003;4.289624e-002
2.968035e+003;4.269041e-002
2.969964e+003;4.260748e-002
2.971892e+003;4.225258e-002
2.973821e+003;4.198344e-002
2.975750e+003;4.185521e-002
2.977678e+003;4.190378e-002
2.979607e+003;4.187994e-002
2.981535e+003;4.172639e-002
2.983464e+003;4.125753e-002
2.985392e+003;4.066691e-002
2.987321e+003;4.054543e-002
2.989249e+003;4.064348e-002
2.991178e+003;4.049076e-002
2.993106e+003;4.023790e-002
2.995035e+003;3.978013e-002
2.996964e+003;3.907265e-002
2.998892e+003;3.856265e-002
3.000821e+003;3.837305e-002
3.002749e+003;3.824983e-002
3.004678e+003;3.769482e-002
3.006606e+003;3.681884e-002
3.008535e+003;3.612229e-002
3.010463e+003;3.562851e-002
3.012392e+003;3.526266e-002
3.014321e+003;3.471616e-002
3.016249e+003;3.405411e-002
3.018177e+003;3.374176e-002
3.020106e+003;3.343965e-002
3.022035e+003;3.299835e-002
3.023963e+003;3.249686e-002
3.025892e+003;3.203315e-002
3.027820e+003;3.200022e-002
3.029749e+003;3.195881e-002
3.031677e+003;3.163393e-002
3.033606e+003;3.123671e-002
3.035534e+003;3.065909e-002
3.037463e+003;3.045827e-002
3.039392e+003;3.046004e-002
3.041320e+003;2.996793e-002
3.043249e+003;2.956071e-002
3.045177e+003;2.949092e-002
3.047106e+003;2.951588e-002
3.049034e+003;2.888168e-002
3.050963e+003;2.800536e-002
3.052891e+003;2.775547e-002
3.054820e+003;2.770705e-002
3.056749e+003;2.734382e-002
3.058677e+003;2.720305e-002
3.060606e+003;2.733613e-002
3.062534e+003;2.739044e-002
3.064463e+003;2.730342e-002
3.066391e+003;2.674210e-002
3.068320e+003;2.619973e-002
3.070248e+003;2.603797e-002
3.072177e+003;2.567783e-002
3.074105e+003;2.533997e-002
3.076034e+003;2.513454e-002
3.077963e+003;2.470390e-002
3.079891e+003;2.452535e-002
3.081820e+003;2.462899e-002
3.083748e+003;2.490043e-002
3.085677e+003;2.459056e-002
3.087605e+003;2.426245e-002
3.089534e+003;2.440294e-002
3.091462e+003;2.442306e-002
3.093391e+003;2.431729e-002
3.095320e+003;2.441422e-002
3.097248e+003;2.407083e-002
3.099177e+003;2.307052e-002
3.101105e+003;2.280376e-002
3.103034e+003;2.293368e-002
3.104962e+003;2.300299e-002
3.106891e+003;2.301368e-002
3.108819e+003;2.265841e-002
3.110748e+003;2.264266e-002
3.112677e+003;2.281916e-002
3.114605e+003;2.260022e-002
3.116533e+003;2.199370e-002
3.118462e+003;2.185252e-002
3.120391e+003;2.210713e-002
3.122319e+003;2.184395e-002
3.124248e+003;2.169401e-002
3.126176e+003;2.167088e-002
3.128105e+003;2.181001e-002
3.130033e+003;2.171804e-002
3.131962e+003;2.129277e-002
3.133890e+003;2.106701e-002
3.135819e+003;2.112208e-002
3.137748e+003;2.125564e-002
3.139676e+003;2.141848e-002
3.141605e+003;2.124781e-002
3.143533e+003;2.100834e-002
3.145462e+003;2.104587e-002
3.147390e+003;2.117586e-002
3.149319e+003;2.092183e-002
3.151247e+003;2.081312e-002
3.153176e+003;2.045843e-002
3.155104e+003;2.020985e-002
3.157033e+003;2.038858e-002
3.158962e+003;2.092916e-002
3.160890e+003;2.106440e-002
3.162819e+003;2.091348e-002
3.164747e+003;2.069898e-002
3.166676e+003;2.044335e-002
3.168604e+003;2.049615e-002
3.170533e+003;2.030039e-002
3.172461e+003;2.031133e-002
3.174390e+003;2.037775e-002
3.176319e+003;2.060471e-002
3.178247e+003;2.081319e-002
3.180176e+003;2.060603e-002
3.182104e+003;2.033657e-002
3.184033e+003;2.016608e-002
3.185961e+003;2.050816e-002
3.187890e+003;2.094707e-002
3.189818e+003;2.112983e-002
3.191747e+003;2.108364e-002
3.193676e+003;2.090590e-002
3.195604e+003;2.083071e-002
3.197532e+003;2.061322e-002
3.199461e+003;2.070614e-002
3.201390e+003;2.106322e-002
3.203318e+003;2.112792e-002
3.205247e+003;2.129238e-002
3.207175e+003;2.129788e-002
3.209104e+003;2.130348e-002
3.211032e+003;2.137177e-002
3.212961e+003;2.126743e-002
3.214889e+003;2.114583e-002
3.216818e+003;2.122126e-002
3.218747e+003;2.121663e-002
3.220675e+003;2.143014e-002
3.222604e+003;2.166238e-002
3.224532e+003;2.161579e-002
3.226461e+003;2.193040e-002
3.228389e+003;2.229537e-002
3.230318e+003;2.207349e-002
3.232246e+003;2.186210e-002
3.234175e+003;2.186900e-002
3.236104e+003;2.195347e-002
3.238032e+003;2.225432e-002
3.239961e+003;2.229066e-002
3.241889e+003;2.194849e-002
3.243818e+003;2.160558e-002
3.245746e+003;2.157247e-002
3.247675e+003;2.172794e-002
3.249603e+003;2.219852e-002
3.251532e+003;2.255621e-002
3.253460e+003;2.226638e-002
3.255389e+003;2.198192e-002
3.257318e+003;2.169509e-002
3.259246e+003;2.170923e-002
3.261175e+003;2.182148e-002
3.263103e+003;2.168356e-002
3.265032e+003;2.184444e-002
3.266960e+003;2.175657e-002
3.268889e+003;2.135088e-002
3.270817e+003;2.154907e-002
3.272746e+003;2.187193e-002
3.274675e+003;2.190859e-002
3.276603e+003;2.172867e-002
3.278531e+003;2.167569e-002
3.280460e+003;2.180190e-002
3.282389e+003;2.197561e-002
3.284317e+003;2.204542e-002
3.286246e+003;2.188273e-002
3.288174e+003;2.137887e-002
3.290103e+003;2.083853e-002
3.292031e+003;2.089373e-002
3.293960e+003;2.119242e-002
3.295888e+003;2.104434e-002
3.297817e+003;2.088807e-002
3.299746e+003;2.092009e-002
3.301674e+003;2.085980e-002
3.303603e+003;2.100236e-002
3.305531e+003;2.110082e-002
3.307460e+003;2.098059e-002
3.309388e+003;2.070044e-002
3.311317e+003;2.070047e-002
3.313245e+003;2.100622e-002
3.315174e+003;2.118400e-002
3.317103e+003;2.128838e-002
3.319031e+003;2.091115e-002
3.320960e+003;2.026300e-002
3.322888e+003;2.013651e-002
3.324817e+003;2.045829e-002
3.326745e+003;2.060217e-002
3.328674e+003;2.059758e-002
3.330602e+003;2.026518e-002
3.332531e+003;2.037626e-002
3.334459e+003;2.046822e-002
3.336388e+003;2.019353e-002
3.338317e+003;2.001956e-002
3.340245e+003;2.015633e-002
3.342174e+003;2.007397e-002
3.344102e+003;1.990629e-002
3.346031e+003;2.011732e-002
3.347959e+003;2.013554e-002
3.349888e+003;1.991628e-002
3.351816e+003;1.976319e-002
3.353745e+003;1.986918e-002
3.355674e+003;1.963411e-002
3.357602e+003;1.954582e-002
3.359531e+003;2.001297e-002
3.361459e+003;1.989131e-002
3.363388e+003;1.974533e-002
3.365316e+003;1.969537e-002
3.367245e+003;1.940260e-002
3.369173e+003;1.925565e-002
3.371102e+003;1.954312e-002
3.373031e+003;1.953213e-002
3.374959e+003;1.941771e-002
3.376887e+003;1.931734e-002
3.378816e+003;1.894712e-002
3.380745e+003;1.864645e-002
3.382673e+003;1.857261e-002
3.384602e+003;1.860494e-002
3.386530e+003;1.878585e-002
3.388459e+003;1.910902e-002
3.390387e+003;1.907378e-002
3.392316e+003;1.857693e-002
3.394244e+003;1.839755e-002
3.396173e+003;1.792313e-002
3.398102e+003;1.768528e-002
3.400030e+003;1.807291e-002
3.401959e+003;1.845072e-002
3.403887e+003;1.842327e-002
3.405816e+003;1.816055e-002
3.407744e+003;1.810396e-002
3.409673e+003;1.844422e-002
3.411601e+003;1.829618e-002
3.413530e+003;1.757983e-002
3.415458e+003;1.776142e-002
3.417387e+003;1.874202e-002
3.419316e+003;1.929517e-002
3.421244e+003;1.857216e-002
3.423173e+003;1.811395e-002
3.425101e+003;1.873849e-002
3.427030e+003;1.887720e-002
3.428958e+003;1.855328e-002
3.430887e+003;1.842670e-002
3.432815e+003;1.843631e-002
3.434744e+003;1.877741e-002
3.436673e+003;1.908506e-002
3.438601e+003;1.898273e-002
3.440530e+003;1.874427e-002
3.442458e+003;1.831069e-002
3.444387e+003;1.812017e-002
3.446315e+003;1.813398e-002
3.448244e+003;1.818460e-002
3.450172e+003;1.873507e-002
3.452101e+003;1.923227e-002
3.454030e+003;1.958849e-002
3.455958e+003;1.980113e-002
3.457886e+003;1.944678e-002
3.459815e+003;1.896179e-002
3.461744e+003;1.887087e-002
3.463672e+003;1.891230e-002
3.465601e+003;1.873254e-002
3.467529e+003;1.874451e-002
3.469458e+003;1.902396e-002
3.471386e+003;1.915262e-002
3.473315e+003;1.866274e-002
3.475243e+003;1.843036e-002
3.477172e+003;1.876271e-002
3.479101e+003;1.909466e-002
3.481029e+003;1.920280e-002
3.482958e+003;1.921208e-002
3.484886e+003;1.921679e-002
3.486815e+003;1.873112e-002
3.488743e+003;1.798052e-002
3.490672e+003;1.821127e-002
3.492600e+003;1.890638e-002
3.494529e+003;1.919996e-002
3.496458e+003;1.910431e-002
3.498386e+003;1.909382e-002
3.500315e+003;1.915331e-002
3.502243e+003;1.932922e-002
3.504172e+003;1.999462e-002
3.506100e+003;1.995371e-002
3.508029e+003;1.937467e-002
3.509957e+003;1.958651e-002
3.511886e+003;1.988239e-002
3.513814e+003;1.987667e-002
3.515743e+003;2.006884e-002
3.517672e+003;2.048458e-002
3.519600e+003;2.080714e-002
3.521529e+003;2.119409e-002
3.523457e+003;2.130247e-002
3.525386e+003;2.078931e-002
3.527314e+003;2.065071e-002
3.529243e+003;2.106642e-002
3.531171e+003;2.162648e-002
3.533100e+003;2.175211e-002
3.535029e+003;2.148859e-002
3.536957e+003;2.108973e-002
3.538885e+003;2.100855e-002
3.540814e+003;2.119165e-002
3.542743e+003;2.102065e-002
3.544671e+003;2.071948e-002
3.546600e+003;2.123118e-002
3.548528e+003;2.122310e-002
3.550457e+003;2.026570e-002
3.552385e+003;2.009170e-002
3.554314e+003;2.070343e-002
3.556242e+003;2.099363e-002
3.558171e+003;2.090674e-002
3.560100e+003;2.075542e-002
3.562028e+003;2.055593e-002
3.563957e+003;2.029070e-002
3.565885e+003;1.952589e-002
3.567814e+003;1.964371e-002
3.569742e+003;2.034080e-002
3.571671e+003;2.056013e-002
3.573599e+003;2.027997e-002
3.575528e+003;2.030824e-002
3.577457e+003;2.023297e-002
3.579385e+003;1.977314e-002
3.581314e+003;1.941362e-002
3.583242e+003;1.937298e-002
3.585171e+003;1.891430e-002
3.587099e+003;1.784126e-002
3.589028e+003;1.791774e-002
3.590956e+003;1.918804e-002
3.592885e+003;1.913627e-002
3.594813e+003;1.915594e-002
3.596742e+003;1.997203e-002
3.598671e+003;2.038067e-002
3.600599e+003;2.064178e-002
3.602528e+003;2.093212e-002
3.604456e+003;2.082278e-002
3.606385e+003;2.030841e-002
3.608313e+003;1.995878e-002
3.610242e+003;2.021870e-002
3.612170e+003;1.993054e-002
3.614099e+003;1.979232e-002
3.616028e+003;1.967970e-002
3.617956e+003;1.947845e-002
3.619885e+003;1.997654e-002
3.621813e+003;2.084472e-002
3.623742e+003;2.101864e-002
3.625670e+003;1.973691e-002
3.627599e+003;1.735665e-002
3.629527e+003;1.786011e-002
3.631456e+003;2.024578e-002
3.633385e+003;2.068164e-002
3.635313e+003;2.044259e-002
3.637241e+003;2.042474e-002
3.639170e+003;2.034074e-002
3.641099e+003;2.015928e-002
3.643027e+003;1.972103e-002
3.644956e+003;1.856476e-002
3.646884e+003;1.664436e-002
3.648813e+003;1.500110e-002
3.650741e+003;1.569445e-002
3.652670e+003;1.755906e-002
3.654598e+003;1.713004e-002
3.656527e+003;1.645126e-002
3.658456e+003;1.742425e-002
3.660384e+003;1.764594e-002
3.662313e+003;1.693331e-002
3.664241e+003;1.597088e-002
3.666170e+003;1.498718e-002
3.668098e+003;1.325607e-002
3.670027e+003;1.163652e-002
3.671955e+003;1.205520e-002
3.673884e+003;1.052435e-002
3.675813e+003;9.367091e-003
3.677741e+003;1.151095e-002
3.679669e+003;1.286285e-002
3.681598e+003;1.323831e-002
3.683527e+003;1.276866e-002
3.685455e+003;1.135032e-002
3.687384e+003;8.624711e-003
3.689312e+003;8.803509e-003
3.691241e+003;1.094468e-002
3.693169e+003;1.253055e-002
3.695098e+003;1.269872e-002
3.697026e+003;1.223756e-002
3.698955e+003;1.161467e-002
3.700884e+003;1.105231e-002
3.702812e+003;1.171705e-002
3.704741e+003;1.217026e-002
3.706669e+003;1.152504e-002
3.708598e+003;9.972086e-003
3.710526e+003;8.149222e-003
3.712455e+003;8.278076e-003
3.714383e+003;1.038326e-002
3.716312e+003;1.129927e-002
3.718240e+003;1.116503e-002
3.720169e+003;1.103623e-002
3.722098e+003;1.062342e-002
3.724026e+003;1.032462e-002
3.725955e+003;1.002105e-002
3.727883e+003;1.035598e-002
3.729812e+003;1.010124e-002
3.731740e+003;8.570468e-003
3.733669e+003;8.391057e-003
3.735597e+003;8.514136e-003
3.737526e+003;9.719578e-003
3.739455e+003;1.113753e-002
3.741383e+003;9.985851e-003
3.743312e+003;5.696155e-003
3.745240e+003;6.034318e-003
3.747169e+003;7.892879e-003
3.749097e+003;5.928565e-003
3.751026e+003;5.439107e-003
3.752954e+003;7.917578e-003
3.754883e+003;1.058563e-002
3.756812e+003;1.049720e-002
3.758740e+003;1.037091e-002
3.760668e+003;1.100283e-002
3.762597e+003;1.121548e-002
3.764526e+003;1.061524e-002
3.766454e+003;1.083888e-002
3.768383e+003;1.047008e-002
3.770311e+003;1.044520e-002
3.772240e+003;1.103440e-002
3.774168e+003;1.152170e-002
3.776097e+003;1.146580e-002
3.778025e+003;1.088899e-002
3.779954e+003;1.079995e-002
3.781883e+003;1.125785e-002
3.783811e+003;1.129199e-002
3.785740e+003;1.142658e-002
3.787668e+003;1.173931e-002
3.789597e+003;1.168839e-002
3.791525e+003;1.145566e-002
3.793454e+003;1.143243e-002
3.795382e+003;1.103654e-002
3.797311e+003;1.056845e-002
3.799240e+003;8.848888e-003
3.801168e+003;7.773719e-003
3.803097e+003;9.643041e-003
3.805025e+003;1.017237e-002
3.806954e+003;9.645073e-003
3.808882e+003;1.129077e-002
3.810811e+003;1.192641e-002
3.812739e+003;1.110581e-002
3.814668e+003;8.937596e-003
3.816596e+003;8.699819e-003
3.818525e+003;9.701348e-003
3.820454e+003;8.849497e-003
3.822382e+003;9.983614e-003
3.824311e+003;1.103647e-002
3.826239e+003;1.070482e-002
3.828168e+003;1.129019e-002
3.830096e+003;1.096755e-002
3.832025e+003;1.025443e-002
3.833953e+003;1.045433e-002
3.835882e+003;9.379719e-003
3.837811e+003;8.176638e-003
3.839739e+003;9.432235e-003
3.841667e+003;1.087439e-002
3.843596e+003;1.173723e-002
3.845525e+003;1.205523e-002
3.847453e+003;1.209513e-002
3.849382e+003;1.073916e-002
3.851310e+003;7.079352e-003
3.853239e+003;4.358714e-003
3.855167e+003;7.673275e-003
3.857096e+003;1.139892e-002
3.859024e+003;1.160997e-002
3.860953e+003;1.086487e-002
3.862882e+003;1.045877e-002
3.864810e+003;1.079540e-002
3.866739e+003;1.114089e-002
3.868667e+003;9.777015e-003
3.870596e+003;9.773592e-003
3.872524e+003;1.083776e-002
3.874453e+003;1.136821e-002
3.876381e+003;1.236388e-002
3.878310e+003;1.217186e-002
3.880239e+003;1.135576e-002
3.882167e+003;1.115636e-002
3.884096e+003;1.024632e-002
3.886024e+003;1.047867e-002
3.887953e+003;1.187465e-002
3.889881e+003;1.148264e-002
3.891810e+003;1.165040e-002
3.893738e+003;1.256271e-002
3.895667e+003;1.275334e-002
3.897595e+003;1.183801e-002
3.899524e+003;1.067174e-002
3.901453e+003;1.040634e-002
3.903381e+003;1.043597e-002
3.905310e+003;1.124673e-002
3.907238e+003;1.195519e-002
3.909167e+003;1.255306e-002
3.911095e+003;1.279825e-002
3.913024e+003;1.259696e-002
3.914952e+003;1.201132e-002
3.916881e+003;1.192001e-002
3.918810e+003;1.238563e-002
3.920738e+003;1.253887e-002
3.922667e+003;1.271100e-002
3.924595e+003;1.289753e-002
3.926524e+003;1.337811e-002
3.928452e+003;1.314404e-002
3.930381e+003;1.236099e-002
3.932309e+003;1.185170e-002
3.934238e+003;1.215441e-002
3.936167e+003;1.230259e-002
3.938095e+003;1.216961e-002
3.940023e+003;1.225116e-002
3.941952e+003;1.230733e-002
3.943881e+003;1.266931e-002
3.945809e+003;1.304081e-002
3.947738e+003;1.309227e-002
3.949666e+003;1.310429e-002
3.951595e+003;1.333017e-002
3.953523e+003;1.348299e-002
3.955452e+003;1.370162e-002
3.957380e+003;1.346040e-002
3.959309e+003;1.300090e-002
3.961238e+003;1.294562e-002
3.963166e+003;1.324548e-002
3.965095e+003;1.364790e-002
3.967023e+003;1.390014e-002
3.968952e+003;1.393490e-002
3.970880e+003;1.378695e-002
3.972809e+003;1.384753e-002
3.974737e+003;1.372765e-002
3.976666e+003;1.362103e-002
3.978594e+003;1.349051e-002
3.980523e+003;1.357949e-002
3.982452e+003;1.391017e-002
3.984380e+003;1.360961e-002
3.986309e+003;1.355857e-002
3.988237e+003;1.392768e-002
3.990166e+003;1.402794e-002
3.992094e+003;1.418888e-002
3.994023e+003;1.416677e-002
3.995951e+003;1.410875e-002
3.997880e+003;1.400447e-002
3.999809e+003;1.429300e-002
4.001737e+003;0.000000e+000
