3.992094e+002;0.000000e+000
4.011380e+002;0.000000e+000
4.030665e+002;0.000000e+000
4.049951e+002;0.000000e+000
4.069236e+002;0.000000e+000
4.088522e+002;0.000000e+000
4.107807e+002;0.000000e+000
4.127093e+002;0.000000e+000
4.146378e+002;0.000000e+000
4.165664e+002;0.000000e+000
4.184949e+002;0.000000e+000
4.204235e+002;0.000000e+000
4.223520e+002;0.000000e+000
4.242806e+002;0.000000e+000
4.262091e+002;0.000000e+000
4.281377e+002;0.000000e+000
4.300662e+002;0.000000e+000
4.319948e+002;0.000000e+000
4.339233e+002;0.000000e+000
4.358519e+002;0.000000e+000
4.377804e+002;0.000000e+000
4.397090e+002;0.000000e+000
4.416375e+002;0.000000e+000
4.435660e+002;0.000000e+000
4.454946e+002;0.000000e+000
4.474232e+002;0.000000e+000
4.493517e+002;0.000000e+000
4.512802e+002;0.000000e+000
4.532088e+002;0.000000e+000
4.551373e+002;0.000000e+000
4.570659e+002;0.000000e+000
4.589944e+002;0.000000e+000
4.609230e+002;0.000000e+000
4.628515e+002;0.000000e+000
4.647801e+002;0.000000e+000
4.667086e+002;0.000000e+000
4.686372e+002;0.000000e+000
4.705657e+002;0.000000e+000
4.724943e+002;0.000000e+000
4.744228e+002;0.000000e+000
4.763513e+002;0.000000e+000
4.782799e+002;0.000000e+000
4.802085e+002;0.000000e+000
4.821370e+002;0.000000e+000
4.840656e+002;0.000000e+000
4.859941e+002;0.000000e+000
4.879226e+002;0.000000e+000
4.898512e+002;0.000000e+000
4.917798e+002;0.000000e+000
4.937083e+002;0.000000e+000
4.956368e+002;0.000000e+000
4.975654e+002;0.000000e+000
4.994939e+002;0.000000e+000
5.014225e+002;0.000000e+000
5.033510e+002;0.000000e+000
5.052796e+002;0.000000e+000
5.072081e+002;0.000000e+000
5.091367e+002;0.000000e+000
5.110652e+002;0.000000e+000
5.129938e+002;0.000000e+000
5.149223e+002;0.000000e+000
5.168509e+002;0.000000e+000
5.187794e+002;0.000000e+000
5.207079e+002;0.000000e+000
5.226365e+002;0.000000e+000
5.245651e+002;0.000000e+000
5.264936e+002;0.000000e+000
5.284222e+002;0.000000e+000
5.303507e+002;0.000000e+000
5.322792e+002;0.000000e+000
5.342078e+002;0.000000e+000
5.361364e+002;0.000000e+000
5.380649e+002;0.000000e+000
5.399935e+002;0.000000e+000
5.419220e+002;0.000000e+000
5.438505e+002;0.000000e+000
5.457791e+002;0.000000e+000
5.477076e+002;0.000000e+000
5.496362e+002;0.000000e+000
5.515648e+002;0.000000e+000
5.534933e+002;0.000000e+000
5.554218e+002;0.000000e+000
5.573504e+002;0.000000e+000
5.592789e+002;0.000000e+000
5.612075e+002;0.000000e+000
5.631360e+002;0.000000e+000
5.650646e+002;0.000000e+000
5.669931e+002;0.000000e+000
5.689217e+002;0.000000e+000
5.708502e+002;0.000000e+000
5.727787e+002;0.000000e+000
5.747073e+002;0.000000e+000
5.766359e+002;0.000000e+000
5.785644e+002;0.000000e+000
5.804930e+002;0.000000e+000
5.824215e+002;0.000000e+000
5.843500e+002;0.000000e+000
5.862786e+002;0.000000e+000
5.882072e+002;0.000000e+000
5.901357e+002;0.000000e+000
5.920643e+002;0.000000e+000
5.939928e+002;0.000000e+000
5.959213e+002;0.000000e+000
5.978499e+002;0.000000e+000
5.997784e+002;7.866210e-002
6.017070e+002;9.035785e-002
6.036355e+002;9.214998e-002
6.055641e+002;8.645473e-002
6.074926e+002;7.818696e-002
6.094211e+002;7.424030e-002
6.113497e+002;7.636723e-002
6.132783e+002;7.753646e-002
6.152068e+002;7.788160e-002
6.171354e+002;8.116277e-002
6.190639e+002;8.257665e-002
6.209924e+002;8.144414e-002
6.229210e+002;8.162652e-002
6.248495e+002;8.119325e-002
6.267781e+002;8.155715e-002
6.287067e+002;8.298490e-002
6.306352e+002;8.653861e-002
6.325637e+002;8.662155e-002
6.344923e+002;8.249483e-002
6.364208e+002;8.152321e-002
6.383494e+002;8.357513e-002
6.402780e+002;8.210124e-002
6.422065e+002;7.823706e-002
6.441350e+002;7.700391e-002
6.460636e+002;7.743784e-002
6.479921e+002;7.795829e-002
6.499207e+002;7.885166e-002
6.518492e+002;7.873292e-002
6.537778e+002;7.826321e-002
6.557063e+002;7.813186e-002
6.576349e+002;7.944731e-002
6.595634e+002;8.100227e-002
6.614919e+002;7.937638e-002
6.634205e+002;7.697040e-002
6.653491e+002;7.724638e-002
6.672776e+002;7.740391e-002
6.692062e+002;7.757758e-002
6.711347e+002;7.881773e-002
6.730632e+002;7.989860e-002
6.749918e+002;7.867064e-002
6.769203e+002;7.719876e-002
6.788489e+002;7.772719e-002
6.807775e+002;7.786614e-002
6.827060e+002;7.624522e-002
6.846345e+002;7.458649e-002
6.865631e+002;7.550398e-002
6.884916e+002;7.721099e-002
6.904202e+002;7.633014e-002
6.923488e+002;7.543806e-002
6.942773e+002;7.586858e-002
6.962058e+002;7.553406e-002
6.981344e+002;7.461482e-002
7.000629e+002;7.416962e-002
7.019915e+002;7.333688e-002
7.039200e+002;7.219696e-002
7.058486e+002;7.210217e-002
7.077771e+002;7.338565e-002
7.097057e+002;7.522146e-002
7.116342e+002;7.507307e-002
7.135627e+002;7.522864e-002
7.154913e+002;7.686740e-002
7.174199e+002;7.707394e-002
7.193484e+002;7.643478e-002
7.212770e+002;7.590871e-002
7.232055e+002;7.593965e-002
7.251340e+002;7.695023e-002
7.270626e+002;7.832158e-002
7.289911e+002;7.892517e-002
7.309197e+002;7.966082e-002
7.328483e+002;7.992560e-002
7.347768e+002;7.977559e-002
7.367053e+002;7.991763e-002
7.386339e+002;8.070508e-002
7.405624e+002;8.126257e-002
7.424910e+002;8.116788e-002
7.444196e+002;8.138831e-002
7.463481e+002;8.216617e-002
7.482766e+002;8.210140e-002
7.502052e+002;8.227100e-002
7.521337e+002;8.355790e-002
7.540623e+002;8.377717e-002
7.559908e+002;8.363607e-002
7.579194e+002;8.346613e-002
7.598479e+002;8.346333e-002
7.617765e+002;8.420389e-002
7.637050e+002;8.442191e-002
7.656335e+002;8.368142e-002
7.675621e+002;8.301884e-002
7.694907e+002;8.246542e-002
7.714192e+002;8.217447e-002
7.733478e+002;8.191215e-002
7.752763e+002;8.101285e-002
7.772048e+002;7.997033e-002
7.791334e+002;7.819667e-002
7.810620e+002;7.611705e-002
7.829905e+002;7.380506e-002
7.849191e+002;7.147568e-002
7.868476e+002;6.872789e-002
7.887761e+002;6.520806e-002
7.907047e+002;6.230588e-002
7.926332e+002;5.979697e-002
7.945618e+002;5.728107e-002
7.964903e+002;5.538515e-002
7.984189e+002;5.423742e-002
8.003474e+002;5.394747e-002
8.022759e+002;5.405425e-002
8.042045e+002;5.471186e-002
8.061331e+002;5.600837e-002
8.080616e+002;5.779743e-002
8.099902e+002;5.924615e-002
8.119187e+002;6.020951e-002
8.138472e+002;6.164313e-002
8.157758e+002;6.334300e-002
8.177043e+002;6.493682e-002
8.196329e+002;6.597092e-002
8.215615e+002;6.732002e-002
8.234900e+002;6.967823e-002
8.254185e+002;7.266983e-002
8.273471e+002;7.460313e-002
8.292756e+002;7.598393e-002
8.312042e+002;7.754240e-002
8.331328e+002;7.834972e-002
8.350613e+002;7.866628e-002
8.369898e+002;7.890717e-002
8.389184e+002;7.906017e-002
8.408469e+002;7.879397e-002
8.427755e+002;7.761525e-002
8.447040e+002;7.628542e-002
8.466326e+002;7.555302e-002
8.485611e+002;7.445007e-002
8.504897e+002;7.349979e-002
8.524182e+002;7.301681e-002
8.543467e+002;7.249232e-002
8.562753e+002;7.226329e-002
8.582039e+002;7.258551e-002
8.601324e+002;7.178590e-002
8.620610e+002;7.134160e-002
8.639895e+002;7.162965e-002
8.659180e+002;7.144775e-002
8.678466e+002;7.138389e-002
8.697751e+002;7.164574e-002
8.717037e+002;7.148170e-002
8.736323e+002;7.111814e-002
8.755608e+002;7.118242e-002
8.774893e+002;7.161284e-002
8.794179e+002;7.162195e-002
8.813464e+002;7.160065e-002
8.832750e+002;7.200482e-002
8.852036e+002;7.240607e-002
8.871321e+002;7.288422e-002
8.890606e+002;7.341962e-002
8.909892e+002;7.375868e-002
8.929177e+002;7.348135e-002
8.948463e+002;7.331931e-002
8.967748e+002;7.343257e-002
8.987034e+002;7.332076e-002
9.006319e+002;7.350647e-002
9.025605e+002;7.378264e-002
9.044890e+002;7.370623e-002
9.064175e+002;7.403994e-002
9.083461e+002;7.441393e-002
9.102747e+002;7.427108e-002
9.122032e+002;7.431763e-002
9.141318e+002;7.463815e-002
9.160603e+002;7.450379e-002
9.179888e+002;7.448272e-002
9.199174e+002;7.497355e-002
9.218459e+002;7.529231e-002
9.237745e+002;7.551521e-002
9.257031e+002;7.571602e-002
9.276316e+002;7.543128e-002
9.295601e+002;7.540444e-002
9.314887e+002;7.592505e-002
9.334172e+002;7.646470e-002
9.353458e+002;7.656171e-002
9.372744e+002;7.625466e-002
9.392029e+002;7.631075e-002
9.411314e+002;7.668085e-002
9.430600e+002;7.721672e-002
9.449885e+002;7.745024e-002
9.469171e+002;7.778786e-002
9.488456e+002;7.836234e-002
9.507742e+002;7.843874e-002
9.527027e+002;7.831357e-002
9.546313e+002;7.855136e-002
9.565598e+002;7.882269e-002
9.584883e+002;7.864209e-002
9.604169e+002;7.817863e-002
9.623455e+002;7.758059e-002
9.642740e+002;7.753325e-002
9.662026e+002;7.758031e-002
9.681311e+002;7.700359e-002
9.700596e+002;7.632773e-002
9.719882e+002;7.615487e-002
9.739167e+002;7.609201e-002
9.758453e+002;7.583228e-002
9.777739e+002;7.524913e-002
9.797024e+002;7.488512e-002
9.816309e+002;7.473987e-002
9.835595e+002;7.497241e-002
9.854880e+002;7.519542e-002
9.874166e+002;7.489862e-002
9.893452e+002;7.433866e-002
9.912737e+002;7.357480e-002
9.932022e+002;7.301042e-002
9.951307e+002;7.264633e-002
9.970593e+002;7.219360e-002
9.989879e+002;7.151572e-002
1.000916e+003;7.083573e-002
1.002845e+003;6.994587e-002
1.004773e+003;6.842105e-002
1.006702e+003;6.606485e-002
1.008631e+003;6.380152e-002
1.010559e+003;6.184179e-002
1.012488e+003;5.947050e-002
1.014416e+003;5.723541e-002
1.016345e+003;5.581243e-002
1.018273e+003;5.567960e-002
1.020202e+003;5.649056e-002
1.022130e+003;5.775485e-002
1.024059e+003;5.942768e-002
1.025988e+003;6.085067e-002
1.027916e+003;6.238747e-002
1.029845e+003;6.475394e-002
1.031773e+003;6.753867e-002
1.033702e+003;6.964392e-002
1.035630e+003;7.085220e-002
1.037559e+003;7.112993e-002
1.039487e+003;7.074947e-002
1.041416e+003;7.070092e-002
1.043344e+003;7.108020e-002
1.045273e+003;7.175322e-002
1.047202e+003;7.258429e-002
1.049130e+003;7.334826e-002
1.051059e+003;7.427800e-002
1.052987e+003;7.601129e-002
1.054916e+003;7.794341e-002
1.056844e+003;7.912179e-002
1.058773e+003;8.084659e-002
1.060701e+003;8.301719e-002
1.062630e+003;8.475614e-002
1.064558e+003;8.570064e-002
1.066487e+003;8.620615e-002
1.068416e+003;8.679523e-002
1.070344e+003;8.690506e-002
1.072273e+003;8.621541e-002
1.074201e+003;8.478417e-002
1.076130e+003;8.310991e-002
1.078058e+003;8.141737e-002
1.079987e+003;8.003435e-002
1.081915e+003;7.860850e-002
1.083844e+003;7.666606e-002
1.085773e+003;7.438561e-002
1.087701e+003;7.271625e-002
1.089630e+003;7.179286e-002
1.091558e+003;7.032251e-002
1.093487e+003;6.897254e-002
1.095415e+003;6.912379e-002
1.097344e+003;6.949385e-002
1.099272e+003;6.938530e-002
1.101201e+003;6.945850e-002
1.103129e+003;7.003502e-002
1.105058e+003;7.087548e-002
1.106987e+003;7.166900e-002
1.108915e+003;7.174427e-002
1.110844e+003;7.176162e-002
1.112772e+003;7.189271e-002
1.114701e+003;7.186784e-002
1.116629e+003;7.198948e-002
1.118558e+003;7.261790e-002
1.120486e+003;7.313031e-002
1.122415e+003;7.322435e-002
1.124344e+003;7.292011e-002
1.126272e+003;7.218335e-002
1.128201e+003;7.149424e-002
1.130129e+003;7.112965e-002
1.132058e+003;7.153646e-002
1.133986e+003;7.202382e-002
1.135915e+003;7.261382e-002
1.137843e+003;7.354520e-002
1.139772e+003;7.493823e-002
1.141700e+003;7.631726e-002
1.143629e+003;7.792161e-002
1.145557e+003;8.009347e-002
1.147486e+003;8.260037e-002
1.149415e+003;8.522576e-002
1.151343e+003;8.834839e-002
1.153272e+003;9.158129e-002
1.155200e+003;9.472560e-002
1.157129e+003;9.780265e-002
1.159057e+003;1.010677e-001
1.160986e+003;1.047660e-001
1.162914e+003;1.078654e-001
1.164843e+003;1.103189e-001
1.166771e+003;1.116008e-001
1.168700e+003;1.115286e-001
1.170629e+003;1.108534e-001
1.172557e+003;1.097716e-001
1.174486e+003;1.084412e-001
1.176414e+003;1.073099e-001
1.178343e+003;1.062503e-001
1.180271e+003;1.051696e-001
1.182200e+003;1.036076e-001
1.184128e+003;1.019564e-001
1.186057e+003;1.012220e-001
1.187986e+003;1.015910e-001
1.189914e+003;1.023947e-001
1.191843e+003;1.034140e-001
1.193771e+003;1.042772e-001
1.195700e+003;1.053909e-001
1.197628e+003;1.063671e-001
1.199557e+003;1.065066e-001
1.201485e+003;1.061401e-001
1.203414e+003;1.056211e-001
1.205343e+003;1.057933e-001
1.207271e+003;1.058829e-001
1.209200e+003;1.052363e-001
1.211128e+003;1.050678e-001
1.213057e+003;1.050472e-001
1.214985e+003;1.049854e-001
1.216914e+003;1.055809e-001
1.218842e+003;1.064342e-001
1.220771e+003;1.069531e-001
1.222699e+003;1.067816e-001
1.224628e+003;1.064092e-001
1.226557e+003;1.065130e-001
1.228485e+003;1.065586e-001
1.230414e+003;1.062368e-001
1.232342e+003;1.056413e-001
1.234271e+003;1.050901e-001
1.236199e+003;1.046279e-001
1.238128e+003;1.039603e-001
1.240056e+003;1.031830e-001
1.241985e+003;1.030504e-001
1.243913e+003;1.029064e-001
1.245842e+003;1.021530e-001
1.247771e+003;1.010037e-001
1.249699e+003;9.976472e-002
1.251628e+003;9.820575e-002
1.253556e+003;9.540098e-002
1.255485e+003;9.137490e-002
1.257413e+003;8.736518e-002
1.259342e+003;8.426753e-002
1.261270e+003;8.346168e-002
1.263199e+003;8.525777e-002
1.265127e+003;8.818343e-002
1.267056e+003;9.115851e-002
1.268985e+003;9.393074e-002
1.270913e+003;9.577789e-002
1.272842e+003;9.661216e-002
1.274770e+003;9.632692e-002
1.276699e+003;9.546826e-002
1.278627e+003;9.469420e-002
1.280556e+003;9.411526e-002
1.282484e+003;9.343178e-002
1.284413e+003;9.249075e-002
1.286342e+003;9.180363e-002
1.288270e+003;9.135887e-002
1.290199e+003;9.085473e-002
1.292127e+003;9.037250e-002
1.294056e+003;8.967719e-002
1.295984e+003;8.915006e-002
1.297913e+003;8.894063e-002
1.299841e+003;8.885060e-002
1.301770e+003;8.862019e-002
1.303698e+003;8.849131e-002
1.305627e+003;8.843964e-002
1.307556e+003;8.827895e-002
1.309484e+003;8.807939e-002
1.311413e+003;8.781880e-002
1.313341e+003;8.750089e-002
1.315270e+003;8.719419e-002
1.317198e+003;8.678678e-002
1.319127e+003;8.693643e-002
1.321055e+003;8.744755e-002
1.322984e+003;8.764131e-002
1.324912e+003;8.787652e-002
1.326841e+003;8.826247e-002
1.328770e+003;8.848754e-002
1.330698e+003;8.852015e-002
1.332627e+003;8.828033e-002
1.334555e+003;8.831541e-002
1.336484e+003;8.844204e-002
1.338412e+003;8.849269e-002
1.340341e+003;8.918805e-002
1.342269e+003;9.010127e-002
1.344198e+003;9.072609e-002
1.346126e+003;9.140201e-002
1.348055e+003;9.167111e-002
1.349984e+003;9.182078e-002
1.351912e+003;9.212540e-002
1.353841e+003;9.245639e-002
1.355769e+003;9.243922e-002
1.357698e+003;9.235257e-002
1.359626e+003;9.200093e-002
1.361555e+003;9.129161e-002
1.363483e+003;9.097686e-002
1.365412e+003;9.085869e-002
1.367341e+003;9.008056e-002
1.369269e+003;8.944980e-002
1.371198e+003;8.874280e-002
1.373126e+003;8.748119e-002
1.375055e+003;8.681623e-002
1.376983e+003;8.664408e-002
1.378912e+003;8.610861e-002
1.380840e+003;8.539625e-002
1.382769e+003;8.448872e-002
1.384698e+003;8.323242e-002
1.386626e+003;8.115814e-002
1.388555e+003;7.993568e-002
1.390483e+003;7.928117e-002
1.392412e+003;7.740102e-002
1.394340e+003;7.490367e-002
1.396269e+003;7.372229e-002
1.398197e+003;7.283966e-002
1.400126e+003;7.245954e-002
1.402054e+003;7.257638e-002
1.403983e+003;7.216112e-002
1.405911e+003;7.215799e-002
1.407840e+003;7.225280e-002
1.409769e+003;7.223296e-002
1.411697e+003;7.247975e-002
1.413626e+003;7.292368e-002
1.415554e+003;7.310259e-002
1.417483e+003;7.228880e-002
1.419411e+003;7.260838e-002
1.421340e+003;7.559281e-002
1.423268e+003;7.842834e-002
1.425197e+003;8.155951e-002
1.427125e+003;8.545567e-002
1.429054e+003;8.948762e-002
1.430983e+003;9.384374e-002
1.432911e+003;9.853251e-002
1.434840e+003;1.016133e-001
1.436768e+003;1.041613e-001
1.438697e+003;1.092693e-001
1.440625e+003;1.140239e-001
1.442554e+003;1.181608e-001
1.444482e+003;1.222587e-001
1.446411e+003;1.257681e-001
1.448340e+003;1.287528e-001
1.450268e+003;1.306128e-001
1.452197e+003;1.300527e-001
1.454125e+003;1.259371e-001
1.456054e+003;1.173876e-001
1.457982e+003;1.101761e-001
1.459911e+003;1.050101e-001
1.461839e+003;9.838512e-002
1.463768e+003;9.061463e-002
1.465697e+003;8.471825e-002
1.467625e+003;8.159961e-002
1.469554e+003;7.843374e-002
1.471482e+003;7.420865e-002
1.473411e+003;7.186436e-002
1.475339e+003;7.175623e-002
1.477268e+003;7.167064e-002
1.479196e+003;7.119460e-002
1.481125e+003;7.074931e-002
1.483053e+003;7.097426e-002
1.484982e+003;7.061289e-002
1.486911e+003;6.931933e-002
1.488839e+003;6.775441e-002
1.490768e+003;6.747422e-002
1.492696e+003;6.832064e-002
1.494625e+003;6.710028e-002
1.496553e+003;6.577310e-002
1.498482e+003;6.665661e-002
1.500410e+003;6.752961e-002
1.502339e+003;6.738158e-002
1.504267e+003;6.421343e-002
1.506196e+003;6.089005e-002
1.508125e+003;6.295754e-002
1.510053e+003;6.614421e-002
1.511982e+003;6.713203e-002
1.513910e+003;6.746013e-002
1.515839e+003;6.678407e-002
1.517767e+003;6.612442e-002
1.519696e+003;6.438733e-002
1.521624e+003;6.339847e-002
1.523553e+003;6.553669e-002
1.525481e+003;6.658017e-002
1.527410e+003;6.742743e-002
1.529339e+003;6.843548e-002
1.531267e+003;6.841367e-002
1.533196e+003;6.794918e-002
1.535124e+003;6.946274e-002
1.537053e+003;6.895218e-002
1.538981e+003;6.517357e-002
1.540910e+003;6.530391e-002
1.542838e+003;6.803555e-002
1.544767e+003;6.952013e-002
1.546695e+003;7.039139e-002
1.548624e+003;7.045187e-002
1.550553e+003;7.062286e-002
1.552481e+003;7.028492e-002
1.554410e+003;6.891370e-002
1.556338e+003;6.675347e-002
1.558267e+003;6.245637e-002
1.560195e+003;6.337555e-002
1.562124e+003;6.771445e-002
1.564052e+003;6.848187e-002
1.565981e+003;6.797076e-002
1.567910e+003;6.700431e-002
1.569838e+003;6.608421e-002
1.571767e+003;6.704784e-002
1.573695e+003;6.639535e-002
1.575624e+003;6.414571e-002
1.577552e+003;6.566679e-002
1.579481e+003;6.803016e-002
1.581409e+003;6.801238e-002
1.583338e+003;6.704835e-002
1.585266e+003;6.598172e-002
1.587195e+003;6.533876e-002
1.589124e+003;6.491909e-002
1.591052e+003;6.463777e-002
1.592981e+003;6.432635e-002
1.594909e+003;6.441607e-002
1.596838e+003;6.506979e-002
1.598766e+003;6.587450e-002
1.600695e+003;6.649856e-002
1.602623e+003;6.695022e-002
1.604552e+003;6.712975e-002
1.606480e+003;6.719739e-002
1.608409e+003;6.723467e-002
1.610338e+003;6.724543e-002
1.612266e+003;6.703470e-002
1.614195e+003;6.553780e-002
1.616123e+003;6.308327e-002
1.618052e+003;6.408941e-002
1.619980e+003;6.590778e-002
1.621909e+003;6.541244e-002
1.623837e+003;6.520953e-002
1.625766e+003;6.570467e-002
1.627694e+003;6.610979e-002
1.629623e+003;6.690446e-002
1.631552e+003;6.695943e-002
1.633480e+003;6.511810e-002
1.635409e+003;6.348644e-002
1.637337e+003;6.562667e-002
1.639266e+003;6.764838e-002
1.641194e+003;6.773551e-002
1.643123e+003;6.699155e-002
1.645051e+003;6.532671e-002
1.646980e+003;6.514273e-002
1.648909e+003;6.673334e-002
1.650837e+003;6.425734e-002
1.652766e+003;6.024667e-002
1.654694e+003;6.451612e-002
1.656623e+003;6.950726e-002
1.658551e+003;7.051446e-002
1.660480e+003;7.026049e-002
1.662408e+003;7.020044e-002
1.664337e+003;7.141736e-002
1.666266e+003;7.185549e-002
1.668194e+003;7.028492e-002
1.670123e+003;6.973986e-002
1.672051e+003;7.043149e-002
1.673980e+003;6.926069e-002
1.675908e+003;6.846178e-002
1.677837e+003;6.917842e-002
1.679765e+003;6.872059e-002
1.681694e+003;6.651980e-002
1.683622e+003;6.224978e-002
1.685551e+003;6.253190e-002
1.687479e+003;6.556351e-002
1.689408e+003;6.628966e-002
1.691337e+003;6.652416e-002
1.693265e+003;6.513949e-002
1.695194e+003;6.227288e-002
1.697122e+003;6.288083e-002
1.699051e+003;6.231659e-002
1.700979e+003;6.272338e-002
1.702908e+003;6.671533e-002
1.704836e+003;6.868923e-002
1.706765e+003;7.117946e-002
1.708693e+003;7.447072e-002
1.710622e+003;7.784316e-002
1.712551e+003;8.086926e-002
1.714479e+003;8.374968e-002
1.716408e+003;8.655611e-002
1.718336e+003;9.243008e-002
1.720265e+003;1.009627e-001
1.722193e+003;1.076753e-001
1.724122e+003;1.125214e-001
1.726050e+003;1.163683e-001
1.727979e+003;1.185164e-001
1.729908e+003;1.190135e-001
1.731836e+003;1.166553e-001
1.733765e+003;1.121582e-001
1.735693e+003;1.102645e-001
1.737622e+003;1.065340e-001
1.739550e+003;9.950748e-002
1.741479e+003;9.308814e-002
1.743407e+003;8.684585e-002
1.745336e+003;8.074765e-002
1.747265e+003;7.487949e-002
1.749193e+003;6.947059e-002
1.751122e+003;6.537943e-002
1.753050e+003;6.366599e-002
1.754979e+003;6.165772e-002
1.756907e+003;5.923065e-002
1.758836e+003;5.750426e-002
1.760764e+003;5.556474e-002
1.762693e+003;5.475294e-002
1.764621e+003;5.459549e-002
1.766550e+003;5.311709e-002
1.768479e+003;5.207378e-002
1.770407e+003;5.068624e-002
1.772336e+003;4.923287e-002
1.774264e+003;5.013956e-002
1.776193e+003;5.093021e-002
1.778121e+003;5.086721e-002
1.780050e+003;5.044633e-002
1.781978e+003;5.028555e-002
1.783907e+003;5.002775e-002
1.785835e+003;4.972365e-002
1.787764e+003;4.954186e-002
1.789693e+003;4.865217e-002
1.791621e+003;4.733296e-002
1.793550e+003;4.746622e-002
1.795478e+003;4.843812e-002
1.797407e+003;4.826168e-002
1.799335e+003;4.758651e-002
1.801264e+003;4.748215e-002
1.803192e+003;4.801192e-002
1.805121e+003;4.808205e-002
1.807049e+003;4.783665e-002
1.808978e+003;4.736865e-002
1.810907e+003;4.707432e-002
1.812835e+003;4.709633e-002
1.814764e+003;4.714168e-002
1.816692e+003;4.687979e-002
1.818621e+003;4.676951e-002
1.820549e+003;4.689035e-002
1.822478e+003;4.674885e-002
1.824406e+003;4.606936e-002
1.826335e+003;4.587513e-002
1.828264e+003;4.539979e-002
1.830192e+003;4.517877e-002
1.832121e+003;4.573569e-002
1.834049e+003;4.610480e-002
1.835978e+003;4.600323e-002
1.837906e+003;4.600356e-002
1.839835e+003;4.591421e-002
1.841763e+003;4.511778e-002
1.843692e+003;4.400067e-002
1.845620e+003;4.448843e-002
1.847549e+003;4.511237e-002
1.849478e+003;4.510505e-002
1.851406e+003;4.515465e-002
1.853335e+003;4.528323e-002
1.855263e+003;4.521046e-002
1.857192e+003;4.496087e-002
1.859120e+003;4.481915e-002
1.861049e+003;4.507304e-002
1.862977e+003;4.531071e-002
1.864906e+003;4.508502e-002
1.866834e+003;4.440926e-002
1.868763e+003;4.388721e-002
1.870692e+003;4.443565e-002
1.872620e+003;4.498090e-002
1.874549e+003;4.486276e-002
1.876477e+003;4.484142e-002
1.878406e+003;4.484601e-002
1.880334e+003;4.471285e-002
1.882263e+003;4.455874e-002
1.884191e+003;4.472060e-002
1.886120e+003;4.466269e-002
1.888048e+003;4.430548e-002
1.889977e+003;4.430479e-002
1.891906e+003;4.459754e-002
1.893834e+003;4.459042e-002
1.895763e+003;4.446601e-002
1.897691e+003;4.447287e-002
1.899620e+003;4.439084e-002
1.901548e+003;4.420129e-002
1.903477e+003;4.418984e-002
1.905405e+003;4.426388e-002
1.907334e+003;4.424942e-002
1.909262e+003;4.400742e-002
1.911191e+003;4.379990e-002
1.913120e+003;4.410588e-002
1.915048e+003;4.424215e-002
1.916977e+003;4.360412e-002
1.918905e+003;4.368487e-002
1.920834e+003;4.404339e-002
1.922762e+003;4.402704e-002
1.924691e+003;4.406261e-002
1.926619e+003;4.384714e-002
1.928548e+003;4.382119e-002
1.930477e+003;4.401919e-002
1.932405e+003;4.387507e-002
1.934334e+003;4.355998e-002
1.936262e+003;4.365296e-002
1.938191e+003;4.361419e-002
1.940119e+003;4.322278e-002
1.942048e+003;4.301102e-002
1.943976e+003;4.305950e-002
1.945905e+003;4.330247e-002
1.947833e+003;4.348299e-002
1.949762e+003;4.357086e-002
1.951691e+003;4.339382e-002
1.953619e+003;4.328303e-002
1.955548e+003;4.340356e-002
1.957476e+003;4.362467e-002
1.959405e+003;4.367036e-002
1.961333e+003;4.361196e-002
1.963262e+003;4.348262e-002
1.965190e+003;4.346717e-002
1.967119e+003;4.341799e-002
1.969047e+003;4.364768e-002
1.970976e+003;4.369901e-002
1.972905e+003;4.351189e-002
1.974833e+003;4.340272e-002
1.976762e+003;4.339854e-002
1.978690e+003;4.377373e-002
1.980619e+003;4.422139e-002
1.982547e+003;4.442310e-002
1.984476e+003;4.441099e-002
1.986404e+003;4.425577e-002
1.988333e+003;4.410632e-002
1.990261e+003;4.406448e-002
1.992190e+003;4.410970e-002
1.994119e+003;4.412433e-002
1.996047e+003;4.401134e-002
1.997976e+003;4.420991e-002
1.999904e+003;4.448939e-002
2.001833e+003;4.452015e-002
2.003761e+003;4.461227e-002
2.005690e+003;4.461491e-002
2.007618e+003;4.446410e-002
2.009547e+003;4.435568e-002
2.011476e+003;4.446435e-002
2.013404e+003;4.452107e-002
2.015333e+003;4.432614e-002
2.017261e+003;4.422646e-002
2.019190e+003;4.439110e-002
2.021118e+003;4.452848e-002
2.023047e+003;4.453028e-002
2.024975e+003;4.436141e-002
2.026904e+003;4.420371e-002
2.028833e+003;4.402652e-002
2.030761e+003;4.396085e-002
2.032690e+003;4.395293e-002
2.034618e+003;4.382716e-002
2.036547e+003;4.363749e-002
2.038475e+003;4.369172e-002
2.040404e+003;4.384051e-002
2.042332e+003;4.390378e-002
2.044261e+003;4.388944e-002
2.046189e+003;4.400849e-002
2.048118e+003;4.398286e-002
2.050047e+003;4.394029e-002
2.051975e+003;4.388512e-002
2.053904e+003;4.388713e-002
2.055832e+003;4.380543e-002
2.057761e+003;4.356771e-002
2.059689e+003;4.360104e-002
2.061618e+003;4.361042e-002
2.063546e+003;4.359448e-002
2.065475e+003;4.354851e-002
2.067404e+003;4.366028e-002
2.069332e+003;4.359481e-002
2.071260e+003;4.336826e-002
2.073189e+003;4.344556e-002
2.075118e+003;4.365515e-002
2.077046e+003;4.378608e-002
2.078975e+003;4.376486e-002
2.080903e+003;4.337031e-002
2.082832e+003;4.303129e-002
2.084760e+003;4.314450e-002
2.086689e+003;4.354928e-002
2.088617e+003;4.373393e-002
2.090546e+003;4.359588e-002
2.092475e+003;4.366724e-002
2.094403e+003;4.364962e-002
2.096332e+003;4.351042e-002
2.098260e+003;4.348515e-002
2.100189e+003;4.330137e-002
2.102117e+003;4.312635e-002
2.104046e+003;4.321023e-002
2.105974e+003;4.339371e-002
2.107903e+003;4.337182e-002
2.109832e+003;4.344384e-002
2.111760e+003;4.337756e-002
2.113688e+003;4.292382e-002
2.115617e+003;4.257031e-002
2.117546e+003;4.262539e-002
2.119474e+003;4.265046e-002
2.121403e+003;4.238736e-002
2.123331e+003;4.214318e-002
2.125260e+003;4.235426e-002
2.127188e+003;4.258266e-002
2.129117e+003;4.250668e-002
2.131045e+003;4.249601e-002
2.132974e+003;4.252613e-002
2.134903e+003;4.257772e-002
2.136831e+003;4.251936e-002
2.138760e+003;4.269056e-002
2.140688e+003;4.259315e-002
2.142617e+003;4.228567e-002
2.144545e+003;4.237654e-002
2.146474e+003;4.259340e-002
2.148402e+003;4.269513e-002
2.150331e+003;4.256914e-002
2.152260e+003;4.231390e-002
2.154188e+003;4.202928e-002
2.156117e+003;4.202541e-002
2.158045e+003;4.227113e-002
2.159974e+003;4.218531e-002
2.161902e+003;4.217725e-002
2.163831e+003;4.259125e-002
2.165759e+003;4.275312e-002
2.167688e+003;4.271842e-002
2.169616e+003;4.287199e-002
2.171545e+003;4.287795e-002
2.173474e+003;4.255609e-002
2.175402e+003;4.248622e-002
2.177331e+003;4.299237e-002
2.179259e+003;4.334487e-002
2.181188e+003;4.365171e-002
2.183116e+003;4.403543e-002
2.185045e+003;4.469600e-002
2.186973e+003;4.561632e-002
2.188902e+003;4.620422e-002
2.190831e+003;4.634351e-002
2.192759e+003;4.631760e-002
2.194688e+003;4.624738e-002
2.196616e+003;4.611129e-002
2.198545e+003;4.576489e-002
2.200473e+003;4.550806e-002
2.202402e+003;4.545744e-002
2.204330e+003;4.541487e-002
2.206259e+003;4.579818e-002
2.208188e+003;4.611265e-002
2.210116e+003;4.624310e-002
2.212044e+003;4.648233e-002
2.213973e+003;4.659980e-002
2.215902e+003;4.663850e-002
2.217830e+003;4.698544e-002
2.219759e+003;4.778191e-002
2.221687e+003;4.843893e-002
2.223616e+003;4.950818e-002
2.225544e+003;5.120462e-002
2.227473e+003;5.377166e-002
2.229401e+003;5.771121e-002
2.231330e+003;6.315044e-002
2.233259e+003;7.006752e-002
2.235187e+003;7.794873e-002
2.237116e+003;8.594648e-002
2.239044e+003;9.270091e-002
2.240973e+003;9.613202e-002
2.242901e+003;9.541563e-002
2.244830e+003;9.179474e-002
2.246758e+003;8.653072e-002
2.248687e+003;8.032849e-002
2.250615e+003;7.417705e-002
2.252544e+003;6.892046e-002
2.254473e+003;6.461154e-002
2.256401e+003;6.100679e-002
2.258330e+003;5.768533e-002
2.260258e+003;5.500985e-002
2.262187e+003;5.303973e-002
2.264115e+003;5.133620e-002
2.266044e+003;5.002269e-002
2.267972e+003;4.910200e-002
2.269901e+003;4.848542e-002
2.271830e+003;4.807550e-002
2.273758e+003;4.769499e-002
2.275687e+003;4.724414e-002
2.277615e+003;4.667620e-002
2.279544e+003;4.631549e-002
2.281472e+003;4.602927e-002
2.283401e+003;4.572947e-002
2.285329e+003;4.573559e-002
2.287258e+003;4.585724e-002
2.289187e+003;4.553967e-002
2.291115e+003;4.511609e-002
2.293043e+003;4.495899e-002
2.294972e+003;4.498792e-002
2.296901e+003;4.519009e-002
2.298829e+003;4.509223e-002
2.300758e+003;4.474811e-002
2.302686e+003;4.466537e-002
2.304615e+003;4.472571e-002
2.306543e+003;4.453913e-002
2.308472e+003;4.416740e-002
2.310400e+003;4.401424e-002
2.312329e+003;4.408278e-002
2.314258e+003;4.403738e-002
2.316186e+003;4.410445e-002
2.318115e+003;4.411799e-002
2.320043e+003;4.395767e-002
2.321972e+003;4.387918e-002
2.323900e+003;4.354573e-002
2.325829e+003;4.318055e-002
2.327757e+003;4.292265e-002
2.329686e+003;4.294536e-002
2.331615e+003;4.307410e-002
2.333543e+003;4.302339e-002
2.335472e+003;4.311717e-002
2.337400e+003;4.296204e-002
2.339329e+003;4.283681e-002
2.341257e+003;4.275063e-002
2.343186e+003;4.290655e-002
2.345114e+003;4.345036e-002
2.347043e+003;4.395961e-002
2.348971e+003;4.411898e-002
2.350900e+003;4.386506e-002
2.352829e+003;4.332854e-002
2.354757e+003;4.279096e-002
2.356686e+003;4.249974e-002
2.358614e+003;4.223958e-002
2.360543e+003;4.207458e-002
2.362471e+003;4.204622e-002
2.364400e+003;4.208860e-002
2.366328e+003;4.249791e-002
2.368257e+003;4.292352e-002
2.370186e+003;4.313978e-002
2.372114e+003;4.342194e-002
2.374042e+003;4.396947e-002
2.375971e+003;4.430332e-002
2.377900e+003;4.429433e-002
2.379828e+003;4.435465e-002
2.381757e+003;4.459064e-002
2.383685e+003;4.483308e-002
2.385614e+003;4.480931e-002
2.387542e+003;4.457225e-002
2.389471e+003;4.455037e-002
2.391399e+003;4.463999e-002
2.393328e+003;4.462376e-002
2.395257e+003;4.439517e-002
2.397185e+003;4.402733e-002
2.399114e+003;4.397263e-002
2.401042e+003;4.449981e-002
2.402971e+003;4.475528e-002
2.404899e+003;4.455290e-002
2.406828e+003;4.453304e-002
2.408756e+003;4.450047e-002
2.410685e+003;4.448532e-002
2.412614e+003;4.474440e-002
2.414542e+003;4.489833e-002
2.416471e+003;4.472237e-002
2.418399e+003;4.464745e-002
2.420328e+003;4.460023e-002
2.422256e+003;4.447228e-002
2.424185e+003;4.460353e-002
2.426113e+003;4.486350e-002
2.428042e+003;4.474359e-002
2.429970e+003;4.450308e-002
2.431899e+003;4.444028e-002
2.433828e+003;4.451582e-002
2.435756e+003;4.470624e-002
2.437685e+003;4.472523e-002
2.439613e+003;4.488128e-002
2.441542e+003;4.493713e-002
2.443470e+003;4.476898e-002
2.445399e+003;4.457309e-002
2.447327e+003;4.462747e-002
2.449256e+003;4.486989e-002
2.451185e+003;4.498873e-002
2.453113e+003;4.515976e-002
2.455042e+003;4.529371e-002
2.456970e+003;4.485692e-002
2.458899e+003;4.455591e-002
2.460827e+003;4.462699e-002
2.462756e+003;4.482860e-002
2.464684e+003;4.505359e-002
2.466613e+003;4.512766e-002
2.468542e+003;4.508076e-002
2.470470e+003;4.519083e-002
2.472398e+003;4.552716e-002
2.474327e+003;4.566844e-002
2.476256e+003;4.554478e-002
2.478184e+003;4.554563e-002
2.480113e+003;4.569075e-002
2.482041e+003;4.582678e-002
2.483970e+003;4.582222e-002
2.485898e+003;4.592474e-002
2.487827e+003;4.590846e-002
2.489755e+003;4.566288e-002
2.491684e+003;4.566509e-002
2.493613e+003;4.610174e-002
2.495541e+003;4.666078e-002
2.497470e+003;4.686086e-002
2.499398e+003;4.678494e-002
2.501327e+003;4.680989e-002
2.503255e+003;4.661264e-002
2.505184e+003;4.644055e-002
2.507112e+003;4.654960e-002
2.509041e+003;4.659740e-002
2.510969e+003;4.672652e-002
2.512898e+003;4.660124e-002
2.514827e+003;4.641847e-002
2.516755e+003;4.636928e-002
2.518684e+003;4.622899e-002
2.520612e+003;4.611707e-002
2.522541e+003;4.621340e-002
2.524469e+003;4.632666e-002
2.526398e+003;4.626385e-002
2.528326e+003;4.618553e-002
2.530255e+003;4.623533e-002
2.532184e+003;4.632467e-002
2.534112e+003;4.640844e-002
2.536041e+003;4.649181e-002
2.537969e+003;4.629511e-002
2.539898e+003;4.617396e-002
2.541826e+003;4.627930e-002
2.543755e+003;4.621697e-002
2.545683e+003;4.607157e-002
2.547612e+003;4.597207e-002
2.549541e+003;4.608498e-002
2.551469e+003;4.625162e-002
2.553397e+003;4.621623e-002
2.555326e+003;4.603752e-002
2.557255e+003;4.588939e-002
2.559183e+003;4.585363e-002
2.561112e+003;4.576062e-002
2.563040e+003;4.575355e-002
2.564969e+003;4.562608e-002
2.566897e+003;4.529963e-002
2.568826e+003;4.498351e-002
2.570754e+003;4.499582e-002
2.572683e+003;4.519719e-002
2.574612e+003;4.538887e-002
2.576540e+003;4.537110e-002
2.578469e+003;4.512983e-002
2.580397e+003;4.500515e-002
2.582326e+003;4.494231e-002
2.584254e+003;4.478297e-002
2.586183e+003;4.474727e-002
2.588111e+003;4.464025e-002
2.590040e+003;4.454548e-002
2.591969e+003;4.451846e-002
2.593897e+003;4.453377e-002
2.595826e+003;4.463056e-002
2.597754e+003;4.470804e-002
2.599683e+003;4.458169e-002
2.601611e+003;4.450385e-002
2.603540e+003;4.465545e-002
2.605468e+003;4.464635e-002
2.607397e+003;4.477893e-002
2.609325e+003;4.499277e-002
2.611254e+003;4.507454e-002
2.613183e+003;4.507117e-002
2.615111e+003;4.511866e-002
2.617040e+003;4.496076e-002
2.618968e+003;4.496425e-002
2.620897e+003;4.517597e-002
2.622825e+003;4.510502e-002
2.624754e+003;4.508749e-002
2.626682e+003;4.512892e-002
2.628611e+003;4.504422e-002
2.630540e+003;4.523988e-002
2.632468e+003;4.561746e-002
2.634396e+003;4.566104e-002
2.636325e+003;4.541208e-002
2.638254e+003;4.528489e-002
2.640182e+003;4.496638e-002
2.642111e+003;4.464914e-002
2.644039e+003;4.478069e-002
2.645968e+003;4.496418e-002
2.647896e+003;4.486614e-002
2.649825e+003;4.490682e-002
2.651753e+003;4.501037e-002
2.653682e+003;4.494768e-002
2.655611e+003;4.481126e-002
2.657539e+003;4.488334e-002
2.659468e+003;4.480806e-002
2.661396e+003;4.452133e-002
2.663325e+003;4.469636e-002
2.665253e+003;4.491501e-002
2.667182e+003;4.501842e-002
2.669110e+003;4.498207e-002
2.671039e+003;4.484417e-002
2.672968e+003;4.480013e-002
2.674896e+003;4.488073e-002
2.676825e+003;4.504609e-002
2.678753e+003;4.489921e-002
2.680682e+003;4.461756e-002
2.682610e+003;4.457060e-002
2.684539e+003;4.484443e-002
2.686467e+003;4.512498e-002
2.688396e+003;4.520292e-002
2.690324e+003;4.536257e-002
2.692253e+003;4.527680e-002
2.694182e+003;4.498090e-002
2.696110e+003;4.497046e-002
2.698039e+003;4.484164e-002
2.699967e+003;4.480751e-002
2.701896e+003;4.499133e-002
2.703824e+003;4.490788e-002
2.705753e+003;4.471869e-002
2.707681e+003;4.476853e-002
2.709610e+003;4.482004e-002
2.711539e+003;4.463577e-002
2.713467e+003;4.452302e-002
2.715396e+003;4.450205e-002
2.717324e+003;4.461062e-002
2.719253e+003;4.453197e-002
2.721181e+003;4.432875e-002
2.723110e+003;4.460485e-002
2.725038e+003;4.454170e-002
2.726967e+003;4.424616e-002
2.728896e+003;4.418673e-002
2.730824e+003;4.425713e-002
2.732752e+003;4.450025e-002
2.734681e+003;4.457893e-002
2.736610e+003;4.437018e-002
2.738538e+003;4.404204e-002
2.740467e+003;4.392023e-002
2.742395e+003;4.385477e-002
2.744324e+003;4.373302e-002
2.746252e+003;4.373961e-002
2.748181e+003;4.392346e-002
2.750109e+003;4.401432e-002
2.752038e+003;4.390704e-002
2.753967e+003;4.384703e-002
2.755895e+003;4.382189e-002
2.757824e+003;4.407453e-002
2.759752e+003;4.405722e-002
2.761681e+003;4.393475e-002
2.763609e+003;4.391323e-002
2.765538e+003;4.410823e-002
2.767466e+003;4.452026e-002
2.769395e+003;4.444633e-002
2.771323e+003;4.437421e-002
2.773252e+003;4.449317e-002
2.775181e+003;4.452481e-002
2.777109e+003;4.449941e-002
2.779038e+003;4.460056e-002
2.780966e+003;4.500526e-002
2.782895e+003;4.548816e-002
2.784823e+003;4.539891e-002
2.786752e+003;4.512619e-002
2.788680e+003;4.518899e-002
2.790609e+003;4.554026e-002
2.792538e+003;4.588069e-002
2.794466e+003;4.609238e-002
2.796395e+003;4.615495e-002
2.798323e+003;4.620253e-002
2.800252e+003;4.646360e-002
2.802180e+003;4.666779e-002
2.804109e+003;4.700940e-002
2.806037e+003;4.716254e-002
2.807966e+003;4.715446e-002
2.809895e+003;4.722985e-002
2.811823e+003;4.745480e-002
2.813751e+003;4.750500e-002
2.815680e+003;4.748071e-002
2.817609e+003;4.748322e-002
2.819537e+003;4.773253e-002
2.821466e+003;4.786147e-002
2.823394e+003;4.765446e-002
2.825323e+003;4.792470e-002
2.827251e+003;4.844290e-002
2.829180e+003;4.836548e-002
2.831108e+003;4.842115e-002
2.833037e+003;4.911220e-002
2.834966e+003;4.981766e-002
2.836894e+003;5.029876e-002
2.838823e+003;5.094939e-002
2.840751e+003;5.202350e-002
2.842680e+003;5.348480e-002
2.844608e+003;5.520835e-002
2.846537e+003;5.733915e-002
2.848465e+003;5.889553e-002
2.850394e+003;5.950192e-002
2.852323e+003;5.926270e-002
2.854251e+003;5.863143e-002
2.856180e+003;5.838117e-002
2.858108e+003;5.823910e-002
2.860037e+003;5.857721e-002
2.861965e+003;5.855351e-002
2.863894e+003;5.807731e-002
2.865822e+003;5.824365e-002
2.867751e+003;5.882644e-002
2.869679e+003;5.902070e-002
2.871608e+003;5.863192e-002
2.873536e+003;5.829594e-002
2.875465e+003;5.827832e-002
2.877394e+003;5.796775e-002
2.879322e+003;5.764208e-002
2.881251e+003;5.732365e-002
2.883179e+003;5.703106e-002
2.885108e+003;5.700352e-002
2.887036e+003;5.748625e-002
2.888965e+003;5.820061e-002
2.890893e+003;5.858615e-002
2.892822e+003;5.883065e-002
2.894750e+003;5.939307e-002
2.896679e+003;6.017933e-002
2.898608e+003;6.062771e-002
2.900536e+003;6.099821e-002
2.902465e+003;6.183629e-002
2.904393e+003;6.286857e-002
2.906322e+003;6.433460e-002
2.908250e+003;6.572931e-002
2.910179e+003;6.709958e-002
2.912107e+003;6.925113e-002
2.914036e+003;7.219489e-002
2.915965e+003;7.434425e-002
2.917893e+003;7.499947e-002
2.919822e+003;7.502633e-002
2.921750e+003;7.493292e-002
2.923679e+003;7.474609e-002
2.925607e+003;7.452170e-002
2.927536e+003;7.398607e-002
2.929464e+003;7.340530e-002
2.931393e+003;7.311620e-002
2.933322e+003;7.263947e-002
2.935250e+003;7.227656e-002
2.937178e+003;7.186972e-002
2.939107e+003;7.118043e-002
2.941036e+003;7.070057e-002
2.942964e+003;6.998885e-002
2.944893e+003;6.874257e-002
2.946821e+003;6.774666e-002
2.948750e+003;6.670463e-002
2.950678e+003;6.532177e-002
2.952607e+003;6.405570e-002
2.954535e+003;6.290759e-002
2.956464e+003;6.167067e-002
2.958393e+003;6.019345e-002
2.960321e+003;5.866810e-002
2.962250e+003;5.750278e-002
2.964178e+003;5.669847e-002
2.966107e+003;5.641034e-002
2.968035e+003;5.649049e-002
2.969964e+003;5.673996e-002
2.971892e+003;5.659043e-002
2.973821e+003;5.639544e-002
2.975750e+003;5.647347e-002
2.977678e+003;5.656329e-002
2.979607e+003;5.651641e-002
2.981535e+003;5.654008e-002
2.983464e+003;5.632795e-002
2.985392e+003;5.585591e-002
2.987321e+003;5.545264e-002
2.989249e+003;5.527871e-002
2.991178e+003;5.506408e-002
2.993106e+003;5.479763e-002
2.995035e+003;5.470596e-002
2.996964e+003;5.458891e-002
2.998892e+003;5.442081e-002
3.000821e+003;5.422146e-002
3.002749e+003;5.377988e-002
3.004678e+003;5.332192e-002
3.006606e+003;5.301450e-002
3.008535e+003;5.249381e-002
3.010463e+003;5.194407e-002
3.012392e+003;5.204311e-002
3.014321e+003;5.209167e-002
3.016249e+003;5.143208e-002
3.018177e+003;5.087962e-002
3.020106e+003;5.095062e-002
3.022035e+003;5.079562e-002
3.023963e+003;5.017537e-002
3.025892e+003;5.010553e-002
3.027820e+003;5.036037e-002
3.029749e+003;5.010895e-002
3.031677e+003;4.979834e-002
3.033606e+003;4.953543e-002
3.035534e+003;4.925915e-002
3.037463e+003;4.919940e-002
3.039392e+003;4.894787e-002
3.041320e+003;4.865714e-002
3.043249e+003;4.877957e-002
3.045177e+003;4.895507e-002
3.047106e+003;4.930320e-002
3.049034e+003;4.890994e-002
3.050963e+003;4.823687e-002
3.052891e+003;4.820969e-002
3.054820e+003;4.790406e-002
3.056749e+003;4.716177e-002
3.058677e+003;4.708303e-002
3.060606e+003;4.772643e-002
3.062534e+003;4.797314e-002
3.064463e+003;4.790691e-002
3.066391e+003;4.753878e-002
3.068320e+003;4.714153e-002
3.070248e+003;4.682767e-002
3.072177e+003;4.642816e-002
3.074105e+003;4.628177e-002
3.076034e+003;4.629282e-002
3.077963e+003;4.598039e-002
3.079891e+003;4.568261e-002
3.081820e+003;4.582100e-002
3.083748e+003;4.593977e-002
3.085677e+003;4.558556e-002
3.087605e+003;4.522098e-002
3.089534e+003;4.531258e-002
3.091462e+003;4.544070e-002
3.093391e+003;4.550895e-002
3.095320e+003;4.567466e-002
3.097248e+003;4.553533e-002
3.099177e+003;4.510697e-002
3.101105e+003;4.487794e-002
3.103034e+003;4.463463e-002
3.104962e+003;4.448396e-002
3.106891e+003;4.443939e-002
3.108819e+003;4.440651e-002
3.110748e+003;4.434882e-002
3.112677e+003;4.447412e-002
3.114605e+003;4.475480e-002
3.116533e+003;4.462938e-002
3.118462e+003;4.428343e-002
3.120391e+003;4.392830e-002
3.122319e+003;4.344282e-002
3.124248e+003;4.325609e-002
3.126176e+003;4.351350e-002
3.128105e+003;4.388291e-002
3.130033e+003;4.388673e-002
3.131962e+003;4.367790e-002
3.133890e+003;4.324398e-002
3.135819e+003;4.312412e-002
3.137748e+003;4.327103e-002
3.139676e+003;4.342231e-002
3.141605e+003;4.330844e-002
3.143533e+003;4.326473e-002
3.145462e+003;4.336804e-002
3.147390e+003;4.312723e-002
3.149319e+003;4.269901e-002
3.151247e+003;4.295443e-002
3.153176e+003;4.322868e-002
3.155104e+003;4.309049e-002
3.157033e+003;4.312551e-002
3.158962e+003;4.340371e-002
3.160890e+003;4.324145e-002
3.162819e+003;4.314059e-002
3.164747e+003;4.299427e-002
3.166676e+003;4.258613e-002
3.168604e+003;4.274075e-002
3.170533e+003;4.295827e-002
3.172461e+003;4.266585e-002
3.174390e+003;4.254498e-002
3.176319e+003;4.307417e-002
3.178247e+003;4.375031e-002
3.180176e+003;4.366955e-002
3.182104e+003;4.330086e-002
3.184033e+003;4.318494e-002
3.185961e+003;4.340572e-002
3.187890e+003;4.359994e-002
3.189818e+003;4.353445e-002
3.191747e+003;4.339810e-002
3.193676e+003;4.324280e-002
3.195604e+003;4.328344e-002
3.197532e+003;4.328432e-002
3.199461e+003;4.328538e-002
3.201390e+003;4.327773e-002
3.203318e+003;4.346442e-002
3.205247e+003;4.355665e-002
3.207175e+003;4.348273e-002
3.209104e+003;4.356393e-002
3.211032e+003;4.372426e-002
3.212961e+003;4.360295e-002
3.214889e+003;4.343996e-002
3.216818e+003;4.349907e-002
3.218747e+003;4.356185e-002
3.220675e+003;4.355492e-002
3.222604e+003;4.325049e-002
3.224532e+003;4.299006e-002
3.226461e+003;4.315727e-002
3.228389e+003;4.383002e-002
3.230318e+003;4.432420e-002
3.232246e+003;4.430695e-002
3.234175e+003;4.400643e-002
3.236104e+003;4.384186e-002
3.238032e+003;4.411153e-002
3.239961e+003;4.424634e-002
3.241889e+003;4.402044e-002
3.243818e+003;4.361288e-002
3.245746e+003;4.353229e-002
3.247675e+003;4.370901e-002
3.249603e+003;4.404893e-002
3.251532e+003;4.440214e-002
3.253460e+003;4.419535e-002
3.255389e+003;4.379788e-002
3.257318e+003;4.362537e-002
3.259246e+003;4.372371e-002
3.261175e+003;4.383295e-002
3.263103e+003;4.358265e-002
3.265032e+003;4.339089e-002
3.266960e+003;4.357976e-002
3.268889e+003;4.351474e-002
3.270817e+003;4.350745e-002
3.272746e+003;4.365434e-002
3.274675e+003;4.358514e-002
3.276603e+003;4.336083e-002
3.278531e+003;4.328578e-002
3.280460e+003;4.363046e-002
3.282389e+003;4.371876e-002
3.284317e+003;4.342579e-002
3.286246e+003;4.329383e-002
3.288174e+003;4.321038e-002
3.290103e+003;4.309887e-002
3.292031e+003;4.308061e-002
3.293960e+003;4.324028e-002
3.295888e+003;4.341250e-002
3.297817e+003;4.311479e-002
3.299746e+003;4.292652e-002
3.301674e+003;4.294002e-002
3.303603e+003;4.293545e-002
3.305531e+003;4.301146e-002
3.307460e+003;4.277531e-002
3.309388e+003;4.273911e-002
3.311317e+003;4.304413e-002
3.313245e+003;4.319702e-002
3.315174e+003;4.306031e-002
3.317103e+003;4.294628e-002
3.319031e+003;4.279092e-002
3.320960e+003;4.284416e-002
3.322888e+003;4.273103e-002
3.324817e+003;4.262868e-002
3.326745e+003;4.259918e-002
3.328674e+003;4.250321e-002
3.330602e+003;4.220982e-002
3.332531e+003;4.218334e-002
3.334459e+003;4.225901e-002
3.336388e+003;4.201049e-002
3.338317e+003;4.188808e-002
3.340245e+003;4.228497e-002
3.342174e+003;4.216060e-002
3.344102e+003;4.154610e-002
3.346031e+003;4.130990e-002
3.347959e+003;4.124475e-002
3.349888e+003;4.114398e-002
3.351816e+003;4.151179e-002
3.353745e+003;4.167154e-002
3.355674e+003;4.139190e-002
3.357602e+003;4.131212e-002
3.359531e+003;4.142758e-002
3.361459e+003;4.116959e-002
3.363388e+003;4.137870e-002
3.365316e+003;4.158690e-002
3.367245e+003;4.130695e-002
3.369173e+003;4.086661e-002
3.371102e+003;4.102142e-002
3.373031e+003;4.107306e-002
3.374959e+003;4.094018e-002
3.376887e+003;4.086657e-002
3.378816e+003;4.075373e-002
3.380745e+003;4.058901e-002
3.382673e+003;4.024968e-002
3.384602e+003;4.025488e-002
3.386530e+003;4.056355e-002
3.388459e+003;4.054754e-002
3.390387e+003;4.066087e-002
3.392316e+003;4.066782e-002
3.394244e+003;4.063100e-002
3.396173e+003;4.042519e-002
3.398102e+003;4.016328e-002
3.400030e+003;4.012676e-002
3.401959e+003;4.065071e-002
3.403887e+003;4.082249e-002
3.405816e+003;4.059316e-002
3.407744e+003;4.043781e-002
3.409673e+003;4.058272e-002
3.411601e+003;4.033228e-002
3.413530e+003;3.967872e-002
3.415458e+003;3.976560e-002
3.417387e+003;4.048290e-002
3.419316e+003;4.080028e-002
3.421244e+003;4.068139e-002
3.423173e+003;4.066440e-002
3.425101e+003;4.072808e-002
3.427030e+003;4.035312e-002
3.428958e+003;4.034675e-002
3.430887e+003;4.088554e-002
3.432815e+003;4.108137e-002
3.434744e+003;4.090126e-002
3.436673e+003;4.070199e-002
3.438601e+003;4.056347e-002
3.440530e+003;4.017222e-002
3.442458e+003;4.001589e-002
3.444387e+003;4.039228e-002
3.446315e+003;4.040679e-002
3.448244e+003;3.996783e-002
3.450172e+003;3.986921e-002
3.452101e+003;4.017546e-002
3.454030e+003;4.047137e-002
3.455958e+003;4.059978e-002
3.457886e+003;4.037435e-002
3.459815e+003;3.989017e-002
3.461744e+003;3.983115e-002
3.463672e+003;3.996779e-002
3.465601e+003;3.974610e-002
3.467529e+003;3.968935e-002
3.469458e+003;3.971401e-002
3.471386e+003;3.975776e-002
3.473315e+003;3.986754e-002
3.475243e+003;4.003192e-002
3.477172e+003;4.027073e-002
3.479101e+003;4.022558e-002
3.481029e+003;4.027586e-002
3.482958e+003;4.047047e-002
3.484886e+003;4.021439e-002
3.486815e+003;3.999366e-002
3.488743e+003;3.968275e-002
3.490672e+003;3.966975e-002
3.492600e+003;4.002861e-002
3.494529e+003;4.022140e-002
3.496458e+003;4.018709e-002
3.498386e+003;4.003450e-002
3.500315e+003;4.017731e-002
3.502243e+003;4.043781e-002
3.504172e+003;4.060182e-002
3.506100e+003;4.072011e-002
3.508029e+003;4.073572e-002
3.509957e+003;4.072011e-002
3.511886e+003;4.061444e-002
3.513814e+003;4.033784e-002
3.515743e+003;4.055271e-002
3.517672e+003;4.128188e-002
3.519600e+003;4.155514e-002
3.521529e+003;4.158311e-002
3.523457e+003;4.135440e-002
3.525386e+003;4.081998e-002
3.527314e+003;4.085874e-002
3.529243e+003;4.134160e-002
3.531171e+003;4.157982e-002
3.533100e+003;4.147730e-002
3.535029e+003;4.133449e-002
3.536957e+003;4.136394e-002
3.538885e+003;4.170670e-002
3.540814e+003;4.158299e-002
3.542743e+003;4.119246e-002
3.544671e+003;4.106516e-002
3.546600e+003;4.144701e-002
3.548528e+003;4.124114e-002
3.550457e+003;4.037046e-002
3.552385e+003;4.054230e-002
3.554314e+003;4.131730e-002
3.556242e+003;4.134408e-002
3.558171e+003;4.130225e-002
3.560100e+003;4.119742e-002
3.562028e+003;4.078908e-002
3.563957e+003;4.075865e-002
3.565885e+003;4.051306e-002
3.567814e+003;4.060022e-002
3.569742e+003;4.080214e-002
3.571671e+003;4.056758e-002
3.573599e+003;4.042489e-002
3.575528e+003;4.096057e-002
3.577457e+003;4.091990e-002
3.579385e+003;4.020105e-002
3.581314e+003;3.995068e-002
3.583242e+003;3.993379e-002
3.585171e+003;3.935958e-002
3.587099e+003;3.817374e-002
3.589028e+003;3.806398e-002
3.590956e+003;3.942880e-002
3.592885e+003;4.000347e-002
3.594813e+003;4.038224e-002
3.596742e+003;4.083181e-002
3.598671e+003;4.096975e-002
3.600599e+003;4.114515e-002
3.602528e+003;4.116838e-002
3.604456e+003;4.071935e-002
3.606385e+003;3.997128e-002
3.608313e+003;3.961000e-002
3.610242e+003;3.979999e-002
3.612170e+003;4.014853e-002
3.614099e+003;4.055100e-002
3.616028e+003;4.066211e-002
3.617956e+003;4.051109e-002
3.619885e+003;4.038708e-002
3.621813e+003;4.078387e-002
3.623742e+003;4.114952e-002
3.625670e+003;4.035177e-002
3.627599e+003;3.787631e-002
3.629527e+003;3.782016e-002
3.631456e+003;3.977737e-002
3.633385e+003;4.041242e-002
3.635313e+003;4.039460e-002
3.637241e+003;4.040708e-002
3.639170e+003;4.076666e-002
3.641099e+003;4.054543e-002
3.643027e+003;4.012988e-002
3.644956e+003;3.930651e-002
3.646884e+003;3.748624e-002
3.648813e+003;3.585958e-002
3.650741e+003;3.657251e-002
3.652670e+003;3.838409e-002
3.654598e+003;3.802395e-002
3.656527e+003;3.717254e-002
3.658456e+003;3.792515e-002
3.660384e+003;3.832343e-002
3.662313e+003;3.815015e-002
3.664241e+003;3.778427e-002
3.666170e+003;3.700426e-002
3.668098e+003;3.505773e-002
3.670027e+003;3.306553e-002
3.671955e+003;3.347709e-002
3.673884e+003;3.236397e-002
3.675813e+003;3.141381e-002
3.677741e+003;3.340409e-002
3.679669e+003;3.481792e-002
3.681598e+003;3.512221e-002
3.683527e+003;3.441571e-002
3.685455e+003;3.305001e-002
3.687384e+003;3.059292e-002
3.689312e+003;3.049832e-002
3.691241e+003;3.258025e-002
3.693169e+003;3.428987e-002
3.695098e+003;3.442708e-002
3.697026e+003;3.401028e-002
3.698955e+003;3.349835e-002
3.700884e+003;3.299499e-002
3.702812e+003;3.373120e-002
3.704741e+003;3.436083e-002
3.706669e+003;3.390641e-002
3.708598e+003;3.264404e-002
3.710526e+003;3.084267e-002
3.712455e+003;3.057130e-002
3.714383e+003;3.245565e-002
3.716312e+003;3.339661e-002
3.718240e+003;3.316633e-002
3.720169e+003;3.322277e-002
3.722098e+003;3.288440e-002
3.724026e+003;3.219144e-002
3.725955e+003;3.202244e-002
3.727883e+003;3.246915e-002
3.729812e+003;3.188724e-002
3.731740e+003;3.043261e-002
3.733669e+003;3.016455e-002
3.735597e+003;2.999108e-002
3.737526e+003;3.132381e-002
3.739455e+003;3.264746e-002
3.741383e+003;3.125288e-002
3.743312e+003;2.719116e-002
3.745240e+003;2.774590e-002
3.747169e+003;2.978294e-002
3.749097e+003;2.800533e-002
3.751026e+003;2.747148e-002
3.752954e+003;2.997773e-002
3.754883e+003;3.260796e-002
3.756812e+003;3.239788e-002
3.758740e+003;3.225650e-002
3.760668e+003;3.262360e-002
3.762597e+003;3.315571e-002
3.764526e+003;3.306606e-002
3.766454e+003;3.315124e-002
3.768383e+003;3.240670e-002
3.770311e+003;3.244765e-002
3.772240e+003;3.333195e-002
3.774168e+003;3.382564e-002
3.776097e+003;3.360863e-002
3.778025e+003;3.284894e-002
3.779954e+003;3.264043e-002
3.781883e+003;3.305795e-002
3.783811e+003;3.292786e-002
3.785740e+003;3.325668e-002
3.787668e+003;3.365507e-002
3.789597e+003;3.345508e-002
3.791525e+003;3.311091e-002
3.793454e+003;3.300260e-002
3.795382e+003;3.269419e-002
3.797311e+003;3.263589e-002
3.799240e+003;3.147202e-002
3.801168e+003;3.012296e-002
3.803097e+003;3.161486e-002
3.805025e+003;3.221706e-002
3.806954e+003;3.189747e-002
3.808882e+003;3.329653e-002
3.810811e+003;3.380318e-002
3.812739e+003;3.325586e-002
3.814668e+003;3.131317e-002
3.816596e+003;3.137534e-002
3.818525e+003;3.200179e-002
3.820454e+003;3.036314e-002
3.822382e+003;3.143472e-002
3.824311e+003;3.308512e-002
3.826239e+003;3.264243e-002
3.828168e+003;3.285091e-002
3.830096e+003;3.258510e-002
3.832025e+003;3.196491e-002
3.833953e+003;3.205070e-002
3.835882e+003;3.100090e-002
3.837811e+003;2.964900e-002
3.839739e+003;3.099627e-002
3.841667e+003;3.231960e-002
3.843596e+003;3.315553e-002
3.845525e+003;3.404321e-002
3.847453e+003;3.413948e-002
3.849382e+003;3.247707e-002
3.851310e+003;2.839765e-002
3.853239e+003;2.589407e-002
3.855167e+003;2.946305e-002
3.857096e+003;3.320224e-002
3.859024e+003;3.358461e-002
3.860953e+003;3.272513e-002
3.862882e+003;3.225450e-002
3.864810e+003;3.255010e-002
3.866739e+003;3.301737e-002
3.868667e+003;3.166051e-002
3.870596e+003;3.168867e-002
3.872524e+003;3.295349e-002
3.874453e+003;3.324341e-002
3.876381e+003;3.393636e-002
3.878310e+003;3.371827e-002
3.880239e+003;3.344420e-002
3.882167e+003;3.344491e-002
3.884096e+003;3.218702e-002
3.886024e+003;3.228591e-002
3.887953e+003;3.337446e-002
3.889881e+003;3.305545e-002
3.891810e+003;3.354012e-002
3.893738e+003;3.477018e-002
3.895667e+003;3.499150e-002
3.897595e+003;3.373048e-002
3.899524e+003;3.259371e-002
3.901453e+003;3.252221e-002
3.903381e+003;3.210777e-002
3.905310e+003;3.299846e-002
3.907238e+003;3.453125e-002
3.909167e+003;3.477086e-002
3.911095e+003;3.461187e-002
3.913024e+003;3.417231e-002
3.914952e+003;3.362413e-002
3.916881e+003;3.394862e-002
3.918810e+003;3.460631e-002
3.920738e+003;3.503758e-002
3.922667e+003;3.523567e-002
3.924595e+003;3.515321e-002
3.926524e+003;3.537692e-002
3.928452e+003;3.527668e-002
3.930381e+003;3.479847e-002
3.932309e+003;3.450086e-002
3.934238e+003;3.465102e-002
3.936167e+003;3.467898e-002
3.938095e+003;3.478130e-002
3.940023e+003;3.473073e-002
3.941952e+003;3.483422e-002
3.943881e+003;3.519475e-002
3.945809e+003;3.559729e-002
3.947738e+003;3.568760e-002
3.949666e+003;3.544551e-002
3.951595e+003;3.523208e-002
3.953523e+003;3.527463e-002
3.955452e+003;3.537548e-002
3.957380e+003;3.511682e-002
3.959309e+003;3.517171e-002
3.961238e+003;3.549541e-002
3.963166e+003;3.551408e-002
3.965095e+003;3.559549e-002
3.967023e+003;3.590752e-002
3.968952e+003;3.586196e-002
3.970880e+003;3.590536e-002
3.972809e+003;3.536423e-002
3.974737e+003;3.476515e-002
3.976666e+003;3.508560e-002
3.978594e+003;3.564739e-002
3.980523e+003;3.596323e-002
3.982452e+003;3.643423e-002
3.984380e+003;3.639423e-002
3.986309e+003;3.615635e-002
3.988237e+003;3.608196e-002
3.990166e+003;3.551573e-002
3.992094e+003;3.557251e-002
3.994023e+003;3.593444e-002
3.995951e+003;3.583227e-002
3.997880e+003;3.581798e-002
3.999809e+003;3.597497e-002
4.001737e+003;0.000000e+000
