3.992094e+002;0.000000e+000
4.011380e+002;0.000000e+000
4.030665e+002;0.000000e+000
4.049951e+002;0.000000e+000
4.069236e+002;0.000000e+000
4.088522e+002;0.000000e+000
4.107807e+002;0.000000e+000
4.127093e+002;0.000000e+000
4.146378e+002;0.000000e+000
4.165664e+002;0.000000e+000
4.184949e+002;0.000000e+000
4.204235e+002;0.000000e+000
4.223520e+002;0.000000e+000
4.242806e+002;0.000000e+000
4.262091e+002;0.000000e+000
4.281377e+002;0.000000e+000
4.300662e+002;0.000000e+000
4.319948e+002;0.000000e+000
4.339233e+002;0.000000e+000
4.358519e+002;0.000000e+000
4.377804e+002;0.000000e+000
4.397090e+002;0.000000e+000
4.416375e+002;0.000000e+000
4.435660e+002;0.000000e+000
4.454946e+002;0.000000e+000
4.474232e+002;0.000000e+000
4.493517e+002;0.000000e+000
4.512802e+002;0.000000e+000
4.532088e+002;0.000000e+000
4.551373e+002;0.000000e+000
4.570659e+002;0.000000e+000
4.589944e+002;0.000000e+000
4.609230e+002;0.000000e+000
4.628515e+002;0.000000e+000
4.647801e+002;0.000000e+000
4.667086e+002;0.000000e+000
4.686372e+002;0.000000e+000
4.705657e+002;0.000000e+000
4.724943e+002;0.000000e+000
4.744228e+002;0.000000e+000
4.763513e+002;0.000000e+000
4.782799e+002;0.000000e+000
4.802085e+002;0.000000e+000
4.821370e+002;0.000000e+000
4.840656e+002;0.000000e+000
4.859941e+002;0.000000e+000
4.879226e+002;0.000000e+000
4.898512e+002;0.000000e+000
4.917798e+002;0.000000e+000
4.937083e+002;0.000000e+000
4.956368e+002;0.000000e+000
4.975654e+002;0.000000e+000
4.994939e+002;0.000000e+000
5.014225e+002;0.000000e+000
5.033510e+002;0.000000e+000
5.052796e+002;0.000000e+000
5.072081e+002;0.000000e+000
5.091367e+002;0.000000e+000
5.110652e+002;0.000000e+000
5.129938e+002;0.000000e+000
5.149223e+002;0.000000e+000
5.168509e+002;0.000000e+000
5.187794e+002;0.000000e+000
5.207079e+002;0.000000e+000
5.226365e+002;0.000000e+000
5.245651e+002;0.000000e+000
5.264936e+002;0.000000e+000
5.284222e+002;0.000000e+000
5.303507e+002;0.000000e+000
5.322792e+002;0.000000e+000
5.342078e+002;0.000000e+000
5.361364e+002;0.000000e+000
5.380649e+002;0.000000e+000
5.399935e+002;0.000000e+000
5.419220e+002;0.000000e+000
5.438505e+002;0.000000e+000
5.457791e+002;0.000000e+000
5.477076e+002;0.000000e+000
5.496362e+002;0.000000e+000
5.515648e+002;0.000000e+000
5.534933e+002;0.000000e+000
5.554218e+002;0.000000e+000
5.573504e+002;0.000000e+000
5.592789e+002;0.000000e+000
5.612075e+002;0.000000e+000
5.631360e+002;0.000000e+000
5.650646e+002;0.000000e+000
5.669931e+002;0.000000e+000
5.689217e+002;0.000000e+000
5.708502e+002;0.000000e+000
5.727787e+002;0.000000e+000
5.747073e+002;0.000000e+000
5.766359e+002;0.000000e+000
5.785644e+002;0.000000e+000
5.804930e+002;0.000000e+000
5.824215e+002;0.000000e+000
5.843500e+002;0.000000e+000
5.862786e+002;0.000000e+000
5.882072e+002;0.000000e+000
5.901357e+002;0.000000e+000
5.920643e+002;0.000000e+000
5.939928e+002;0.000000e+000
5.959213e+002;0.000000e+000
5.978499e+002;0.000000e+000
5.997784e+002;4.887300e-002
6.017070e+002;4.718327e-002
6.036355e+002;4.702931e-002
6.055641e+002;4.682041e-002
6.074926e+002;4.620370e-002
6.094211e+002;4.556109e-002
6.113497e+002;4.521373e-002
6.132783e+002;4.452052e-002
6.152068e+002;4.619313e-002
6.171354e+002;5.066126e-002
6.190639e+002;4.934047e-002
6.209924e+002;4.637599e-002
6.229210e+002;5.073335e-002
6.248495e+002;5.647739e-002
6.267781e+002;5.673581e-002
6.287067e+002;5.621223e-002
6.306352e+002;5.666479e-002
6.325637e+002;5.407035e-002
6.344923e+002;5.060359e-002
6.364208e+002;4.829178e-002
6.383494e+002;5.141437e-002
6.402780e+002;5.347026e-002
6.422065e+002;5.177318e-002
6.441350e+002;5.063472e-002
6.460636e+002;5.051209e-002
6.479921e+002;4.881131e-002
6.499207e+002;4.909076e-002
6.518492e+002;4.879896e-002
6.537778e+002;4.954000e-002
6.557063e+002;4.749575e-002
6.576349e+002;4.568092e-002
6.595634e+002;4.575234e-002
6.614919e+002;4.614305e-002
6.634205e+002;4.593863e-002
6.653491e+002;4.700693e-002
6.672776e+002;4.771430e-002
6.692062e+002;4.880426e-002
6.711347e+002;4.761246e-002
6.730632e+002;4.671638e-002
6.749918e+002;4.516016e-002
6.769203e+002;4.374042e-002
6.788489e+002;4.383523e-002
6.807775e+002;4.350181e-002
6.827060e+002;4.235313e-002
6.846345e+002;4.177918e-002
6.865631e+002;4.141577e-002
6.884916e+002;4.052604e-002
6.904202e+002;3.907569e-002
6.923488e+002;3.838706e-002
6.942773e+002;3.797202e-002
6.962058e+002;3.758280e-002
6.981344e+002;3.686248e-002
7.000629e+002;3.641149e-002
7.019915e+002;3.543652e-002
7.039200e+002;3.341833e-002
7.058486e+002;3.301823e-002
7.077771e+002;3.412890e-002
7.097057e+002;3.546607e-002
7.116342e+002;3.593861e-002
7.135627e+002;3.680081e-002
7.154913e+002;3.768228e-002
7.174199e+002;3.741618e-002
7.193484e+002;3.779374e-002
7.212770e+002;3.808460e-002
7.232055e+002;3.790878e-002
7.251340e+002;3.881783e-002
7.270626e+002;4.063791e-002
7.289911e+002;4.073492e-002
7.309197e+002;4.098177e-002
7.328483e+002;4.179877e-002
7.347768e+002;4.208035e-002
7.367053e+002;4.252448e-002
7.386339e+002;4.296467e-002
7.405624e+002;4.342908e-002
7.424910e+002;4.351888e-002
7.444196e+002;4.344186e-002
7.463481e+002;4.454578e-002
7.482766e+002;4.414696e-002
7.502052e+002;4.321894e-002
7.521337e+002;4.445735e-002
7.540623e+002;4.513325e-002
7.559908e+002;4.535506e-002
7.579194e+002;4.614728e-002
7.598479e+002;4.622250e-002
7.617765e+002;4.613417e-002
7.637050e+002;4.694923e-002
7.656335e+002;4.756902e-002
7.675621e+002;4.669542e-002
7.694907e+002;4.503154e-002
7.714192e+002;4.417187e-002
7.733478e+002;4.378307e-002
7.752763e+002;4.283367e-002
7.772048e+002;4.218864e-002
7.791334e+002;4.056849e-002
7.810620e+002;3.797379e-002
7.829905e+002;3.551947e-002
7.849191e+002;3.349641e-002
7.868476e+002;3.129732e-002
7.887761e+002;2.777277e-002
7.907047e+002;2.401613e-002
7.926332e+002;2.148751e-002
7.945618e+002;1.949200e-002
7.964903e+002;1.806369e-002
7.984189e+002;1.744115e-002
8.003474e+002;1.772376e-002
8.022759e+002;1.838625e-002
8.042045e+002;1.945267e-002
8.061331e+002;2.061694e-002
8.080616e+002;2.175636e-002
8.099902e+002;2.330837e-002
8.119187e+002;2.493184e-002
8.138472e+002;2.663319e-002
8.157758e+002;2.776631e-002
8.177043e+002;2.868221e-002
8.196329e+002;3.021673e-002
8.215615e+002;3.237357e-002
8.234900e+002;3.500234e-002
8.254185e+002;3.764784e-002
8.273471e+002;4.004761e-002
8.292756e+002;4.167777e-002
8.312042e+002;4.337376e-002
8.331328e+002;4.528294e-002
8.350613e+002;4.639734e-002
8.369898e+002;4.664853e-002
8.389184e+002;4.626076e-002
8.408469e+002;4.554335e-002
8.427755e+002;4.437337e-002
8.447040e+002;4.282621e-002
8.466326e+002;4.169101e-002
8.485611e+002;4.034722e-002
8.504897e+002;3.863040e-002
8.524182e+002;3.753790e-002
8.543467e+002;3.687680e-002
8.562753e+002;3.611689e-002
8.582039e+002;3.589640e-002
8.601324e+002;3.488588e-002
8.620610e+002;3.420375e-002
8.639895e+002;3.424914e-002
8.659180e+002;3.423766e-002
8.678466e+002;3.406478e-002
8.697751e+002;3.418063e-002
8.717037e+002;3.416550e-002
8.736323e+002;3.406769e-002
8.755608e+002;3.427890e-002
8.774893e+002;3.437966e-002
8.794179e+002;3.432863e-002
8.813464e+002;3.447317e-002
8.832750e+002;3.449440e-002
8.852036e+002;3.471038e-002
8.871321e+002;3.475621e-002
8.890606e+002;3.479642e-002
8.909892e+002;3.509573e-002
8.929177e+002;3.519223e-002
8.948463e+002;3.531822e-002
8.967748e+002;3.559869e-002
8.987034e+002;3.539148e-002
9.006319e+002;3.525709e-002
9.025605e+002;3.548197e-002
9.044890e+002;3.618538e-002
9.064175e+002;3.665715e-002
9.083461e+002;3.703219e-002
9.102747e+002;3.743380e-002
9.122032e+002;3.775200e-002
9.141318e+002;3.832658e-002
9.160603e+002;3.834388e-002
9.179888e+002;3.793897e-002
9.199174e+002;3.785433e-002
9.218459e+002;3.829336e-002
9.237745e+002;3.877272e-002
9.257031e+002;3.892472e-002
9.276316e+002;3.876598e-002
9.295601e+002;3.892364e-002
9.314887e+002;3.958086e-002
9.334172e+002;4.051207e-002
9.353458e+002;4.096134e-002
9.372744e+002;4.093862e-002
9.392029e+002;4.133537e-002
9.411314e+002;4.180964e-002
9.430600e+002;4.228746e-002
9.449885e+002;4.256208e-002
9.469171e+002;4.317429e-002
9.488456e+002;4.384688e-002
9.507742e+002;4.439179e-002
9.527027e+002;4.456311e-002
9.546313e+002;4.480442e-002
9.565598e+002;4.526312e-002
9.584883e+002;4.539872e-002
9.604169e+002;4.519564e-002
9.623455e+002;4.474253e-002
9.642740e+002;4.465174e-002
9.662026e+002;4.455047e-002
9.681311e+002;4.405656e-002
9.700596e+002;4.355847e-002
9.719882e+002;4.348369e-002
9.739167e+002;4.355060e-002
9.758453e+002;4.327586e-002
9.777739e+002;4.273074e-002
9.797024e+002;4.223074e-002
9.816309e+002;4.224294e-002
9.835595e+002;4.244179e-002
9.854880e+002;4.230842e-002
9.874166e+002;4.208608e-002
9.893452e+002;4.204290e-002
9.912737e+002;4.148022e-002
9.932022e+002;4.097652e-002
9.951307e+002;4.064246e-002
9.970593e+002;4.051000e-002
9.989879e+002;4.057552e-002
1.000916e+003;4.061517e-002
1.002845e+003;4.041333e-002
1.004773e+003;3.988741e-002
1.006702e+003;3.895542e-002
1.008631e+003;3.795513e-002
1.010559e+003;3.719918e-002
1.012488e+003;3.663156e-002
1.014416e+003;3.634160e-002
1.016345e+003;3.644215e-002
1.018273e+003;3.715423e-002
1.020202e+003;3.848238e-002
1.022130e+003;4.028982e-002
1.024059e+003;4.166041e-002
1.025988e+003;4.212084e-002
1.027916e+003;4.348185e-002
1.029845e+003;4.592717e-002
1.031773e+003;4.921610e-002
1.033702e+003;5.251401e-002
1.035630e+003;5.468654e-002
1.037559e+003;5.555445e-002
1.039487e+003;5.559305e-002
1.041416e+003;5.575415e-002
1.043344e+003;5.574274e-002
1.045273e+003;5.603912e-002
1.047202e+003;5.716284e-002
1.049130e+003;5.811295e-002
1.051059e+003;5.823895e-002
1.052987e+003;5.912642e-002
1.054916e+003;6.016114e-002
1.056844e+003;6.089722e-002
1.058773e+003;6.248644e-002
1.060701e+003;6.450240e-002
1.062630e+003;6.641446e-002
1.064558e+003;6.768946e-002
1.066487e+003;6.870654e-002
1.068416e+003;6.942195e-002
1.070344e+003;6.994089e-002
1.072273e+003;6.950485e-002
1.074201e+003;6.814582e-002
1.076130e+003;6.655715e-002
1.078058e+003;6.461070e-002
1.079987e+003;6.303652e-002
1.081915e+003;6.137434e-002
1.083844e+003;5.918174e-002
1.085773e+003;5.652181e-002
1.087701e+003;5.457178e-002
1.089630e+003;5.339599e-002
1.091558e+003;5.140113e-002
1.093487e+003;4.989422e-002
1.095415e+003;4.925466e-002
1.097344e+003;4.832045e-002
1.099272e+003;4.734600e-002
1.101201e+003;4.715686e-002
1.103129e+003;4.808301e-002
1.105058e+003;4.850325e-002
1.106987e+003;4.782352e-002
1.108915e+003;4.755028e-002
1.110844e+003;4.782326e-002
1.112772e+003;4.785604e-002
1.114701e+003;4.739116e-002
1.116629e+003;4.641566e-002
1.118558e+003;4.570385e-002
1.120486e+003;4.483796e-002
1.122415e+003;4.316258e-002
1.124344e+003;4.200293e-002
1.126272e+003;4.071731e-002
1.128201e+003;3.922788e-002
1.130129e+003;3.785295e-002
1.132058e+003;3.682267e-002
1.133986e+003;3.614343e-002
1.135915e+003;3.585462e-002
1.137843e+003;3.602198e-002
1.139772e+003;3.677091e-002
1.141700e+003;3.814859e-002
1.143629e+003;4.058436e-002
1.145557e+003;4.330716e-002
1.147486e+003;4.664624e-002
1.149415e+003;5.106733e-002
1.151343e+003;5.614303e-002
1.153272e+003;6.152683e-002
1.155200e+003;6.699634e-002
1.157129e+003;7.252649e-002
1.159057e+003;7.791011e-002
1.160986e+003;8.384569e-002
1.162914e+003;8.946364e-002
1.164843e+003;9.353319e-002
1.166771e+003;9.596544e-002
1.168700e+003;9.691183e-002
1.170629e+003;9.710617e-002
1.172557e+003;9.638818e-002
1.174486e+003;9.450848e-002
1.176414e+003;9.280770e-002
1.178343e+003;9.094480e-002
1.180271e+003;8.880137e-002
1.182200e+003;8.654289e-002
1.184128e+003;8.443463e-002
1.186057e+003;8.316275e-002
1.187986e+003;8.296417e-002
1.189914e+003;8.341417e-002
1.191843e+003;8.448426e-002
1.193771e+003;8.588243e-002
1.195700e+003;8.733620e-002
1.197628e+003;8.885162e-002
1.199557e+003;9.018022e-002
1.201485e+003;9.055442e-002
1.203414e+003;9.027174e-002
1.205343e+003;9.028406e-002
1.207271e+003;9.048834e-002
1.209200e+003;9.061487e-002
1.211128e+003;9.104265e-002
1.213057e+003;9.123752e-002
1.214985e+003;9.111040e-002
1.216914e+003;9.149101e-002
1.218842e+003;9.213409e-002
1.220771e+003;9.267630e-002
1.222699e+003;9.301896e-002
1.224628e+003;9.290462e-002
1.226557e+003;9.254786e-002
1.228485e+003;9.219812e-002
1.230414e+003;9.194668e-002
1.232342e+003;9.132329e-002
1.234271e+003;9.035724e-002
1.236199e+003;8.974613e-002
1.238128e+003;8.888862e-002
1.240056e+003;8.762918e-002
1.241985e+003;8.704055e-002
1.243913e+003;8.646440e-002
1.245842e+003;8.543026e-002
1.247771e+003;8.442433e-002
1.249699e+003;8.337937e-002
1.251628e+003;8.188830e-002
1.253556e+003;7.908526e-002
1.255485e+003;7.484910e-002
1.257413e+003;7.049879e-002
1.259342e+003;6.767228e-002
1.261270e+003;6.684092e-002
1.263199e+003;6.792276e-002
1.265127e+003;7.084443e-002
1.267056e+003;7.384599e-002
1.268985e+003;7.627425e-002
1.270913e+003;7.794674e-002
1.272842e+003;7.818934e-002
1.274770e+003;7.721067e-002
1.276699e+003;7.582092e-002
1.278627e+003;7.448217e-002
1.280556e+003;7.325843e-002
1.282484e+003;7.175685e-002
1.284413e+003;6.994183e-002
1.286342e+003;6.839389e-002
1.288270e+003;6.732509e-002
1.290199e+003;6.621347e-002
1.292127e+003;6.508029e-002
1.294056e+003;6.380463e-002
1.295984e+003;6.284410e-002
1.297913e+003;6.239409e-002
1.299841e+003;6.184573e-002
1.301770e+003;6.116335e-002
1.303698e+003;6.037709e-002
1.305627e+003;5.972983e-002
1.307556e+003;5.955452e-002
1.309484e+003;5.936062e-002
1.311413e+003;5.875167e-002
1.313341e+003;5.835551e-002
1.315270e+003;5.829113e-002
1.317198e+003;5.796559e-002
1.319127e+003;5.815484e-002
1.321055e+003;5.890570e-002
1.322984e+003;5.926335e-002
1.324912e+003;5.940462e-002
1.326841e+003;5.981728e-002
1.328770e+003;6.053079e-002
1.330698e+003;6.108810e-002
1.332627e+003;6.126029e-002
1.334555e+003;6.128005e-002
1.336484e+003;6.137545e-002
1.338412e+003;6.181803e-002
1.340341e+003;6.265394e-002
1.342269e+003;6.369749e-002
1.344198e+003;6.458974e-002
1.346126e+003;6.554104e-002
1.348055e+003;6.647543e-002
1.349984e+003;6.727958e-002
1.351912e+003;6.806752e-002
1.353841e+003;6.893642e-002
1.355769e+003;6.944855e-002
1.357698e+003;6.951582e-002
1.359626e+003;6.907585e-002
1.361555e+003;6.837307e-002
1.363483e+003;6.817691e-002
1.365412e+003;6.817842e-002
1.367341e+003;6.726091e-002
1.369269e+003;6.653058e-002
1.371198e+003;6.581093e-002
1.373126e+003;6.444217e-002
1.375055e+003;6.363599e-002
1.376983e+003;6.329968e-002
1.378912e+003;6.269574e-002
1.380840e+003;6.154325e-002
1.382769e+003;5.991445e-002
1.384698e+003;5.801876e-002
1.386626e+003;5.521535e-002
1.388555e+003;5.287474e-002
1.390483e+003;5.085663e-002
1.392412e+003;4.777791e-002
1.394340e+003;4.429811e-002
1.396269e+003;4.207455e-002
1.398197e+003;4.025724e-002
1.400126e+003;3.946893e-002
1.402054e+003;3.920459e-002
1.403983e+003;3.816722e-002
1.405911e+003;3.779602e-002
1.407840e+003;3.820102e-002
1.409769e+003;3.861838e-002
1.411697e+003;3.913135e-002
1.413626e+003;3.966601e-002
1.415554e+003;4.018622e-002
1.417483e+003;4.010935e-002
1.419411e+003;4.128647e-002
1.421340e+003;4.562670e-002
1.423268e+003;5.042448e-002
1.425197e+003;5.613900e-002
1.427125e+003;6.355383e-002
1.429054e+003;7.178003e-002
1.430983e+003;8.071054e-002
1.432911e+003;8.957012e-002
1.434840e+003;9.640662e-002
1.436768e+003;1.025008e-001
1.438697e+003;1.108312e-001
1.440625e+003;1.188636e-001
1.442554e+003;1.256458e-001
1.444482e+003;1.316908e-001
1.446411e+003;1.368240e-001
1.448340e+003;1.405162e-001
1.450268e+003;1.421025e-001
1.452197e+003;1.406647e-001
1.454125e+003;1.355594e-001
1.456054e+003;1.258256e-001
1.457982e+003;1.168415e-001
1.459911e+003;1.094574e-001
1.461839e+003;9.984703e-002
1.463768e+003;8.825605e-002
1.465697e+003;7.799202e-002
1.467625e+003;7.025321e-002
1.469554e+003;6.282856e-002
1.471482e+003;5.536833e-002
1.473411e+003;5.067653e-002
1.475339e+003;4.787124e-002
1.477268e+003;4.473338e-002
1.479196e+003;4.203998e-002
1.481125e+003;3.999195e-002
1.483053e+003;3.873240e-002
1.484982e+003;3.720640e-002
1.486911e+003;3.525842e-002
1.488839e+003;3.326312e-002
1.490768e+003;3.241088e-002
1.492696e+003;3.267819e-002
1.494625e+003;3.132495e-002
1.496553e+003;2.982219e-002
1.498482e+003;3.056565e-002
1.500410e+003;3.147808e-002
1.502339e+003;3.133126e-002
1.504267e+003;2.839114e-002
1.506196e+003;2.513967e-002
1.508125e+003;2.704176e-002
1.510053e+003;3.001639e-002
1.511982e+003;3.088362e-002
1.513910e+003;3.141592e-002
1.515839e+003;3.137645e-002
1.517767e+003;3.135918e-002
1.519696e+003;2.998320e-002
1.521624e+003;2.923659e-002
1.523553e+003;3.145805e-002
1.525481e+003;3.281839e-002
1.527410e+003;3.397212e-002
1.529339e+003;3.530424e-002
1.531267e+003;3.572743e-002
1.533196e+003;3.562897e-002
1.535124e+003;3.723372e-002
1.537053e+003;3.695840e-002
1.538981e+003;3.428220e-002
1.540910e+003;3.516262e-002
1.542838e+003;3.822280e-002
1.544767e+003;3.981800e-002
1.546695e+003;4.049836e-002
1.548624e+003;4.023834e-002
1.550553e+003;4.008493e-002
1.552481e+003;3.957334e-002
1.554410e+003;3.824559e-002
1.556338e+003;3.587750e-002
1.558267e+003;3.164957e-002
1.560195e+003;3.244565e-002
1.562124e+003;3.642100e-002
1.564052e+003;3.738930e-002
1.565981e+003;3.693355e-002
1.567910e+003;3.564056e-002
1.569838e+003;3.491059e-002
1.571767e+003;3.618577e-002
1.573695e+003;3.563307e-002
1.575624e+003;3.344180e-002
1.577552e+003;3.482980e-002
1.579481e+003;3.680131e-002
1.581409e+003;3.647412e-002
1.583338e+003;3.512936e-002
1.585266e+003;3.364730e-002
1.587195e+003;3.255707e-002
1.589124e+003;3.191737e-002
1.591052e+003;3.133272e-002
1.592981e+003;3.093585e-002
1.594909e+003;3.107108e-002
1.596838e+003;3.146062e-002
1.598766e+003;3.204388e-002
1.600695e+003;3.250900e-002
1.602623e+003;3.312768e-002
1.604552e+003;3.368808e-002
1.606480e+003;3.399777e-002
1.608409e+003;3.425649e-002
1.610338e+003;3.433580e-002
1.612266e+003;3.434021e-002
1.614195e+003;3.323704e-002
1.616123e+003;3.103139e-002
1.618052e+003;3.207713e-002
1.619980e+003;3.392995e-002
1.621909e+003;3.361418e-002
1.623837e+003;3.345866e-002
1.625766e+003;3.410367e-002
1.627694e+003;3.455669e-002
1.629623e+003;3.546104e-002
1.631552e+003;3.602907e-002
1.633480e+003;3.447880e-002
1.635409e+003;3.303922e-002
1.637337e+003;3.528767e-002
1.639266e+003;3.751767e-002
1.641194e+003;3.820073e-002
1.643123e+003;3.802395e-002
1.645051e+003;3.675541e-002
1.646980e+003;3.702385e-002
1.648909e+003;3.916402e-002
1.650837e+003;3.714099e-002
1.652766e+003;3.387954e-002
1.654694e+003;3.854371e-002
1.656623e+003;4.369904e-002
1.658551e+003;4.483764e-002
1.660480e+003;4.469901e-002
1.662408e+003;4.477416e-002
1.664337e+003;4.619173e-002
1.666266e+003;4.673545e-002
1.668194e+003;4.518711e-002
1.670123e+003;4.448998e-002
1.672051e+003;4.490957e-002
1.673980e+003;4.347145e-002
1.675908e+003;4.227256e-002
1.677837e+003;4.261248e-002
1.679765e+003;4.158274e-002
1.681694e+003;3.872175e-002
1.683622e+003;3.404049e-002
1.685551e+003;3.389703e-002
1.687479e+003;3.634761e-002
1.689408e+003;3.646904e-002
1.691337e+003;3.599218e-002
1.693265e+003;3.417324e-002
1.695194e+003;3.126474e-002
1.697122e+003;3.197779e-002
1.699051e+003;3.186449e-002
1.700979e+003;3.271952e-002
1.702908e+003;3.729557e-002
1.704836e+003;4.066341e-002
1.706765e+003;4.526499e-002
1.708693e+003;5.121923e-002
1.710622e+003;5.772419e-002
1.712551e+003;6.424797e-002
1.714479e+003;7.100891e-002
1.716408e+003;7.797323e-002
1.718336e+003;8.757892e-002
1.720265e+003;9.893237e-002
1.722193e+003;1.078879e-001
1.724122e+003;1.148300e-001
1.726050e+003;1.199717e-001
1.727979e+003;1.230089e-001
1.729908e+003;1.242487e-001
1.731836e+003;1.219442e-001
1.733765e+003;1.175040e-001
1.735693e+003;1.155515e-001
1.737622e+003;1.112853e-001
1.739550e+003;1.032078e-001
1.741479e+003;9.518459e-002
1.743407e+003;8.628039e-002
1.745336e+003;7.673980e-002
1.747265e+003;6.711571e-002
1.749193e+003;5.729109e-002
1.751122e+003;4.833952e-002
1.753050e+003;4.188579e-002
1.754979e+003;3.585271e-002
1.756907e+003;3.008926e-002
1.758836e+003;2.566405e-002
1.760764e+003;2.152863e-002
1.762693e+003;1.878838e-002
1.764621e+003;1.718853e-002
1.766550e+003;1.508792e-002
1.768479e+003;1.358671e-002
1.770407e+003;1.170197e-002
1.772336e+003;1.006815e-002
1.774264e+003;1.068407e-002
1.776193e+003;1.118363e-002
1.778121e+003;1.096038e-002
1.780050e+003;1.045535e-002
1.781978e+003;1.022040e-002
1.783907e+003;9.829037e-003
1.785835e+003;9.439922e-003
1.787764e+003;9.375690e-003
1.789693e+003;8.662500e-003
1.791621e+003;7.434233e-003
1.793550e+003;7.451255e-003
1.795478e+003;8.408421e-003
1.797407e+003;8.237687e-003
1.799335e+003;7.643194e-003
1.801264e+003;7.536779e-003
1.803192e+003;7.919772e-003
1.805121e+003;8.198619e-003
1.807049e+003;8.259097e-003
1.808978e+003;7.825738e-003
1.810907e+003;7.537622e-003
1.812835e+003;7.531756e-003
1.814764e+003;7.590826e-003
1.816692e+003;7.426919e-003
1.818621e+003;7.378891e-003
1.820549e+003;7.318468e-003
1.822478e+003;7.126370e-003
1.824406e+003;6.790721e-003
1.826335e+003;6.627452e-003
1.828264e+003;5.842652e-003
1.830192e+003;5.486417e-003
1.832121e+003;6.314478e-003
1.834049e+003;6.809064e-003
1.835978e+003;6.486912e-003
1.837906e+003;6.156194e-003
1.839835e+003;6.145440e-003
1.841763e+003;5.579913e-003
1.843692e+003;4.598915e-003
1.845620e+003;5.270476e-003
1.847549e+003;5.990643e-003
1.849478e+003;5.828212e-003
1.851406e+003;5.777942e-003
1.853335e+003;5.934746e-003
1.855263e+003;5.857563e-003
1.857192e+003;5.599245e-003
1.859120e+003;5.498027e-003
1.861049e+003;5.529806e-003
1.862977e+003;5.441355e-003
1.864906e+003;5.200922e-003
1.866834e+003;4.689875e-003
1.868763e+003;4.215862e-003
1.870692e+003;4.551367e-003
1.872620e+003;5.061279e-003
1.874549e+003;5.069492e-003
1.876477e+003;5.033356e-003
1.878406e+003;5.014383e-003
1.880334e+003;4.872320e-003
1.882263e+003;4.608895e-003
1.884191e+003;4.654674e-003
1.886120e+003;4.798945e-003
1.888048e+003;4.593156e-003
1.889977e+003;4.426995e-003
1.891906e+003;4.603536e-003
1.893834e+003;4.446142e-003
1.895763e+003;4.357610e-003
1.897691e+003;4.676812e-003
1.899620e+003;4.632470e-003
1.901548e+003;4.282647e-003
1.903477e+003;4.324778e-003
1.905405e+003;4.406409e-003
1.907334e+003;4.289474e-003
1.909262e+003;4.051517e-003
1.911191e+003;3.718771e-003
1.913120e+003;3.786048e-003
1.915048e+003;3.949222e-003
1.916977e+003;3.408520e-003
1.918905e+003;3.456411e-003
1.920834e+003;3.856178e-003
1.922762e+003;3.976173e-003
1.924691e+003;4.042889e-003
1.926619e+003;3.877573e-003
1.928548e+003;3.791062e-003
1.930477e+003;3.773615e-003
1.932405e+003;3.701193e-003
1.934334e+003;3.655647e-003
1.936262e+003;3.593468e-003
1.938191e+003;3.489176e-003
1.940119e+003;3.210265e-003
1.942048e+003;3.070693e-003
1.943976e+003;3.305975e-003
1.945905e+003;3.553144e-003
1.947833e+003;3.621365e-003
1.949762e+003;3.620931e-003
1.951691e+003;3.340132e-003
1.953619e+003;3.270887e-003
1.955548e+003;3.316158e-003
1.957476e+003;3.441549e-003
1.959405e+003;3.493218e-003
1.961333e+003;3.267515e-003
1.963262e+003;3.123018e-003
1.965190e+003;3.054042e-003
1.967119e+003;2.988345e-003
1.969047e+003;3.279500e-003
1.970976e+003;3.389618e-003
1.972905e+003;3.142409e-003
1.974833e+003;3.166139e-003
1.976762e+003;3.224718e-003
1.978690e+003;3.252526e-003
1.980619e+003;3.409622e-003
1.982547e+003;3.620630e-003
1.984476e+003;3.711886e-003
1.986404e+003;3.543123e-003
1.988333e+003;3.578300e-003
1.990261e+003;3.582977e-003
1.992190e+003;3.362971e-003
1.994119e+003;3.301535e-003
1.996047e+003;3.424917e-003
1.997976e+003;3.569013e-003
1.999904e+003;3.667743e-003
2.001833e+003;3.783709e-003
2.003761e+003;3.903015e-003
2.005690e+003;3.949657e-003
2.007618e+003;4.031852e-003
2.009547e+003;3.988746e-003
2.011476e+003;3.906894e-003
2.013404e+003;4.075699e-003
2.015333e+003;4.054895e-003
2.017261e+003;3.911474e-003
2.019190e+003;4.209873e-003
2.021118e+003;4.383548e-003
2.023047e+003;4.302592e-003
2.024975e+003;4.018208e-003
2.026904e+003;3.733342e-003
2.028833e+003;3.828165e-003
2.030761e+003;4.043056e-003
2.032690e+003;4.083458e-003
2.034618e+003;4.060247e-003
2.036547e+003;3.960290e-003
2.038475e+003;3.885864e-003
2.040404e+003;3.842104e-003
2.042332e+003;3.781402e-003
2.044261e+003;3.845748e-003
2.046189e+003;4.168154e-003
2.048118e+003;4.208501e-003
2.050047e+003;3.950961e-003
2.051975e+003;3.850261e-003
2.053904e+003;3.998845e-003
2.055832e+003;4.171466e-003
2.057761e+003;3.840734e-003
2.059689e+003;3.572086e-003
2.061618e+003;3.708411e-003
2.063546e+003;3.926319e-003
2.065475e+003;3.862262e-003
2.067404e+003;3.755132e-003
2.069332e+003;3.613246e-003
2.071260e+003;3.459517e-003
2.073189e+003;3.595506e-003
2.075118e+003;3.659991e-003
2.077046e+003;3.638740e-003
2.078975e+003;3.597443e-003
2.080903e+003;3.336192e-003
2.082832e+003;3.100859e-003
2.084760e+003;3.196579e-003
2.086689e+003;3.441382e-003
2.088617e+003;3.465428e-003
2.090546e+003;3.295659e-003
2.092475e+003;3.412427e-003
2.094403e+003;3.623303e-003
2.096332e+003;3.528725e-003
2.098260e+003;3.272990e-003
2.100189e+003;3.261806e-003
2.102117e+003;3.331617e-003
2.104046e+003;3.182160e-003
2.105974e+003;3.143510e-003
2.107903e+003;3.166706e-003
2.109832e+003;3.185931e-003
2.111760e+003;3.098290e-003
2.113688e+003;2.842207e-003
2.115617e+003;2.705354e-003
2.117546e+003;2.678582e-003
2.119474e+003;2.574277e-003
2.121403e+003;2.376669e-003
2.123331e+003;2.128636e-003
2.125260e+003;2.214717e-003
2.127188e+003;2.387430e-003
2.129117e+003;2.312940e-003
2.131045e+003;2.339356e-003
2.132974e+003;2.311308e-003
2.134903e+003;2.144552e-003
2.136831e+003;2.194436e-003
2.138760e+003;2.458100e-003
2.140688e+003;2.255116e-003
2.142617e+003;2.100501e-003
2.144545e+003;2.296351e-003
2.146474e+003;2.211453e-003
2.148402e+003;2.180083e-003
2.150331e+003;2.263909e-003
2.152260e+003;2.374969e-003
2.154188e+003;2.214084e-003
2.156117e+003;2.162800e-003
2.158045e+003;2.393160e-003
2.159974e+003;2.162600e-003
2.161902e+003;1.945709e-003
2.163831e+003;2.258913e-003
2.165759e+003;2.515685e-003
2.167688e+003;2.417249e-003
2.169616e+003;2.254650e-003
2.171545e+003;2.224908e-003
2.173474e+003;2.187542e-003
2.175402e+003;2.160070e-003
2.177331e+003;2.455568e-003
2.179259e+003;2.806923e-003
2.181188e+003;3.075865e-003
2.183116e+003;3.254462e-003
2.185045e+003;3.726925e-003
2.186973e+003;4.216664e-003
2.188902e+003;4.409120e-003
2.190831e+003;4.653268e-003
2.192759e+003;4.797872e-003
2.194688e+003;4.768760e-003
2.196616e+003;4.668004e-003
2.198545e+003;4.508912e-003
2.200473e+003;4.525519e-003
2.202402e+003;4.705885e-003
2.204330e+003;4.628753e-003
2.206259e+003;4.707895e-003
2.208188e+003;4.869808e-003
2.210116e+003;4.865183e-003
2.212044e+003;5.008752e-003
2.213973e+003;5.210647e-003
2.215902e+003;5.378014e-003
2.217830e+003;5.694577e-003
2.219759e+003;6.176123e-003
2.221687e+003;6.830707e-003
2.223616e+003;7.955710e-003
2.225544e+003;9.496069e-003
2.227473e+003;1.229976e-002
2.229401e+003;1.731431e-002
2.231330e+003;2.554367e-002
2.233259e+003;3.755260e-002
2.235187e+003;5.238008e-002
2.237116e+003;6.772412e-002
2.239044e+003;8.087209e-002
2.240973e+003;9.000763e-002
2.242901e+003;9.393098e-002
2.244830e+003;9.300599e-002
2.246758e+003;8.872971e-002
2.248687e+003;8.225490e-002
2.250615e+003;7.381567e-002
2.252544e+003;6.434517e-002
2.254473e+003;5.501221e-002
2.256401e+003;4.604659e-002
2.258330e+003;3.779143e-002
2.260258e+003;3.087145e-002
2.262187e+003;2.508483e-002
2.264115e+003;2.043970e-002
2.266044e+003;1.703203e-002
2.267972e+003;1.452677e-002
2.269901e+003;1.276593e-002
2.271830e+003;1.138940e-002
2.273758e+003;1.026925e-002
2.275687e+003;9.444120e-003
2.277615e+003;8.564453e-003
2.279544e+003;7.835420e-003
2.281472e+003;7.356615e-003
2.283401e+003;6.998901e-003
2.285329e+003;6.825153e-003
2.287258e+003;6.712814e-003
2.289187e+003;6.755922e-003
2.291115e+003;6.856558e-003
2.293043e+003;6.658170e-003
2.294972e+003;6.531175e-003
2.296901e+003;6.550314e-003
2.298829e+003;6.481397e-003
2.300758e+003;6.252724e-003
2.302686e+003;5.980061e-003
2.304615e+003;5.865086e-003
2.306543e+003;5.728687e-003
2.308472e+003;5.499806e-003
2.310400e+003;5.290935e-003
2.312329e+003;5.065436e-003
2.314258e+003;4.961896e-003
2.316186e+003;5.194182e-003
2.318115e+003;5.299756e-003
2.320043e+003;5.058999e-003
2.321972e+003;4.787353e-003
2.323900e+003;4.499672e-003
2.325829e+003;4.251662e-003
2.327757e+003;3.918997e-003
2.329686e+003;3.703799e-003
2.331615e+003;3.850662e-003
2.333543e+003;3.939292e-003
2.335472e+003;3.920601e-003
2.337400e+003;3.793602e-003
2.339329e+003;3.793134e-003
2.341257e+003;3.809814e-003
2.343186e+003;3.918595e-003
2.345114e+003;4.299747e-003
2.347043e+003;4.669645e-003
2.348971e+003;4.764606e-003
2.350900e+003;4.584583e-003
2.352829e+003;4.064026e-003
2.354757e+003;3.339497e-003
2.356686e+003;3.018740e-003
2.358614e+003;3.014336e-003
2.360543e+003;3.041996e-003
2.362471e+003;2.928430e-003
2.364400e+003;2.886867e-003
2.366328e+003;3.349314e-003
2.368257e+003;3.695746e-003
2.370186e+003;3.728563e-003
2.372114e+003;4.038173e-003
2.374042e+003;4.618204e-003
2.375971e+003;4.806013e-003
2.377900e+003;4.780619e-003
2.379828e+003;4.825311e-003
2.381757e+003;5.273662e-003
2.383685e+003;5.375095e-003
2.385614e+003;5.203806e-003
2.387542e+003;5.125311e-003
2.389471e+003;5.054843e-003
2.391399e+003;4.935755e-003
2.393328e+003;4.894369e-003
2.395257e+003;4.958143e-003
2.397185e+003;4.911694e-003
2.399114e+003;4.911359e-003
2.401042e+003;5.083672e-003
2.402971e+003;5.196027e-003
2.404899e+003;5.055546e-003
2.406828e+003;4.745713e-003
2.408756e+003;4.775493e-003
2.410685e+003;4.985458e-003
2.412614e+003;5.063626e-003
2.414542e+003;4.910588e-003
2.416471e+003;4.777838e-003
2.418399e+003;4.888103e-003
2.420328e+003;4.922518e-003
2.422256e+003;4.826048e-003
2.424185e+003;5.063123e-003
2.426113e+003;5.345642e-003
2.428042e+003;5.154649e-003
2.429970e+003;4.851613e-003
2.431899e+003;4.872354e-003
2.433828e+003;5.063223e-003
2.435756e+003;5.059703e-003
2.437685e+003;4.949999e-003
2.439613e+003;4.746450e-003
2.441542e+003;4.574303e-003
2.443470e+003;4.734826e-003
2.445399e+003;4.792512e-003
2.447327e+003;4.815830e-003
2.449256e+003;4.995580e-003
2.451185e+003;5.206254e-003
2.453113e+003;5.120551e-003
2.455042e+003;4.862938e-003
2.456970e+003;4.658626e-003
2.458899e+003;4.757672e-003
2.460827e+003;4.979190e-003
2.462756e+003;5.059536e-003
2.464684e+003;5.055982e-003
2.466613e+003;5.035099e-003
2.468542e+003;5.023802e-003
2.470470e+003;5.270174e-003
2.472398e+003;5.542827e-003
2.474327e+003;5.507021e-003
2.476256e+003;5.269671e-003
2.478184e+003;5.307638e-003
2.480113e+003;5.665505e-003
2.482041e+003;5.903340e-003
2.483970e+003;5.897060e-003
2.485898e+003;6.099199e-003
2.487827e+003;6.046816e-003
2.489755e+003;5.845003e-003
2.491684e+003;6.126251e-003
2.493613e+003;6.574097e-003
2.495541e+003;6.682025e-003
2.497470e+003;6.625501e-003
2.499398e+003;6.573525e-003
2.501327e+003;6.556605e-003
2.503255e+003;6.506050e-003
2.505184e+003;6.723145e-003
2.507112e+003;6.828317e-003
2.509041e+003;6.786481e-003
2.510969e+003;6.779749e-003
2.512898e+003;6.839660e-003
2.514827e+003;7.053993e-003
2.516755e+003;7.043486e-003
2.518684e+003;6.744379e-003
2.520612e+003;6.732735e-003
2.522541e+003;6.926141e-003
2.524469e+003;6.835049e-003
2.526398e+003;6.725399e-003
2.528326e+003;6.735596e-003
2.530255e+003;6.683708e-003
2.532184e+003;6.662342e-003
2.534112e+003;6.944456e-003
2.536041e+003;7.135902e-003
2.537969e+003;6.848142e-003
2.539898e+003;6.611371e-003
2.541826e+003;6.594785e-003
2.543755e+003;6.621228e-003
2.545683e+003;6.654772e-003
2.547612e+003;6.687375e-003
2.549541e+003;6.847772e-003
2.551469e+003;6.935063e-003
2.553397e+003;6.631355e-003
2.555326e+003;6.438315e-003
2.557255e+003;6.301602e-003
2.559183e+003;6.293937e-003
2.561112e+003;6.345846e-003
2.563040e+003;6.306107e-003
2.564969e+003;6.319756e-003
2.566897e+003;6.263817e-003
2.568826e+003;6.092681e-003
2.570754e+003;6.159487e-003
2.572683e+003;6.189230e-003
2.574612e+003;5.901997e-003
2.576540e+003;5.755748e-003
2.578469e+003;5.720763e-003
2.580397e+003;5.537626e-003
2.582326e+003;5.276043e-003
2.584254e+003;5.325449e-003
2.586183e+003;5.613443e-003
2.588111e+003;5.718715e-003
2.590040e+003;5.607669e-003
2.591969e+003;5.467426e-003
2.593897e+003;5.447663e-003
2.595826e+003;5.547190e-003
2.597754e+003;5.564709e-003
2.599683e+003;5.248073e-003
2.601611e+003;5.047133e-003
2.603540e+003;5.309919e-003
2.605468e+003;5.429511e-003
2.607397e+003;5.402873e-003
2.609325e+003;5.467794e-003
2.611254e+003;5.616765e-003
2.613183e+003;5.638483e-003
2.615111e+003;5.765250e-003
2.617040e+003;5.591693e-003
2.618968e+003;5.488196e-003
2.620897e+003;5.432934e-003
2.622825e+003;5.170274e-003
2.624754e+003;5.203907e-003
2.626682e+003;5.317097e-003
2.628611e+003;5.388916e-003
2.630540e+003;5.668728e-003
2.632468e+003;5.964474e-003
2.634396e+003;5.998235e-003
2.636325e+003;5.788117e-003
2.638254e+003;5.413273e-003
2.640182e+003;5.142679e-003
2.642111e+003;5.217656e-003
2.644039e+003;5.399753e-003
2.645968e+003;5.552056e-003
2.647896e+003;5.383985e-003
2.649825e+003;5.297240e-003
2.651753e+003;5.155688e-003
2.653682e+003;5.124674e-003
2.655611e+003;5.307470e-003
2.657539e+003;5.422902e-003
2.659468e+003;5.511719e-003
2.661396e+003;5.251728e-003
2.663325e+003;5.241835e-003
2.665253e+003;5.540143e-003
2.667182e+003;5.511886e-003
2.669110e+003;5.292310e-003
2.671039e+003;5.059770e-003
2.672968e+003;5.099161e-003
2.674896e+003;5.400759e-003
2.676825e+003;5.470982e-003
2.678753e+003;5.299152e-003
2.680682e+003;5.144825e-003
2.682610e+003;5.250185e-003
2.684539e+003;5.386870e-003
2.686467e+003;5.461386e-003
2.688396e+003;5.697364e-003
2.690324e+003;5.817969e-003
2.692253e+003;5.512356e-003
2.694182e+003;5.335378e-003
2.696110e+003;5.501417e-003
2.698039e+003;5.313474e-003
2.699967e+003;5.066240e-003
2.701896e+003;5.321424e-003
2.703824e+003;5.361710e-003
2.705753e+003;5.161791e-003
2.707681e+003;5.289694e-003
2.709610e+003;5.465915e-003
2.711539e+003;5.181574e-003
2.713467e+003;5.043210e-003
2.715396e+003;5.304653e-003
2.717324e+003;5.299555e-003
2.719253e+003;5.123802e-003
2.721181e+003;5.092221e-003
2.723110e+003;5.043814e-003
2.725038e+003;4.802965e-003
2.726967e+003;4.870411e-003
2.728896e+003;5.064966e-003
2.730824e+003;5.106604e-003
2.732752e+003;5.093897e-003
2.734681e+003;5.211988e-003
2.736610e+003;5.178020e-003
2.738538e+003;4.947820e-003
2.740467e+003;5.195054e-003
2.742395e+003;5.219165e-003
2.744324e+003;4.813049e-003
2.746252e+003;4.920139e-003
2.748181e+003;5.269906e-003
2.750109e+003;5.397706e-003
2.752038e+003;5.390359e-003
2.753967e+003;5.289224e-003
2.755895e+003;4.982072e-003
2.757824e+003;4.999401e-003
2.759752e+003;5.124842e-003
2.761681e+003;4.995110e-003
2.763609e+003;4.860090e-003
2.765538e+003;5.120785e-003
2.767466e+003;5.475512e-003
2.769395e+003;5.476451e-003
2.771323e+003;5.572663e-003
2.773252e+003;5.695953e-003
2.775181e+003;5.706025e-003
2.777109e+003;5.705286e-003
2.779038e+003;5.754439e-003
2.780966e+003;6.040332e-003
2.782895e+003;6.487585e-003
2.784823e+003;6.568849e-003
2.786752e+003;6.180122e-003
2.788680e+003;6.121445e-003
2.790609e+003;6.670484e-003
2.792538e+003;6.844541e-003
2.794466e+003;7.033181e-003
2.796395e+003;7.298452e-003
2.798323e+003;7.512978e-003
2.800252e+003;7.899020e-003
2.802180e+003;8.045857e-003
2.804109e+003;8.169413e-003
2.806037e+003;8.247750e-003
2.807966e+003;8.348293e-003
2.809895e+003;8.602337e-003
2.811823e+003;8.678995e-003
2.813751e+003;8.839149e-003
2.815680e+003;8.904959e-003
2.817609e+003;8.927450e-003
2.819537e+003;9.272438e-003
2.821466e+003;9.498643e-003
2.823394e+003;9.354327e-003
2.825323e+003;9.410294e-003
2.827251e+003;9.746109e-003
2.829180e+003;1.023387e-002
2.831108e+003;1.069864e-002
2.833037e+003;1.144080e-002
2.834966e+003;1.214106e-002
2.836894e+003;1.288388e-002
2.838823e+003;1.414626e-002
2.840751e+003;1.582364e-002
2.842680e+003;1.783750e-002
2.844608e+003;2.028268e-002
2.846537e+003;2.392520e-002
2.848465e+003;2.835885e-002
2.850394e+003;3.248008e-002
2.852323e+003;3.490244e-002
2.854251e+003;3.549045e-002
2.856180e+003;3.509131e-002
2.858108e+003;3.403547e-002
2.860037e+003;3.354337e-002
2.861965e+003;3.288354e-002
2.863894e+003;3.186667e-002
2.865822e+003;3.157958e-002
2.867751e+003;3.149910e-002
2.869679e+003;3.115181e-002
2.871608e+003;3.072370e-002
2.873536e+003;3.046474e-002
2.875465e+003;3.056625e-002
2.877394e+003;3.055019e-002
2.879322e+003;3.019929e-002
2.881251e+003;2.982350e-002
2.883179e+003;2.954479e-002
2.885108e+003;2.950414e-002
2.887036e+003;3.009004e-002
2.888965e+003;3.087647e-002
2.890893e+003;3.168389e-002
2.892822e+003;3.260289e-002
2.894750e+003;3.373012e-002
2.896679e+003;3.517197e-002
2.898608e+003;3.654486e-002
2.900536e+003;3.833766e-002
2.902465e+003;4.025648e-002
2.904393e+003;4.244366e-002
2.906322e+003;4.524716e-002
2.908250e+003;4.857349e-002
2.910179e+003;5.184000e-002
2.912107e+003;5.533404e-002
2.914036e+003;5.967619e-002
2.915965e+003;6.402759e-002
2.917893e+003;6.790850e-002
2.919822e+003;7.115682e-002
2.921750e+003;7.393232e-002
2.923679e+003;7.630806e-002
2.925607e+003;7.742121e-002
2.927536e+003;7.769014e-002
2.929464e+003;7.752407e-002
2.931393e+003;7.715756e-002
2.933322e+003;7.606015e-002
2.935250e+003;7.483465e-002
2.937178e+003;7.363120e-002
2.939107e+003;7.217345e-002
2.941036e+003;7.038629e-002
2.942964e+003;6.862652e-002
2.944893e+003;6.656356e-002
2.946821e+003;6.437426e-002
2.948750e+003;6.207131e-002
2.950678e+003;5.960453e-002
2.952607e+003;5.712364e-002
2.954535e+003;5.487801e-002
2.956464e+003;5.269708e-002
2.958393e+003;5.012974e-002
2.960321e+003;4.735908e-002
2.962250e+003;4.492952e-002
2.964178e+003;4.312291e-002
2.966107e+003;4.213570e-002
2.968035e+003;4.115968e-002
2.969964e+003;4.002429e-002
2.971892e+003;3.889725e-002
2.973821e+003;3.772554e-002
2.975750e+003;3.646461e-002
2.977678e+003;3.558556e-002
2.979607e+003;3.473026e-002
2.981535e+003;3.411181e-002
2.983464e+003;3.321752e-002
2.985392e+003;3.186082e-002
2.987321e+003;3.116049e-002
2.989249e+003;3.074998e-002
2.991178e+003;3.006436e-002
2.993106e+003;2.900621e-002
2.995035e+003;2.820031e-002
2.996964e+003;2.769800e-002
2.998892e+003;2.728366e-002
3.000821e+003;2.683218e-002
3.002749e+003;2.599301e-002
3.004678e+003;2.492843e-002
3.006606e+003;2.420503e-002
3.008535e+003;2.365983e-002
3.010463e+003;2.298947e-002
3.012392e+003;2.241492e-002
3.014321e+003;2.170254e-002
3.016249e+003;2.063229e-002
3.018177e+003;1.994965e-002
3.020106e+003;1.957327e-002
3.022035e+003;1.898124e-002
3.023963e+003;1.833679e-002
3.025892e+003;1.787375e-002
3.027820e+003;1.728665e-002
3.029749e+003;1.683517e-002
3.031677e+003;1.665114e-002
3.033606e+003;1.630981e-002
3.035534e+003;1.579381e-002
3.037463e+003;1.538929e-002
3.039392e+003;1.487661e-002
3.041320e+003;1.443955e-002
3.043249e+003;1.437362e-002
3.045177e+003;1.421658e-002
3.047106e+003;1.416742e-002
3.049034e+003;1.376109e-002
3.050963e+003;1.332611e-002
3.052891e+003;1.350142e-002
3.054820e+003;1.329317e-002
3.056749e+003;1.244066e-002
3.058677e+003;1.196313e-002
3.060606e+003;1.208140e-002
3.062534e+003;1.208054e-002
3.064463e+003;1.222345e-002
3.066391e+003;1.222437e-002
3.068320e+003;1.173740e-002
3.070248e+003;1.134637e-002
3.072177e+003;1.091665e-002
3.074105e+003;1.068448e-002
3.076034e+003;1.049550e-002
3.077963e+003;1.011322e-002
3.079891e+003;1.019136e-002
3.081820e+003;1.062658e-002
3.083748e+003;1.087676e-002
3.085677e+003;1.052001e-002
3.087605e+003;9.839543e-003
3.089534e+003;9.664655e-003
3.091462e+003;9.805685e-003
3.093391e+003;9.744144e-003
3.095320e+003;9.935303e-003
3.097248e+003;9.898487e-003
3.099177e+003;9.314616e-003
3.101105e+003;9.141124e-003
3.103034e+003;8.867183e-003
3.104962e+003;8.553639e-003
3.106891e+003;8.495958e-003
3.108819e+003;8.365182e-003
3.110748e+003;8.426595e-003
3.112677e+003;8.689779e-003
3.114605e+003;8.721589e-003
3.116533e+003;8.243461e-003
3.118462e+003;8.176165e-003
3.120391e+003;8.340558e-003
3.122319e+003;8.094768e-003
3.124248e+003;7.940659e-003
3.126176e+003;7.741371e-003
3.128105e+003;7.618510e-003
3.130033e+003;7.701807e-003
3.131962e+003;7.769941e-003
3.133890e+003;7.623602e-003
3.135819e+003;7.675940e-003
3.137748e+003;7.732601e-003
3.139676e+003;7.673714e-003
3.141605e+003;7.855123e-003
3.143533e+003;7.918691e-003
3.145462e+003;7.720121e-003
3.147390e+003;7.413471e-003
3.149319e+003;7.221802e-003
3.151247e+003;7.304855e-003
3.153176e+003;7.051534e-003
3.155104e+003;6.894395e-003
3.157033e+003;7.296802e-003
3.158962e+003;7.991956e-003
3.160890e+003;8.067730e-003
3.162819e+003;7.693949e-003
3.164747e+003;7.091106e-003
3.166676e+003;6.937083e-003
3.168604e+003;7.500572e-003
3.170533e+003;7.562706e-003
3.172461e+003;7.539948e-003
3.174390e+003;7.653850e-003
3.176319e+003;7.836769e-003
3.178247e+003;8.030668e-003
3.180176e+003;7.927532e-003
3.182104e+003;7.615070e-003
3.184033e+003;7.425739e-003
3.185961e+003;7.631223e-003
3.187890e+003;7.511629e-003
3.189818e+003;7.585027e-003
3.191747e+003;7.944472e-003
3.193676e+003;7.756111e-003
3.195604e+003;7.605663e-003
3.197532e+003;7.768052e-003
3.199461e+003;7.852120e-003
3.201390e+003;7.926014e-003
3.203318e+003;7.843315e-003
3.205247e+003;7.867809e-003
3.207175e+003;7.973258e-003
3.209104e+003;8.160499e-003
3.211032e+003;8.383051e-003
3.212961e+003;8.253592e-003
3.214889e+003;7.952065e-003
3.216818e+003;8.003397e-003
3.218747e+003;8.166137e-003
3.220675e+003;8.472915e-003
3.222604e+003;8.639042e-003
3.224532e+003;8.458589e-003
3.226461e+003;8.369134e-003
3.228389e+003;8.441562e-003
3.230318e+003;8.651515e-003
3.232246e+003;8.646715e-003
3.234175e+003;8.533633e-003
3.236104e+003;8.337585e-003
3.238032e+003;8.351974e-003
3.239961e+003;8.436630e-003
3.241889e+003;8.461292e-003
3.243818e+003;8.239240e-003
3.245746e+003;8.123733e-003
3.247675e+003;8.422035e-003
3.249603e+003;8.910337e-003
3.251532e+003;9.027339e-003
3.253460e+003;8.819841e-003
3.255389e+003;9.000309e-003
3.257318e+003;8.852304e-003
3.259246e+003;8.477475e-003
3.261175e+003;8.655097e-003
3.263103e+003;8.683863e-003
3.265032e+003;8.845303e-003
3.266960e+003;9.007548e-003
3.268889e+003;8.823256e-003
3.270817e+003;9.116726e-003
3.272746e+003;9.399763e-003
3.274675e+003;9.165894e-003
3.276603e+003;8.459062e-003
3.278531e+003;7.944372e-003
3.280460e+003;8.223302e-003
3.282389e+003;8.893325e-003
3.284317e+003;9.184440e-003
3.286246e+003;9.106745e-003
3.288174e+003;8.887406e-003
3.290103e+003;8.591692e-003
3.292031e+003;8.566041e-003
3.293960e+003;8.352380e-003
3.295888e+003;8.007953e-003
3.297817e+003;7.803101e-003
3.299746e+003;8.194702e-003
3.301674e+003;8.599363e-003
3.303603e+003;8.552523e-003
3.305531e+003;7.938229e-003
3.307460e+003;7.429548e-003
3.309388e+003;7.681133e-003
3.311317e+003;7.831068e-003
3.313245e+003;7.955541e-003
3.315174e+003;7.780938e-003
3.317103e+003;7.509067e-003
3.319031e+003;7.340035e-003
3.320960e+003;7.366590e-003
3.322888e+003;7.327802e-003
3.324817e+003;7.530408e-003
3.326745e+003;7.907556e-003
3.328674e+003;7.949230e-003
3.330602e+003;7.062412e-003
3.332531e+003;6.805698e-003
3.334459e+003;7.268060e-003
3.336388e+003;7.110270e-003
3.338317e+003;6.551660e-003
3.340245e+003;6.239648e-003
3.342174e+003;6.113078e-003
3.344102e+003;6.182475e-003
3.346031e+003;6.816705e-003
3.347959e+003;6.942874e-003
3.349888e+003;6.379805e-003
3.351816e+003;6.037778e-003
3.353745e+003;6.024810e-003
3.355674e+003;6.120908e-003
3.357602e+003;6.197364e-003
3.359531e+003;6.315856e-003
3.361459e+003;5.903542e-003
3.363388e+003;5.795236e-003
3.365316e+003;5.670675e-003
3.367245e+003;5.276144e-003
3.369173e+003;5.115455e-003
3.371102e+003;5.455547e-003
3.373031e+003;5.417567e-003
3.374959e+003;5.270107e-003
3.376887e+003;4.828997e-003
3.378816e+003;4.242628e-003
3.380745e+003;4.476806e-003
3.382673e+003;4.625438e-003
3.384602e+003;4.205925e-003
3.386530e+003;3.865237e-003
3.388459e+003;3.443486e-003
3.390387e+003;3.564904e-003
3.392316e+003;3.877406e-003
3.394244e+003;4.117609e-003
3.396173e+003;3.854874e-003
3.398102e+003;3.450265e-003
3.400030e+003;3.395830e-003
3.401959e+003;3.848890e-003
3.403887e+003;3.906726e-003
3.405816e+003;3.751924e-003
3.407744e+003;3.541586e-003
3.409673e+003;3.227789e-003
3.411601e+003;2.750500e-003
3.413530e+003;2.575110e-003
3.415458e+003;2.777510e-003
3.417387e+003;3.176052e-003
3.419316e+003;3.451334e-003
3.421244e+003;2.967861e-003
3.423173e+003;2.674148e-003
3.425101e+003;2.947278e-003
3.427030e+003;2.744031e-003
3.428958e+003;2.530915e-003
3.430887e+003;2.663346e-003
3.432815e+003;2.712956e-003
3.434744e+003;2.477227e-003
3.436673e+003;2.449037e-003
3.438601e+003;2.768073e-003
3.440530e+003;2.813893e-003
3.442458e+003;2.221444e-003
3.444387e+003;1.783585e-003
3.446315e+003;1.684417e-003
3.448244e+003;1.819319e-003
3.450172e+003;2.373603e-003
3.452101e+003;2.652645e-003
3.454030e+003;2.534548e-003
3.455958e+003;2.433076e-003
3.457886e+003;2.247022e-003
3.459815e+003;2.030721e-003
3.461744e+003;1.966478e-003
3.463672e+003;1.983519e-003
3.465601e+003;1.674438e-003
3.467529e+003;1.677632e-003
3.469458e+003;1.742132e-003
3.471386e+003;1.783785e-003
3.473315e+003;1.645635e-003
3.475243e+003;1.572369e-003
3.477172e+003;1.763191e-003
3.479101e+003;1.939485e-003
3.481029e+003;2.114252e-003
3.482958e+003;2.096206e-003
3.484886e+003;1.657076e-003
3.486815e+003;1.305221e-003
3.488743e+003;1.100947e-003
3.490672e+003;1.163568e-003
3.492600e+003;1.567747e-003
3.494529e+003;2.052127e-003
3.496458e+003;2.289257e-003
3.498386e+003;2.305512e-003
3.500315e+003;2.122510e-003
3.502243e+003;1.986349e-003
3.504172e+003;2.278864e-003
3.506100e+003;2.270337e-003
3.508029e+003;2.074099e-003
3.509957e+003;2.499388e-003
3.511886e+003;2.506153e-003
3.513814e+003;2.302381e-003
3.515743e+003;2.804422e-003
3.517672e+003;3.471440e-003
3.519600e+003;3.530095e-003
3.521529e+003;3.296460e-003
3.523457e+003;3.033154e-003
3.525386e+003;2.283894e-003
3.527314e+003;2.187309e-003
3.529243e+003;2.846410e-003
3.531171e+003;3.314022e-003
3.533100e+003;3.251658e-003
3.535029e+003;2.846543e-003
3.536957e+003;2.837171e-003
3.538885e+003;2.954383e-003
3.540814e+003;2.830034e-003
3.542743e+003;2.652111e-003
3.544671e+003;2.160669e-003
3.546600e+003;2.581976e-003
3.548528e+003;3.048903e-003
3.550457e+003;2.252618e-003
3.552385e+003;1.875953e-003
3.554314e+003;2.215283e-003
3.556242e+003;2.234566e-003
3.558171e+003;2.094908e-003
3.560100e+003;2.114019e-003
3.562028e+003;2.344020e-003
3.563957e+003;2.238829e-003
3.565885e+003;1.746823e-003
3.567814e+003;1.665225e-003
3.569742e+003;1.799622e-003
3.571671e+003;2.185378e-003
3.573599e+003;2.283894e-003
3.575528e+003;2.170525e-003
3.577457e+003;1.696392e-003
3.579385e+003;1.041391e-003
3.581314e+003;1.041724e-003
3.583242e+003;1.247331e-003
3.585171e+003;5.460608e-004
3.587099e+003;-4.443320e-004
3.589028e+003;-3.460466e-004
3.590956e+003;7.905684e-004
3.592885e+003;1.138253e-003
3.594813e+003;1.385986e-003
3.596742e+003;1.853359e-003
3.598671e+003;1.923676e-003
3.600599e+003;2.070171e-003
3.602528e+003;2.222477e-003
3.604456e+003;1.794631e-003
3.606385e+003;1.120115e-003
3.608313e+003;9.190497e-004
3.610242e+003;1.604261e-003
3.612170e+003;1.596546e-003
3.614099e+003;1.611245e-003
3.616028e+003;1.669981e-003
3.617956e+003;1.364214e-003
3.619885e+003;1.551752e-003
3.621813e+003;1.982288e-003
3.623742e+003;2.438807e-003
3.625670e+003;1.750382e-003
3.627599e+003;-3.524363e-004
3.629527e+003;-2.872434e-004
3.631456e+003;1.727960e-003
3.633385e+003;2.310442e-003
3.635313e+003;2.134796e-003
3.637241e+003;1.944111e-003
3.639170e+003;1.491436e-003
3.641099e+003;1.289003e-003
3.643027e+003;9.673978e-004
3.644956e+003;-1.345365e-004
3.646884e+003;-1.777940e-003
3.648813e+003;-2.970621e-003
3.650741e+003;-1.999436e-003
3.652670e+003;-7.010471e-004
3.654598e+003;-1.266787e-003
3.656527e+003;-1.694445e-003
3.658456e+003;-6.457329e-004
3.660384e+003;2.982074e-006
3.662313e+003;-5.646345e-004
3.664241e+003;-1.330578e-003
3.666170e+003;-2.009496e-003
3.668098e+003;-3.701522e-003
3.670027e+003;-4.977850e-003
3.671955e+003;-3.977628e-003
3.673884e+003;-4.549316e-003
3.675813e+003;-4.886908e-003
3.677741e+003;-3.164539e-003
3.679669e+003;-2.708989e-003
3.681598e+003;-2.437182e-003
3.683527e+003;-2.589971e-003
3.685455e+003;-3.562532e-003
3.687384e+003;-5.959563e-003
3.689312e+003;-6.313762e-003
3.691241e+003;-4.455431e-003
3.693169e+003;-2.640723e-003
3.695098e+003;-2.213073e-003
3.697026e+003;-2.792683e-003
3.698955e+003;-3.758419e-003
3.700884e+003;-4.558168e-003
3.702812e+003;-3.750109e-003
3.704741e+003;-2.883077e-003
3.706669e+003;-3.125624e-003
3.708598e+003;-4.335480e-003
3.710526e+003;-6.115627e-003
3.712455e+003;-6.179951e-003
3.714383e+003;-3.915112e-003
3.716312e+003;-3.005700e-003
3.718240e+003;-3.400453e-003
3.720169e+003;-3.571569e-003
3.722098e+003;-3.771690e-003
3.724026e+003;-3.981601e-003
3.725955e+003;-4.030944e-003
3.727883e+003;-3.469683e-003
3.729812e+003;-3.891501e-003
3.731740e+003;-5.440452e-003
3.733669e+003;-5.787587e-003
3.735597e+003;-5.867912e-003
3.737526e+003;-4.497047e-003
3.739455e+003;-3.489800e-003
3.741383e+003;-5.018106e-003
3.743312e+003;-8.757173e-003
3.745240e+003;-8.378149e-003
3.747169e+003;-6.412894e-003
3.749097e+003;-8.057637e-003
3.751026e+003;-8.412924e-003
3.752954e+003;-6.274018e-003
3.754883e+003;-3.727541e-003
3.756812e+003;-3.437798e-003
3.758740e+003;-3.713677e-003
3.760668e+003;-3.394009e-003
3.762597e+003;-3.248672e-003
3.764526e+003;-3.854458e-003
3.766454e+003;-3.636731e-003
3.768383e+003;-4.002613e-003
3.770311e+003;-3.931825e-003
3.772240e+003;-2.815695e-003
3.774168e+003;-2.502843e-003
3.776097e+003;-2.994183e-003
3.778025e+003;-3.771164e-003
3.779954e+003;-3.971029e-003
3.781883e+003;-3.354194e-003
3.783811e+003;-3.120657e-003
3.785740e+003;-3.041500e-003
3.787668e+003;-2.971675e-003
3.789597e+003;-2.868561e-003
3.791525e+003;-2.945084e-003
3.793454e+003;-3.210291e-003
3.795382e+003;-4.061473e-003
3.797311e+003;-4.144218e-003
3.799240e+003;-5.113080e-003
3.801168e+003;-6.348964e-003
3.803097e+003;-4.488947e-003
3.805025e+003;-3.875377e-003
3.806954e+003;-4.790869e-003
3.808882e+003;-3.542386e-003
3.810811e+003;-2.625113e-003
3.812739e+003;-3.116183e-003
3.814668e+003;-5.351800e-003
3.816596e+003;-5.731053e-003
3.818525e+003;-4.787002e-003
3.820454e+003;-5.245911e-003
3.822382e+003;-4.213659e-003
3.824311e+003;-3.401176e-003
3.826239e+003;-3.659830e-003
3.828168e+003;-3.543635e-003
3.830096e+003;-4.002875e-003
3.832025e+003;-4.238924e-003
3.833953e+003;-4.160857e-003
3.835882e+003;-5.071523e-003
3.837811e+003;-6.031295e-003
3.839739e+003;-5.028063e-003
3.841667e+003;-3.825261e-003
3.843596e+003;-3.207200e-003
3.845525e+003;-2.848746e-003
3.847453e+003;-2.492169e-003
3.849382e+003;-3.679576e-003
3.851310e+003;-7.381502e-003
3.853239e+003;-9.825376e-003
3.855167e+003;-6.824917e-003
3.857096e+003;-3.573574e-003
3.859024e+003;-3.413143e-003
3.860953e+003;-4.062523e-003
3.862882e+003;-4.171261e-003
3.864810e+003;-3.931464e-003
3.866739e+003;-3.732567e-003
3.868667e+003;-5.071884e-003
3.870596e+003;-4.901324e-003
3.872524e+003;-3.625592e-003
3.874453e+003;-3.189110e-003
3.876381e+003;-2.687783e-003
3.878310e+003;-3.067295e-003
3.880239e+003;-3.732304e-003
3.882167e+003;-3.816623e-003
3.884096e+003;-4.340598e-003
3.886024e+003;-4.224946e-003
3.887953e+003;-3.120098e-003
3.889881e+003;-3.249034e-003
3.891810e+003;-3.221145e-003
3.893738e+003;-2.385251e-003
3.895667e+003;-1.830636e-003
3.897595e+003;-2.627451e-003
3.899524e+003;-3.549847e-003
3.901453e+003;-3.449895e-003
3.903381e+003;-3.535518e-003
3.905310e+003;-2.952028e-003
3.907238e+003;-2.338588e-003
3.909167e+003;-2.361294e-003
3.911095e+003;-2.261036e-003
3.913024e+003;-2.439356e-003
3.914952e+003;-2.840384e-003
3.916881e+003;-2.687881e-003
3.918810e+003;-2.353286e-003
3.920738e+003;-2.319869e-003
3.922667e+003;-2.155380e-003
3.924595e+003;-2.121947e-003
3.926524e+003;-1.692630e-003
3.928452e+003;-1.844757e-003
3.930381e+003;-2.674051e-003
3.932309e+003;-2.715838e-003
3.934238e+003;-2.279131e-003
3.936167e+003;-2.051314e-003
3.938095e+003;-1.839709e-003
3.940023e+003;-2.474676e-003
3.941952e+003;-2.678727e-003
3.943881e+003;-1.810112e-003
3.945809e+003;-1.443270e-003
3.947738e+003;-1.548671e-003
3.949666e+003;-1.796353e-003
3.951595e+003;-1.825785e-003
3.953523e+003;-1.461499e-003
3.955452e+003;-1.377448e-003
3.957380e+003;-1.617141e-003
3.959309e+003;-1.771967e-003
3.961238e+003;-2.009529e-003
3.963166e+003;-2.018961e-003
3.965095e+003;-1.784078e-003
3.967023e+003;-1.545006e-003
3.968952e+003;-1.534870e-003
3.970880e+003;-1.723423e-003
3.972809e+003;-1.829646e-003
3.974737e+003;-1.898500e-003
3.976666e+003;-1.669064e-003
3.978594e+003;-1.281488e-003
3.980523e+003;-1.248715e-003
3.982452e+003;-1.137492e-003
3.984380e+003;-1.156097e-003
3.986309e+003;-1.299394e-003
3.988237e+003;-1.358324e-003
3.990166e+003;-1.760186e-003
3.992094e+003;-1.568744e-003
3.994023e+003;-1.380586e-003
3.995951e+003;-1.461962e-003
3.997880e+003;-1.245609e-003
3.999809e+003;-7.437521e-004
4.001737e+003;0.000000e+000
