3.992094e+002;0.000000e+000
4.011380e+002;0.000000e+000
4.030665e+002;0.000000e+000
4.049951e+002;0.000000e+000
4.069236e+002;0.000000e+000
4.088522e+002;0.000000e+000
4.107807e+002;0.000000e+000
4.127093e+002;0.000000e+000
4.146378e+002;0.000000e+000
4.165664e+002;0.000000e+000
4.184949e+002;0.000000e+000
4.204235e+002;0.000000e+000
4.223520e+002;0.000000e+000
4.242806e+002;0.000000e+000
4.262091e+002;0.000000e+000
4.281377e+002;0.000000e+000
4.300662e+002;0.000000e+000
4.319948e+002;0.000000e+000
4.339233e+002;0.000000e+000
4.358519e+002;0.000000e+000
4.377804e+002;0.000000e+000
4.397090e+002;0.000000e+000
4.416375e+002;0.000000e+000
4.435660e+002;0.000000e+000
4.454946e+002;0.000000e+000
4.474232e+002;0.000000e+000
4.493517e+002;0.000000e+000
4.512802e+002;0.000000e+000
4.532088e+002;0.000000e+000
4.551373e+002;0.000000e+000
4.570659e+002;0.000000e+000
4.589944e+002;0.000000e+000
4.609230e+002;0.000000e+000
4.628515e+002;0.000000e+000
4.647801e+002;0.000000e+000
4.667086e+002;0.000000e+000
4.686372e+002;0.000000e+000
4.705657e+002;0.000000e+000
4.724943e+002;0.000000e+000
4.744228e+002;0.000000e+000
4.763513e+002;0.000000e+000
4.782799e+002;0.000000e+000
4.802085e+002;0.000000e+000
4.821370e+002;0.000000e+000
4.840656e+002;0.000000e+000
4.859941e+002;0.000000e+000
4.879226e+002;0.000000e+000
4.898512e+002;0.000000e+000
4.917798e+002;0.000000e+000
4.937083e+002;0.000000e+000
4.956368e+002;0.000000e+000
4.975654e+002;0.000000e+000
4.994939e+002;0.000000e+000
5.014225e+002;0.000000e+000
5.033510e+002;0.000000e+000
5.052796e+002;0.000000e+000
5.072081e+002;0.000000e+000
5.091367e+002;0.000000e+000
5.110652e+002;0.000000e+000
5.129938e+002;0.000000e+000
5.149223e+002;0.000000e+000
5.168509e+002;0.000000e+000
5.187794e+002;0.000000e+000
5.207079e+002;0.000000e+000
5.226365e+002;0.000000e+000
5.245651e+002;0.000000e+000
5.264936e+002;0.000000e+000
5.284222e+002;0.000000e+000
5.303507e+002;0.000000e+000
5.322792e+002;0.000000e+000
5.342078e+002;0.000000e+000
5.361364e+002;0.000000e+000
5.380649e+002;0.000000e+000
5.399935e+002;0.000000e+000
5.419220e+002;0.000000e+000
5.438505e+002;0.000000e+000
5.457791e+002;0.000000e+000
5.477076e+002;0.000000e+000
5.496362e+002;0.000000e+000
5.515648e+002;0.000000e+000
5.534933e+002;0.000000e+000
5.554218e+002;0.000000e+000
5.573504e+002;0.000000e+000
5.592789e+002;0.000000e+000
5.612075e+002;0.000000e+000
5.631360e+002;0.000000e+000
5.650646e+002;0.000000e+000
5.669931e+002;0.000000e+000
5.689217e+002;0.000000e+000
5.708502e+002;0.000000e+000
5.727787e+002;0.000000e+000
5.747073e+002;0.000000e+000
5.766359e+002;0.000000e+000
5.785644e+002;0.000000e+000
5.804930e+002;0.000000e+000
5.824215e+002;0.000000e+000
5.843500e+002;0.000000e+000
5.862786e+002;0.000000e+000
5.882072e+002;0.000000e+000
5.901357e+002;0.000000e+000
5.920643e+002;0.000000e+000
5.939928e+002;0.000000e+000
5.959213e+002;0.000000e+000
5.978499e+002;0.000000e+000
5.997784e+002;6.693410e-002
6.017070e+002;7.317505e-002
6.036355e+002;7.756114e-002
6.055641e+002;7.196919e-002
6.074926e+002;6.379458e-002
6.094211e+002;5.869799e-002
6.113497e+002;5.910463e-002
6.132783e+002;6.270382e-002
6.152068e+002;6.099665e-002
6.171354e+002;6.160758e-002
6.190639e+002;6.531646e-002
6.209924e+002;6.398758e-002
6.229210e+002;6.558755e-002
6.248495e+002;6.892484e-002
6.267781e+002;6.911478e-002
6.287067e+002;6.836648e-002
6.306352e+002;7.104091e-002
6.325637e+002;6.976090e-002
6.344923e+002;6.595958e-002
6.364208e+002;6.347283e-002
6.383494e+002;6.260924e-002
6.402780e+002;6.403895e-002
6.422065e+002;6.469160e-002
6.441350e+002;6.694160e-002
6.460636e+002;6.895288e-002
6.479921e+002;6.486972e-002
6.499207e+002;6.214211e-002
6.518492e+002;6.094914e-002
6.537778e+002;5.795022e-002
6.557063e+002;5.664301e-002
6.576349e+002;5.913698e-002
6.595634e+002;6.094800e-002
6.614919e+002;6.130695e-002
6.634205e+002;6.166563e-002
6.653491e+002;6.092947e-002
6.672776e+002;5.940937e-002
6.692062e+002;5.968675e-002
6.711347e+002;5.979408e-002
6.730632e+002;5.901702e-002
6.749918e+002;5.836783e-002
6.769203e+002;5.924463e-002
6.788489e+002;6.026253e-002
6.807775e+002;5.857645e-002
6.827060e+002;5.744427e-002
6.846345e+002;5.751232e-002
6.865631e+002;5.752737e-002
6.884916e+002;5.790880e-002
6.904202e+002;5.689703e-002
6.923488e+002;5.580283e-002
6.942773e+002;5.591613e-002
6.962058e+002;5.587363e-002
6.981344e+002;5.497096e-002
7.000629e+002;5.404386e-002
7.019915e+002;5.295726e-002
7.039200e+002;5.219838e-002
7.058486e+002;5.290479e-002
7.077771e+002;5.386911e-002
7.097057e+002;5.439858e-002
7.116342e+002;5.460811e-002
7.135627e+002;5.565470e-002
7.154913e+002;5.633455e-002
7.174199e+002;5.538376e-002
7.193484e+002;5.505953e-002
7.212770e+002;5.576022e-002
7.232055e+002;5.671897e-002
7.251340e+002;5.789354e-002
7.270626e+002;5.919925e-002
7.289911e+002;5.946920e-002
7.309197e+002;6.032002e-002
7.328483e+002;6.074358e-002
7.347768e+002;6.021401e-002
7.367053e+002;6.072025e-002
7.386339e+002;6.162068e-002
7.405624e+002;6.184271e-002
7.424910e+002;6.187064e-002
7.444196e+002;6.232149e-002
7.463481e+002;6.385479e-002
7.482766e+002;6.445193e-002
7.502052e+002;6.410746e-002
7.521337e+002;6.386907e-002
7.540623e+002;6.330060e-002
7.559908e+002;6.330328e-002
7.579194e+002;6.376537e-002
7.598479e+002;6.444720e-002
7.617765e+002;6.520795e-002
7.637050e+002;6.583614e-002
7.656335e+002;6.539430e-002
7.675621e+002;6.459224e-002
7.694907e+002;6.318703e-002
7.714192e+002;6.254257e-002
7.733478e+002;6.274310e-002
7.752763e+002;6.154600e-002
7.772048e+002;5.950895e-002
7.791334e+002;5.743520e-002
7.810620e+002;5.585298e-002
7.829905e+002;5.343672e-002
7.849191e+002;5.068691e-002
7.868476e+002;4.803298e-002
7.887761e+002;4.441411e-002
7.907047e+002;4.135622e-002
7.926332e+002;3.859372e-002
7.945618e+002;3.571469e-002
7.964903e+002;3.352197e-002
7.984189e+002;3.233991e-002
8.003474e+002;3.174314e-002
8.022759e+002;3.206632e-002
8.042045e+002;3.382746e-002
8.061331e+002;3.488082e-002
8.080616e+002;3.541621e-002
8.099902e+002;3.698853e-002
8.119187e+002;3.846576e-002
8.138472e+002;3.948769e-002
8.157758e+002;4.047479e-002
8.177043e+002;4.237713e-002
8.196329e+002;4.438262e-002
8.215615e+002;4.639177e-002
8.234900e+002;4.910333e-002
8.254185e+002;5.195478e-002
8.273471e+002;5.415288e-002
8.292756e+002;5.616943e-002
8.312042e+002;5.795280e-002
8.331328e+002;5.912764e-002
8.350613e+002;5.986824e-002
8.369898e+002;6.026817e-002
8.389184e+002;5.941993e-002
8.408469e+002;5.917305e-002
8.427755e+002;5.964269e-002
8.447040e+002;5.839103e-002
8.466326e+002;5.693476e-002
8.485611e+002;5.642676e-002
8.504897e+002;5.564137e-002
8.524182e+002;5.472442e-002
8.543467e+002;5.443204e-002
8.562753e+002;5.416455e-002
8.582039e+002;5.402052e-002
8.601324e+002;5.334238e-002
8.620610e+002;5.310226e-002
8.639895e+002;5.336568e-002
8.659180e+002;5.298889e-002
8.678466e+002;5.292556e-002
8.697751e+002;5.278774e-002
8.717037e+002;5.273502e-002
8.736323e+002;5.289147e-002
8.755608e+002;5.327483e-002
8.774893e+002;5.369232e-002
8.794179e+002;5.358476e-002
8.813464e+002;5.376615e-002
8.832750e+002;5.400923e-002
8.852036e+002;5.384979e-002
8.871321e+002;5.401170e-002
8.890606e+002;5.473438e-002
8.909892e+002;5.522212e-002
8.929177e+002;5.523932e-002
8.948463e+002;5.502192e-002
8.967748e+002;5.464828e-002
8.987034e+002;5.444394e-002
9.006319e+002;5.478459e-002
9.025605e+002;5.520590e-002
9.044890e+002;5.515888e-002
9.064175e+002;5.536686e-002
9.083461e+002;5.564212e-002
9.102747e+002;5.545039e-002
9.122032e+002;5.563105e-002
9.141318e+002;5.598390e-002
9.160603e+002;5.603302e-002
9.179888e+002;5.600407e-002
9.199174e+002;5.614503e-002
9.218459e+002;5.617953e-002
9.237745e+002;5.639970e-002
9.257031e+002;5.680763e-002
9.276316e+002;5.677934e-002
9.295601e+002;5.692147e-002
9.314887e+002;5.752764e-002
9.334172e+002;5.796714e-002
9.353458e+002;5.768120e-002
9.372744e+002;5.754859e-002
9.392029e+002;5.814549e-002
9.411314e+002;5.856909e-002
9.430600e+002;5.897883e-002
9.449885e+002;5.926035e-002
9.469171e+002;5.953042e-002
9.488456e+002;5.994001e-002
9.507742e+002;6.027358e-002
9.527027e+002;6.055635e-002
9.546313e+002;6.074190e-002
9.565598e+002;6.069945e-002
9.584883e+002;6.058865e-002
9.604169e+002;6.058793e-002
9.623455e+002;6.023521e-002
9.642740e+002;5.994073e-002
9.662026e+002;5.975614e-002
9.681311e+002;5.922052e-002
9.700596e+002;5.882124e-002
9.719882e+002;5.843284e-002
9.739167e+002;5.819178e-002
9.758453e+002;5.808761e-002
9.777739e+002;5.759618e-002
9.797024e+002;5.716616e-002
9.816309e+002;5.676409e-002
9.835595e+002;5.663848e-002
9.854880e+002;5.654004e-002
9.874166e+002;5.603935e-002
9.893452e+002;5.553329e-002
9.912737e+002;5.462483e-002
9.932022e+002;5.386869e-002
9.951307e+002;5.342465e-002
9.970593e+002;5.290748e-002
9.989879e+002;5.223234e-002
1.000916e+003;5.128891e-002
1.002845e+003;4.997254e-002
1.004773e+003;4.830534e-002
1.006702e+003;4.632534e-002
1.008631e+003;4.365141e-002
1.010559e+003;4.067430e-002
1.012488e+003;3.803201e-002
1.014416e+003;3.597958e-002
1.016345e+003;3.484442e-002
1.018273e+003;3.468716e-002
1.020202e+003;3.545032e-002
1.022130e+003;3.676010e-002
1.024059e+003;3.832108e-002
1.025988e+003;3.926179e-002
1.027916e+003;4.065326e-002
1.029845e+003;4.316682e-002
1.031773e+003;4.595464e-002
1.033702e+003;4.795612e-002
1.035630e+003;4.891380e-002
1.037559e+003;4.912408e-002
1.039487e+003;4.912860e-002
1.041416e+003;4.953551e-002
1.043344e+003;5.007519e-002
1.045273e+003;5.044059e-002
1.047202e+003;5.089310e-002
1.049130e+003;5.188010e-002
1.051059e+003;5.317423e-002
1.052987e+003;5.454939e-002
1.054916e+003;5.569354e-002
1.056844e+003;5.675805e-002
1.058773e+003;5.836305e-002
1.060701e+003;5.979378e-002
1.062630e+003;6.058092e-002
1.064558e+003;6.106426e-002
1.066487e+003;6.135988e-002
1.068416e+003;6.182716e-002
1.070344e+003;6.200946e-002
1.072273e+003;6.135183e-002
1.074201e+003;5.988360e-002
1.076130e+003;5.878095e-002
1.078058e+003;5.771152e-002
1.079987e+003;5.667944e-002
1.081915e+003;5.545697e-002
1.083844e+003;5.402664e-002
1.085773e+003;5.267426e-002
1.087701e+003;5.171215e-002
1.089630e+003;5.072092e-002
1.091558e+003;4.956886e-002
1.093487e+003;4.933854e-002
1.095415e+003;4.985140e-002
1.097344e+003;5.011613e-002
1.099272e+003;4.993800e-002
1.101201e+003;5.018229e-002
1.103129e+003;5.152091e-002
1.105058e+003;5.273330e-002
1.106987e+003;5.318464e-002
1.108915e+003;5.360441e-002
1.110844e+003;5.422278e-002
1.112772e+003;5.472596e-002
1.114701e+003;5.525805e-002
1.116629e+003;5.578889e-002
1.118558e+003;5.645743e-002
1.120486e+003;5.693389e-002
1.122415e+003;5.680238e-002
1.124344e+003;5.656216e-002
1.126272e+003;5.639008e-002
1.128201e+003;5.660016e-002
1.130129e+003;5.663852e-002
1.132058e+003;5.653747e-002
1.133986e+003;5.659616e-002
1.135915e+003;5.746651e-002
1.137843e+003;5.844227e-002
1.139772e+003;5.943589e-002
1.141700e+003;6.061425e-002
1.143629e+003;6.221934e-002
1.145557e+003;6.451420e-002
1.147486e+003;6.672372e-002
1.149415e+003;6.861049e-002
1.151343e+003;7.095624e-002
1.153272e+003;7.339793e-002
1.155200e+003;7.566226e-002
1.157129e+003;7.799984e-002
1.159057e+003;8.008303e-002
1.160986e+003;8.288668e-002
1.162914e+003;8.551139e-002
1.164843e+003;8.719544e-002
1.166771e+003;8.798420e-002
1.168700e+003;8.790816e-002
1.170629e+003;8.762963e-002
1.172557e+003;8.717471e-002
1.174486e+003;8.627703e-002
1.176414e+003;8.564305e-002
1.178343e+003;8.510704e-002
1.180271e+003;8.452266e-002
1.182200e+003;8.405774e-002
1.184128e+003;8.317800e-002
1.186057e+003;8.252636e-002
1.187986e+003;8.268025e-002
1.189914e+003;8.310850e-002
1.191843e+003;8.350742e-002
1.193771e+003;8.392595e-002
1.195700e+003;8.445882e-002
1.197628e+003;8.561383e-002
1.199557e+003;8.616417e-002
1.201485e+003;8.564430e-002
1.203414e+003;8.518673e-002
1.205343e+003;8.508164e-002
1.207271e+003;8.482607e-002
1.209200e+003;8.455671e-002
1.211128e+003;8.473270e-002
1.213057e+003;8.493440e-002
1.214985e+003;8.485749e-002
1.216914e+003;8.525527e-002
1.218842e+003;8.575445e-002
1.220771e+003;8.622635e-002
1.222699e+003;8.643424e-002
1.224628e+003;8.595439e-002
1.226557e+003;8.583180e-002
1.228485e+003;8.597717e-002
1.230414e+003;8.592992e-002
1.232342e+003;8.541578e-002
1.234271e+003;8.485414e-002
1.236199e+003;8.450897e-002
1.238128e+003;8.423176e-002
1.240056e+003;8.367945e-002
1.241985e+003;8.348718e-002
1.243913e+003;8.314413e-002
1.245842e+003;8.245809e-002
1.247771e+003;8.145186e-002
1.249699e+003;7.988255e-002
1.251628e+003;7.817542e-002
1.253556e+003;7.546057e-002
1.255485e+003;7.098066e-002
1.257413e+003;6.632066e-002
1.259342e+003;6.330083e-002
1.261270e+003;6.269245e-002
1.263199e+003;6.450609e-002
1.265127e+003;6.811380e-002
1.267056e+003;7.202621e-002
1.268985e+003;7.534552e-002
1.270913e+003;7.764351e-002
1.272842e+003;7.880443e-002
1.274770e+003;7.861036e-002
1.276699e+003;7.809699e-002
1.278627e+003;7.788141e-002
1.280556e+003;7.746869e-002
1.282484e+003;7.686602e-002
1.284413e+003;7.613000e-002
1.286342e+003;7.550067e-002
1.288270e+003;7.526134e-002
1.290199e+003;7.482552e-002
1.292127e+003;7.429801e-002
1.294056e+003;7.369319e-002
1.295984e+003;7.337223e-002
1.297913e+003;7.314557e-002
1.299841e+003;7.290530e-002
1.301770e+003;7.279104e-002
1.303698e+003;7.276537e-002
1.305627e+003;7.279029e-002
1.307556e+003;7.272322e-002
1.309484e+003;7.271778e-002
1.311413e+003;7.243437e-002
1.313341e+003;7.202023e-002
1.315270e+003;7.168010e-002
1.317198e+003;7.127319e-002
1.319127e+003;7.140994e-002
1.321055e+003;7.192281e-002
1.322984e+003;7.205433e-002
1.324912e+003;7.208031e-002
1.326841e+003;7.235369e-002
1.328770e+003;7.259976e-002
1.330698e+003;7.246687e-002
1.332627e+003;7.212055e-002
1.334555e+003;7.207076e-002
1.336484e+003;7.209779e-002
1.338412e+003;7.195648e-002
1.340341e+003;7.227225e-002
1.342269e+003;7.305774e-002
1.344198e+003;7.374738e-002
1.346126e+003;7.446958e-002
1.348055e+003;7.462607e-002
1.349984e+003;7.443430e-002
1.351912e+003;7.472732e-002
1.353841e+003;7.514717e-002
1.355769e+003;7.515012e-002
1.357698e+003;7.511451e-002
1.359626e+003;7.473779e-002
1.361555e+003;7.387788e-002
1.363483e+003;7.363155e-002
1.365412e+003;7.389516e-002
1.367341e+003;7.330915e-002
1.369269e+003;7.260767e-002
1.371198e+003;7.190772e-002
1.373126e+003;7.095155e-002
1.375055e+003;7.032247e-002
1.376983e+003;6.972266e-002
1.378912e+003;6.923884e-002
1.380840e+003;6.886020e-002
1.382769e+003;6.820431e-002
1.384698e+003;6.729204e-002
1.386626e+003;6.563815e-002
1.388555e+003;6.469586e-002
1.390483e+003;6.411859e-002
1.392412e+003;6.242094e-002
1.394340e+003;6.017606e-002
1.396269e+003;5.889637e-002
1.398197e+003;5.788710e-002
1.400126e+003;5.754080e-002
1.402054e+003;5.738898e-002
1.403983e+003;5.679452e-002
1.405911e+003;5.668318e-002
1.407840e+003;5.683199e-002
1.409769e+003;5.715531e-002
1.411697e+003;5.738354e-002
1.413626e+003;5.778354e-002
1.415554e+003;5.801891e-002
1.417483e+003;5.703813e-002
1.419411e+003;5.707089e-002
1.421340e+003;6.013184e-002
1.423268e+003;6.291927e-002
1.425197e+003;6.561738e-002
1.427125e+003;6.873876e-002
1.429054e+003;7.165688e-002
1.430983e+003;7.498580e-002
1.432911e+003;7.839607e-002
1.434840e+003;8.004319e-002
1.436768e+003;8.120923e-002
1.438697e+003;8.509362e-002
1.440625e+003;8.877536e-002
1.442554e+003;9.155609e-002
1.444482e+003;9.409600e-002
1.446411e+003;9.618907e-002
1.448340e+003;9.810066e-002
1.450268e+003;9.960049e-002
1.452197e+003;9.930295e-002
1.454125e+003;9.617589e-002
1.456054e+003;8.946291e-002
1.457982e+003;8.469546e-002
1.459911e+003;8.213595e-002
1.461839e+003;7.778097e-002
1.463768e+003;7.219121e-002
1.465697e+003;6.840829e-002
1.467625e+003;6.666890e-002
1.469554e+003;6.404413e-002
1.471482e+003;5.996550e-002
1.473411e+003;5.792156e-002
1.475339e+003;5.832428e-002
1.477268e+003;5.866424e-002
1.479196e+003;5.851442e-002
1.481125e+003;5.808636e-002
1.483053e+003;5.810242e-002
1.484982e+003;5.757137e-002
1.486911e+003;5.645475e-002
1.488839e+003;5.507751e-002
1.490768e+003;5.448823e-002
1.492696e+003;5.474542e-002
1.494625e+003;5.333818e-002
1.496553e+003;5.201458e-002
1.498482e+003;5.272653e-002
1.500410e+003;5.347626e-002
1.502339e+003;5.306111e-002
1.504267e+003;4.967220e-002
1.506196e+003;4.606969e-002
1.508125e+003;4.784305e-002
1.510053e+003;5.098256e-002
1.511982e+003;5.182787e-002
1.513910e+003;5.190930e-002
1.515839e+003;5.139255e-002
1.517767e+003;5.112801e-002
1.519696e+003;4.948972e-002
1.521624e+003;4.829978e-002
1.523553e+003;5.019862e-002
1.525481e+003;5.111761e-002
1.527410e+003;5.202970e-002
1.529339e+003;5.310031e-002
1.531267e+003;5.315985e-002
1.533196e+003;5.280753e-002
1.535124e+003;5.443914e-002
1.537053e+003;5.414755e-002
1.538981e+003;5.071514e-002
1.540910e+003;5.078784e-002
1.542838e+003;5.317554e-002
1.544767e+003;5.457163e-002
1.546695e+003;5.556515e-002
1.548624e+003;5.557814e-002
1.550553e+003;5.574809e-002
1.552481e+003;5.544500e-002
1.554410e+003;5.421497e-002
1.556338e+003;5.195919e-002
1.558267e+003;4.775450e-002
1.560195e+003;4.873101e-002
1.562124e+003;5.300480e-002
1.564052e+003;5.390395e-002
1.565981e+003;5.329566e-002
1.567910e+003;5.193466e-002
1.569838e+003;5.109451e-002
1.571767e+003;5.253670e-002
1.573695e+003;5.221474e-002
1.575624e+003;5.008493e-002
1.577552e+003;5.157187e-002
1.579481e+003;5.365805e-002
1.581409e+003;5.362843e-002
1.583338e+003;5.278422e-002
1.585266e+003;5.177075e-002
1.587195e+003;5.115030e-002
1.589124e+003;5.069176e-002
1.591052e+003;5.038106e-002
1.592981e+003;5.008761e-002
1.594909e+003;5.028276e-002
1.596838e+003;5.100193e-002
1.598766e+003;5.184594e-002
1.600695e+003;5.251479e-002
1.602623e+003;5.305617e-002
1.604552e+003;5.334721e-002
1.606480e+003;5.353168e-002
1.608409e+003;5.346666e-002
1.610338e+003;5.337838e-002
1.612266e+003;5.335762e-002
1.614195e+003;5.193816e-002
1.616123e+003;4.926446e-002
1.618052e+003;4.999477e-002
1.619980e+003;5.180715e-002
1.621909e+003;5.144044e-002
1.623837e+003;5.105466e-002
1.625766e+003;5.137293e-002
1.627694e+003;5.166322e-002
1.629623e+003;5.214704e-002
1.631552e+003;5.221052e-002
1.633480e+003;5.016834e-002
1.635409e+003;4.802902e-002
1.637337e+003;4.983892e-002
1.639266e+003;5.165919e-002
1.641194e+003;5.185426e-002
1.643123e+003;5.142377e-002
1.645051e+003;4.965225e-002
1.646980e+003;4.910704e-002
1.648909e+003;5.060355e-002
1.650837e+003;4.815153e-002
1.652766e+003;4.433242e-002
1.654694e+003;4.871158e-002
1.656623e+003;5.365156e-002
1.658551e+003;5.458903e-002
1.660480e+003;5.452519e-002
1.662408e+003;5.464437e-002
1.664337e+003;5.599073e-002
1.666266e+003;5.671138e-002
1.668194e+003;5.550392e-002
1.670123e+003;5.515004e-002
1.672051e+003;5.597648e-002
1.673980e+003;5.500101e-002
1.675908e+003;5.441176e-002
1.677837e+003;5.537623e-002
1.679765e+003;5.484102e-002
1.681694e+003;5.259819e-002
1.683622e+003;4.849776e-002
1.685551e+003;4.892395e-002
1.687479e+003;5.211368e-002
1.689408e+003;5.290202e-002
1.691337e+003;5.301701e-002
1.693265e+003;5.177359e-002
1.695194e+003;4.918411e-002
1.697122e+003;4.991433e-002
1.699051e+003;4.943046e-002
1.700979e+003;5.011963e-002
1.702908e+003;5.425450e-002
1.704836e+003;5.618538e-002
1.706765e+003;5.860318e-002
1.708693e+003;6.154539e-002
1.710622e+003;6.441661e-002
1.712551e+003;6.682805e-002
1.714479e+003;6.876679e-002
1.716408e+003;7.012056e-002
1.718336e+003;7.430292e-002
1.720265e+003;8.081079e-002
1.722193e+003;8.535758e-002
1.724122e+003;8.865883e-002
1.726050e+003;9.130048e-002
1.727979e+003;9.277155e-002
1.729908e+003;9.323440e-002
1.731836e+003;9.089325e-002
1.733765e+003;8.660533e-002
1.735693e+003;8.582905e-002
1.737622e+003;8.406015e-002
1.739550e+003;7.928518e-002
1.741479e+003;7.510769e-002
1.743407e+003;7.070677e-002
1.745336e+003;6.641122e-002
1.747265e+003;6.232424e-002
1.749193e+003;5.844720e-002
1.751122e+003;5.549609e-002
1.753050e+003;5.426689e-002
1.754979e+003;5.238480e-002
1.756907e+003;4.996447e-002
1.758836e+003;4.818026e-002
1.760764e+003;4.618391e-002
1.762693e+003;4.514031e-002
1.764621e+003;4.489638e-002
1.766550e+003;4.344688e-002
1.768479e+003;4.212996e-002
1.770407e+003;4.061808e-002
1.772336e+003;3.924148e-002
1.774264e+003;4.009423e-002
1.776193e+003;4.083090e-002
1.778121e+003;4.080833e-002
1.780050e+003;4.063289e-002
1.781978e+003;4.048294e-002
1.783907e+003;4.003130e-002
1.785835e+003;3.968155e-002
1.787764e+003;3.972617e-002
1.789693e+003;3.905557e-002
1.791621e+003;3.771173e-002
1.793550e+003;3.770606e-002
1.795478e+003;3.873283e-002
1.797407e+003;3.856551e-002
1.799335e+003;3.794070e-002
1.801264e+003;3.771451e-002
1.803192e+003;3.807769e-002
1.805121e+003;3.808543e-002
1.807049e+003;3.791460e-002
1.808978e+003;3.756319e-002
1.810907e+003;3.729466e-002
1.812835e+003;3.739649e-002
1.814764e+003;3.759726e-002
1.816692e+003;3.744232e-002
1.818621e+003;3.719639e-002
1.820549e+003;3.692020e-002
1.822478e+003;3.660517e-002
1.824406e+003;3.606990e-002
1.826335e+003;3.594452e-002
1.828264e+003;3.549908e-002
1.830192e+003;3.520650e-002
1.832121e+003;3.572822e-002
1.834049e+003;3.594869e-002
1.835978e+003;3.594182e-002
1.837906e+003;3.602306e-002
1.839835e+003;3.597551e-002
1.841763e+003;3.525551e-002
1.843692e+003;3.409012e-002
1.845620e+003;3.451259e-002
1.847549e+003;3.505130e-002
1.849478e+003;3.499336e-002
1.851406e+003;3.510536e-002
1.853335e+003;3.519403e-002
1.855263e+003;3.518756e-002
1.857192e+003;3.513485e-002
1.859120e+003;3.487985e-002
1.861049e+003;3.494018e-002
1.862977e+003;3.497846e-002
1.864906e+003;3.474096e-002
1.866834e+003;3.425814e-002
1.868763e+003;3.393884e-002
1.870692e+003;3.459511e-002
1.872620e+003;3.511028e-002
1.874549e+003;3.490078e-002
1.876477e+003;3.479602e-002
1.878406e+003;3.461320e-002
1.880334e+003;3.444662e-002
1.882263e+003;3.445946e-002
1.884191e+003;3.462827e-002
1.886120e+003;3.448189e-002
1.888048e+003;3.407059e-002
1.889977e+003;3.408812e-002
1.891906e+003;3.436553e-002
1.893834e+003;3.425459e-002
1.895763e+003;3.416425e-002
1.897691e+003;3.427578e-002
1.899620e+003;3.424433e-002
1.901548e+003;3.403296e-002
1.903477e+003;3.408550e-002
1.905405e+003;3.416303e-002
1.907334e+003;3.403641e-002
1.909262e+003;3.380300e-002
1.911191e+003;3.370559e-002
1.913120e+003;3.396936e-002
1.915048e+003;3.394185e-002
1.916977e+003;3.323762e-002
1.918905e+003;3.322016e-002
1.920834e+003;3.346116e-002
1.922762e+003;3.339954e-002
1.924691e+003;3.356535e-002
1.926619e+003;3.381836e-002
1.928548e+003;3.390939e-002
1.930477e+003;3.369843e-002
1.932405e+003;3.337321e-002
1.934334e+003;3.325171e-002
1.936262e+003;3.341350e-002
1.938191e+003;3.337292e-002
1.940119e+003;3.308973e-002
1.942048e+003;3.299982e-002
1.943976e+003;3.314234e-002
1.945905e+003;3.331853e-002
1.947833e+003;3.317688e-002
1.949762e+003;3.305380e-002
1.951691e+003;3.307640e-002
1.953619e+003;3.311080e-002
1.955548e+003;3.305588e-002
1.957476e+003;3.314606e-002
1.959405e+003;3.320557e-002
1.961333e+003;3.326294e-002
1.963262e+003;3.310683e-002
1.965190e+003;3.276876e-002
1.967119e+003;3.275375e-002
1.969047e+003;3.332390e-002
1.970976e+003;3.351009e-002
1.972905e+003;3.330698e-002
1.974833e+003;3.346964e-002
1.976762e+003;3.341335e-002
1.978690e+003;3.336834e-002
1.980619e+003;3.374444e-002
1.982547e+003;3.394632e-002
1.984476e+003;3.404948e-002
1.986404e+003;3.395492e-002
1.988333e+003;3.380347e-002
1.990261e+003;3.362503e-002
1.992190e+003;3.362503e-002
1.994119e+003;3.385189e-002
1.996047e+003;3.381332e-002
1.997976e+003;3.356650e-002
1.999904e+003;3.347870e-002
2.001833e+003;3.366273e-002
2.003761e+003;3.386096e-002
2.005690e+003;3.385422e-002
2.007618e+003;3.377471e-002
2.009547e+003;3.385243e-002
2.011476e+003;3.374681e-002
2.013404e+003;3.378377e-002
2.015333e+003;3.392218e-002
2.017261e+003;3.390201e-002
2.019190e+003;3.399638e-002
2.021118e+003;3.401902e-002
2.023047e+003;3.385103e-002
2.024975e+003;3.372314e-002
2.026904e+003;3.359023e-002
2.028833e+003;3.341210e-002
2.030761e+003;3.343990e-002
2.032690e+003;3.353951e-002
2.034618e+003;3.359303e-002
2.036547e+003;3.337403e-002
2.038475e+003;3.340849e-002
2.040404e+003;3.361232e-002
2.042332e+003;3.362217e-002
2.044261e+003;3.351206e-002
2.046189e+003;3.355340e-002
2.048118e+003;3.337109e-002
2.050047e+003;3.326645e-002
2.051975e+003;3.326320e-002
2.053904e+003;3.312882e-002
2.055832e+003;3.318805e-002
2.057761e+003;3.327375e-002
2.059689e+003;3.312832e-002
2.061618e+003;3.304948e-002
2.063546e+003;3.316841e-002
2.065475e+003;3.304161e-002
2.067404e+003;3.296171e-002
2.069332e+003;3.299238e-002
2.071260e+003;3.309399e-002
2.073189e+003;3.325640e-002
2.075118e+003;3.304465e-002
2.077046e+003;3.295492e-002
2.078975e+003;3.303267e-002
2.080903e+003;3.278980e-002
2.082832e+003;3.256407e-002
2.084760e+003;3.265029e-002
2.086689e+003;3.281882e-002
2.088617e+003;3.290495e-002
2.090546e+003;3.283726e-002
2.092475e+003;3.293651e-002
2.094403e+003;3.324391e-002
2.096332e+003;3.314627e-002
2.098260e+003;3.271995e-002
2.100189e+003;3.275821e-002
2.102117e+003;3.293358e-002
2.104046e+003;3.268308e-002
2.105974e+003;3.250086e-002
2.107903e+003;3.259260e-002
2.109832e+003;3.267661e-002
2.111760e+003;3.256710e-002
2.113688e+003;3.243840e-002
2.115617e+003;3.224526e-002
2.117546e+003;3.208715e-002
2.119474e+003;3.200008e-002
2.121403e+003;3.185722e-002
2.123331e+003;3.182741e-002
2.125260e+003;3.193792e-002
2.127188e+003;3.197255e-002
2.129117e+003;3.207067e-002
2.131045e+003;3.245119e-002
2.132974e+003;3.246776e-002
2.134903e+003;3.217011e-002
2.136831e+003;3.209190e-002
2.138760e+003;3.226592e-002
2.140688e+003;3.220664e-002
2.142617e+003;3.218795e-002
2.144545e+003;3.232053e-002
2.146474e+003;3.233834e-002
2.148402e+003;3.239132e-002
2.150331e+003;3.261453e-002
2.152260e+003;3.274500e-002
2.154188e+003;3.249136e-002
2.156117e+003;3.218534e-002
2.158045e+003;3.231286e-002
2.159974e+003;3.218530e-002
2.161902e+003;3.199530e-002
2.163831e+003;3.242952e-002
2.165759e+003;3.289823e-002
2.167688e+003;3.287707e-002
2.169616e+003;3.278708e-002
2.171545e+003;3.269555e-002
2.173474e+003;3.255599e-002
2.175402e+003;3.264950e-002
2.177331e+003;3.301876e-002
2.179259e+003;3.331482e-002
2.181188e+003;3.356711e-002
2.183116e+003;3.397384e-002
2.185045e+003;3.469627e-002
2.186973e+003;3.556575e-002
2.188902e+003;3.601456e-002
2.190831e+003;3.634523e-002
2.192759e+003;3.647819e-002
2.194688e+003;3.627794e-002
2.196616e+003;3.603023e-002
2.198545e+003;3.568343e-002
2.200473e+003;3.546075e-002
2.202402e+003;3.554381e-002
2.204330e+003;3.556222e-002
2.206259e+003;3.564893e-002
2.208188e+003;3.556471e-002
2.210116e+003;3.570430e-002
2.212044e+003;3.610580e-002
2.213973e+003;3.628695e-002
2.215902e+003;3.653297e-002
2.217830e+003;3.698658e-002
2.219759e+003;3.765250e-002
2.221687e+003;3.833443e-002
2.223616e+003;3.944353e-002
2.225544e+003;4.108261e-002
2.227473e+003;4.363434e-002
2.229401e+003;4.753190e-002
2.231330e+003;5.282414e-002
2.233259e+003;5.902552e-002
2.235187e+003;6.529228e-002
2.237116e+003;7.100146e-002
2.239044e+003;7.530102e-002
2.240973e+003;7.714857e-002
2.242901e+003;7.649098e-002
2.244830e+003;7.392054e-002
2.246758e+003;7.015923e-002
2.248687e+003;6.577248e-002
2.250615e+003;6.159762e-002
2.252544e+003;5.801569e-002
2.254473e+003;5.480218e-002
2.256401e+003;5.158195e-002
2.258330e+003;4.833226e-002
2.260258e+003;4.574545e-002
2.262187e+003;4.369003e-002
2.264115e+003;4.185448e-002
2.266044e+003;4.064013e-002
2.267972e+003;3.977345e-002
2.269901e+003;3.923557e-002
2.271830e+003;3.856833e-002
2.273758e+003;3.796468e-002
2.275687e+003;3.776157e-002
2.277615e+003;3.738371e-002
2.279544e+003;3.691417e-002
2.281472e+003;3.657136e-002
2.283401e+003;3.624988e-002
2.285329e+003;3.615884e-002
2.287258e+003;3.618750e-002
2.289187e+003;3.606097e-002
2.291115e+003;3.594466e-002
2.293043e+003;3.575646e-002
2.294972e+003;3.561876e-002
2.296901e+003;3.561117e-002
2.298829e+003;3.567372e-002
2.300758e+003;3.555273e-002
2.302686e+003;3.536890e-002
2.304615e+003;3.527042e-002
2.306543e+003;3.520416e-002
2.308472e+003;3.502325e-002
2.310400e+003;3.460749e-002
2.312329e+003;3.433455e-002
2.314258e+003;3.435287e-002
2.316186e+003;3.448910e-002
2.318115e+003;3.446782e-002
2.320043e+003;3.412575e-002
2.321972e+003;3.382779e-002
2.323900e+003;3.360985e-002
2.325829e+003;3.359070e-002
2.327757e+003;3.357466e-002
2.329686e+003;3.357742e-002
2.331615e+003;3.338093e-002
2.333543e+003;3.305974e-002
2.335472e+003;3.319366e-002
2.337400e+003;3.322528e-002
2.339329e+003;3.298577e-002
2.341257e+003;3.283579e-002
2.343186e+003;3.326688e-002
2.345114e+003;3.396865e-002
2.347043e+003;3.441685e-002
2.348971e+003;3.453186e-002
2.350900e+003;3.437611e-002
2.352829e+003;3.377689e-002
2.354757e+003;3.300858e-002
2.356686e+003;3.264496e-002
2.358614e+003;3.252653e-002
2.360543e+003;3.250425e-002
2.362471e+003;3.237711e-002
2.364400e+003;3.243984e-002
2.366328e+003;3.298502e-002
2.368257e+003;3.332662e-002
2.370186e+003;3.345679e-002
2.372114e+003;3.401569e-002
2.374042e+003;3.453806e-002
2.375971e+003;3.467898e-002
2.377900e+003;3.475413e-002
2.379828e+003;3.495163e-002
2.381757e+003;3.505090e-002
2.383685e+003;3.506545e-002
2.385614e+003;3.516848e-002
2.387542e+003;3.506656e-002
2.389471e+003;3.496769e-002
2.391399e+003;3.504867e-002
2.393328e+003;3.515555e-002
2.395257e+003;3.496851e-002
2.397185e+003;3.477718e-002
2.399114e+003;3.481512e-002
2.401042e+003;3.509720e-002
2.402971e+003;3.501675e-002
2.404899e+003;3.477025e-002
2.406828e+003;3.478935e-002
2.408756e+003;3.489440e-002
2.410685e+003;3.503941e-002
2.412614e+003;3.504174e-002
2.414542e+003;3.503434e-002
2.416471e+003;3.510141e-002
2.418399e+003;3.520344e-002
2.420328e+003;3.529317e-002
2.422256e+003;3.537487e-002
2.424185e+003;3.557182e-002
2.426113e+003;3.550350e-002
2.428042e+003;3.534130e-002
2.429970e+003;3.514933e-002
2.431899e+003;3.500266e-002
2.433828e+003;3.512386e-002
2.435756e+003;3.508840e-002
2.437685e+003;3.502608e-002
2.439613e+003;3.511858e-002
2.441542e+003;3.530277e-002
2.443470e+003;3.531610e-002
2.445399e+003;3.526018e-002
2.447327e+003;3.544641e-002
2.449256e+003;3.573592e-002
2.451185e+003;3.594859e-002
2.453113e+003;3.593793e-002
2.455042e+003;3.573512e-002
2.456970e+003;3.536919e-002
2.458899e+003;3.530625e-002
2.460827e+003;3.541750e-002
2.462756e+003;3.558240e-002
2.464684e+003;3.554583e-002
2.466613e+003;3.544396e-002
2.468542e+003;3.558848e-002
2.470470e+003;3.595244e-002
2.472398e+003;3.624848e-002
2.474327e+003;3.622024e-002
2.476256e+003;3.601377e-002
2.478184e+003;3.600222e-002
2.480113e+003;3.627124e-002
2.482041e+003;3.650169e-002
2.483970e+003;3.642259e-002
2.485898e+003;3.635323e-002
2.487827e+003;3.644089e-002
2.489755e+003;3.662063e-002
2.491684e+003;3.682894e-002
2.493613e+003;3.697557e-002
2.495541e+003;3.712767e-002
2.497470e+003;3.732752e-002
2.499398e+003;3.734647e-002
2.501327e+003;3.718535e-002
2.503255e+003;3.668632e-002
2.505184e+003;3.678588e-002
2.507112e+003;3.735594e-002
2.509041e+003;3.750889e-002
2.510969e+003;3.747111e-002
2.512898e+003;3.731831e-002
2.514827e+003;3.711479e-002
2.516755e+003;3.709613e-002
2.518684e+003;3.717709e-002
2.520612e+003;3.725607e-002
2.522541e+003;3.720322e-002
2.524469e+003;3.703316e-002
2.526398e+003;3.695411e-002
2.528326e+003;3.698983e-002
2.530255e+003;3.701620e-002
2.532184e+003;3.707314e-002
2.534112e+003;3.724102e-002
2.536041e+003;3.726224e-002
2.537969e+003;3.711659e-002
2.539898e+003;3.708068e-002
2.541826e+003;3.730304e-002
2.543755e+003;3.728813e-002
2.545683e+003;3.701090e-002
2.547612e+003;3.697720e-002
2.549541e+003;3.707974e-002
2.551469e+003;3.702847e-002
2.553397e+003;3.684834e-002
2.555326e+003;3.646028e-002
2.557255e+003;3.601852e-002
2.559183e+003;3.614209e-002
2.561112e+003;3.641985e-002
2.563040e+003;3.629159e-002
2.564969e+003;3.620612e-002
2.566897e+003;3.623767e-002
2.568826e+003;3.613655e-002
2.570754e+003;3.599592e-002
2.572683e+003;3.594977e-002
2.574612e+003;3.600881e-002
2.576540e+003;3.592404e-002
2.578469e+003;3.581467e-002
2.580397e+003;3.574239e-002
2.582326e+003;3.548542e-002
2.584254e+003;3.524354e-002
2.586183e+003;3.542016e-002
2.588111e+003;3.563408e-002
2.590040e+003;3.543828e-002
2.591969e+003;3.510845e-002
2.593897e+003;3.525820e-002
2.595826e+003;3.542879e-002
2.597754e+003;3.533048e-002
2.599683e+003;3.512023e-002
2.601611e+003;3.503470e-002
2.603540e+003;3.525371e-002
2.605468e+003;3.540866e-002
2.607397e+003;3.541765e-002
2.609325e+003;3.546888e-002
2.611254e+003;3.569379e-002
2.613183e+003;3.597410e-002
2.615111e+003;3.619168e-002
2.617040e+003;3.584987e-002
2.618968e+003;3.562829e-002
2.620897e+003;3.565221e-002
2.622825e+003;3.570797e-002
2.624754e+003;3.571796e-002
2.626682e+003;3.572358e-002
2.628611e+003;3.598062e-002
2.630540e+003;3.633756e-002
2.632468e+003;3.650388e-002
2.634396e+003;3.642720e-002
2.636325e+003;3.645354e-002
2.638254e+003;3.616871e-002
2.640182e+003;3.573207e-002
2.642111e+003;3.554737e-002
2.644039e+003;3.564577e-002
2.645968e+003;3.581575e-002
2.647896e+003;3.560222e-002
2.649825e+003;3.548836e-002
2.651753e+003;3.543253e-002
2.653682e+003;3.552112e-002
2.655611e+003;3.570145e-002
2.657539e+003;3.565998e-002
2.659468e+003;3.570401e-002
2.661396e+003;3.544766e-002
2.663325e+003;3.524034e-002
2.665253e+003;3.552767e-002
2.667182e+003;3.554072e-002
2.669110e+003;3.536793e-002
2.671039e+003;3.518986e-002
2.672968e+003;3.517078e-002
2.674896e+003;3.531513e-002
2.676825e+003;3.551677e-002
2.678753e+003;3.537508e-002
2.680682e+003;3.502404e-002
2.682610e+003;3.509692e-002
2.684539e+003;3.524045e-002
2.686467e+003;3.536243e-002
2.688396e+003;3.558873e-002
2.690324e+003;3.577805e-002
2.692253e+003;3.574009e-002
2.694182e+003;3.567271e-002
2.696110e+003;3.590698e-002
2.698039e+003;3.583929e-002
2.699967e+003;3.554683e-002
2.701896e+003;3.548711e-002
2.703824e+003;3.555665e-002
2.705753e+003;3.547147e-002
2.707681e+003;3.547949e-002
2.709610e+003;3.563786e-002
2.711539e+003;3.536179e-002
2.713467e+003;3.515504e-002
2.715396e+003;3.523945e-002
2.717324e+003;3.521314e-002
2.719253e+003;3.517516e-002
2.721181e+003;3.497684e-002
2.723110e+003;3.492941e-002
2.725038e+003;3.484679e-002
2.726967e+003;3.480320e-002
2.728896e+003;3.474642e-002
2.730824e+003;3.450818e-002
2.732752e+003;3.452544e-002
2.734681e+003;3.461388e-002
2.736610e+003;3.451374e-002
2.738538e+003;3.434706e-002
2.740467e+003;3.471630e-002
2.742395e+003;3.487052e-002
2.744324e+003;3.455966e-002
2.746252e+003;3.454079e-002
2.748181e+003;3.464284e-002
2.750109e+003;3.475679e-002
2.752038e+003;3.469136e-002
2.753967e+003;3.443741e-002
2.755895e+003;3.422454e-002
2.757824e+003;3.430299e-002
2.759752e+003;3.454180e-002
2.761681e+003;3.439429e-002
2.763609e+003;3.421472e-002
2.765538e+003;3.425505e-002
2.767466e+003;3.440376e-002
2.769395e+003;3.461776e-002
2.771323e+003;3.456616e-002
2.773252e+003;3.449114e-002
2.775181e+003;3.464280e-002
2.777109e+003;3.497598e-002
2.779038e+003;3.510051e-002
2.780966e+003;3.539680e-002
2.782895e+003;3.580845e-002
2.784823e+003;3.577481e-002
2.786752e+003;3.562757e-002
2.788680e+003;3.569677e-002
2.790609e+003;3.606828e-002
2.792538e+003;3.643491e-002
2.794466e+003;3.678508e-002
2.796395e+003;3.695974e-002
2.798323e+003;3.696673e-002
2.800252e+003;3.735930e-002
2.802180e+003;3.756893e-002
2.804109e+003;3.773902e-002
2.806037e+003;3.784063e-002
2.807966e+003;3.770324e-002
2.809895e+003;3.782548e-002
2.811823e+003;3.804084e-002
2.813751e+003;3.831619e-002
2.815680e+003;3.837490e-002
2.817609e+003;3.841598e-002
2.819537e+003;3.882341e-002
2.821466e+003;3.883949e-002
2.823394e+003;3.848647e-002
2.825323e+003;3.857058e-002
2.827251e+003;3.873490e-002
2.829180e+003;3.892005e-002
2.831108e+003;3.935145e-002
2.833037e+003;3.986827e-002
2.834966e+003;4.031283e-002
2.836894e+003;4.068914e-002
2.838823e+003;4.138599e-002
2.840751e+003;4.235057e-002
2.842680e+003;4.355115e-002
2.844608e+003;4.504272e-002
2.846537e+003;4.664650e-002
2.848465e+003;4.802295e-002
2.850394e+003;4.891094e-002
2.852323e+003;4.882150e-002
2.854251e+003;4.836245e-002
2.856180e+003;4.830900e-002
2.858108e+003;4.841908e-002
2.860037e+003;4.878706e-002
2.861965e+003;4.910063e-002
2.863894e+003;4.883908e-002
2.865822e+003;4.867582e-002
2.867751e+003;4.895155e-002
2.869679e+003;4.940102e-002
2.871608e+003;4.940867e-002
2.873536e+003;4.883099e-002
2.875465e+003;4.838730e-002
2.877394e+003;4.847861e-002
2.879322e+003;4.850039e-002
2.881251e+003;4.814150e-002
2.883179e+003;4.768963e-002
2.885108e+003;4.748991e-002
2.887036e+003;4.802191e-002
2.888965e+003;4.867541e-002
2.890893e+003;4.905344e-002
2.892822e+003;4.954357e-002
2.894750e+003;4.999061e-002
2.896679e+003;5.067541e-002
2.898608e+003;5.096452e-002
2.900536e+003;5.103208e-002
2.902465e+003;5.163911e-002
2.904393e+003;5.257036e-002
2.906322e+003;5.378055e-002
2.908250e+003;5.504918e-002
2.910179e+003;5.615197e-002
2.912107e+003;5.733616e-002
2.914036e+003;5.886506e-002
2.915965e+003;6.022915e-002
2.917893e+003;6.066112e-002
2.919822e+003;6.058557e-002
2.921750e+003;6.054702e-002
2.923679e+003;6.049564e-002
2.925607e+003;6.018379e-002
2.927536e+003;5.999011e-002
2.929464e+003;5.972796e-002
2.931393e+003;5.918413e-002
2.933322e+003;5.886518e-002
2.935250e+003;5.896684e-002
2.937178e+003;5.870979e-002
2.939107e+003;5.827741e-002
2.941036e+003;5.783036e-002
2.942964e+003;5.735699e-002
2.944893e+003;5.669239e-002
2.946821e+003;5.595756e-002
2.948750e+003;5.504050e-002
2.950678e+003;5.428450e-002
2.952607e+003;5.334788e-002
2.954535e+003;5.223985e-002
2.956464e+003;5.113524e-002
2.958393e+003;4.954160e-002
2.960321e+003;4.816508e-002
2.962250e+003;4.775502e-002
2.964178e+003;4.736888e-002
2.966107e+003;4.718896e-002
2.968035e+003;4.753412e-002
2.969964e+003;4.776541e-002
2.971892e+003;4.783029e-002
2.973821e+003;4.777773e-002
2.975750e+003;4.749705e-002
2.977678e+003;4.734948e-002
2.979607e+003;4.734911e-002
2.981535e+003;4.773571e-002
2.983464e+003;4.781153e-002
2.985392e+003;4.752488e-002
2.987321e+003;4.741647e-002
2.989249e+003;4.738920e-002
2.991178e+003;4.721928e-002
2.993106e+003;4.712255e-002
2.995035e+003;4.687879e-002
2.996964e+003;4.639642e-002
2.998892e+003;4.607956e-002
3.000821e+003;4.615933e-002
3.002749e+003;4.589123e-002
3.004678e+003;4.553029e-002
3.006606e+003;4.507734e-002
3.008535e+003;4.448157e-002
3.010463e+003;4.419329e-002
3.012392e+003;4.375742e-002
3.014321e+003;4.321151e-002
3.016249e+003;4.275794e-002
3.018177e+003;4.263467e-002
3.020106e+003;4.260561e-002
3.022035e+003;4.217878e-002
3.023963e+003;4.179063e-002
3.025892e+003;4.167526e-002
3.027820e+003;4.168966e-002
3.029749e+003;4.159342e-002
3.031677e+003;4.142390e-002
3.033606e+003;4.125218e-002
3.035534e+003;4.082740e-002
3.037463e+003;4.068143e-002
3.039392e+003;4.051291e-002
3.041320e+003;4.015220e-002
3.043249e+003;3.989027e-002
3.045177e+003;3.979338e-002
3.047106e+003;3.973565e-002
3.049034e+003;3.933546e-002
3.050963e+003;3.907141e-002
3.052891e+003;3.900566e-002
3.054820e+003;3.848288e-002
3.056749e+003;3.819733e-002
3.058677e+003;3.822663e-002
3.060606e+003;3.846804e-002
3.062534e+003;3.844664e-002
3.064463e+003;3.830928e-002
3.066391e+003;3.801303e-002
3.068320e+003;3.772102e-002
3.070248e+003;3.763231e-002
3.072177e+003;3.731669e-002
3.074105e+003;3.691569e-002
3.076034e+003;3.667475e-002
3.077963e+003;3.625968e-002
3.079891e+003;3.617889e-002
3.081820e+003;3.668913e-002
3.083748e+003;3.701591e-002
3.085677e+003;3.668920e-002
3.087605e+003;3.612783e-002
3.089534e+003;3.603674e-002
3.091462e+003;3.620641e-002
3.093391e+003;3.618196e-002
3.095320e+003;3.608264e-002
3.097248e+003;3.609049e-002
3.099177e+003;3.581996e-002
3.101105e+003;3.535542e-002
3.103034e+003;3.502134e-002
3.104962e+003;3.483138e-002
3.106891e+003;3.477140e-002
3.108819e+003;3.466652e-002
3.110748e+003;3.491795e-002
3.112677e+003;3.528997e-002
3.114605e+003;3.535150e-002
3.116533e+003;3.487547e-002
3.118462e+003;3.444006e-002
3.120391e+003;3.409245e-002
3.122319e+003;3.397638e-002
3.124248e+003;3.420569e-002
3.126176e+003;3.416177e-002
3.128105e+003;3.397126e-002
3.130033e+003;3.419052e-002
3.131962e+003;3.413385e-002
3.133890e+003;3.369660e-002
3.135819e+003;3.376077e-002
3.137748e+003;3.384125e-002
3.139676e+003;3.366531e-002
3.141605e+003;3.353231e-002
3.143533e+003;3.338344e-002
3.145462e+003;3.341325e-002
3.147390e+003;3.348171e-002
3.149319e+003;3.341607e-002
3.151247e+003;3.348149e-002
3.153176e+003;3.333049e-002
3.155104e+003;3.295517e-002
3.157033e+003;3.321830e-002
3.158962e+003;3.366201e-002
3.160890e+003;3.349710e-002
3.162819e+003;3.320317e-002
3.164747e+003;3.296511e-002
3.166676e+003;3.297286e-002
3.168604e+003;3.311706e-002
3.170533e+003;3.297036e-002
3.172461e+003;3.299857e-002
3.174390e+003;3.304354e-002
3.176319e+003;3.320425e-002
3.178247e+003;3.339152e-002
3.180176e+003;3.321354e-002
3.182104e+003;3.329585e-002
3.184033e+003;3.351467e-002
3.185961e+003;3.352340e-002
3.187890e+003;3.330880e-002
3.189818e+003;3.323730e-002
3.191747e+003;3.341629e-002
3.193676e+003;3.329532e-002
3.195604e+003;3.306560e-002
3.197532e+003;3.294723e-002
3.199461e+003;3.314681e-002
3.201390e+003;3.340888e-002
3.203318e+003;3.325124e-002
3.205247e+003;3.328201e-002
3.207175e+003;3.339564e-002
3.209104e+003;3.344098e-002
3.211032e+003;3.352215e-002
3.212961e+003;3.326320e-002
3.214889e+003;3.310118e-002
3.216818e+003;3.339124e-002
3.218747e+003;3.338970e-002
3.220675e+003;3.334548e-002
3.222604e+003;3.337131e-002
3.224532e+003;3.354223e-002
3.226461e+003;3.386103e-002
3.228389e+003;3.413389e-002
3.230318e+003;3.404590e-002
3.232246e+003;3.391100e-002
3.234175e+003;3.368708e-002
3.236104e+003;3.347634e-002
3.238032e+003;3.360362e-002
3.239961e+003;3.365034e-002
3.241889e+003;3.356253e-002
3.243818e+003;3.340562e-002
3.245746e+003;3.355343e-002
3.247675e+003;3.382710e-002
3.249603e+003;3.401136e-002
3.251532e+003;3.430554e-002
3.253460e+003;3.430729e-002
3.255389e+003;3.393368e-002
3.257318e+003;3.362643e-002
3.259246e+003;3.350948e-002
3.261175e+003;3.365836e-002
3.263103e+003;3.356024e-002
3.265032e+003;3.335635e-002
3.266960e+003;3.317506e-002
3.268889e+003;3.308838e-002
3.270817e+003;3.345079e-002
3.272746e+003;3.365460e-002
3.274675e+003;3.379706e-002
3.276603e+003;3.363154e-002
3.278531e+003;3.332476e-002
3.280460e+003;3.333181e-002
3.282389e+003;3.371336e-002
3.284317e+003;3.393941e-002
3.286246e+003;3.371608e-002
3.288174e+003;3.342598e-002
3.290103e+003;3.281439e-002
3.292031e+003;3.257017e-002
3.293960e+003;3.282943e-002
3.295888e+003;3.282871e-002
3.297817e+003;3.252792e-002
3.299746e+003;3.261725e-002
3.301674e+003;3.272616e-002
3.303603e+003;3.284941e-002
3.305531e+003;3.304594e-002
3.307460e+003;3.276915e-002
3.309388e+003;3.238104e-002
3.311317e+003;3.229665e-002
3.313245e+003;3.274056e-002
3.315174e+003;3.306814e-002
3.317103e+003;3.320850e-002
3.319031e+003;3.298834e-002
3.320960e+003;3.258789e-002
3.322888e+003;3.230443e-002
3.324817e+003;3.228141e-002
3.326745e+003;3.220126e-002
3.328674e+003;3.216554e-002
3.330602e+003;3.200065e-002
3.332531e+003;3.217032e-002
3.334459e+003;3.226353e-002
3.336388e+003;3.191049e-002
3.338317e+003;3.179507e-002
3.340245e+003;3.211441e-002
3.342174e+003;3.218231e-002
3.344102e+003;3.182342e-002
3.346031e+003;3.148812e-002
3.347959e+003;3.147020e-002
3.349888e+003;3.168275e-002
3.351816e+003;3.210181e-002
3.353745e+003;3.206853e-002
3.355674e+003;3.140527e-002
3.357602e+003;3.125865e-002
3.359531e+003;3.169787e-002
3.361459e+003;3.161931e-002
3.363388e+003;3.167342e-002
3.365316e+003;3.185865e-002
3.367245e+003;3.158899e-002
3.369173e+003;3.124074e-002
3.371102e+003;3.128471e-002
3.373031e+003;3.097894e-002
3.374959e+003;3.109564e-002
3.376887e+003;3.154277e-002
3.378816e+003;3.161675e-002
3.380745e+003;3.132517e-002
3.382673e+003;3.085185e-002
3.384602e+003;3.073131e-002
3.386530e+003;3.077068e-002
3.388459e+003;3.034750e-002
3.390387e+003;3.027001e-002
3.392316e+003;3.040155e-002
3.394244e+003;3.064173e-002
3.396173e+003;3.030042e-002
3.398102e+003;2.998948e-002
3.400030e+003;3.016178e-002
3.401959e+003;3.093126e-002
3.403887e+003;3.120143e-002
3.405816e+003;3.104122e-002
3.407744e+003;3.103463e-002
3.409673e+003;3.089675e-002
3.411601e+003;3.072775e-002
3.413530e+003;3.036914e-002
3.415458e+003;2.996847e-002
3.417387e+003;3.031854e-002
3.419316e+003;3.097107e-002
3.421244e+003;3.076424e-002
3.423173e+003;3.036221e-002
3.425101e+003;3.054471e-002
3.427030e+003;3.050863e-002
3.428958e+003;3.058236e-002
3.430887e+003;3.096723e-002
3.432815e+003;3.104260e-002
3.434744e+003;3.080283e-002
3.436673e+003;3.078494e-002
3.438601e+003;3.116871e-002
3.440530e+003;3.118424e-002
3.442458e+003;3.072768e-002
3.444387e+003;3.075201e-002
3.446315e+003;3.079661e-002
3.448244e+003;3.072448e-002
3.450172e+003;3.104413e-002
3.452101e+003;3.136003e-002
3.454030e+003;3.137250e-002
3.455958e+003;3.130875e-002
3.457886e+003;3.122657e-002
3.459815e+003;3.096360e-002
3.461744e+003;3.070375e-002
3.463672e+003;3.064593e-002
3.465601e+003;3.078004e-002
3.467529e+003;3.112254e-002
3.469458e+003;3.122450e-002
3.471386e+003;3.091375e-002
3.473315e+003;3.063416e-002
3.475243e+003;3.091792e-002
3.477172e+003;3.141577e-002
3.479101e+003;3.160602e-002
3.481029e+003;3.151456e-002
3.482958e+003;3.154099e-002
3.484886e+003;3.158831e-002
3.486815e+003;3.124141e-002
3.488743e+003;3.077292e-002
3.490672e+003;3.083051e-002
3.492600e+003;3.114711e-002
3.494529e+003;3.175308e-002
3.496458e+003;3.211708e-002
3.498386e+003;3.201645e-002
3.500315e+003;3.165823e-002
3.502243e+003;3.165445e-002
3.504172e+003;3.205654e-002
3.506100e+003;3.180438e-002
3.508029e+003;3.167759e-002
3.509957e+003;3.227285e-002
3.511886e+003;3.263482e-002
3.513814e+003;3.243448e-002
3.515743e+003;3.242984e-002
3.517672e+003;3.277340e-002
3.519600e+003;3.294662e-002
3.521529e+003;3.291292e-002
3.523457e+003;3.280163e-002
3.525386e+003;3.267401e-002
3.527314e+003;3.286903e-002
3.529243e+003;3.307647e-002
3.531171e+003;3.352605e-002
3.533100e+003;3.367365e-002
3.535029e+003;3.328069e-002
3.536957e+003;3.296182e-002
3.538885e+003;3.295542e-002
3.540814e+003;3.313483e-002
3.542743e+003;3.307672e-002
3.544671e+003;3.282968e-002
3.546600e+003;3.302895e-002
3.548528e+003;3.304072e-002
3.550457e+003;3.236983e-002
3.552385e+003;3.232153e-002
3.554314e+003;3.256403e-002
3.556242e+003;3.286352e-002
3.558171e+003;3.355347e-002
3.560100e+003;3.340402e-002
3.562028e+003;3.297940e-002
3.563957e+003;3.285291e-002
3.565885e+003;3.225186e-002
3.567814e+003;3.217421e-002
3.569742e+003;3.243641e-002
3.571671e+003;3.266558e-002
3.573599e+003;3.247165e-002
3.575528e+003;3.228705e-002
3.577457e+003;3.221103e-002
3.579385e+003;3.198371e-002
3.581314e+003;3.147630e-002
3.583242e+003;3.137738e-002
3.585171e+003;3.111546e-002
3.587099e+003;3.020998e-002
3.589028e+003;3.019872e-002
3.590956e+003;3.125601e-002
3.592885e+003;3.176199e-002
3.594813e+003;3.213432e-002
3.596742e+003;3.258585e-002
3.598671e+003;3.268837e-002
3.600599e+003;3.241056e-002
3.602528e+003;3.250421e-002
3.604456e+003;3.247429e-002
3.606385e+003;3.197158e-002
3.608313e+003;3.174178e-002
3.610242e+003;3.182338e-002
3.612170e+003;3.165339e-002
3.614099e+003;3.172189e-002
3.616028e+003;3.187569e-002
3.617956e+003;3.173183e-002
3.619885e+003;3.177465e-002
3.621813e+003;3.241931e-002
3.623742e+003;3.277201e-002
3.625670e+003;3.182064e-002
3.627599e+003;2.947280e-002
3.629527e+003;2.986393e-002
3.631456e+003;3.227306e-002
3.633385e+003;3.294305e-002
3.635313e+003;3.306928e-002
3.637241e+003;3.306235e-002
3.639170e+003;3.258049e-002
3.641099e+003;3.222017e-002
3.643027e+003;3.203425e-002
3.644956e+003;3.102726e-002
3.646884e+003;2.931931e-002
3.648813e+003;2.804329e-002
3.650741e+003;2.898492e-002
3.652670e+003;3.051834e-002
3.654598e+003;3.008872e-002
3.656527e+003;2.956561e-002
3.658456e+003;3.022390e-002
3.660384e+003;3.022962e-002
3.662313e+003;2.983415e-002
3.664241e+003;2.912415e-002
3.666170e+003;2.809885e-002
3.668098e+003;2.645560e-002
3.670027e+003;2.499062e-002
3.671955e+003;2.578952e-002
3.673884e+003;2.428200e-002
3.675813e+003;2.284954e-002
3.677741e+003;2.493131e-002
3.679669e+003;2.628258e-002
3.681598e+003;2.638204e-002
3.683527e+003;2.592519e-002
3.685455e+003;2.513682e-002
3.687384e+003;2.257774e-002
3.689312e+003;2.231490e-002
3.691241e+003;2.414957e-002
3.693169e+003;2.563962e-002
3.695098e+003;2.628082e-002
3.697026e+003;2.591802e-002
3.698955e+003;2.520427e-002
3.700884e+003;2.447995e-002
3.702812e+003;2.511839e-002
3.704741e+003;2.592168e-002
3.706669e+003;2.540025e-002
3.708598e+003;2.382221e-002
3.710526e+003;2.231846e-002
3.712455e+003;2.237902e-002
3.714383e+003;2.398791e-002
3.716312e+003;2.472064e-002
3.718240e+003;2.451557e-002
3.720169e+003;2.416537e-002
3.722098e+003;2.362967e-002
3.724026e+003;2.337218e-002
3.725955e+003;2.357688e-002
3.727883e+003;2.440592e-002
3.729812e+003;2.374353e-002
3.731740e+003;2.196020e-002
3.733669e+003;2.150847e-002
3.735597e+003;2.140278e-002
3.737526e+003;2.288537e-002
3.739455e+003;2.414572e-002
3.741383e+003;2.281881e-002
3.743312e+003;1.914126e-002
3.745240e+003;1.940135e-002
3.747169e+003;2.103300e-002
3.749097e+003;1.943056e-002
3.751026e+003;1.910452e-002
3.752954e+003;2.162940e-002
3.754883e+003;2.401641e-002
3.756812e+003;2.376383e-002
3.758740e+003;2.363730e-002
3.760668e+003;2.385995e-002
3.762597e+003;2.409931e-002
3.764526e+003;2.385452e-002
3.766454e+003;2.415409e-002
3.768383e+003;2.377286e-002
3.770311e+003;2.386096e-002
3.772240e+003;2.471965e-002
3.774168e+003;2.492763e-002
3.776097e+003;2.462752e-002
3.778025e+003;2.438117e-002
3.779954e+003;2.434869e-002
3.781883e+003;2.472800e-002
3.783811e+003;2.458190e-002
3.785740e+003;2.405879e-002
3.787668e+003;2.401277e-002
3.789597e+003;2.434529e-002
3.791525e+003;2.440700e-002
3.793454e+003;2.434809e-002
3.795382e+003;2.365063e-002
3.797311e+003;2.302936e-002
3.799240e+003;2.157062e-002
3.801168e+003;2.076779e-002
3.803097e+003;2.278375e-002
3.805025e+003;2.311647e-002
3.806954e+003;2.267003e-002
3.808882e+003;2.442383e-002
3.810811e+003;2.515157e-002
3.812739e+003;2.437777e-002
3.814668e+003;2.205233e-002
3.816596e+003;2.172860e-002
3.818525e+003;2.247273e-002
3.820454e+003;2.185939e-002
3.822382e+003;2.299537e-002
3.824311e+003;2.409605e-002
3.826239e+003;2.374812e-002
3.828168e+003;2.400482e-002
3.830096e+003;2.409181e-002
3.832025e+003;2.368471e-002
3.833953e+003;2.369573e-002
3.835882e+003;2.256155e-002
3.837811e+003;2.131069e-002
3.839739e+003;2.260332e-002
3.841667e+003;2.385799e-002
3.843596e+003;2.457517e-002
3.845525e+003;2.528076e-002
3.847453e+003;2.556982e-002
3.849382e+003;2.410807e-002
3.851310e+003;2.010815e-002
3.853239e+003;1.732927e-002
3.855167e+003;2.059460e-002
3.857096e+003;2.407048e-002
3.859024e+003;2.440206e-002
3.860953e+003;2.419536e-002
3.862882e+003;2.397464e-002
3.864810e+003;2.378420e-002
3.866739e+003;2.391358e-002
3.868667e+003;2.265132e-002
3.870596e+003;2.270225e-002
3.872524e+003;2.359252e-002
3.874453e+003;2.376033e-002
3.876381e+003;2.482331e-002
3.878310e+003;2.518429e-002
3.880239e+003;2.503611e-002
3.882167e+003;2.477704e-002
3.884096e+003;2.318920e-002
3.886024e+003;2.304659e-002
3.887953e+003;2.444125e-002
3.889881e+003;2.402888e-002
3.891810e+003;2.439362e-002
3.893738e+003;2.550094e-002
3.895667e+003;2.561586e-002
3.897595e+003;2.445951e-002
3.899524e+003;2.335434e-002
3.901453e+003;2.354438e-002
3.903381e+003;2.354680e-002
3.905310e+003;2.394288e-002
3.907238e+003;2.478034e-002
3.909167e+003;2.509301e-002
3.911095e+003;2.500525e-002
3.913024e+003;2.457440e-002
3.914952e+003;2.422041e-002
3.916881e+003;2.463488e-002
3.918810e+003;2.506001e-002
3.920738e+003;2.521930e-002
3.922667e+003;2.535817e-002
3.924595e+003;2.543643e-002
3.926524e+003;2.583977e-002
3.928452e+003;2.542533e-002
3.930381e+003;2.466890e-002
3.932309e+003;2.485710e-002
3.934238e+003;2.527110e-002
3.936167e+003;2.525168e-002
3.938095e+003;2.555717e-002
3.940023e+003;2.562194e-002
3.941952e+003;2.549427e-002
3.943881e+003;2.544262e-002
3.945809e+003;2.557421e-002
3.947738e+003;2.566651e-002
3.949666e+003;2.549318e-002
3.951595e+003;2.557470e-002
3.953523e+003;2.604779e-002
3.955452e+003;2.611974e-002
3.957380e+003;2.625530e-002
3.959309e+003;2.639926e-002
3.961238e+003;2.635482e-002
3.963166e+003;2.594127e-002
3.965095e+003;2.558454e-002
3.967023e+003;2.602587e-002
3.968952e+003;2.632726e-002
3.970880e+003;2.655326e-002
3.972809e+003;2.664009e-002
3.974737e+003;2.664172e-002
3.976666e+003;2.650818e-002
3.978594e+003;2.642795e-002
3.980523e+003;2.664228e-002
3.982452e+003;2.664940e-002
3.984380e+003;2.642750e-002
3.986309e+003;2.656689e-002
3.988237e+003;2.678301e-002
3.990166e+003;2.674414e-002
3.992094e+003;2.669551e-002
3.994023e+003;2.664580e-002
3.995951e+003;2.682167e-002
3.997880e+003;2.685586e-002
3.999809e+003;2.680454e-002
4.001737e+003;0.000000e+000
