3.992094e+002;0.000000e+000
4.011380e+002;0.000000e+000
4.030665e+002;0.000000e+000
4.049951e+002;0.000000e+000
4.069236e+002;0.000000e+000
4.088522e+002;0.000000e+000
4.107807e+002;0.000000e+000
4.127093e+002;0.000000e+000
4.146378e+002;0.000000e+000
4.165664e+002;0.000000e+000
4.184949e+002;0.000000e+000
4.204235e+002;0.000000e+000
4.223520e+002;0.000000e+000
4.242806e+002;0.000000e+000
4.262091e+002;0.000000e+000
4.281377e+002;0.000000e+000
4.300662e+002;0.000000e+000
4.319948e+002;0.000000e+000
4.339233e+002;0.000000e+000
4.358519e+002;0.000000e+000
4.377804e+002;0.000000e+000
4.397090e+002;0.000000e+000
4.416375e+002;0.000000e+000
4.435660e+002;0.000000e+000
4.454946e+002;0.000000e+000
4.474232e+002;0.000000e+000
4.493517e+002;0.000000e+000
4.512802e+002;0.000000e+000
4.532088e+002;0.000000e+000
4.551373e+002;0.000000e+000
4.570659e+002;0.000000e+000
4.589944e+002;0.000000e+000
4.609230e+002;0.000000e+000
4.628515e+002;0.000000e+000
4.647801e+002;0.000000e+000
4.667086e+002;0.000000e+000
4.686372e+002;0.000000e+000
4.705657e+002;0.000000e+000
4.724943e+002;0.000000e+000
4.744228e+002;0.000000e+000
4.763513e+002;0.000000e+000
4.782799e+002;0.000000e+000
4.802085e+002;0.000000e+000
4.821370e+002;0.000000e+000
4.840656e+002;0.000000e+000
4.859941e+002;0.000000e+000
4.879226e+002;0.000000e+000
4.898512e+002;0.000000e+000
4.917798e+002;0.000000e+000
4.937083e+002;0.000000e+000
4.956368e+002;0.000000e+000
4.975654e+002;0.000000e+000
4.994939e+002;0.000000e+000
5.014225e+002;0.000000e+000
5.033510e+002;0.000000e+000
5.052796e+002;0.000000e+000
5.072081e+002;0.000000e+000
5.091367e+002;0.000000e+000
5.110652e+002;0.000000e+000
5.129938e+002;0.000000e+000
5.149223e+002;0.000000e+000
5.168509e+002;0.000000e+000
5.187794e+002;0.000000e+000
5.207079e+002;0.000000e+000
5.226365e+002;0.000000e+000
5.245651e+002;0.000000e+000
5.264936e+002;0.000000e+000
5.284222e+002;0.000000e+000
5.303507e+002;0.000000e+000
5.322792e+002;0.000000e+000
5.342078e+002;0.000000e+000
5.361364e+002;0.000000e+000
5.380649e+002;0.000000e+000
5.399935e+002;0.000000e+000
5.419220e+002;0.000000e+000
5.438505e+002;0.000000e+000
5.457791e+002;0.000000e+000
5.477076e+002;0.000000e+000
5.496362e+002;0.000000e+000
5.515648e+002;0.000000e+000
5.534933e+002;0.000000e+000
5.554218e+002;0.000000e+000
5.573504e+002;0.000000e+000
5.592789e+002;0.000000e+000
5.612075e+002;0.000000e+000
5.631360e+002;0.000000e+000
5.650646e+002;0.000000e+000
5.669931e+002;0.000000e+000
5.689217e+002;0.000000e+000
5.708502e+002;0.000000e+000
5.727787e+002;0.000000e+000
5.747073e+002;0.000000e+000
5.766359e+002;0.000000e+000
5.785644e+002;0.000000e+000
5.804930e+002;0.000000e+000
5.824215e+002;0.000000e+000
5.843500e+002;0.000000e+000
5.862786e+002;0.000000e+000
5.882072e+002;0.000000e+000
5.901357e+002;0.000000e+000
5.920643e+002;0.000000e+000
5.939928e+002;0.000000e+000
5.959213e+002;0.000000e+000
5.978499e+002;0.000000e+000
5.997784e+002;7.404771e-002
6.017070e+002;7.936548e-002
6.036355e+002;8.080173e-002
6.055641e+002;7.882603e-002
6.074926e+002;7.512633e-002
6.094211e+002;7.300266e-002
6.113497e+002;6.964914e-002
6.132783e+002;7.121178e-002
6.152068e+002;7.490075e-002
6.171354e+002;7.386822e-002
6.190639e+002;7.281552e-002
6.209924e+002;7.308444e-002
6.229210e+002;7.384615e-002
6.248495e+002;7.563994e-002
6.267781e+002;7.651441e-002
6.287067e+002;7.614409e-002
6.306352e+002;7.899579e-002
6.325637e+002;7.716709e-002
6.344923e+002;7.192089e-002
6.364208e+002;7.192641e-002
6.383494e+002;7.492673e-002
6.402780e+002;7.470004e-002
6.422065e+002;7.070279e-002
6.441350e+002;6.925886e-002
6.460636e+002;7.047401e-002
6.479921e+002;7.113324e-002
6.499207e+002;7.318208e-002
6.518492e+002;7.528132e-002
6.537778e+002;7.506752e-002
6.557063e+002;7.305241e-002
6.576349e+002;7.326040e-002
6.595634e+002;7.447705e-002
6.614919e+002;7.627784e-002
6.634205e+002;7.624084e-002
6.653491e+002;7.628329e-002
6.672776e+002;7.801297e-002
6.692062e+002;7.986940e-002
6.711347e+002;8.010256e-002
6.730632e+002;8.011367e-002
6.749918e+002;7.899869e-002
6.769203e+002;7.810219e-002
6.788489e+002;7.893968e-002
6.807775e+002;7.853818e-002
6.827060e+002;7.607741e-002
6.846345e+002;7.480253e-002
6.865631e+002;7.580790e-002
6.884916e+002;7.657669e-002
6.904202e+002;7.603114e-002
6.923488e+002;7.519365e-002
6.942773e+002;7.489280e-002
6.962058e+002;7.485351e-002
6.981344e+002;7.434806e-002
7.000629e+002;7.345424e-002
7.019915e+002;7.249314e-002
7.039200e+002;7.196207e-002
7.058486e+002;7.162277e-002
7.077771e+002;7.203462e-002
7.097057e+002;7.335822e-002
7.116342e+002;7.408552e-002
7.135627e+002;7.447221e-002
7.154913e+002;7.490378e-002
7.174199e+002;7.377364e-002
7.193484e+002;7.315239e-002
7.212770e+002;7.332923e-002
7.232055e+002;7.399797e-002
7.251340e+002;7.451820e-002
7.270626e+002;7.521118e-002
7.289911e+002;7.537886e-002
7.309197e+002;7.576024e-002
7.328483e+002;7.520027e-002
7.347768e+002;7.387128e-002
7.367053e+002;7.410155e-002
7.386339e+002;7.490934e-002
7.405624e+002;7.455277e-002
7.424910e+002;7.439773e-002
7.444196e+002;7.499088e-002
7.463481e+002;7.558532e-002
7.482766e+002;7.602561e-002
7.502052e+002;7.601228e-002
7.521337e+002;7.668172e-002
7.540623e+002;7.670002e-002
7.559908e+002;7.689137e-002
7.579194e+002;7.691664e-002
7.598479e+002;7.667689e-002
7.617765e+002;7.682461e-002
7.637050e+002;7.756526e-002
7.656335e+002;7.856148e-002
7.675621e+002;7.907596e-002
7.694907e+002;7.843485e-002
7.714192e+002;7.798283e-002
7.733478e+002;7.779813e-002
7.752763e+002;7.733497e-002
7.772048e+002;7.791634e-002
7.791334e+002;7.791530e-002
7.810620e+002;7.726217e-002
7.829905e+002;7.734614e-002
7.849191e+002;7.720679e-002
7.868476e+002;7.740565e-002
7.887761e+002;7.800507e-002
7.907047e+002;7.800587e-002
7.926332e+002;7.772806e-002
7.945618e+002;7.763071e-002
7.964903e+002;7.829098e-002
7.984189e+002;7.876867e-002
8.003474e+002;7.849506e-002
8.022759e+002;7.857531e-002
8.042045e+002;7.872125e-002
8.061331e+002;7.790992e-002
8.080616e+002;7.739820e-002
8.099902e+002;7.709903e-002
8.119187e+002;7.663116e-002
8.138472e+002;7.634866e-002
8.157758e+002;7.557546e-002
8.177043e+002;7.567449e-002
8.196329e+002;7.582593e-002
8.215615e+002;7.590993e-002
8.234900e+002;7.616032e-002
8.254185e+002;7.615763e-002
8.273471e+002;7.610843e-002
8.292756e+002;7.621501e-002
8.312042e+002;7.667001e-002
8.331328e+002;7.750929e-002
8.350613e+002;7.765824e-002
8.369898e+002;7.668571e-002
8.389184e+002;7.592785e-002
8.408469e+002;7.596645e-002
8.427755e+002;7.585146e-002
8.447040e+002;7.544145e-002
8.466326e+002;7.528947e-002
8.485611e+002;7.534882e-002
8.504897e+002;7.503534e-002
8.524182e+002;7.453877e-002
8.543467e+002;7.379957e-002
8.562753e+002;7.346479e-002
8.582039e+002;7.416432e-002
8.601324e+002;7.434948e-002
8.620610e+002;7.457343e-002
8.639895e+002;7.507858e-002
8.659180e+002;7.482693e-002
8.678466e+002;7.435215e-002
8.697751e+002;7.419096e-002
8.717037e+002;7.380939e-002
8.736323e+002;7.338224e-002
8.755608e+002;7.316286e-002
8.774893e+002;7.304821e-002
8.794179e+002;7.285953e-002
8.813464e+002;7.306530e-002
8.832750e+002;7.307256e-002
8.852036e+002;7.292058e-002
8.871321e+002;7.269094e-002
8.890606e+002;7.263462e-002
8.909892e+002;7.270317e-002
8.929177e+002;7.275911e-002
8.948463e+002;7.296088e-002
8.967748e+002;7.277141e-002
8.987034e+002;7.252841e-002
9.006319e+002;7.263011e-002
9.025605e+002;7.281380e-002
9.044890e+002;7.260297e-002
9.064175e+002;7.225347e-002
9.083461e+002;7.238238e-002
9.102747e+002;7.260231e-002
9.122032e+002;7.248706e-002
9.141318e+002;7.248817e-002
9.160603e+002;7.273489e-002
9.179888e+002;7.305185e-002
9.199174e+002;7.291396e-002
9.218459e+002;7.246295e-002
9.237745e+002;7.240536e-002
9.257031e+002;7.257325e-002
9.276316e+002;7.230034e-002
9.295601e+002;7.252266e-002
9.314887e+002;7.284193e-002
9.334172e+002;7.301623e-002
9.353458e+002;7.267398e-002
9.372744e+002;7.224881e-002
9.392029e+002;7.246573e-002
9.411314e+002;7.260090e-002
9.430600e+002;7.257231e-002
9.449885e+002;7.249701e-002
9.469171e+002;7.270896e-002
9.488456e+002;7.289594e-002
9.507742e+002;7.306229e-002
9.527027e+002;7.337050e-002
9.546313e+002;7.364514e-002
9.565598e+002;7.397176e-002
9.584883e+002;7.418939e-002
9.604169e+002;7.403027e-002
9.623455e+002;7.385251e-002
9.642740e+002;7.434314e-002
9.662026e+002;7.481138e-002
9.681311e+002;7.462379e-002
9.700596e+002;7.473358e-002
9.719882e+002;7.522793e-002
9.739167e+002;7.559979e-002
9.758453e+002;7.618602e-002
9.777739e+002;7.679254e-002
9.797024e+002;7.700272e-002
9.816309e+002;7.746354e-002
9.835595e+002;7.830896e-002
9.854880e+002;7.895911e-002
9.874166e+002;7.958277e-002
9.893452e+002;8.050737e-002
9.912737e+002;8.118458e-002
9.932022e+002;8.215485e-002
9.951307e+002;8.329820e-002
9.970593e+002;8.426475e-002
9.989879e+002;8.529846e-002
1.000916e+003;8.694044e-002
1.002845e+003;8.887923e-002
1.004773e+003;9.080710e-002
1.006702e+003;9.314299e-002
1.008631e+003;9.598874e-002
1.010559e+003;9.906705e-002
1.012488e+003;1.016433e-001
1.014416e+003;1.028790e-001
1.016345e+003;1.022924e-001
1.018273e+003;1.002752e-001
1.020202e+003;9.779684e-002
1.022130e+003;9.539463e-002
1.024059e+003;9.333938e-002
1.025988e+003;9.111821e-002
1.027916e+003;8.950216e-002
1.029845e+003;8.895506e-002
1.031773e+003;8.901355e-002
1.033702e+003;8.817275e-002
1.035630e+003;8.723570e-002
1.037559e+003;8.704991e-002
1.039487e+003;8.653994e-002
1.041416e+003;8.623872e-002
1.043344e+003;8.621051e-002
1.045273e+003;8.584916e-002
1.047202e+003;8.495269e-002
1.049130e+003;8.419962e-002
1.051059e+003;8.360453e-002
1.052987e+003;8.320104e-002
1.054916e+003;8.222411e-002
1.056844e+003;8.098147e-002
1.058773e+003;8.092386e-002
1.060701e+003;8.139243e-002
1.062630e+003;8.129776e-002
1.064558e+003;8.096251e-002
1.066487e+003;8.119493e-002
1.068416e+003;8.108174e-002
1.070344e+003;8.103282e-002
1.072273e+003;8.104907e-002
1.074201e+003;8.045716e-002
1.076130e+003;8.007853e-002
1.078058e+003;7.945360e-002
1.079987e+003;7.937463e-002
1.081915e+003;7.952462e-002
1.083844e+003;7.904492e-002
1.085773e+003;7.839484e-002
1.087701e+003;7.817926e-002
1.089630e+003;7.826631e-002
1.091558e+003;7.760824e-002
1.093487e+003;7.706927e-002
1.095415e+003;7.713033e-002
1.097344e+003;7.734551e-002
1.099272e+003;7.701237e-002
1.101201e+003;7.643206e-002
1.103129e+003;7.657997e-002
1.105058e+003;7.719892e-002
1.106987e+003;7.708838e-002
1.108915e+003;7.668547e-002
1.110844e+003;7.647470e-002
1.112772e+003;7.568604e-002
1.114701e+003;7.479383e-002
1.116629e+003;7.415689e-002
1.118558e+003;7.407742e-002
1.120486e+003;7.414328e-002
1.122415e+003;7.358614e-002
1.124344e+003;7.295500e-002
1.126272e+003;7.198526e-002
1.128201e+003;7.160655e-002
1.130129e+003;7.150943e-002
1.132058e+003;7.126452e-002
1.133986e+003;7.117274e-002
1.135915e+003;7.147732e-002
1.137843e+003;7.207976e-002
1.139772e+003;7.230892e-002
1.141700e+003;7.268601e-002
1.143629e+003;7.346746e-002
1.145557e+003;7.425044e-002
1.147486e+003;7.524266e-002
1.149415e+003;7.604145e-002
1.151343e+003;7.718308e-002
1.153272e+003;7.846442e-002
1.155200e+003;7.948193e-002
1.157129e+003;8.022685e-002
1.159057e+003;8.084375e-002
1.160986e+003;8.197573e-002
1.162914e+003;8.266891e-002
1.164843e+003;8.343494e-002
1.166771e+003;8.396246e-002
1.168700e+003;8.365559e-002
1.170629e+003;8.349794e-002
1.172557e+003;8.337314e-002
1.174486e+003;8.270382e-002
1.176414e+003;8.202747e-002
1.178343e+003;8.181489e-002
1.180271e+003;8.193763e-002
1.182200e+003;8.141141e-002
1.184128e+003;8.031821e-002
1.186057e+003;8.010758e-002
1.187986e+003;8.095077e-002
1.189914e+003;8.153952e-002
1.191843e+003;8.162668e-002
1.193771e+003;8.157142e-002
1.195700e+003;8.176609e-002
1.197628e+003;8.226255e-002
1.199557e+003;8.248845e-002
1.201485e+003;8.216278e-002
1.203414e+003;8.203832e-002
1.205343e+003;8.233359e-002
1.207271e+003;8.224545e-002
1.209200e+003;8.206590e-002
1.211128e+003;8.236451e-002
1.213057e+003;8.253950e-002
1.214985e+003;8.265704e-002
1.216914e+003;8.301110e-002
1.218842e+003;8.330755e-002
1.220771e+003;8.384689e-002
1.222699e+003;8.420980e-002
1.224628e+003;8.413821e-002
1.226557e+003;8.401645e-002
1.228485e+003;8.411142e-002
1.230414e+003;8.408239e-002
1.232342e+003;8.380132e-002
1.234271e+003;8.356577e-002
1.236199e+003;8.348433e-002
1.238128e+003;8.389986e-002
1.240056e+003;8.425155e-002
1.241985e+003;8.437882e-002
1.243913e+003;8.438835e-002
1.245842e+003;8.457273e-002
1.247771e+003;8.475800e-002
1.249699e+003;8.449537e-002
1.251628e+003;8.455635e-002
1.253556e+003;8.465088e-002
1.255485e+003;8.461831e-002
1.257413e+003;8.459451e-002
1.259342e+003;8.432848e-002
1.261270e+003;8.366961e-002
1.263199e+003;8.279245e-002
1.265127e+003;8.142368e-002
1.267056e+003;8.011387e-002
1.268985e+003;7.969604e-002
1.270913e+003;7.982432e-002
1.272842e+003;7.960155e-002
1.274770e+003;7.858245e-002
1.276699e+003;7.781402e-002
1.278627e+003;7.749131e-002
1.280556e+003;7.728627e-002
1.282484e+003;7.669848e-002
1.284413e+003;7.609481e-002
1.286342e+003;7.567098e-002
1.288270e+003;7.544409e-002
1.290199e+003;7.527360e-002
1.292127e+003;7.488040e-002
1.294056e+003;7.419678e-002
1.295984e+003;7.370721e-002
1.297913e+003;7.353755e-002
1.299841e+003;7.333018e-002
1.301770e+003;7.300772e-002
1.303698e+003;7.265068e-002
1.305627e+003;7.237021e-002
1.307556e+003;7.227515e-002
1.309484e+003;7.224090e-002
1.311413e+003;7.182191e-002
1.313341e+003;7.132641e-002
1.315270e+003;7.116884e-002
1.317198e+003;7.084700e-002
1.319127e+003;7.074647e-002
1.321055e+003;7.091472e-002
1.322984e+003;7.100013e-002
1.324912e+003;7.081768e-002
1.326841e+003;7.046901e-002
1.328770e+003;7.032987e-002
1.330698e+003;7.032991e-002
1.332627e+003;7.015055e-002
1.334555e+003;7.016106e-002
1.336484e+003;7.016040e-002
1.338412e+003;6.983694e-002
1.340341e+003;6.977005e-002
1.342269e+003;6.996623e-002
1.344198e+003;7.014003e-002
1.346126e+003;7.018267e-002
1.348055e+003;7.032041e-002
1.349984e+003;7.033587e-002
1.351912e+003;7.052682e-002
1.353841e+003;7.077489e-002
1.355769e+003;7.077006e-002
1.357698e+003;7.067760e-002
1.359626e+003;7.040468e-002
1.361555e+003;7.019989e-002
1.363483e+003;7.016321e-002
1.365412e+003;7.018933e-002
1.367341e+003;6.968403e-002
1.369269e+003;6.930274e-002
1.371198e+003;6.917601e-002
1.373126e+003;6.871364e-002
1.375055e+003;6.856377e-002
1.376983e+003;6.849650e-002
1.378912e+003;6.822398e-002
1.380840e+003;6.799226e-002
1.382769e+003;6.745700e-002
1.384698e+003;6.683528e-002
1.386626e+003;6.636771e-002
1.388555e+003;6.613209e-002
1.390483e+003;6.582396e-002
1.392412e+003;6.512444e-002
1.394340e+003;6.404122e-002
1.396269e+003;6.337029e-002
1.398197e+003;6.303415e-002
1.400126e+003;6.297432e-002
1.402054e+003;6.294727e-002
1.403983e+003;6.287722e-002
1.405911e+003;6.292326e-002
1.407840e+003;6.301986e-002
1.409769e+003;6.317155e-002
1.411697e+003;6.342117e-002
1.413626e+003;6.381415e-002
1.415554e+003;6.404521e-002
1.417483e+003;6.373237e-002
1.419411e+003;6.368441e-002
1.421340e+003;6.439056e-002
1.423268e+003;6.504981e-002
1.425197e+003;6.601956e-002
1.427125e+003;6.728064e-002
1.429054e+003;6.849766e-002
1.430983e+003;6.979320e-002
1.432911e+003;7.129443e-002
1.434840e+003;7.243476e-002
1.436768e+003;7.310686e-002
1.438697e+003;7.395963e-002
1.440625e+003;7.489890e-002
1.442554e+003;7.607713e-002
1.444482e+003;7.732246e-002
1.446411e+003;7.831968e-002
1.448340e+003;7.914231e-002
1.450268e+003;7.973522e-002
1.452197e+003;7.965803e-002
1.454125e+003;7.874385e-002
1.456054e+003;7.687531e-002
1.457982e+003;7.484674e-002
1.459911e+003;7.296483e-002
1.461839e+003;7.099057e-002
1.463768e+003;6.902621e-002
1.465697e+003;6.746694e-002
1.467625e+003;6.654070e-002
1.469554e+003;6.553888e-002
1.471482e+003;6.399499e-002
1.473411e+003;6.289308e-002
1.475339e+003;6.245786e-002
1.477268e+003;6.176562e-002
1.479196e+003;6.099081e-002
1.481125e+003;6.061635e-002
1.483053e+003;6.048989e-002
1.484982e+003;6.037580e-002
1.486911e+003;5.992240e-002
1.488839e+003;5.920612e-002
1.490768e+003;5.887572e-002
1.492696e+003;5.897769e-002
1.494625e+003;5.848674e-002
1.496553e+003;5.792504e-002
1.498482e+003;5.817598e-002
1.500410e+003;5.855931e-002
1.502339e+003;5.861425e-002
1.504267e+003;5.806250e-002
1.506196e+003;5.735877e-002
1.508125e+003;5.748463e-002
1.510053e+003;5.808886e-002
1.511982e+003;5.850676e-002
1.513910e+003;5.874810e-002
1.515839e+003;5.901113e-002
1.517767e+003;5.929146e-002
1.519696e+003;5.890787e-002
1.521624e+003;5.853656e-002
1.523553e+003;5.898392e-002
1.525481e+003;5.924934e-002
1.527410e+003;5.964786e-002
1.529339e+003;6.004428e-002
1.531267e+003;6.031366e-002
1.533196e+003;6.060489e-002
1.535124e+003;6.155226e-002
1.537053e+003;6.240736e-002
1.538981e+003;6.230550e-002
1.540910e+003;6.224034e-002
1.542838e+003;6.229678e-002
1.544767e+003;6.210028e-002
1.546695e+003;6.171898e-002
1.548624e+003;6.114016e-002
1.550553e+003;6.114637e-002
1.552481e+003;6.118719e-002
1.554410e+003;6.072018e-002
1.556338e+003;6.021058e-002
1.558267e+003;5.920643e-002
1.560195e+003;5.914943e-002
1.562124e+003;5.994495e-002
1.564052e+003;5.996009e-002
1.565981e+003;5.986211e-002
1.567910e+003;5.966664e-002
1.569838e+003;5.971040e-002
1.571767e+003;6.044837e-002
1.573695e+003;6.073020e-002
1.575624e+003;6.038604e-002
1.577552e+003;6.048970e-002
1.579481e+003;6.075714e-002
1.581409e+003;6.037869e-002
1.583338e+003;5.946894e-002
1.585266e+003;5.865995e-002
1.587195e+003;5.814363e-002
1.589124e+003;5.798733e-002
1.591052e+003;5.796090e-002
1.592981e+003;5.804799e-002
1.594909e+003;5.838807e-002
1.596838e+003;5.871703e-002
1.598766e+003;5.906875e-002
1.600695e+003;5.945405e-002
1.602623e+003;5.973971e-002
1.604552e+003;5.971907e-002
1.606480e+003;5.978549e-002
1.608409e+003;5.992305e-002
1.610338e+003;5.991627e-002
1.612266e+003;5.970937e-002
1.614195e+003;5.957435e-002
1.616123e+003;5.908375e-002
1.618052e+003;5.891811e-002
1.619980e+003;5.921645e-002
1.621909e+003;5.941301e-002
1.623837e+003;5.949174e-002
1.625766e+003;5.950580e-002
1.627694e+003;5.956185e-002
1.629623e+003;5.989665e-002
1.631552e+003;6.011429e-002
1.633480e+003;5.977636e-002
1.635409e+003;5.963399e-002
1.637337e+003;6.030235e-002
1.639266e+003;6.078950e-002
1.641194e+003;6.104771e-002
1.643123e+003;6.110446e-002
1.645051e+003;6.071084e-002
1.646980e+003;6.046422e-002
1.648909e+003;6.107795e-002
1.650837e+003;6.095494e-002
1.652766e+003;5.998634e-002
1.654694e+003;6.078874e-002
1.656623e+003;6.199617e-002
1.658551e+003;6.211172e-002
1.660480e+003;6.180668e-002
1.662408e+003;6.165570e-002
1.664337e+003;6.178499e-002
1.666266e+003;6.184901e-002
1.668194e+003;6.154627e-002
1.670123e+003;6.138992e-002
1.672051e+003;6.143999e-002
1.673980e+003;6.089383e-002
1.675908e+003;6.016617e-002
1.677837e+003;6.013945e-002
1.679765e+003;5.982131e-002
1.681694e+003;5.893712e-002
1.683622e+003;5.763001e-002
1.685551e+003;5.716148e-002
1.687479e+003;5.747030e-002
1.689408e+003;5.759097e-002
1.691337e+003;5.750868e-002
1.693265e+003;5.696649e-002
1.695194e+003;5.625783e-002
1.697122e+003;5.636511e-002
1.699051e+003;5.640219e-002
1.700979e+003;5.631301e-002
1.702908e+003;5.715879e-002
1.704836e+003;5.781575e-002
1.706765e+003;5.850296e-002
1.708693e+003;5.969656e-002
1.710622e+003;6.115267e-002
1.712551e+003;6.218191e-002
1.714479e+003;6.321647e-002
1.716408e+003;6.435620e-002
1.718336e+003;6.568344e-002
1.720265e+003;6.762279e-002
1.722193e+003;6.940614e-002
1.724122e+003;7.089425e-002
1.726050e+003;7.211617e-002
1.727979e+003;7.282677e-002
1.729908e+003;7.317772e-002
1.731836e+003;7.285216e-002
1.733765e+003;7.162945e-002
1.735693e+003;7.082240e-002
1.737622e+003;6.953993e-002
1.739550e+003;6.748015e-002
1.741479e+003;6.574538e-002
1.743407e+003;6.395429e-002
1.745336e+003;6.206286e-002
1.747265e+003;6.010649e-002
1.749193e+003;5.806788e-002
1.751122e+003;5.629618e-002
1.753050e+003;5.490283e-002
1.754979e+003;5.337497e-002
1.756907e+003;5.194239e-002
1.758836e+003;5.090282e-002
1.760764e+003;4.986367e-002
1.762693e+003;4.908453e-002
1.764621e+003;4.871262e-002
1.766550e+003;4.803990e-002
1.768479e+003;4.753738e-002
1.770407e+003;4.694723e-002
1.772336e+003;4.629640e-002
1.774264e+003;4.624244e-002
1.776193e+003;4.633757e-002
1.778121e+003;4.630521e-002
1.780050e+003;4.602743e-002
1.781978e+003;4.573794e-002
1.783907e+003;4.555910e-002
1.785835e+003;4.540865e-002
1.787764e+003;4.523921e-002
1.789693e+003;4.479858e-002
1.791621e+003;4.417664e-002
1.793550e+003;4.398483e-002
1.795478e+003;4.418841e-002
1.797407e+003;4.406980e-002
1.799335e+003;4.366794e-002
1.801264e+003;4.348812e-002
1.803192e+003;4.360577e-002
1.805121e+003;4.367069e-002
1.807049e+003;4.361848e-002
1.808978e+003;4.328567e-002
1.810907e+003;4.293479e-002
1.812835e+003;4.290315e-002
1.814764e+003;4.308939e-002
1.816692e+003;4.306608e-002
1.818621e+003;4.300517e-002
1.820549e+003;4.307710e-002
1.822478e+003;4.298739e-002
1.824406e+003;4.280185e-002
1.826335e+003;4.266442e-002
1.828264e+003;4.230196e-002
1.830192e+003;4.214789e-002
1.832121e+003;4.232194e-002
1.834049e+003;4.233271e-002
1.835978e+003;4.216516e-002
1.837906e+003;4.224436e-002
1.839835e+003;4.220847e-002
1.841763e+003;4.184897e-002
1.843692e+003;4.158938e-002
1.845620e+003;4.183707e-002
1.847549e+003;4.188224e-002
1.849478e+003;4.154245e-002
1.851406e+003;4.144351e-002
1.853335e+003;4.174113e-002
1.855263e+003;4.186375e-002
1.857192e+003;4.154446e-002
1.859120e+003;4.127109e-002
1.861049e+003;4.143341e-002
1.862977e+003;4.146425e-002
1.864906e+003;4.127047e-002
1.866834e+003;4.117582e-002
1.868763e+003;4.108916e-002
1.870692e+003;4.117053e-002
1.872620e+003;4.125039e-002
1.874549e+003;4.106800e-002
1.876477e+003;4.096764e-002
1.878406e+003;4.100583e-002
1.880334e+003;4.094484e-002
1.882263e+003;4.083039e-002
1.884191e+003;4.081688e-002
1.886120e+003;4.081663e-002
1.888048e+003;4.084928e-002
1.889977e+003;4.095424e-002
1.891906e+003;4.092657e-002
1.893834e+003;4.078897e-002
1.895763e+003;4.071643e-002
1.897691e+003;4.077757e-002
1.899620e+003;4.080421e-002
1.901548e+003;4.071887e-002
1.903477e+003;4.075021e-002
1.905405e+003;4.077011e-002
1.907334e+003;4.067833e-002
1.909262e+003;4.037311e-002
1.911191e+003;3.998251e-002
1.913120e+003;4.012429e-002
1.915048e+003;4.046683e-002
1.916977e+003;4.029552e-002
1.918905e+003;4.027913e-002
1.920834e+003;4.044337e-002
1.922762e+003;4.041322e-002
1.924691e+003;4.028745e-002
1.926619e+003;4.021817e-002
1.928548e+003;4.021060e-002
1.930477e+003;4.023976e-002
1.932405e+003;4.012745e-002
1.934334e+003;3.992464e-002
1.936262e+003;3.989100e-002
1.938191e+003;3.991316e-002
1.940119e+003;3.983158e-002
1.942048e+003;3.966166e-002
1.943976e+003;3.946755e-002
1.945905e+003;3.948780e-002
1.947833e+003;3.963029e-002
1.949762e+003;3.965472e-002
1.951691e+003;3.943922e-002
1.953619e+003;3.957254e-002
1.955548e+003;3.957991e-002
1.957476e+003;3.951349e-002
1.959405e+003;3.955465e-002
1.961333e+003;3.954565e-002
1.963262e+003;3.954256e-002
1.965190e+003;3.948711e-002
1.967119e+003;3.947340e-002
1.969047e+003;3.975896e-002
1.970976e+003;3.992010e-002
1.972905e+003;3.965654e-002
1.974833e+003;3.961457e-002
1.976762e+003;3.956753e-002
1.978690e+003;3.950682e-002
1.980619e+003;3.965835e-002
1.982547e+003;3.978405e-002
1.984476e+003;3.988595e-002
1.986404e+003;3.980086e-002
1.988333e+003;3.966953e-002
1.990261e+003;3.981161e-002
1.992190e+003;3.981873e-002
1.994119e+003;3.950689e-002
1.996047e+003;3.942238e-002
1.997976e+003;3.941121e-002
1.999904e+003;3.948548e-002
2.001833e+003;3.972849e-002
2.003761e+003;3.986765e-002
2.005690e+003;3.992976e-002
2.007618e+003;3.985802e-002
2.009547e+003;3.983529e-002
2.011476e+003;3.965516e-002
2.013404e+003;3.944785e-002
2.015333e+003;3.956666e-002
2.017261e+003;3.972878e-002
2.019190e+003;3.994055e-002
2.021118e+003;3.991469e-002
2.023047e+003;3.973706e-002
2.024975e+003;3.970119e-002
2.026904e+003;3.971433e-002
2.028833e+003;3.964408e-002
2.030761e+003;3.953287e-002
2.032690e+003;3.950987e-002
2.034618e+003;3.945870e-002
2.036547e+003;3.929178e-002
2.038475e+003;3.952758e-002
2.040404e+003;3.988308e-002
2.042332e+003;3.992940e-002
2.044261e+003;3.974567e-002
2.046189e+003;3.985123e-002
2.048118e+003;3.981644e-002
2.050047e+003;3.956492e-002
2.051975e+003;3.947245e-002
2.053904e+003;3.936531e-002
2.055832e+003;3.934569e-002
2.057761e+003;3.932015e-002
2.059689e+003;3.920202e-002
2.061618e+003;3.913142e-002
2.063546e+003;3.929697e-002
2.065475e+003;3.933981e-002
2.067404e+003;3.922617e-002
2.069332e+003;3.938117e-002
2.071260e+003;3.960202e-002
2.073189e+003;3.949999e-002
2.075118e+003;3.928097e-002
2.077046e+003;3.934652e-002
2.078975e+003;3.941922e-002
2.080903e+003;3.916532e-002
2.082832e+003;3.892552e-002
2.084760e+003;3.881964e-002
2.086689e+003;3.890954e-002
2.088617e+003;3.902454e-002
2.090546e+003;3.894770e-002
2.092475e+003;3.912852e-002
2.094403e+003;3.921032e-002
2.096332e+003;3.898920e-002
2.098260e+003;3.885026e-002
2.100189e+003;3.923462e-002
2.102117e+003;3.941636e-002
2.104046e+003;3.920060e-002
2.105974e+003;3.915234e-002
2.107903e+003;3.919441e-002
2.109832e+003;3.902168e-002
2.111760e+003;3.882895e-002
2.113688e+003;3.886769e-002
2.115617e+003;3.888102e-002
2.117546e+003;3.895336e-002
2.119474e+003;3.886874e-002
2.121403e+003;3.853353e-002
2.123331e+003;3.832188e-002
2.125260e+003;3.847651e-002
2.127188e+003;3.868433e-002
2.129117e+003;3.868969e-002
2.131045e+003;3.890907e-002
2.132974e+003;3.888718e-002
2.134903e+003;3.855222e-002
2.136831e+003;3.852035e-002
2.138760e+003;3.891795e-002
2.140688e+003;3.896035e-002
2.142617e+003;3.864149e-002
2.144545e+003;3.857391e-002
2.146474e+003;3.862276e-002
2.148402e+003;3.864869e-002
2.150331e+003;3.868078e-002
2.152260e+003;3.879714e-002
2.154188e+003;3.875312e-002
2.156117e+003;3.862276e-002
2.158045e+003;3.859651e-002
2.159974e+003;3.847470e-002
2.161902e+003;3.846967e-002
2.163831e+003;3.867415e-002
2.165759e+003;3.857673e-002
2.167688e+003;3.859379e-002
2.169616e+003;3.885620e-002
2.171545e+003;3.884768e-002
2.173474e+003;3.867542e-002
2.175402e+003;3.857492e-002
2.177331e+003;3.881080e-002
2.179259e+003;3.902835e-002
2.181188e+003;3.915560e-002
2.183116e+003;3.931239e-002
2.185045e+003;3.969397e-002
2.186973e+003;4.029771e-002
2.188902e+003;4.063609e-002
2.190831e+003;4.078947e-002
2.192759e+003;4.069500e-002
2.194688e+003;4.056973e-002
2.196616e+003;4.032890e-002
2.198545e+003;4.001451e-002
2.200473e+003;3.998668e-002
2.202402e+003;4.018233e-002
2.204330e+003;4.014682e-002
2.206259e+003;4.031555e-002
2.208188e+003;4.054001e-002
2.210116e+003;4.056671e-002
2.212044e+003;4.070173e-002
2.213973e+003;4.099447e-002
2.215902e+003;4.122096e-002
2.217830e+003;4.118514e-002
2.219759e+003;4.130782e-002
2.221687e+003;4.162843e-002
2.223616e+003;4.235949e-002
2.225544e+003;4.317960e-002
2.227473e+003;4.455338e-002
2.229401e+003;4.651836e-002
2.231330e+003;4.889410e-002
2.233259e+003;5.184803e-002
2.235187e+003;5.505092e-002
2.237116e+003;5.783838e-002
2.239044e+003;5.967352e-002
2.240973e+003;6.028690e-002
2.242901e+003;5.982937e-002
2.244830e+003;5.848204e-002
2.246758e+003;5.684011e-002
2.248687e+003;5.533140e-002
2.250615e+003;5.358915e-002
2.252544e+003;5.172895e-002
2.254473e+003;4.995681e-002
2.256401e+003;4.827556e-002
2.258330e+003;4.654414e-002
2.260258e+003;4.515501e-002
2.262187e+003;4.427044e-002
2.264115e+003;4.347508e-002
2.266044e+003;4.296819e-002
2.267972e+003;4.261643e-002
2.269901e+003;4.229564e-002
2.271830e+003;4.198099e-002
2.273758e+003;4.184393e-002
2.275687e+003;4.178753e-002
2.277615e+003;4.132972e-002
2.279544e+003;4.095435e-002
2.281472e+003;4.081994e-002
2.283401e+003;4.066145e-002
2.285329e+003;4.042751e-002
2.287258e+003;4.043537e-002
2.289187e+003;4.030839e-002
2.291115e+003;4.031294e-002
2.293043e+003;4.026771e-002
2.294972e+003;4.029033e-002
2.296901e+003;4.048970e-002
2.298829e+003;4.052495e-002
2.300758e+003;4.048534e-002
2.302686e+003;4.024292e-002
2.304615e+003;4.009579e-002
2.306543e+003;4.011298e-002
2.308472e+003;3.976767e-002
2.310400e+003;3.947750e-002
2.312329e+003;3.951956e-002
2.314258e+003;3.963036e-002
2.316186e+003;3.971158e-002
2.318115e+003;3.973510e-002
2.320043e+003;3.977395e-002
2.321972e+003;3.954082e-002
2.323900e+003;3.901682e-002
2.325829e+003;3.890689e-002
2.327757e+003;3.897177e-002
2.329686e+003;3.905746e-002
2.331615e+003;3.910963e-002
2.333543e+003;3.895510e-002
2.335472e+003;3.908828e-002
2.337400e+003;3.911340e-002
2.339329e+003;3.903342e-002
2.341257e+003;3.901258e-002
2.343186e+003;3.926342e-002
2.345114e+003;3.957853e-002
2.347043e+003;3.963842e-002
2.348971e+003;3.995359e-002
2.350900e+003;3.991930e-002
2.352829e+003;3.935381e-002
2.354757e+003;3.889254e-002
2.356686e+003;3.875424e-002
2.358614e+003;3.860828e-002
2.360543e+003;3.861183e-002
2.362471e+003;3.856370e-002
2.364400e+003;3.844339e-002
2.366328e+003;3.876113e-002
2.368257e+003;3.917054e-002
2.370186e+003;3.944665e-002
2.372114e+003;3.993459e-002
2.374042e+003;4.034112e-002
2.375971e+003;4.026956e-002
2.377900e+003;4.013352e-002
2.379828e+003;4.021031e-002
2.381757e+003;4.025008e-002
2.383685e+003;4.024107e-002
2.385614e+003;4.044602e-002
2.387542e+003;4.074722e-002
2.389471e+003;4.081597e-002
2.391399e+003;4.068758e-002
2.393328e+003;4.049829e-002
2.395257e+003;4.051866e-002
2.397185e+003;4.049956e-002
2.399114e+003;4.023114e-002
2.401042e+003;4.042591e-002
2.402971e+003;4.075515e-002
2.404899e+003;4.076935e-002
2.406828e+003;4.080731e-002
2.408756e+003;4.079195e-002
2.410685e+003;4.071436e-002
2.412614e+003;4.064304e-002
2.414542e+003;4.056380e-002
2.416471e+003;4.050865e-002
2.418399e+003;4.064249e-002
2.420328e+003;4.070028e-002
2.422256e+003;4.070770e-002
2.424185e+003;4.089485e-002
2.426113e+003;4.114981e-002
2.428042e+003;4.118558e-002
2.429970e+003;4.101283e-002
2.431899e+003;4.081918e-002
2.433828e+003;4.080367e-002
2.435756e+003;4.090647e-002
2.437685e+003;4.096381e-002
2.439613e+003;4.101880e-002
2.441542e+003;4.116347e-002
2.443470e+003;4.125535e-002
2.445399e+003;4.100398e-002
2.447327e+003;4.072382e-002
2.449256e+003;4.067327e-002
2.451185e+003;4.081120e-002
2.453113e+003;4.093662e-002
2.455042e+003;4.105070e-002
2.456970e+003;4.103883e-002
2.458899e+003;4.126734e-002
2.460827e+003;4.141759e-002
2.462756e+003;4.122500e-002
2.464684e+003;4.118653e-002
2.466613e+003;4.120237e-002
2.468542e+003;4.122194e-002
2.470470e+003;4.131478e-002
2.472398e+003;4.149932e-002
2.474327e+003;4.172490e-002
2.476256e+003;4.173394e-002
2.478184e+003;4.173278e-002
2.480113e+003;4.197165e-002
2.482041e+003;4.190735e-002
2.483970e+003;4.163354e-002
2.485898e+003;4.173471e-002
2.487827e+003;4.182182e-002
2.489755e+003;4.182682e-002
2.491684e+003;4.205093e-002
2.493613e+003;4.238122e-002
2.495541e+003;4.253066e-002
2.497470e+003;4.258036e-002
2.499398e+003;4.250614e-002
2.501327e+003;4.235696e-002
2.503255e+003;4.220419e-002
2.505184e+003;4.221617e-002
2.507112e+003;4.247595e-002
2.509041e+003;4.261128e-002
2.510969e+003;4.255894e-002
2.512898e+003;4.231967e-002
2.514827e+003;4.220602e-002
2.516755e+003;4.232026e-002
2.518684e+003;4.226847e-002
2.520612e+003;4.202377e-002
2.522541e+003;4.199683e-002
2.524469e+003;4.217242e-002
2.526398e+003;4.235368e-002
2.528326e+003;4.233034e-002
2.530255e+003;4.223461e-002
2.532184e+003;4.225817e-002
2.534112e+003;4.251111e-002
2.536041e+003;4.254578e-002
2.537969e+003;4.246375e-002
2.539898e+003;4.235083e-002
2.541826e+003;4.234378e-002
2.543755e+003;4.239675e-002
2.545683e+003;4.221968e-002
2.547612e+003;4.222859e-002
2.549541e+003;4.247018e-002
2.551469e+003;4.262674e-002
2.553397e+003;4.257206e-002
2.555326e+003;4.230440e-002
2.557255e+003;4.208688e-002
2.559183e+003;4.196636e-002
2.561112e+003;4.182244e-002
2.563040e+003;4.176167e-002
2.564969e+003;4.174449e-002
2.566897e+003;4.178410e-002
2.568826e+003;4.185838e-002
2.570754e+003;4.178545e-002
2.572683e+003;4.164995e-002
2.574612e+003;4.168525e-002
2.576540e+003;4.183569e-002
2.578469e+003;4.167748e-002
2.580397e+003;4.137404e-002
2.582326e+003;4.134135e-002
2.584254e+003;4.142383e-002
2.586183e+003;4.145729e-002
2.588111e+003;4.152386e-002
2.590040e+003;4.142696e-002
2.591969e+003;4.128800e-002
2.593897e+003;4.135800e-002
2.595826e+003;4.130079e-002
2.597754e+003;4.121483e-002
2.599683e+003;4.108534e-002
2.601611e+003;4.095657e-002
2.603540e+003;4.135498e-002
2.605468e+003;4.153027e-002
2.607397e+003;4.145200e-002
2.609325e+003;4.158340e-002
2.611254e+003;4.170425e-002
2.613183e+003;4.178100e-002
2.615111e+003;4.198771e-002
2.617040e+003;4.168715e-002
2.618968e+003;4.149695e-002
2.620897e+003;4.166939e-002
2.622825e+003;4.160243e-002
2.624754e+003;4.151033e-002
2.626682e+003;4.155798e-002
2.628611e+003;4.168733e-002
2.630540e+003;4.198329e-002
2.632468e+003;4.206633e-002
2.634396e+003;4.195191e-002
2.636325e+003;4.192998e-002
2.638254e+003;4.193786e-002
2.640182e+003;4.177502e-002
2.642111e+003;4.149586e-002
2.644039e+003;4.141555e-002
2.645968e+003;4.163357e-002
2.647896e+003;4.157782e-002
2.649825e+003;4.143458e-002
2.651753e+003;4.132342e-002
2.653682e+003;4.120412e-002
2.655611e+003;4.134565e-002
2.657539e+003;4.177484e-002
2.659468e+003;4.185700e-002
2.661396e+003;4.150399e-002
2.663325e+003;4.161396e-002
2.665253e+003;4.196851e-002
2.667182e+003;4.173369e-002
2.669110e+003;4.127408e-002
2.671039e+003;4.104411e-002
2.672968e+003;4.130334e-002
2.674896e+003;4.167803e-002
2.676825e+003;4.172399e-002
2.678753e+003;4.155459e-002
2.680682e+003;4.158066e-002
2.682610e+003;4.164805e-002
2.684539e+003;4.164732e-002
2.686467e+003;4.141048e-002
2.688396e+003;4.135629e-002
2.690324e+003;4.154679e-002
2.692253e+003;4.148211e-002
2.694182e+003;4.140130e-002
2.696110e+003;4.142896e-002
2.698039e+003;4.110362e-002
2.699967e+003;4.101701e-002
2.701896e+003;4.129266e-002
2.703824e+003;4.144577e-002
2.705753e+003;4.135629e-002
2.707681e+003;4.132302e-002
2.709610e+003;4.131176e-002
2.711539e+003;4.106592e-002
2.713467e+003;4.103624e-002
2.715396e+003;4.131974e-002
2.717324e+003;4.144395e-002
2.719253e+003;4.135101e-002
2.721181e+003;4.123068e-002
2.723110e+003;4.130141e-002
2.725038e+003;4.121702e-002
2.726967e+003;4.114227e-002
2.728896e+003;4.119578e-002
2.730824e+003;4.118234e-002
2.732752e+003;4.132622e-002
2.734681e+003;4.171658e-002
2.736610e+003;4.180132e-002
2.738538e+003;4.130917e-002
2.740467e+003;4.119327e-002
2.742395e+003;4.138785e-002
2.744324e+003;4.108169e-002
2.746252e+003;4.112511e-002
2.748181e+003;4.127929e-002
2.750109e+003;4.123567e-002
2.752038e+003;4.126147e-002
2.753967e+003;4.120165e-002
2.755895e+003;4.103752e-002
2.757824e+003;4.111302e-002
2.759752e+003;4.107780e-002
2.761681e+003;4.086533e-002
2.763609e+003;4.065672e-002
2.765538e+003;4.081339e-002
2.767466e+003;4.157111e-002
2.769395e+003;4.183503e-002
2.771323e+003;4.155339e-002
2.773252e+003;4.139922e-002
2.775181e+003;4.146487e-002
2.777109e+003;4.156597e-002
2.779038e+003;4.158325e-002
2.780966e+003;4.200709e-002
2.782895e+003;4.249316e-002
2.784823e+003;4.224776e-002
2.786752e+003;4.204699e-002
2.788680e+003;4.226142e-002
2.790609e+003;4.246455e-002
2.792538e+003;4.246035e-002
2.794466e+003;4.267276e-002
2.796395e+003;4.282068e-002
2.798323e+003;4.297832e-002
2.800252e+003;4.325602e-002
2.802180e+003;4.347749e-002
2.804109e+003;4.375907e-002
2.806037e+003;4.393692e-002
2.807966e+003;4.387448e-002
2.809895e+003;4.389677e-002
2.811823e+003;4.396885e-002
2.813751e+003;4.404475e-002
2.815680e+003;4.404222e-002
2.817609e+003;4.403507e-002
2.819537e+003;4.418629e-002
2.821466e+003;4.430570e-002
2.823394e+003;4.444362e-002
2.825323e+003;4.453601e-002
2.827251e+003;4.463636e-002
2.829180e+003;4.490483e-002
2.831108e+003;4.524308e-002
2.833037e+003;4.581419e-002
2.834966e+003;4.649778e-002
2.836894e+003;4.692951e-002
2.838823e+003;4.770834e-002
2.840751e+003;4.884586e-002
2.842680e+003;5.043356e-002
2.844608e+003;5.254763e-002
2.846537e+003;5.480658e-002
2.848465e+003;5.657389e-002
2.850394e+003;5.719424e-002
2.852323e+003;5.653657e-002
2.854251e+003;5.580663e-002
2.856180e+003;5.535432e-002
2.858108e+003;5.434431e-002
2.860037e+003;5.369791e-002
2.861965e+003;5.339202e-002
2.863894e+003;5.320303e-002
2.865822e+003;5.329102e-002
2.867751e+003;5.314757e-002
2.869679e+003;5.305201e-002
2.871608e+003;5.282504e-002
2.873536e+003;5.257264e-002
2.875465e+003;5.253499e-002
2.877394e+003;5.234371e-002
2.879322e+003;5.232495e-002
2.881251e+003;5.235168e-002
2.883179e+003;5.205275e-002
2.885108e+003;5.155848e-002
2.887036e+003;5.184523e-002
2.888965e+003;5.268519e-002
2.890893e+003;5.330933e-002
2.892822e+003;5.389015e-002
2.894750e+003;5.418077e-002
2.896679e+003;5.445161e-002
2.898608e+003;5.496536e-002
2.900536e+003;5.547610e-002
2.902465e+003;5.602311e-002
2.904393e+003;5.678395e-002
2.906322e+003;5.788328e-002
2.908250e+003;5.916993e-002
2.910179e+003;6.050939e-002
2.912107e+003;6.208071e-002
2.914036e+003;6.453550e-002
2.915965e+003;6.641234e-002
2.917893e+003;6.688841e-002
2.919822e+003;6.666043e-002
2.921750e+003;6.613348e-002
2.923679e+003;6.584103e-002
2.925607e+003;6.519728e-002
2.927536e+003;6.401741e-002
2.929464e+003;6.307810e-002
2.931393e+003;6.224102e-002
2.933322e+003;6.167201e-002
2.935250e+003;6.114187e-002
2.937178e+003;6.037188e-002
2.939107e+003;5.962597e-002
2.941036e+003;5.901664e-002
2.942964e+003;5.867269e-002
2.944893e+003;5.820766e-002
2.946821e+003;5.761030e-002
2.948750e+003;5.741478e-002
2.950678e+003;5.738872e-002
2.952607e+003;5.704368e-002
2.954535e+003;5.644789e-002
2.956464e+003;5.596811e-002
2.958393e+003;5.560590e-002
2.960321e+003;5.531601e-002
2.962250e+003;5.468176e-002
2.964178e+003;5.387604e-002
2.966107e+003;5.337992e-002
2.968035e+003;5.304063e-002
2.969964e+003;5.264752e-002
2.971892e+003;5.189772e-002
2.973821e+003;5.114907e-002
2.975750e+003;5.094377e-002
2.977678e+003;5.091747e-002
2.979607e+003;5.075622e-002
2.981535e+003;5.074121e-002
2.983464e+003;5.056912e-002
2.985392e+003;5.010988e-002
2.987321e+003;4.968420e-002
2.989249e+003;4.939055e-002
2.991178e+003;4.940800e-002
2.993106e+003;4.937511e-002
2.995035e+003;4.906423e-002
2.996964e+003;4.871196e-002
2.998892e+003;4.860321e-002
3.000821e+003;4.874784e-002
3.002749e+003;4.872956e-002
3.004678e+003;4.852403e-002
3.006606e+003;4.814165e-002
3.008535e+003;4.784375e-002
3.010463e+003;4.756817e-002
3.012392e+003;4.736876e-002
3.014321e+003;4.690976e-002
3.016249e+003;4.638705e-002
3.018177e+003;4.661186e-002
3.020106e+003;4.694941e-002
3.022035e+003;4.690622e-002
3.023963e+003;4.645239e-002
3.025892e+003;4.597884e-002
3.027820e+003;4.610126e-002
3.029749e+003;4.621874e-002
3.031677e+003;4.614025e-002
3.033606e+003;4.614308e-002
3.035534e+003;4.575182e-002
3.037463e+003;4.572671e-002
3.039392e+003;4.574921e-002
3.041320e+003;4.562343e-002
3.043249e+003;4.552650e-002
3.045177e+003;4.565188e-002
3.047106e+003;4.591859e-002
3.049034e+003;4.553106e-002
3.050963e+003;4.513274e-002
3.052891e+003;4.515101e-002
3.054820e+003;4.503272e-002
3.056749e+003;4.475689e-002
3.058677e+003;4.472553e-002
3.060606e+003;4.496425e-002
3.062534e+003;4.489712e-002
3.064463e+003;4.498898e-002
3.066391e+003;4.505014e-002
3.068320e+003;4.512969e-002
3.070248e+003;4.514579e-002
3.072177e+003;4.462428e-002
3.074105e+003;4.420224e-002
3.076034e+003;4.412045e-002
3.077963e+003;4.387372e-002
3.079891e+003;4.397351e-002
3.081820e+003;4.440556e-002
3.083748e+003;4.462534e-002
3.085677e+003;4.428380e-002
3.087605e+003;4.379751e-002
3.089534e+003;4.365556e-002
3.091462e+003;4.394597e-002
3.093391e+003;4.417070e-002
3.095320e+003;4.427595e-002
3.097248e+003;4.426237e-002
3.099177e+003;4.398539e-002
3.101105e+003;4.372356e-002
3.103034e+003;4.367047e-002
3.104962e+003;4.355258e-002
3.106891e+003;4.356774e-002
3.108819e+003;4.332568e-002
3.110748e+003;4.311325e-002
3.112677e+003;4.336918e-002
3.114605e+003;4.363617e-002
3.116533e+003;4.327480e-002
3.118462e+003;4.308844e-002
3.120391e+003;4.327700e-002
3.122319e+003;4.324460e-002
3.124248e+003;4.324218e-002
3.126176e+003;4.312525e-002
3.128105e+003;4.305398e-002
3.130033e+003;4.325503e-002
3.131962e+003;4.304842e-002
3.133890e+003;4.270584e-002
3.135819e+003;4.247617e-002
3.137748e+003;4.251092e-002
3.139676e+003;4.297068e-002
3.141605e+003;4.331562e-002
3.143533e+003;4.345332e-002
3.145462e+003;4.346438e-002
3.147390e+003;4.332312e-002
3.149319e+003;4.307626e-002
3.151247e+003;4.302815e-002
3.153176e+003;4.304743e-002
3.155104e+003;4.312642e-002
3.157033e+003;4.320800e-002
3.158962e+003;4.356324e-002
3.160890e+003;4.346742e-002
3.162819e+003;4.302394e-002
3.164747e+003;4.283319e-002
3.166676e+003;4.288779e-002
3.168604e+003;4.307084e-002
3.170533e+003;4.277443e-002
3.172461e+003;4.272010e-002
3.174390e+003;4.302774e-002
3.176319e+003;4.324237e-002
3.178247e+003;4.373921e-002
3.180176e+003;4.412697e-002
3.182104e+003;4.390956e-002
3.184033e+003;4.364544e-002
3.185961e+003;4.378205e-002
3.187890e+003;4.387558e-002
3.189818e+003;4.386220e-002
3.191747e+003;4.380594e-002
3.193676e+003;4.381742e-002
3.195604e+003;4.383512e-002
3.197532e+003;4.380649e-002
3.199461e+003;4.380997e-002
3.201390e+003;4.365204e-002
3.203318e+003;4.371235e-002
3.205247e+003;4.409499e-002
3.207175e+003;4.443488e-002
3.209104e+003;4.455778e-002
3.211032e+003;4.470198e-002
3.212961e+003;4.462050e-002
3.214889e+003;4.420096e-002
3.216818e+003;4.390110e-002
3.218747e+003;4.390256e-002
3.220675e+003;4.403151e-002
3.222604e+003;4.422183e-002
3.224532e+003;4.438622e-002
3.226461e+003;4.455910e-002
3.228389e+003;4.469489e-002
3.230318e+003;4.490097e-002
3.232246e+003;4.482827e-002
3.234175e+003;4.456707e-002
3.236104e+003;4.421299e-002
3.238032e+003;4.429015e-002
3.239961e+003;4.466269e-002
3.241889e+003;4.468568e-002
3.243818e+003;4.443363e-002
3.245746e+003;4.465733e-002
3.247675e+003;4.510142e-002
3.249603e+003;4.524495e-002
3.251532e+003;4.516380e-002
3.253460e+003;4.465942e-002
3.255389e+003;4.450330e-002
3.257318e+003;4.472196e-002
3.259246e+003;4.493375e-002
3.261175e+003;4.531806e-002
3.263103e+003;4.541535e-002
3.265032e+003;4.528254e-002
3.266960e+003;4.516369e-002
3.268889e+003;4.467066e-002
3.270817e+003;4.476817e-002
3.272746e+003;4.506267e-002
3.274675e+003;4.512796e-002
3.276603e+003;4.496223e-002
3.278531e+003;4.478455e-002
3.280460e+003;4.498049e-002
3.282389e+003;4.524481e-002
3.284317e+003;4.554398e-002
3.286246e+003;4.571567e-002
3.288174e+003;4.565158e-002
3.290103e+003;4.534160e-002
3.292031e+003;4.541653e-002
3.293960e+003;4.514024e-002
3.295888e+003;4.465923e-002
3.297817e+003;4.473724e-002
3.299746e+003;4.506352e-002
3.301674e+003;4.519546e-002
3.303603e+003;4.522307e-002
3.305531e+003;4.510414e-002
3.307460e+003;4.514921e-002
3.309388e+003;4.550935e-002
3.311317e+003;4.570157e-002
3.313245e+003;4.556226e-002
3.315174e+003;4.530482e-002
3.317103e+003;4.537095e-002
3.319031e+003;4.548109e-002
3.320960e+003;4.531538e-002
3.322888e+003;4.506458e-002
3.324817e+003;4.505415e-002
3.326745e+003;4.516130e-002
3.328674e+003;4.520520e-002
3.330602e+003;4.475454e-002
3.332531e+003;4.470220e-002
3.334459e+003;4.477169e-002
3.336388e+003;4.445444e-002
3.338317e+003;4.401846e-002
3.340245e+003;4.427606e-002
3.342174e+003;4.458234e-002
3.344102e+003;4.440104e-002
3.346031e+003;4.435612e-002
3.347959e+003;4.437410e-002
3.349888e+003;4.401010e-002
3.351816e+003;4.393328e-002
3.353745e+003;4.414718e-002
3.355674e+003;4.410930e-002
3.357602e+003;4.409738e-002
3.359531e+003;4.463441e-002
3.361459e+003;4.475193e-002
3.363388e+003;4.450227e-002
3.365316e+003;4.419887e-002
3.367245e+003;4.385499e-002
3.369173e+003;4.368205e-002
3.371102e+003;4.414795e-002
3.373031e+003;4.430930e-002
3.374959e+003;4.413071e-002
3.376887e+003;4.368996e-002
3.378816e+003;4.358657e-002
3.380745e+003;4.408909e-002
3.382673e+003;4.425577e-002
3.384602e+003;4.395019e-002
3.386530e+003;4.395396e-002
3.388459e+003;4.385047e-002
3.390387e+003;4.356741e-002
3.392316e+003;4.336907e-002
3.394244e+003;4.349610e-002
3.396173e+003;4.310827e-002
3.398102e+003;4.269604e-002
3.400030e+003;4.284072e-002
3.401959e+003;4.351474e-002
3.403887e+003;4.374471e-002
3.405816e+003;4.345853e-002
3.407744e+003;4.361709e-002
3.409673e+003;4.375145e-002
3.411601e+003;4.321019e-002
3.413530e+003;4.272167e-002
3.415458e+003;4.288735e-002
3.417387e+003;4.340426e-002
3.419316e+003;4.362804e-002
3.421244e+003;4.302888e-002
3.423173e+003;4.291464e-002
3.425101e+003;4.319233e-002
3.427030e+003;4.310736e-002
3.428958e+003;4.325411e-002
3.430887e+003;4.350610e-002
3.432815e+003;4.314626e-002
3.434744e+003;4.241998e-002
3.436673e+003;4.253899e-002
3.438601e+003;4.322066e-002
3.440530e+003;4.302723e-002
3.442458e+003;4.251257e-002
3.444387e+003;4.236372e-002
3.446315e+003;4.266771e-002
3.448244e+003;4.272408e-002
3.450172e+003;4.275191e-002
3.452101e+003;4.292630e-002
3.454030e+003;4.314355e-002
3.455958e+003;4.324801e-002
3.457886e+003;4.325112e-002
3.459815e+003;4.304549e-002
3.461744e+003;4.272090e-002
3.463672e+003;4.253742e-002
3.465601e+003;4.252762e-002
3.467529e+003;4.268844e-002
3.469458e+003;4.276668e-002
3.471386e+003;4.263324e-002
3.473315e+003;4.231437e-002
3.475243e+003;4.239357e-002
3.477172e+003;4.261577e-002
3.479101e+003;4.258401e-002
3.481029e+003;4.247665e-002
3.482958e+003;4.235295e-002
3.484886e+003;4.220616e-002
3.486815e+003;4.195162e-002
3.488743e+003;4.154628e-002
3.490672e+003;4.145845e-002
3.492600e+003;4.183361e-002
3.494529e+003;4.197833e-002
3.496458e+003;4.165910e-002
3.498386e+003;4.178115e-002
3.500315e+003;4.210185e-002
3.502243e+003;4.212109e-002
3.504172e+003;4.205691e-002
3.506100e+003;4.173923e-002
3.508029e+003;4.132815e-002
3.509957e+003;4.148984e-002
3.511886e+003;4.199052e-002
3.513814e+003;4.196567e-002
3.515743e+003;4.202804e-002
3.517672e+003;4.228475e-002
3.519600e+003;4.239364e-002
3.521529e+003;4.248809e-002
3.523457e+003;4.246788e-002
3.525386e+003;4.212624e-002
3.527314e+003;4.218404e-002
3.529243e+003;4.252784e-002
3.531171e+003;4.280310e-002
3.533100e+003;4.254955e-002
3.535029e+003;4.217673e-002
3.536957e+003;4.215753e-002
3.538885e+003;4.186488e-002
3.540814e+003;4.179169e-002
3.542743e+003;4.185568e-002
3.544671e+003;4.169028e-002
3.546600e+003;4.192114e-002
3.548528e+003;4.175080e-002
3.550457e+003;4.103919e-002
3.552385e+003;4.108876e-002
3.554314e+003;4.153188e-002
3.556242e+003;4.165002e-002
3.558171e+003;4.203176e-002
3.560100e+003;4.217312e-002
3.562028e+003;4.182285e-002
3.563957e+003;4.152448e-002
3.565885e+003;4.136482e-002
3.567814e+003;4.143811e-002
3.569742e+003;4.144260e-002
3.571671e+003;4.155058e-002
3.573599e+003;4.169689e-002
3.575528e+003;4.154821e-002
3.577457e+003;4.104549e-002
3.579385e+003;4.045643e-002
3.581314e+003;4.018843e-002
3.583242e+003;4.032476e-002
3.585171e+003;4.042759e-002
3.587099e+003;3.997208e-002
3.589028e+003;3.973608e-002
3.590956e+003;4.017604e-002
3.592885e+003;4.048956e-002
3.594813e+003;4.051095e-002
3.596742e+003;4.068626e-002
3.598671e+003;4.059792e-002
3.600599e+003;4.055358e-002
3.602528e+003;4.108435e-002
3.604456e+003;4.107936e-002
3.606385e+003;4.065148e-002
3.608313e+003;4.081794e-002
3.610242e+003;4.101184e-002
3.612170e+003;4.060389e-002
3.614099e+003;4.036813e-002
3.616028e+003;4.046930e-002
3.617956e+003;4.088281e-002
3.619885e+003;4.099389e-002
3.621813e+003;4.042326e-002
3.623742e+003;4.026891e-002
3.625670e+003;4.029578e-002
3.627599e+003;3.998312e-002
3.629527e+003;4.024285e-002
3.631456e+003;4.075486e-002
3.633385e+003;4.088004e-002
3.635313e+003;4.092318e-002
3.637241e+003;4.074879e-002
3.639170e+003;4.046457e-002
3.641099e+003;4.021595e-002
3.643027e+003;4.006360e-002
3.644956e+003;3.980929e-002
3.646884e+003;3.924159e-002
3.648813e+003;3.852930e-002
3.650741e+003;3.879848e-002
3.652670e+003;3.924228e-002
3.654598e+003;3.889251e-002
3.656527e+003;3.845464e-002
3.658456e+003;3.902270e-002
3.660384e+003;3.915557e-002
3.662313e+003;3.862559e-002
3.664241e+003;3.774784e-002
3.666170e+003;3.728203e-002
3.668098e+003;3.736980e-002
3.670027e+003;3.711677e-002
3.671955e+003;3.718196e-002
3.673884e+003;3.785382e-002
3.675813e+003;3.827802e-002
3.677741e+003;3.754194e-002
3.679669e+003;3.648965e-002
3.681598e+003;3.605852e-002
3.683527e+003;3.588920e-002
3.685455e+003;3.559689e-002
3.687384e+003;3.494111e-002
3.689312e+003;3.492865e-002
3.691241e+003;3.537757e-002
3.693169e+003;3.601060e-002
3.695098e+003;3.653711e-002
3.697026e+003;3.627272e-002
3.698955e+003;3.556330e-002
3.700884e+003;3.506240e-002
3.702812e+003;3.557826e-002
3.704741e+003;3.601982e-002
3.706669e+003;3.583583e-002
3.708598e+003;3.548394e-002
3.710526e+003;3.445717e-002
3.712455e+003;3.371121e-002
3.714383e+003;3.473640e-002
3.716312e+003;3.565084e-002
3.718240e+003;3.545378e-002
3.720169e+003;3.526090e-002
3.722098e+003;3.542775e-002
3.724026e+003;3.547855e-002
3.725955e+003;3.494503e-002
3.727883e+003;3.475851e-002
3.729812e+003;3.482033e-002
3.731740e+003;3.464133e-002
3.733669e+003;3.485461e-002
3.735597e+003;3.484179e-002
3.737526e+003;3.488922e-002
3.739455e+003;3.511754e-002
3.741383e+003;3.496808e-002
3.743312e+003;3.416912e-002
3.745240e+003;3.383936e-002
3.747169e+003;3.418773e-002
3.749097e+003;3.392726e-002
3.751026e+003;3.405640e-002
3.752954e+003;3.458421e-002
3.754883e+003;3.512451e-002
3.756812e+003;3.518336e-002
3.758740e+003;3.504907e-002
3.760668e+003;3.483720e-002
3.762597e+003;3.470701e-002
3.764526e+003;3.486352e-002
3.766454e+003;3.534651e-002
3.768383e+003;3.523237e-002
3.770311e+003;3.489299e-002
3.772240e+003;3.473040e-002
3.774168e+003;3.506028e-002
3.776097e+003;3.548272e-002
3.778025e+003;3.534576e-002
3.779954e+003;3.529163e-002
3.781883e+003;3.532624e-002
3.783811e+003;3.525666e-002
3.785740e+003;3.507702e-002
3.787668e+003;3.503237e-002
3.789597e+003;3.484065e-002
3.791525e+003;3.467682e-002
3.793454e+003;3.486783e-002
3.795382e+003;3.486143e-002
3.797311e+003;3.444214e-002
3.799240e+003;3.392931e-002
3.801168e+003;3.395955e-002
3.803097e+003;3.460351e-002
3.805025e+003;3.473935e-002
3.806954e+003;3.438874e-002
3.808882e+003;3.493863e-002
3.810811e+003;3.522795e-002
3.812739e+003;3.496750e-002
3.814668e+003;3.440132e-002
3.816596e+003;3.375949e-002
3.818525e+003;3.380966e-002
3.820454e+003;3.431615e-002
3.822382e+003;3.477104e-002
3.824311e+003;3.504200e-002
3.826239e+003;3.521788e-002
3.828168e+003;3.511089e-002
3.830096e+003;3.463361e-002
3.832025e+003;3.423964e-002
3.833953e+003;3.465794e-002
3.835882e+003;3.492424e-002
3.837811e+003;3.436912e-002
3.839739e+003;3.456745e-002
3.841667e+003;3.520585e-002
3.843596e+003;3.553306e-002
3.845525e+003;3.574678e-002
3.847453e+003;3.564559e-002
3.849382e+003;3.522568e-002
3.851310e+003;3.419576e-002
3.853239e+003;3.329568e-002
3.855167e+003;3.389455e-002
3.857096e+003;3.496503e-002
3.859024e+003;3.545665e-002
3.860953e+003;3.547226e-002
3.862882e+003;3.551752e-002
3.864810e+003;3.570969e-002
3.866739e+003;3.552788e-002
3.868667e+003;3.525885e-002
3.870596e+003;3.540180e-002
3.872524e+003;3.572243e-002
3.874453e+003;3.581673e-002
3.876381e+003;3.586595e-002
3.878310e+003;3.571699e-002
3.880239e+003;3.558844e-002
3.882167e+003;3.551303e-002
3.884096e+003;3.495479e-002
3.886024e+003;3.492606e-002
3.887953e+003;3.552252e-002
3.889881e+003;3.574879e-002
3.891810e+003;3.582482e-002
3.893738e+003;3.598962e-002
3.895667e+003;3.600780e-002
3.897595e+003;3.563710e-002
3.899524e+003;3.549829e-002
3.901453e+003;3.560617e-002
3.903381e+003;3.531776e-002
3.905310e+003;3.528210e-002
3.907238e+003;3.525806e-002
3.909167e+003;3.543853e-002
3.911095e+003;3.552306e-002
3.913024e+003;3.480751e-002
3.914952e+003;3.445050e-002
3.916881e+003;3.517545e-002
3.918810e+003;3.595272e-002
3.920738e+003;3.604376e-002
3.922667e+003;3.593343e-002
3.924595e+003;3.592947e-002
3.926524e+003;3.623796e-002
3.928452e+003;3.620500e-002
3.930381e+003;3.550009e-002
3.932309e+003;3.507842e-002
3.934238e+003;3.551034e-002
3.936167e+003;3.576830e-002
3.938095e+003;3.555881e-002
3.940023e+003;3.511014e-002
3.941952e+003;3.500288e-002
3.943881e+003;3.564109e-002
3.945809e+003;3.622676e-002
3.947738e+003;3.637755e-002
3.949666e+003;3.598613e-002
3.951595e+003;3.596143e-002
3.953523e+003;3.668582e-002
3.955452e+003;3.698016e-002
3.957380e+003;3.639701e-002
3.959309e+003;3.587884e-002
3.961238e+003;3.600020e-002
3.963166e+003;3.593131e-002
3.965095e+003;3.582709e-002
3.967023e+003;3.640446e-002
3.968952e+003;3.664807e-002
3.970880e+003;3.620126e-002
3.972809e+003;3.591623e-002
3.974737e+003;3.599138e-002
3.976666e+003;3.624257e-002
3.978594e+003;3.602623e-002
3.980523e+003;3.589395e-002
3.982452e+003;3.632066e-002
3.984380e+003;3.650410e-002
3.986309e+003;3.642619e-002
3.988237e+003;3.658167e-002
3.990166e+003;3.633543e-002
3.992094e+003;3.631184e-002
3.994023e+003;3.635763e-002
3.995951e+003;3.592519e-002
3.997880e+003;3.589798e-002
3.999809e+003;3.673417e-002
4.001737e+003;0.000000e+000
